DTS Sentinel unit serial number:	SN409020Multiplexer serial number:	ORYXHardware model number:	OX4-SRSoftware version number:	ORYX F/W v3.00 Oryx Data Collector v3.7.2.0data status	okinstallation	HaddamTimeLapsedifferential loss correction	single-endedforward channel	channel 3reverse channel	N/Adate	2011/06/21time	23:56:17forward acquisition time	30.00reverse acquisition time	0.00gamma	498.7831k internal	0.1753k external	0.1753temperature offset calibration	1.0074default loss term (dB/km)	0.3790temperature slope calibration	1.3530multiplexer offset coefficient	1.0000multiplexer slope coefficient	1.0000fibre end	0.00T internal ref (°C)	22.97T ext. ref 1 (°C)	18.20T ext. ref 2 (°C)	0.05length (m)	temperature (°C)	Stokes	anti-Stokes-747.200	-78.321	0.388	-0.176
-746.185	-200.000	0.040	0.637
-745.171	65.397	0.194	0.260
-744.156	-80.556	0.568	-0.250
-743.142	-72.339	-0.234	-0.115
-742.127	800.000	-0.030	0.151
-741.112	310.383	0.103	-0.258
-740.098	206.054	-0.211	0.438
-739.083	800.000	-0.094	-0.416
-738.069	182.825	0.303	0.594
-737.054	-175.803	-0.142	-0.005
-736.039	-109.544	-0.373	-0.104
-735.025	-161.287	-0.978	0.066
-734.010	-200.000	-0.198	0.001
-732.996	46.746	0.145	0.179
-731.981	549.702	0.136	0.435
-730.966	99.459	-0.213	-0.328
-729.952	-196.553	-0.255	0.002
-728.937	-158.747	0.134	-0.010
-727.923	-100.631	-0.456	-0.148
-726.908	-174.067	-0.453	-0.017
-725.894	294.542	0.085	-0.207
-724.879	-20.679	-0.554	0.450
-723.864	217.965	-0.066	-0.140
-722.850	800.000	0.077	-0.320
-721.835	-13.820	-0.305	-0.261
-720.821	-200.000	-0.033	-0.575
-719.806	-33.143	0.191	-0.140
-718.791	-71.304	-0.432	0.214
-717.777	-121.786	-0.509	-0.111
-716.762	-200.000	0.053	0.650
-715.748	-100.541	0.099	-0.032
-714.733	-93.474	0.170	-0.062
-713.718	-89.763	-0.331	-0.128
-712.704	-99.225	0.623	-0.207
-711.689	280.073	0.324	-0.771
-710.675	-17.660	-0.542	0.451
-709.660	-33.429	0.097	-0.071
-708.645	-40.317	0.192	0.132
-707.631	-200.000	0.001	0.194
-706.616	-82.903	0.124	-0.053
-705.602	-123.812	0.054	-0.011
-704.587	75.807	0.152	-0.213
-703.572	154.387	0.130	-0.237
-702.558	27.134	0.106	0.118
-701.543	-168.765	-0.155	0.008
-700.529	-49.293	-0.171	0.108
-699.514	-127.334	-0.180	-0.035
-698.499	-50.898	-0.222	-0.138
-697.485	-157.558	-0.451	0.035
-696.470	5.858	0.562	-0.551
-695.456	-200.000	0.018	-0.494
-694.441	-74.617	-0.197	0.094
-693.426	-200.000	0.036	0.309
-692.412	172.837	-0.067	0.128
-691.397	365.282	-0.160	0.429
-690.383	-28.209	-0.044	0.033
-689.368	-18.074	-0.075	-0.062
-688.354	225.046	-0.058	-0.124
-687.339	-114.915	-0.213	0.053
-686.324	-53.021	0.341	0.207
-685.310	-200.000	-0.013	-0.525
-684.295	161.000	0.118	-0.218
-683.281	361.274	-0.040	0.107
-682.266	-124.145	0.199	-0.041
-681.251	-130.149	-0.305	0.055
-680.237	237.362	0.145	-0.320
-679.222	-81.143	-0.140	0.061
-678.208	-200.000	0.026	-0.288
-677.193	3.877	-0.365	-0.353
-676.178	-200.000	0.034	-0.242
-675.164	-64.103	0.183	0.098
-674.149	800.000	0.092	-0.349
-673.135	-154.341	0.173	0.015
-672.120	800.000	0.059	-0.315
-671.105	175.188	0.058	0.112
-670.091	-49.413	-0.465	0.293
-669.076	-43.578	0.398	-0.265
-668.062	-161.145	-0.651	-0.044
-667.047	-200.000	0.054	-0.467
-666.032	-51.523	0.304	-0.187
-665.018	-146.998	0.601	-0.067
-664.003	-158.591	0.307	0.023
-662.989	-52.977	-0.432	0.262
-661.974	72.873	-0.190	-0.263
-660.959	800.000	-0.120	-0.604
-659.945	173.150	-0.098	0.188
-658.930	252.126	-0.074	0.167
-657.916	50.965	0.234	0.293
-656.901	86.171	-0.488	-0.712
-655.886	-162.582	0.252	-0.016
-654.872	-200.000	-0.016	0.375
-653.857	-75.147	-0.187	-0.088
-652.843	-70.808	-0.195	-0.097
-651.828	227.993	0.210	0.454
-650.814	-56.499	0.343	-0.201
-649.799	-62.650	-0.359	0.196
-648.784	-95.643	-0.261	-0.092
-647.770	-73.471	-0.206	-0.099
-646.755	-57.697	0.180	-0.104
-645.741	-139.775	-0.253	0.035
-644.726	-105.999	-0.065	-0.019
-643.711	384.000	-0.053	0.146
-642.697	34.999	0.208	0.241
-641.682	-94.600	-0.167	-0.060
-640.668	-176.872	0.278	0.009
-639.653	-28.896	0.369	0.280
-638.638	-102.766	0.268	-0.084
-637.624	-127.726	-0.202	-0.038
-636.609	-200.000	0.012	-0.205
-635.595	-68.788	0.083	-0.042
-634.580	-106.171	-0.177	-0.052
-633.565	24.500	0.465	-0.508
-632.551	800.000	-0.008	-0.032
-631.536	17.859	0.196	-0.206
-630.522	-60.523	0.273	-0.153
-629.507	199.439	0.119	-0.242
-628.492	109.420	0.095	0.151
-627.478	-3.582	-0.406	-0.372
-626.463	255.506	0.268	-0.609
-625.449	-200.000	-0.012	0.771
-624.434	-59.222	-0.133	0.075
-623.419	-146.217	0.176	0.020
-622.405	-34.002	0.460	0.333
-621.390	61.051	-0.139	-0.183
-620.376	-81.266	0.159	0.069
-619.361	39.229	-0.051	0.060
-618.346	-4.187	-0.334	-0.305
-617.332	-105.079	-0.549	-0.165
-616.317	-92.732	0.112	-0.041
-615.303	-199.507	-0.150	-0.001
-614.288	-200.000	0.003	0.016
-613.273	-9.693	0.507	0.446
-612.259	-0.459	-0.099	-0.093
-611.244	236.195	-0.209	0.457
-610.230	-57.667	0.466	-0.269
-609.215	-85.382	-0.193	-0.079
-608.201	-151.999	0.295	0.028
-607.186	-29.025	0.203	0.153
-606.171	123.365	0.190	-0.316
-605.157	-176.082	0.371	-0.013
-604.142	-200.000	0.000	-0.125
-603.128	-117.341	0.512	0.122
-602.113	-78.896	0.770	0.345
-601.098	153.742	0.366	-0.664
-600.084	33.077	0.101	0.115
-599.069	-77.513	-0.040	0.018
-598.055	-154.937	-0.341	-0.029
-597.040	-88.081	0.296	-0.116
-596.025	40.915	0.256	0.305
-595.011	-160.376	-0.214	-0.015
-593.996	455.063	0.269	-0.789
-592.982	-152.367	0.276	-0.026
-591.967	-80.776	0.317	-0.138
-590.952	-163.341	-0.448	0.028
-589.938	312.837	0.215	0.535
-588.923	-178.672	-0.117	-0.003
-587.909	-115.629	-0.712	0.175
-586.894	-183.937	0.349	-0.008
-585.879	-99.373	-0.477	0.158
-584.865	117.861	-0.373	-0.607
-583.850	-38.953	-0.341	-0.236
-582.836	591.341	-0.040	-0.132
-581.821	604.341	0.048	0.160
-580.806	-124.884	0.210	0.042
-579.792	-200.000	-0.036	-0.242
-578.777	-11.706	0.371	-0.321
-577.763	800.000	0.116	0.442
-576.748	94.522	0.255	-0.382
-575.733	-172.348	0.341	-0.014
-574.719	-71.712	-0.458	-0.224
-573.704	-200.000	-0.036	0.308
-572.690	-44.532	-0.361	0.237
-571.675	50.597	-0.202	-0.252
-570.661	-175.232	-0.438	-0.016
-569.646	-57.240	-0.175	-0.101
-568.631	227.441	0.040	-0.085
-567.617	800.000	-0.049	-0.222
-566.602	175.106	-0.108	0.208
-565.588	-68.669	-0.198	0.100
-564.573	-200.000	-0.026	-0.181
-563.558	-200.000	0.003	-0.117
-562.544	750.924	-0.116	0.415
-561.529	-80.027	-0.599	-0.263
-560.515	-25.275	-0.261	0.203
-559.500	-85.432	-0.424	-0.173
-558.485	800.000	-0.027	0.102
-557.471	-121.931	-0.242	0.052
-556.456	800.000	0.039	0.219
-555.442	-89.297	-0.354	-0.137
-554.427	-17.904	-0.332	-0.274
-553.412	-20.764	0.165	-0.133
-552.398	-200.000	0.047	-0.528
-551.383	-164.105	-0.484	-0.029
-550.369	289.532	-0.046	-0.110
-549.354	68.786	-0.038	0.051
-548.339	-84.657	0.334	0.138
-547.325	-200.000	0.014	-0.172
-546.310	-67.108	-0.233	-0.121
-545.296	138.698	-0.227	0.394
-544.281	-103.970	-0.221	-0.067
-543.266	5.830	0.306	-0.298
-542.252	-200.000	-0.007	0.151
-541.237	96.355	0.254	0.383
-540.223	506.026	-0.119	0.365
-539.208	-12.810	-0.139	0.119
-538.193	-184.147	-0.377	-0.008
-537.179	-3.977	0.210	0.191
-536.164	-86.103	0.262	0.106
-535.150	-159.610	-0.260	0.019
-534.135	-22.540	-0.245	-0.195
-533.121	-19.397	0.138	0.112
-532.106	-141.144	0.278	-0.037
-531.091	-45.234	-0.253	-0.165
-530.077	156.753	-0.084	-0.153
-529.062	-136.745	0.112	0.017
-528.048	-104.489	0.558	0.169
-527.033	-83.028	0.140	-0.059
-526.018	800.000	-0.011	0.059
-525.004	155.190	-0.137	-0.248
-523.989	-127.984	0.340	0.064
-522.975	-200.000	-0.008	-0.276
-521.960	35.995	0.128	-0.148
-520.945	-200.000	0.115	-0.832
-519.931	139.592	-0.253	-0.439
-518.916	800.000	-0.087	-0.419
-517.902	-105.238	0.077	0.023
-516.887	228.414	0.162	0.348
-515.872	93.068	0.198	0.294
-514.858	-59.440	0.027	0.015
-513.843	-35.239	-0.285	0.204
-512.829	-126.471	0.576	0.112
-511.814	180.874	0.242	0.469
-510.799	10.827	-0.413	0.415
-509.785	-63.920	0.430	-0.230
-508.770	-200.000	-0.039	0.429
-507.756	557.031	-0.077	0.244
-506.741	-15.005	-0.339	0.286
-505.726	800.000	-0.046	-0.213
-504.712	70.620	0.388	-0.529
-503.697	-130.390	0.345	0.061
-502.683	-54.124	0.342	-0.204
-501.668	84.649	0.250	-0.360
-500.653	-200.000	0.001	0.380
-499.639	36.939	0.201	-0.234
-498.624	-39.445	-0.595	0.409
-497.610	-115.513	0.539	0.132
-496.595	77.841	0.090	-0.127
-495.581	173.598	-0.110	0.209
-494.566	-120.734	-0.249	-0.055
-493.551	-173.874	0.488	-0.019
-492.537	293.069	0.184	-0.442
-491.522	-81.450	0.150	-0.064
-490.508	-93.785	0.280	0.101
-489.493	54.183	0.297	-0.376
-488.478	-157.120	-0.369	-0.029
-487.464	-200.000	-0.010	-0.301
-486.449	1.445	-0.110	0.104
-485.435	207.350	0.121	-0.249
-484.420	-61.032	-0.100	-0.055
-483.405	-108.408	-0.589	-0.166
-482.391	-165.914	0.311	-0.017
-481.376	-61.490	-0.522	0.287
-480.362	-72.759	-0.459	-0.221
-479.347	-115.975	0.145	0.035
-478.332	-200.000	0.478	-0.001
-477.318	-163.677	-0.100	0.006
-476.303	-200.000	-0.009	-0.268
-475.289	62.039	0.031	0.040
-474.274	-67.671	-0.285	-0.146
-473.259	-200.000	0.037	-0.383
-472.245	185.317	0.170	-0.332
-471.230	53.251	-0.246	0.310
-470.216	454.037	0.173	0.507
-469.201	-15.516	-0.336	-0.282
-468.186	48.826	-0.389	-0.479
-467.172	-200.000	0.005	0.278
-466.157	-200.000	0.017	0.386
-465.143	-200.000	-0.107	0.001
-464.128	-1.604	-0.233	0.216
-463.113	-129.053	-0.226	0.041
-462.099	-168.972	-0.247	0.012
-461.084	531.512	0.178	0.556
-460.070	156.772	0.075	-0.137
-459.055	-73.214	-0.013	-0.006
-458.040	-83.556	-0.248	-0.104
-457.026	-200.000	0.035	-0.351
-456.011	-200.000	0.041	-0.391
-454.997	-200.000	-0.033	-0.253
-453.982	-119.369	-0.174	0.039
-452.968	-85.501	0.123	0.050
-451.953	-29.018	0.099	-0.074
-450.938	13.646	0.201	-0.205
-449.924	800.000	0.082	-0.375
-448.909	574.124	-0.165	-0.530
-447.895	-67.336	-0.044	-0.023
-446.880	360.450	-0.057	0.152
-445.865	-116.129	-0.584	-0.141
-444.851	35.852	-0.293	0.339
-443.836	-114.498	0.301	0.075
-442.822	85.140	-0.174	0.251
-441.807	-200.000	0.004	-0.164
-440.792	632.773	0.129	-0.431
-439.778	48.857	0.230	-0.283
-438.763	-140.720	0.211	-0.028
-437.749	-100.163	-0.375	-0.121
-436.734	19.692	-0.121	-0.127
-435.719	68.461	-0.137	0.185
-434.705	-21.105	-0.355	0.284
-433.690	-83.637	0.058	0.024
-432.676	-4.293	-0.217	-0.197
-431.661	-62.868	0.159	0.086
-430.646	-51.534	-0.127	-0.077
-429.632	125.628	-0.181	-0.301
-428.617	-147.399	-0.443	0.049
-427.603	140.496	-0.190	-0.329
-426.588	-173.814	-0.168	-0.006
-425.573	-171.982	-0.301	-0.013
-424.559	87.430	0.252	0.366
-423.544	-18.125	0.159	0.130
-422.530	800.000	-0.029	0.166
-421.515	-157.860	0.216	-0.017
-420.500	-200.000	-0.013	0.388
-419.486	10.056	0.131	-0.130
-418.471	800.000	0.060	-0.233
-417.457	289.726	0.256	0.612
-416.442	-41.374	-0.249	0.167
-415.428	299.466	0.103	0.250
-414.413	590.567	-0.108	0.351
-413.398	-134.381	-0.130	0.021
-412.384	-61.503	-0.128	-0.070
-411.369	-140.803	0.497	0.066
-410.355	396.947	-0.129	0.354
-409.340	-136.166	0.189	0.029
-408.325	-43.542	0.287	0.190
-407.311	31.371	-0.159	-0.179
-406.296	118.003	-0.115	-0.187
-405.282	139.380	-0.150	0.259
-404.267	-70.034	-0.241	0.120
-403.252	627.443	0.089	0.296
-402.238	67.788	0.182	0.244
-401.223	246.880	0.280	0.622
-400.209	800.000	-0.172	0.687
-399.194	412.529	-0.163	0.457
-398.179	-200.000	0.018	-0.152
-397.165	37.972	0.317	0.370
-396.150	135.194	0.196	-0.335
-395.136	542.957	0.070	-0.219
-394.121	-47.464	0.392	0.249
-393.106	-86.202	-0.254	0.102
-392.092	-4.036	-0.237	-0.215
-391.077	-90.287	-0.122	0.046
-390.063	256.405	-0.167	0.376
-389.048	-200.000	-0.010	0.240
-388.033	-127.615	0.401	0.075
-387.019	-27.605	0.366	0.278
-386.004	-29.130	0.116	-0.087
-384.990	127.712	0.092	-0.153
-383.975	-42.063	0.165	0.111
-382.960	-95.886	-0.429	0.149
-381.946	642.405	-0.070	0.236
-380.931	439.784	0.142	-0.407
-379.917	-20.962	-0.247	-0.197
-378.902	342.043	-0.062	0.159
-377.888	95.583	-0.178	0.267
-376.873	69.618	-0.082	0.111
-375.858	-123.193	-0.264	0.055
-374.844	-82.835	0.407	0.171
-373.829	-50.594	0.227	0.140
-372.815	-78.956	-0.319	0.142
-371.800	-173.220	0.290	-0.011
-370.785	322.831	-0.128	-0.321
-369.771	-200.000	0.016	-0.335
-368.756	800.000	0.030	0.149
-367.742	-54.572	-0.545	0.322
-366.727	-200.000	-0.024	0.419
-365.712	-200.000	-0.058	0.582
-364.698	800.000	0.116	-0.446
-363.683	-133.677	0.491	-0.079
-362.669	-109.588	0.584	-0.160
-361.654	-76.892	-0.540	0.246
-360.639	-163.432	-0.232	0.014
-359.625	800.000	0.206	-0.887
-358.610	-140.299	0.149	0.020
-357.596	96.748	0.145	-0.217
-356.581	-200.000	-0.024	0.377
-355.566	-69.026	-0.308	-0.155
-354.552	-198.061	-0.317	0.002
-353.537	-12.184	0.234	0.200
-352.523	40.691	-0.108	0.127
-351.508	-200.000	0.007	-0.152
-350.493	50.179	-0.036	-0.044
-349.479	443.582	0.033	-0.095
-348.464	533.841	0.145	0.452
-347.450	16.501	-0.294	0.304
-346.435	-82.460	-0.028	0.012
-345.420	-200.000	-0.011	-0.498
-344.406	-57.626	0.323	-0.185
-343.391	-172.908	-0.314	0.013
-342.377	-67.625	-0.078	-0.040
-341.362	76.708	-0.241	-0.335
-340.348	-39.558	0.079	-0.054
-339.333	-56.087	-0.215	0.125
-338.318	-200.000	0.013	-0.074
-337.304	-101.473	0.557	0.176
-336.289	-45.248	0.185	0.119
-335.275	-200.000	-0.045	-0.433
-334.260	-45.639	0.075	0.048
-333.245	-4.265	0.255	-0.230
-332.231	-25.796	-0.458	0.352
-331.216	-4.108	-0.140	0.127
-330.202	-114.044	0.492	-0.123
-329.187	-137.340	0.307	-0.045
-328.172	-200.000	0.043	0.424
-327.158	-94.081	0.244	-0.087
-326.143	-37.124	0.548	0.382
-325.129	-97.798	-0.448	-0.150
-324.114	-90.895	0.082	-0.031
-323.099	235.957	-0.077	0.167
-322.085	-145.241	0.225	-0.026
-321.070	123.194	0.121	0.198
-320.056	-0.218	0.196	0.182
-319.041	-200.000	0.023	-0.150
-318.026	-56.191	0.449	-0.260
-317.012	-45.505	-0.064	0.041
-315.997	57.928	0.122	0.157
-314.983	-200.000	0.015	-0.264
-313.968	800.000	0.099	-0.475
-312.953	-131.875	-0.463	-0.078
-311.939	58.022	0.204	-0.261
-310.924	-200.000	-0.031	-0.332
-309.910	-174.070	-0.156	0.006
-308.895	-183.177	-0.226	0.005
-307.880	800.000	-0.108	-0.529
-306.866	-90.831	-0.306	0.114
-305.851	-55.140	-0.507	0.297
-304.837	-64.622	-0.290	0.153
-303.822	800.000	-0.017	-0.070
-302.807	55.475	0.333	-0.421
-301.793	85.096	0.177	-0.254
-300.778	-5.668	0.353	-0.316
-299.764	170.768	0.152	-0.285
-298.749	-113.333	-0.096	0.025
-297.735	-111.008	-0.413	-0.110
-296.720	-60.363	-0.126	0.070
-295.705	78.283	0.267	-0.372
-294.691	-193.437	-0.121	-0.001
-293.676	233.231	-0.072	-0.154
-292.662	-34.930	-0.138	-0.098
-291.647	-200.000	-0.002	-0.022
-290.632	-200.000	-0.012	0.326
-289.618	800.000	0.101	-0.452
-288.603	-147.342	-0.297	-0.032
-287.589	-163.861	0.402	-0.024
-286.574	-156.553	0.235	0.019
-285.559	-63.387	0.121	0.065
-284.545	-140.663	0.238	-0.032
-283.530	60.977	-0.341	0.441
-282.516	139.780	0.085	-0.146
-281.501	-14.854	0.295	0.246
-280.486	28.530	-0.222	-0.245
-279.472	204.211	0.043	0.087
-278.457	224.697	0.100	-0.211
-277.443	-200.000	-0.024	0.253
-276.428	-200.000	0.003	0.450
-275.413	21.042	-0.173	0.183
-274.399	-99.452	-0.328	0.107
-273.384	-200.000	0.002	0.251
-272.370	800.000	0.126	0.583
-271.355	164.207	-0.108	0.199
-270.340	146.890	0.165	0.290
-269.326	430.324	-0.134	0.379
-268.311	-58.756	0.404	-0.227
-267.297	-200.000	0.011	0.152
-266.282	-118.247	0.352	-0.081
-265.267	-120.117	-0.362	-0.080
-264.253	36.071	0.170	-0.195
-263.238	-117.385	-0.170	-0.040
-262.224	-43.033	-0.102	0.067
-261.209	-85.791	-0.290	0.116
-260.195	-69.734	0.029	0.014
-259.180	42.908	-0.126	0.150
-258.165	7.202	0.208	-0.202
-257.151	254.596	-0.209	0.468
-256.136	116.974	0.254	0.407
-255.122	8.037	-0.070	-0.069
-254.107	-81.362	-0.149	0.064
-253.092	-9.880	-0.433	0.375
-252.078	-41.268	-0.491	0.329
-251.063	77.147	0.322	-0.445
-250.049	-200.000	-0.068	0.391
-249.034	-200.000	0.004	0.309
-248.019	56.877	-0.166	-0.211
-247.005	-200.000	-0.058	-0.397
-245.990	479.071	0.197	0.583
-244.976	-200.000	-0.010	-0.241
-243.961	-175.340	-0.479	-0.017
-242.946	-92.876	0.055	-0.020
-241.932	3.710	-0.138	-0.131
-240.917	214.188	-0.082	-0.170
-239.903	-177.994	-0.082	-0.002
-238.888	329.769	0.173	-0.436
-237.873	-161.787	0.094	-0.006
-236.859	-66.296	0.223	-0.115
-235.844	128.835	-0.094	-0.157
-234.830	-79.720	-0.276	0.120
-233.815	17.883	0.380	-0.393
-232.800	-98.004	-0.242	0.081
-231.786	-200.000	-0.004	-0.075
-230.771	415.089	0.079	0.219
-229.757	-117.362	0.389	0.091
-228.742	544.792	0.018	-0.056
-227.727	-12.984	0.259	-0.219
-226.713	174.198	-0.420	-0.792
-225.698	-200.000	-0.481	-0.003
-224.684	800.000	-0.076	-0.408
-223.669	467.939	0.126	-0.369
-222.655	186.014	-0.059	0.115
-221.640	-157.751	-0.451	0.034
-220.625	56.638	-0.254	-0.322
-219.611	-200.000	-0.030	-0.205
-218.596	-200.000	0.101	-0.609
-217.582	-188.960	0.205	-0.003
-216.567	573.326	-0.097	-0.310
-215.552	800.000	0.106	0.417
-214.538	-200.000	0.051	0.580
-213.523	26.743	-0.249	0.271
-212.509	79.427	-0.221	0.308
-211.494	62.996	-0.098	0.128
-210.479	-57.143	0.415	0.237
-209.465	219.906	-0.174	-0.364
-208.450	57.100	-0.323	0.410
-207.436	-65.237	0.370	-0.193
-206.421	-82.569	0.387	-0.162
-205.406	-48.747	0.010	0.006
-204.392	7.609	-0.316	0.307
-203.377	-121.267	0.576	0.124
-202.363	-58.588	-0.349	0.196
-201.348	-200.000	0.071	0.435
-200.333	172.102	-0.133	0.250
-199.319	-120.553	-0.201	-0.044
-198.304	-129.196	-0.056	-0.010
-197.290	-200.000	0.050	0.374
-196.275	800.000	-0.062	-0.259
-195.260	89.140	-0.121	0.176
-194.246	-35.351	0.095	0.067
-193.231	-111.954	0.339	-0.088
-192.217	-46.351	-0.147	-0.093
-191.202	-67.719	0.413	-0.209
-190.187	332.739	0.105	-0.265
-189.173	-10.903	0.401	0.343
-188.158	94.009	-0.103	-0.151
-187.144	551.814	-0.139	0.436
-186.129	31.495	0.359	0.400
-185.114	-82.897	0.312	-0.130
-184.100	-12.795	0.116	-0.098
-183.085	229.877	-0.176	0.375
-182.071	-12.440	-0.269	0.228
-181.056	-34.962	0.176	-0.124
-180.042	-155.611	0.199	-0.016
-179.027	-70.364	0.350	-0.172
-178.012	-36.551	0.232	0.162
-176.998	109.034	0.042	-0.065
-175.983	800.000	-0.188	0.697
-174.969	-12.188	-0.248	-0.211
-173.954	-200.000	-0.015	-0.159
-172.939	-46.240	0.288	0.183
-171.925	21.319	0.334	-0.353
-170.910	13.971	-0.074	0.075
-169.896	-32.294	-0.170	0.123
-168.881	103.979	-0.135	0.206
-167.866	-81.760	-0.106	0.045
-166.852	-45.078	0.050	0.032
-165.837	800.000	0.111	0.416
-164.823	-100.279	0.386	0.124
-163.808	-200.000	-0.043	-0.410
-162.793	-167.453	0.360	0.018
-161.779	7.091	-0.046	0.044
-160.764	254.413	-0.255	-0.568
-159.750	-200.000	-0.022	0.188
-158.735	-144.911	-0.250	-0.029
-157.720	-200.000	-0.014	-0.141
-156.706	800.000	0.074	-0.325
-155.691	-200.000	-0.003	-0.165
-154.677	20.334	-0.098	-0.103
-153.662	54.196	0.289	0.361
-152.647	211.073	0.087	0.178
-151.633	-200.000	0.038	-0.428
-150.618	-159.002	0.497	0.036
-149.604	-60.717	0.110	0.060
-148.589	-142.615	0.369	-0.046
-147.574	-143.013	0.177	-0.022
-146.560	-29.772	-0.388	-0.287
-145.545	-178.395	-0.291	0.009
-144.531	123.405	-0.241	0.393
-143.516	-195.642	0.295	0.003
-142.502	-199.491	0.525	0.003
-141.487	108.298	-0.072	-0.111
-140.472	-200.000	0.014	-0.549
-139.458	-98.252	-0.760	-0.251
-138.443	-54.265	0.324	-0.190
-137.429	-200.000	0.007	-0.316
-136.414	-38.919	0.557	-0.379
-135.399	800.000	0.117	-0.556
-134.385	-2.631	0.164	-0.148
-133.370	63.392	0.062	-0.081
-132.356	-8.907	0.193	-0.167
-131.341	-26.713	-0.299	0.226
-130.326	-95.896	0.229	-0.079
-129.312	-177.208	-0.086	-0.003
-128.297	-63.459	0.378	0.200
-127.283	-115.221	0.429	0.104
-126.268	-77.063	0.435	0.195
-125.253	800.000	-0.063	0.300
-124.239	172.144	-0.150	0.280
-123.224	210.297	-0.132	-0.270
-122.210	-122.179	-0.395	0.083
-121.195	-34.410	-0.555	-0.393
-120.180	-200.000	0.021	-0.448
-119.166	344.762	-0.089	-0.228
-118.151	154.873	-0.156	0.278
-117.137	-25.365	-0.090	0.069
-116.122	-123.069	0.160	-0.033
-115.107	800.000	0.080	-0.338
-114.093	-134.952	-0.276	0.043
-113.078	-200.000	-0.038	0.302
-112.064	-200.000	0.002	-0.281
-111.049	479.191	0.201	0.591
-110.034	-200.000	-0.021	-0.241
-109.020	-196.741	0.344	0.003
-108.005	-200.000	0.662	0.001
-106.991	-136.733	-0.332	-0.049
-105.976	-163.139	0.260	-0.016
-104.962	-64.214	0.227	-0.119
-103.947	-111.722	-0.517	-0.135
-102.932	-138.003	-0.193	-0.028
-101.918	-82.322	0.235	0.099
-100.903	27.214	0.338	0.367
-99.889	121.106	0.199	0.321
-98.874	-200.000	-0.018	0.275
-97.859	361.776	0.089	-0.232
-96.845	-192.551	0.428	-0.005
-95.830	716.657	0.145	0.502
-94.816	-53.085	0.347	0.206
-93.801	-200.000	-0.026	0.396
-92.786	398.395	0.046	0.126
-91.772	-192.779	-0.115	-0.001
-90.757	-92.607	-0.209	0.075
-89.743	-16.630	0.140	-0.114
-88.728	-85.517	-0.197	-0.079
-87.713	-34.473	0.254	-0.180
-86.699	-200.000	0.052	0.301
-85.684	-69.744	-0.252	0.124
-84.670	34.996	0.246	-0.279
-83.655	-148.439	0.300	-0.031
-82.640	159.482	0.105	-0.190
-81.626	237.848	0.079	0.169
-80.611	-54.190	0.334	-0.196
-79.597	800.000	-0.110	-0.557
-78.582	-181.867	0.548	0.013
-77.567	172.649	0.429	0.802
-76.553	-200.000	-0.029	-0.366
-75.538	176.033	0.426	-0.802
-74.524	78.751	0.501	-0.693
-73.509	-151.980	-0.431	0.040
-72.494	452.056	0.015	-0.043
-71.480	2.754	0.482	0.452
-70.465	-38.694	0.360	0.245
-69.451	-112.629	0.383	-0.098
-68.436	-200.000	0.003	-0.075
-67.422	-59.786	0.324	-0.179
-66.407	-88.501	0.587	-0.225
-65.392	-61.458	-0.395	-0.214
-64.378	-184.630	-0.311	-0.006
-63.363	-200.000	-0.000	-0.105
-62.349	-98.641	-0.261	-0.086
-61.334	10.147	-2.522	-2.477
-60.319	7.783	1.318	1.275
-59.305	249.971	-3.446	-7.584
-58.290	53.538	4.327	5.367
-57.276	477.783	3.542	10.408
-56.261	-200.000	23.102	319.838
-55.246	357.389	1299.408	3363.470
-54.232	53.083	2843.625	3519.181
-53.217	51.539	2661.809	3270.186
-52.203	31.940	2392.086	2662.539
-51.188	28.209	2057.363	2244.005
-50.173	24.908	1943.001	2080.684
-49.159	23.756	1931.915	2055.341
-48.144	23.254	1927.764	2045.022
-47.130	23.240	1925.355	2042.224
-46.115	23.168	1923.250	2039.074
-45.100	23.176	1922.305	2038.085
-44.086	23.232	1920.732	2036.981
-43.071	23.148	1918.788	2033.869
-42.057	23.130	1916.865	2031.541
-41.042	23.171	1915.239	2030.207
-40.027	23.179	1914.436	2029.368
-39.013	23.185	1913.041	2027.879
-37.998	23.167	1911.343	2025.791
-36.984	23.061	1910.869	2023.993
-35.969	23.089	1909.081	2022.335
-34.954	23.059	1908.203	2020.986
-33.940	23.095	1906.901	2019.937
-32.925	23.073	1905.631	2018.262
-31.911	23.145	1904.211	2017.497
-30.896	23.105	1903.041	2015.721
-29.881	23.009	1901.709	2013.134
-28.867	23.036	1900.169	2011.729
-27.852	23.129	1897.562	2009.955
-26.838	23.074	1896.564	2008.195
-25.823	23.111	1895.611	2007.520
-24.809	22.969	1894.503	2004.654
-23.794	22.995	1893.253	2003.549
-22.779	22.996	1892.189	2002.348
-21.765	22.917	1890.817	1999.917
-20.750	22.905	1889.754	1998.580
-19.736	22.872	1888.502	1996.798
-18.721	22.898	1887.447	1995.899
-17.706	22.862	1886.669	1994.594
-16.692	22.952	1884.086	1992.805
-15.677	22.917	1883.172	1991.364
-14.663	22.964	1881.679	1990.235
-13.648	22.872	1880.998	1988.396
-12.633	22.749	1880.262	1986.145
-11.619	22.845	1878.999	1985.815
-10.604	22.914	1876.937	1984.335
-9.590	22.889	1875.645	1982.618
-8.575	22.786	1875.274	1980.981
-7.560	22.771	1874.076	1979.463
-6.546	22.839	1872.531	1978.526
-5.531	22.899	1870.885	1977.382
-4.517	22.826	1870.026	1975.575
-3.502	22.738	1870.276	1974.766
-2.487	22.962	1867.857	1974.657
-1.473	22.969	1864.976	1971.606
-0.458	22.699	1846.282	1948.770
0.556	19.086	1993.232	2048.436
1.571	17.714	2196.052	2238.499
2.586	18.554	2234.467	2288.659
3.600	18.554	2237.169	2291.155
4.615	18.541	2236.910	2290.440
5.629	18.587	2233.828	2287.624
6.644	18.467	2232.251	2284.125
7.659	18.483	2230.393	2282.173
8.673	18.501	2228.310	2280.007
9.688	18.202	2238.192	2285.827
10.702	17.385	2318.450	2356.144
11.717	15.792	2381.174	2396.807
12.731	7.213	2361.536	2254.460
13.746	0.978	2344.916	2149.557
14.761	0.203	2341.433	2135.070
15.775	0.113	2339.260	2131.548
16.790	0.055	2337.657	2129.008
17.804	-0.040	2336.745	2126.572
18.819	0.042	2335.431	2126.290
19.834	0.028	2334.380	2124.887
20.848	-0.017	2333.193	2122.907
21.863	0.065	2331.403	2122.186
22.877	-0.031	2329.187	2118.552
23.892	-0.018	2326.584	2116.116
24.907	-0.021	2324.841	2114.239
25.921	-0.021	2323.983	2113.202
26.936	0.059	2320.722	2111.114
27.950	0.008	2317.753	2107.448
28.965	0.000	2315.927	2105.420
29.980	0.045	2314.607	2104.600
30.994	0.126	2312.209	2103.308
32.009	3.849	2323.192	2165.521
33.023	12.891	2349.933	2318.468
34.038	16.651	2356.170	2377.524
35.053	16.629	2353.884	2374.624
36.067	16.627	2349.821	2370.214
37.082	16.570	2348.002	2367.296
38.096	16.696	2346.859	2367.625
39.111	16.846	2344.277	2366.853
40.126	17.054	2342.825	2368.015
41.140	17.156	2342.125	2368.458
42.155	17.177	2339.257	2365.563
43.169	17.248	2337.919	2364.923
44.184	16.991	2334.546	2357.636
45.199	16.940	2331.788	2353.855
46.213	17.038	2332.130	2355.281
47.228	17.149	2331.684	2356.108
48.242	17.270	2328.586	2354.367
49.257	17.382	2327.042	2354.086
50.271	17.390	2324.358	2351.205
51.286	17.133	2321.514	2344.482
52.301	16.954	2319.510	2339.699
53.315	17.875	2322.834	2355.547
54.330	20.630	2331.202	2402.055
55.344	22.508	2332.153	2428.789
56.359	22.851	2328.671	2429.626
57.374	22.930	2328.567	2430.317
58.388	23.044	2326.424	2429.366
59.403	22.803	2321.509	2420.616
60.417	22.433	2318.019	2411.596
61.432	22.485	2317.177	2411.150
62.447	22.768	2316.025	2413.554
63.461	22.949	2313.800	2413.424
64.476	22.962	2312.111	2411.553
65.490	22.699	2309.919	2405.378
66.505	21.844	2305.984	2389.293
67.520	19.813	2297.217	2352.177
68.534	17.525	2288.196	2311.482
69.549	16.724	2284.614	2296.670
70.563	16.769	2281.632	2294.012
71.578	16.877	2279.537	2293.103
72.593	16.872	2278.791	2292.011
73.607	17.061	2277.461	2292.965
74.622	17.100	2275.288	2291.032
75.636	16.972	2272.213	2285.925
76.651	16.777	2270.983	2281.767
77.666	16.876	2267.640	2279.473
78.680	16.742	2264.985	2274.724
79.695	16.515	2263.136	2269.530
80.709	16.410	2260.927	2265.628
81.724	16.347	2259.824	2263.413
82.739	16.448	2257.399	2262.069
83.753	16.420	2255.111	2259.129
84.768	16.328	2253.893	2256.402
85.782	16.231	2252.579	2253.512
86.797	16.306	2249.825	2251.501
87.812	16.322	2247.886	2249.500
88.826	16.430	2246.397	2249.183
89.841	16.488	2243.632	2246.920
90.855	16.589	2241.869	2246.237
91.870	16.540	2241.151	2244.597
92.884	16.532	2238.894	2241.961
93.899	16.622	2238.170	2242.165
94.914	17.339	2241.021	2254.310
95.928	19.936	2249.406	2297.163
96.943	20.981	2247.054	2308.395
97.957	18.383	2235.141	2261.453
98.972	16.582	2230.206	2232.311
99.987	16.532	2226.429	2227.605
101.001	16.357	2224.921	2223.518
102.016	16.519	2222.129	2222.594
103.030	16.354	2220.137	2218.162
104.045	16.446	2217.507	2216.479
105.060	16.500	2215.165	2214.591
106.074	16.355	2213.230	2210.488
107.089	16.461	2210.962	2209.346
108.103	16.423	2210.976	2208.593
109.118	16.675	2209.211	2209.879
110.133	16.595	2209.064	2208.411
111.147	16.459	2205.540	2202.841
112.162	16.434	2203.685	2200.400
113.176	16.699	2201.587	2201.504
114.191	16.775	2200.291	2200.943
115.206	16.723	2199.671	2199.384
116.220	16.837	2197.264	2198.192
117.235	16.788	2195.339	2195.372
118.249	16.922	2193.568	2195.080
119.264	16.763	2192.438	2191.617
120.279	16.733	2190.036	2188.568
121.293	16.696	2188.432	2186.218
122.308	16.771	2186.766	2185.270
123.322	16.610	2185.662	2181.807
124.337	17.099	2186.767	2188.987
125.352	19.923	2195.437	2234.101
126.366	20.711	2192.565	2241.109
127.381	17.863	2182.070	2193.381
128.395	16.690	2177.513	2173.404
129.410	16.661	2174.861	2170.123
130.424	16.459	2173.485	2165.889
131.439	16.611	2171.320	2165.436
132.454	16.651	2170.781	2165.155
133.468	16.843	2168.750	2165.332
134.483	17.050	2167.471	2166.449
135.497	17.031	2165.623	2164.097
136.512	16.907	2162.909	2159.547
137.527	16.798	2160.770	2155.754
138.541	16.583	2158.872	2150.854
139.556	16.505	2158.544	2149.270
140.570	16.468	2157.125	2147.127
141.585	16.375	2154.646	2143.222
142.600	16.349	2153.691	2141.678
143.614	16.506	2150.636	2140.382
144.629	16.463	2149.113	2138.071
145.643	16.405	2147.797	2135.767
146.658	16.353	2146.067	2133.131
147.673	16.304	2143.788	2129.992
148.687	16.320	2143.031	2129.185
149.702	16.564	2142.175	2131.167
150.716	16.603	2140.935	2130.177
151.731	16.631	2139.609	2128.950
152.746	16.606	2139.296	2128.074
153.760	17.361	2142.275	2140.333
154.775	20.201	2149.632	2183.415
155.789	21.132	2147.308	2192.563
156.804	18.404	2135.993	2146.428
157.819	16.677	2129.665	2118.113
158.833	16.530	2126.162	2112.538
159.848	16.617	2124.232	2111.458
160.862	16.670	2123.103	2110.749
161.877	16.629	2122.841	2109.722
162.892	16.769	2121.231	2109.619
163.906	16.697	2120.797	2108.030
164.921	16.763	2118.127	2105.951
165.935	16.696	2115.877	2102.627
166.950	16.701	2115.243	2101.801
167.964	16.760	2111.530	2098.604
168.979	16.441	2109.633	2092.491
169.994	16.300	2108.588	2089.447
171.008	16.375	2106.185	2087.750
172.023	16.435	2104.932	2087.007
173.037	16.566	2104.773	2088.221
174.052	16.714	2103.448	2088.495
175.067	16.809	2101.146	2087.131
176.081	16.610	2100.364	2083.643
177.096	16.734	2098.674	2083.256
178.110	16.822	2097.035	2082.458
179.125	16.874	2095.786	2081.618
180.140	16.653	2094.937	2077.801
181.154	16.757	2094.340	2078.237
182.169	16.978	2092.176	2078.568
183.183	17.687	2095.019	2089.885
184.198	20.737	2103.421	2135.683
185.213	21.319	2100.334	2139.465
186.227	18.337	2090.054	2092.169
187.242	16.985	2085.778	2071.050
188.256	16.833	2083.981	2067.155
189.271	16.697	2082.100	2063.377
190.286	16.606	2080.372	2060.301
191.300	16.655	2078.051	2058.356
192.315	16.686	2077.201	2057.648
193.329	16.943	2075.979	2059.334
194.344	17.115	2074.762	2059.977
195.359	17.200	2072.551	2058.562
196.373	16.803	2070.992	2051.940
197.388	16.529	2067.845	2045.242
198.402	16.523	2065.760	2042.861
199.417	16.415	2063.324	2038.906
200.432	16.540	2061.865	2038.728
201.446	16.602	2060.965	2038.353
202.461	16.469	2058.901	2034.453
203.475	16.459	2057.834	2033.035
204.490	16.443	2055.097	2029.895
205.504	16.618	2053.054	2029.742
206.519	16.592	2051.201	2027.355
207.534	16.554	2049.957	2025.428
208.548	16.510	2048.766	2023.480
209.563	16.648	2047.635	2023.776
210.577	16.721	2046.179	2022.975
211.592	16.824	2045.612	2023.411
212.607	18.212	2051.416	2045.604
213.621	21.438	2059.052	2091.815
214.636	21.070	2051.382	2079.361
215.650	17.609	2043.044	2029.296
216.665	16.942	2037.966	2016.050
217.680	16.867	2036.232	2013.195
218.694	16.730	2034.626	2009.730
219.709	16.521	2033.372	2005.761
220.723	16.617	2032.178	2005.491
221.738	16.885	2029.560	2005.847
222.753	16.895	2028.435	2004.616
223.767	16.768	2027.035	2001.483
224.782	16.802	2025.269	1999.903
225.796	16.796	2023.469	1997.814
226.811	16.672	2023.112	1995.758
227.826	16.836	2020.833	1995.209
228.840	16.681	2019.467	1991.796
229.855	16.596	2017.650	1988.756
230.869	16.576	2016.628	1987.272
231.884	16.464	2016.133	1985.224
232.899	16.691	2013.157	1984.737
233.913	16.681	2012.789	1984.019
234.928	16.626	2011.044	1981.412
235.942	16.695	2008.774	1979.747
236.957	16.582	2007.741	1977.171
237.972	16.737	2007.010	1978.026
238.986	16.652	2005.451	1975.263
240.001	16.652	2003.524	1973.119
241.015	16.745	2002.992	1973.449
242.030	17.541	2006.355	1985.864
243.045	20.426	2011.445	2024.510
244.059	20.698	2007.605	2023.588
245.074	17.915	1998.432	1981.672
246.088	16.911	1994.762	1966.104
247.103	16.967	1994.489	1966.248
248.117	17.065	1991.560	1964.269
249.132	16.931	1989.978	1960.911
250.147	16.849	1986.919	1956.710
251.161	16.793	1986.677	1955.590
252.176	17.077	1985.347	1957.345
253.190	17.302	1983.817	1958.201
254.205	17.239	1982.417	1955.856
255.220	17.173	1980.968	1953.427
256.234	17.059	1980.053	1950.976
257.249	16.861	1977.669	1946.108
258.263	16.834	1977.096	1944.999
259.278	16.886	1976.517	1944.805
260.293	16.747	1973.973	1940.458
261.307	16.588	1971.380	1935.858
262.322	16.442	1970.285	1932.867
263.336	16.412	1968.146	1930.199
264.351	16.328	1966.291	1927.176
265.366	16.399	1964.468	1925.976
266.380	16.412	1964.011	1925.449
267.395	16.462	1962.563	1924.364
268.409	16.385	1960.995	1921.718
269.424	16.565	1959.720	1922.295
270.439	16.536	1959.856	1921.875
271.453	17.633	1962.245	1936.515
272.468	20.560	1968.341	1975.795
273.482	20.767	1963.536	1973.092
274.497	17.995	1952.843	1930.666
275.512	16.817	1948.734	1913.008
276.526	16.646	1946.668	1908.818
277.541	16.564	1945.155	1906.175
278.555	16.373	1944.635	1903.273
279.570	16.240	1942.059	1899.020
280.585	16.477	1940.682	1900.126
281.599	16.569	1939.454	1899.734
282.614	16.780	1938.676	1901.122
283.628	17.002	1938.551	1903.279
284.643	17.015	1938.218	1902.868
285.657	17.264	1937.276	1904.520
286.672	17.323	1935.626	1903.336
287.687	17.164	1933.348	1899.075
288.701	17.198	1931.727	1897.638
289.716	17.164	1930.568	1895.893
290.730	17.211	1928.927	1894.579
291.745	17.257	1927.645	1893.606
292.760	17.269	1927.052	1892.935
293.774	17.119	1925.367	1889.378
294.789	16.873	1924.326	1885.382
295.803	16.891	1921.822	1882.900
296.818	16.830	1920.540	1880.735
297.833	16.823	1919.613	1879.534
298.847	16.826	1918.626	1878.366
299.862	16.836	1916.996	1876.661
300.876	17.662	1918.546	1887.153
301.891	20.749	1925.093	1927.786
302.906	21.159	1922.617	1929.625
303.920	18.099	1913.167	1886.036
304.935	16.993	1909.702	1870.137
305.949	17.003	1906.377	1866.769
306.964	16.861	1905.872	1864.489
307.979	17.008	1903.424	1863.489
308.993	17.119	1903.280	1864.351
310.008	17.481	1902.024	1866.890
311.022	17.454	1901.065	1865.429
312.037	17.190	1898.772	1860.043
313.052	17.226	1896.619	1858.115
314.066	17.312	1895.388	1857.629
315.081	17.233	1894.970	1856.127
316.095	17.142	1893.149	1853.124
317.110	16.905	1891.592	1848.776
318.125	16.838	1889.587	1845.866
319.139	16.852	1887.931	1844.177
320.154	16.908	1886.650	1843.320
321.168	16.879	1884.343	1840.525
322.183	16.734	1883.188	1837.604
323.197	16.600	1881.836	1834.596
324.212	16.371	1880.325	1830.416
325.227	16.421	1878.341	1828.809
326.241	16.455	1877.234	1827.878
327.256	16.541	1875.981	1827.376
328.270	16.390	1875.293	1824.844
329.285	16.443	1875.067	1824.980
330.300	17.567	1879.583	1841.387
331.314	20.884	1885.644	1883.193
332.329	20.892	1880.348	1877.763
333.343	17.641	1871.066	1833.182
334.358	16.548	1866.985	1817.168
335.373	16.408	1865.078	1813.576
336.387	16.245	1863.402	1809.973
337.402	16.232	1861.894	1808.152
338.416	16.427	1860.898	1809.068
339.431	16.690	1857.818	1808.685
340.446	16.677	1856.377	1806.923
341.460	16.736	1856.706	1807.662
342.475	16.950	1855.375	1808.442
343.489	17.165	1853.221	1808.425
344.504	17.146	1852.310	1807.124
345.519	17.048	1852.065	1805.620
346.533	17.412	1849.919	1807.190
347.548	17.428	1849.620	1806.856
348.562	17.216	1847.673	1802.476
349.577	17.284	1847.246	1802.575
350.592	17.393	1846.891	1803.167
351.606	17.507	1845.140	1802.462
352.621	17.512	1842.344	1799.565
353.635	17.170	1840.758	1794.174
354.650	17.031	1839.299	1791.058
355.665	17.080	1837.587	1789.696
356.679	16.898	1836.820	1786.807
357.694	16.903	1834.748	1784.626
358.708	16.715	1834.122	1781.816
359.723	18.083	1838.825	1800.671
360.738	21.280	1843.354	1838.765
361.752	20.780	1838.595	1828.521
362.767	17.944	1830.834	1790.739
363.781	17.103	1826.745	1777.673
364.796	16.990	1825.285	1774.848
365.810	16.806	1823.962	1771.416
366.825	16.838	1822.843	1770.453
367.840	16.964	1822.491	1771.224
368.854	16.983	1820.887	1769.652
369.869	16.939	1818.619	1766.778
370.883	16.829	1817.124	1763.958
371.898	17.015	1816.267	1764.861
372.913	16.916	1815.134	1762.514
373.927	16.995	1814.094	1762.126
374.942	17.134	1813.951	1763.226
375.956	17.032	1812.109	1760.157
376.971	17.084	1809.901	1758.349
377.986	16.973	1808.125	1755.255
379.000	16.807	1807.252	1752.474
380.015	16.874	1804.985	1750.757
381.029	16.676	1803.158	1746.724
382.044	16.562	1800.753	1743.004
383.059	16.540	1799.430	1741.285
384.073	16.505	1799.116	1740.411
385.088	16.621	1797.913	1740.241
386.102	16.471	1796.061	1736.690
387.117	16.453	1794.676	1734.955
388.132	16.479	1794.724	1735.065
389.146	17.734	1799.050	1752.003
390.161	21.057	1804.068	1791.040
391.175	20.597	1796.820	1778.898
392.190	17.657	1787.564	1739.403
393.205	16.874	1784.448	1728.144
394.219	16.662	1782.342	1723.729
395.234	16.716	1781.680	1723.436
396.248	16.587	1779.900	1720.187
397.263	16.512	1778.070	1717.445
398.278	16.627	1775.950	1716.365
399.292	16.604	1775.162	1715.168
400.307	16.612	1774.809	1714.697
401.321	16.795	1774.196	1715.764
402.336	16.925	1772.725	1715.458
403.350	17.041	1770.390	1714.172
404.365	16.930	1769.309	1711.798
405.380	17.037	1768.866	1712.246
406.394	17.364	1769.473	1715.941
407.409	18.123	1769.412	1723.376
408.423	17.830	1766.790	1717.654
409.438	17.255	1764.734	1709.631
410.453	17.012	1763.751	1706.022
411.467	17.268	1762.203	1706.899
412.482	17.107	1760.350	1703.279
413.496	16.987	1759.006	1700.564
414.511	16.983	1756.814	1698.202
415.526	16.882	1754.494	1694.741
416.540	16.846	1753.274	1693.000
417.555	16.968	1752.607	1693.382
418.569	17.100	1752.804	1694.693
419.584	17.100	1752.737	1694.421
420.599	17.114	1752.052	1693.697
421.613	16.826	1750.498	1689.109
422.628	16.755	1748.626	1686.385
423.642	16.752	1746.737	1684.332
424.657	16.737	1745.227	1682.524
425.672	16.907	1743.322	1682.188
426.686	16.918	1742.756	1681.551
427.701	16.962	1740.827	1679.922
428.715	17.103	1739.865	1680.196
429.730	17.343	1739.561	1682.086
430.745	17.343	1737.717	1680.104
431.759	17.209	1737.874	1678.726
432.774	17.551	1737.933	1681.972
433.788	18.053	1739.039	1687.825
434.803	18.297	1737.660	1688.713
435.818	18.223	1736.733	1686.875
436.832	18.064	1736.323	1684.696
437.847	17.289	1728.692	1669.440
438.861	9.435	1708.401	1572.761
439.876	1.637	1693.759	1482.919
440.890	0.233	1690.793	1466.417
441.905	0.159	1689.125	1464.073
442.920	0.159	1687.764	1462.719
443.934	0.044	1686.794	1460.581
444.949	0.129	1685.949	1460.499
445.963	0.037	1685.119	1458.713
446.978	0.073	1684.560	1458.403
447.993	0.206	1682.806	1457.998
449.007	0.209	1680.266	1455.660
450.022	0.096	1679.343	1453.584
451.036	0.071	1677.124	1451.252
452.051	1.173	1681.724	1465.768
453.066	8.699	1698.761	1554.087
454.080	16.551	1710.516	1641.528
455.095	18.207	1713.533	1660.398
456.109	18.766	1713.132	1665.259
457.124	18.954	1712.152	1665.944
458.139	19.001	1711.806	1665.860
459.153	18.950	1711.896	1665.255
460.168	19.094	1709.573	1664.194
461.182	19.012	1707.579	1661.256
462.197	19.031	1705.686	1659.403
463.212	18.997	1704.063	1657.297
464.226	18.957	1702.973	1655.647
465.241	18.998	1702.307	1655.196
466.255	19.117	1701.642	1655.500
467.270	19.110	1700.053	1653.697
468.285	18.915	1698.195	1649.803
469.299	18.938	1696.398	1648.090
470.314	18.938	1695.060	1646.593
471.328	18.952	1694.120	1645.613
472.343	18.946	1693.629	1644.878
473.358	19.060	1692.547	1644.727
474.372	19.126	1691.233	1643.892
475.387	18.874	1689.440	1639.536
476.401	18.842	1687.384	1637.039
477.416	18.838	1685.904	1635.364
478.430	18.922	1685.630	1635.706
479.445	18.841	1684.203	1633.355
480.460	18.781	1682.567	1630.996
481.474	18.800	1681.010	1629.479
482.489	19.004	1680.506	1630.738
483.503	19.160	1679.738	1631.279
484.518	19.222	1678.288	1630.269
485.533	19.145	1677.009	1628.095
486.547	19.104	1675.525	1626.070
487.562	19.276	1675.181	1627.179
488.576	19.243	1673.170	1624.720
489.591	19.317	1670.906	1623.019
490.606	19.090	1669.864	1619.673
491.620	19.243	1668.475	1619.577
492.635	19.341	1667.529	1619.389
493.649	19.403	1666.320	1618.604
494.664	19.081	1664.374	1613.486
495.679	18.872	1662.371	1609.381
496.693	18.964	1661.314	1609.030
497.708	19.126	1660.948	1610.007
498.722	19.332	1661.034	1611.832
499.737	19.376	1659.116	1610.193
500.752	19.164	1657.025	1605.988
501.766	19.114	1655.192	1603.546
502.781	19.190	1653.934	1602.847
503.795	19.211	1653.058	1602.004
504.810	19.175	1652.427	1600.861
505.825	19.407	1651.842	1602.273
506.839	19.342	1649.959	1599.651
507.854	19.469	1647.983	1598.722
508.868	19.338	1647.423	1596.767
509.883	19.433	1645.765	1595.855
510.898	19.435	1645.720	1595.641
511.912	19.531	1643.050	1593.749
512.927	19.361	1641.278	1590.261
513.941	19.286	1639.680	1587.828
514.956	19.119	1638.647	1585.093
515.971	19.145	1637.698	1584.227
516.985	19.255	1636.476	1583.875
518.000	19.248	1636.602	1583.741
519.014	19.401	1636.029	1584.406
520.029	19.537	1634.224	1583.726
521.043	19.591	1632.809	1582.664
522.058	19.469	1631.274	1579.863
523.073	19.609	1630.355	1580.071
524.087	19.772	1629.947	1580.982
525.102	19.722	1628.447	1578.878
526.116	19.528	1626.423	1574.950
527.131	19.309	1625.884	1572.229
528.146	19.500	1624.931	1572.875
529.160	19.589	1624.426	1573.009
530.175	19.722	1623.359	1573.007
531.189	19.760	1622.122	1571.970
532.204	19.741	1620.828	1570.355
533.219	19.523	1619.152	1566.552
534.233	19.298	1617.810	1563.012
535.248	19.653	1616.864	1565.145
536.262	19.908	1616.167	1566.603
537.277	19.591	1615.700	1563.085
538.292	19.493	1612.779	1559.181
539.306	19.521	1610.685	1557.219
540.321	19.599	1609.314	1556.414
541.335	19.483	1608.482	1554.370
542.350	19.541	1607.231	1553.505
543.365	19.680	1605.688	1553.085
544.379	19.755	1604.335	1552.262
545.394	19.741	1603.512	1551.154
546.408	19.660	1601.585	1548.380
547.423	19.199	1600.408	1542.904
548.438	19.230	1599.701	1542.318
549.452	19.363	1599.396	1543.034
550.467	19.619	1597.424	1543.247
551.481	19.548	1596.745	1541.772
552.496	19.673	1596.443	1542.413
553.511	19.971	1595.588	1544.071
554.525	19.869	1594.320	1541.750
555.540	20.012	1593.717	1542.260
556.554	20.080	1592.247	1541.264
557.569	20.069	1589.740	1538.555
558.583	19.835	1588.398	1534.983
559.598	19.678	1588.193	1533.203
560.613	19.848	1586.461	1532.856
561.627	19.771	1585.536	1531.102
562.642	19.933	1584.286	1531.152
563.656	20.162	1583.438	1532.180
564.671	20.168	1581.263	1529.943
565.686	20.105	1580.657	1528.616
566.700	19.824	1579.345	1524.677
567.715	19.714	1577.160	1521.414
568.729	19.584	1575.283	1518.271
569.744	19.485	1573.331	1515.336
570.759	19.454	1572.754	1514.325
571.773	19.541	1572.220	1514.390
572.788	19.727	1571.431	1515.093
573.802	19.823	1570.850	1515.198
574.817	19.943	1569.363	1514.636
575.832	20.146	1567.811	1514.740
576.846	20.132	1566.430	1513.096
577.861	20.047	1565.283	1511.069
578.875	19.974	1564.664	1509.650
579.890	20.288	1564.113	1511.687
580.905	20.178	1563.548	1509.998
581.919	20.286	1562.433	1509.681
582.934	20.488	1561.586	1510.444
583.948	20.381	1560.482	1508.269
584.963	20.267	1558.672	1505.346
585.978	20.074	1556.858	1501.728
586.992	20.102	1556.822	1501.756
588.007	20.251	1555.565	1501.660
589.021	19.933	1553.465	1496.693
590.036	19.625	1552.391	1492.807
591.051	19.675	1552.475	1493.135
592.065	20.011	1550.019	1493.512
593.080	20.278	1548.107	1493.804
594.094	20.272	1546.583	1492.103
595.109	20.023	1544.067	1487.345
596.123	19.693	1543.344	1483.621
597.138	19.925	1543.286	1485.395
598.153	20.235	1541.745	1486.398
599.167	20.138	1541.098	1484.761
600.182	20.317	1539.810	1484.881
601.196	20.312	1539.557	1484.422
602.211	20.249	1538.712	1482.884
603.226	20.424	1536.740	1482.306
604.240	20.466	1535.697	1481.483
605.255	20.527	1534.640	1480.812
606.269	20.613	1533.378	1480.152
607.284	20.382	1532.242	1476.905
608.299	20.487	1530.787	1476.218
609.313	20.242	1529.995	1473.189
610.328	20.360	1528.775	1472.843
611.342	20.409	1527.036	1471.415
612.357	20.521	1526.999	1472.155
613.372	20.651	1525.705	1471.836
614.386	20.439	1524.592	1468.787
615.401	20.472	1523.723	1468.053
616.415	20.607	1523.256	1468.568
617.430	20.656	1522.499	1468.082
618.445	20.638	1521.067	1466.370
619.459	20.481	1519.894	1463.738
620.474	20.108	1518.160	1458.733
621.488	19.963	1515.394	1454.680
622.503	19.715	1514.678	1451.725
623.518	20.031	1514.645	1454.190
624.532	20.190	1514.762	1455.468
625.547	20.375	1513.568	1455.705
626.561	20.615	1513.568	1457.555
627.576	20.821	1511.438	1457.055
628.591	20.286	1509.024	1450.066
629.605	20.030	1507.775	1446.538
630.620	19.899	1506.108	1443.667
631.634	19.817	1503.923	1440.720
632.649	19.871	1504.018	1441.085
633.663	20.180	1503.353	1442.866
634.678	20.394	1502.858	1444.000
635.693	20.651	1501.358	1444.533
636.707	20.730	1500.113	1443.824
637.722	21.042	1499.295	1445.460
638.736	20.962	1498.692	1444.046
639.751	20.854	1497.438	1441.759
640.766	20.854	1495.892	1440.105
641.780	20.898	1494.625	1439.078
642.795	20.659	1494.515	1436.811
643.809	20.789	1493.221	1436.477
644.824	20.814	1492.100	1435.428
645.839	20.805	1490.801	1433.932
646.853	20.761	1489.760	1432.401
647.868	20.790	1488.400	1431.163
648.882	20.729	1486.915	1429.054
649.897	20.801	1485.398	1428.021
650.912	20.669	1484.438	1425.837
651.926	20.681	1483.341	1424.713
652.941	20.361	1481.664	1420.298
653.955	20.090	1479.768	1416.091
654.970	19.981	1477.000	1412.373
655.985	19.948	1476.056	1411.034
656.999	19.963	1475.528	1410.485
658.014	20.311	1474.437	1412.115
659.028	20.327	1474.018	1411.683
660.043	20.385	1473.579	1411.562
661.058	20.645	1471.846	1411.858
662.072	20.710	1471.542	1411.925
663.087	20.709	1470.484	1410.735
664.101	20.627	1469.893	1409.331
665.116	20.778	1468.936	1409.475
666.131	20.632	1468.473	1407.669
667.145	20.822	1466.565	1407.220
668.160	21.005	1465.641	1407.647
669.174	21.113	1464.346	1407.108
670.189	21.018	1463.354	1405.221
671.204	20.886	1461.783	1402.475
672.218	20.874	1461.481	1401.920
673.233	20.987	1460.035	1401.277
674.247	21.222	1459.146	1402.157
675.262	21.388	1458.359	1402.568
676.276	21.257	1457.351	1400.376
677.291	21.220	1455.629	1398.260
678.306	20.948	1454.324	1394.649
679.320	20.909	1453.468	1393.347
680.335	21.086	1453.320	1394.462
681.349	21.201	1451.910	1393.859
682.364	21.145	1450.819	1392.199
683.379	21.059	1449.750	1390.315
684.393	21.108	1448.547	1389.388
685.408	21.142	1447.261	1388.266
686.422	21.143	1446.630	1387.495
687.437	21.180	1445.846	1386.876
688.452	21.333	1444.876	1387.004
689.466	21.116	1443.330	1383.621
690.481	20.993	1441.449	1380.671
691.495	20.791	1439.689	1377.216
692.510	20.378	1437.779	1371.943
693.525	20.168	1436.470	1368.866
694.539	20.303	1436.244	1369.555
695.554	20.719	1436.581	1373.014
696.568	21.082	1436.012	1375.181
697.583	21.161	1435.747	1375.392
698.598	21.247	1433.920	1374.156
699.612	21.436	1433.347	1374.936
700.627	21.347	1431.918	1372.698
701.641	21.305	1430.886	1371.215
702.656	21.196	1430.230	1369.563
703.671	21.438	1430.008	1371.095
704.685	21.529	1428.624	1370.314
705.700	21.449	1427.259	1368.210
706.714	21.233	1425.352	1364.523
707.729	21.048	1423.985	1361.603
708.744	20.968	1422.744	1359.627
709.758	20.835	1421.618	1357.345
710.773	20.559	1420.117	1353.588
711.787	20.527	1418.295	1351.438
712.802	20.675	1417.032	1351.230
713.816	20.786	1417.085	1351.990
714.831	21.131	1416.254	1353.721
715.846	21.317	1415.042	1353.849
716.860	21.273	1413.821	1352.176
717.875	21.358	1412.881	1351.774
718.889	21.257	1412.214	1350.190
719.904	21.211	1411.771	1349.254
720.919	21.407	1410.589	1349.480
721.933	21.384	1409.834	1348.419
722.948	21.465	1408.740	1347.837
723.962	21.477	1407.393	1346.484
724.977	21.611	1406.365	1346.374
725.992	21.499	1405.483	1344.500
727.006	21.502	1403.752	1342.706
728.021	21.481	1402.851	1341.526
729.035	21.534	1401.400	1340.382
730.050	21.486	1400.666	1339.153
731.065	21.507	1399.425	1337.969
732.079	21.627	1398.648	1337.983
733.094	21.531	1397.498	1335.990
734.108	21.404	1396.119	1333.532
735.123	21.368	1394.835	1331.876
736.138	21.427	1393.862	1331.239
737.152	21.595	1392.860	1331.403
738.167	21.734	1392.141	1331.618
739.181	21.728	1391.055	1330.374
740.196	21.645	1390.183	1328.751
741.211	21.573	1389.734	1327.614
742.225	21.499	1388.325	1325.543
743.240	21.705	1386.257	1324.980
744.254	21.634	1385.406	1323.467
745.269	21.505	1384.420	1321.390
746.284	21.469	1383.639	1320.214
747.298	21.330	1382.247	1317.669
748.313	21.160	1380.365	1314.434
749.327	20.719	1379.304	1309.928
750.342	20.280	1378.359	1305.558
751.356	20.106	1376.385	1302.218
752.371	20.221	1375.748	1302.326
753.386	21.076	1375.974	1308.834
754.400	21.544	1375.476	1311.732
755.415	21.633	1375.188	1311.965
756.429	21.678	1374.082	1311.097
757.444	21.497	1373.012	1308.557
758.459	21.652	1372.529	1309.104
759.473	21.713	1371.193	1308.129
760.488	21.756	1369.995	1307.152
761.502	21.846	1367.927	1305.699
762.517	21.788	1366.819	1304.048
763.532	21.561	1365.331	1300.777
764.546	21.399	1363.833	1297.988
765.561	21.075	1362.654	1294.295
766.575	20.622	1360.961	1289.158
767.590	20.584	1359.740	1287.561
768.605	20.816	1360.252	1289.620
769.619	21.062	1359.571	1290.647
770.634	21.325	1358.412	1291.347
771.648	21.557	1357.460	1292.014
772.663	21.863	1356.600	1293.305
773.678	21.882	1356.488	1293.188
774.692	21.631	1356.128	1290.828
775.707	21.930	1355.191	1291.998
776.721	21.907	1354.283	1290.803
777.736	21.757	1352.432	1287.776
778.751	21.770	1351.377	1286.714
779.765	21.800	1351.272	1286.681
780.780	21.713	1349.832	1284.516
781.794	21.739	1349.268	1284.019
782.809	21.671	1348.015	1282.169
783.824	21.400	1347.057	1279.114
784.838	21.210	1344.443	1275.085
785.853	20.694	1342.438	1269.248
786.867	20.692	1343.020	1269.631
787.882	21.097	1342.413	1271.871
788.897	21.207	1341.641	1271.793
789.911	21.262	1341.405	1271.819
790.926	21.471	1340.272	1272.125
791.940	21.700	1338.650	1272.105
792.955	21.778	1337.200	1271.142
793.969	21.705	1336.859	1270.130
794.984	21.826	1335.367	1269.445
795.999	21.821	1334.339	1268.275
797.013	21.920	1332.964	1267.540
798.028	21.940	1332.118	1266.724
799.042	21.996	1331.107	1266.021
800.057	22.140	1330.577	1266.406
801.072	22.157	1328.953	1264.837
802.086	22.024	1327.516	1262.351
803.101	21.990	1327.381	1261.832
804.115	22.107	1325.990	1261.198
805.130	22.017	1325.195	1259.641
806.145	22.062	1324.063	1258.738
807.159	22.111	1321.850	1256.835
808.174	21.891	1320.436	1253.764
809.188	21.749	1318.963	1251.193
810.203	21.710	1317.088	1248.986
811.218	21.457	1315.024	1245.070
812.232	20.998	1314.450	1241.098
813.247	21.012	1313.135	1239.802
814.261	21.290	1313.445	1241.937
815.276	21.672	1313.271	1244.352
816.291	21.746	1312.951	1244.428
817.305	21.941	1311.675	1244.460
818.320	22.064	1310.596	1244.165
819.334	22.105	1309.429	1243.201
820.349	22.012	1307.929	1240.962
821.364	22.060	1306.432	1239.737
822.378	22.198	1304.658	1238.883
823.393	22.257	1303.159	1237.728
824.407	22.116	1302.653	1236.099
825.422	21.927	1302.647	1234.614
826.437	21.867	1301.231	1232.697
827.451	21.681	1298.872	1229.007
828.466	21.026	1297.129	1222.593
829.480	20.871	1295.104	1219.446
830.495	21.108	1293.837	1219.773
831.509	21.309	1293.959	1221.158
832.524	21.750	1293.058	1223.251
833.539	21.909	1291.850	1223.082
834.553	22.043	1291.147	1223.206
835.568	22.033	1290.648	1222.518
836.582	22.035	1290.107	1221.869
837.597	22.166	1287.647	1220.307
838.612	22.125	1285.588	1217.925
839.626	22.004	1284.297	1215.719
840.641	21.732	1283.639	1213.058
841.655	21.561	1282.544	1210.685
842.670	20.969	1280.963	1204.938
843.685	20.743	1279.759	1202.089
844.699	21.366	1279.032	1205.584
845.714	21.627	1278.648	1206.885
846.728	21.776	1278.477	1207.616
847.743	21.968	1277.469	1207.843
848.758	21.964	1276.431	1206.688
849.772	22.176	1274.891	1206.551
850.787	22.181	1273.786	1205.397
851.801	21.983	1273.112	1203.250
852.816	21.874	1271.348	1200.690
853.831	21.968	1269.542	1199.486
854.845	21.901	1267.993	1197.418
855.860	21.844	1266.044	1195.047
856.874	21.611	1265.110	1192.426
857.889	21.447	1263.359	1189.512
858.904	21.111	1261.898	1185.704
859.918	20.865	1259.655	1181.777
860.933	20.611	1258.710	1179.018
861.947	20.865	1258.610	1180.509
862.962	21.332	1257.379	1182.394
863.977	21.283	1257.047	1181.604
864.991	21.475	1256.911	1182.638
866.006	21.727	1256.523	1183.845
867.020	21.962	1255.056	1183.912
868.035	21.967	1254.209	1183.007
869.049	22.108	1253.334	1182.997
870.064	22.312	1251.924	1182.904
871.079	22.204	1251.157	1181.307
872.093	22.063	1250.716	1179.797
873.108	22.114	1249.396	1178.757
874.122	21.907	1247.556	1175.482
875.137	21.436	1247.052	1171.696
876.152	21.395	1246.108	1170.394
877.166	21.568	1244.586	1169.989
878.181	21.958	1242.983	1170.957
879.195	22.047	1243.049	1171.476
880.210	22.142	1242.352	1171.317
881.225	22.082	1241.625	1170.084
882.239	22.076	1240.572	1168.912
883.254	22.190	1239.650	1168.668
884.268	22.179	1238.917	1167.765
885.283	22.206	1237.422	1166.393
886.298	22.180	1235.610	1164.372
887.312	22.102	1235.076	1163.214
888.327	22.180	1234.361	1162.920
889.341	22.114	1232.630	1160.713
890.356	22.031	1231.622	1159.070
891.371	21.933	1231.943	1158.584
892.385	21.787	1231.379	1156.946
893.400	21.846	1229.466	1155.399
894.414	21.808	1228.155	1153.780
895.429	21.522	1225.643	1149.391
896.444	21.047	1222.658	1143.330
897.458	20.558	1221.692	1139.067
898.473	20.808	1221.630	1140.522
899.487	21.456	1221.930	1144.925
900.502	21.736	1221.379	1146.117
901.517	21.867	1220.297	1145.821
902.531	22.130	1219.388	1146.560
903.546	22.167	1219.483	1146.753
904.560	22.196	1218.879	1146.234
905.575	22.179	1218.010	1145.175
906.589	22.255	1216.653	1144.254
907.604	22.133	1215.578	1142.314
