DTS Sentinel unit serial number:	SN409020Multiplexer serial number:	ORYXHardware model number:	OX4-SRSoftware version number:	ORYX F/W v3.00 Oryx Data Collector v3.7.2.0data status	okinstallation	HaddamTimeLapsedifferential loss correction	single-endedforward channel	channel 3reverse channel	N/Adate	2011/06/21time	16:26:17forward acquisition time	30.00reverse acquisition time	0.00gamma	498.7831k internal	0.1787k external	0.1787temperature offset calibration	1.0074default loss term (dB/km)	0.3790temperature slope calibration	1.3530multiplexer offset coefficient	1.0000multiplexer slope coefficient	1.0000fibre end	0.00T internal ref (°C)	33.37T ext. ref 1 (°C)	26.30T ext. ref 2 (°C)	0.23length (m)	temperature (°C)	Stokes	anti-Stokes-747.200	80.955	-0.165	0.231
-746.185	800.000	-0.139	0.511
-745.171	557.127	-0.095	0.299
-744.156	-81.541	0.196	0.083
-743.142	42.838	0.210	-0.250
-742.127	800.000	-0.151	0.643
-741.112	-149.721	-0.176	-0.018
-740.098	-48.218	0.083	0.052
-739.083	-149.778	-0.629	0.063
-738.069	642.752	-0.061	0.205
-737.054	-177.066	-0.602	-0.019
-736.039	137.696	-0.023	0.040
-735.025	284.829	0.182	-0.428
-734.010	363.347	0.269	-0.707
-732.996	55.427	-0.079	0.099
-731.981	800.000	0.033	0.127
-730.966	42.809	0.204	-0.242
-729.952	-200.000	0.002	-0.377
-728.937	46.854	-0.409	-0.494
-727.923	20.632	-0.198	-0.209
-726.908	-6.310	0.091	-0.081
-725.894	-85.320	-0.383	-0.155
-724.879	-12.442	-0.268	-0.228
-723.864	51.753	-0.237	-0.294
-722.850	357.118	-0.172	0.447
-721.835	100.346	-0.162	-0.245
-720.821	-61.220	0.311	-0.170
-719.806	-150.656	0.448	-0.044
-718.791	-60.627	0.519	-0.285
-717.777	-200.000	0.049	0.339
-716.762	-115.993	0.090	-0.022
-715.748	-50.320	0.349	-0.214
-714.733	-122.337	-0.426	-0.090
-713.718	251.235	0.112	-0.250
-712.704	-14.986	-0.430	-0.358
-711.689	-200.000	0.053	-0.425
-710.675	247.304	0.209	-0.460
-709.660	-47.140	-0.057	-0.036
-708.645	-72.756	-0.166	0.079
-707.631	-33.760	0.061	0.044
-706.616	-50.870	-0.604	-0.368
-705.602	335.430	0.067	0.169
-704.587	321.190	0.020	0.050
-703.572	-64.596	0.135	-0.071
-702.558	-49.142	0.184	-0.114
-701.543	-44.849	0.170	0.110
-700.529	-65.829	-0.134	0.069
-699.514	-48.911	0.197	0.122
-698.499	-200.000	-0.035	-0.252
-697.485	33.368	-0.012	-0.013
-696.470	-64.844	-0.779	-0.408
-695.456	-148.945	-0.160	0.017
-694.441	138.698	0.056	-0.096
-693.426	-27.642	-0.080	-0.060
-692.412	-175.202	-0.430	-0.015
-691.397	31.111	0.308	-0.343
-690.383	-72.519	0.466	-0.223
-689.368	800.000	-0.032	-0.125
-688.354	-50.882	0.330	-0.201
-687.339	-200.000	0.031	-0.318
-686.324	-80.028	-0.400	0.173
-685.310	-32.525	-0.252	0.182
-684.295	34.995	-0.269	0.306
-683.281	34.851	-0.075	-0.085
-682.266	800.000	0.102	0.552
-681.251	207.907	0.241	0.491
-680.237	399.439	-0.177	0.484
-679.222	263.326	-0.270	0.612
-678.208	91.031	0.284	0.414
-677.193	496.433	0.230	0.689
-676.178	159.174	-0.226	-0.409
-675.164	-200.000	0.024	0.202
-674.149	39.211	0.174	0.202
-673.135	-166.270	-0.489	-0.026
-672.120	94.345	0.240	0.354
-671.105	-159.005	0.397	0.029
-670.091	-200.000	-0.002	-0.356
-669.076	-200.000	-0.018	-0.307
-668.062	-113.760	-0.374	-0.094
-667.047	800.000	0.056	0.274
-666.032	5.100	-0.259	0.248
-665.018	-109.626	0.644	-0.175
-664.003	800.000	-0.099	-0.485
-662.989	-200.000	0.068	0.397
-661.974	2.656	-0.216	-0.203
-660.959	271.334	0.043	-0.099
-659.945	-148.868	-0.458	0.047
-658.930	211.621	0.124	-0.253
-657.916	201.032	-0.072	0.143
-656.901	-138.778	0.175	0.025
-655.886	-86.562	-0.015	0.006
-654.872	-17.908	0.308	-0.250
-653.857	-52.783	-0.308	-0.183
-652.843	132.318	-0.184	0.308
-651.828	-144.610	-0.331	0.039
-650.814	382.502	-0.077	0.207
-649.799	-200.000	-0.064	0.371
-648.784	-200.000	-0.009	0.119
-647.770	153.835	-0.049	0.087
-646.755	125.693	0.104	-0.171
-645.741	-26.110	-0.153	0.116
-644.726	800.000	-0.090	-0.454
-643.711	0.551	-0.210	-0.194
-642.697	411.867	-0.157	-0.435
-641.682	-36.328	0.554	-0.386
-640.668	-18.255	0.314	0.254
-639.653	-147.747	0.215	0.023
-638.638	50.081	0.037	-0.045
-637.624	121.239	-0.048	0.077
-636.609	-44.898	-0.264	0.170
-635.595	-92.137	0.400	0.146
-634.580	-128.907	-0.541	-0.098
-633.565	-39.301	-0.291	0.197
-632.551	-55.655	-0.578	0.334
-631.536	-200.000	-0.202	-0.001
-630.522	-5.066	0.387	-0.345
-629.507	712.726	0.041	-0.141
-628.492	233.267	-0.073	0.156
-627.478	157.636	-0.090	-0.162
-626.463	-17.748	0.065	0.053
-625.449	386.220	-0.132	-0.355
-624.434	-80.735	-0.121	-0.052
-623.419	454.466	0.072	-0.209
-622.405	89.378	-0.159	-0.230
-621.390	-77.935	0.344	0.153
-620.376	-68.413	0.410	0.205
-619.361	-4.485	-0.112	0.100
-618.346	-28.017	-0.506	0.379
-617.332	24.406	-0.147	-0.157
-616.317	-180.437	0.330	0.009
-615.303	41.562	-0.536	0.629
-614.288	-40.185	-0.048	-0.032
-613.273	800.000	-0.072	0.263
-612.259	101.246	-0.258	0.389
-611.244	-56.323	-0.219	-0.125
-610.230	-22.249	-0.236	0.185
-609.215	322.098	0.082	-0.202
-608.201	-73.962	-0.203	0.095
-607.186	-156.243	-0.486	0.039
-606.171	-40.217	0.109	-0.073
-605.157	-200.000	-0.215	-0.000
-604.142	644.901	0.108	0.357
-603.128	186.291	-0.019	0.038
-602.113	-16.566	0.285	-0.233
-601.098	191.328	0.046	0.090
-600.084	280.820	0.160	0.371
-599.069	555.476	0.064	-0.199
-598.055	-36.422	0.229	-0.159
-597.040	-64.009	0.340	-0.179
-596.025	-200.000	0.020	-0.333
-595.011	-168.033	-0.222	-0.011
-593.996	-171.814	0.395	0.016
-592.982	238.692	-0.043	-0.092
-591.967	-86.726	-0.392	0.154
-590.952	-156.912	-0.034	-0.003
-589.938	800.000	0.060	0.269
-588.923	-101.331	0.467	0.147
-587.909	-55.569	-0.307	0.177
-586.894	-84.183	-0.214	-0.087
-585.879	-128.547	-0.460	-0.084
-584.865	-142.931	-0.363	0.045
-583.850	-12.764	0.458	-0.386
-582.836	411.545	0.071	-0.195
-581.821	800.000	0.143	-0.520
-580.806	325.603	0.110	-0.272
-579.792	-28.522	-0.320	-0.238
-578.777	112.523	-0.124	-0.194
-577.763	-144.099	-0.248	-0.030
-576.748	151.364	-0.207	0.366
-575.733	-125.200	0.577	-0.113
-574.719	-181.799	0.454	-0.011
-573.704	34.675	-0.266	-0.300
-572.690	-200.000	0.005	-0.073
-571.675	-118.528	0.236	0.054
-570.661	-176.709	0.686	0.022
-569.646	-200.000	0.056	0.385
-568.631	51.015	0.248	0.305
-567.617	21.762	0.117	-0.123
-566.602	-116.026	-0.066	0.016
-565.588	10.776	-0.140	-0.138
-564.573	800.000	0.086	0.362
-563.558	-48.544	-0.400	0.248
-562.544	70.232	-0.287	-0.384
-561.529	567.419	0.093	0.293
-560.515	-68.066	0.302	0.152
-559.500	-200.000	-0.025	0.394
-558.485	-200.000	-0.074	0.490
-557.471	136.341	0.120	0.202
-556.456	4.228	0.214	-0.203
-555.442	-82.119	0.261	0.109
-554.427	-89.011	0.252	0.096
-553.412	63.043	-0.328	0.425
-552.398	800.000	-0.047	-0.180
-551.383	68.233	0.216	0.286
-550.369	-129.463	-0.302	-0.054
-549.354	-32.090	0.076	-0.055
-548.339	800.000	0.155	-0.633
-547.325	-61.069	0.054	-0.030
-546.310	800.000	0.065	-0.268
-545.296	571.767	-0.076	-0.239
-544.281	-200.000	0.008	-0.136
-543.266	-39.422	0.238	-0.161
-542.252	-106.477	0.489	0.140
-541.237	800.000	0.143	0.602
-540.223	-24.837	-0.324	0.248
-539.208	-157.920	0.243	-0.018
-538.193	-37.866	-0.337	-0.231
-537.179	800.000	0.073	0.311
-536.164	296.818	0.350	-0.833
-535.150	58.376	-0.252	-0.319
-534.135	100.709	-0.233	0.350
-533.121	-47.924	-0.257	0.160
-532.106	-200.000	0.060	-0.407
-531.091	-124.521	-0.312	0.062
-530.077	-31.688	-0.214	-0.155
-529.062	-5.834	-0.287	0.253
-528.048	-104.123	-0.045	0.014
-527.033	-54.367	-0.388	0.227
-526.018	172.224	-0.081	0.150
-525.004	263.119	0.178	-0.400
-523.989	146.607	-0.096	-0.166
-522.975	-95.936	-0.598	-0.204
-521.960	-118.537	0.444	0.100
-520.945	-36.015	-0.151	0.105
-519.931	743.047	0.134	0.466
-518.916	-59.353	0.206	-0.114
-517.902	-85.387	0.234	0.094
-516.887	3.116	0.384	-0.360
-515.872	97.017	-0.193	-0.285
-514.858	-200.000	-0.072	0.000
-513.843	-115.432	0.234	0.056
-512.829	-200.000	0.073	0.522
-511.814	-19.582	-0.190	-0.152
-510.799	-41.242	-0.196	-0.130
-509.785	-121.969	-0.343	-0.072
-508.770	386.443	0.090	-0.242
-507.756	223.962	-0.241	-0.504
-506.741	517.145	0.235	-0.712
-505.726	16.896	0.176	-0.179
-504.712	-87.266	0.238	-0.093
-503.697	-178.326	-0.078	-0.002
-502.683	-90.503	-0.160	0.059
-501.668	425.666	0.049	0.136
-500.653	148.957	0.173	-0.303
-499.639	-32.968	0.286	-0.204
-498.624	-8.979	-0.093	-0.080
-497.610	251.971	-0.102	-0.225
-496.595	273.488	0.138	-0.316
-495.581	218.024	-0.088	0.182
-494.566	-39.818	-0.231	-0.155
-493.551	-13.013	-0.341	-0.285
-492.537	8.490	-0.304	-0.295
-491.522	-104.986	0.417	-0.122
-490.508	17.892	0.463	-0.476
-489.493	256.495	0.094	0.209
-488.478	-80.681	-0.554	0.236
-487.464	-7.929	-0.201	-0.175
-486.449	78.088	-0.182	-0.250
-485.435	175.231	-0.212	0.397
-484.420	80.261	-0.021	-0.029
-483.405	800.000	0.149	0.622
-482.391	131.013	0.285	-0.472
-481.376	-73.844	0.218	-0.102
-480.362	465.223	0.119	0.345
-479.347	9.182	0.109	0.106
-478.332	-200.000	-0.026	0.196
-477.318	-200.000	0.015	0.201
-476.303	-88.860	0.164	-0.062
-475.289	-200.000	0.001	0.328
-474.274	-54.734	-0.251	-0.146
-473.259	49.365	0.051	0.061
-472.245	-34.111	0.121	0.085
-471.230	-56.730	0.052	-0.030
-470.216	359.674	0.254	0.657
-469.201	-13.980	-0.179	0.148
-468.186	-143.968	-0.614	-0.073
-467.172	800.000	0.046	-0.229
-466.157	-111.030	0.093	-0.024
-465.143	-160.952	-0.383	0.026
-464.128	-97.816	-0.490	-0.162
-463.113	58.365	0.071	0.090
-462.099	-125.837	-0.045	-0.009
-461.084	-159.391	0.889	-0.063
-460.070	15.310	-0.071	-0.072
-459.055	16.823	0.162	-0.165
-458.040	-76.804	-0.804	0.360
-457.026	-101.914	-0.216	0.067
-456.011	71.777	0.151	0.202
-454.997	-15.125	-0.318	0.262
-453.982	-117.537	0.331	-0.076
-452.968	4.316	-0.174	-0.164
-451.953	90.108	-0.319	0.460
-450.938	-128.947	-0.105	-0.019
-449.924	-14.170	-0.302	0.250
-448.909	50.967	0.185	-0.225
-447.895	-116.544	0.039	-0.009
-446.880	-76.146	0.481	-0.217
-445.865	39.884	0.181	-0.209
-444.851	575.771	-0.108	0.340
-443.836	-97.609	0.562	0.186
-442.822	209.440	0.166	0.335
-441.807	80.525	0.193	0.267
-440.792	219.542	0.167	-0.345
-439.778	394.347	-0.076	-0.204
-438.763	184.433	-0.155	-0.296
-437.749	47.027	0.264	-0.316
-436.734	-112.669	0.208	-0.053
-435.719	18.778	0.301	-0.310
-434.705	-43.314	-0.281	-0.182
-433.690	-193.587	-0.079	-0.001
-432.676	-65.871	-0.391	-0.200
-431.661	-34.696	-0.211	-0.148
-430.646	-136.991	-0.540	-0.079
-429.632	589.003	-0.032	-0.103
-428.617	-8.392	0.174	0.150
-427.603	800.000	-0.088	-0.324
-426.588	45.172	0.377	0.447
-425.573	22.345	-0.238	0.250
-424.559	-107.108	-0.127	0.036
-423.544	491.083	-0.149	0.441
-422.530	-108.394	-0.320	0.088
-421.515	800.000	0.007	-0.030
-420.500	-23.842	-0.259	-0.199
-419.486	393.495	-0.159	-0.428
-418.471	-68.299	0.132	-0.066
-417.457	-113.591	0.406	0.101
-416.442	-127.152	-0.044	-0.008
-415.428	-200.000	0.013	-0.094
-414.413	-112.474	-0.464	-0.118
-413.398	-135.192	-0.170	0.026
-412.384	45.323	-0.373	0.442
-411.369	-12.910	0.403	0.336
-410.355	64.304	0.136	-0.177
-409.340	-200.000	-0.010	-0.436
-408.325	-113.274	0.409	-0.102
-407.311	87.988	0.173	0.247
-406.296	77.471	-0.186	0.254
-405.282	2.514	-0.027	0.025
-404.267	800.000	0.073	0.283
-403.252	-14.525	-0.150	-0.123
-402.238	0.597	-0.278	-0.255
-401.223	-200.000	-0.018	0.110
-400.209	-200.000	0.002	0.030
-399.194	327.989	-0.254	0.629
-398.179	161.455	0.147	0.265
-397.165	-54.804	0.111	-0.064
-396.150	32.007	-0.249	-0.275
-395.136	-66.795	-0.352	0.178
-394.121	6.109	0.033	0.032
-393.106	18.608	-0.116	0.119
-392.092	-139.468	0.296	0.040
-391.077	-112.961	-0.042	0.011
-390.063	194.575	-0.233	0.456
-389.048	-71.345	-0.065	0.031
-388.033	410.601	0.187	-0.513
-387.019	32.096	0.136	-0.151
-386.004	137.461	-0.098	-0.166
-384.990	107.639	0.393	0.602
-383.975	7.190	0.337	0.323
-382.960	-200.000	0.009	-0.094
-381.946	481.140	-0.174	-0.511
-380.931	-200.000	-0.086	-0.549
-379.917	-148.370	0.316	0.033
-378.902	144.556	0.217	-0.373
-377.888	69.262	0.223	-0.295
-376.873	71.291	0.279	0.372
-375.858	-15.291	0.183	0.150
-374.844	-200.000	-0.028	0.223
-373.829	800.000	0.054	0.206
-372.815	209.406	-0.226	0.455
-371.800	-77.058	-0.122	-0.055
-370.785	-108.575	-0.169	0.046
-369.771	183.948	-0.130	0.247
-368.756	-82.523	0.193	-0.080
-367.742	-64.701	0.406	-0.210
-366.727	-20.285	-0.168	0.133
-365.712	-80.484	-0.366	0.156
-364.698	20.780	0.362	-0.376
-363.683	-93.256	-0.565	-0.200
-362.669	-13.669	0.067	-0.056
-361.654	-200.000	-0.029	0.331
-360.639	3.160	0.496	-0.462
-359.625	-200.000	-0.039	-0.390
-358.610	-24.681	-0.346	0.263
-357.596	-97.505	-0.437	0.145
-356.581	-143.579	-0.247	-0.030
-355.566	151.100	0.105	-0.184
-354.552	-176.760	0.135	-0.004
-353.537	-91.436	0.319	-0.116
-352.523	-15.274	-0.097	-0.080
-351.508	304.204	-0.204	0.487
-350.493	70.300	-0.037	0.049
-349.479	29.021	-0.326	-0.354
-348.464	-200.000	0.002	-0.293
-347.450	22.707	-0.130	0.137
-346.435	15.335	0.113	-0.114
-345.420	124.997	0.164	0.265
-344.406	-200.000	0.030	-0.513
-343.391	-166.916	-0.143	-0.007
-342.377	-0.503	-0.179	-0.162
-341.362	-134.589	0.196	-0.030
-340.348	240.004	-0.152	-0.325
-339.333	-200.000	-0.043	-0.745
-338.318	-200.000	-0.222	-0.001
-337.304	-151.066	-0.064	0.006
-336.289	800.000	0.090	0.362
-335.275	-200.000	0.017	-0.113
-334.260	458.831	0.116	0.333
-333.245	-104.821	0.458	0.134
-332.231	-82.651	-0.299	-0.123
-331.216	-200.000	-0.068	0.542
-330.202	-136.235	0.192	0.028
-329.187	-89.380	0.842	-0.316
-328.172	-55.850	-0.057	-0.032
-327.158	-48.485	-0.253	0.155
-326.143	-164.078	0.293	0.017
-325.129	-114.588	-0.007	-0.002
-324.114	-200.000	-0.033	-0.203
-323.099	321.392	-0.256	-0.627
-322.085	-200.000	0.065	0.441
-321.070	-200.000	-0.077	0.439
-320.056	-151.321	0.124	-0.012
-319.041	-59.679	0.053	0.029
-318.026	-11.953	0.318	-0.266
-317.012	103.619	0.212	0.319
-315.997	-105.379	0.185	0.053
-314.983	-115.604	0.347	0.083
-313.968	-115.658	-0.482	-0.115
-312.953	-200.000	0.035	0.307
-311.939	-43.957	-0.314	0.201
-310.924	-38.530	0.294	0.198
-309.910	62.939	0.274	-0.352
-308.895	-24.644	-0.373	-0.283
-307.880	155.071	0.156	-0.275
-306.866	-142.957	0.380	-0.047
-305.851	800.000	0.095	-0.465
-304.837	-9.907	0.287	-0.244
-303.822	800.000	0.056	-0.290
-302.807	-93.605	0.419	-0.147
-301.793	800.000	-0.017	0.086
-300.778	-200.000	-0.015	0.296
-299.764	45.251	0.262	-0.309
-298.749	-35.440	-0.201	-0.140
-297.735	270.615	0.199	0.449
-296.720	714.262	0.054	-0.184
-295.705	-121.278	-0.409	0.087
-294.691	89.980	-0.118	0.169
-293.676	-200.000	0.024	0.346
-292.662	-200.000	-0.038	0.291
-291.647	-200.000	-0.010	-0.075
-290.632	-120.866	0.055	-0.012
-289.618	158.310	-0.056	-0.099
-288.603	-36.018	0.216	-0.149
-287.589	527.929	0.076	0.231
-286.574	-200.000	0.019	0.382
-285.559	-129.637	-0.215	0.038
-284.545	-200.000	-0.059	0.430
-283.530	-114.916	0.209	-0.051
-282.516	-0.077	-0.249	-0.226
-281.501	-142.499	-0.354	-0.044
-280.486	-41.448	-0.496	-0.326
-279.472	251.697	-0.029	-0.062
-278.457	723.349	-0.064	-0.219
-277.443	539.317	-0.123	0.376
-276.428	351.919	0.051	-0.129
-275.413	296.973	0.086	0.203
-274.399	49.074	-0.061	0.074
-273.384	-39.033	-0.602	0.404
-272.370	744.478	-0.160	-0.553
-271.355	-98.811	0.262	-0.085
-270.340	-128.457	0.248	0.045
-269.326	-77.817	-0.270	-0.118
-268.311	88.141	0.075	0.107
-267.297	8.515	0.029	0.028
-266.282	45.676	0.341	0.403
-265.267	-119.414	0.363	0.080
-264.253	318.774	-0.106	-0.257
-263.238	-92.880	-0.577	-0.205
-262.224	-159.406	0.368	-0.026
-261.209	-200.000	-0.006	0.466
-260.195	-148.479	0.295	-0.030
-259.180	371.595	-0.172	-0.448
-258.165	-200.000	0.070	0.419
-257.151	-200.000	0.019	-0.640
-256.136	-2.761	0.323	-0.288
-255.122	-200.000	0.012	-0.084
-254.107	247.957	-0.254	0.551
-253.092	-200.000	0.033	-0.299
-252.078	-71.342	0.181	0.086
-251.063	70.945	0.279	0.369
-250.049	11.186	0.069	-0.067
-249.034	800.000	-0.084	0.347
-248.019	-16.488	-0.336	-0.272
-247.005	-53.547	-0.067	0.039
-245.990	-200.000	0.016	0.390
-244.976	-200.000	0.068	-0.525
-243.961	56.691	-0.244	-0.304
-242.946	-200.000	0.047	0.417
-241.932	-52.766	0.339	-0.199
-240.917	-200.000	-0.064	-0.380
-239.903	291.500	0.118	-0.276
-238.888	136.013	0.084	-0.140
-237.873	-2.887	-0.113	-0.101
-236.859	-25.202	0.382	-0.288
-235.844	-197.875	0.111	0.001
-234.830	-103.200	0.340	-0.102
-233.815	-125.132	0.527	-0.102
-232.800	-200.000	0.031	0.249
-231.786	-26.581	-0.644	0.480
-230.771	-125.565	0.460	0.088
-229.757	-92.635	0.285	-0.101
-228.742	-68.685	-0.164	-0.081
-227.727	567.559	-0.068	-0.210
-226.713	-98.348	-0.213	0.069
-225.698	167.898	0.048	0.087
-224.684	-176.435	0.299	0.010
-223.669	800.000	0.035	-0.183
-222.655	-141.109	0.260	0.034
-221.640	1.838	-0.122	0.112
-220.625	27.081	0.149	-0.160
-219.611	-105.503	0.430	-0.124
-218.596	586.894	-0.145	-0.458
-217.582	440.342	-0.263	0.735
-216.567	-200.000	-0.059	0.484
-215.552	78.613	-0.058	0.079
-214.538	-145.413	0.381	0.043
-213.523	800.000	-0.020	-0.073
-212.509	-125.603	-0.222	0.043
-211.494	-129.682	-0.634	0.110
-210.479	71.053	0.250	0.331
-209.465	42.227	-0.205	0.237
-208.450	800.000	-0.032	0.114
-207.436	387.282	0.105	-0.277
-206.421	-98.240	0.476	-0.155
-205.406	208.347	0.224	0.449
-204.392	8.150	0.156	-0.150
-203.377	-38.901	0.498	-0.333
-202.363	40.194	0.130	0.149
-201.348	-179.429	-0.419	-0.012
-200.333	-152.308	0.301	0.027
-199.319	-14.704	-0.246	0.201
-198.304	-17.276	-0.136	0.109
-197.290	50.641	0.148	0.178
-196.275	-50.336	0.348	0.209
-195.260	-200.000	-0.056	-0.370
-194.246	-200.000	-0.015	-0.379
-193.231	-71.893	-0.340	0.161
-192.217	-200.000	-0.517	0.000
-191.202	51.402	0.099	0.120
-190.187	195.208	-0.192	0.372
-189.173	-200.000	-0.400	0.000
-188.158	97.324	0.211	0.310
-187.144	-103.826	-0.082	0.024
-186.129	106.627	0.089	0.134
-185.114	-81.309	-0.315	-0.132
-184.100	-109.841	0.342	0.091
-183.085	-200.000	0.061	-0.473
-182.071	-39.949	-0.137	-0.091
-181.056	302.394	-0.107	0.253
-180.042	-103.222	0.031	0.009
-179.027	-146.143	-0.174	0.019
-178.012	-9.491	0.174	0.147
-176.998	554.167	-0.115	0.355
-175.983	182.519	-0.117	-0.220
-174.969	55.587	-0.194	-0.239
-173.954	768.543	0.081	-0.282
-172.939	115.241	-0.090	-0.141
-171.925	-200.000	-0.012	0.313
-170.910	334.500	0.039	-0.095
-169.896	96.283	0.326	0.476
-168.881	-52.813	0.552	0.323
-167.866	380.810	0.100	-0.261
-166.852	-200.000	0.033	-0.299
-165.837	1.671	0.157	-0.144
-164.823	800.000	0.077	0.293
-163.808	-115.711	-0.120	0.028
-162.793	236.576	-0.102	0.215
-161.779	-32.792	-0.162	-0.114
-160.764	-47.475	-0.341	-0.210
-159.750	-43.739	-0.309	-0.198
-158.735	7.187	0.202	-0.192
-157.720	105.523	0.246	0.370
-156.706	140.662	-0.155	0.262
-155.691	-92.788	-0.486	0.172
-154.677	-24.442	-0.183	-0.139
-153.662	68.862	0.136	-0.178
-152.647	215.392	0.337	0.682
-151.633	-125.304	-0.115	0.022
-150.618	-54.371	0.250	0.144
-149.604	-141.397	0.170	0.022
-148.589	-200.000	-0.023	0.135
-147.574	-200.000	-0.054	-0.810
-146.560	115.559	0.056	0.088
-145.545	10.015	-0.024	-0.023
-144.531	78.833	0.238	0.325
-143.516	-163.020	0.098	-0.006
-142.502	-29.596	0.132	-0.095
-141.487	-155.623	-0.380	0.031
-140.472	-200.000	0.002	0.036
-139.458	-137.872	-0.452	-0.064
-138.443	-43.450	-0.228	0.146
-137.429	-180.736	0.264	0.007
-136.414	180.018	-0.083	-0.154
-135.399	-200.000	-0.035	0.374
-134.385	-76.563	-0.207	-0.092
-133.370	-200.000	0.016	-0.283
-132.356	-78.799	0.222	-0.096
-131.341	-42.393	-0.087	0.056
-130.326	-169.991	-0.539	0.024
-129.312	0.265	0.148	-0.134
-128.297	-113.998	0.393	0.096
-127.283	-82.451	-0.268	0.110
-126.268	430.841	0.056	-0.156
-125.253	133.618	-0.100	-0.164
-124.239	-200.000	0.015	-0.118
-123.224	-77.603	0.116	0.051
-122.210	245.751	0.101	0.217
-121.195	459.487	-0.219	0.622
-120.180	-126.439	0.313	-0.059
-119.166	800.000	-0.042	0.217
-118.151	433.160	0.056	0.154
-117.137	139.036	0.169	-0.283
-116.122	70.169	-0.237	-0.311
-115.107	215.896	0.113	0.228
-114.093	-102.254	-0.294	-0.089
-113.078	-200.000	-0.035	-0.253
-112.064	-10.159	0.377	0.318
-111.049	-195.983	-0.034	0.000
-110.034	-39.686	0.310	0.205
-109.020	34.505	-0.341	0.378
-108.005	-104.334	-0.484	0.141
-106.991	-88.448	-0.067	0.025
-105.976	-84.849	-0.279	-0.111
-104.962	38.964	0.290	0.329
-103.947	272.183	0.021	0.048
-102.932	-36.465	-0.501	-0.342
-101.918	147.092	0.175	0.300
-100.903	-2.487	-0.620	-0.551
-99.889	-42.702	0.529	-0.340
-98.874	800.000	0.064	0.257
-97.859	-118.355	-0.200	-0.045
-96.845	-160.367	0.467	0.031
-95.830	-28.923	0.067	0.049
-94.816	82.888	-0.152	-0.209
-93.801	-100.239	-0.159	-0.050
-92.786	-74.628	0.447	0.203
-91.772	-85.018	-0.085	-0.033
-90.757	-200.000	0.052	-0.699
-89.743	-200.000	0.025	0.186
-88.728	-4.350	-0.070	0.061
-87.713	775.648	-0.038	-0.134
-86.699	800.000	0.096	-0.444
-85.684	-200.000	0.033	-0.273
-84.670	800.000	-0.067	-0.272
-83.655	-122.128	0.149	-0.031
-82.640	376.026	0.157	-0.408
-81.626	-135.657	0.378	-0.056
-80.611	242.316	0.107	0.228
-79.597	42.990	-0.334	0.386
-78.582	-120.420	-0.344	0.074
-77.567	-7.889	-0.380	0.325
-76.553	27.695	-0.275	-0.294
-75.538	800.000	-0.034	0.140
-74.524	-13.114	-0.367	0.302
-73.509	275.337	0.154	-0.348
-72.494	-200.000	0.036	0.249
-71.480	418.531	0.062	-0.169
-70.465	403.524	0.028	-0.076
-69.451	-36.702	0.129	0.088
-68.436	-53.994	0.166	-0.095
-67.422	-110.221	-0.154	-0.040
-66.407	173.534	-0.377	-0.692
-65.392	800.000	-0.049	-0.221
-64.378	12.884	0.151	0.148
-63.363	-200.000	0.018	0.231
-62.349	-65.191	-0.357	-0.182
-61.334	376.383	-0.726	-1.886
-60.319	73.663	0.605	0.804
-59.305	242.499	-3.217	-6.846
-58.290	-25.724	3.759	2.803
-57.276	412.071	3.872	10.469
-56.261	-200.000	16.025	243.294
-55.246	415.230	1216.426	3299.695
-54.232	57.277	2848.353	3524.285
-53.217	59.919	2726.954	3414.589
-52.203	39.750	2455.941	2792.155
-51.188	39.722	2105.179	2392.938
-50.173	35.809	1976.586	2201.768
-49.159	34.236	1965.647	2171.478
-48.144	33.824	1961.674	2162.290
-47.130	33.766	1959.213	2158.834
-46.115	33.714	1957.729	2156.518
-45.100	33.696	1956.471	2154.837
-44.086	33.848	1955.456	2155.377
-43.071	33.692	1953.818	2151.700
-42.057	33.662	1952.479	2149.804
-41.042	33.651	1950.600	2147.525
-40.027	33.461	1950.394	2145.046
-39.013	33.637	1948.067	2144.398
-37.998	33.585	1946.491	2141.994
-36.984	33.483	1945.188	2139.315
-35.969	33.544	1944.307	2138.953
-34.954	33.620	1942.171	2137.383
-33.940	33.456	1941.752	2134.977
-32.925	33.441	1940.958	2133.855
-31.911	33.465	1939.480	2132.411
-30.896	33.485	1937.246	2130.092
-29.881	33.420	1936.740	2128.717
-28.867	33.535	1933.986	2126.904
-27.852	33.451	1933.061	2124.856
-26.838	33.452	1932.069	2123.694
-25.823	33.541	1930.378	2122.750
-24.809	33.435	1928.847	2119.797
-23.794	33.309	1928.507	2117.918
-22.779	33.461	1926.680	2117.533
-21.765	33.270	1925.609	2114.129
-20.750	33.324	1924.198	2113.098
-19.736	33.305	1923.371	2111.894
-18.721	33.306	1921.252	2109.498
-17.706	33.271	1920.878	2108.613
-16.692	33.328	1919.306	2107.443
-15.677	33.333	1918.336	2106.351
-14.663	33.291	1916.876	2104.197
-13.648	33.310	1914.288	2101.480
-12.633	33.260	1914.066	2100.593
-11.619	33.257	1913.157	2099.479
-10.604	33.417	1910.660	2098.436
-9.590	33.338	1909.895	2096.639
-8.575	33.112	1909.703	2093.821
-7.560	33.161	1907.606	2091.988
-6.546	33.207	1906.493	2091.197
-5.531	33.176	1905.119	2089.258
-4.517	33.278	1903.951	2089.032
-3.502	33.232	1903.257	2087.673
-2.487	33.279	1902.149	2086.899
-1.473	33.273	1898.720	2082.983
-0.458	32.884	1877.695	2055.578
0.556	28.456	2011.917	2137.870
1.571	26.431	2224.283	2336.973
2.586	27.536	2268.829	2398.128
3.600	27.508	2271.887	2400.702
4.615	27.518	2271.875	2400.529
5.629	27.485	2269.223	2396.999
6.644	27.377	2267.917	2393.905
7.659	27.383	2266.057	2391.736
8.673	27.569	2263.614	2391.335
9.688	27.191	2269.760	2392.540
10.702	25.296	2345.339	2445.981
11.717	22.799	2410.843	2478.790
12.731	11.555	2382.949	2292.056
13.746	1.795	2356.193	2129.419
14.761	0.442	2350.603	2105.139
15.775	0.344	2348.902	2101.996
16.790	0.133	2347.697	2097.707
17.804	0.151	2346.318	2096.476
18.819	0.074	2346.278	2095.112
19.834	0.212	2343.478	2094.286
20.848	0.160	2342.296	2092.258
21.863	0.113	2340.722	2089.941
22.877	0.078	2339.011	2087.678
23.892	0.015	2337.236	2084.972
24.907	0.117	2334.843	2084.002
25.921	0.201	2331.953	2082.342
26.936	0.094	2330.378	2079.194
27.950	0.188	2327.283	2077.487
28.965	0.133	2324.949	2074.398
29.980	0.106	2324.089	2073.017
30.994	0.387	2322.112	2074.882
32.009	6.001	2342.550	2171.067
33.023	18.970	2380.715	2388.309
34.038	24.575	2390.929	2476.615
35.053	25.420	2388.707	2485.775
36.067	25.472	2387.379	2484.829
37.082	25.411	2385.661	2481.884
38.096	25.364	2384.519	2479.749
39.111	25.607	2380.777	2478.934
40.126	25.779	2379.707	2479.903
41.140	25.854	2379.317	2480.234
42.155	25.682	2376.691	2474.826
43.169	25.566	2373.900	2470.014
44.184	25.393	2371.516	2464.864
45.199	25.501	2368.668	2463.090
46.213	25.534	2368.047	2462.603
47.228	25.502	2366.791	2460.564
48.242	25.496	2364.557	2457.864
49.257	25.524	2363.089	2456.428
50.271	25.761	2360.900	2457.105
51.286	25.735	2359.672	2455.181
52.301	25.610	2357.135	2450.542
53.315	25.841	2358.151	2454.464
54.330	27.440	2362.586	2480.707
55.344	28.741	2361.627	2497.185
56.359	28.823	2358.946	2495.174
57.374	28.874	2357.779	2494.341
58.388	28.720	2354.252	2488.211
59.403	28.672	2349.942	2482.710
60.417	28.282	2347.663	2474.707
61.432	28.385	2344.604	2472.579
62.447	28.402	2343.644	2471.500
63.461	28.386	2341.427	2468.658
64.476	28.516	2338.656	2467.192
65.490	28.607	2338.134	2467.580
66.505	28.344	2335.794	2461.258
67.520	26.917	2329.937	2435.563
68.534	25.512	2324.323	2410.478
69.549	25.334	2319.937	2403.246
70.563	25.182	2317.937	2398.841
71.578	25.247	2316.475	2397.918
72.593	25.324	2314.853	2396.979
73.607	25.483	2312.909	2396.816
74.622	25.347	2311.119	2392.852
75.636	25.396	2308.061	2390.046
76.651	25.383	2306.420	2387.896
77.666	25.389	2304.333	2385.524
78.680	25.441	2301.678	2383.181
79.695	25.349	2299.787	2379.714
80.709	25.425	2298.888	2379.514
81.724	25.415	2297.116	2377.257
82.739	25.465	2293.810	2374.220
83.753	25.281	2293.076	2370.732
84.768	25.321	2290.914	2368.747
85.782	25.298	2289.383	2366.574
86.797	25.299	2288.055	2364.937
87.812	25.249	2285.585	2361.436
88.826	25.126	2284.000	2357.885
89.841	25.243	2281.334	2356.399
90.855	25.109	2279.267	2352.212
91.870	25.156	2277.415	2350.645
92.884	25.245	2275.617	2349.675
93.899	25.361	2274.617	2349.887
94.914	25.649	2275.537	2354.346
95.928	26.645	2278.232	2369.959
96.943	27.165	2277.037	2375.258
97.957	26.162	2271.302	2355.849
98.972	25.515	2266.047	2341.643
99.987	25.311	2263.463	2336.035
101.001	25.275	2259.710	2331.407
102.016	25.274	2258.491	2329.853
103.030	25.232	2256.952	2327.442
104.045	25.265	2254.862	2325.435
105.060	25.368	2252.970	2324.552
106.074	25.497	2250.468	2323.366
107.089	25.498	2249.239	2321.832
108.103	25.316	2248.142	2318.066
109.118	25.510	2246.709	2318.815
110.133	25.474	2245.026	2316.346
111.147	25.433	2241.910	2312.314
112.162	25.252	2240.630	2308.385
113.176	25.341	2238.570	2307.127
114.191	25.319	2237.501	2305.467
115.206	25.362	2235.341	2303.527
116.220	25.476	2233.007	2302.309
117.235	25.356	2230.983	2298.403
118.249	25.407	2229.308	2297.057
119.264	25.444	2227.626	2295.527
120.279	25.334	2225.381	2291.530
121.293	25.330	2223.793	2289.565
122.308	25.479	2222.455	2289.823
123.322	25.415	2221.082	2287.314
124.337	25.359	2221.514	2286.770
125.352	26.715	2225.292	2307.754
126.366	27.311	2224.473	2314.246
127.381	26.126	2216.283	2290.347
128.395	25.541	2212.760	2278.989
129.410	25.567	2211.136	2277.371
130.424	25.370	2209.397	2272.802
131.439	25.362	2208.037	2271.026
132.454	25.437	2206.871	2270.510
133.468	25.610	2202.816	2268.259
134.483	25.635	2201.949	2267.412
135.497	25.714	2200.840	2267.001
136.512	25.741	2198.747	2264.911
137.527	25.657	2196.566	2261.337
138.541	25.558	2194.677	2257.872
139.556	25.556	2194.253	2257.136
140.570	25.511	2193.804	2255.841
141.585	25.546	2190.586	2252.699
142.600	25.547	2189.814	2251.654
143.614	25.321	2188.324	2247.010
144.629	25.439	2185.759	2245.584
145.643	25.380	2184.413	2243.185
146.658	25.463	2182.254	2241.744
147.673	25.217	2179.831	2235.910
148.687	25.300	2178.071	2234.880
149.702	25.485	2177.109	2235.928
150.716	25.510	2176.604	2235.465
151.731	25.399	2175.090	2232.256
152.746	25.325	2174.588	2230.548
153.760	25.598	2175.044	2234.155
154.775	26.629	2178.230	2250.046
155.789	27.235	2177.202	2256.267
156.804	26.087	2169.668	2233.913
157.819	25.349	2163.788	2218.430
158.833	25.186	2160.848	2213.132
159.848	25.246	2160.146	2212.897
160.862	25.299	2158.510	2211.610
161.877	25.424	2157.946	2212.315
162.892	25.739	2157.319	2215.302
163.906	25.889	2156.095	2215.629
164.921	25.840	2154.258	2212.879
165.935	25.746	2151.527	2208.647
166.950	25.646	2150.517	2206.113
167.964	25.799	2146.928	2204.048
168.979	25.590	2145.689	2199.949
169.994	25.514	2144.659	2197.693
171.008	25.397	2142.406	2193.679
172.023	25.282	2140.882	2190.454
173.037	25.339	2140.189	2190.177
174.052	25.574	2137.742	2190.292
175.067	25.613	2136.621	2189.354
176.081	25.379	2135.272	2184.847
177.096	25.527	2133.347	2184.431
178.110	25.486	2132.039	2182.326
179.125	25.470	2132.055	2181.880
180.140	25.586	2129.640	2180.568
181.154	25.563	2129.120	2179.490
182.169	25.609	2127.352	2177.982
183.183	25.864	2128.232	2181.725
184.198	27.316	2130.560	2201.521
185.213	27.537	2128.489	2201.805
186.227	26.125	2122.403	2178.134
187.242	25.473	2119.077	2166.560
188.256	25.317	2116.999	2162.293
189.271	25.289	2115.922	2160.590
190.286	25.370	2114.255	2159.608
191.300	25.446	2111.331	2157.287
192.315	25.402	2109.528	2154.655
193.329	25.546	2109.466	2156.072
194.344	25.641	2108.579	2156.042
195.359	25.971	2106.770	2157.905
196.373	25.903	2104.971	2154.996
197.388	25.777	2101.875	2150.050
198.402	25.654	2099.807	2146.205
199.417	25.730	2098.739	2145.770
200.432	25.686	2097.320	2143.532
201.446	25.467	2095.033	2138.315
202.461	25.431	2092.946	2135.497
203.475	25.427	2091.028	2133.237
204.490	25.320	2089.381	2130.026
205.504	25.414	2086.799	2128.260
206.519	25.425	2085.079	2126.391
207.534	25.483	2084.084	2125.801
208.548	25.419	2082.423	2123.094
209.563	25.347	2080.033	2119.546
210.577	25.422	2079.693	2119.839
211.592	25.563	2079.167	2120.725
212.607	25.861	2080.309	2125.166
213.621	26.782	2083.003	2138.589
214.636	26.730	2078.916	2133.527
215.650	25.723	2074.529	2116.872
216.665	25.387	2072.210	2110.285
217.680	25.629	2069.388	2110.015
218.694	25.552	2068.435	2107.876
219.709	25.356	2066.790	2103.640
220.723	25.643	2066.194	2106.156
221.738	25.739	2064.724	2105.538
222.753	25.829	2062.350	2103.921
223.767	25.506	2060.166	2097.656
224.782	25.509	2058.231	2095.463
225.796	25.569	2057.583	2095.257
226.811	25.701	2056.583	2095.538
227.826	25.762	2054.273	2093.639
228.840	25.708	2052.259	2090.716
229.855	25.542	2051.196	2087.441
230.869	25.669	2048.991	2086.428
231.884	25.396	2048.358	2082.350
232.899	25.461	2046.977	2081.460
233.913	25.640	2045.783	2082.069
234.928	25.592	2045.407	2080.885
235.942	25.617	2043.415	2078.902
236.957	25.327	2041.729	2073.565
237.972	25.455	2040.199	2073.250
238.986	25.312	2039.012	2070.143
240.001	25.243	2036.982	2067.028
241.015	25.361	2035.317	2066.456
242.030	25.677	2036.529	2071.098
243.045	27.112	2039.136	2090.107
244.059	27.667	2036.925	2093.998
245.074	26.339	2031.462	2072.841
246.088	25.736	2027.101	2061.198
247.103	25.767	2025.653	2059.837
248.117	25.825	2024.042	2058.627
249.132	25.504	2022.706	2053.328
250.147	25.663	2020.403	2052.576
251.161	25.502	2018.773	2048.825
252.176	25.596	2017.993	2048.860
253.190	25.596	2014.959	2045.540
254.205	25.489	2012.945	2042.032
255.220	25.592	2011.244	2041.237
256.234	25.532	2010.250	2039.299
257.249	25.460	2009.675	2037.653
258.263	25.560	2008.849	2037.702
259.278	25.676	2007.469	2037.386
260.293	25.514	2007.276	2035.099
261.307	25.557	2004.346	2032.372
262.322	25.464	2002.706	2029.408
263.336	25.354	2000.674	2025.866
264.351	25.320	1998.809	2023.348
265.366	25.347	1997.756	2022.338
266.380	25.344	1997.438	2021.744
267.395	25.127	1995.831	2017.422
268.409	25.308	1993.460	2016.824
269.424	25.492	1991.705	2016.888
270.439	25.489	1991.280	2016.177
271.453	25.944	1991.543	2021.335
272.468	27.172	1994.006	2037.440
273.482	27.357	1990.462	2035.653
274.497	25.934	1984.222	2013.064
275.512	25.425	1980.489	2003.341
276.526	25.311	1979.165	2000.477
277.541	25.344	1976.685	1998.109
278.555	25.246	1975.109	1995.176
279.570	25.116	1973.837	1992.204
280.585	25.240	1972.232	1991.729
281.599	25.285	1970.865	1990.604
282.614	25.366	1970.537	1990.947
283.628	25.667	1969.443	1992.949
284.643	25.742	1968.973	1993.066
285.657	25.556	1967.569	1989.339
286.672	25.567	1966.054	1987.695
287.687	25.464	1963.754	1983.988
288.701	25.283	1962.373	1980.351
289.716	25.387	1960.529	1979.400
290.730	25.409	1959.074	1977.943
291.745	25.504	1958.153	1977.825
292.760	25.709	1957.410	1979.101
293.774	25.615	1956.301	1976.702
294.789	25.549	1955.604	1975.037
295.803	25.673	1952.751	1973.287
296.818	25.757	1951.718	1972.930
297.833	25.507	1951.546	1969.772
298.847	25.538	1949.633	1967.948
299.862	25.533	1948.255	1966.263
300.876	25.837	1947.379	1968.485
301.891	27.305	1950.666	1987.701
302.906	27.659	1949.355	1990.013
303.920	26.190	1943.253	1967.468
304.935	25.706	1940.340	1958.997
305.949	25.759	1938.685	1957.663
306.964	25.907	1937.052	1957.398
307.979	25.848	1934.002	1953.446
308.993	25.433	1932.878	1947.556
310.008	25.521	1930.927	1946.312
311.022	25.683	1930.942	1947.858
312.037	25.515	1928.988	1943.824
313.052	25.407	1927.614	1941.038
314.066	25.567	1924.415	1939.315
315.081	25.540	1923.361	1937.723
316.095	25.579	1923.473	1938.033
317.110	25.531	1921.760	1935.556
318.125	25.518	1919.797	1933.206
319.139	25.381	1917.962	1929.649
320.154	25.381	1916.990	1928.438
321.168	25.357	1915.360	1926.305
322.183	25.415	1914.025	1925.364
323.197	25.622	1913.497	1926.822
324.212	25.768	1911.282	1925.931
325.227	25.477	1909.325	1920.611
326.241	25.393	1907.390	1917.529
327.256	25.516	1906.156	1917.382
328.270	25.361	1906.033	1915.364
329.285	25.367	1905.677	1914.838
330.300	25.634	1906.603	1918.406
331.314	27.030	1908.740	1935.289
332.329	27.424	1905.222	1935.705
333.343	25.834	1900.183	1913.394
334.358	25.287	1897.321	1904.450
335.373	25.391	1895.520	1903.527
336.387	25.478	1893.610	1902.303
337.402	25.408	1892.095	1899.809
338.416	25.415	1890.625	1898.179
339.431	25.440	1889.293	1896.877
340.446	25.580	1887.469	1896.301
341.460	25.510	1886.083	1893.946
342.475	25.660	1885.446	1894.671
343.489	25.492	1882.839	1890.043
344.504	25.310	1882.071	1887.123
345.519	25.411	1880.606	1886.494
346.533	25.484	1878.802	1885.235
347.548	25.538	1877.438	1884.204
348.562	25.468	1876.095	1881.892
349.577	25.445	1875.957	1881.291
350.592	25.720	1875.085	1883.079
351.606	25.880	1873.843	1883.288
352.621	25.760	1871.523	1879.474
353.635	25.750	1870.419	1878.031
354.650	25.399	1868.717	1872.419
355.665	25.469	1866.657	1870.870
356.679	25.525	1865.705	1870.273
357.694	25.633	1864.753	1870.225
358.708	25.532	1863.460	1867.647
359.723	25.962	1865.145	1873.604
360.738	27.367	1866.383	1889.298
361.752	27.323	1863.868	1886.070
362.767	26.182	1858.682	1868.737
363.781	25.646	1856.224	1860.473
364.796	25.499	1854.722	1857.210
365.810	25.592	1853.108	1856.342
366.825	25.474	1852.161	1853.948
367.840	25.437	1850.686	1851.865
368.854	25.564	1848.892	1851.165
369.869	25.535	1847.424	1849.168
370.883	25.414	1846.488	1846.761
371.898	25.436	1844.981	1845.262
372.913	25.452	1843.262	1843.482
373.927	25.524	1841.572	1842.317
374.942	25.515	1841.069	1841.505
375.956	25.577	1839.855	1840.705
376.971	25.514	1837.493	1837.472
377.986	25.599	1835.936	1836.566
379.000	25.717	1835.308	1836.926
380.015	25.653	1833.785	1834.530
381.029	25.551	1831.835	1831.316
382.044	25.563	1830.838	1830.225
383.059	25.603	1828.835	1828.413
384.073	25.522	1827.590	1826.117
385.088	25.487	1826.815	1824.769
386.102	25.484	1825.837	1823.546
387.117	25.533	1823.785	1821.776
388.132	25.532	1823.348	1821.108
389.146	25.750	1824.871	1824.636
390.161	27.056	1826.055	1838.899
391.175	27.454	1821.508	1838.138
392.190	26.073	1815.919	1818.307
393.205	25.611	1814.643	1812.128
394.219	25.564	1812.751	1809.544
395.234	25.551	1811.178	1807.633
396.248	25.386	1809.193	1803.773
397.263	25.292	1807.059	1800.479
398.278	25.350	1804.428	1798.221
399.292	25.178	1804.054	1795.908
400.307	25.364	1803.821	1797.326
401.321	25.424	1802.147	1796.049
402.336	25.471	1801.417	1795.577
403.350	25.474	1799.454	1793.434
404.365	25.610	1797.938	1793.073
405.380	25.601	1796.039	1790.881
406.394	25.357	1795.162	1787.347
407.409	25.404	1793.784	1786.233
408.423	25.403	1793.449	1785.678
409.438	25.454	1792.390	1784.917
410.453	25.710	1790.770	1785.637
411.467	25.543	1789.344	1782.342
412.482	25.470	1787.799	1779.860
413.496	25.515	1787.178	1779.476
414.511	25.489	1785.375	1777.210
415.526	25.626	1783.356	1776.353
416.540	25.727	1781.803	1775.595
417.555	25.475	1781.438	1772.520
418.569	25.603	1781.088	1773.226
419.584	25.602	1780.096	1772.018
420.599	25.519	1779.826	1770.709
421.613	25.507	1777.969	1768.535
422.628	25.435	1775.886	1765.536
423.642	25.444	1774.235	1763.771
424.657	25.341	1772.329	1760.650
425.672	25.220	1771.494	1758.424
426.686	25.410	1770.227	1758.828
427.701	25.502	1769.334	1758.633
428.715	25.638	1768.148	1758.576
429.730	25.741	1767.442	1758.673
430.745	25.791	1765.993	1757.514
431.759	25.592	1764.909	1754.272
432.774	25.544	1763.401	1752.093
433.788	24.864	1760.994	1742.843
434.803	24.425	1759.523	1736.885
435.818	24.442	1758.729	1736.058
436.832	24.527	1758.364	1736.317
437.847	23.893	1751.739	1723.394
438.861	15.029	1725.984	1612.385
439.876	3.306	1703.297	1478.415
440.890	0.529	1698.124	1447.016
441.905	0.172	1697.086	1442.514
442.920	0.310	1694.971	1441.873
443.934	0.303	1694.115	1440.909
444.949	0.285	1693.035	1439.645
445.963	0.268	1692.248	1438.644
446.978	0.238	1692.324	1438.242
447.993	0.308	1690.621	1437.299
449.007	0.232	1687.817	1434.016
450.022	0.162	1686.482	1432.040
451.036	0.287	1685.345	1432.091
452.051	1.471	1690.999	1448.073
453.066	11.982	1715.818	1570.881
454.080	22.631	1731.954	1688.527
455.095	25.334	1737.724	1720.012
456.109	26.660	1740.812	1735.646
457.124	27.275	1739.998	1740.550
458.139	27.119	1738.963	1737.804
459.153	27.131	1737.172	1735.915
460.168	27.083	1735.511	1733.596
461.182	26.909	1733.512	1729.719
462.197	26.845	1732.068	1727.461
463.212	26.752	1729.631	1723.932
464.226	26.835	1728.470	1723.362
465.241	27.080	1727.887	1724.919
466.255	27.200	1727.219	1725.182
467.270	27.271	1726.003	1724.440
468.285	27.047	1724.491	1720.595
469.299	27.034	1722.925	1718.700
470.314	27.176	1721.328	1718.247
471.328	27.060	1720.780	1716.393
472.343	27.163	1719.437	1715.831
473.358	27.185	1718.073	1714.473
474.372	27.159	1717.067	1713.012
475.387	27.062	1715.505	1710.337
476.401	26.824	1713.620	1705.998
477.416	26.780	1712.127	1703.893
478.430	26.911	1711.332	1704.138
479.445	26.843	1710.001	1701.962
480.460	26.818	1707.707	1699.246
481.474	26.887	1707.070	1699.056
482.489	27.116	1707.047	1700.986
483.503	27.271	1704.911	1700.109
484.518	27.317	1703.315	1698.747
485.533	27.334	1702.377	1697.764
486.547	27.271	1700.786	1695.387
487.562	27.518	1700.436	1697.149
488.576	27.635	1699.374	1696.980
489.591	27.526	1697.947	1694.326
490.606	27.422	1696.256	1691.470
491.620	27.513	1694.476	1690.338
492.635	27.719	1692.882	1690.468
493.649	27.719	1692.002	1689.387
494.664	27.271	1689.447	1682.465
495.679	26.787	1687.941	1676.271
496.693	26.949	1687.408	1677.040
497.708	27.335	1686.441	1679.464
498.722	27.653	1685.872	1681.645
499.737	27.775	1685.219	1681.923
500.752	27.552	1683.392	1677.831
501.766	27.328	1681.815	1673.990
502.781	27.453	1680.147	1673.285
503.795	27.545	1678.378	1672.176
504.810	27.448	1677.659	1670.362
505.825	27.721	1677.198	1672.218
506.839	27.641	1676.044	1670.132
507.854	27.463	1674.204	1666.457
508.868	27.500	1672.430	1664.830
509.883	27.331	1672.015	1662.666
510.898	27.470	1671.012	1662.748
511.912	27.502	1668.530	1660.373
512.927	27.190	1666.232	1655.030
513.941	27.320	1664.985	1654.784
514.956	27.432	1664.311	1654.939
515.971	27.704	1663.497	1656.419
516.985	27.741	1661.947	1655.008
518.000	27.602	1662.144	1653.740
519.014	27.813	1662.130	1655.457
520.029	27.708	1660.133	1652.309
521.043	27.472	1658.544	1648.387
522.058	27.602	1655.805	1646.646
523.073	27.645	1655.382	1646.416
524.087	27.964	1655.516	1649.253
525.102	27.945	1653.885	1647.251
526.116	27.539	1652.165	1641.667
527.131	27.491	1650.570	1639.453
528.146	27.842	1650.709	1642.568
529.160	28.021	1649.238	1642.526
530.175	28.058	1647.870	1641.300
531.189	28.193	1646.970	1641.426
532.204	28.158	1646.318	1640.267
533.219	28.005	1643.335	1635.716
534.233	27.444	1642.395	1629.545
535.248	27.460	1641.329	1628.435
536.262	27.952	1640.899	1632.234
537.277	28.088	1640.266	1632.628
538.292	27.975	1638.056	1629.223
539.306	28.017	1636.176	1627.531
540.321	27.932	1634.515	1624.928
541.335	27.603	1633.283	1620.564
542.350	28.019	1632.670	1623.481
543.365	28.257	1631.275	1624.015
544.379	28.263	1631.185	1623.789
545.394	28.475	1629.000	1623.309
546.408	27.971	1626.347	1615.988
547.423	27.419	1625.320	1609.870
548.438	27.475	1623.595	1608.467
549.452	27.803	1622.332	1609.929
550.467	27.594	1622.448	1607.999
551.481	27.819	1621.668	1609.028
552.496	28.063	1621.330	1610.663
553.511	28.406	1620.497	1612.674
554.525	28.344	1618.953	1610.397
555.540	28.327	1618.722	1609.821
556.554	28.557	1616.872	1609.822
557.569	28.388	1614.927	1606.208
558.583	28.081	1613.947	1602.335
559.598	28.095	1612.475	1600.807
560.613	28.140	1611.802	1600.337
561.627	28.302	1610.072	1599.854
562.642	28.238	1609.074	1598.112
563.656	28.344	1608.673	1598.447
564.671	28.428	1606.600	1596.929
565.686	28.433	1605.424	1595.617
566.700	28.214	1604.323	1592.414
567.715	28.117	1602.497	1589.568
568.729	28.302	1600.631	1589.139
569.744	28.160	1599.553	1586.643
570.759	28.412	1597.770	1586.879
571.773	28.424	1597.408	1586.429
572.788	28.516	1596.807	1586.440
573.802	28.561	1594.747	1584.593
574.817	28.536	1593.629	1583.076
575.832	28.510	1592.980	1582.017
576.846	28.507	1591.274	1580.113
577.861	28.389	1589.776	1577.417
578.875	28.360	1589.910	1577.103
579.890	28.671	1589.040	1578.744
580.905	28.709	1587.334	1577.183
581.919	28.894	1587.068	1578.328
582.934	28.997	1586.654	1578.616
583.948	29.076	1584.924	1577.385
584.963	28.754	1583.341	1572.855
585.978	28.267	1581.332	1566.480
586.992	28.205	1580.445	1564.887
588.007	28.938	1579.718	1570.272
589.021	28.289	1577.679	1562.492
590.036	27.665	1575.828	1555.123
591.051	28.116	1575.647	1558.621
592.065	28.687	1574.754	1562.436
593.080	28.902	1573.286	1562.635
594.094	28.938	1572.038	1561.511
595.109	28.441	1568.913	1553.987
596.123	27.946	1567.446	1548.135
597.138	28.269	1567.624	1550.879
598.153	28.600	1566.042	1551.939
599.167	28.227	1565.233	1547.779
600.182	28.376	1564.011	1547.652
601.196	28.603	1562.845	1548.242
602.211	28.637	1562.250	1547.756
603.226	28.833	1561.192	1548.180
604.240	29.080	1559.180	1548.089
605.255	29.193	1558.322	1548.006
606.269	29.066	1557.701	1546.129
607.284	28.947	1556.371	1543.621
608.299	29.008	1555.238	1542.830
609.313	28.800	1553.467	1539.133
610.328	28.711	1552.953	1537.694
611.342	29.001	1550.846	1537.861
612.357	29.025	1550.875	1537.904
613.372	28.982	1549.571	1536.070
614.386	28.829	1548.207	1533.252
615.401	28.973	1547.828	1533.893
616.415	29.051	1546.543	1533.092
617.430	28.890	1546.082	1531.104
618.445	28.969	1545.356	1530.861
619.459	28.899	1543.825	1528.578
620.474	28.973	1541.742	1526.949
621.488	28.750	1539.764	1522.948
622.503	28.539	1539.241	1520.493
623.518	28.868	1539.435	1523.246
624.532	29.194	1538.382	1524.734
625.547	29.139	1536.782	1522.505
626.561	29.359	1536.239	1523.611
627.576	29.425	1535.541	1523.284
628.591	29.284	1533.422	1519.833
629.605	29.206	1532.334	1517.930
630.620	29.184	1531.415	1516.651
631.634	28.984	1529.635	1513.054
632.649	29.051	1529.257	1513.058
633.663	29.409	1528.193	1514.775
634.678	29.530	1527.097	1514.504
635.693	29.529	1526.126	1513.351
636.707	29.506	1524.581	1511.448
637.722	29.502	1523.309	1509.975
638.736	29.493	1521.894	1508.317
639.751	29.405	1521.061	1506.590
640.766	29.476	1519.542	1505.483
641.780	29.368	1518.229	1503.122
642.795	29.272	1517.332	1501.264
643.809	29.365	1517.168	1501.684
644.824	29.261	1516.316	1499.809
645.839	29.470	1514.489	1499.530
646.853	29.454	1512.963	1497.713
647.868	29.313	1511.643	1495.080
648.882	29.125	1510.174	1491.916
649.897	28.997	1508.566	1489.103
650.912	29.035	1507.190	1487.878
651.926	29.269	1506.781	1489.196
652.941	29.174	1504.937	1486.425
653.955	28.596	1502.945	1479.602
654.970	28.253	1499.882	1473.633
655.985	28.262	1498.275	1471.946
656.999	28.324	1496.955	1470.974
658.014	28.517	1496.965	1472.364
659.028	28.961	1496.805	1475.617
660.043	29.292	1496.767	1478.072
661.058	29.529	1495.763	1478.807
662.072	29.434	1494.751	1476.866
663.087	29.183	1492.975	1472.914
664.101	29.033	1491.525	1470.109
665.116	29.235	1490.891	1470.923
666.131	29.350	1490.528	1471.317
667.145	29.311	1489.917	1470.223
668.160	29.609	1487.967	1470.511
669.174	29.793	1486.525	1470.381
670.189	29.598	1485.937	1468.062
671.204	29.460	1485.560	1466.411
672.218	29.526	1484.117	1465.339
673.233	29.740	1483.162	1465.927
674.247	29.833	1481.833	1465.177
675.262	29.957	1481.400	1465.563
676.276	29.943	1480.566	1464.450
677.291	29.637	1479.102	1460.397
678.306	29.367	1477.697	1456.687
679.320	29.330	1476.502	1455.045
680.335	29.494	1475.731	1455.405
681.349	29.586	1475.148	1455.392
682.364	29.716	1473.320	1454.436
683.379	29.620	1471.758	1451.962
684.393	29.647	1471.018	1451.275
685.408	29.655	1469.805	1449.965
686.422	29.543	1469.066	1448.183
687.437	29.507	1468.903	1447.567
688.452	29.568	1467.968	1446.949
689.466	29.782	1466.042	1446.563
690.481	29.701	1464.725	1444.450
691.495	29.816	1464.122	1444.583
692.510	29.531	1462.916	1440.988
693.525	29.345	1460.159	1436.647
694.539	29.516	1459.702	1437.360
695.554	29.744	1460.127	1439.389
696.568	29.915	1458.976	1439.422
697.583	29.812	1458.231	1437.706
698.598	29.658	1456.791	1434.919
699.612	29.921	1455.365	1435.389
700.627	29.811	1454.626	1433.633
701.641	29.781	1453.437	1432.058
702.656	29.865	1452.727	1431.841
703.671	29.960	1452.274	1431.954
704.685	30.076	1451.424	1431.848
705.700	29.846	1449.513	1428.009
706.714	29.606	1447.694	1424.182
707.729	29.471	1446.031	1421.338
708.744	29.602	1444.899	1421.062
709.758	29.663	1443.823	1420.311
710.773	29.016	1441.787	1413.139
711.787	28.892	1440.834	1411.080
712.802	29.314	1439.669	1413.027
713.816	29.620	1439.406	1414.955
714.831	29.688	1439.195	1415.102
715.846	29.881	1437.791	1415.036
716.860	30.062	1436.085	1414.577
717.875	29.756	1435.377	1411.361
718.889	29.640	1433.804	1408.757
719.904	29.620	1432.973	1407.615
720.919	29.741	1432.358	1407.772
721.933	29.687	1431.127	1405.978
722.948	29.725	1430.983	1405.959
723.962	29.910	1429.301	1405.549
724.977	29.898	1427.763	1403.776
725.992	29.983	1427.308	1403.813
727.006	29.926	1425.699	1401.629
728.021	30.034	1424.722	1401.322
729.035	30.068	1424.093	1400.795
730.050	30.025	1423.121	1399.340
731.065	29.953	1421.755	1397.286
732.079	30.164	1420.001	1396.991
733.094	30.030	1419.899	1395.715
734.108	29.921	1417.897	1392.749
735.123	30.018	1415.782	1391.237
736.138	29.973	1415.338	1390.296
737.152	29.953	1414.453	1389.112
738.167	30.131	1413.415	1389.264
739.181	30.188	1412.701	1388.825
740.196	30.264	1411.411	1387.961
741.211	30.048	1411.148	1385.917
742.225	30.016	1410.214	1384.593
743.240	30.124	1408.330	1383.387
744.254	30.060	1406.535	1380.976
745.269	30.098	1406.005	1380.575
746.284	30.072	1404.996	1379.227
747.298	30.051	1403.931	1377.855
748.313	30.062	1402.499	1376.375
749.327	29.833	1402.331	1374.333
750.342	29.560	1401.391	1371.207
751.356	29.415	1399.946	1368.546
752.371	29.424	1398.535	1367.073
753.386	29.752	1398.140	1368.963
754.400	30.022	1397.560	1370.241
755.415	30.295	1396.144	1370.715
756.429	30.280	1394.681	1369.002
757.444	30.183	1393.809	1367.263
758.459	30.358	1393.094	1367.694
759.473	30.256	1391.137	1364.855
760.488	30.092	1390.101	1362.468
761.502	30.053	1389.064	1361.001
762.517	30.113	1387.964	1360.203
763.532	30.220	1386.563	1359.454
764.546	30.070	1385.160	1356.814
765.561	29.388	1384.216	1350.706
766.575	28.830	1382.071	1344.351
767.590	28.755	1381.108	1342.699
768.605	29.528	1380.647	1347.763
769.619	29.825	1380.542	1349.684
770.634	29.972	1379.031	1349.122
771.648	30.058	1377.962	1348.543
772.663	30.075	1377.451	1348.003
773.678	30.150	1376.801	1347.753
774.692	30.411	1375.925	1348.644
775.707	30.320	1375.643	1347.536
776.721	30.188	1374.983	1345.772
777.736	30.129	1373.249	1343.477
778.751	30.286	1372.105	1343.344
779.765	30.130	1371.740	1341.688
780.780	30.364	1370.169	1341.693
781.794	30.324	1369.893	1340.972
782.809	29.983	1368.379	1336.858
783.824	29.796	1367.312	1334.299
784.838	29.773	1366.109	1332.798
785.853	29.661	1364.788	1330.540
786.867	29.986	1364.406	1332.358
787.882	30.227	1363.527	1333.082
788.897	30.120	1362.887	1331.525
789.911	29.826	1362.276	1328.643
790.926	29.984	1360.661	1328.048
791.940	29.923	1359.252	1326.075
792.955	30.066	1357.798	1325.528
793.969	30.040	1356.954	1324.360
794.984	30.059	1356.052	1323.456
795.999	30.157	1354.596	1322.581
797.013	30.253	1353.521	1322.057
798.028	30.316	1351.708	1320.578
799.042	30.268	1351.494	1319.868
800.057	30.236	1350.828	1318.829
801.072	30.271	1349.163	1317.298
802.086	30.199	1348.113	1315.600
803.101	30.263	1346.997	1314.814
804.115	30.303	1345.830	1313.798
805.130	30.395	1344.871	1313.357
806.145	30.281	1343.859	1311.407
807.159	30.096	1342.686	1308.787
808.174	29.938	1341.417	1306.279
809.188	30.074	1340.329	1306.021
810.203	29.925	1339.093	1303.609
811.218	29.862	1337.110	1301.076
812.232	29.385	1334.961	1295.461
813.247	29.187	1333.424	1292.421
814.261	29.595	1334.517	1296.204
815.276	30.132	1334.086	1299.418
816.291	30.059	1332.627	1297.325
817.305	30.049	1331.570	1296.072
818.320	29.997	1330.339	1294.355
819.334	30.112	1329.454	1294.140
820.349	30.258	1328.558	1294.141
821.364	30.031	1327.474	1291.336
822.378	30.285	1325.752	1291.287
823.393	30.320	1323.836	1289.512
824.407	30.197	1322.680	1287.371
825.422	30.223	1322.339	1287.069
826.437	30.214	1321.169	1285.711
827.451	30.140	1318.802	1282.738
828.466	29.865	1317.623	1279.530
829.480	29.859	1316.618	1278.359
830.495	29.956	1314.951	1277.259
831.509	29.880	1313.954	1275.607
832.524	30.007	1313.333	1275.736
833.539	30.043	1312.657	1275.175
834.553	30.129	1311.122	1274.122
835.568	30.014	1310.196	1272.278
836.582	30.084	1308.900	1271.349
837.597	30.192	1307.569	1270.650
838.612	30.119	1305.951	1268.422
839.626	29.949	1304.858	1266.043
840.641	30.091	1304.035	1266.066
841.655	29.726	1303.109	1262.512
842.670	29.255	1300.766	1256.862
843.685	28.648	1299.558	1251.386
844.699	29.277	1299.195	1255.196
845.714	30.017	1298.197	1259.140
846.728	29.908	1297.648	1257.708
847.743	29.978	1296.503	1256.928
848.758	29.874	1295.886	1255.471
849.772	30.020	1295.098	1255.552
850.787	30.083	1293.452	1254.234
851.801	30.145	1291.784	1252.883
852.816	30.100	1291.430	1252.087
853.831	30.115	1289.586	1250.255
854.845	29.957	1288.078	1247.571
855.860	29.861	1286.486	1245.227
856.874	29.814	1285.034	1243.355
857.889	29.919	1284.301	1243.208
858.904	30.025	1283.058	1242.570
859.918	29.896	1280.712	1239.284
860.933	29.626	1279.283	1235.932
861.947	29.787	1278.864	1236.467
862.962	29.966	1277.955	1236.643
863.977	29.920	1276.683	1234.956
864.991	29.691	1277.039	1233.613
866.006	29.773	1276.159	1233.164
867.020	29.861	1274.469	1231.973
868.035	29.872	1273.291	1230.760
869.049	30.123	1272.725	1231.743
870.064	30.204	1271.637	1231.084
871.079	29.936	1270.399	1227.947
872.093	29.983	1270.371	1228.091
873.108	29.853	1269.521	1226.252
874.122	29.724	1267.280	1223.085
875.137	29.518	1266.095	1220.430
876.152	29.366	1265.420	1218.619
877.166	29.511	1263.860	1217.934
878.181	29.630	1262.562	1217.325
879.195	29.745	1262.122	1217.518
880.210	29.784	1261.727	1217.246
881.225	29.938	1260.585	1217.018
882.239	29.934	1259.950	1216.231
883.254	29.939	1258.729	1214.946
884.268	30.048	1257.973	1214.788
885.283	29.989	1256.658	1212.985
886.298	30.215	1254.504	1212.245
887.312	29.853	1254.694	1209.900
888.327	29.752	1253.333	1207.785
889.341	29.905	1251.945	1207.302
890.356	29.856	1250.702	1205.640
891.371	29.862	1250.516	1205.353
892.385	29.840	1249.676	1204.256
893.400	29.704	1248.648	1202.231
894.414	29.658	1247.286	1200.479
895.429	29.634	1246.428	1199.352
896.444	29.566	1244.115	1196.540
897.458	29.414	1242.311	1193.676
898.473	29.468	1242.281	1193.852
899.487	29.641	1242.181	1194.739
900.502	29.577	1241.212	1193.247
901.517	29.640	1239.655	1192.017
902.531	29.695	1238.404	1191.025
903.546	29.777	1237.698	1190.737
904.560	29.919	1237.069	1190.905
905.575	29.868	1235.821	1189.234
906.589	29.851	1234.515	1187.722
907.604	29.799	1234.209	1186.954
