DTS Sentinel unit serial number:	SN409020Multiplexer serial number:	ORYXHardware model number:	OX4-SRSoftware version number:	ORYX F/W v3.00 Oryx Data Collector v3.7.2.0data status	okinstallation	HaddamTimeLapsedifferential loss correction	single-endedforward channel	channel 3reverse channel	N/Adate	2011/06/21time	22:01:17forward acquisition time	30.00reverse acquisition time	0.00gamma	498.7831k internal	0.1760k external	0.1760temperature offset calibration	1.0074default loss term (dB/km)	0.3790temperature slope calibration	1.3530multiplexer offset coefficient	1.0000multiplexer slope coefficient	1.0000fibre end	0.00T internal ref (°C)	24.97T ext. ref 1 (°C)	19.08T ext. ref 2 (°C)	0.04length (m)	temperature (°C)	Stokes	anti-Stokes-747.200	-12.467	-0.175	0.151
-746.185	139.056	0.351	0.611
-745.171	-77.259	-0.167	0.076
-744.156	-82.286	0.103	0.044
-743.142	-85.825	-0.127	0.052
-742.127	332.347	-0.119	0.305
-741.112	-200.000	-0.029	-0.759
-740.098	-200.000	-0.010	-0.068
-739.083	13.559	-0.319	-0.327
-738.069	319.033	-0.238	0.598
-737.054	304.701	-0.241	-0.595
-736.039	-85.032	-0.571	0.235
-735.025	-169.002	-0.551	0.027
-734.010	151.271	0.203	0.366
-732.996	-33.623	0.237	-0.173
-731.981	-48.500	-0.220	-0.139
-730.966	800.000	0.052	-0.196
-729.952	-200.000	0.035	0.239
-728.937	-151.760	-0.140	-0.013
-727.923	66.134	0.063	-0.084
-726.908	492.468	-0.156	0.475
-725.894	-2.654	-0.168	-0.155
-724.879	-200.000	-0.043	0.356
-723.864	-43.932	-0.123	0.081
-722.850	-122.678	-0.463	-0.098
-721.835	27.421	0.376	-0.417
-720.821	-29.686	-0.167	-0.126
-719.806	-5.171	-0.211	-0.192
-718.791	-200.000	-0.049	-0.291
-717.777	-36.604	-0.113	-0.080
-716.762	-200.000	0.010	-0.528
-715.748	-22.845	-0.254	-0.202
-714.733	-41.521	0.127	0.086
-713.718	-200.000	0.029	-0.368
-712.704	-23.685	0.105	0.083
-711.689	-157.739	0.334	0.026
-710.675	-156.603	-0.305	0.025
-709.660	-55.133	-0.543	-0.321
-708.645	800.000	0.108	-0.417
-707.631	425.734	-0.154	-0.441
-706.616	-71.073	0.253	-0.125
-705.602	238.786	-0.167	-0.367
-704.587	-37.947	-0.573	-0.401
-703.572	230.962	-0.275	0.597
-702.558	-118.206	0.389	-0.091
-701.543	201.978	-0.141	-0.287
-700.529	-110.367	0.126	-0.034
-699.514	-165.367	0.760	0.043
-698.499	-87.140	0.176	0.070
-697.485	-92.617	0.176	0.065
-696.470	456.126	0.102	0.301
-695.456	-25.050	-0.093	0.073
-694.441	296.644	0.152	0.369
-693.426	-100.262	-0.140	0.045
-692.412	-76.644	-0.335	0.154
-691.397	-85.298	0.275	-0.113
-690.383	13.965	-0.097	-0.099
-689.368	-152.450	-0.419	-0.039
-688.354	416.902	-0.119	-0.336
-687.339	-30.762	0.202	-0.150
-686.324	-200.000	-0.006	0.331
-685.310	123.995	-0.049	0.081
-684.295	-60.061	-0.194	-0.109
-683.281	-121.672	-0.091	-0.020
-682.266	-200.000	-0.011	-0.304
-681.251	290.226	-0.074	-0.179
-680.237	172.493	-0.129	-0.245
-679.222	-5.457	-0.134	-0.121
-678.208	27.228	0.046	0.050
-677.193	80.250	0.076	-0.108
-676.178	2.429	-0.169	-0.161
-675.164	27.685	-0.258	-0.286
-674.149	-119.259	0.527	-0.120
-673.135	-72.858	0.198	-0.096
-672.120	228.403	0.118	-0.254
-671.105	144.755	0.059	-0.104
-670.091	-148.779	-0.577	-0.061
-669.076	-124.459	0.281	0.057
-668.062	36.499	-0.189	-0.220
-667.047	-17.436	-0.221	-0.183
-666.032	-60.534	0.302	-0.168
-665.018	-122.541	0.063	-0.013
-664.003	-11.157	0.355	-0.308
-662.989	800.000	-0.109	0.465
-661.974	67.613	-0.125	-0.168
-660.959	259.887	-0.081	-0.184
-659.945	7.024	0.254	0.249
-658.930	-89.014	0.165	0.064
-657.916	-200.000	-0.029	-0.263
-656.901	186.555	-0.053	0.105
-655.886	-100.889	0.305	0.098
-654.872	-89.201	-0.035	0.014
-653.857	-117.054	0.282	-0.067
-652.843	4.636	-0.200	0.193
-651.828	-64.248	0.251	-0.134
-650.814	-179.428	-0.283	-0.008
-649.799	54.631	-0.515	-0.655
-648.784	399.711	0.142	-0.394
-647.770	-91.270	0.555	-0.208
-646.755	704.635	0.046	-0.160
-645.741	-84.226	-0.423	-0.175
-644.726	-65.998	-0.308	-0.161
-643.711	-44.467	0.376	-0.247
-642.697	-77.407	0.520	0.237
-641.682	-200.000	-0.011	0.311
-640.668	-44.548	-0.029	0.019
-639.653	480.664	-0.074	-0.221
-638.638	-172.798	-0.277	-0.011
-637.624	273.164	-0.077	0.180
-636.609	-200.000	-0.031	0.528
-635.595	-49.769	-0.154	-0.096
-634.580	-15.470	-0.294	-0.247
-633.565	-91.307	-0.499	0.187
-632.551	-7.536	0.481	0.428
-631.536	26.760	0.350	0.386
-630.522	-46.749	0.453	0.291
-629.507	-200.000	-0.069	0.559
-628.492	196.170	-0.169	0.340
-627.478	-68.609	-0.346	-0.175
-626.463	-120.925	0.543	0.119
-625.449	65.334	-0.300	0.399
-624.434	8.599	0.134	0.132
-623.419	-33.567	-0.217	-0.157
-622.405	-200.000	0.086	-0.000
-621.390	16.185	0.133	-0.137
-620.376	-71.694	0.716	0.350
-619.361	-61.461	0.419	-0.231
-618.346	-117.646	-0.395	-0.093
-617.332	-96.237	-0.540	-0.187
-616.317	44.241	0.074	-0.089
-615.303	-200.000	0.068	-0.459
-614.288	19.231	0.552	0.583
-613.273	-27.007	0.545	0.418
-612.259	209.101	0.152	0.314
-611.244	-127.473	0.239	-0.045
-610.230	-139.349	-0.423	0.059
-609.215	-63.656	-0.196	-0.105
-608.201	-161.849	0.128	-0.008
-607.186	210.038	-0.132	0.274
-606.171	99.613	-0.090	0.138
-605.157	-91.887	0.420	-0.156
-604.142	-168.599	0.154	0.008
-603.128	14.864	-0.283	-0.291
-602.113	-137.905	-0.120	0.017
-601.098	248.469	0.064	-0.142
-600.084	-118.094	-0.102	0.024
-599.069	-55.480	0.185	0.109
-598.055	-153.166	-0.223	-0.020
-597.040	-1.106	-0.174	0.162
-596.025	320.969	0.117	-0.293
-595.011	-104.902	-0.193	0.058
-593.996	34.853	-0.048	-0.056
-592.982	81.689	-0.466	-0.664
-591.967	-45.769	-0.195	-0.126
-590.952	800.000	-0.182	0.675
-589.938	17.191	0.204	0.213
-588.923	5.226	-0.254	0.246
-587.909	180.516	-0.079	0.152
-586.894	463.540	-0.040	0.119
-585.879	-125.021	0.063	-0.013
-584.865	441.241	0.139	-0.403
-583.850	44.166	-0.201	0.243
-582.836	-149.366	-0.216	0.022
-581.821	74.283	-0.121	-0.167
-580.806	-47.120	0.215	0.138
-579.792	-200.000	0.051	0.467
-578.777	-194.442	-0.376	0.004
-577.763	-200.000	-0.042	-0.376
-576.748	-49.445	0.157	-0.098
-575.733	-166.798	-0.238	0.013
-574.719	616.277	0.151	-0.498
-573.704	22.271	0.174	-0.187
-572.690	35.307	0.414	-0.477
-571.675	34.045	-0.302	-0.345
-570.661	-166.988	-0.566	-0.030
-569.646	-200.000	-0.047	0.402
-568.631	-57.793	0.078	0.044
-567.617	-163.160	0.465	-0.029
-566.602	364.516	0.056	-0.150
-565.588	-69.194	-0.058	-0.029
-564.573	-76.311	0.153	0.070
-563.558	-129.738	0.431	0.077
-562.544	-83.897	-0.393	-0.163
-561.529	116.490	0.186	0.300
-560.515	-148.953	0.184	-0.019
-559.500	800.000	0.062	0.306
-558.485	6.876	0.130	-0.127
-557.471	-50.966	-0.303	-0.186
-556.456	-106.145	-0.483	-0.141
-555.442	-98.905	-0.186	-0.062
-554.427	-135.707	0.526	-0.081
-553.412	8.580	0.091	0.090
-552.398	800.000	0.177	-0.686
-551.383	-200.000	-0.007	-0.224
-550.369	122.175	-0.138	0.226
-549.354	-200.000	-0.031	0.181
-548.339	-137.130	0.339	-0.050
-547.325	-61.899	-0.174	-0.095
-546.310	-81.739	-0.280	0.120
-545.296	-129.413	-0.322	-0.058
-544.281	-103.296	0.128	-0.039
-543.266	-99.895	-0.275	-0.089
-542.252	-200.000	0.023	-0.318
-541.237	4.743	0.148	-0.142
-540.223	176.987	-0.087	-0.167
-539.208	-150.562	-0.143	0.014
-538.193	-60.580	-0.200	-0.111
-537.179	225.991	0.215	-0.458
-536.164	197.181	-0.229	0.460
-535.150	-98.943	0.083	0.028
-534.135	-125.956	0.663	-0.130
-533.121	-15.937	-0.236	-0.197
-532.106	-200.000	-0.024	0.383
-531.091	33.650	0.084	0.095
-530.077	212.587	-0.077	0.160
-529.062	-143.829	-0.455	0.056
-528.048	-133.132	-0.404	-0.066
-527.033	-137.355	0.202	0.030
-526.018	242.779	0.273	0.601
-525.004	-200.000	-0.026	0.165
-523.989	-109.808	-0.330	0.090
-522.975	-34.261	0.373	-0.268
-521.960	-73.550	0.265	-0.126
-520.945	131.995	0.020	-0.035
-519.931	-150.133	-0.329	0.033
-518.916	8.868	-0.264	0.260
-517.902	-139.103	0.291	-0.041
-516.887	-57.645	-0.197	-0.113
-515.872	645.381	0.073	0.247
-514.858	-152.929	0.353	0.032
-513.843	-154.380	0.354	-0.031
-512.829	63.025	0.129	-0.169
-511.814	-23.943	-0.361	0.283
-510.799	155.341	-0.071	0.129
-509.785	-129.400	-0.138	0.025
-508.770	-200.000	-0.027	0.591
-507.756	77.619	0.121	-0.169
-506.741	672.875	-0.078	0.267
-505.726	-184.257	0.277	-0.006
-504.712	-4.115	0.183	-0.166
-503.697	387.480	-0.168	0.456
-502.683	-89.041	0.330	-0.127
-501.668	-41.713	0.297	-0.199
-500.653	800.000	0.160	-0.589
-499.639	-33.233	-0.260	-0.188
-498.624	-153.233	-0.076	-0.007
-497.610	-13.556	-0.330	0.280
-496.595	-200.000	0.020	0.187
-495.581	-151.801	-0.435	-0.041
-494.566	87.489	-0.286	-0.416
-493.551	165.691	-0.259	0.481
-492.537	-200.000	-0.006	-0.122
-491.522	323.598	0.046	-0.116
-490.508	342.936	0.095	-0.243
-489.493	-45.978	-0.427	-0.275
-488.478	-95.012	-0.591	-0.208
-487.464	-102.525	-0.119	0.037
-486.449	11.063	0.325	0.325
-485.435	-57.548	0.258	-0.147
-484.420	800.000	0.041	0.226
-483.405	-138.896	0.132	0.019
-482.391	-200.000	0.039	-0.246
-481.376	-42.809	-0.093	-0.062
-480.362	14.408	-0.373	-0.380
-479.347	-40.899	0.098	-0.066
-478.332	56.021	-0.322	-0.409
-477.318	-200.000	0.024	0.326
-476.303	32.978	-0.070	-0.080
-475.289	-174.921	0.445	0.016
-474.274	135.797	-0.139	-0.238
-473.259	-107.179	0.457	0.131
-472.245	-45.014	0.494	0.321
-471.230	-128.214	0.649	0.120
-470.216	410.416	-0.107	-0.297
-469.201	337.697	-0.044	-0.112
-468.186	-96.615	0.181	-0.062
-467.172	-49.395	-0.096	0.060
-466.157	547.657	-0.073	0.231
-465.143	73.724	-0.253	0.347
-464.128	-68.965	-0.223	-0.112
-463.113	109.805	0.147	0.231
-462.099	-61.062	0.190	-0.105
-461.084	11.407	0.416	-0.417
-460.070	0.684	-0.138	0.129
-459.055	89.763	-0.149	-0.218
-458.040	56.928	0.128	0.163
-457.026	800.000	0.104	0.434
-456.011	124.316	-0.151	-0.248
-454.997	-200.000	-0.028	-0.742
-453.982	-200.000	0.004	-0.232
-452.968	-110.535	0.197	0.053
-451.953	37.357	-0.206	0.239
-450.938	139.039	-0.152	0.262
-449.924	-111.859	-0.427	-0.112
-448.909	97.846	-0.176	-0.265
-447.895	21.458	0.167	0.177
-446.880	676.356	0.068	0.232
-445.865	171.342	-0.119	0.223
-444.851	-29.498	-0.229	-0.171
-443.836	92.323	0.187	0.276
-442.822	-147.996	0.326	-0.035
-441.807	-78.359	0.324	-0.144
-440.792	193.414	0.219	-0.434
-439.778	-163.230	0.203	0.013
-438.763	-28.080	0.125	0.095
-437.749	-106.320	-0.194	0.056
-436.734	-200.000	0.040	0.343
-435.719	800.000	0.128	0.477
-434.705	6.577	-0.358	-0.347
-433.690	-200.000	-0.013	0.350
-432.676	6.494	0.034	0.033
-431.661	-132.825	0.177	0.029
-430.646	800.000	-0.035	0.145
-429.632	499.690	0.097	-0.294
-428.617	425.273	-0.145	0.410
-427.603	-200.000	0.041	-0.321
-426.588	-1.717	0.320	-0.294
-425.573	48.881	0.356	-0.436
-424.559	-143.137	0.316	-0.039
-423.544	-3.337	0.185	-0.168
-422.530	-72.936	0.261	-0.125
-421.515	316.715	-0.298	-0.737
-420.500	88.743	-0.182	-0.265
-419.486	-44.862	-0.252	-0.164
-418.471	-200.000	0.024	-0.700
-417.457	-78.376	-0.261	-0.116
-416.442	-124.108	-0.110	0.022
-415.428	-70.582	-0.264	-0.130
-414.413	-51.239	-0.257	-0.157
-413.398	800.000	0.099	-0.384
-412.384	24.351	-0.200	0.216
-411.369	-142.926	-0.384	0.048
-410.355	116.652	-0.109	0.175
-409.340	-116.542	0.555	0.132
-408.325	-22.150	-0.202	-0.159
-407.311	54.876	0.176	0.222
-406.296	-146.699	0.197	0.022
-405.282	-118.372	0.323	0.074
-404.267	232.763	-0.067	-0.144
-403.252	37.072	-0.091	-0.105
-402.238	104.780	0.211	-0.325
-401.223	-170.425	-0.602	-0.027
-400.209	55.631	-0.248	0.313
-399.194	324.641	0.041	-0.102
-398.179	-57.172	-0.132	0.075
-397.165	-200.000	0.003	-0.086
-396.150	-38.236	0.349	0.241
-395.136	155.703	0.147	0.266
-394.121	165.571	-0.344	-0.635
-393.106	-69.606	-0.100	0.050
-392.092	780.286	-0.149	0.535
-391.077	-163.466	0.273	0.017
-390.063	702.199	-0.029	0.099
-389.048	766.744	0.077	-0.274
-388.033	-200.000	-0.001	0.040
-387.019	152.768	-0.146	0.261
-386.004	-200.000	0.006	-0.091
-384.990	355.289	0.112	-0.291
-383.975	-200.000	-0.027	-0.341
-382.960	196.412	0.154	-0.307
-381.946	15.429	0.237	0.243
-380.931	-88.325	-0.382	0.148
-379.917	-51.864	-0.427	-0.258
-378.902	128.860	0.319	-0.530
-377.888	-154.989	0.496	-0.042
-376.873	-105.836	-0.117	0.034
-375.858	-200.000	-0.020	0.195
-374.844	156.769	-0.162	-0.292
-373.829	-123.154	0.322	-0.067
-372.815	75.086	-0.211	-0.290
-371.800	-150.312	-0.145	0.014
-370.785	563.406	-0.067	0.212
-369.771	-148.899	-0.219	0.023
-368.756	-200.000	-0.040	-0.393
-367.742	-98.993	0.519	-0.170
-366.727	181.317	-0.176	0.338
-365.712	800.000	-0.036	0.162
-364.698	-58.263	0.175	0.099
-363.683	-107.007	-0.463	-0.132
-362.669	-96.814	0.447	0.152
-361.654	-30.163	0.222	-0.164
-360.639	23.564	0.064	0.069
-359.625	800.000	0.069	-0.300
-358.610	-134.682	-0.338	-0.053
-357.596	-200.000	-0.051	0.501
-356.581	-9.376	0.142	0.123
-355.566	-122.446	0.450	-0.095
-354.552	-85.618	-0.115	-0.046
-353.537	476.712	-0.032	0.096
-352.523	43.899	0.360	-0.429
-351.508	-57.181	-0.270	0.154
-350.493	-152.611	-0.208	0.019
-349.479	-12.020	0.045	0.038
-348.464	-48.162	0.139	0.087
-347.450	638.148	-0.044	0.147
-346.435	302.140	0.198	0.477
-345.420	14.667	-0.191	0.195
-344.406	-83.134	0.226	-0.094
-343.391	66.975	-0.201	0.267
-342.377	319.978	0.062	-0.154
-341.362	-19.462	0.279	-0.225
-340.348	-67.185	-0.150	-0.076
-339.333	90.602	0.195	0.285
-338.318	-200.000	0.031	-0.498
-337.304	649.903	0.117	-0.392
-336.289	-17.201	-0.370	-0.303
-335.275	-101.908	-0.206	0.064
-334.260	484.194	0.138	-0.409
-333.245	-15.119	0.623	-0.518
-332.231	-58.370	0.310	-0.175
-331.216	-152.774	0.844	0.077
-330.202	-92.653	0.342	0.124
-329.187	-127.623	-0.565	-0.105
-328.172	-128.136	0.092	0.017
-327.158	-61.402	-0.235	0.128
-326.143	-145.888	0.212	0.024
-325.129	-200.000	0.047	0.544
-324.114	30.803	0.268	0.299
-323.099	-200.000	0.001	0.210
-322.085	-90.349	-0.084	0.032
-321.070	269.352	0.084	-0.193
-320.056	-69.183	-0.243	0.121
-319.041	69.834	-0.315	0.423
-318.026	-121.145	-0.551	0.119
-317.012	16.064	0.081	-0.083
-315.997	-89.068	-0.133	-0.051
-314.983	-99.767	-0.100	0.032
-313.968	-200.000	-0.005	-0.309
-312.953	-134.623	0.382	-0.060
-311.939	322.065	-0.145	0.359
-310.924	12.353	0.282	-0.282
-309.910	-38.413	0.218	0.150
-308.895	-39.032	-0.298	-0.203
-307.880	800.000	-0.081	-0.297
-306.866	-12.613	0.460	0.389
-305.851	202.740	-0.191	0.385
-304.837	-19.109	-0.187	0.150
-303.822	46.954	-0.382	-0.462
-302.807	800.000	0.085	-0.368
-301.793	322.824	-0.048	0.120
-300.778	-26.523	-0.178	0.135
-299.764	-84.559	0.347	-0.141
-298.749	99.969	0.078	0.118
-297.735	6.568	-0.456	-0.440
-296.720	-200.000	0.009	-0.153
-295.705	192.266	0.178	0.350
-294.691	-127.207	-0.306	-0.058
-293.676	-111.141	-0.344	-0.091
-292.662	-101.034	-0.126	0.040
-291.647	438.359	0.092	0.262
-290.632	-200.000	-0.047	-0.610
-289.618	59.195	-0.252	-0.323
-288.603	84.685	0.078	-0.111
-287.589	-142.617	-0.254	-0.032
-286.574	-200.000	0.026	-0.210
-285.559	800.000	0.054	0.205
-284.545	-23.940	-0.324	-0.251
-283.530	-154.818	-0.439	-0.037
-282.516	-146.382	-0.233	-0.026
-281.501	109.009	0.160	0.249
-280.486	504.385	0.082	0.248
-279.472	274.127	-0.123	0.284
-278.457	-108.874	0.650	0.179
-277.443	800.000	0.015	0.066
-276.428	-119.292	0.180	0.040
-275.413	-141.745	-0.355	-0.046
-274.399	329.299	-0.079	0.198
-273.384	-44.999	-0.059	-0.038
-272.370	-1.177	0.345	0.316
-271.355	137.437	0.158	-0.268
-270.340	145.510	0.293	-0.511
-269.326	197.508	-0.048	-0.096
-268.311	800.000	-0.046	0.259
-267.297	443.327	0.074	-0.211
-266.282	-120.809	0.152	0.033
-265.267	-9.350	0.185	-0.160
-264.253	-200.000	-0.088	0.530
-263.238	800.000	-0.081	0.401
-262.224	-146.890	-0.187	0.021
-261.209	712.102	0.104	0.361
-260.195	255.661	0.164	0.366
-259.180	-133.193	-0.252	-0.041
-258.165	352.478	0.149	-0.385
-257.151	-28.246	0.349	0.261
-256.136	367.184	0.083	-0.219
-255.122	41.572	-0.080	-0.094
-254.107	32.464	0.213	-0.239
-253.092	76.974	-0.209	0.288
-252.078	-79.325	-0.177	-0.077
-251.063	800.000	-0.124	0.462
-250.049	-0.382	0.212	-0.195
-249.034	450.837	-0.098	-0.283
-248.019	-200.000	-0.022	0.419
-247.005	40.044	0.314	0.366
-245.990	48.809	-0.291	-0.354
-244.976	-110.173	0.150	0.040
-243.961	178.740	-0.167	0.318
-242.946	-79.404	-0.264	-0.115
-241.932	-129.461	-0.506	-0.090
-240.917	227.523	-0.086	0.183
-239.903	-60.365	-0.091	-0.050
-238.888	-30.196	-0.194	0.142
-237.873	-39.699	-0.133	0.090
-236.859	366.171	0.075	-0.198
-235.844	-200.000	0.019	-0.533
-234.830	316.349	-0.144	0.354
-233.815	-164.999	-0.120	-0.007
-232.800	341.728	0.121	-0.308
-231.786	-99.433	0.689	-0.223
-230.771	-64.478	0.382	-0.201
-229.757	-20.472	0.220	0.175
-228.742	-84.069	0.365	0.150
-227.727	-106.979	0.139	-0.039
-226.713	-40.836	-0.180	-0.121
-225.698	-37.119	-0.337	0.233
-224.684	172.076	-0.042	0.078
-223.669	-200.000	-0.007	-0.068
-222.655	-32.282	-0.310	0.224
-221.640	391.425	-0.158	-0.426
-220.625	-2.639	0.129	-0.117
-219.611	34.382	0.170	0.192
-218.596	-76.367	0.162	0.073
-217.582	153.383	-0.072	0.127
-216.567	-65.571	-0.174	0.090
-215.552	-50.698	-0.114	-0.069
-214.538	396.083	-0.083	-0.226
-213.523	-76.608	-0.713	0.322
-212.509	141.273	-0.137	0.236
-211.494	-83.296	0.124	0.051
-210.479	230.385	0.088	0.188
-209.465	-81.082	0.086	-0.036
-208.450	267.782	0.202	-0.459
-207.436	-47.866	0.460	0.287
-206.421	386.442	0.114	-0.306
-205.406	-135.053	0.302	-0.047
-204.392	44.154	-0.323	-0.384
-203.377	41.751	0.482	0.566
-202.363	-140.502	-0.240	0.032
-201.348	-79.301	0.317	0.138
-200.333	450.073	0.104	0.298
-199.319	276.871	-0.168	0.388
-198.304	331.489	-0.148	0.371
-197.290	381.676	-0.034	-0.091
-196.275	800.000	-0.057	-0.210
-195.260	-200.000	-0.032	-0.320
-194.246	-85.994	-0.363	0.145
-193.231	-200.000	0.061	-0.380
-192.217	47.132	0.047	0.057
-191.202	-44.323	-0.278	-0.180
-190.187	-59.085	-0.092	-0.051
-189.173	460.994	-0.192	0.556
-188.158	-120.207	0.331	0.072
-187.144	-142.667	-0.096	-0.012
-186.129	343.513	-0.087	0.221
-185.114	329.656	-0.059	-0.149
-184.100	-42.209	0.491	-0.324
-183.085	-1.184	-0.248	0.226
-182.071	-87.449	-0.273	0.106
-181.056	-200.000	-0.052	0.561
-180.042	130.097	0.065	0.108
-179.027	414.212	-0.104	0.288
-178.012	174.664	-0.078	0.146
-176.998	-78.288	-0.210	-0.093
-175.983	-106.845	-0.226	0.064
-174.969	-154.798	0.477	-0.040
-173.954	-108.005	0.214	0.060
-172.939	-95.794	-0.612	0.210
-171.925	131.296	0.079	0.132
-170.910	-103.080	0.351	0.107
-169.896	-85.492	0.298	-0.119
-168.881	440.602	-0.071	-0.202
-167.866	20.719	0.106	-0.111
-166.852	-200.000	-0.029	0.207
-165.837	-117.595	-0.261	0.060
-164.823	73.011	-0.240	-0.324
-163.808	-35.777	-0.194	-0.135
-162.793	-200.000	0.035	0.489
-161.779	-72.480	0.319	0.152
-160.764	-200.000	-0.019	-0.316
-159.750	-55.852	0.366	-0.210
-158.735	-117.169	-0.180	0.042
-157.720	-200.000	0.004	0.321
-156.706	800.000	0.093	0.447
-155.691	-200.000	-0.015	0.603
-154.677	-70.634	0.317	0.154
-153.662	-60.603	-0.059	0.032
-152.647	-39.836	-0.458	-0.308
-151.633	-54.683	0.278	0.162
-150.618	-28.917	-0.469	-0.348
-149.604	-200.000	-0.015	-0.174
-148.589	-114.202	-0.216	-0.053
-147.574	-72.285	0.406	-0.193
-146.560	-41.873	-0.234	0.155
-145.545	-136.181	-0.216	-0.032
-144.531	-169.339	0.195	0.009
-143.516	30.328	-0.338	0.373
-142.502	-67.187	-0.529	0.268
-141.487	296.017	0.273	0.648
-140.472	-133.557	-0.509	-0.081
-139.458	-124.076	-0.322	0.065
-138.443	-4.516	-0.415	0.370
-137.429	-37.441	-0.094	0.065
-136.414	32.523	0.484	-0.540
-135.399	-33.533	-0.106	0.075
-134.385	-55.858	0.144	-0.083
-133.370	114.155	-0.317	0.499
-132.356	-11.686	0.078	-0.066
-131.341	251.628	0.248	-0.546
-130.326	83.369	-0.170	0.240
-129.312	132.109	0.278	0.463
-128.297	800.000	-0.084	0.455
-127.283	125.087	0.080	-0.131
-126.268	-152.581	0.374	-0.034
-125.253	-80.775	0.154	-0.066
-124.239	-14.712	0.081	0.067
-123.224	800.000	-0.040	-0.184
-122.210	-200.000	-0.008	0.338
-121.195	15.090	-0.275	-0.277
-120.180	210.899	-0.149	0.303
-119.166	157.553	-0.353	0.633
-118.151	-38.079	-0.387	0.265
-117.137	-85.734	0.141	0.056
-116.122	650.818	0.129	0.428
-115.107	-11.392	-0.293	0.248
-114.093	800.000	0.104	-0.390
-113.078	84.940	0.420	-0.595
-112.064	-200.000	-0.020	-0.360
-111.049	44.620	-0.032	0.038
-110.034	800.000	0.051	-0.218
-109.020	90.121	-0.205	-0.296
-108.005	-200.000	-0.066	-0.405
-106.991	163.185	-0.260	-0.473
-105.976	-200.000	0.010	-0.148
-104.962	-105.268	0.270	-0.079
-103.947	158.144	-0.075	0.135
-102.932	406.545	-0.222	-0.608
-101.918	-31.465	-0.328	0.238
-100.903	-70.232	0.302	-0.147
-99.889	-51.283	0.139	-0.084
-98.874	45.240	-0.219	-0.260
-97.859	159.788	-0.159	-0.286
-96.845	-175.860	0.492	0.017
-95.830	-66.064	0.378	0.193
-94.816	-32.688	-0.167	-0.120
-93.801	71.413	0.051	0.068
-92.786	81.774	0.243	-0.340
-91.772	29.430	-0.096	-0.105
-90.757	123.726	-0.153	0.248
-89.743	-32.921	0.209	0.149
-88.728	800.000	-0.088	0.457
-87.713	19.897	0.224	0.233
-86.699	-186.932	0.131	-0.002
-85.684	-38.008	0.364	-0.248
-84.670	-18.470	0.094	0.075
-83.655	-44.209	0.160	-0.103
-82.640	101.379	0.155	-0.233
-81.626	458.929	-0.048	0.139
-80.611	-162.426	0.534	-0.034
-79.597	800.000	0.047	0.177
-78.582	-179.087	0.297	0.008
-77.567	229.142	-0.100	0.212
-76.553	-96.195	-0.355	-0.121
-75.538	30.941	0.123	0.136
-74.524	-66.761	-0.268	-0.136
-73.509	-83.244	0.261	0.107
-72.494	-200.000	-0.067	-0.529
-71.480	-177.660	-0.642	0.020
-70.465	-200.000	0.008	0.297
-69.451	-78.335	0.363	-0.160
-68.436	410.034	0.072	-0.198
-67.422	-16.856	0.220	-0.179
-66.407	-200.000	-0.016	0.667
-65.392	31.883	-0.332	0.368
-64.378	28.839	0.045	0.049
-63.363	-12.326	0.268	-0.226
-62.349	-180.870	-0.426	0.011
-61.334	-8.678	-2.298	-1.983
-60.319	131.308	1.161	1.924
-59.305	265.884	-3.386	-7.634
-58.290	80.437	3.467	4.810
-57.276	361.544	4.033	10.451
-56.261	-200.000	20.888	309.756
-55.246	362.679	1295.148	3360.914
-54.232	52.879	2859.966	3521.708
-53.217	53.231	2673.846	3297.829
-52.203	34.986	2404.271	2708.697
-51.188	30.352	2072.507	2277.831
-50.173	26.916	1959.173	2113.037
-49.159	25.861	1947.867	2088.475
-48.144	25.370	1943.526	2078.030
-47.130	25.289	1941.158	2074.475
-46.115	25.191	1940.231	2072.270
-45.100	25.169	1938.549	2070.131
-44.086	25.272	1936.256	2068.789
-43.071	25.255	1934.738	2066.890
-42.057	25.218	1933.044	2064.579
-41.042	25.107	1932.871	2063.024
-40.027	25.160	1931.519	2062.106
-39.013	25.205	1929.194	2060.067
-37.998	25.107	1928.597	2058.220
-36.984	25.063	1927.344	2056.289
-35.969	25.200	1925.535	2055.857
-34.954	25.205	1923.526	2053.683
-33.940	25.231	1922.222	2052.511
-32.925	25.151	1921.569	2050.811
-31.911	25.225	1919.227	2049.080
-30.896	25.054	1918.776	2046.557
-29.881	25.083	1917.506	2045.452
-28.867	24.996	1915.921	2042.686
-27.852	24.920	1915.280	2041.055
-26.838	25.059	1912.310	2039.391
-25.823	24.910	1911.598	2036.850
-24.809	24.939	1910.698	2036.144
-23.794	24.909	1909.405	2034.340
-22.779	24.966	1908.471	2033.915
-21.765	24.994	1906.529	2032.088
-20.750	24.982	1905.463	2030.728
-19.736	24.884	1904.775	2028.799
-18.721	24.923	1903.558	2027.873
-17.706	24.779	1902.745	2025.281
-16.692	24.985	1900.580	2025.240
-15.677	24.776	1900.021	2022.188
-14.663	24.947	1898.004	2021.903
-13.648	24.953	1896.670	2020.472
-12.633	24.944	1895.641	2019.189
-11.619	24.873	1894.292	2016.865
-10.604	24.816	1893.223	2015.009
-9.590	24.759	1892.679	2013.705
-8.575	24.811	1890.632	2012.035
-7.560	24.880	1889.636	2011.677
-6.546	24.855	1888.525	2010.125
-5.531	24.764	1887.357	2007.781
-4.517	24.949	1885.342	2007.636
-3.502	24.953	1884.640	2006.856
-2.487	25.026	1883.601	2006.497
-1.473	24.917	1880.163	2001.531
-0.458	24.510	1861.349	1976.893
0.556	20.485	2006.160	2070.132
1.571	18.596	2212.270	2257.579
2.586	19.322	2251.901	2307.523
3.600	19.540	2253.376	2311.687
4.615	19.445	2253.240	2309.989
5.629	19.498	2250.921	2308.052
6.644	19.249	2249.697	2303.169
7.659	19.476	2247.000	2303.185
8.673	19.500	2245.212	2301.390
9.688	19.249	2254.612	2307.372
10.702	18.374	2333.775	2375.908
11.717	16.492	2397.613	2413.627
12.731	7.790	2376.458	2267.799
13.746	1.096	2359.867	2156.193
14.761	0.181	2356.402	2139.712
15.775	0.185	2355.394	2138.587
16.790	0.103	2352.701	2134.721
17.804	0.120	2351.679	2133.778
18.819	0.099	2351.255	2132.838
19.834	0.053	2348.142	2129.103
20.848	0.045	2347.746	2128.373
21.863	0.096	2345.399	2126.726
22.877	0.107	2343.384	2124.794
23.892	0.153	2340.878	2122.916
24.907	0.098	2338.677	2119.891
25.921	0.040	2338.166	2118.358
26.936	0.145	2334.877	2116.599
27.950	0.082	2332.051	2112.907
28.965	0.111	2330.749	2111.873
29.980	0.051	2329.107	2109.291
30.994	0.172	2327.083	2108.903
32.009	3.951	2337.910	2171.849
33.023	13.367	2366.241	2331.842
34.038	17.284	2372.849	2393.615
35.053	17.212	2369.217	2388.661
36.067	17.060	2366.848	2383.838
37.082	17.053	2365.228	2381.817
38.096	17.390	2363.241	2384.283
39.111	17.558	2361.968	2385.077
40.126	17.867	2359.641	2386.791
41.140	18.040	2358.273	2387.545
42.155	18.030	2357.137	2385.964
43.169	17.928	2355.335	2382.434
44.184	17.656	2351.360	2374.316
45.199	17.695	2348.853	2372.045
46.213	17.820	2349.256	2373.913
47.228	18.075	2347.048	2374.969
48.242	17.957	2345.224	2371.192
49.257	18.122	2343.902	2371.868
50.271	18.214	2342.117	2371.061
51.286	17.877	2339.080	2363.017
52.301	17.648	2337.069	2357.516
53.315	18.503	2340.985	2373.085
54.330	21.735	2349.670	2426.659
55.344	23.772	2351.355	2456.457
56.359	24.050	2348.010	2456.528
57.374	24.219	2347.781	2458.331
58.388	24.329	2344.823	2456.456
59.403	24.056	2340.279	2447.641
60.417	23.587	2337.178	2437.626
61.432	23.621	2335.318	2435.864
62.447	23.883	2333.793	2437.590
63.461	24.044	2331.839	2437.482
64.476	24.136	2330.706	2437.260
65.490	23.774	2328.636	2429.830
66.505	22.916	2324.015	2412.941
67.520	20.732	2313.532	2371.889
68.534	18.344	2304.868	2330.098
69.549	17.547	2301.605	2315.637
70.563	17.616	2297.911	2312.588
71.578	17.532	2296.906	2310.154
72.593	17.624	2295.355	2309.563
73.607	17.895	2293.120	2310.732
74.622	17.708	2292.289	2307.076
75.636	17.727	2287.465	2302.194
76.651	17.549	2286.253	2298.294
77.666	17.452	2284.672	2295.104
78.680	17.442	2281.376	2291.393
79.695	17.209	2279.587	2286.173
80.709	17.088	2277.453	2282.114
81.724	17.105	2274.861	2279.479
82.739	17.155	2273.357	2278.368
83.753	17.120	2272.175	2276.441
84.768	17.060	2269.381	2272.565
85.782	17.059	2268.660	2271.556
86.797	16.901	2266.135	2266.638
87.812	16.995	2264.187	2265.679
88.826	17.152	2262.646	2265.970
89.841	17.221	2259.529	2263.501
90.855	17.292	2258.019	2262.663
91.870	17.268	2257.429	2261.476
92.884	17.299	2254.551	2258.745
93.899	17.297	2254.123	2258.013
94.914	18.223	2257.011	2273.007
95.928	20.928	2266.184	2318.191
96.943	21.981	2263.477	2329.189
97.957	19.131	2251.314	2278.540
98.972	17.332	2245.028	2248.022
99.987	17.221	2241.573	2242.821
101.001	17.106	2240.932	2240.390
102.016	17.085	2238.577	2237.482
103.030	17.066	2235.158	2233.555
104.045	17.091	2233.933	2232.388
105.060	17.182	2231.104	2230.490
106.074	17.227	2228.835	2228.559
107.089	17.112	2227.611	2225.553
108.103	17.133	2227.629	2225.583
109.118	17.299	2225.891	2225.760
110.133	17.515	2223.687	2226.132
111.147	17.332	2221.720	2221.485
112.162	17.285	2220.307	2219.191
113.176	17.455	2218.256	2219.102
114.191	17.575	2216.860	2219.015
115.206	17.429	2216.025	2215.996
116.220	17.484	2212.927	2213.357
117.235	17.577	2211.392	2212.767
118.249	17.629	2209.197	2210.983
119.264	17.456	2208.653	2207.928
120.279	17.480	2206.360	2205.682
121.293	17.468	2204.741	2203.637
122.308	17.495	2202.694	2201.686
123.322	17.460	2201.797	2200.067
124.337	17.888	2202.928	2206.494
125.352	20.837	2212.120	2253.848
126.366	21.704	2210.371	2263.064
127.381	18.884	2198.824	2214.498
128.395	17.650	2193.213	2192.632
129.410	17.445	2191.754	2188.268
130.424	17.345	2188.502	2183.473
131.439	17.336	2188.241	2182.831
132.454	17.467	2185.897	2181.916
133.468	17.656	2183.865	2182.055
134.483	17.879	2182.903	2183.712
135.497	17.820	2180.766	2180.550
136.512	17.625	2179.218	2176.243
137.527	17.512	2177.035	2172.342
138.541	17.266	2175.353	2167.253
139.556	17.271	2174.293	2166.011
140.570	17.266	2172.125	2163.523
141.585	17.232	2169.381	2160.095
142.600	17.101	2168.820	2157.610
143.614	17.099	2166.771	2155.278
144.629	16.944	2164.954	2151.246
145.643	16.963	2162.694	2148.987
146.658	16.986	2161.125	2147.461
147.673	16.861	2159.016	2143.520
148.687	16.871	2159.047	2143.420
149.702	17.078	2158.116	2144.860
150.716	17.048	2157.581	2143.694
151.731	17.184	2155.674	2143.274
152.746	17.302	2154.685	2143.525
153.760	18.088	2158.468	2157.009
154.775	21.114	2166.556	2203.297
155.789	22.260	2164.655	2215.619
156.804	19.285	2152.579	2165.480
157.819	17.235	2145.509	2132.267
158.833	17.046	2142.176	2126.322
159.848	17.059	2139.546	2123.626
160.862	17.129	2138.637	2123.353
161.877	17.279	2137.556	2123.898
162.892	17.360	2137.283	2124.399
163.906	17.344	2136.087	2122.756
164.921	17.194	2134.419	2118.959
165.935	17.384	2131.019	2117.708
166.950	17.430	2129.887	2116.909
167.964	17.432	2127.052	2113.859
168.979	17.157	2125.530	2108.664
169.994	17.014	2123.825	2104.934
171.008	17.044	2121.114	2102.368
172.023	17.079	2120.140	2101.584
173.037	17.221	2119.582	2102.545
174.052	17.519	2117.858	2104.290
175.067	17.364	2116.725	2100.992
176.081	17.268	2115.579	2098.411
177.096	17.402	2114.555	2098.799
178.110	17.483	2113.498	2098.507
179.125	17.577	2112.514	2098.442
180.140	17.441	2111.345	2095.352
181.154	17.625	2108.819	2094.867
182.169	17.756	2109.330	2096.744
183.183	18.668	2111.382	2109.808
184.198	21.799	2119.467	2156.396
185.213	22.350	2117.359	2160.799
186.227	19.244	2105.090	2109.848
187.242	17.765	2101.390	2087.707
188.256	17.565	2098.967	2082.586
189.271	17.425	2096.891	2078.563
190.286	17.371	2094.869	2075.643
191.300	17.508	2091.942	2074.172
192.315	17.423	2091.154	2072.102
193.329	17.579	2091.012	2073.633
194.344	17.911	2089.362	2075.796
195.359	17.939	2087.991	2074.534
196.373	17.554	2086.457	2068.062
197.388	17.278	2083.599	2061.616
198.402	17.147	2080.281	2056.494
199.417	17.166	2078.282	2054.498
200.432	17.311	2075.827	2053.592
201.446	17.237	2075.858	2052.480
202.461	17.074	2074.602	2049.005
203.475	17.007	2072.258	2045.635
204.490	17.051	2069.834	2043.529
205.504	17.086	2067.111	2041.024
206.519	17.157	2065.759	2040.300
207.534	17.172	2064.196	2038.691
208.548	17.195	2063.075	2037.621
209.563	17.301	2062.406	2037.995
210.577	17.390	2061.261	2037.689
211.592	17.387	2061.183	2037.332
212.607	18.799	2066.360	2059.235
213.621	22.453	2075.478	2112.209
214.636	21.760	2069.727	2097.777
215.650	18.410	2057.586	2045.082
216.665	17.452	2053.536	2029.337
217.680	17.524	2050.941	2027.389
218.694	17.183	2049.716	2021.858
219.709	17.106	2048.162	2019.168
220.723	17.215	2046.766	2018.853
221.738	17.437	2045.733	2020.243
222.753	17.513	2043.603	2018.793
223.767	17.459	2041.972	2016.307
224.782	17.522	2039.645	2014.516
225.796	17.497	2038.173	2012.522
226.811	17.344	2036.896	2009.198
227.826	17.355	2035.719	2007.930
228.840	17.346	2033.915	2005.804
229.855	17.166	2032.598	2002.139
230.869	17.165	2031.182	2000.489
231.884	17.208	2029.815	1999.405
232.899	17.319	2027.666	1998.361
233.913	17.503	2026.541	1999.183
234.928	17.328	2026.442	1996.784
235.942	17.318	2024.707	1994.714
236.957	17.398	2023.070	1993.812
237.972	17.456	2022.138	1993.337
238.986	17.350	2021.517	1991.236
240.001	17.574	2018.414	1990.572
241.015	17.578	2018.257	1990.227
242.030	18.416	2020.371	2001.927
243.045	21.478	2026.627	2043.896
244.059	21.779	2024.279	2044.819
245.074	18.884	2013.765	2000.139
246.088	17.925	2009.773	1984.731
247.103	17.950	2008.598	1983.619
248.117	17.929	2007.181	1981.738
249.132	17.752	2004.918	1977.205
250.147	17.641	2002.219	1973.022
251.161	17.624	2001.183	1971.559
252.176	17.771	2000.333	1972.204
253.190	17.966	1998.315	1972.240
254.205	18.076	1996.518	1971.504
255.220	18.010	1995.870	1969.860
256.234	17.976	1994.046	1967.432
257.249	17.634	1992.559	1961.774
258.263	17.436	1990.634	1957.354
259.278	17.462	1989.664	1956.461
260.293	17.324	1987.912	1952.921
261.307	17.218	1985.239	1948.839
262.322	17.203	1983.604	1946.819
263.336	17.128	1982.177	1944.327
264.351	17.036	1980.177	1941.076
265.366	16.994	1979.395	1939.591
266.380	16.964	1978.770	1938.399
267.395	17.025	1977.545	1937.677
268.409	17.170	1975.337	1936.936
269.424	17.183	1974.006	1935.552
270.439	17.263	1973.588	1935.824
271.453	18.455	1975.838	1951.454
272.468	21.769	1983.152	1996.445
273.482	21.815	1978.772	1992.325
274.497	18.714	1967.671	1945.643
275.512	17.348	1963.406	1925.652
276.526	17.226	1960.942	1921.617
277.541	17.151	1959.121	1918.753
278.555	17.118	1957.255	1916.320
279.570	16.870	1956.137	1912.182
280.585	16.994	1954.847	1912.103
281.599	17.110	1954.028	1912.389
282.614	17.346	1953.443	1914.246
283.628	17.777	1953.837	1919.281
284.643	18.045	1954.060	1922.300
285.657	18.354	1951.939	1923.473
286.672	18.355	1949.965	1921.309
287.687	18.041	1947.917	1915.530
288.701	17.955	1946.866	1913.298
289.716	17.941	1945.116	1911.195
290.730	17.904	1944.576	1910.016
291.745	18.677	1944.248	1918.153
292.760	18.833	1943.039	1918.476
293.774	18.181	1940.693	1908.626
294.789	18.026	1938.958	1904.954
295.803	17.846	1936.230	1900.033
296.818	17.755	1934.691	1897.271
297.833	17.838	1933.801	1897.100
298.847	17.778	1932.362	1894.797
299.862	17.784	1930.451	1892.758
300.876	18.552	1933.012	1903.610
301.891	21.790	1940.311	1946.781
302.906	22.298	1937.304	1949.190
303.920	19.131	1927.423	1903.873
304.935	18.019	1923.724	1887.646
305.949	17.853	1920.939	1882.847
306.964	17.889	1919.750	1881.856
307.979	17.928	1918.639	1880.970
308.993	18.185	1917.659	1882.633
310.008	18.528	1916.121	1884.684
311.022	18.579	1915.159	1884.069
312.037	18.358	1914.285	1880.552
313.052	18.820	1914.317	1885.449
314.066	19.224	1912.445	1887.838
315.081	18.890	1910.591	1882.106
316.095	18.735	1908.767	1878.374
317.110	18.363	1906.963	1872.292
318.125	17.977	1904.535	1865.441
319.139	17.930	1902.201	1862.420
320.154	17.924	1900.506	1860.475
321.168	17.821	1900.009	1858.637
322.183	17.486	1897.863	1852.652
323.197	17.340	1895.518	1848.547
324.212	17.185	1892.616	1843.806
325.227	16.916	1891.336	1839.396
326.241	17.080	1889.456	1839.136
327.256	17.093	1888.317	1837.950
328.270	16.908	1888.676	1836.071
329.285	17.020	1888.399	1836.796
330.300	18.113	1893.435	1853.388
331.314	21.956	1899.109	1900.636
332.329	21.928	1894.010	1895.004
333.343	18.475	1883.635	1847.056
334.358	17.217	1879.338	1829.019
335.373	17.083	1877.716	1825.776
336.387	16.709	1875.631	1819.495
337.402	16.862	1874.294	1819.630
338.416	17.086	1872.759	1820.331
339.431	17.186	1871.442	1819.913
340.446	17.209	1870.546	1819.072
341.460	17.676	1871.362	1824.671
342.475	18.022	1869.596	1826.447
343.489	18.062	1868.033	1825.135
344.504	18.179	1867.245	1825.396
345.519	18.243	1866.095	1824.744
346.533	18.545	1865.446	1827.131
347.548	19.080	1866.225	1833.398
348.562	19.243	1864.667	1833.391
349.577	19.030	1862.670	1828.934
350.592	18.776	1861.902	1825.245
351.606	18.756	1859.622	1822.580
352.621	18.881	1856.721	1820.854
353.635	18.361	1855.552	1813.949
354.650	18.005	1853.959	1808.390
355.665	18.073	1851.377	1806.378
356.679	17.838	1850.295	1802.608
357.694	17.867	1849.101	1801.539
358.708	17.719	1848.007	1798.686
359.723	19.028	1852.916	1817.157
360.738	22.274	1858.299	1856.724
361.752	21.917	1852.508	1846.934
362.767	18.883	1844.017	1806.248
363.781	17.982	1840.649	1793.234
364.796	17.721	1838.754	1788.420
365.810	17.734	1837.690	1787.311
366.825	17.641	1836.838	1785.287
367.840	18.004	1835.337	1787.431
368.854	17.952	1835.445	1786.771
369.869	18.350	1834.277	1789.608
370.883	18.518	1833.842	1790.726
371.898	18.683	1832.869	1791.297
372.913	18.695	1831.359	1789.729
373.927	18.858	1830.382	1790.267
374.942	18.873	1829.346	1789.205
375.956	18.759	1827.590	1786.076
376.971	18.203	1824.191	1776.737
377.986	17.895	1821.358	1770.554
379.000	17.739	1819.727	1767.136
380.015	17.767	1818.937	1766.451
381.029	17.491	1815.439	1759.973
382.044	17.133	1812.955	1753.633
383.059	17.107	1811.332	1751.588
384.073	17.034	1811.208	1750.499
385.088	17.033	1810.977	1750.053
386.102	16.966	1809.432	1747.664
387.117	16.913	1806.844	1744.400
388.132	17.084	1806.235	1745.370
389.146	18.227	1811.332	1761.926
390.161	21.881	1817.615	1805.706
391.175	21.732	1809.612	1796.004
392.190	18.301	1800.138	1751.175
393.205	17.346	1796.935	1738.039
394.219	17.213	1795.003	1734.602
395.234	17.135	1794.264	1732.878
396.248	17.265	1792.492	1732.293
397.263	17.119	1789.967	1728.147
398.278	17.138	1787.787	1726.031
399.292	17.022	1787.238	1724.115
400.307	17.106	1787.659	1725.164
401.321	17.404	1787.075	1727.435
402.336	17.732	1786.385	1729.910
403.350	17.811	1785.441	1729.593
404.365	18.017	1784.188	1730.274
405.380	18.517	1783.653	1734.635
406.394	18.613	1782.629	1734.405
407.409	18.403	1781.497	1730.959
408.423	18.540	1780.764	1731.433
409.438	18.790	1779.095	1732.139
410.453	18.771	1777.527	1730.217
411.467	18.614	1775.401	1726.348
412.482	18.259	1773.466	1720.672
413.496	17.913	1772.250	1715.788
414.511	17.844	1769.777	1712.497
415.526	17.809	1767.400	1709.640
416.540	17.664	1766.146	1706.761
417.555	17.668	1765.183	1705.665
418.569	17.967	1765.792	1709.060
419.584	17.978	1765.711	1708.891
420.599	18.070	1764.045	1707.997
421.613	17.790	1762.633	1703.612
422.628	17.696	1761.140	1701.024
423.642	17.499	1759.581	1697.344
424.657	17.585	1757.500	1695.986
425.672	17.730	1756.255	1696.036
426.686	17.698	1755.619	1694.902
427.701	17.625	1754.252	1692.649
428.715	17.790	1752.613	1692.509
429.730	17.865	1751.821	1692.288
430.745	17.866	1750.646	1690.964
431.759	17.838	1750.049	1689.906
432.774	18.266	1750.511	1694.404
433.788	18.724	1750.337	1698.587
434.803	18.913	1750.919	1700.829
435.818	18.767	1750.067	1698.351
436.832	18.727	1749.327	1697.033
437.847	17.879	1741.673	1681.013
438.861	10.021	1720.374	1583.144
439.876	1.799	1705.190	1488.479
440.890	0.350	1701.613	1470.973
441.905	0.261	1699.992	1468.519
442.920	0.204	1699.250	1467.150
443.934	0.315	1696.874	1466.003
444.949	0.244	1696.662	1464.957
445.963	0.083	1695.866	1462.518
446.978	0.122	1695.139	1462.094
447.993	0.065	1694.427	1460.749
449.007	0.113	1691.662	1458.658
450.022	0.320	1688.996	1458.204
451.036	0.209	1688.258	1456.310
452.051	1.092	1692.100	1468.052
453.066	8.856	1709.842	1559.428
454.080	17.055	1723.285	1652.022
455.095	19.309	1726.470	1676.945
456.109	20.154	1728.026	1686.521
457.124	20.368	1727.513	1687.907
458.139	20.614	1726.477	1689.096
459.153	20.737	1726.435	1690.053
460.168	20.815	1723.748	1687.976
461.182	20.707	1721.630	1684.657
462.197	20.691	1719.549	1682.260
463.212	20.273	1718.758	1677.224
464.226	20.383	1717.375	1676.738
465.241	20.544	1717.255	1677.985
466.255	20.772	1715.858	1678.632
467.270	20.922	1714.680	1678.726
468.285	20.654	1711.981	1673.295
469.299	20.443	1711.481	1670.569
470.314	20.618	1709.132	1669.763
471.328	20.718	1707.647	1669.074
472.343	20.744	1706.792	1668.295
473.358	20.753	1706.371	1667.767
474.372	20.707	1704.749	1665.536
475.387	20.572	1702.859	1662.196
476.401	20.410	1701.281	1658.903
477.416	20.378	1700.433	1657.565
478.430	20.457	1699.165	1656.890
479.445	20.286	1697.401	1653.332
480.460	20.202	1696.477	1651.435
481.474	20.361	1696.096	1652.390
482.489	20.584	1695.318	1653.564
483.503	20.930	1693.839	1655.227
484.518	20.950	1693.448	1654.834
485.533	20.922	1691.150	1652.129
486.547	20.856	1689.769	1649.951
487.562	21.160	1689.715	1652.589
488.576	21.185	1687.280	1650.254
489.591	21.037	1686.106	1647.500
490.606	20.991	1683.547	1644.364
491.620	20.907	1682.803	1642.653
492.635	21.137	1682.061	1643.903
493.649	21.354	1681.520	1645.229
494.664	20.944	1679.264	1638.952
495.679	20.476	1677.054	1632.183
496.693	20.560	1675.698	1631.457
497.708	20.825	1674.979	1633.062
498.722	21.146	1675.017	1635.927
499.737	21.197	1673.707	1634.933
500.752	21.038	1671.252	1630.846
501.766	20.797	1669.435	1626.613
502.781	21.073	1667.891	1627.506
503.795	20.975	1667.403	1625.918
504.810	21.092	1666.048	1625.494
505.825	21.186	1665.836	1625.969
506.839	21.262	1664.661	1625.347
507.854	21.193	1663.126	1623.002
508.868	21.173	1661.961	1621.486
509.883	21.193	1660.940	1620.484
510.898	21.311	1661.070	1621.521
511.912	21.252	1658.317	1618.089
512.927	21.125	1655.784	1614.242
513.941	20.935	1654.464	1610.992
514.956	20.818	1652.709	1608.009
515.971	20.894	1651.380	1607.225
516.985	20.906	1650.971	1606.751
518.000	21.115	1650.525	1608.058
519.014	21.316	1649.849	1609.070
520.029	21.459	1648.520	1608.901
521.043	21.476	1646.906	1607.289
522.058	21.344	1646.269	1605.253
523.073	21.614	1645.139	1606.457
524.087	21.833	1644.953	1608.098
525.102	21.808	1643.317	1606.073
526.116	21.300	1640.311	1598.276
527.131	21.111	1639.671	1595.723
528.146	21.679	1639.315	1600.402
529.160	21.721	1638.934	1600.226
530.175	21.756	1637.346	1598.803
531.189	21.788	1636.531	1598.107
532.204	21.923	1634.464	1597.137
533.219	21.385	1632.892	1590.490
534.233	21.109	1631.713	1586.630
535.248	21.336	1632.214	1589.002
536.262	21.997	1631.023	1593.689
537.277	21.824	1629.775	1590.696
538.292	21.406	1627.558	1584.535
539.306	21.334	1625.729	1581.914
540.321	21.477	1624.200	1581.533
541.335	21.307	1622.635	1578.277
542.350	21.371	1622.212	1578.258
543.365	21.725	1620.687	1579.793
544.379	21.785	1619.818	1579.305
545.394	21.869	1618.257	1578.350
546.408	21.504	1615.994	1572.654
547.423	21.000	1614.024	1566.004
548.438	20.950	1613.560	1564.914
549.452	21.404	1612.654	1567.943
550.467	21.471	1612.386	1568.100
551.481	21.555	1610.964	1567.280
552.496	21.858	1610.235	1569.114
553.511	22.189	1609.790	1571.461
554.525	22.102	1608.992	1569.715
555.540	22.239	1608.343	1570.124
556.554	22.215	1606.313	1567.737
557.569	22.132	1605.112	1565.637
558.583	21.927	1603.136	1561.689
559.598	21.883	1601.931	1559.937
560.613	21.900	1601.301	1559.285
561.627	21.985	1600.199	1558.786
562.642	22.127	1599.270	1558.961
563.656	22.457	1597.973	1560.451
564.671	22.332	1597.171	1558.362
565.686	22.350	1595.764	1556.962
566.700	22.021	1593.626	1551.772
567.715	21.701	1592.081	1547.238
568.729	21.475	1590.341	1543.365
569.744	21.153	1588.611	1538.644
570.759	21.288	1587.266	1538.356
571.773	21.562	1586.861	1540.202
572.788	21.915	1585.842	1542.149
573.802	22.040	1584.536	1541.799
574.817	22.258	1583.521	1542.546
575.832	22.393	1583.049	1543.091
576.846	22.475	1581.912	1542.521
577.861	22.130	1579.933	1537.369
578.875	22.460	1579.186	1539.364
579.890	22.583	1578.670	1539.755
580.905	22.569	1577.426	1538.237
581.919	22.587	1577.554	1538.332
582.934	22.742	1576.360	1538.341
583.948	22.705	1575.241	1536.746
584.963	22.613	1572.971	1533.535
585.978	22.311	1571.528	1529.311
586.992	22.508	1571.248	1530.579
588.007	22.666	1570.480	1531.027
589.021	21.850	1567.602	1520.927
590.036	21.274	1565.811	1513.990
591.051	21.739	1565.535	1517.591
592.065	22.280	1563.720	1520.346
593.080	22.551	1562.669	1521.496
594.094	22.550	1561.407	1520.079
595.109	22.045	1558.965	1513.150
596.123	21.806	1557.291	1509.271
597.138	22.068	1557.706	1511.764
598.153	22.333	1557.222	1513.399
599.167	22.329	1555.557	1511.570
600.182	22.398	1555.164	1511.599
601.196	22.562	1554.269	1511.966
602.211	22.383	1552.849	1508.860
603.226	22.663	1551.831	1510.100
604.240	22.670	1550.656	1508.840
605.255	22.987	1549.376	1510.133
606.269	22.869	1548.122	1507.719
607.284	22.841	1546.873	1506.077
608.299	22.878	1545.664	1505.037
609.313	22.576	1544.105	1500.760
610.328	22.665	1543.034	1500.300
611.342	22.820	1541.275	1499.734
612.357	22.998	1541.510	1501.304
613.372	22.995	1540.582	1500.188
614.386	22.775	1539.615	1497.193
615.401	22.848	1538.506	1496.555
616.415	22.888	1538.269	1496.491
617.430	23.106	1537.042	1496.969
618.445	23.242	1535.740	1496.680
619.459	23.009	1534.475	1493.293
620.474	22.482	1532.968	1487.171
621.488	22.104	1529.882	1480.802
622.503	21.577	1529.204	1475.505
623.518	22.276	1529.624	1481.652
624.532	22.819	1528.187	1484.676
625.547	23.007	1527.617	1485.532
626.561	23.283	1527.327	1487.399
627.576	23.390	1526.779	1487.594
628.591	22.718	1523.347	1478.411
629.605	22.336	1521.614	1473.339
630.620	22.213	1519.503	1470.084
631.634	21.990	1517.728	1466.321
632.649	22.102	1517.137	1466.511
633.663	22.285	1517.469	1468.197
634.678	22.890	1517.848	1473.457
635.693	23.265	1516.496	1475.111
636.707	23.265	1515.055	1473.538
637.722	23.661	1514.146	1475.786
638.736	23.779	1512.875	1475.349
639.751	23.629	1511.647	1472.730
640.766	23.523	1510.219	1470.274
641.780	23.394	1508.865	1467.706
642.795	23.382	1507.883	1466.477
643.809	23.522	1506.984	1466.590
644.824	23.436	1506.253	1464.991
645.839	23.204	1505.536	1462.188
646.853	23.185	1504.524	1460.872
647.868	23.401	1502.274	1460.308
648.882	23.093	1501.470	1456.801
649.897	23.259	1499.610	1456.193
650.912	23.201	1498.497	1454.461
651.926	23.266	1497.411	1453.767
652.941	22.865	1494.891	1447.840
653.955	22.390	1492.909	1441.839
654.970	21.864	1490.913	1435.412
655.985	22.012	1489.546	1435.142
656.999	22.066	1488.846	1434.737
658.014	22.436	1488.723	1437.483
659.028	22.670	1488.106	1438.634
660.043	22.937	1487.442	1440.010
661.058	23.207	1486.417	1441.058
662.072	23.397	1485.920	1441.955
663.087	23.281	1483.977	1438.947
664.101	23.142	1483.471	1437.156
665.116	23.321	1482.983	1437.971
666.131	23.619	1481.194	1438.493
667.145	23.427	1479.933	1435.530
668.160	23.775	1479.500	1437.773
669.174	23.860	1478.779	1437.586
670.189	23.898	1476.874	1435.873
671.204	23.614	1476.225	1432.764
672.218	23.394	1475.934	1430.524
673.233	23.708	1474.646	1431.648
674.247	23.988	1474.072	1433.191
675.262	23.914	1473.495	1431.861
676.276	23.855	1472.012	1429.771
677.291	23.792	1470.388	1427.512
678.306	23.354	1468.637	1422.109
679.320	23.590	1467.470	1422.706
680.335	23.816	1467.148	1424.044
681.349	23.916	1466.341	1423.897
682.364	23.940	1464.930	1422.551
683.379	23.942	1463.382	1420.897
684.393	23.840	1462.745	1419.287
685.408	23.995	1461.404	1419.054
686.422	23.882	1460.304	1416.916
687.437	23.914	1460.342	1417.035
688.452	24.110	1459.572	1417.686
689.466	23.980	1457.915	1414.868
690.481	23.846	1455.956	1411.733
691.495	23.337	1454.717	1406.299
692.510	22.643	1452.177	1398.152
693.525	22.328	1449.342	1392.746
694.539	22.709	1449.641	1395.900
695.554	23.567	1450.590	1403.470
696.568	23.837	1451.035	1405.877
697.583	24.034	1450.334	1406.598
698.598	24.015	1449.170	1405.144
699.612	24.377	1447.127	1405.868
700.627	24.357	1445.514	1403.977
701.641	24.217	1444.976	1402.177
702.656	24.119	1444.455	1400.727
703.671	24.288	1444.218	1401.663
704.685	24.343	1443.291	1401.034
705.700	24.265	1441.349	1398.366
706.714	23.943	1438.937	1393.321
707.729	23.753	1437.866	1390.621
708.744	23.704	1436.418	1388.670
709.758	23.559	1435.523	1386.505
710.773	23.109	1433.647	1380.994
711.787	22.858	1431.803	1377.088
712.802	23.255	1430.715	1378.984
713.816	23.503	1430.783	1380.825
714.831	23.773	1430.774	1382.764
715.846	24.079	1429.812	1384.056
716.860	24.265	1428.184	1383.764
717.875	24.241	1426.812	1382.084
718.889	23.969	1426.144	1379.156
719.904	24.083	1425.672	1379.421
720.919	24.348	1424.342	1380.033
721.933	24.381	1423.590	1379.391
722.948	24.377	1423.162	1378.784
723.962	24.483	1421.467	1377.799
724.977	24.452	1420.426	1376.383
725.992	24.611	1419.127	1376.189
727.006	24.431	1418.085	1373.620
728.021	24.455	1416.863	1372.456
729.035	24.570	1415.931	1372.282
730.050	24.485	1415.113	1370.671
731.065	24.427	1414.267	1369.236
732.079	24.673	1412.793	1369.541
733.094	24.619	1410.939	1367.167
734.108	24.417	1409.300	1363.857
735.123	24.460	1408.024	1362.795
736.138	24.391	1407.496	1361.588
737.152	24.415	1406.624	1360.768
738.167	24.574	1405.586	1360.819
739.181	24.761	1404.941	1361.459
740.196	24.560	1404.704	1359.526
741.211	24.554	1403.640	1358.289
742.225	24.453	1402.062	1355.832
743.240	24.601	1400.741	1355.524
744.254	24.556	1400.183	1354.471
745.269	24.618	1399.136	1353.775
746.284	24.539	1397.710	1351.630
747.298	24.188	1396.150	1347.290
748.313	23.852	1394.400	1342.892
749.327	23.339	1392.593	1337.102
750.342	22.799	1391.221	1331.530
751.356	22.326	1389.527	1326.164
752.371	22.767	1389.231	1329.062
753.386	23.723	1389.819	1336.704
754.400	24.507	1389.581	1342.239
755.415	24.854	1388.641	1343.792
756.429	24.686	1388.285	1342.019
757.444	24.541	1386.295	1338.841
758.459	24.628	1385.765	1338.823
759.473	24.813	1385.021	1339.340
760.488	24.906	1383.614	1338.518
761.502	24.955	1381.960	1337.121
762.517	24.675	1381.151	1334.077
763.532	24.481	1379.164	1330.548
764.546	24.235	1378.231	1327.644
765.561	23.586	1375.975	1320.464
766.575	22.795	1374.281	1312.770
767.590	22.840	1373.394	1312.101
768.605	23.558	1372.856	1316.786
769.619	24.137	1372.071	1320.193
770.634	24.393	1371.639	1321.524
771.648	24.613	1371.492	1322.862
772.663	24.949	1371.066	1324.790
773.678	24.988	1370.353	1324.229
774.692	24.900	1369.037	1322.147
775.707	24.811	1369.355	1321.639
776.721	24.926	1368.713	1321.708
777.736	24.834	1367.445	1319.647
778.751	24.947	1366.138	1319.067
779.765	24.868	1364.810	1317.043
780.780	24.940	1364.014	1316.647
781.794	24.784	1362.763	1314.127
782.809	24.677	1361.922	1312.375
783.824	24.609	1360.459	1310.304
784.838	24.044	1357.886	1303.514
785.853	23.159	1356.416	1295.432
786.867	23.511	1356.331	1297.789
787.882	23.825	1356.398	1300.006
788.897	24.069	1355.788	1301.061
789.911	24.327	1354.610	1301.663
790.926	24.536	1353.535	1302.007
791.940	24.777	1352.026	1302.162
792.955	24.805	1351.045	1301.265
793.969	24.796	1350.284	1300.315
794.984	24.891	1349.810	1300.398
795.999	24.779	1349.399	1299.026
797.013	25.134	1347.129	1299.273
798.028	25.016	1345.834	1297.005
799.042	24.853	1345.727	1295.562
800.057	25.130	1344.530	1296.266
801.072	25.158	1342.959	1294.805
802.086	25.115	1341.872	1293.290
803.101	25.193	1341.181	1293.029
804.115	25.213	1339.771	1291.662
805.130	25.116	1338.619	1289.694
806.145	25.044	1337.891	1288.321
807.159	25.112	1336.307	1287.132
808.174	24.859	1334.749	1283.653
809.188	24.633	1333.930	1281.088
810.203	24.352	1331.727	1276.793
811.218	24.112	1328.991	1272.297
812.232	23.671	1327.147	1267.213
813.247	23.544	1325.907	1264.968
814.261	24.020	1327.270	1269.532
815.276	24.530	1326.796	1272.580
816.291	24.766	1326.168	1273.516
817.305	25.003	1325.102	1274.032
818.320	25.130	1323.656	1273.395
819.334	24.919	1322.929	1271.040
820.349	25.223	1321.385	1271.568
821.364	25.385	1320.502	1271.723
822.378	25.189	1319.296	1269.011
823.393	25.289	1317.378	1267.726
824.407	25.224	1316.997	1266.744
825.422	25.164	1316.415	1265.608
826.437	24.994	1314.514	1262.430
827.451	24.700	1312.222	1257.996
828.466	23.827	1309.843	1249.402
829.480	23.696	1307.647	1246.229
830.495	24.174	1306.573	1248.428
831.509	24.451	1307.760	1251.363
832.524	24.818	1307.316	1253.372
833.539	24.929	1306.496	1253.218
834.553	25.187	1304.908	1253.356
835.568	25.189	1304.496	1252.826
836.582	25.400	1302.933	1252.654
837.597	25.339	1301.584	1250.779
838.612	25.185	1300.256	1248.275
839.626	25.031	1298.896	1245.744
840.641	24.780	1296.689	1241.729
841.655	24.502	1295.479	1238.486
842.670	23.606	1293.633	1230.330
843.685	23.028	1292.291	1224.879
844.699	23.889	1292.391	1230.820
845.714	24.621	1291.476	1234.890
846.728	24.668	1291.362	1234.958
847.743	24.820	1290.894	1235.418
848.758	25.207	1289.455	1236.576
849.772	25.271	1288.443	1235.904
850.787	25.218	1287.051	1234.051
851.801	25.141	1285.852	1232.226
852.816	25.166	1284.380	1230.840
853.831	25.000	1283.310	1228.519
854.845	24.955	1281.832	1226.648
855.860	24.710	1280.066	1223.129
856.874	24.731	1278.454	1221.586
857.889	24.290	1276.826	1216.856
858.904	23.828	1274.785	1211.603
859.918	23.437	1272.564	1206.673
860.933	23.275	1271.000	1203.941
861.947	23.658	1271.673	1207.052
862.962	24.117	1271.339	1209.725
863.977	24.416	1269.918	1210.263
864.991	24.780	1269.793	1212.482
866.006	24.938	1269.653	1213.279
867.020	24.889	1268.889	1212.070
868.035	25.179	1267.575	1212.643
869.049	25.274	1266.868	1212.464
870.064	25.475	1265.744	1212.605
871.079	25.336	1264.809	1210.626
872.093	25.121	1264.437	1208.667
873.108	25.012	1262.797	1206.216
874.122	24.739	1261.030	1202.541
875.137	24.244	1259.775	1197.853
876.152	24.040	1258.443	1195.067
877.166	24.353	1256.698	1195.381
878.181	24.631	1255.825	1196.275
879.195	24.999	1256.338	1199.100
880.210	25.152	1256.263	1199.913
881.225	25.137	1255.257	1198.706
882.239	25.261	1253.688	1197.899
883.254	25.288	1252.732	1197.018
884.268	25.246	1251.905	1195.804
885.283	25.206	1250.864	1194.398
886.298	25.242	1249.038	1192.751
887.312	25.278	1248.008	1191.871
888.327	25.231	1247.293	1190.726
889.341	25.283	1245.574	1189.290
890.356	25.006	1245.064	1186.818
891.371	24.978	1244.906	1186.337
892.385	24.803	1244.468	1184.617
893.400	24.698	1243.407	1182.765
894.414	24.769	1240.936	1180.742
895.429	24.421	1238.160	1175.661
896.444	23.412	1235.271	1166.104
897.458	22.930	1233.936	1161.518
898.473	23.411	1234.377	1164.975
899.487	24.300	1234.709	1171.024
900.502	24.596	1234.155	1172.310
901.517	24.851	1233.407	1173.134
902.531	25.116	1231.881	1173.286
903.546	25.104	1232.130	1173.309
904.560	25.244	1231.203	1173.205
905.575	25.208	1230.243	1171.910
906.589	25.221	1229.111	1170.779
907.604	25.043	1228.590	1168.975
