DTS Sentinel unit serial number:	SN409020Multiplexer serial number:	ORYXHardware model number:	OX4-SRSoftware version number:	ORYX F/W v3.00 Oryx Data Collector v3.7.2.0data status	okinstallation	HaddamTimeLapsedifferential loss correction	single-endedforward channel	channel 3reverse channel	N/Adate	2011/06/21time	18:01:17forward acquisition time	30.00reverse acquisition time	0.00gamma	498.7831k internal	0.1838k external	0.1838temperature offset calibration	1.0074default loss term (dB/km)	0.3790temperature slope calibration	1.3530multiplexer offset coefficient	1.0000multiplexer slope coefficient	1.0000fibre end	0.00T internal ref (°C)	36.25T ext. ref 1 (°C)	28.91T ext. ref 2 (°C)	0.28length (m)	temperature (°C)	Stokes	anti-Stokes-747.200	800.000	-0.067	-0.242
-746.185	-150.102	0.114	0.011
-745.171	-200.000	-0.005	0.206
-744.156	-15.613	0.503	0.405
-743.142	-200.000	-0.043	-0.548
-742.127	-102.658	-0.382	-0.115
-741.112	-110.074	-0.554	0.146
-740.098	-111.216	-0.609	0.156
-739.083	-49.776	-0.172	0.103
-738.069	-99.804	0.536	-0.169
-737.054	457.577	0.116	-0.327
-736.039	-52.082	0.239	0.140
-735.025	-65.162	-0.354	0.180
-734.010	-29.384	-0.254	-0.184
-732.996	-50.900	-0.399	-0.237
-731.981	-47.656	0.027	-0.017
-730.966	-21.013	-0.404	-0.312
-729.952	-43.540	0.180	0.115
-728.937	-174.955	0.281	-0.010
-727.923	8.226	0.169	0.160
-726.908	-164.180	0.174	0.010
-725.894	-10.226	-0.203	0.170
-724.879	-72.710	0.636	-0.295
-723.864	-82.942	0.543	0.220
-722.850	26.494	0.288	0.305
-721.835	197.522	-0.060	-0.117
-720.821	-165.298	-0.262	-0.014
-719.806	-66.551	-0.277	0.139
-718.791	708.258	0.037	-0.126
-717.777	-101.607	-0.436	-0.133
-716.762	-10.472	-0.543	-0.454
-715.748	-34.936	-0.328	-0.226
-714.733	652.105	0.184	0.601
-713.718	-87.985	-0.274	-0.103
-712.704	-90.011	0.191	-0.070
-711.689	361.388	-0.072	-0.184
-710.675	-142.323	-0.403	-0.050
-709.660	-200.000	0.001	0.289
-708.645	220.329	-0.040	0.082
-707.631	-72.709	0.019	-0.009
-706.616	-37.128	0.066	0.044
-705.602	-9.563	-0.330	-0.278
-704.587	124.203	-0.163	-0.260
-703.572	-200.000	-0.079	-0.000
-702.558	-200.000	0.020	-0.220
-701.543	-21.786	-0.274	0.210
-700.529	-66.910	-0.299	0.149
-699.514	-200.000	0.005	0.383
-698.499	652.020	0.078	0.252
-697.485	7.290	-0.451	-0.425
-696.470	773.323	-0.158	-0.549
-695.456	-52.585	-0.605	0.352
-694.441	-25.493	0.256	0.191
-693.426	7.700	-0.097	-0.092
-692.412	-200.000	-0.011	0.149
-691.397	277.709	0.026	-0.058
-690.383	-46.919	0.359	-0.221
-689.368	-19.954	-0.224	-0.174
-688.354	-79.866	-0.302	0.128
-687.339	-200.000	0.072	0.603
-686.324	800.000	-0.088	0.393
-685.310	291.258	0.068	0.157
-684.295	43.527	-0.206	-0.238
-683.281	-16.371	-0.270	0.216
-682.266	319.824	0.018	-0.044
-681.251	-68.363	0.187	0.091
-680.237	-76.196	-0.183	-0.081
-679.222	800.000	-0.083	0.410
-678.208	-200.000	0.011	0.125
-677.193	169.745	-0.129	0.233
-676.178	283.872	0.030	0.069
-675.164	330.483	0.105	-0.257
-674.149	-200.000	0.428	-0.001
-673.135	-13.822	-0.268	-0.219
-672.120	95.490	0.108	0.155
-671.105	-9.158	-0.239	0.201
-670.091	708.823	0.079	0.265
-669.076	-166.520	-0.459	-0.024
-668.062	-32.027	-0.316	-0.223
-667.047	-102.478	0.400	0.120
-666.032	-97.009	-0.154	-0.051
-665.018	-26.039	0.142	0.105
-664.003	35.268	-0.083	0.091
-662.989	419.513	-0.044	0.120
-661.974	-49.738	0.135	0.081
-660.959	-32.396	0.144	0.101
-659.945	-59.937	0.266	0.143
-658.930	-182.909	0.093	0.002
-657.916	-39.891	0.082	-0.054
-656.901	-140.581	-0.336	-0.044
-655.886	800.000	-0.046	0.208
-654.872	71.578	-0.143	-0.188
-653.857	-135.111	0.113	0.017
-652.843	48.445	-0.151	0.178
-651.828	65.266	-0.125	-0.160
-650.814	800.000	0.104	0.521
-649.799	11.579	-0.173	-0.168
-648.784	282.841	-0.144	-0.327
-647.770	77.995	-0.270	0.364
-646.755	-200.000	0.034	-0.323
-645.741	-37.239	-0.277	-0.186
-644.726	-200.000	-0.058	-0.556
-643.711	210.621	-0.170	-0.337
-642.697	10.670	0.307	0.295
-641.682	800.000	-0.033	0.175
-640.668	-197.283	-0.434	0.003
-639.653	98.662	-0.273	0.398
-638.638	-155.646	0.432	0.035
-637.624	415.695	0.039	0.106
-636.609	-55.532	-0.237	-0.133
-635.595	-175.174	0.220	0.008
-634.580	800.000	-0.067	0.352
-633.565	-135.904	-0.386	0.057
-632.551	-21.056	0.322	0.248
-631.536	-44.332	-0.189	-0.119
-630.522	49.021	-0.261	0.309
-629.507	341.278	0.063	0.155
-628.492	-200.000	-0.008	0.051
-627.478	18.125	0.272	-0.273
-626.463	800.000	-0.055	-0.229
-625.449	117.718	0.438	-0.681
-624.434	800.000	-0.231	-0.887
-623.419	-2.199	0.374	0.331
-622.405	-71.799	0.386	-0.180
-621.390	-3.660	-0.277	-0.242
-620.376	-200.000	0.059	-0.335
-619.361	-91.610	-0.165	-0.059
-618.346	-0.136	-0.079	0.071
-617.332	120.363	0.230	0.360
-616.317	205.138	0.188	-0.368
-615.303	-144.377	0.183	-0.021
-614.288	-78.122	-0.296	0.128
-613.273	-29.052	0.470	0.339
-612.259	-125.836	0.197	-0.037
-611.244	564.880	0.033	0.101
-610.230	516.015	-0.216	0.639
-609.215	-200.000	0.014	-0.114
-608.201	12.584	-0.127	-0.123
-607.186	-141.329	-0.245	-0.031
-606.171	155.651	-0.255	0.443
-605.157	343.872	-0.094	-0.232
-604.142	-54.223	0.179	-0.102
-603.128	-200.000	-0.042	-0.511
-602.113	190.849	-0.072	0.136
-601.098	7.837	0.054	0.051
-600.084	-141.461	0.079	-0.010
-599.069	-131.250	-0.286	-0.047
-598.055	-23.952	-0.319	0.240
-597.040	-80.192	-0.581	-0.243
-596.025	206.759	0.084	-0.165
-595.011	13.910	0.163	-0.160
-593.996	257.725	-0.193	-0.419
-592.982	-200.000	0.052	-0.325
-591.967	9.815	-0.044	0.042
-590.952	-104.055	-0.342	-0.100
-589.938	-200.000	0.037	-0.428
-588.923	-186.346	0.438	-0.008
-587.909	-131.651	-0.204	0.033
-586.894	252.898	-0.113	-0.243
-585.879	41.194	-0.249	0.283
-584.865	-5.914	-0.037	0.032
-583.850	631.157	-0.162	0.520
-582.836	-195.715	0.181	0.002
-581.821	394.583	0.028	-0.073
-580.806	-113.277	0.159	-0.039
-579.792	-149.922	0.147	-0.014
-578.777	18.506	-0.364	-0.366
-577.763	-53.128	-0.267	0.154
-576.748	-200.000	-0.026	-0.279
-575.733	84.132	-0.216	0.297
-574.719	177.905	0.226	-0.415
-573.704	-98.110	-0.281	-0.090
-572.690	-128.976	-0.319	-0.056
-571.675	-179.770	-0.276	0.007
-570.661	-111.499	0.330	-0.084
-569.646	-98.217	0.348	0.112
-568.631	8.723	0.048	-0.045
-567.617	-200.000	0.036	-0.313
-566.602	81.785	-0.179	-0.244
-565.588	62.360	0.227	0.285
-564.573	-66.423	0.169	0.084
-563.558	-97.648	0.218	-0.071
-562.544	49.107	-0.256	0.302
-561.529	112.202	0.110	-0.167
-560.515	-81.746	-0.452	-0.185
-559.500	-190.232	-0.358	-0.005
-558.485	-12.479	0.170	0.139
-557.471	30.427	-0.129	-0.138
-556.456	-200.000	0.042	-0.273
-555.442	-132.311	0.543	-0.087
-554.427	31.339	0.346	0.374
-553.412	-200.000	-0.061	-0.436
-552.398	-119.523	-0.114	0.025
-551.383	-133.783	0.344	-0.053
-550.369	560.613	0.136	0.414
-549.354	-42.992	0.431	-0.274
-548.339	645.384	-0.066	-0.213
-547.325	-64.376	-0.430	0.219
-546.310	80.400	-0.304	-0.412
-545.296	328.555	0.140	-0.340
-544.281	-123.124	-0.304	0.061
-543.266	-61.503	-0.173	0.091
-542.252	89.056	-0.165	-0.232
-541.237	-62.462	0.344	0.179
-540.223	211.602	0.162	0.320
-539.208	416.430	-0.167	-0.450
-538.193	100.408	-0.392	-0.573
-537.179	256.487	-0.103	-0.222
-536.164	-82.142	-0.040	0.016
-535.150	138.130	-0.165	-0.272
-534.135	441.581	-0.074	-0.205
-533.121	130.559	0.189	-0.305
-532.106	85.044	0.094	0.129
-531.091	800.000	-0.072	0.270
-530.077	383.301	0.103	-0.267
-529.062	-56.537	-0.282	0.157
-528.048	155.153	-0.123	0.213
-527.033	-162.351	0.376	-0.023
-526.018	-200.000	0.012	0.076
-525.004	-65.923	0.240	0.120
-523.989	800.000	0.040	0.167
-522.975	-60.452	0.065	-0.035
-521.960	-63.909	0.358	-0.183
-520.945	-145.574	0.113	-0.013
-519.931	800.000	-0.052	0.239
-518.916	67.662	-0.265	0.340
-517.902	800.000	0.048	0.178
-516.887	142.630	0.231	0.386
-515.872	236.518	0.054	0.113
-514.858	-200.000	0.001	-0.047
-513.843	357.353	0.204	0.512
-512.829	-83.622	-0.205	-0.082
-511.814	-129.576	-0.205	-0.035
-510.799	20.369	-0.171	0.173
-509.785	-200.000	0.019	-0.192
-508.770	-200.000	0.044	-0.512
-507.756	198.094	-0.172	-0.331
-506.741	-200.000	0.017	-0.566
-505.726	390.070	0.202	-0.528
-504.712	18.593	0.216	0.216
-503.697	-36.769	-0.110	-0.074
-502.683	718.337	0.051	-0.170
-501.668	-162.080	0.176	-0.011
-500.653	-57.120	0.189	-0.104
-499.639	-3.295	0.165	-0.144
-498.624	-89.629	0.394	0.144
-497.610	-11.834	-0.103	-0.085
-496.595	-60.872	-0.134	-0.071
-495.581	800.000	0.062	0.253
-494.566	-29.421	0.155	-0.111
-493.551	-0.006	0.190	-0.169
-492.537	-116.601	-0.103	-0.024
-491.522	101.536	-0.130	-0.190
-490.508	800.000	0.006	-0.029
-489.493	-70.805	-0.101	-0.047
-488.478	800.000	-0.074	-0.290
-487.464	800.000	0.048	0.180
-486.449	-41.436	-0.135	-0.087
-485.435	34.421	0.100	0.109
-484.420	-60.586	-0.249	0.132
-483.405	-200.000	0.070	0.575
-482.391	-200.000	-0.017	0.472
-481.376	-104.804	0.578	-0.165
-480.362	83.767	0.247	-0.338
-479.347	800.000	-0.046	-0.176
-478.332	-18.294	-0.248	0.194
-477.318	111.358	-0.087	0.131
-476.303	32.571	-0.218	0.236
-475.289	41.990	-0.212	0.241
-474.274	800.000	-0.075	-0.368
-473.259	114.917	-0.189	0.290
-472.245	239.972	0.097	-0.203
-471.230	-121.589	0.332	0.068
-470.216	-137.923	0.098	0.014
-469.201	-200.000	0.086	-0.505
-468.186	-10.395	0.547	0.453
-467.172	-73.050	-0.257	-0.118
-466.157	-127.140	-0.424	-0.077
-465.143	-200.000	-0.071	0.407
-464.128	37.957	0.245	0.272
-463.113	659.348	-0.105	0.339
-462.099	195.516	-0.088	-0.169
-461.084	-138.356	0.356	-0.049
-460.070	-126.939	0.156	0.028
-459.055	-103.183	-0.101	0.030
-458.040	138.393	-0.116	-0.192
-457.026	-183.986	-0.314	-0.006
-456.011	-84.698	-0.467	-0.183
-454.997	-200.000	0.035	0.350
-453.982	-132.562	0.585	-0.093
-452.968	-200.000	0.010	-0.388
-451.953	18.703	-0.245	-0.245
-450.938	234.720	0.115	0.238
-449.924	-200.000	0.042	0.395
-448.909	42.435	0.088	0.100
-447.895	-7.849	0.150	0.127
-446.880	-87.469	0.219	-0.083
-445.865	-27.767	0.176	0.127
-444.851	-94.693	-0.483	0.163
-443.836	-113.982	0.331	-0.080
-442.822	-55.845	-0.392	0.218
-441.807	-111.416	-0.449	-0.114
-440.792	-56.377	0.229	-0.127
-439.778	150.642	0.148	-0.253
-438.763	302.956	0.142	-0.331
-437.749	-16.150	-0.189	0.150
-436.734	18.166	-0.193	-0.193
-435.719	91.035	0.104	0.147
-434.705	620.344	-0.089	-0.280
-433.690	-78.531	0.072	-0.031
-432.676	800.000	-0.056	-0.201
-431.661	254.102	0.290	-0.622
-430.646	85.486	0.161	-0.221
-429.632	-5.976	-0.234	-0.200
-428.617	-99.807	0.102	0.032
-427.603	-25.323	0.086	0.063
-426.588	-200.000	0.058	-0.370
-425.573	194.699	-0.192	-0.366
-424.559	-72.034	0.433	-0.200
-423.544	-200.000	-0.032	-0.321
-422.530	-200.000	0.075	-0.430
-421.515	6.368	-0.152	0.141
-420.500	-200.000	0.077	0.577
-419.486	447.667	-0.017	0.046
-418.471	342.574	0.037	-0.092
-417.457	-200.000	-0.115	0.000
-416.442	395.761	0.141	-0.370
-415.428	247.399	0.126	-0.266
-414.413	335.938	0.139	-0.340
-413.398	59.877	0.241	-0.297
-412.384	-55.346	-0.160	0.090
-411.369	800.000	-0.057	0.272
-410.355	-73.518	-0.399	0.181
-409.340	-28.188	0.006	0.005
-408.325	-200.000	-0.007	-0.151
-407.311	800.000	-0.074	0.323
-406.296	-68.851	0.809	0.388
-405.282	-138.056	0.175	0.024
-404.267	-19.055	-0.174	-0.135
-403.252	-200.000	0.040	0.557
-402.238	-200.000	-0.002	0.371
-401.223	709.011	0.199	0.663
-400.209	13.853	-0.062	-0.060
-399.194	82.765	-0.198	0.269
-398.179	544.844	0.041	0.123
-397.165	-85.752	0.323	-0.125
-396.150	-13.368	-0.762	0.616
-395.136	309.462	0.048	0.114
-394.121	-200.000	-0.030	0.320
-393.106	-200.000	0.009	0.309
-392.092	-39.844	0.220	0.143
-391.077	39.751	-0.168	0.188
-390.063	108.332	-0.215	-0.322
-389.048	131.317	0.092	-0.147
-388.033	-10.817	0.314	0.259
-387.019	-193.463	-0.289	-0.003
-386.004	-5.357	-0.220	0.188
-384.990	248.830	-0.242	-0.513
-383.975	-49.720	0.433	0.256
-382.960	-105.015	-0.367	-0.104
-381.946	-41.590	-0.160	0.103
-380.931	-200.000	0.007	-0.084
-379.917	158.125	0.254	0.440
-378.902	-200.000	0.000	-0.348
-377.888	-200.000	0.040	0.405
-376.873	-127.554	-0.300	0.054
-375.858	393.817	0.175	-0.456
-374.844	-6.624	-0.387	-0.329
-373.829	297.065	-0.148	0.340
-372.815	-49.477	0.219	0.130
-371.800	-151.172	0.065	-0.006
-370.785	53.535	0.083	0.099
-369.771	122.336	0.160	-0.249
-368.756	272.920	-0.204	0.450
-367.742	800.000	-0.097	-0.443
-366.727	29.542	0.218	0.231
-365.712	-77.237	0.329	-0.142
-364.698	-68.271	0.451	-0.218
-363.683	486.923	0.051	0.144
-362.669	-10.807	0.124	0.102
-361.654	-52.563	-0.320	-0.184
-360.639	-1.800	-0.197	0.173
-359.625	-30.130	0.169	0.120
-358.610	237.028	0.175	0.363
-357.596	-129.460	0.348	0.060
-356.581	-151.585	-0.075	-0.007
-355.566	183.854	-0.262	0.484
-354.552	285.179	0.093	0.210
-353.537	266.350	-0.043	0.093
-352.523	396.513	-0.121	-0.317
-351.508	-109.727	-0.127	-0.033
-350.493	-111.041	0.144	-0.037
-349.479	800.000	0.067	-0.237
-348.464	-41.182	0.404	-0.259
-347.450	-168.168	0.061	0.003
-346.435	49.251	-0.252	0.296
-345.420	-91.538	-0.231	0.081
-344.406	-128.648	-0.400	-0.070
-343.391	-200.000	0.039	0.474
-342.377	29.908	0.307	-0.326
-341.362	-200.000	-0.047	0.384
-340.348	12.008	-0.308	0.295
-339.333	99.861	0.317	-0.459
-338.318	159.261	-0.117	-0.204
-337.304	800.000	-0.111	-0.446
-336.289	-134.518	-0.546	-0.082
-335.275	554.216	-0.110	-0.332
-334.260	-61.294	-0.204	-0.107
-333.245	7.108	-0.369	-0.342
-332.231	205.130	0.243	-0.472
-331.216	-200.000	0.008	-0.090
-330.202	800.000	0.031	0.125
-329.187	-108.936	-0.082	-0.022
-328.172	800.000	-0.060	0.319
-327.158	-67.923	-0.057	-0.027
-326.143	-81.305	-0.271	0.111
-325.129	6.885	-0.264	-0.244
-324.114	-101.564	0.183	-0.055
-323.099	-147.245	0.164	-0.017
-322.085	25.141	-0.048	-0.049
-321.070	-39.906	-0.213	0.138
-320.056	-133.549	0.261	0.040
-319.041	-200.000	-0.067	-0.466
-318.026	-130.418	0.138	-0.023
-317.012	-21.171	0.367	-0.279
-315.997	-72.455	-0.210	-0.096
-314.983	-82.118	0.244	-0.099
-313.968	123.678	0.365	0.571
-312.953	-30.350	-0.166	0.117
-311.939	-30.384	-0.130	0.091
-310.924	250.368	0.154	-0.326
-309.910	800.000	-0.032	-0.114
-308.895	-36.260	-0.452	0.303
-307.880	-102.930	-0.234	-0.069
-306.866	-26.544	-0.141	-0.102
-305.851	489.055	0.117	-0.334
-304.837	-200.000	-0.013	-0.277
-303.822	41.667	-0.228	-0.257
-302.807	138.427	0.137	0.225
-301.793	-93.130	-0.109	0.038
-300.778	-122.403	-0.413	0.083
-299.764	-46.340	-0.123	-0.075
-298.749	-3.485	-0.357	0.309
-297.735	-87.050	-0.593	-0.224
-296.720	-154.538	-0.145	-0.012
-295.705	-43.037	-0.029	-0.019
-294.691	317.020	-0.027	-0.064
-293.676	29.300	0.197	0.208
-292.662	27.393	-0.378	-0.395
-291.647	-125.034	-0.213	-0.040
-290.632	-200.000	-0.023	0.419
-289.618	49.246	0.472	-0.552
-288.603	-32.345	0.291	-0.201
-287.589	-63.498	0.293	0.149
-286.574	10.809	0.198	0.188
-285.559	126.705	-0.280	-0.442
-284.545	115.474	-0.087	0.133
-283.530	-136.822	0.406	0.057
-282.516	-60.384	0.355	0.187
-281.501	-89.422	0.271	0.099
-280.486	800.000	0.083	0.351
-279.472	-118.480	-0.110	0.024
-278.457	83.650	0.169	0.230
-277.443	355.827	0.148	-0.369
-276.428	-120.317	-0.425	-0.089
-275.413	201.407	0.426	0.819
-274.399	-93.140	0.106	-0.036
-273.384	-8.791	0.149	0.124
-272.370	-82.257	0.168	0.068
-271.355	-200.000	-0.027	0.467
-270.340	-91.386	0.269	0.095
-269.326	22.752	0.351	0.357
-268.311	662.099	0.100	0.321
-267.297	-43.666	-0.068	-0.043
-266.282	-114.968	-0.672	-0.158
-265.267	-28.380	-0.412	-0.295
-264.253	443.013	-0.070	-0.192
-263.238	38.067	0.191	-0.212
-262.224	-200.000	-0.002	-0.160
-261.209	-100.294	-0.370	0.113
-260.195	428.550	0.028	0.075
-259.180	160.244	-0.152	0.264
-258.165	541.703	-0.238	0.708
-257.151	-148.960	-0.087	-0.009
-256.136	-49.859	0.151	-0.089
-255.122	-48.241	0.161	0.096
-254.107	-61.150	-0.230	0.120
-253.092	-200.000	-0.051	-0.315
-252.078	-49.415	-0.124	0.073
-251.063	-86.987	0.437	0.165
-250.049	64.018	0.177	-0.221
-249.034	-165.160	0.312	0.017
-248.019	45.091	0.243	-0.278
-247.005	248.083	-0.177	-0.373
-245.990	225.928	0.137	-0.277
-244.976	133.312	-0.062	-0.100
-243.961	-200.000	0.009	-0.294
-242.946	375.446	-0.196	0.498
-241.932	-200.000	-0.024	0.201
-240.917	-2.295	-0.235	-0.205
-239.903	800.000	0.050	-0.252
-238.888	160.784	0.079	-0.137
-237.873	-200.000	-0.016	-0.262
-236.859	-135.933	0.392	-0.057
-235.844	589.245	0.148	-0.454
-234.830	-136.755	0.544	-0.077
-233.815	-75.027	0.421	0.186
-232.800	333.480	0.030	0.072
-231.786	-35.369	0.189	-0.127
-230.771	56.175	-0.176	0.212
-229.757	227.454	0.034	-0.069
-228.742	-200.000	0.071	0.502
-227.727	-13.426	0.767	0.616
-226.713	-200.000	-0.016	0.271
-225.698	-143.417	-0.153	0.018
-224.684	52.931	0.269	0.320
-223.669	150.230	-0.126	-0.212
-222.655	-200.000	0.024	-0.320
-221.640	-137.339	-0.290	-0.040
-220.625	466.328	-0.047	0.130
-219.611	800.000	0.066	-0.325
-218.596	800.000	-0.070	-0.315
-217.582	580.471	0.134	-0.408
-216.567	-42.937	-0.136	-0.085
-215.552	-19.498	-0.387	-0.297
-214.538	-142.125	-0.182	-0.022
-213.523	-21.020	0.267	0.202
-212.509	635.439	-0.107	-0.337
-211.494	90.709	-0.125	0.174
-210.479	76.917	-0.297	-0.392
-209.465	-151.631	-0.391	0.035
-208.450	-91.341	-0.384	0.135
-207.436	-63.767	-0.342	0.173
-206.421	-115.727	0.394	-0.091
-205.406	-168.986	0.275	-0.013
-204.392	-64.238	0.265	-0.133
-203.377	37.195	-0.130	-0.142
-202.363	800.000	0.141	-0.509
-201.348	-107.133	-0.516	0.140
-200.333	-128.898	-0.199	0.034
-199.319	-69.477	-0.112	0.053
-198.304	304.418	-0.218	0.503
-197.290	-35.625	-0.303	-0.203
-196.275	-200.000	0.064	0.493
-195.260	-200.000	-0.011	0.194
-194.246	-78.567	-0.145	0.061
-193.231	-64.120	0.583	0.294
-192.217	-29.203	-0.390	0.276
-191.202	800.000	0.125	0.583
-190.187	-63.532	0.143	0.072
-189.173	-100.544	0.215	-0.065
-188.158	-79.009	0.377	0.158
-187.144	318.152	-0.143	-0.336
-186.129	-77.944	0.427	0.181
-185.114	135.144	0.242	0.391
-184.100	291.148	0.077	-0.174
-183.085	-200.000	-0.076	0.500
-182.071	-200.000	-0.022	0.305
-181.056	-200.000	-0.026	-0.168
-180.042	-200.000	0.004	-0.282
-179.027	56.801	0.431	0.520
-178.012	-36.805	-0.226	0.150
-176.998	180.390	-0.273	0.497
-175.983	-200.000	-0.020	0.209
-174.969	66.155	-0.210	0.264
-173.954	800.000	-0.052	0.254
-172.939	516.577	0.027	0.080
-171.925	-87.551	0.115	0.043
-170.910	-82.800	-0.101	0.040
-169.896	-77.751	0.229	0.098
-168.881	-83.140	0.453	-0.179
-167.866	122.648	-0.263	-0.408
-166.852	-200.000	-0.000	-0.019
-165.837	113.890	-0.328	0.494
-164.823	-168.706	0.047	-0.002
-163.808	-129.857	0.316	-0.053
-162.793	-73.528	0.313	0.141
-161.779	183.410	-0.078	-0.144
-160.764	68.189	0.373	0.473
-159.750	519.503	-0.122	0.356
-158.735	-124.327	0.411	0.079
-157.720	87.835	0.307	0.421
-156.706	-110.212	-0.361	0.093
-155.691	800.000	0.063	0.239
-154.677	46.802	-0.117	0.135
-153.662	-185.654	-0.167	-0.003
-152.647	49.377	0.152	0.177
-151.633	203.568	0.118	0.227
-150.618	-61.687	-0.104	0.054
-149.604	-35.275	-0.128	0.086
-148.589	-25.583	-0.230	-0.168
-147.574	-146.975	0.246	0.026
-146.560	202.419	-0.128	-0.244
-145.545	-134.053	-0.469	0.071
-144.531	800.000	-0.048	0.231
-143.516	800.000	-0.079	0.352
-142.502	262.573	0.111	-0.238
-141.487	148.684	-0.120	-0.201
-140.472	-35.961	-0.649	-0.433
-139.458	-171.240	-0.340	0.014
-138.443	-136.560	0.499	-0.071
-137.429	-133.555	-0.150	-0.023
-136.414	219.093	-0.076	0.151
-135.399	-5.201	0.214	0.182
-134.385	147.204	0.096	0.160
-133.370	-44.474	-0.278	0.171
-132.356	-200.000	-0.010	0.143
-131.341	800.000	-0.062	0.248
-130.326	17.427	-0.185	-0.181
-129.312	-13.253	0.240	-0.192
-128.297	214.918	-0.023	0.046
-127.283	228.201	-0.147	-0.296
-126.268	788.301	0.089	-0.303
-125.253	-153.493	-0.486	-0.041
-124.239	-71.859	-0.273	0.125
-123.224	64.279	-0.123	0.153
-122.210	174.133	0.179	-0.321
-121.195	-59.599	-0.267	-0.141
-120.180	-120.951	-0.143	-0.030
-119.166	722.151	0.114	-0.378
-118.151	800.000	0.073	0.263
-117.137	-200.000	0.025	0.176
-116.122	-30.392	-0.241	0.169
-115.107	800.000	0.024	-0.094
-114.093	-111.962	-0.080	0.020
-113.078	800.000	-0.028	-0.135
-112.064	10.033	0.104	-0.097
-111.049	-200.000	0.004	0.146
-110.034	-77.651	0.385	0.164
-109.020	91.982	0.252	-0.351
-108.005	800.000	0.056	0.302
-106.991	-95.071	-0.332	-0.110
-105.976	-200.000	0.003	-0.081
-104.962	157.512	0.172	-0.294
-103.947	800.000	-0.045	0.162
-102.932	-36.877	-0.211	-0.139
-101.918	71.424	-0.077	-0.099
-100.903	-69.281	-0.641	-0.303
-99.889	-99.425	-0.159	-0.049
-98.874	-5.234	-0.308	-0.261
-97.859	-200.000	-0.015	-0.138
-96.845	167.434	-0.125	-0.220
-95.830	-51.990	0.413	-0.236
-94.816	800.000	-0.009	0.030
-93.801	-200.000	0.025	-0.171
-92.786	-200.000	-0.004	-0.121
-91.772	157.606	0.153	0.263
-90.757	-200.000	-0.023	-0.263
-89.743	6.684	0.132	-0.121
-88.728	-200.000	-0.075	-0.447
-87.713	-133.981	-0.154	-0.023
-86.699	-200.000	-0.007	0.046
-85.684	800.000	-0.057	-0.230
-84.670	119.579	-0.173	-0.265
-83.655	-179.434	0.583	-0.016
-82.640	306.595	0.144	-0.332
-81.626	44.826	-0.043	0.049
-80.611	-63.812	-0.275	0.138
-79.597	-13.729	-0.069	0.055
-78.582	-141.572	0.559	-0.069
-77.567	-122.246	0.149	-0.030
-76.553	163.599	0.103	0.180
-75.538	47.529	0.059	-0.068
-74.524	-200.000	-0.057	-0.353
-73.509	800.000	0.098	0.355
-72.494	-200.000	-0.026	0.159
-71.480	-50.726	-0.168	0.097
-70.465	-200.000	-0.016	-0.170
-69.451	-200.000	0.039	-0.503
-68.436	388.179	0.079	-0.203
-67.422	-121.363	-0.578	0.118
-66.407	-160.005	-0.195	0.013
-65.392	-154.104	0.415	0.034
-64.378	-34.906	0.241	-0.162
-63.363	-200.000	-0.015	-0.084
-62.349	-200.000	-0.064	0.466
-61.334	31.979	-1.481	-1.573
-60.319	800.000	-0.029	0.158
-59.305	271.374	-2.692	-5.866
-58.290	2.617	2.732	2.438
-57.276	565.452	3.570	10.725
-56.261	-200.000	12.642	202.975
-55.246	521.395	1118.873	3251.696
-54.232	70.862	2765.878	3532.588
-53.217	77.545	2690.397	3532.311
-52.203	91.072	2424.021	3355.073
-51.188	36.223	2079.180	2257.351
-50.173	39.110	1947.533	2146.083
-49.159	37.461	1936.368	2115.686
-48.144	36.972	1931.632	2105.084
-47.130	36.714	1930.055	2100.473
-46.115	36.642	1928.504	2097.909
-45.100	36.528	1927.508	2095.505
-44.086	36.470	1925.770	2092.902
-43.071	36.510	1923.310	2090.574
-42.057	36.479	1922.429	2089.197
-41.042	36.539	1921.345	2088.596
-40.027	36.567	1919.834	2087.167
-39.013	36.382	1918.568	2083.710
-37.998	36.431	1916.902	2082.349
-36.984	36.501	1915.203	2081.177
-35.969	36.405	1915.039	2079.875
-34.954	36.236	1914.443	2077.311
-33.940	36.420	1912.924	2077.577
-32.925	36.391	1911.074	2075.165
-31.911	36.299	1910.407	2073.366
-30.896	36.382	1908.307	2071.900
-29.881	36.376	1907.575	2070.958
-28.867	36.479	1905.110	2069.311
-27.852	36.494	1903.287	2067.407
-26.838	36.250	1903.303	2064.726
-25.823	36.284	1901.539	2063.090
-24.809	36.306	1899.789	2061.343
-23.794	36.320	1898.612	2060.144
-22.779	36.282	1897.708	2058.673
-21.765	36.228	1896.965	2057.199
-20.750	36.192	1896.087	2055.783
-19.736	36.215	1894.702	2054.450
-18.721	36.240	1893.331	2053.146
-17.706	36.194	1891.860	2050.971
-16.692	36.102	1891.240	2049.239
-15.677	36.161	1889.814	2048.245
-14.663	36.228	1887.485	2046.355
-13.648	36.125	1886.967	2044.606
-12.633	36.036	1886.318	2042.876
-11.619	36.201	1883.657	2041.671
-10.604	36.161	1882.727	2040.155
-9.590	36.112	1881.564	2038.294
-8.575	36.069	1881.138	2037.292
-7.560	36.176	1879.281	2036.339
-6.546	36.057	1878.311	2033.945
-5.531	36.004	1877.407	2032.321
-4.517	36.076	1876.745	2032.294
-3.502	36.131	1875.492	2031.431
-2.487	36.153	1874.487	2030.493
-1.473	36.209	1871.739	2028.028
-0.458	36.724	1852.560	2012.558
0.556	32.681	1982.816	2096.388
1.571	31.400	2196.685	2306.354
2.586	33.210	2245.350	2380.081
3.600	33.174	2248.708	2382.899
4.615	33.306	2249.251	2384.865
5.629	33.159	2246.428	2379.719
6.644	33.349	2244.242	2379.528
7.659	33.562	2243.829	2381.495
8.673	33.743	2242.225	2381.789
9.688	32.691	2245.425	2371.599
10.702	28.876	2311.999	2391.848
11.717	24.852	2372.622	2400.137
12.731	12.890	2342.232	2208.959
13.746	2.203	2312.202	2037.688
14.761	0.463	2306.300	2008.970
15.775	0.272	2304.751	2004.825
16.790	0.205	2303.073	2002.232
17.804	0.241	2301.897	2001.451
18.819	0.272	2300.225	2000.179
19.834	0.268	2298.253	1998.170
20.848	0.147	2298.047	1996.132
21.863	0.133	2296.133	1994.044
22.877	0.174	2293.820	1992.342
23.892	0.175	2292.027	1990.562
24.907	0.126	2289.502	1987.486
25.921	0.128	2288.156	1986.093
26.936	0.216	2285.737	1984.922
27.950	0.189	2283.058	1982.004
28.965	0.243	2281.158	1980.840
29.980	0.231	2279.895	1979.346
30.994	0.401	2278.655	1980.269
32.009	6.618	2300.090	2081.310
33.023	22.336	2347.835	2335.577
34.038	30.317	2365.082	2459.230
35.053	31.321	2364.496	2471.687
36.067	31.024	2360.082	2462.843
37.082	30.815	2357.238	2456.805
38.096	30.943	2356.441	2457.383
39.111	31.292	2355.912	2461.157
40.126	31.353	2352.688	2458.303
41.140	31.523	2351.201	2458.694
42.155	31.377	2349.309	2454.498
43.169	30.968	2346.790	2446.181
44.184	31.161	2345.095	2446.664
45.199	31.039	2342.687	2442.249
46.213	30.702	2340.925	2435.685
47.228	30.669	2339.868	2433.867
48.242	31.105	2338.857	2438.250
49.257	31.386	2337.810	2440.559
50.271	31.725	2335.047	2441.821
51.286	31.741	2333.212	2439.814
52.301	31.020	2330.591	2427.353
53.315	30.336	2327.128	2414.513
54.330	29.307	2321.987	2395.462
55.344	28.715	2316.631	2381.931
56.359	28.691	2314.659	2379.313
57.374	28.490	2311.767	2373.434
58.388	28.345	2308.503	2367.919
59.403	28.267	2305.013	2363.047
60.417	28.292	2302.859	2360.880
61.432	28.588	2302.692	2364.264
62.447	28.561	2299.634	2360.493
63.461	28.481	2296.867	2356.330
64.476	28.345	2295.167	2352.544
65.490	28.690	2295.564	2357.128
66.505	28.809	2295.097	2357.904
67.520	29.425	2296.643	2367.157
68.534	30.448	2296.220	2379.611
69.549	30.735	2292.367	2379.030
70.563	30.984	2290.338	2379.835
71.578	31.034	2290.722	2380.589
72.593	31.657	2291.046	2388.625
73.607	31.824	2289.558	2388.927
74.622	32.014	2286.891	2388.297
75.636	31.778	2284.505	2382.496
76.651	31.620	2283.119	2378.756
77.666	32.073	2281.233	2382.288
78.680	31.973	2279.583	2379.004
79.695	31.452	2275.666	2367.999
80.709	30.389	2271.114	2349.471
81.724	30.281	2269.403	2346.038
82.739	31.448	2270.373	2361.590
83.753	32.311	2270.112	2371.986
84.768	32.041	2267.559	2365.610
85.782	31.760	2266.287	2360.447
86.797	31.820	2264.180	2358.724
87.812	31.373	2261.630	2350.134
88.826	31.334	2259.830	2347.498
89.841	31.803	2258.945	2352.208
90.855	32.283	2256.862	2355.811
91.870	31.509	2252.665	2341.409
92.884	31.182	2251.295	2335.597
93.899	31.492	2250.752	2338.646
94.914	30.634	2247.080	2323.790
95.928	28.875	2241.389	2295.561
96.943	28.466	2239.387	2288.112
97.957	30.344	2242.220	2314.297
98.972	31.645	2242.682	2330.791
99.987	31.267	2238.590	2321.536
101.001	31.223	2236.129	2318.155
102.016	31.307	2234.652	2317.391
103.030	31.205	2231.807	2312.888
104.045	31.346	2229.796	2312.293
105.060	31.851	2229.667	2318.152
106.074	32.036	2228.524	2318.980
107.089	31.484	2224.680	2307.866
108.103	31.230	2223.819	2303.541
109.118	31.694	2223.414	2308.595
110.133	32.038	2220.955	2310.033
111.147	31.949	2218.706	2306.314
112.162	31.872	2218.254	2304.616
113.176	31.906	2216.596	2303.032
114.191	31.743	2213.066	2297.080
115.206	31.636	2211.536	2293.908
116.220	31.910	2210.635	2296.061
117.235	31.451	2207.666	2287.062
118.249	31.237	2205.271	2281.685
119.264	31.307	2204.192	2281.158
120.279	31.284	2202.820	2279.173
121.293	31.129	2200.539	2274.649
122.308	31.045	2198.436	2271.172
123.322	30.649	2196.247	2263.791
124.337	29.733	2191.642	2247.593
125.352	28.726	2187.886	2231.180
126.366	29.291	2188.421	2238.359
127.381	30.767	2190.247	2257.972
128.395	31.751	2189.010	2268.405
129.410	31.433	2187.651	2262.862
130.424	31.217	2185.519	2257.761
131.439	31.418	2183.360	2257.697
132.454	31.107	2181.564	2251.791
133.468	31.555	2180.536	2255.889
134.483	31.755	2177.193	2254.586
135.497	31.476	2177.741	2251.506
136.512	32.134	2177.001	2258.428
137.527	32.248	2176.354	2258.861
138.541	32.159	2173.886	2254.956
139.556	32.093	2171.917	2251.851
140.570	31.914	2170.065	2247.509
141.585	31.642	2167.427	2241.234
142.600	31.521	2166.443	2238.492
143.614	31.575	2164.792	2237.168
144.629	31.843	2163.988	2239.286
145.643	31.585	2161.221	2233.061
146.658	31.251	2158.889	2226.380
147.673	30.666	2155.711	2215.835
148.687	30.879	2153.983	2216.346
149.702	31.023	2153.473	2217.275
150.716	31.339	2152.846	2220.133
151.731	32.199	2154.018	2231.354
152.746	32.587	2153.514	2235.195
153.760	31.264	2148.572	2214.038
154.775	29.019	2141.535	2179.827
155.789	28.145	2139.114	2166.700
156.804	29.814	2141.171	2188.397
157.819	31.063	2139.660	2201.417
158.833	31.187	2138.236	2201.162
159.848	31.651	2137.978	2206.126
160.862	31.940	2136.616	2207.880
161.877	32.231	2136.171	2210.590
162.892	32.149	2136.395	2209.590
163.906	32.493	2135.213	2212.168
164.921	32.448	2133.500	2209.591
165.935	32.220	2130.314	2203.345
166.950	31.657	2127.799	2193.851
167.964	31.428	2123.683	2186.649
168.979	31.323	2122.438	2183.882
169.994	31.717	2122.377	2188.175
171.008	31.575	2119.542	2183.335
172.023	31.287	2118.375	2178.494
173.037	31.876	2117.831	2184.569
174.052	31.764	2115.891	2181.000
175.067	31.452	2113.541	2174.665
176.081	31.264	2112.518	2171.162
177.096	31.453	2111.589	2172.151
178.110	31.423	2109.341	2169.227
179.125	31.148	2106.977	2163.336
180.140	31.362	2106.331	2164.899
181.154	31.486	2105.934	2165.678
182.169	31.400	2105.064	2163.528
183.183	30.776	2101.127	2151.970
184.198	29.360	2094.632	2128.648
185.213	28.815	2093.703	2121.124
186.227	30.596	2096.922	2144.808
187.242	31.134	2095.717	2149.554
188.256	31.104	2094.573	2147.775
189.271	31.618	2093.951	2152.826
190.286	31.509	2092.362	2149.667
191.300	31.034	2088.254	2139.711
192.315	31.072	2087.140	2138.752
193.329	31.797	2087.064	2146.772
194.344	32.195	2088.027	2152.089
195.359	32.045	2084.563	2146.535
196.373	32.115	2083.716	2146.211
197.388	32.085	2080.748	2142.556
198.402	31.784	2078.710	2136.755
199.417	31.945	2075.844	2135.393
200.432	31.915	2074.965	2133.893
201.446	31.869	2074.548	2132.675
202.461	31.690	2071.270	2127.012
203.475	31.280	2068.333	2119.064
204.490	31.367	2066.577	2118.004
205.504	31.536	2064.948	2118.007
206.519	31.243	2062.907	2112.321
207.534	31.504	2061.759	2113.865
208.548	32.122	2061.737	2120.608
209.563	31.300	2058.790	2107.998
210.577	31.295	2058.854	2107.759
211.592	32.069	2059.309	2116.741
212.607	31.139	2054.163	2100.688
213.621	28.379	2046.236	2061.163
214.636	28.350	2047.076	2061.435
215.650	30.942	2051.575	2095.062
216.665	32.195	2051.645	2109.023
217.680	32.415	2050.038	2109.597
218.694	32.335	2047.964	2106.313
219.709	31.507	2044.415	2093.107
220.723	31.514	2042.835	2091.312
221.738	32.189	2044.013	2099.860
222.753	32.529	2042.043	2101.397
223.767	32.332	2040.040	2096.871
224.782	31.754	2037.159	2087.187
225.796	31.812	2036.370	2086.786
226.811	32.476	2036.178	2093.758
227.826	32.252	2034.462	2089.243
228.840	32.166	2032.098	2085.603
229.855	31.763	2030.689	2079.412
230.869	31.429	2027.698	2072.388
231.884	31.397	2025.980	2070.021
232.899	31.786	2026.775	2074.921
233.913	31.999	2025.831	2076.071
234.928	32.222	2025.202	2077.661
235.942	31.944	2022.783	2071.842
236.957	31.545	2019.664	2063.980
237.972	31.473	2018.663	2061.910
238.986	31.587	2017.183	2061.410
240.001	31.169	2014.510	2053.811
241.015	30.853	2012.963	2048.492
242.030	31.240	2012.091	2051.637
243.045	29.818	2006.688	2030.214
244.059	29.297	2005.978	2023.500
245.074	31.052	2006.876	2043.513
246.088	31.468	2004.214	2045.137
247.103	31.336	2003.138	2042.346
248.117	31.759	2003.277	2046.885
249.132	32.006	2001.796	2047.831
250.147	31.671	1998.846	2040.909
251.161	31.083	1996.445	2031.775
252.176	31.477	1995.031	2034.395
253.190	31.415	1993.228	2031.636
254.205	31.331	1991.957	2029.186
255.220	31.405	1990.147	2027.909
256.234	31.236	1989.206	2024.862
257.249	31.156	1988.443	2022.967
258.263	31.321	1987.574	2023.641
259.278	31.694	1986.683	2026.553
260.293	31.853	1986.042	2027.384
261.307	31.755	1983.924	2023.909
262.322	31.779	1981.079	2021.030
263.336	31.280	1978.591	2012.849
264.351	31.138	1977.152	2009.605
265.366	31.469	1977.716	2013.514
266.380	31.818	1977.090	2016.420
267.395	31.557	1974.183	2010.386
268.409	31.571	1972.935	2009.028
269.424	31.905	1971.975	2011.413
270.439	31.736	1971.933	2009.304
271.453	31.622	1967.689	2003.515
272.468	29.456	1960.183	1972.390
273.482	28.427	1959.580	1960.497
274.497	30.490	1961.012	1983.857
275.512	31.589	1960.751	1995.141
276.526	31.665	1959.829	1994.781
277.541	31.477	1957.114	1989.766
278.555	31.016	1955.078	1982.531
279.570	31.129	1953.499	1981.905
280.585	30.912	1950.982	1976.793
281.599	31.238	1950.762	1979.813
282.614	31.240	1948.623	1977.421
283.628	29.707	1943.764	1955.967
284.643	28.592	1939.474	1939.572
285.657	28.093	1938.338	1932.914
286.672	28.064	1936.382	1930.418
287.687	27.870	1933.386	1925.142
288.701	28.049	1933.311	1926.732
289.716	28.066	1931.015	1924.396
290.730	27.106	1926.883	1909.917
291.745	27.719	1927.235	1916.504
292.760	28.254	1928.227	1922.918
293.774	29.495	1931.809	1939.371
294.789	31.365	1934.567	1961.655
295.803	31.819	1932.730	1964.352
296.818	31.516	1930.852	1959.012
297.833	31.700	1929.580	1959.428
298.847	31.644	1928.916	1957.931
299.862	31.448	1926.533	1953.221
300.876	31.120	1922.916	1945.873
301.891	29.614	1918.577	1925.492
302.906	29.058	1918.941	1919.800
303.920	30.676	1921.048	1938.635
304.935	31.848	1920.097	1949.711
305.949	31.871	1918.237	1947.831
306.964	32.009	1917.063	1947.845
307.979	31.402	1912.784	1936.944
308.993	28.803	1904.148	1900.980
310.008	26.251	1897.268	1867.404
311.022	25.916	1895.733	1862.194
312.037	26.558	1896.094	1868.990
313.052	26.650	1892.813	1866.486
314.066	25.919	1890.263	1856.181
315.081	26.166	1890.251	1858.507
316.095	26.367	1889.452	1859.571
317.110	26.642	1889.417	1862.155
318.125	26.935	1887.808	1863.374
319.139	26.625	1886.702	1858.866
320.154	26.805	1884.768	1858.588
321.168	26.636	1883.384	1855.257
322.183	28.480	1887.688	1878.286
323.197	30.943	1892.908	1908.649
324.212	31.769	1892.432	1916.439
325.227	31.620	1889.513	1911.720
326.241	31.660	1888.044	1910.419
327.256	32.019	1886.736	1912.545
328.270	31.646	1886.144	1907.896
329.285	31.617	1885.927	1907.152
330.300	31.220	1883.852	1900.756
331.314	28.882	1877.013	1869.764
332.329	28.550	1875.930	1865.062
333.343	30.573	1878.819	1888.394
334.358	31.774	1878.083	1899.676
335.373	32.033	1877.911	1901.911
336.387	32.369	1877.778	1904.978
337.402	32.387	1875.236	1902.355
338.416	32.123	1873.265	1897.442
339.431	32.052	1871.364	1894.567
340.446	31.985	1868.348	1890.615
341.460	29.719	1861.141	1860.201
342.475	28.181	1857.086	1840.394
343.489	27.416	1853.838	1829.229
344.504	27.048	1851.259	1822.758
345.519	26.958	1849.055	1819.459
346.533	26.631	1846.349	1813.284
347.548	26.232	1844.906	1807.646
348.562	26.327	1844.080	1807.569
349.577	26.322	1842.140	1805.400
350.592	26.448	1841.479	1805.809
351.606	26.273	1839.992	1802.371
352.621	25.920	1836.901	1795.602
353.635	25.697	1836.388	1792.648
354.650	27.224	1840.103	1811.360
355.665	29.733	1844.464	1840.585
356.679	30.848	1844.516	1851.564
357.694	31.080	1844.516	1853.663
358.708	31.544	1843.545	1857.093
359.723	31.030	1840.060	1848.245
360.738	29.056	1835.150	1823.454
361.752	28.934	1835.601	1822.472
362.767	30.688	1836.820	1840.928
363.781	31.517	1836.462	1848.583
364.796	31.924	1836.916	1852.864
365.810	32.054	1834.618	1851.610
366.825	31.234	1829.607	1838.225
367.840	28.210	1822.385	1800.893
368.854	25.912	1817.056	1772.722
369.869	25.804	1815.214	1769.639
370.883	26.242	1813.907	1772.478
371.898	26.261	1813.763	1772.315
372.913	26.493	1811.553	1772.225
373.927	26.010	1809.657	1765.411
374.942	26.189	1809.282	1766.588
375.956	27.186	1810.886	1777.753
376.971	27.309	1808.556	1776.454
377.986	27.016	1806.734	1771.581
379.000	26.982	1805.959	1770.282
380.015	27.266	1805.195	1772.097
381.029	29.361	1809.942	1797.087
382.044	31.454	1812.355	1819.771
383.059	31.916	1810.926	1822.637
384.073	31.538	1809.851	1817.646
385.088	31.768	1809.812	1819.633
386.102	31.805	1808.490	1818.446
387.117	31.662	1806.883	1815.215
388.132	31.792	1805.439	1814.821
389.146	31.273	1803.450	1807.557
390.161	29.079	1797.291	1779.869
391.175	28.685	1794.106	1772.674
392.190	30.061	1793.950	1785.651
393.205	31.009	1794.544	1795.206
394.219	31.353	1793.619	1797.391
395.234	31.314	1792.208	1795.392
396.248	31.460	1789.694	1794.066
397.263	31.423	1787.888	1791.684
398.278	31.255	1786.007	1787.964
399.292	31.046	1784.510	1784.244
400.307	30.383	1781.337	1774.497
401.321	28.741	1776.234	1753.459
402.336	27.775	1773.742	1741.521
403.350	27.762	1772.449	1739.921
404.365	28.163	1772.335	1743.441
405.380	28.048	1768.844	1738.697
406.394	26.588	1765.117	1720.891
407.409	26.138	1762.840	1714.176
408.423	26.135	1760.491	1711.656
409.438	26.016	1759.289	1709.147
410.453	25.930	1758.896	1707.745
411.467	26.044	1757.924	1707.681
412.482	26.504	1759.198	1713.092
413.496	29.360	1764.436	1745.200
414.511	31.287	1765.783	1764.638
415.526	31.405	1763.670	1763.440
416.540	31.493	1762.019	1762.405
417.555	31.078	1761.006	1757.253
418.569	30.467	1759.390	1749.648
419.584	30.451	1758.793	1748.694
420.599	30.270	1758.855	1746.839
421.613	30.488	1757.597	1747.437
422.628	30.653	1756.049	1747.243
423.642	31.013	1755.258	1749.647
424.657	30.281	1751.633	1738.929
425.672	29.920	1750.089	1733.789
426.686	30.404	1749.656	1737.708
427.701	30.274	1748.209	1734.848
428.715	30.116	1745.085	1730.053
429.730	30.213	1745.725	1731.394
430.745	30.883	1746.200	1737.942
431.759	31.403	1745.488	1741.897
432.774	31.522	1744.601	1741.918
433.788	29.516	1737.923	1716.314
434.803	27.038	1733.103	1688.230
435.818	26.583	1732.482	1683.171
436.832	26.481	1731.487	1681.047
437.847	25.778	1724.530	1667.556
438.861	16.895	1697.571	1559.521
439.876	3.828	1673.137	1417.125
440.890	0.508	1667.083	1381.321
441.905	0.295	1665.647	1378.011
442.920	0.152	1664.327	1375.435
443.934	0.087	1663.131	1373.688
444.949	0.188	1661.071	1372.750
445.963	0.260	1660.620	1372.871
446.978	0.011	1661.267	1370.958
447.993	0.133	1659.713	1370.627
449.007	0.163	1657.226	1368.683
450.022	0.158	1654.886	1366.544
451.036	0.236	1653.427	1365.887
452.051	1.445	1661.275	1383.276
453.066	13.246	1688.072	1514.644
454.080	24.950	1705.335	1638.222
455.095	27.296	1710.635	1664.729
456.109	29.614	1715.735	1690.848
457.124	30.845	1715.347	1701.579
458.139	29.925	1712.691	1690.293
459.153	29.212	1710.482	1681.375
460.168	29.191	1709.050	1679.572
461.182	29.470	1708.090	1680.984
462.197	30.042	1707.211	1685.148
463.212	30.356	1706.932	1687.544
464.226	31.068	1707.583	1694.489
465.241	31.327	1706.689	1695.768
466.255	31.323	1705.431	1694.275
467.270	31.345	1704.836	1693.685
468.285	31.786	1704.611	1697.267
469.299	32.449	1704.161	1702.649
470.314	32.460	1701.824	1700.214
471.328	32.376	1700.756	1698.179
472.343	32.351	1700.079	1697.075
473.358	32.357	1698.528	1695.377
474.372	32.312	1697.586	1693.822
475.387	32.618	1697.305	1696.108
476.401	32.645	1695.083	1693.929
477.416	31.984	1693.007	1685.687
478.430	32.053	1691.773	1684.884
479.445	32.087	1691.406	1684.618
480.460	32.322	1689.475	1684.611
481.474	32.443	1688.522	1684.552
482.489	32.643	1687.625	1685.253
483.503	32.136	1684.928	1677.808
484.518	31.753	1683.180	1672.427
485.533	32.009	1682.339	1673.683
486.547	32.052	1680.947	1672.482
487.562	31.445	1679.198	1665.112
488.576	31.798	1678.359	1667.236
489.591	32.287	1677.881	1670.937
490.606	32.457	1677.637	1672.009
491.620	32.519	1675.749	1670.484
492.635	32.434	1673.897	1667.682
493.649	31.671	1670.163	1656.976
494.664	31.642	1669.070	1655.439
495.679	32.191	1669.202	1660.242
496.693	32.204	1668.563	1659.524
497.708	32.471	1667.603	1660.741
498.722	32.366	1666.176	1658.189
499.737	32.496	1664.552	1657.531
500.752	32.509	1663.526	1656.419
501.766	32.506	1662.246	1654.926
502.781	32.643	1660.211	1653.910
503.795	32.642	1659.189	1652.680
504.810	32.476	1658.355	1650.192
505.825	32.328	1657.535	1647.872
506.839	31.852	1654.890	1640.862
507.854	31.641	1653.380	1637.315
508.868	31.374	1650.815	1632.233
509.883	30.670	1647.419	1622.507
510.898	29.948	1645.333	1613.938
511.912	29.751	1643.153	1609.881
512.927	29.465	1641.274	1605.347
513.941	29.315	1639.982	1602.584
514.956	29.943	1640.632	1608.508
515.971	30.877	1640.139	1615.983
516.985	30.418	1637.710	1609.400
518.000	29.645	1636.167	1600.965
519.014	29.683	1634.609	1599.574
520.029	29.667	1633.265	1597.928
521.043	29.566	1631.704	1595.334
522.058	29.585	1630.345	1593.979
523.073	29.632	1630.261	1594.117
524.087	29.908	1629.728	1595.796
525.102	30.451	1629.014	1599.607
526.116	31.187	1629.441	1606.201
527.131	31.772	1629.767	1611.389
528.146	31.947	1629.493	1612.444
529.160	32.136	1628.757	1613.152
530.175	32.321	1627.680	1613.488
531.189	32.491	1626.068	1613.161
532.204	32.314	1624.796	1610.178
533.219	32.162	1623.752	1607.647
534.233	32.213	1622.238	1606.394
535.248	31.506	1620.828	1598.731
536.262	31.490	1618.514	1596.122
537.277	31.852	1619.015	1599.527
538.292	32.300	1618.551	1602.721
539.306	32.326	1616.726	1600.948
540.321	31.866	1614.478	1594.594
541.335	31.473	1612.762	1589.350
542.350	31.915	1611.577	1591.763
543.365	32.267	1610.478	1593.490
544.379	32.528	1610.183	1595.229
545.394	32.503	1608.067	1592.728
546.408	31.853	1606.204	1585.176
547.423	31.913	1605.675	1584.969
548.438	32.377	1605.851	1588.898
549.452	32.647	1604.068	1589.232
550.467	32.080	1601.528	1581.722
551.481	32.051	1600.260	1580.038
552.496	32.202	1599.649	1580.520
553.511	32.166	1598.978	1579.368
554.525	32.310	1598.566	1579.986
555.540	32.291	1598.048	1579.119
556.554	32.436	1596.860	1578.986
557.569	32.165	1594.449	1574.126
558.583	31.707	1591.217	1566.898
559.598	31.481	1590.332	1563.938
560.613	31.510	1589.139	1562.824
561.627	31.088	1587.862	1557.840
562.642	30.711	1584.668	1551.359
563.656	30.181	1582.253	1544.374
564.671	29.962	1580.359	1540.512
565.686	29.861	1579.409	1538.559
566.700	29.825	1577.508	1536.220
567.715	29.790	1576.263	1534.533
568.729	29.956	1576.265	1535.734
569.744	30.647	1575.710	1540.764
570.759	30.936	1573.916	1541.232
571.773	30.367	1573.028	1535.444
572.788	30.046	1571.606	1531.208
573.802	29.939	1569.408	1527.998
574.817	29.833	1567.496	1525.070
575.832	29.793	1566.687	1523.772
576.846	30.415	1567.329	1529.363
577.861	31.150	1567.175	1535.112
578.875	31.373	1566.997	1536.599
579.890	31.709	1567.001	1539.189
580.905	31.974	1566.307	1540.514
581.919	31.952	1565.882	1539.731
582.934	32.179	1564.488	1540.043
583.948	31.843	1563.061	1535.689
584.963	31.938	1561.074	1534.334
585.978	31.742	1559.495	1530.986
586.992	31.384	1557.691	1526.097
588.007	31.347	1557.334	1525.266
589.021	31.146	1555.672	1521.807
590.036	30.222	1552.742	1511.194
591.051	30.781	1552.841	1515.688
592.065	31.430	1552.302	1520.280
593.080	31.556	1551.041	1519.894
594.094	31.817	1549.005	1519.843
595.109	31.615	1548.562	1517.580
596.123	32.273	1547.652	1521.864
597.138	32.407	1546.641	1521.780
598.153	32.007	1544.884	1516.623
599.167	31.480	1542.775	1510.089
600.182	31.402	1541.369	1507.899
601.196	31.581	1541.283	1509.093
602.211	31.985	1540.750	1511.660
603.226	31.759	1539.077	1508.005
604.240	32.021	1537.372	1508.272
605.255	32.035	1536.542	1507.396
606.269	31.932	1535.316	1505.181
607.284	31.753	1534.308	1502.565
608.299	31.600	1532.701	1499.578
609.313	31.487	1530.701	1496.535
610.328	31.169	1529.617	1492.739
611.342	31.200	1528.511	1491.731
612.357	31.254	1526.680	1490.199
613.372	30.783	1525.908	1485.494
614.386	30.620	1524.180	1482.323
615.401	30.750	1523.224	1482.262
616.415	30.541	1521.415	1478.654
617.430	30.024	1519.815	1472.792
618.445	29.882	1517.574	1469.304
619.459	29.850	1516.745	1468.069
620.474	29.763	1516.050	1466.530
621.488	30.229	1516.619	1470.620
622.503	31.169	1516.272	1477.593
623.518	30.571	1513.751	1470.211
624.532	29.889	1511.739	1462.663
625.547	29.767	1510.133	1459.962
626.561	29.713	1509.616	1458.860
627.576	29.675	1508.698	1457.500
628.591	29.980	1507.474	1458.557
629.605	30.352	1507.657	1461.507
630.620	30.854	1507.550	1465.198
631.634	31.721	1507.364	1471.692
632.649	31.758	1506.110	1470.579
633.663	30.847	1503.540	1460.714
634.678	30.139	1500.903	1452.408
635.693	29.662	1498.893	1446.538
636.707	29.735	1497.052	1445.162
637.722	29.741	1496.368	1444.376
638.736	30.192	1496.433	1447.801
639.751	30.718	1496.772	1452.089
640.766	30.930	1495.614	1452.448
641.780	31.068	1494.051	1451.836
642.795	31.356	1493.487	1453.371
643.809	31.495	1493.196	1453.994
644.824	31.663	1493.531	1455.464
645.839	31.934	1492.136	1456.045
646.853	31.744	1490.904	1453.186
647.868	31.517	1488.926	1449.315
648.882	31.308	1487.300	1445.934
649.897	31.096	1485.958	1442.812
650.912	31.062	1484.248	1440.714
651.926	31.169	1483.162	1440.312
652.941	31.197	1481.998	1439.231
653.955	30.916	1480.202	1435.141
654.970	30.365	1477.061	1427.664
655.985	29.984	1475.286	1422.833
656.999	29.906	1473.837	1420.668
658.014	29.931	1473.217	1420.090
659.028	30.504	1473.309	1424.422
660.043	30.835	1473.562	1427.047
661.058	31.078	1472.377	1427.600
662.072	31.201	1471.950	1427.965
663.087	31.025	1470.711	1425.240
664.101	31.057	1468.912	1423.570
665.116	31.149	1468.423	1423.629
666.131	31.124	1467.559	1422.427
667.145	31.245	1466.583	1422.237
668.160	31.139	1465.219	1419.933
669.174	30.869	1463.563	1416.098
670.189	31.090	1462.822	1416.897
671.204	31.400	1461.996	1418.295
672.218	31.440	1461.264	1417.717
673.233	31.461	1460.086	1416.569
674.247	31.380	1458.842	1414.571
675.262	31.123	1457.918	1411.555
676.276	30.946	1456.198	1408.373
677.291	31.157	1455.700	1409.324
678.306	31.493	1455.222	1411.248
679.320	31.359	1452.966	1407.877
680.335	30.907	1451.673	1403.030
681.349	31.098	1451.309	1403.956
682.364	31.087	1449.695	1402.148
683.379	30.696	1448.409	1397.781
684.393	30.375	1446.606	1393.455
685.408	30.296	1445.418	1391.544
686.422	30.172	1443.789	1388.876
687.437	29.853	1442.840	1385.398
688.452	29.592	1441.441	1381.927
689.466	29.564	1439.543	1379.730
690.481	29.614	1437.975	1378.438
691.495	29.766	1438.022	1379.461
692.510	30.834	1439.017	1388.257
693.525	31.589	1438.237	1392.988
694.539	31.034	1436.178	1386.679
695.554	29.925	1433.911	1376.047
696.568	29.622	1432.385	1372.152
697.583	29.333	1432.166	1369.623
698.598	29.727	1431.216	1371.488
699.612	29.860	1430.440	1371.568
700.627	30.310	1429.672	1374.022
701.641	30.623	1429.559	1376.080
702.656	31.051	1427.800	1377.396
703.671	30.893	1427.135	1375.421
704.685	30.997	1427.419	1376.297
705.700	30.995	1425.844	1374.601
706.714	30.686	1423.307	1369.706
707.729	30.752	1421.710	1368.493
708.744	30.674	1421.020	1367.084
709.758	30.372	1419.230	1362.974
710.773	29.973	1416.832	1357.565
711.787	29.758	1416.467	1355.468
712.802	30.219	1415.488	1357.768
713.816	30.541	1415.331	1359.818
714.831	30.710	1414.473	1360.077
715.846	30.622	1413.206	1358.048
716.860	30.571	1411.707	1356.070
717.875	30.620	1410.083	1354.706
718.889	30.503	1409.453	1353.081
719.904	30.427	1409.200	1352.119
720.919	30.319	1407.478	1349.517
721.933	30.242	1406.208	1347.579
722.948	30.203	1404.889	1345.866
723.962	30.397	1403.946	1346.218
724.977	30.484	1403.073	1345.856
725.992	30.477	1402.744	1345.323
727.006	30.707	1401.913	1346.036
728.021	30.873	1400.025	1345.273
729.035	30.716	1399.544	1343.508
730.050	30.851	1398.120	1342.958
731.065	30.807	1396.950	1341.356
732.079	30.596	1395.670	1338.443
733.094	30.625	1395.140	1337.980
734.108	30.849	1394.448	1338.777
735.123	30.679	1392.646	1335.657
736.138	30.519	1391.158	1332.920
737.152	30.534	1389.987	1331.744
738.167	30.411	1389.215	1329.962
739.181	30.521	1388.141	1329.562
740.196	30.577	1387.798	1329.479
741.211	30.382	1386.494	1326.667
742.225	30.186	1385.013	1323.691
743.240	30.182	1383.555	1322.107
744.254	29.931	1381.409	1318.107
745.269	29.769	1380.325	1315.755
746.284	29.526	1379.321	1312.904
747.298	29.500	1378.452	1311.731
748.313	29.392	1378.462	1310.808
749.327	29.839	1378.252	1313.648
750.342	30.728	1378.464	1320.036
751.356	31.633	1378.121	1325.991
752.371	31.346	1376.091	1321.844
753.386	29.994	1373.652	1309.733
754.400	29.915	1372.355	1307.785
755.415	30.342	1371.567	1309.908
756.429	30.659	1370.755	1311.219
757.444	30.795	1369.724	1311.041
758.459	30.765	1368.209	1309.219
759.473	30.289	1367.129	1304.668
760.488	30.065	1365.146	1301.034
761.502	29.840	1364.157	1298.355
762.517	30.035	1363.393	1298.844
763.532	30.257	1362.634	1299.529
764.546	30.141	1360.494	1296.519
765.561	29.666	1359.414	1291.996
766.575	29.233	1358.199	1287.645
767.590	29.213	1357.331	1286.530
768.605	29.929	1356.218	1290.338
769.619	30.045	1356.082	1290.867
770.634	30.078	1355.250	1290.148
771.648	30.000	1353.227	1287.525
772.663	29.844	1352.417	1285.511
773.678	29.870	1352.513	1285.631
774.692	30.439	1351.421	1288.407
775.707	30.275	1351.442	1287.130
776.721	30.326	1350.045	1286.003
777.736	30.275	1348.851	1284.356
778.751	30.181	1348.652	1283.357
779.765	30.371	1347.308	1283.244
780.780	30.299	1346.377	1281.706
781.794	30.206	1345.882	1280.435
782.809	29.869	1343.932	1276.088
783.824	29.399	1341.622	1270.488
784.838	29.547	1341.631	1271.370
785.853	30.440	1341.760	1277.519
786.867	30.205	1340.329	1274.378
787.882	29.725	1338.572	1269.246
788.897	29.434	1337.550	1266.119
789.911	29.299	1336.331	1263.884
790.926	29.245	1335.398	1262.477
791.940	29.519	1333.879	1262.775
792.955	29.515	1333.081	1261.842
793.969	29.393	1332.388	1260.196
794.984	29.638	1331.510	1260.895
795.999	29.941	1330.838	1262.183
797.013	30.052	1329.162	1261.200
798.028	30.151	1327.990	1260.618
799.042	30.076	1327.589	1259.575
800.057	30.031	1326.539	1258.115
801.072	30.004	1324.799	1256.135
802.086	29.899	1323.313	1253.860
803.101	29.889	1322.759	1253.119
804.115	29.853	1321.780	1251.791
805.130	29.879	1320.235	1250.361
806.145	29.834	1319.201	1248.921
807.159	29.642	1317.677	1246.028
808.174	29.953	1317.017	1247.364
809.188	29.862	1315.742	1245.389
810.203	29.601	1314.366	1242.176
811.218	29.543	1312.248	1239.632
812.232	29.378	1310.205	1236.446
813.247	28.836	1309.939	1232.392
814.261	29.416	1310.247	1236.444
815.276	29.880	1309.272	1238.495
816.291	29.584	1308.797	1235.908
817.305	29.369	1307.332	1232.931
818.320	29.592	1306.117	1233.137
819.334	29.839	1305.695	1234.246
820.349	29.734	1304.472	1232.240
821.364	29.858	1302.997	1231.525
822.378	29.811	1301.365	1229.521
823.393	29.809	1299.725	1227.815
824.407	29.978	1298.048	1227.212
825.422	29.631	1297.957	1224.664
826.437	29.752	1296.413	1223.865
827.451	29.509	1294.910	1220.686
828.466	29.624	1294.634	1221.044
829.480	30.100	1293.406	1222.898
830.495	29.812	1290.493	1218.094
831.509	29.278	1289.624	1213.594
832.524	29.316	1288.844	1212.964
833.539	29.553	1288.208	1213.790
834.553	29.687	1287.352	1213.717
835.568	29.739	1285.701	1212.360
836.582	29.771	1284.854	1211.624
837.597	29.821	1283.555	1210.586
838.612	29.659	1281.905	1207.818
839.626	29.354	1280.623	1204.464
840.641	29.300	1279.813	1203.203
841.655	29.172	1279.470	1201.901
842.670	28.890	1278.586	1199.078
843.685	28.824	1276.194	1196.260
844.699	29.074	1275.364	1196.971
845.714	29.245	1274.262	1196.911
846.728	29.177	1273.883	1195.967
847.743	29.275	1272.920	1195.561
848.758	29.292	1271.983	1194.644
849.772	29.520	1271.175	1195.228
850.787	29.548	1269.473	1193.669
851.801	29.482	1268.601	1192.278
852.816	29.524	1267.353	1191.236
853.831	29.477	1266.039	1189.550
854.845	29.481	1263.867	1187.394
855.860	29.420	1262.027	1185.126
856.874	29.300	1261.054	1183.300
857.889	29.482	1260.520	1183.830
858.904	29.719	1259.854	1184.587
859.918	30.183	1259.176	1186.798
860.933	30.451	1258.592	1187.824
861.947	30.118	1256.898	1183.949
862.962	29.496	1254.756	1177.800
863.977	29.429	1252.890	1175.481
864.991	29.348	1252.595	1174.545
866.006	29.211	1252.433	1173.376
867.020	29.517	1251.069	1173.912
868.035	29.518	1250.008	1172.785
869.049	29.511	1249.539	1172.160
870.064	29.585	1248.600	1171.610
871.079	29.661	1247.289	1170.725
872.093	29.233	1247.376	1167.939
873.108	29.139	1246.200	1166.098
874.122	29.020	1244.626	1163.730
875.137	28.924	1243.614	1162.031
876.152	28.965	1242.301	1160.927
877.166	29.015	1240.387	1159.315
878.181	29.132	1239.001	1158.621
879.195	29.005	1238.438	1157.156
880.210	29.211	1238.551	1158.427
881.225	29.340	1237.762	1158.364
882.239	29.336	1236.905	1157.397
883.254	29.390	1236.321	1157.050
884.268	29.415	1235.188	1156.009
885.283	29.628	1233.287	1155.430
886.298	29.525	1231.694	1153.155
887.312	29.497	1231.097	1152.283
888.327	29.492	1230.128	1151.204
889.341	29.538	1228.680	1150.002
890.356	29.407	1228.203	1148.599
891.371	29.371	1228.205	1148.234
892.385	29.161	1227.442	1146.074
893.400	29.330	1226.227	1145.856
894.414	29.216	1224.848	1143.716
895.429	29.471	1224.119	1144.493
896.444	30.284	1223.996	1149.305
897.458	31.249	1223.159	1154.379
898.473	30.542	1221.682	1148.459
899.487	29.925	1219.622	1142.556
900.502	29.568	1218.244	1138.917
901.517	29.430	1216.987	1136.755
902.531	29.562	1215.623	1136.160
903.546	29.479	1215.270	1135.177
904.560	29.427	1214.768	1134.256
905.575	29.404	1213.736	1133.014
906.589	29.450	1212.527	1132.028
907.604	29.260	1211.519	1129.785
