DTS Sentinel unit serial number:	SN409020Multiplexer serial number:	ORYXHardware model number:	OX4-SRSoftware version number:	ORYX F/W v3.00 Oryx Data Collector v3.7.2.0data status	okinstallation	HaddamTimeLapsedifferential loss correction	single-endedforward channel	channel 3reverse channel	N/Adate	2011/06/21time	22:41:17forward acquisition time	30.00reverse acquisition time	0.00gamma	498.7831k internal	0.1755k external	0.1755temperature offset calibration	1.0074default loss term (dB/km)	0.3790temperature slope calibration	1.3530multiplexer offset coefficient	1.0000multiplexer slope coefficient	1.0000fibre end	0.00T internal ref (°C)	23.84T ext. ref 1 (°C)	18.67T ext. ref 2 (°C)	0.05length (m)	temperature (°C)	Stokes	anti-Stokes-747.200	181.817	-0.057	0.111
-746.185	4.901	-0.318	0.310
-745.171	-132.568	0.295	0.050
-744.156	-15.194	-0.225	0.191
-743.142	675.641	0.127	0.440
-742.127	-5.734	-0.570	0.517
-741.112	-200.000	0.020	-0.198
-740.098	-54.313	-0.222	0.133
-739.083	-66.152	-0.157	-0.082
-738.069	-200.000	0.018	0.308
-737.054	166.899	-0.194	0.366
-736.039	166.198	-0.102	-0.192
-735.025	-193.566	0.407	-0.005
-734.010	-200.000	0.004	0.223
-732.996	-129.698	0.153	0.028
-731.981	125.068	0.196	-0.327
-730.966	-125.049	-0.891	-0.180
-729.952	65.407	0.072	0.097
-728.937	55.857	-0.248	0.319
-727.923	381.374	-0.069	-0.190
-726.908	-34.499	-0.113	0.081
-725.894	-177.464	-0.237	0.008
-724.879	-103.731	0.175	0.054
-723.864	113.212	-0.092	0.148
-722.850	125.813	-0.222	0.372
-721.835	339.566	-0.128	0.332
-720.821	-200.000	0.100	-0.000
-719.806	-32.348	0.147	-0.108
-718.791	-200.000	-0.015	0.316
-717.777	-141.890	0.370	-0.048
-716.762	-37.881	0.298	-0.209
-715.748	-74.704	-0.580	-0.275
-714.733	-71.289	0.276	-0.137
-713.718	-28.571	0.499	-0.380
-712.704	-200.000	0.009	-0.275
-711.689	-200.000	0.069	-0.509
-710.675	-99.542	-0.112	0.037
-709.660	-33.407	-0.467	0.341
-708.645	-131.205	0.248	-0.043
-707.631	-160.000	0.397	0.028
-706.616	-81.034	0.392	-0.171
-705.602	334.741	0.199	-0.511
-704.587	286.832	0.097	0.232
-703.572	-200.000	-0.028	-0.262
-702.558	130.100	0.199	-0.338
-701.543	-200.000	0.000	0.435
-700.529	524.160	0.115	0.359
-699.514	-115.355	-0.624	-0.155
-698.499	-200.000	-0.030	-0.294
-697.485	31.095	0.042	0.048
-696.470	28.163	-0.247	-0.276
-695.456	-151.451	0.331	-0.032
-694.441	-200.000	0.069	-0.580
-693.426	-128.404	0.273	-0.051
-692.412	-100.564	0.441	-0.143
-691.397	-52.870	-0.100	0.061
-690.383	-125.876	0.336	0.066
-689.368	217.713	-0.163	-0.346
-688.354	335.235	-0.065	-0.168
-687.339	57.015	0.082	-0.105
-686.324	-200.000	-0.014	0.191
-685.310	-47.501	0.089	-0.057
-684.295	800.000	-0.060	-0.230
-683.281	56.306	-0.238	0.306
-682.266	115.322	0.080	-0.129
-681.251	-170.238	-0.524	0.024
-680.237	120.460	-0.147	0.241
-679.222	332.676	0.118	-0.302
-678.208	28.740	0.011	0.012
-677.193	-35.143	0.586	-0.421
-676.178	204.704	0.290	-0.596
-675.164	-79.472	0.411	0.183
-674.149	-25.119	-0.175	-0.137
-673.135	14.837	-0.199	-0.206
-672.120	-128.746	0.160	-0.030
-671.105	212.601	0.105	0.220
-670.091	265.352	0.033	-0.076
-669.076	-60.248	-0.382	-0.214
-668.062	-102.895	0.180	0.056
-667.047	-95.633	0.319	0.112
-666.032	56.597	-0.225	0.289
-665.018	-127.573	-0.163	0.031
-664.003	-131.817	-0.189	-0.032
-662.989	3.849	-0.129	0.124
-661.974	-200.000	-0.011	-0.136
-660.959	-1.949	-0.264	-0.245
-659.945	-151.050	0.368	0.036
-658.930	132.729	-0.099	0.169
-657.916	-145.501	-0.258	0.030
-656.901	800.000	-0.085	-0.332
-655.886	-48.288	-0.245	-0.156
-654.872	12.903	-0.322	-0.329
-653.857	183.481	0.265	-0.519
-652.843	-173.037	-0.383	-0.015
-651.828	546.871	0.197	-0.626
-650.814	-200.000	0.018	-0.589
-649.799	120.210	-0.130	-0.214
-648.784	-29.846	0.179	-0.134
-647.770	103.774	-0.318	-0.493
-646.755	-90.203	-0.199	0.076
-645.741	12.414	-0.012	-0.012
-644.726	-90.582	0.307	0.117
-643.711	800.000	-0.031	0.143
-642.697	-191.500	0.417	0.005
-641.682	800.000	-0.062	0.245
-640.668	-48.330	0.101	-0.064
-639.653	800.000	-0.085	-0.377
-638.638	-115.077	-0.474	-0.118
-637.624	-200.000	0.028	-0.330
-636.609	94.512	0.174	0.262
-635.595	288.130	0.123	0.295
-634.580	390.928	0.126	-0.346
-633.565	312.276	-0.151	-0.376
-632.551	56.514	0.184	-0.237
-631.536	-140.678	-0.019	0.003
-630.522	501.234	0.185	-0.566
-629.507	8.854	-0.169	-0.168
-628.492	101.896	0.232	-0.358
-627.478	-43.065	0.457	-0.305
-626.463	50.517	-0.121	0.152
-625.449	-99.769	-0.521	-0.171
-624.434	-108.545	-0.706	-0.199
-623.419	66.722	0.463	-0.623
-622.405	-200.000	-0.061	-0.374
-621.390	-5.300	0.110	-0.100
-620.376	-42.755	-0.295	-0.197
-619.361	219.823	-0.067	0.141
-618.346	-109.313	0.238	-0.066
-617.332	91.641	-0.264	-0.393
-616.317	-168.679	0.285	-0.014
-615.303	-171.632	-0.371	-0.016
-614.288	-124.565	-0.451	0.092
-613.273	-137.553	-0.275	0.040
-612.259	-200.000	-0.020	-0.288
-611.244	1.318	-0.200	-0.189
-610.230	12.018	0.221	-0.224
-609.215	-27.071	-0.195	0.149
-608.201	101.406	-0.261	-0.401
-607.186	-67.845	0.113	-0.058
-606.171	-200.000	0.010	0.167
-605.157	-200.000	-0.011	0.109
-604.142	-79.227	-0.301	-0.134
-603.128	800.000	-0.045	-0.197
-602.113	94.768	0.193	0.290
-601.098	-46.410	-0.171	-0.110
-600.084	21.537	0.263	0.282
-599.069	-200.000	-0.022	0.180
-598.055	13.535	0.302	-0.309
-597.040	-115.090	0.264	-0.066
-596.025	-182.423	-0.586	0.014
-595.011	-200.000	-0.004	-0.070
-593.996	222.423	-0.132	-0.281
-592.982	-27.136	0.091	0.070
-591.967	-74.910	-0.047	0.022
-590.952	-143.032	0.164	-0.021
-589.938	-71.089	-0.073	0.036
-588.923	-29.700	0.338	-0.254
-587.909	-152.999	-0.218	-0.020
-586.894	-189.089	0.177	0.003
-585.879	33.324	-0.436	0.498
-584.865	11.114	0.236	-0.237
-583.850	-121.061	-0.131	-0.029
-582.836	-200.000	-0.015	0.332
-581.821	-41.022	0.395	-0.268
-580.806	-69.847	0.360	-0.180
-579.792	28.843	-0.380	0.424
-578.777	-130.021	-0.120	-0.021
-577.763	-200.000	-0.017	0.147
-576.748	-85.363	0.183	-0.075
-575.733	-149.778	0.516	0.053
-574.719	16.345	0.211	-0.219
-573.704	800.000	0.040	-0.189
-572.690	-200.000	-0.062	0.599
-571.675	-23.826	-0.263	0.207
-570.661	-46.243	0.357	-0.231
-569.646	36.017	-0.244	0.282
-568.631	-134.912	-0.410	0.065
-567.617	42.846	-0.388	0.466
-566.602	-57.539	0.111	0.064
-565.588	142.697	-0.184	0.322
-564.573	-193.922	0.623	0.007
-563.558	-200.000	-0.012	0.090
-562.544	-46.460	0.276	0.177
-561.529	-13.128	0.524	-0.447
-560.515	-200.000	0.037	-0.429
-559.500	-47.777	0.089	0.056
-558.485	-117.867	-0.495	-0.116
-557.471	-86.123	0.118	0.048
-556.456	705.293	-0.032	0.113
-555.442	-125.052	0.234	-0.047
-554.427	-200.000	0.005	0.185
-553.412	119.071	0.121	0.198
-552.398	49.860	-0.256	-0.318
-551.383	-32.989	-0.397	-0.289
-550.369	-87.144	-0.175	-0.070
-549.354	-137.819	0.764	-0.111
-548.339	-54.826	-0.021	-0.013
-547.325	76.578	0.294	-0.411
-546.310	800.000	-0.033	0.165
-545.296	-127.647	-0.506	0.096
-544.281	9.209	-0.187	0.186
-543.266	-41.802	-0.179	0.120
-542.252	675.777	0.026	0.090
-541.237	-125.554	-0.120	0.024
-540.223	-149.635	0.351	0.036
-539.208	278.245	0.067	0.158
-538.193	153.616	-0.132	-0.238
-537.179	-60.345	0.155	-0.086
-536.164	-137.017	-0.311	-0.046
-535.150	-75.746	0.358	0.166
-534.135	20.526	0.209	0.222
-533.121	-131.960	0.281	-0.048
-532.106	-167.917	-0.362	-0.018
-531.091	800.000	-0.010	0.056
-530.077	-163.648	-0.166	-0.010
-529.062	-75.433	-0.158	0.073
-528.048	-91.452	-0.532	-0.199
-527.033	-8.816	0.221	-0.195
-526.018	197.566	0.143	0.288
-525.004	-126.440	-0.552	0.107
-523.989	-13.106	-0.196	0.167
-522.975	-19.305	0.216	-0.176
-521.960	414.628	0.080	-0.226
-520.945	210.635	-0.053	-0.109
-519.931	297.377	-0.120	-0.291
-518.916	-1.362	0.110	-0.102
-517.902	800.000	-0.091	-0.507
-516.887	301.157	0.021	0.051
-515.872	-119.983	-0.428	-0.096
-514.858	800.000	0.064	-0.308
-513.843	104.815	0.240	0.372
-512.829	-43.992	0.275	0.181
-511.814	-80.996	0.308	-0.133
-510.799	356.808	-0.249	-0.654
-509.785	-44.829	-0.377	0.246
-508.770	-70.698	-0.245	0.121
-507.756	-85.643	0.206	-0.083
-506.741	-200.000	0.009	-0.228
-505.726	-173.798	0.342	0.013
-504.712	-59.042	0.425	0.240
-503.697	609.224	0.080	0.264
-502.683	-200.000	0.023	0.197
-501.668	97.631	-0.135	-0.205
-500.653	237.962	0.102	-0.224
-499.639	-200.000	0.021	-0.341
-498.624	14.469	0.205	-0.210
-497.610	-200.000	0.025	0.218
-496.595	-200.000	0.032	-0.210
-495.581	-53.557	0.559	0.335
-494.566	241.417	0.094	-0.208
-493.551	800.000	0.062	-0.242
-492.537	536.627	0.264	0.827
-491.522	157.601	0.088	-0.160
-490.508	18.388	-0.114	0.119
-489.493	21.415	-0.328	0.350
-488.478	-85.804	0.070	0.028
-487.464	-88.918	-0.054	0.021
-486.449	-165.775	0.515	-0.029
-485.435	16.225	-0.370	-0.383
-484.420	-200.000	-0.003	-0.227
-483.405	-85.399	-0.428	0.174
-482.391	-97.855	0.329	-0.111
-481.376	-88.689	0.365	0.142
-480.362	-200.000	-0.029	0.281
-479.347	-170.006	0.327	-0.015
-478.332	541.743	-0.030	-0.094
-477.318	-38.724	-0.195	-0.134
-476.303	-62.140	0.243	-0.132
-475.289	-98.264	0.265	0.089
-474.274	-45.285	-0.575	-0.373
-473.259	65.933	-0.404	-0.537
-472.245	53.348	0.185	-0.232
-471.230	-49.431	-0.145	0.091
-470.216	-13.590	0.045	0.038
-469.201	-114.846	0.346	-0.086
-468.186	40.865	0.389	0.460
-467.172	-200.000	0.022	0.196
-466.157	-125.453	0.341	-0.068
-465.143	-200.000	0.041	0.379
-464.128	220.038	-0.081	0.170
-463.113	-200.000	-0.067	0.639
-462.099	-125.041	-0.300	-0.060
-461.084	-14.156	0.195	0.164
-460.070	-132.045	0.300	-0.051
-459.055	-43.231	-0.339	0.224
-458.040	65.524	-0.252	-0.334
-457.026	-200.000	0.067	-0.420
-456.011	-124.034	-0.153	0.031
-454.997	-157.425	-0.185	-0.014
-453.982	800.000	0.157	0.633
-452.968	800.000	-0.047	0.213
-451.953	34.874	0.231	0.265
-450.938	-34.361	0.164	0.117
-449.924	31.303	-0.115	0.129
-448.909	-82.154	0.517	0.220
-447.895	-83.434	0.133	-0.056
-446.880	269.395	-0.163	0.376
-445.865	128.078	0.140	-0.234
-444.851	617.605	0.061	-0.202
-443.836	115.144	0.127	-0.204
-442.822	-15.130	-0.174	0.146
-441.807	-41.236	-0.319	-0.215
-440.792	-33.368	0.277	0.200
-439.778	-51.457	-0.501	0.306
-438.763	447.842	0.124	0.358
-437.749	-200.000	-0.034	-0.257
-436.734	220.968	-0.035	0.074
-435.719	-200.000	-0.004	0.593
-434.705	-153.027	-0.291	0.026
-433.690	-134.312	0.150	-0.024
-432.676	-90.241	-0.572	-0.216
-431.661	800.000	-0.060	-0.278
-430.646	-27.543	-0.541	0.411
-429.632	-50.311	0.303	0.187
-428.617	-48.003	-0.151	0.095
-427.603	263.146	0.091	-0.209
-426.588	-200.000	-0.008	-0.093
-425.573	247.291	0.142	0.315
-424.559	-85.648	0.337	0.136
-423.544	-146.034	0.468	-0.054
-422.530	237.281	-0.309	0.672
-421.515	-98.100	0.407	0.136
-420.500	233.212	0.166	0.359
-419.486	280.501	0.130	0.305
-418.471	84.329	-0.457	0.655
-417.457	-40.410	0.391	0.265
-416.442	517.722	0.096	0.295
-415.428	-72.213	0.048	-0.023
-414.413	-173.695	0.093	0.004
-413.398	-200.000	-0.003	-0.173
-412.384	-86.824	0.539	-0.214
-411.369	800.000	0.034	0.181
-410.355	800.000	0.076	0.289
-409.340	-23.410	-0.309	0.243
-408.325	-164.914	0.373	-0.021
-407.311	-156.392	0.132	0.011
-406.296	-52.311	-0.242	0.146
-405.282	107.639	-0.342	-0.534
-404.267	-25.470	0.304	0.234
-403.252	-21.178	0.185	0.148
-402.238	-10.777	-0.445	0.384
-401.223	-28.101	-0.155	0.117
-400.209	800.000	0.011	0.051
-399.194	-10.008	-0.253	0.220
-398.179	-60.342	0.333	0.185
-397.165	358.430	-0.129	0.337
-396.150	-54.163	0.307	0.182
-395.136	-110.354	-0.440	-0.119
-394.121	573.776	0.170	0.544
-393.106	70.053	0.183	-0.247
-392.092	121.697	-0.155	0.253
-391.077	-200.000	-0.058	0.474
-390.063	228.264	0.070	-0.149
-389.048	43.363	0.090	-0.107
-388.033	193.082	-0.140	0.278
-387.019	800.000	-0.060	-0.248
-386.004	-27.967	0.133	0.100
-384.990	-99.661	-0.338	-0.110
-383.975	-148.826	0.346	0.036
-382.960	147.251	0.209	-0.369
-381.946	-46.664	0.229	0.146
-380.931	-92.809	0.120	0.043
-379.917	-111.688	-0.449	0.118
-378.902	-200.000	-0.033	-0.199
-377.888	-72.600	-0.174	0.083
-376.873	647.458	-0.061	0.206
-375.858	21.633	0.289	-0.307
-374.844	-50.711	-0.242	-0.148
-373.829	-34.821	-0.310	-0.221
-372.815	-56.095	-0.100	0.058
-371.800	609.894	0.069	-0.227
-370.785	800.000	-0.020	-0.103
-369.771	-85.504	-0.143	0.058
-368.756	-167.478	-0.339	0.017
-367.742	-27.602	0.239	-0.181
-366.727	-200.000	0.000	0.122
-365.712	-119.602	0.527	0.118
-364.698	653.062	0.042	-0.141
-363.683	235.793	-0.183	-0.397
-362.669	-117.962	-0.522	0.121
-361.654	-200.000	-0.040	-0.831
-360.639	-200.000	0.024	-0.332
-359.625	75.335	0.228	-0.314
-358.610	-156.506	0.047	0.004
-357.596	655.610	-0.109	0.366
-356.581	800.000	0.018	0.087
-355.566	-200.000	0.009	0.162
-354.552	800.000	0.023	-0.092
-353.537	-113.289	-0.526	-0.134
-352.523	493.826	-0.075	0.225
-351.508	359.722	0.052	-0.137
-350.493	50.568	-0.379	0.468
-349.479	-116.040	-0.393	0.095
-348.464	-105.359	0.434	0.128
-347.450	-179.513	-0.221	0.006
-346.435	-94.889	-0.484	-0.170
-345.420	55.879	-0.211	0.267
-344.406	-13.116	0.367	0.311
-343.391	-120.020	-0.282	0.063
-342.377	512.668	0.092	-0.282
-341.362	-200.000	0.052	-0.370
-340.348	37.354	-0.439	0.508
-339.333	-81.620	-0.475	0.203
-338.318	-200.000	-0.027	0.253
-337.304	299.664	-0.126	-0.304
-336.289	-200.000	0.014	0.276
-335.275	-25.713	-0.041	0.031
-334.260	-17.035	0.172	0.142
-333.245	148.453	-0.073	-0.129
-332.231	466.781	-0.030	0.088
-331.216	649.597	-0.130	0.437
-330.202	-138.521	-0.539	0.076
-329.187	-14.669	0.350	-0.293
-328.172	-200.000	0.009	0.434
-327.158	-53.544	-0.257	0.153
-326.143	-130.272	-0.489	0.086
-325.129	-142.949	0.184	-0.023
-324.114	3.925	0.193	-0.184
-323.099	430.199	-0.083	0.234
-322.085	800.000	0.069	0.268
-321.070	-200.000	0.025	-0.210
-320.056	800.000	-0.074	-0.298
-319.041	-14.970	-0.214	-0.178
-318.026	-35.141	-0.163	0.116
-317.012	-90.846	0.165	-0.062
-315.997	-121.816	0.318	-0.068
-314.983	145.991	-0.173	-0.302
-313.968	-67.708	0.311	0.158
-312.953	542.822	-0.086	-0.267
-311.939	-41.284	0.036	0.024
-310.924	-41.239	-0.066	0.044
-309.910	-200.000	-0.082	-0.558
-308.895	-135.821	0.320	0.049
-307.880	-85.726	0.226	-0.091
-306.866	-200.000	0.461	0.002
-305.851	-183.052	-0.226	-0.005
-304.837	-9.488	-0.051	0.044
-303.822	80.622	-0.066	-0.093
-302.807	135.499	-0.073	-0.124
-301.793	-180.500	0.674	-0.018
-300.778	-0.314	0.093	0.086
-299.764	-77.180	0.150	-0.068
-298.749	-93.119	0.270	-0.097
-297.735	-61.433	-0.377	0.206
-296.720	62.939	0.205	-0.268
-295.705	33.869	-0.064	0.073
-294.691	-200.000	0.008	-0.094
-293.676	800.000	0.135	0.506
-292.662	430.328	0.072	-0.205
-291.647	-64.521	0.106	0.056
-290.632	-200.000	-0.019	0.220
-289.618	-73.618	0.496	0.235
-288.603	-117.182	0.402	0.094
-287.589	-200.000	-0.001	-0.018
-286.574	-138.497	0.477	0.068
-285.559	-25.391	0.119	-0.091
-284.545	85.578	-0.239	-0.342
-283.530	28.612	-0.235	0.259
-282.516	-14.066	-0.180	0.151
-281.501	800.000	0.022	-0.088
-280.486	61.853	0.070	0.091
-279.472	131.416	0.279	-0.467
-278.457	800.000	-0.031	-0.172
-277.443	-20.343	-0.113	-0.090
-276.428	-101.336	-0.391	0.123
-275.413	-78.998	0.493	-0.217
-274.399	-124.146	0.629	0.127
-273.384	800.000	-0.130	0.497
-272.370	-46.320	0.091	0.058
-271.355	91.451	-0.232	-0.340
-270.340	83.939	-0.192	-0.274
-269.326	-28.897	0.277	-0.207
-268.311	-171.024	-0.237	0.010
-267.297	-24.800	-0.207	0.160
-266.282	-82.716	-0.175	-0.073
-265.267	24.435	-0.470	0.505
-264.253	-92.836	0.208	0.075
-263.238	-17.059	0.266	0.218
-262.224	-74.383	0.207	-0.097
-261.209	800.000	0.065	-0.236
-260.195	-100.390	0.734	0.235
-259.180	-117.582	0.492	0.115
-258.165	-125.656	-0.098	-0.019
-257.151	-119.346	-0.462	0.104
-256.136	76.195	-0.281	0.387
-255.122	269.572	0.047	-0.107
-254.107	-148.788	0.893	0.093
-253.092	-37.221	-0.268	-0.186
-252.078	-97.064	-0.264	-0.089
-251.063	-119.898	-0.313	0.069
-250.049	-17.664	0.030	-0.024
-249.034	41.928	-0.245	-0.289
-248.019	-98.470	-0.259	0.086
-247.005	-193.514	-0.419	0.005
-245.990	-6.117	-0.067	-0.059
-244.976	93.972	-0.135	-0.199
-243.961	-200.000	-0.079	0.506
-242.946	31.482	-0.213	-0.238
-241.932	0.243	-0.174	0.161
-240.917	-125.851	0.619	0.120
-239.903	-42.614	-0.113	-0.075
-238.888	407.007	0.094	0.259
-237.873	800.000	0.138	0.589
-236.859	-200.000	-0.033	0.506
-235.844	-200.000	0.007	-0.152
-234.830	-155.692	-0.395	-0.032
-233.815	7.198	0.368	-0.356
-232.800	-76.841	-0.155	-0.070
-231.786	179.854	0.217	-0.414
-230.771	-1.605	-0.297	0.271
-229.757	-44.670	0.295	-0.191
-228.742	-50.977	-0.281	0.171
-227.727	270.193	0.072	0.164
-226.713	-118.166	-0.197	-0.045
-225.698	70.508	0.272	0.365
-224.684	253.737	0.090	-0.200
-223.669	9.920	0.361	0.356
-222.655	-118.615	-0.261	-0.059
-221.640	-119.763	-0.329	0.073
-220.625	-19.973	0.130	0.104
-219.611	104.996	0.194	-0.297
-218.596	-47.326	0.617	-0.389
-217.582	-111.671	0.402	-0.105
-216.567	-83.733	0.279	-0.115
-215.552	229.781	-0.158	-0.337
-214.538	-59.376	0.273	0.152
-213.523	-200.000	-0.003	-0.097
-212.509	-124.393	0.414	0.083
-211.494	77.065	-0.175	-0.242
-210.479	-33.535	-0.130	0.093
-209.465	-200.000	-0.058	0.360
-208.450	63.644	-0.194	-0.253
-207.436	121.269	-0.183	-0.296
-206.421	-200.000	0.000	-0.029
-205.406	278.122	0.133	-0.308
-204.392	5.689	-0.214	0.205
-203.377	7.516	-0.363	0.352
-202.363	-165.196	-0.108	0.006
-201.348	-162.767	0.167	-0.010
-200.333	-189.088	-0.273	-0.004
-199.319	-23.227	-0.202	-0.157
-198.304	-75.223	0.552	-0.255
-197.290	-12.459	0.042	-0.036
-196.275	800.000	-0.105	0.405
-195.260	800.000	-0.033	-0.146
-194.246	-200.000	-0.024	-0.400
-193.231	-200.000	0.002	0.465
-192.217	102.548	0.385	0.585
-191.202	10.672	-0.183	0.181
-190.187	-200.000	0.212	-0.001
-189.173	72.202	0.189	0.256
-188.158	14.999	-0.346	-0.351
-187.144	251.242	0.240	-0.532
-186.129	-55.293	0.119	-0.069
-185.114	-163.354	-0.315	0.019
-184.100	119.372	-0.147	-0.237
-183.085	-149.801	-0.407	-0.041
-182.071	66.335	-0.265	0.349
-181.056	800.000	-0.043	-0.175
-180.042	50.047	0.190	-0.233
-179.027	47.640	-0.172	-0.208
-178.012	-76.990	-0.435	0.196
-176.998	-200.000	-0.003	-0.226
-175.983	68.884	-0.232	0.309
-174.969	-200.000	0.057	0.440
-173.954	-44.837	0.156	-0.100
-172.939	-142.631	-0.229	-0.029
-171.925	-81.648	-0.334	0.142
-170.910	-119.061	0.163	-0.037
-169.896	245.342	0.030	-0.066
-168.881	-62.619	0.228	-0.122
-167.866	-200.000	0.040	-0.671
-166.852	-76.194	-0.273	0.124
-165.837	-39.685	0.065	0.044
-164.823	-200.000	0.030	-0.386
-163.808	-69.113	-0.341	-0.169
-162.793	-134.420	0.221	0.035
-161.779	800.000	-0.128	-0.519
-160.764	148.546	-0.116	-0.203
-159.750	583.821	-0.016	-0.053
-158.735	-89.986	-0.327	-0.123
-157.720	324.850	-0.030	0.074
-156.706	91.675	0.288	0.421
-155.691	-60.263	0.057	0.031
-154.677	86.315	-0.202	-0.289
-153.662	54.837	0.131	0.164
-152.647	108.596	0.214	-0.332
-151.633	98.797	0.143	-0.214
-150.618	121.105	0.257	-0.415
-149.604	289.813	-0.066	0.156
-148.589	-22.856	0.237	0.185
-147.574	-106.502	0.428	0.123
-146.560	-36.349	0.312	-0.217
-145.545	-122.361	0.406	-0.085
-144.531	208.779	0.092	0.186
-143.516	-200.000	-0.009	0.253
-142.502	189.825	0.067	-0.130
-141.487	71.557	0.288	0.388
-140.472	464.513	0.101	0.294
-139.458	-38.017	-0.182	-0.125
-138.443	-72.635	0.358	-0.170
-137.429	-115.765	0.347	0.083
-136.414	61.972	0.096	0.123
-135.399	238.249	-0.201	-0.433
-134.385	800.000	-0.042	0.173
-133.370	-200.000	-0.083	-0.596
-132.356	-162.868	0.396	-0.025
-131.341	-137.268	-0.219	0.032
-130.326	106.681	-0.030	0.045
-129.312	623.032	-0.084	-0.276
-128.297	-200.000	-0.014	0.354
-127.283	-124.555	-0.265	-0.053
-126.268	-111.577	-0.204	0.053
-125.253	288.143	0.126	-0.296
-124.239	9.049	0.168	-0.164
-123.224	-200.000	0.042	0.370
-122.210	800.000	-0.025	-0.104
-121.195	-165.770	-0.135	-0.007
-120.180	-11.975	-0.506	0.428
-119.166	-200.000	0.003	-0.344
-118.151	-27.192	-0.371	-0.279
-117.137	103.865	-0.134	-0.204
-116.122	0.333	0.338	-0.312
-115.107	800.000	-0.092	-0.349
-114.093	20.085	-0.086	0.090
-113.078	-137.265	-0.289	-0.042
-112.064	-162.483	0.142	-0.009
-111.049	-130.448	-0.507	0.088
-110.034	-27.542	-0.201	0.151
-109.020	94.586	-0.168	-0.248
-108.005	166.301	0.211	-0.388
-106.991	-76.356	0.303	-0.137
-105.976	24.185	-0.461	-0.492
-104.962	77.197	0.157	0.216
-103.947	5.413	-0.192	-0.183
-102.932	-23.075	-0.503	0.391
-101.918	800.000	0.058	-0.259
-100.903	2.254	0.189	-0.176
-99.889	474.216	-0.115	0.337
-98.874	117.351	0.085	0.135
-97.859	-97.376	0.329	-0.110
-96.845	552.057	-0.241	-0.753
-95.830	35.447	0.112	-0.128
-94.816	800.000	0.055	-0.226
-93.801	800.000	-0.053	-0.291
-92.786	800.000	-0.076	0.407
-91.772	800.000	-0.088	0.318
-90.757	-45.410	-0.390	0.249
-89.743	-200.000	-0.146	-0.000
-88.728	800.000	-0.069	-0.314
-87.713	-39.477	0.306	0.207
-86.699	800.000	0.065	0.268
-85.684	800.000	-0.059	-0.262
-84.670	-200.000	-0.064	-0.568
-83.655	62.422	0.296	-0.383
-82.640	-63.642	0.241	0.127
-81.626	800.000	-0.072	0.303
-80.611	-160.841	0.537	-0.036
-79.597	-105.783	0.550	0.159
-78.582	24.707	0.019	-0.020
-77.567	35.297	0.339	-0.384
-76.553	-137.057	-0.097	0.014
-75.538	9.650	-0.334	-0.327
-74.524	-34.680	0.225	-0.158
-73.509	-71.099	-0.222	-0.107
-72.494	-19.752	0.243	-0.194
-71.480	96.727	0.188	0.279
-70.465	-34.650	0.476	0.336
-69.451	-200.000	-0.047	0.481
-68.436	-168.688	0.075	0.004
-67.422	626.969	-0.067	0.218
-66.407	-71.404	-0.561	-0.270
-65.392	800.000	0.054	-0.208
-64.378	800.000	-0.088	-0.420
-63.363	81.198	-0.060	-0.084
-62.349	-95.473	-0.572	0.197
-61.334	46.212	-2.156	-2.578
-60.319	68.918	1.322	1.754
-59.305	212.531	-3.465	-7.075
-58.290	54.038	3.704	4.598
-57.276	331.756	4.028	10.067
-56.261	-200.000	22.028	315.517
-55.246	359.886	1297.038	3362.823
-54.232	52.964	2851.047	3521.165
-53.217	52.162	2665.717	3279.755
-52.203	33.314	2395.445	2681.910
-51.188	29.027	2061.961	2255.757
-50.173	25.555	1947.339	2089.796
-49.159	24.669	1936.586	2067.873
-48.144	24.116	1932.032	2056.515
-47.130	24.087	1929.058	2052.927
-46.115	24.175	1927.791	2052.523
-45.100	24.245	1925.778	2051.109
-44.086	24.120	1926.103	2049.919
-43.071	23.999	1924.183	2046.403
-42.057	23.971	1923.160	2044.902
-41.042	24.129	1920.265	2043.569
-40.027	24.126	1919.848	2043.015
-39.013	23.967	1918.653	2039.824
-37.998	24.096	1915.416	2037.789
-36.984	24.090	1914.830	2037.017
-35.969	24.043	1914.395	2035.928
-34.954	23.910	1913.025	2032.860
-33.940	24.024	1911.280	2032.240
-32.925	24.087	1909.603	2031.091
-31.911	24.048	1908.853	2029.771
-30.896	23.906	1907.871	2027.023
-29.881	23.907	1906.579	2025.575
-28.867	23.962	1904.862	2024.305
-27.852	23.829	1903.787	2021.561
-26.838	23.837	1901.747	2019.404
-25.823	23.865	1900.052	2017.837
-24.809	23.807	1899.972	2017.017
-23.794	23.873	1898.680	2016.315
-22.779	23.811	1896.641	2013.365
-21.765	23.908	1894.792	2012.431
-20.750	23.879	1894.502	2011.709
-19.736	23.796	1893.073	2009.166
-18.721	23.714	1892.183	2007.215
-17.706	23.842	1890.402	2006.696
-16.692	23.712	1889.523	2004.206
-15.677	23.735	1888.797	2003.617
-14.663	23.794	1886.607	2001.885
-13.648	23.696	1884.554	1998.519
-12.633	23.785	1883.721	1998.567
-11.619	23.631	1883.204	1996.191
-10.604	23.636	1882.803	1995.748
-9.590	23.724	1880.139	1993.832
-8.575	23.695	1879.677	1992.938
-7.560	23.778	1877.819	1991.828
-6.546	23.816	1876.613	1990.898
-5.531	23.694	1875.075	1987.814
-4.517	23.615	1874.724	1986.477
-3.502	23.709	1873.782	1986.451
-2.487	23.678	1873.043	1985.247
-1.473	23.877	1868.796	1982.893
-0.458	23.536	1850.058	1959.147
0.556	19.804	1995.926	2056.741
1.571	18.241	2200.090	2246.240
2.586	18.990	2238.130	2294.861
3.600	19.032	2241.573	2298.679
4.615	19.061	2240.198	2297.379
5.629	18.989	2238.852	2294.752
6.644	18.978	2236.328	2291.747
7.659	18.979	2234.986	2290.114
8.673	19.042	2232.028	2287.647
9.688	18.758	2241.639	2293.411
10.702	17.963	2321.697	2363.975
11.717	16.247	2386.817	2405.435
12.731	7.749	2365.858	2262.897
13.746	1.091	2348.336	2151.106
14.761	0.229	2344.414	2134.978
15.775	0.088	2342.584	2131.053
16.790	0.096	2341.129	2129.583
17.804	0.073	2339.423	2127.456
18.819	0.046	2338.317	2125.814
19.834	0.054	2336.231	2123.779
20.848	-0.018	2335.586	2121.907
21.863	0.051	2333.758	2120.981
22.877	0.100	2331.350	2119.225
23.892	-0.031	2330.001	2115.896
24.907	0.003	2327.811	2114.128
25.921	-0.064	2326.157	2111.431
26.936	-0.011	2322.973	2109.037
27.950	-0.026	2320.850	2106.639
28.965	0.040	2319.286	2105.900
29.980	0.075	2317.017	2104.076
30.994	0.100	2315.720	2102.999
32.009	4.044	2328.181	2169.690
33.023	13.493	2355.349	2328.863
34.038	17.415	2361.359	2390.008
35.053	17.611	2357.804	2388.884
36.067	17.402	2355.967	2383.794
37.082	17.437	2354.004	2382.027
38.096	17.439	2351.777	2379.506
39.111	17.552	2351.107	2380.137
40.126	17.758	2348.257	2379.854
41.140	17.879	2347.023	2380.020
42.155	17.926	2344.848	2378.180
43.169	17.853	2342.638	2374.642
44.184	17.636	2339.032	2367.669
45.199	17.562	2336.919	2364.209
46.213	17.733	2336.267	2365.650
47.228	17.814	2335.334	2365.554
48.242	17.795	2334.186	2363.843
49.257	17.899	2332.773	2363.580
50.271	18.025	2329.283	2361.506
51.286	17.786	2326.513	2355.101
52.301	17.432	2324.762	2348.142
53.315	18.421	2327.260	2364.099
54.330	21.285	2336.461	2412.990
55.344	23.276	2337.507	2441.406
56.359	23.515	2333.996	2440.741
57.374	23.687	2333.518	2442.326
58.388	23.789	2331.275	2441.101
59.403	23.519	2326.459	2432.049
60.417	23.102	2322.837	2422.225
61.432	23.136	2322.160	2421.702
62.447	23.392	2320.891	2423.613
63.461	23.522	2319.070	2423.201
64.476	23.679	2316.849	2422.749
65.490	23.480	2314.264	2417.025
66.505	22.428	2311.499	2399.440
67.520	20.293	2302.221	2360.366
68.534	18.053	2294.868	2321.988
69.549	17.542	2289.662	2309.483
70.563	17.399	2286.973	2304.546
71.578	17.517	2285.164	2304.056
72.593	17.559	2283.667	2302.838
73.607	17.586	2282.662	2301.913
74.622	17.714	2280.669	2301.372
75.636	17.505	2277.558	2295.118
76.651	17.332	2275.321	2290.255
77.666	17.415	2272.826	2288.580
78.680	17.371	2270.730	2285.602
79.695	17.240	2267.856	2280.672
80.709	17.130	2267.142	2278.202
81.724	17.127	2265.011	2275.747
82.739	17.007	2262.309	2271.149
83.753	17.267	2259.157	2271.204
84.768	17.014	2258.145	2266.517
85.782	16.953	2256.489	2263.765
86.797	16.888	2253.742	2259.867
87.812	16.970	2252.572	2259.514
88.826	17.137	2250.735	2259.635
89.841	17.166	2248.853	2257.860
90.855	17.229	2246.283	2255.862
91.870	17.268	2244.445	2254.263
92.884	17.181	2243.514	2251.900
93.899	17.299	2241.755	2251.438
94.914	17.926	2245.764	2263.553
95.928	20.579	2253.583	2306.580
96.943	21.627	2251.742	2318.380
97.957	18.906	2240.197	2270.142
98.972	17.250	2234.878	2242.528
99.987	17.258	2229.924	2237.403
101.001	17.070	2228.764	2233.487
102.016	17.049	2226.774	2230.945
103.030	17.049	2223.157	2227.053
104.045	17.055	2221.503	2225.210
105.060	17.084	2219.584	2223.404
106.074	17.098	2217.870	2221.602
107.089	16.976	2217.523	2219.384
108.103	17.038	2215.778	2218.192
109.118	17.120	2214.523	2217.739
110.133	17.365	2212.147	2218.305
111.147	17.154	2210.107	2213.238
112.162	17.226	2208.283	2212.090
113.176	17.348	2206.576	2211.706
114.191	17.557	2205.070	2212.658
115.206	17.404	2204.034	2209.356
116.220	17.296	2202.396	2206.037
117.235	17.344	2200.703	2204.715
118.249	17.465	2197.858	2203.174
119.264	17.424	2196.824	2201.332
120.279	17.450	2194.410	2198.988
121.293	17.584	2192.378	2198.436
122.308	17.487	2191.685	2196.209
123.322	17.428	2190.396	2193.899
124.337	17.823	2191.450	2199.811
125.352	20.675	2199.796	2244.961
126.366	21.406	2197.298	2251.608
127.381	18.614	2186.078	2203.847
128.395	17.496	2181.738	2184.796
129.410	17.263	2179.084	2178.869
130.424	17.180	2177.346	2175.804
131.439	17.330	2175.032	2175.157
132.454	17.433	2173.447	2174.639
133.468	17.538	2171.794	2174.067
134.483	17.574	2171.115	2173.588
135.497	17.641	2169.106	2172.177
136.512	17.529	2167.023	2168.397
137.527	17.345	2165.342	2164.109
138.541	17.236	2163.583	2160.695
139.556	17.282	2161.874	2159.312
140.570	17.116	2161.133	2156.198
141.585	17.066	2158.673	2152.844
142.600	16.968	2157.513	2150.184
143.614	17.009	2155.342	2148.290
144.629	16.814	2154.598	2144.806
145.643	16.865	2151.421	2142.036
146.658	16.927	2150.234	2141.387
147.673	16.756	2147.880	2136.617
148.687	16.842	2146.858	2136.434
149.702	17.118	2146.188	2139.004
150.716	17.197	2144.511	2138.077
151.731	17.223	2144.033	2137.678
152.746	17.104	2144.114	2135.998
153.760	17.989	2146.917	2149.732
154.775	20.830	2154.092	2192.656
155.789	21.698	2152.387	2201.629
156.804	18.958	2141.275	2155.521
157.819	17.349	2133.201	2126.929
158.833	17.064	2130.077	2119.987
159.848	17.069	2128.417	2118.140
160.862	17.195	2127.323	2118.374
161.877	17.291	2125.935	2117.945
162.892	17.358	2125.869	2118.458
163.906	17.246	2124.721	2115.662
164.921	17.180	2122.376	2112.251
165.935	17.342	2119.436	2111.095
166.950	17.396	2118.839	2110.925
167.964	17.488	2115.921	2108.909
168.979	17.143	2113.809	2102.260
169.994	17.089	2112.185	2099.720
171.008	16.967	2110.896	2096.673
172.023	17.053	2109.563	2096.162
173.037	17.248	2108.734	2097.506
174.052	17.401	2107.704	2098.127
175.067	17.338	2105.690	2095.096
176.081	17.355	2104.262	2093.626
177.096	17.294	2103.731	2092.099
178.110	17.386	2101.621	2090.887
179.125	17.495	2100.559	2090.919
180.140	17.481	2098.609	2088.561
181.154	17.523	2097.441	2087.665
182.169	17.532	2096.854	2086.940
183.183	18.414	2099.359	2100.058
184.198	21.492	2106.761	2145.207
185.213	22.008	2104.997	2149.506
186.227	19.023	2094.784	2102.207
187.242	17.736	2089.443	2080.827
188.256	17.621	2087.743	2077.475
189.271	17.432	2085.573	2072.745
190.286	17.273	2084.659	2069.647
191.300	17.407	2081.654	2068.051
192.315	17.356	2079.711	2065.249
193.329	17.427	2079.369	2065.539
194.344	17.729	2078.041	2067.654
195.359	17.879	2077.344	2068.533
196.373	17.530	2075.215	2061.919
197.388	17.383	2071.871	2056.568
198.402	17.231	2069.966	2052.588
199.417	17.201	2066.817	2048.855
200.432	17.196	2066.479	2048.212
201.446	17.207	2065.028	2046.660
202.461	16.973	2063.843	2042.409
203.475	16.957	2061.838	2039.990
204.490	16.983	2059.661	2037.904
205.504	17.056	2057.575	2036.478
206.519	17.038	2055.313	2033.777
207.534	17.087	2053.005	2031.833
208.548	17.105	2052.448	2031.261
209.563	17.134	2051.326	2030.259
210.577	17.362	2049.940	2031.376
211.592	17.252	2050.325	2030.199
212.607	18.680	2055.454	2052.206
213.621	22.094	2062.149	2099.732
214.636	21.545	2056.305	2086.952
215.650	18.296	2046.705	2038.140
216.665	17.458	2042.506	2023.706
217.680	17.296	2041.258	2020.293
218.694	17.167	2038.756	2016.034
219.709	17.197	2036.600	2014.022
220.723	17.175	2036.977	2013.891
221.738	17.389	2034.522	2013.760
222.753	17.516	2032.551	2013.083
223.767	17.456	2031.719	2011.308
224.782	17.486	2029.033	2008.762
225.796	17.373	2028.374	2006.533
226.811	17.342	2027.261	2004.821
227.826	17.460	2025.542	2004.277
228.840	17.369	2024.071	2001.510
229.855	17.286	2023.141	1999.360
230.869	17.320	2021.057	1997.465
231.884	17.325	2018.791	1995.044
232.899	17.440	2017.450	1994.834
233.913	17.381	2017.540	1993.995
234.928	17.410	2016.358	1992.933
235.942	17.488	2013.637	1990.919
236.957	17.446	2012.463	1989.022
237.972	17.358	2011.464	1986.770
238.986	17.408	2010.358	1986.029
240.001	17.314	2008.302	1982.651
241.015	17.493	2007.562	1983.781
242.030	18.262	2009.221	1994.193
243.045	21.020	2015.300	2032.346
244.059	21.426	2012.695	2034.217
245.074	18.579	2003.798	1991.799
246.088	17.627	1998.906	1975.603
247.103	17.812	1997.060	1975.701
248.117	17.824	1995.323	1973.887
249.132	17.522	1993.089	1967.927
250.147	17.439	1991.529	1965.190
251.161	17.338	1990.965	1963.227
252.176	17.754	1989.884	1966.750
253.190	17.991	1988.664	1968.058
254.205	18.003	1986.043	1965.359
255.220	17.997	1985.048	1964.076
256.234	17.725	1984.391	1960.047
257.249	17.653	1982.476	1957.084
258.263	17.536	1981.833	1954.869
259.278	17.784	1980.957	1956.628
260.293	17.584	1978.418	1951.582
261.307	17.323	1975.554	1945.522
262.322	17.153	1973.792	1941.602
263.336	17.210	1972.145	1940.407
264.351	17.063	1969.718	1936.106
265.366	17.056	1968.420	1934.511
266.380	16.980	1967.805	1932.811
267.395	16.930	1966.952	1931.165
268.409	16.992	1964.065	1928.813
269.424	17.150	1962.365	1928.708
270.439	17.102	1962.138	1927.713
271.453	18.258	1965.023	1943.516
272.468	21.266	1971.080	1983.664
273.482	21.490	1967.330	1982.199
274.497	18.454	1958.053	1938.152
275.512	17.279	1953.926	1920.508
276.526	17.135	1950.720	1915.493
277.541	17.090	1948.198	1912.276
278.555	17.042	1947.358	1910.673
279.570	16.846	1946.346	1907.242
280.585	17.047	1945.081	1908.039
281.599	17.192	1943.343	1907.742
282.614	17.399	1943.091	1909.606
283.628	17.831	1942.485	1913.652
284.643	17.907	1941.689	1913.495
285.657	18.054	1941.045	1914.288
286.672	18.112	1939.706	1913.386
287.687	18.045	1937.449	1910.186
288.701	17.875	1936.093	1906.708
289.716	17.967	1933.910	1905.363
290.730	17.902	1933.320	1903.825
291.745	18.067	1932.047	1904.192
292.760	17.900	1930.828	1900.890
293.774	17.668	1930.462	1897.707
294.789	17.743	1928.391	1896.283
295.803	17.654	1925.196	1891.918
296.818	17.564	1924.582	1890.092
297.833	17.581	1923.620	1889.101
298.847	17.525	1922.511	1887.166
299.862	17.564	1921.282	1886.174
300.876	18.351	1922.570	1895.969
301.891	21.383	1929.218	1936.104
302.906	21.906	1926.985	1939.438
303.920	18.763	1918.308	1895.662
304.935	17.750	1913.671	1879.628
305.949	17.627	1911.208	1875.627
306.964	17.589	1909.791	1873.597
307.979	17.411	1908.751	1870.376
308.993	17.830	1907.184	1873.245
310.008	17.949	1906.315	1873.483
311.022	18.209	1903.935	1873.778
312.037	17.960	1902.686	1869.588
313.052	17.874	1900.873	1866.643
314.066	17.945	1899.116	1865.464
315.081	18.143	1899.400	1867.694
316.095	18.108	1898.485	1866.196
317.110	17.829	1894.998	1859.484
318.125	17.746	1892.488	1855.886
319.139	17.565	1892.519	1853.716
320.154	17.783	1890.912	1854.306
321.168	17.668	1889.218	1851.169
322.183	17.524	1887.581	1847.773
323.197	17.329	1885.708	1843.591
324.212	17.216	1883.537	1840.017
325.227	17.060	1882.105	1836.703
326.241	16.990	1880.694	1834.345
327.256	17.089	1879.233	1833.776
328.270	17.071	1878.532	1832.676
329.285	17.094	1877.809	1832.004
330.300	18.143	1883.209	1848.452
331.314	21.702	1888.564	1892.193
332.329	21.590	1882.475	1884.651
333.343	18.352	1873.740	1840.752
334.358	17.211	1870.349	1824.892
335.373	17.135	1868.076	1821.633
336.387	17.047	1866.316	1818.752
337.402	17.045	1865.139	1817.368
338.416	17.276	1863.914	1818.438
339.431	17.360	1863.314	1818.542
340.446	17.370	1861.158	1816.331
341.460	17.615	1860.133	1817.736
342.475	17.827	1859.515	1819.186
343.489	17.967	1857.931	1818.918
344.504	17.937	1856.288	1816.773
345.519	18.015	1855.278	1816.404
346.533	18.161	1854.319	1816.799
347.548	18.303	1853.742	1817.532
348.562	18.107	1851.824	1813.344
349.577	17.993	1851.046	1811.150
350.592	18.144	1850.017	1811.536
351.606	18.173	1848.200	1809.854
352.621	18.138	1846.471	1807.570
353.635	17.893	1844.111	1802.447
354.650	17.555	1843.050	1797.603
355.665	17.656	1841.274	1796.729
356.679	17.616	1840.284	1795.118
357.694	17.609	1838.489	1793.086
358.708	17.602	1837.630	1791.958
359.723	18.919	1841.561	1809.522
360.738	21.898	1847.145	1846.346
361.752	21.408	1842.054	1835.867
362.767	18.620	1834.068	1798.361
363.781	17.849	1829.839	1785.886
364.796	17.654	1829.020	1782.823
365.810	17.421	1827.783	1778.963
366.825	17.529	1825.959	1778.109
367.840	17.759	1825.609	1779.965
368.854	17.690	1824.530	1777.978
369.869	17.716	1822.143	1775.703
370.883	17.709	1821.748	1775.039
371.898	17.864	1820.601	1775.325
372.913	17.687	1819.908	1772.589
373.927	17.812	1818.884	1772.687
374.942	18.085	1817.947	1774.410
375.956	17.902	1816.090	1770.479
376.971	17.740	1813.213	1765.770
377.986	17.692	1811.651	1763.546
379.000	17.673	1811.323	1762.819
380.015	17.690	1809.984	1761.480
381.029	17.446	1808.056	1756.860
382.044	17.403	1805.163	1753.388
383.059	17.388	1803.453	1751.370
384.073	17.348	1802.784	1750.096
385.088	17.435	1801.536	1749.573
386.102	17.404	1800.234	1747.774
387.117	17.286	1798.387	1744.557
388.132	17.393	1797.880	1744.957
389.146	18.299	1803.019	1759.097
390.161	21.563	1806.974	1796.475
391.175	21.372	1799.741	1787.110
392.190	18.393	1790.723	1747.438
393.205	17.606	1787.822	1736.344
394.219	17.425	1786.351	1732.851
395.234	17.352	1785.417	1730.991
396.248	17.294	1783.860	1728.680
397.263	17.186	1781.782	1725.362
398.278	17.343	1779.409	1724.460
399.292	17.284	1778.750	1723.011
400.307	17.157	1778.917	1721.668
401.321	17.481	1777.476	1723.369
402.336	17.398	1776.103	1720.985
403.350	17.454	1775.071	1720.351
404.365	17.669	1773.772	1721.070
405.380	17.821	1772.533	1721.195
406.394	18.176	1772.397	1724.459
407.409	18.141	1771.354	1722.883
408.423	18.143	1769.792	1721.182
409.438	17.792	1768.476	1716.147
410.453	17.886	1766.171	1714.652
411.467	17.966	1765.716	1714.809
412.482	17.746	1763.691	1710.427
413.496	17.614	1762.263	1707.501
414.511	17.442	1760.403	1703.762
415.526	17.603	1757.700	1702.564
416.540	17.431	1756.368	1699.345
417.555	17.338	1756.717	1698.540
418.569	17.550	1756.448	1700.204
419.584	17.742	1755.688	1701.197
420.599	17.726	1756.136	1701.263
421.613	17.697	1754.502	1699.184
422.628	17.672	1753.062	1697.337
423.642	17.603	1750.200	1693.673
424.657	17.584	1748.030	1691.180
425.672	17.567	1747.343	1690.143
426.686	17.632	1746.673	1689.944
427.701	17.536	1745.558	1687.703
428.715	17.720	1743.715	1687.555
429.730	17.808	1742.877	1687.419
430.745	17.940	1740.582	1686.299
431.759	17.916	1740.574	1685.850
432.774	18.194	1741.164	1688.987
433.788	18.578	1741.152	1692.583
434.803	18.781	1740.549	1693.806
435.818	18.742	1740.138	1692.811
436.832	18.679	1739.036	1690.913
437.847	17.707	1732.235	1674.505
438.861	9.900	1711.394	1577.741
439.876	1.783	1695.742	1483.887
440.890	0.370	1692.417	1466.987
441.905	0.168	1691.551	1464.079
442.920	0.256	1690.013	1463.439
443.934	0.107	1688.719	1460.690
444.949	0.197	1688.220	1460.960
445.963	0.181	1686.383	1459.039
446.978	0.047	1686.510	1457.669
447.993	0.030	1685.056	1456.069
449.007	0.113	1681.720	1453.823
450.022	0.197	1679.604	1452.631
451.036	0.060	1679.119	1450.708
452.051	1.199	1683.548	1465.422
453.066	9.142	1701.896	1558.966
454.080	17.081	1714.191	1647.790
455.095	18.758	1716.894	1666.558
456.109	19.306	1717.184	1671.982
457.124	19.626	1715.904	1673.657
458.139	19.834	1716.159	1675.726
459.153	19.801	1714.992	1674.072
460.168	20.064	1713.303	1674.778
461.182	19.902	1711.716	1671.455
462.197	19.834	1709.796	1668.717
463.212	19.540	1708.098	1664.011
464.226	19.696	1706.937	1664.188
465.241	19.920	1706.023	1665.266
466.255	19.999	1705.499	1665.322
467.270	20.167	1703.380	1664.679
468.285	19.849	1701.991	1660.051
469.299	19.787	1700.517	1657.814
470.314	19.914	1699.113	1657.475
471.328	19.889	1697.605	1655.561
472.343	19.917	1696.991	1655.037
473.358	19.856	1696.363	1653.641
474.372	19.941	1694.491	1652.429
475.387	19.816	1692.917	1649.498
476.401	19.625	1691.325	1645.926
477.416	19.682	1689.300	1644.301
478.430	19.581	1689.458	1643.289
479.445	19.631	1687.576	1641.741
480.460	19.404	1686.288	1638.122
481.474	19.628	1685.326	1639.129
482.489	19.962	1684.453	1641.272
483.503	20.183	1683.234	1641.989
484.518	20.328	1681.679	1641.650
485.533	20.184	1680.073	1638.520
486.547	20.023	1679.343	1636.084
487.562	20.334	1678.665	1638.178
488.576	20.270	1676.603	1635.362
489.591	20.244	1675.322	1633.675
490.606	20.092	1673.993	1630.744
491.620	20.090	1672.710	1629.284
492.635	20.441	1671.128	1630.856
493.649	20.571	1669.908	1630.699
494.664	20.072	1668.377	1624.310
495.679	19.694	1666.878	1619.095
496.693	19.743	1665.687	1618.209
497.708	20.063	1664.823	1620.176
498.722	20.411	1665.522	1623.934
499.737	20.551	1662.682	1622.285
500.752	20.201	1661.186	1617.348
501.766	20.107	1659.454	1614.593
502.781	20.239	1657.733	1613.957
503.795	20.246	1656.220	1612.359
504.810	20.150	1656.024	1611.082
505.825	20.449	1655.788	1613.447
506.839	20.344	1654.163	1610.696
507.854	20.329	1652.683	1608.919
508.868	20.352	1651.018	1607.323
509.883	20.415	1650.025	1606.745
510.898	20.600	1649.267	1607.534
511.912	20.432	1647.290	1603.859
512.927	20.142	1645.399	1599.136
513.941	20.100	1644.131	1597.319
514.956	20.033	1642.158	1594.591
515.971	19.879	1641.000	1591.850
516.985	20.062	1640.366	1592.743
518.000	20.099	1640.351	1592.872
519.014	20.471	1639.274	1595.070
520.029	20.525	1637.851	1593.998
521.043	20.565	1635.686	1592.065
522.058	20.544	1634.494	1590.527
523.073	20.619	1634.286	1590.817
524.087	20.981	1633.641	1593.325
525.102	20.622	1633.516	1589.719
526.116	20.291	1631.186	1584.218
527.131	20.307	1629.523	1582.566
528.146	20.733	1629.144	1585.906
529.160	20.794	1628.090	1585.254
530.175	20.821	1627.458	1584.691
531.189	20.903	1625.943	1583.780
532.204	20.983	1624.573	1582.979
533.219	20.615	1622.530	1577.445
534.233	20.252	1622.195	1573.627
535.248	20.738	1621.183	1576.884
536.262	21.025	1620.501	1578.637
537.277	20.881	1618.672	1575.363
538.292	20.622	1616.769	1570.968
539.306	20.484	1615.177	1567.979
540.321	20.577	1613.379	1566.895
541.335	20.350	1612.097	1563.402
542.350	20.700	1610.792	1565.115
543.365	20.817	1610.000	1565.215
544.379	20.914	1609.049	1564.979
545.394	20.915	1608.041	1563.821
546.408	20.609	1605.866	1558.759
547.423	20.245	1604.097	1553.587
548.438	20.207	1603.533	1552.507
549.452	20.549	1603.238	1555.110
550.467	20.680	1601.762	1554.673
551.481	20.752	1600.224	1553.644
552.496	20.851	1600.344	1554.460
553.511	21.218	1599.739	1556.971
554.525	21.147	1598.059	1554.517
555.540	21.246	1597.382	1554.557
556.554	21.298	1596.526	1554.005
557.569	21.287	1594.416	1551.666
558.583	20.967	1592.761	1547.013
559.598	20.927	1591.897	1545.638
560.613	20.957	1590.640	1544.499
561.627	21.021	1589.734	1543.997
562.642	21.096	1589.232	1543.996
563.656	21.310	1588.693	1545.187
564.671	21.386	1586.684	1543.724
565.686	21.225	1585.620	1541.075
566.700	21.030	1583.401	1537.008
567.715	20.757	1581.737	1532.795
568.729	20.594	1579.691	1529.191
569.744	20.335	1578.122	1525.197
570.759	20.456	1576.308	1524.330
571.773	20.598	1576.547	1525.628
572.788	20.864	1576.280	1527.533
573.802	20.770	1575.627	1525.893
574.817	21.001	1574.099	1526.261
575.832	21.433	1572.496	1528.321
576.846	21.540	1570.710	1527.344
577.861	21.167	1570.096	1523.293
578.875	21.175	1569.980	1523.064
579.890	21.527	1568.776	1524.800
580.905	21.606	1567.036	1523.612
581.919	21.539	1567.190	1522.999
582.934	21.612	1566.459	1522.740
583.948	21.576	1565.193	1521.012
584.963	21.572	1562.561	1518.241
585.978	21.232	1561.224	1513.796
586.992	21.387	1560.890	1514.641
588.007	21.525	1560.272	1515.059
589.021	20.895	1557.517	1506.733
590.036	20.523	1555.630	1501.500
591.051	20.996	1554.771	1504.594
592.065	21.317	1553.538	1505.996
593.080	21.393	1552.999	1505.952
594.094	21.393	1551.543	1504.365
595.109	20.882	1549.459	1497.745
596.123	20.863	1547.179	1495.204
597.138	21.192	1546.967	1497.653
598.153	21.511	1546.332	1499.608
599.167	21.218	1545.673	1496.263
600.182	21.341	1544.765	1496.270
601.196	21.567	1543.989	1497.282
602.211	21.468	1542.603	1494.905
603.226	21.617	1541.927	1495.350
604.240	21.789	1539.921	1494.697
605.255	21.927	1539.444	1495.239
606.269	21.898	1538.350	1493.748
607.284	21.695	1537.223	1490.741
608.299	21.725	1535.730	1489.375
609.313	21.535	1534.487	1486.368
610.328	21.648	1533.019	1485.726
611.342	21.822	1531.744	1485.799
612.357	21.911	1531.237	1485.886
613.372	21.960	1530.017	1484.944
614.386	21.702	1529.089	1481.671
615.401	21.828	1528.288	1481.790
616.415	21.949	1527.702	1482.073
617.430	21.990	1526.693	1481.259
618.445	22.198	1525.786	1481.969
619.459	21.972	1523.982	1478.119
620.474	21.584	1522.064	1472.809
621.488	21.068	1519.234	1465.534
622.503	20.838	1518.147	1462.371
623.518	21.194	1519.129	1466.142
624.532	21.620	1518.666	1469.117
625.547	21.911	1517.332	1470.101
626.561	22.253	1517.109	1472.586
627.576	22.254	1516.009	1471.350
628.591	21.743	1513.363	1464.314
629.605	21.293	1511.701	1458.758
630.620	21.113	1509.441	1454.894
631.634	20.758	1508.554	1450.893
632.649	20.858	1508.155	1451.172
633.663	21.190	1507.692	1453.332
634.678	21.753	1507.032	1457.226
635.693	22.199	1505.813	1459.597
636.707	22.314	1504.696	1459.297
637.722	22.530	1503.856	1460.109
638.736	22.460	1503.209	1458.726
639.751	22.435	1502.183	1457.350
640.766	22.437	1500.622	1455.672
641.780	22.248	1499.417	1452.760
642.795	22.184	1498.675	1451.337
643.809	22.389	1497.701	1451.921
644.824	22.375	1496.449	1450.418
645.839	22.054	1495.898	1447.052
646.853	22.104	1494.697	1446.132
647.868	22.287	1492.528	1445.371
648.882	22.118	1491.192	1442.513
649.897	21.964	1490.187	1440.095
650.912	22.019	1488.771	1439.010
651.926	22.017	1486.519	1436.641
652.941	21.747	1485.516	1433.277
653.955	21.374	1483.067	1427.686
654.970	20.936	1481.116	1422.046
655.985	21.006	1479.669	1421.055
656.999	21.136	1478.604	1420.929
658.014	21.273	1478.267	1421.559
659.028	21.629	1477.797	1423.844
660.043	21.848	1477.280	1424.965
661.058	22.156	1476.128	1426.196
662.072	22.158	1475.246	1425.192
663.087	22.194	1474.183	1424.281
664.101	22.097	1473.678	1422.839
665.116	22.341	1472.817	1423.817
666.131	22.308	1471.829	1422.425
667.145	22.292	1470.544	1420.887
668.160	22.408	1470.087	1421.214
669.174	22.710	1468.982	1422.426
670.189	22.577	1467.565	1419.801
671.204	22.345	1466.772	1416.990
672.218	22.321	1465.759	1415.650
673.233	22.529	1464.564	1416.003
674.247	22.777	1464.066	1417.356
675.262	22.806	1463.220	1416.602
676.276	22.671	1462.277	1414.430
677.291	22.565	1460.088	1411.289
678.306	22.471	1458.315	1408.650
679.320	22.336	1457.511	1406.618
680.335	22.614	1458.096	1409.255
681.349	22.782	1457.233	1409.599
682.364	22.515	1456.755	1406.827
683.379	22.555	1454.537	1404.832
684.393	22.648	1452.942	1403.867
685.408	22.785	1451.859	1403.750
686.422	22.570	1450.967	1401.003
687.437	22.411	1451.552	1400.125
688.452	22.877	1450.056	1402.234
689.466	22.728	1448.408	1399.291
690.481	22.558	1446.345	1395.775
691.495	22.115	1444.501	1390.302
692.510	21.463	1442.265	1382.811
693.525	21.199	1440.258	1378.622
694.539	21.528	1440.438	1381.244
695.554	22.206	1441.445	1387.424
696.568	22.779	1441.001	1391.372
697.583	22.856	1440.491	1391.319
698.598	22.925	1439.042	1390.300
699.612	23.039	1437.244	1389.297
700.627	22.981	1437.068	1388.501
701.641	22.869	1435.706	1386.137
702.656	22.908	1434.079	1384.709
703.671	23.038	1434.223	1385.709
704.685	22.961	1434.007	1384.725
705.700	23.002	1432.285	1383.215
706.714	22.708	1430.245	1378.770
707.729	22.591	1428.514	1376.023
708.744	22.635	1426.918	1374.664
709.758	22.435	1424.677	1370.774
710.773	22.014	1423.601	1366.287
711.787	21.819	1422.069	1363.129
712.802	21.935	1421.109	1362.946
713.816	22.344	1420.833	1365.713
714.831	22.705	1420.297	1367.850
715.846	22.830	1419.559	1367.947
716.860	22.927	1418.606	1367.621
717.875	22.839	1417.761	1365.962
718.889	22.810	1416.744	1364.591
719.904	22.891	1415.960	1364.300
720.919	23.010	1414.934	1364.070
721.933	23.047	1414.282	1363.563
722.948	23.151	1413.160	1363.130
723.962	23.245	1412.287	1362.852
724.977	23.209	1411.501	1361.651
725.992	23.215	1409.874	1359.960
727.006	23.088	1409.001	1357.979
728.021	23.202	1407.803	1357.542
729.035	23.291	1406.363	1356.669
730.050	23.313	1404.582	1354.962
731.065	23.209	1403.857	1353.301
732.079	23.318	1403.174	1353.315
733.094	23.187	1402.362	1351.369
734.108	22.898	1401.502	1348.160
735.123	23.026	1399.614	1347.162
736.138	22.903	1398.866	1345.339
737.152	23.006	1397.804	1344.943
738.167	23.400	1396.676	1346.708
739.181	23.473	1396.033	1346.485
740.196	23.340	1395.399	1344.696
741.211	23.276	1394.547	1343.232
742.225	23.245	1392.722	1341.074
743.240	23.394	1391.170	1340.551
744.254	23.286	1390.306	1338.739
745.269	23.362	1389.605	1338.479
746.284	23.364	1388.104	1336.893
747.298	22.967	1386.620	1332.295
748.313	22.615	1384.822	1327.742
749.327	21.996	1383.744	1321.862
750.342	21.603	1382.129	1317.194
751.356	21.283	1380.883	1313.428
752.371	21.598	1379.974	1314.783
753.386	22.472	1380.658	1321.879
754.400	23.132	1380.617	1326.656
755.415	23.502	1378.961	1327.689
756.429	23.458	1378.122	1326.395
757.444	23.222	1377.188	1323.561
758.459	23.434	1376.433	1324.272
759.473	23.606	1374.793	1323.825
760.488	23.571	1373.863	1322.509
761.502	23.641	1372.945	1321.988
762.517	23.415	1371.802	1319.040
763.532	23.134	1370.053	1315.100
764.546	22.903	1368.616	1311.839
765.561	22.177	1367.611	1305.303
766.575	21.751	1365.200	1299.667
767.590	21.560	1364.517	1297.442
768.605	22.177	1364.118	1301.499
769.619	22.867	1363.501	1305.888
770.634	23.074	1362.639	1306.441
771.648	23.479	1361.743	1308.432
772.663	23.581	1361.910	1309.193
773.678	23.437	1361.285	1307.367
774.692	23.482	1360.761	1307.042
775.707	23.704	1359.598	1307.410
776.721	23.716	1358.470	1306.259
777.736	23.676	1357.285	1304.669
778.751	23.579	1356.426	1302.968
779.765	23.514	1355.830	1301.761
780.780	23.678	1354.962	1301.979
781.794	23.506	1353.537	1299.192
782.809	23.308	1352.288	1296.375
783.824	23.335	1350.759	1294.952
784.838	22.683	1348.805	1288.139
785.853	21.999	1347.109	1281.355
786.867	22.119	1347.141	1282.108
787.882	22.620	1346.922	1285.424
788.897	22.926	1346.453	1287.061
789.911	23.036	1345.805	1287.089
790.926	23.271	1344.420	1287.329
791.940	23.518	1342.906	1287.528
792.955	23.446	1341.935	1285.922
793.969	23.399	1340.845	1284.379
794.984	23.595	1340.669	1285.481
795.999	23.609	1339.942	1284.732
797.013	23.701	1338.268	1283.644
798.028	23.620	1336.856	1281.546
799.042	23.656	1336.070	1280.906
800.057	23.786	1334.844	1280.516
801.072	23.777	1333.383	1278.892
802.086	23.935	1332.126	1278.682
803.101	23.907	1331.710	1277.924
804.115	23.825	1330.772	1276.280
805.130	23.651	1330.086	1274.214
806.145	23.851	1328.362	1273.851
807.159	23.755	1326.627	1271.343
808.174	23.541	1325.411	1268.488
809.188	23.449	1323.868	1266.197
810.203	23.224	1322.340	1262.971
811.218	22.852	1320.400	1258.305
812.232	22.423	1317.991	1252.791
813.247	22.390	1317.096	1251.554
814.261	22.734	1317.898	1254.624
815.276	23.210	1317.621	1257.614
816.291	23.446	1317.160	1258.706
817.305	23.757	1316.298	1259.946
818.320	23.755	1314.629	1258.189
819.334	23.835	1313.730	1257.744
820.349	23.899	1312.475	1256.848
821.364	23.874	1311.390	1255.479
822.378	23.753	1309.931	1253.077
823.393	23.838	1308.427	1252.091
824.407	23.892	1307.277	1251.217
825.422	23.858	1306.728	1250.304
826.437	23.769	1305.626	1248.474
827.451	23.599	1303.200	1244.807
828.466	22.720	1300.674	1236.052
829.480	22.401	1299.274	1232.332
830.495	22.666	1298.360	1233.180
831.509	23.224	1297.885	1236.500
832.524	23.439	1298.283	1238.241
833.539	23.672	1297.096	1238.592
834.553	23.927	1295.963	1239.149
835.568	23.866	1295.407	1238.046
836.582	23.889	1293.875	1236.594
837.597	24.008	1292.157	1235.635
838.612	24.016	1290.748	1234.191
839.626	23.729	1289.721	1231.067
840.641	23.400	1288.554	1227.515
841.655	23.192	1286.577	1224.040
842.670	22.576	1284.952	1218.065
843.685	22.096	1283.366	1213.086
844.699	22.828	1282.981	1217.654
845.714	23.339	1283.067	1221.133
846.728	23.512	1282.645	1221.784
847.743	23.823	1282.056	1223.228
848.758	23.857	1280.725	1222.043
849.772	23.925	1278.974	1220.696
850.787	23.949	1277.818	1219.611
851.801	23.892	1277.643	1218.907
852.816	23.839	1276.221	1217.038
853.831	23.695	1274.871	1214.615
854.845	23.791	1272.437	1212.815
855.860	23.464	1270.573	1208.647
856.874	23.469	1269.329	1207.357
857.889	23.048	1267.617	1202.707
858.904	22.610	1265.638	1197.695
859.918	22.268	1263.466	1193.160
860.933	22.025	1262.510	1190.461
861.947	22.413	1262.799	1193.235
862.962	22.900	1262.186	1195.830
863.977	23.042	1261.097	1195.620
864.991	23.265	1261.346	1197.227
866.006	23.527	1261.383	1198.900
867.020	23.705	1260.178	1198.816
868.035	23.797	1258.474	1197.678
869.049	23.910	1257.879	1197.736
870.064	23.885	1257.117	1196.693
871.079	23.953	1256.122	1196.060
872.093	23.737	1255.715	1194.077
873.108	23.871	1253.947	1193.156
874.122	23.552	1251.952	1188.964
875.137	23.022	1251.346	1184.674
876.152	22.832	1249.730	1181.728
877.166	23.211	1248.459	1182.931
878.181	23.273	1248.380	1183.129
879.195	23.670	1247.865	1185.165
880.210	23.876	1247.569	1186.122
881.225	23.967	1245.990	1185.088
882.239	23.950	1244.704	1183.608
883.254	24.168	1244.127	1184.376
884.268	24.004	1243.352	1182.403
885.283	24.090	1241.651	1181.215
886.298	23.850	1240.945	1178.805
887.312	24.032	1239.416	1178.421
888.327	23.983	1238.570	1177.150
889.341	23.978	1236.982	1175.470
890.356	23.793	1236.536	1173.678
891.371	23.641	1236.682	1172.666
892.385	23.495	1235.544	1170.473
893.400	23.512	1234.077	1169.057
894.414	23.278	1232.585	1165.955
895.429	23.177	1229.768	1162.483
896.444	22.236	1227.526	1154.026
897.458	21.823	1226.481	1150.179
898.473	22.269	1226.290	1152.799
899.487	22.871	1226.975	1157.277
900.502	23.349	1225.770	1159.142
901.517	23.782	1224.573	1160.718
902.531	23.734	1224.270	1159.978
903.546	23.875	1223.837	1160.351
904.560	23.919	1223.115	1159.820
905.575	23.967	1221.986	1158.923
906.589	23.739	1220.965	1156.323
907.604	23.827	1220.449	1156.271
