DTS Sentinel unit serial number:	SN409020Multiplexer serial number:	ORYXHardware model number:	OX4-SRSoftware version number:	ORYX F/W v3.00 Oryx Data Collector v3.7.2.0data status	okinstallation	HaddamTimeLapsedifferential loss correction	single-endedforward channel	channel 3reverse channel	N/Adate	2011/06/22time	05:06:17forward acquisition time	30.00reverse acquisition time	0.00gamma	498.7831k internal	0.1752k external	0.1752temperature offset calibration	1.0074default loss term (dB/km)	0.3790temperature slope calibration	1.3530multiplexer offset coefficient	1.0000multiplexer slope coefficient	1.0000fibre end	0.00T internal ref (°C)	22.69T ext. ref 1 (°C)	17.58T ext. ref 2 (°C)	0.16length (m)	temperature (°C)	Stokes	anti-Stokes-747.200	-86.018	0.073	-0.030
-746.185	800.000	0.058	0.265
-745.171	-70.984	-0.182	-0.091
-744.156	-95.101	-0.165	0.059
-743.142	-54.722	-0.346	0.207
-742.127	7.561	0.300	0.298
-741.112	-123.558	-0.343	0.072
-740.098	36.713	0.240	-0.282
-739.083	-94.819	0.259	-0.093
-738.069	-89.465	0.278	0.108
-737.054	-124.176	-0.727	-0.150
-736.039	89.584	-0.184	-0.272
-735.025	53.256	0.267	0.340
-734.010	-119.395	-0.278	-0.064
-732.996	-125.484	0.215	-0.043
-731.981	-52.489	-0.159	-0.097
-730.966	-111.158	-0.263	-0.071
-729.952	-200.000	-0.018	0.544
-728.937	-128.743	0.313	0.058
-727.923	-33.312	-0.107	-0.078
-726.908	192.258	0.081	0.163
-725.894	-161.206	-0.545	0.037
-724.879	6.535	-0.509	-0.502
-723.864	-101.818	0.163	0.052
-722.850	247.868	-0.247	-0.555
-721.835	47.300	-0.144	-0.179
-720.821	-179.321	-0.450	-0.013
-719.806	-67.019	0.400	-0.208
-718.791	-42.107	-0.145	0.098
-717.777	-122.206	-0.320	-0.069
-716.762	-76.733	-0.028	-0.013
-715.748	-79.473	0.326	-0.146
-714.733	800.000	0.030	0.174
-713.718	-120.093	-0.533	0.120
-712.704	-145.284	-0.279	-0.033
-711.689	532.307	-0.196	-0.620
-710.675	-33.745	-0.300	-0.219
-709.660	-86.540	-0.170	-0.069
-708.645	-100.925	0.385	-0.124
-707.631	-200.000	0.456	0.003
-706.616	493.885	-0.123	-0.377
-705.602	12.413	-0.269	-0.275
-704.587	96.697	-0.103	0.157
-703.572	800.000	0.023	0.134
-702.558	141.645	-0.130	0.229
-701.543	50.320	0.234	-0.293
-700.529	-200.000	-0.043	0.275
-699.514	-132.866	-0.480	-0.080
-698.499	-200.000	0.037	0.306
-697.485	800.000	0.030	-0.132
-696.470	-7.554	-0.520	-0.466
-695.456	-0.552	0.360	0.338
-694.441	-123.284	0.282	0.059
-693.426	-84.717	-0.502	0.208
-692.412	-63.787	0.174	-0.094
-691.397	-78.768	-0.526	-0.237
-690.383	-99.548	-0.285	-0.094
-689.368	-200.000	-0.050	-0.355
-688.354	-135.981	0.176	-0.027
-687.339	11.122	-0.248	-0.251
-686.324	143.156	-0.196	-0.347
-685.310	-87.670	0.194	-0.077
-684.295	111.811	0.056	0.090
-683.281	207.198	-0.093	-0.194
-682.266	63.686	0.262	-0.349
-681.251	-6.334	0.138	0.124
-680.237	-86.818	-0.133	0.054
-679.222	-174.936	0.251	0.009
-678.208	800.000	0.052	0.207
-677.193	-108.767	0.691	0.195
-676.178	800.000	-0.074	-0.301
-675.164	243.769	0.130	-0.290
-674.149	-50.905	0.222	0.138
-673.135	-180.670	-0.319	0.008
-672.120	-108.213	0.388	0.110
-671.105	175.172	-0.148	0.285
-670.091	800.000	0.100	0.426
-669.076	-102.097	0.054	-0.017
-668.062	-115.069	-0.305	0.076
-667.047	-200.000	0.044	-0.368
-666.032	19.793	0.397	-0.424
-665.018	74.416	-0.040	0.056
-664.003	35.970	-0.241	0.281
-662.989	95.031	-0.058	-0.087
-661.974	-122.504	-0.249	-0.053
-660.959	-66.529	0.606	-0.317
-659.945	-132.780	0.551	-0.092
-658.930	-112.297	0.392	-0.103
-657.916	-126.437	0.355	0.069
-656.901	-118.527	0.153	0.036
-655.886	-149.452	0.438	-0.045
-654.872	131.982	0.157	-0.268
-653.857	51.359	-0.410	0.516
-652.843	-49.144	-0.323	-0.204
-651.828	269.061	-0.129	0.300
-650.814	506.308	-0.212	-0.652
-649.799	-40.702	0.100	0.069
-648.784	-116.716	0.502	-0.121
-647.770	249.526	0.131	-0.296
-646.755	-26.550	0.476	-0.369
-645.741	17.910	0.309	-0.325
-644.726	4.777	0.296	0.288
-643.711	-34.158	-0.438	0.317
-642.697	-163.902	0.256	0.016
-641.682	-200.000	0.037	-0.497
-640.668	-175.260	-0.172	0.006
-639.653	37.083	-0.400	-0.469
-638.638	-70.398	0.317	-0.158
-637.624	580.237	-0.034	-0.112
-636.609	385.103	0.088	-0.240
-635.595	-113.993	0.133	0.034
-634.580	140.337	-0.195	-0.342
-633.565	-69.398	-0.223	0.113
-632.551	-2.937	-0.178	-0.164
-631.536	-200.000	-0.021	-0.284
-630.522	53.433	-0.116	-0.147
-629.507	-33.029	0.525	0.384
-628.492	-62.788	0.359	-0.196
-627.478	-200.000	0.023	-0.199
-626.463	100.920	-0.260	0.401
-625.449	503.541	0.073	0.224
-624.434	63.654	-0.135	0.179
-623.419	151.485	0.176	0.318
-622.405	-45.704	-0.249	0.162
-621.390	-89.357	0.099	-0.038
-620.376	511.370	0.057	0.176
-619.361	44.678	-0.058	-0.070
-618.346	-71.495	-0.352	0.173
-617.332	79.281	-0.268	0.380
-616.317	50.772	-0.187	0.234
-615.303	-134.094	0.213	0.034
-614.288	10.221	0.139	0.139
-613.273	-102.029	-0.561	0.177
-612.259	800.000	0.075	-0.296
-611.244	93.739	-0.249	-0.373
-610.230	-200.000	0.001	-0.293
-609.215	47.516	-0.280	-0.346
-608.201	55.703	-0.091	-0.117
-607.186	284.610	-0.117	-0.278
-606.171	-188.872	-0.509	-0.008
-605.157	399.571	0.137	-0.380
-604.142	-90.025	0.365	-0.140
-603.128	-70.180	0.122	-0.061
-602.113	-61.585	0.112	-0.062
-601.098	-136.491	0.057	-0.009
-600.084	-60.303	0.205	0.115
-599.069	-45.829	-0.298	-0.193
-598.055	800.000	-0.119	0.443
-597.040	40.458	-0.255	0.303
-596.025	-127.774	-0.301	0.057
-595.011	-117.361	-0.469	-0.111
-593.996	800.000	-0.074	-0.357
-592.982	381.278	0.012	-0.033
-591.967	-200.000	-0.003	0.356
-590.952	-132.782	0.661	-0.110
-589.938	197.005	0.171	0.345
-588.923	800.000	0.032	-0.134
-587.909	377.928	-0.131	-0.356
-586.894	146.979	0.051	0.092
-585.879	-23.020	0.075	-0.060
-584.865	198.675	0.194	0.393
-583.850	-102.809	0.086	0.027
-582.836	-2.927	0.137	-0.126
-581.821	-200.000	0.019	-0.269
-580.806	-133.582	-0.309	-0.051
-579.792	-122.659	0.362	0.077
-578.777	-200.000	-0.057	-0.431
-577.763	800.000	-0.154	-0.641
-576.748	-200.000	-0.021	-0.136
-575.733	-125.602	-0.259	-0.051
-574.719	80.900	-0.228	0.325
-573.704	63.970	-0.250	-0.331
-572.690	-58.445	-0.420	-0.240
-571.675	0.908	0.247	-0.233
-570.661	-151.695	-0.516	-0.050
-569.646	-200.000	-0.416	0.000
-568.631	-200.000	-0.045	0.537
-567.617	-113.791	-0.264	0.067
-566.602	372.037	-0.106	-0.286
-565.588	-200.000	-0.037	0.311
-564.573	-200.000	0.018	-0.262
-563.558	451.911	-0.035	-0.101
-562.544	662.569	0.112	0.383
-561.529	387.855	-0.191	0.524
-560.515	-90.375	0.329	0.125
-559.500	-200.000	0.026	-0.161
-558.485	146.637	0.299	0.530
-557.471	230.831	-0.084	-0.182
-556.456	-13.925	0.242	0.206
-555.442	-32.708	-0.053	0.039
-554.427	800.000	-0.078	-0.379
-553.412	10.090	0.098	-0.099
-552.398	-200.000	-0.009	-0.178
-551.383	-110.436	-0.537	-0.146
-550.369	-90.203	-0.191	-0.073
-549.354	-200.000	-0.001	-0.343
-548.339	-183.420	-0.079	-0.002
-547.325	384.666	0.052	0.141
-546.310	800.000	-0.116	0.587
-545.296	-106.353	0.127	-0.037
-544.281	185.276	0.240	0.470
-543.266	146.084	0.142	-0.252
-542.252	138.721	-0.160	-0.277
-541.237	-17.788	-0.067	-0.055
-540.223	800.000	-0.093	-0.513
-539.208	800.000	0.104	-0.491
-538.193	-200.000	0.050	-0.295
-537.179	62.090	0.147	0.194
-536.164	-56.142	-0.458	0.268
-535.150	-45.053	-0.389	-0.254
-534.135	-200.000	0.007	0.091
-533.121	-29.574	-0.285	0.214
-532.106	274.930	0.058	-0.137
-531.091	-200.000	-0.013	0.476
-530.077	89.660	-0.211	-0.311
-529.062	-49.647	0.408	-0.255
-528.048	-87.104	0.617	-0.246
-527.033	73.319	0.367	-0.506
-526.018	-6.174	-0.372	-0.334
-525.004	-190.387	-0.311	0.004
-523.989	-73.048	0.166	-0.080
-522.975	-88.032	0.165	-0.065
-521.960	-109.961	0.151	-0.041
-520.945	-161.257	0.407	-0.027
-519.931	-117.172	0.115	0.027
-518.916	-60.330	0.205	-0.115
-517.902	-109.877	-0.566	0.155
-516.887	-38.551	0.038	0.026
-515.872	-74.973	-0.164	-0.077
-514.858	-148.572	-0.530	-0.056
-513.843	-158.182	-0.151	-0.011
-512.829	-200.000	-0.029	-0.305
-511.814	72.128	-0.083	-0.114
-510.799	-50.641	-0.073	-0.045
-509.785	-145.360	0.117	0.014
-508.770	-121.278	0.527	0.115
-507.756	-200.000	-0.025	0.191
-506.741	800.000	-0.105	0.425
-505.726	-12.619	0.206	-0.177
-504.712	128.963	0.114	-0.192
-503.697	72.971	-0.135	-0.186
-502.683	289.798	0.268	-0.643
-501.668	136.585	0.223	0.384
-500.653	318.657	0.131	0.329
-499.639	-115.749	0.491	0.120
-498.624	264.317	0.115	0.264
-497.610	-27.976	-0.131	-0.100
-496.595	-24.296	-0.110	0.086
-495.581	-200.000	0.052	-0.436
-494.566	800.000	-0.133	0.706
-493.551	-122.439	-0.369	0.078
-492.537	104.404	-0.357	0.554
-491.522	800.000	0.060	-0.231
-490.508	103.617	0.181	0.280
-489.493	-200.000	0.026	-0.364
-488.478	800.000	-0.048	0.206
-487.464	530.362	0.080	-0.250
-486.449	-200.000	0.051	-0.335
-485.435	-200.000	-0.009	-0.584
-484.420	-157.205	0.252	-0.020
-483.405	800.000	-0.088	0.341
-482.391	-200.000	0.075	0.543
-481.376	-109.619	-0.481	0.132
-480.362	19.936	-0.154	0.163
-479.347	-128.381	-0.303	0.056
-478.332	-15.878	0.142	-0.118
-477.318	-77.801	0.384	0.174
-476.303	578.818	0.101	0.328
-475.289	354.786	0.100	-0.263
-474.274	110.990	0.018	-0.028
-473.259	535.976	-0.047	0.146
-472.245	-124.209	0.248	0.050
-471.230	-102.758	0.107	0.033
-470.216	800.000	0.042	-0.193
-469.201	-137.399	-0.226	0.033
-468.186	36.619	0.119	0.138
-467.172	-200.000	-0.073	-0.689
-466.157	-101.700	-0.155	0.049
-465.143	-132.277	-0.054	0.009
-464.128	363.742	-0.157	-0.416
-463.113	53.937	0.137	0.173
-462.099	800.000	-0.070	0.274
-461.084	-166.138	0.428	-0.024
-460.070	-143.745	0.289	-0.035
-459.055	800.000	-0.125	0.530
-458.040	65.102	0.063	0.083
-457.026	-129.092	-0.135	0.025
-456.011	7.911	0.115	-0.113
-454.997	18.013	0.505	0.528
-453.982	-98.054	0.294	-0.099
-452.968	-200.000	-0.000	-0.341
-451.953	304.732	0.057	-0.139
-450.938	29.635	-0.326	0.364
-449.924	665.691	0.151	0.516
-448.909	-50.949	-0.282	0.173
-447.895	-93.206	-0.304	-0.110
-446.880	800.000	0.058	-0.265
-445.865	-43.477	-0.316	0.209
-444.851	-16.150	0.032	0.027
-443.836	225.335	-0.099	0.210
-442.822	-159.867	-0.179	0.013
-441.807	800.000	-0.015	-0.058
-440.792	-200.000	-0.071	0.674
-439.778	-102.887	-0.317	0.098
-438.763	-64.736	0.375	0.199
-437.749	25.537	0.325	-0.355
-436.734	-13.941	-0.236	-0.199
-435.719	648.129	-0.008	0.027
-434.705	-6.599	-0.377	0.336
-433.690	-146.836	-0.207	-0.023
-432.676	125.085	0.134	-0.221
-431.661	-54.214	0.308	-0.183
-430.646	472.602	-0.247	-0.733
-429.632	-134.646	-0.082	0.013
-428.617	246.210	-0.108	-0.239
-427.603	-83.073	-0.542	-0.228
-426.588	800.000	0.031	0.166
-425.573	-145.829	0.249	-0.029
-424.559	101.381	-0.102	-0.157
-423.544	222.388	0.063	-0.133
-422.530	-66.406	0.430	0.223
-421.515	800.000	-0.115	-0.578
-420.500	-80.206	0.149	-0.065
-419.486	-121.322	-0.205	-0.045
-418.471	-120.764	-0.294	0.064
-417.457	411.465	0.146	-0.409
-416.442	-85.594	0.384	0.156
-415.428	-200.000	0.012	0.252
-414.413	-51.898	-0.404	0.245
-413.398	13.593	0.073	0.074
-412.384	-27.815	0.176	0.134
-411.369	-46.112	0.202	0.130
-410.355	222.401	0.092	-0.195
-409.340	-152.049	-0.601	0.057
-408.325	-200.000	0.028	-0.290
-407.311	-53.536	-0.209	0.125
-406.296	-172.772	0.132	0.005
-405.282	-200.000	0.021	0.488
-404.267	493.972	-0.049	-0.147
-403.252	-47.788	0.395	-0.250
-402.238	-130.933	-0.242	-0.042
-401.223	-37.386	0.587	0.410
-400.209	-108.289	-0.039	0.011
-399.194	-200.000	0.010	-0.147
-398.179	-88.512	0.289	-0.112
-397.165	-200.000	-0.015	-0.192
-396.150	-150.494	-0.512	0.051
-395.136	-37.312	0.299	-0.209
-394.121	-56.646	-0.261	-0.151
-393.106	-45.317	-0.795	0.515
-392.092	0.195	0.018	0.017
-391.077	19.788	0.331	0.349
-390.063	-84.996	-0.072	0.029
-389.048	-146.515	0.457	0.051
-388.033	-55.259	0.441	-0.259
-387.019	-57.672	-0.256	0.146
-386.004	-171.430	0.329	-0.014
-384.990	-145.865	0.150	0.017
-383.975	-200.000	-0.026	-0.275
-382.960	-52.667	0.231	-0.139
-381.946	-200.000	0.011	0.098
-380.931	800.000	0.088	-0.396
-379.917	-139.724	0.664	-0.091
-378.902	-72.932	0.448	-0.215
-377.888	-132.568	-0.633	0.105
-376.873	-7.419	-0.183	0.162
-375.858	434.229	0.078	0.224
-374.844	-91.810	0.218	-0.080
-373.829	14.265	-0.331	0.337
-372.815	76.361	0.287	-0.398
-371.800	-200.000	-0.038	-0.721
-370.785	-67.144	-0.216	0.111
-369.771	5.535	0.334	0.322
-368.756	773.472	0.118	0.425
-367.742	227.905	-0.186	0.397
-366.727	-7.176	-0.384	-0.340
-365.712	800.000	0.076	0.287
-364.698	-14.126	-0.138	0.116
-363.683	-69.916	-0.099	0.049
-362.669	-200.000	-0.022	-0.173
-361.654	-86.611	0.634	0.253
-360.639	-200.000	0.020	-0.349
-359.625	-74.829	-0.164	-0.077
-358.610	478.231	0.076	-0.227
-357.596	357.242	0.056	0.146
-356.581	-123.905	-0.332	-0.068
-355.566	-119.634	0.195	-0.044
-354.552	-69.798	-0.563	0.280
-353.537	-200.000	0.000	-0.333
-352.523	162.192	-0.139	0.255
-351.508	-155.227	-0.731	0.061
-350.493	-3.636	0.221	0.201
-349.479	154.218	0.290	-0.522
-348.464	-53.909	0.218	0.130
-347.450	-16.408	-0.048	0.040
-346.435	-64.480	0.178	-0.094
-345.420	-200.000	0.003	-0.066
-344.406	-200.000	-0.042	-0.352
-343.391	-17.157	0.230	0.189
-342.377	201.787	-0.064	0.129
-341.362	86.898	-0.110	0.159
-340.348	-126.394	-0.182	-0.035
-339.333	-98.628	-0.426	0.141
-338.318	358.014	0.136	-0.357
-337.304	-33.333	0.567	0.409
-336.289	-14.433	-0.336	-0.283
-335.275	89.064	0.451	0.658
-334.260	-200.000	-0.008	-0.348
-333.245	72.742	0.013	-0.018
-332.231	-20.742	-0.157	-0.126
-331.216	-125.677	-0.103	0.020
-330.202	-87.342	0.513	-0.202
-329.187	-92.346	0.175	-0.064
-328.172	-23.992	-0.348	-0.271
-327.158	-17.522	0.471	0.386
-326.143	287.585	-0.026	-0.062
-325.129	-73.256	0.252	0.120
-324.114	-200.000	0.006	0.112
-323.099	-64.438	0.181	0.096
-322.085	-28.428	0.266	-0.200
-321.070	-54.162	0.193	-0.114
-320.056	6.299	0.086	0.083
-319.041	225.632	-0.129	0.274
-318.026	3.235	0.177	-0.168
-317.012	-101.240	0.128	0.041
-315.997	12.459	0.196	-0.197
-314.983	47.226	0.124	-0.151
-313.968	-139.627	-0.444	0.061
-312.953	6.250	0.324	-0.314
-311.939	466.177	-0.059	-0.174
-310.924	-79.911	-0.698	0.305
-309.910	7.562	0.552	0.539
-308.895	183.064	0.200	0.387
-307.880	311.116	-0.057	0.139
-306.866	2.454	0.184	0.174
-305.851	77.899	-0.230	0.321
-304.837	634.079	-0.082	0.274
-303.822	-24.662	0.212	0.164
-302.807	56.491	-0.139	0.176
-301.793	-79.022	-0.243	0.107
-300.778	-81.494	0.255	-0.109
-299.764	-143.548	-0.267	0.033
-298.749	-129.200	0.331	0.060
-297.735	-200.000	-0.024	-0.182
-296.720	-99.740	0.348	-0.113
-295.705	-147.229	0.146	0.016
-294.691	-200.000	-0.006	0.227
-293.676	94.196	0.090	-0.134
-292.662	-155.062	0.569	-0.048
-291.647	543.388	0.071	-0.222
-290.632	-200.000	-0.032	-0.356
-289.618	-149.476	-0.265	0.027
-288.603	-22.961	-0.142	-0.111
-287.589	-60.748	-0.144	0.079
-286.574	-0.099	0.172	0.159
-285.559	-200.000	-0.001	0.088
-284.545	526.268	-0.044	-0.136
-283.530	-200.000	-0.703	-0.001
-282.516	37.360	-0.084	0.097
-281.501	800.000	-0.067	0.261
-280.486	-20.714	0.480	0.383
-279.472	179.481	0.256	0.491
-278.457	-167.158	0.273	0.014
-277.443	-79.940	-0.536	0.234
-276.428	-125.147	0.582	-0.115
-275.413	122.291	-0.172	0.281
-274.399	58.520	-0.117	0.150
-273.384	-125.756	0.215	-0.042
-272.370	125.315	-0.086	-0.141
-271.355	35.015	-0.075	-0.085
-270.340	-27.710	-0.226	-0.170
-269.326	800.000	0.079	-0.325
-268.311	13.291	0.529	-0.534
-267.297	-43.218	0.226	-0.149
-266.282	-65.000	-0.223	-0.117
-265.267	41.561	-0.073	-0.087
-264.253	-25.673	0.519	-0.398
-263.238	-150.313	-0.075	0.007
-262.224	-15.371	0.342	0.284
-261.209	104.654	0.192	0.295
-260.195	744.959	-0.091	-0.321
-259.180	-62.584	0.284	0.153
-258.165	-126.367	-0.038	-0.007
-257.151	44.778	0.109	0.131
-256.136	-121.432	0.192	0.041
-255.122	-43.216	0.324	-0.213
-254.107	10.299	0.113	0.112
-253.092	-52.951	0.168	0.100
-252.078	82.503	-0.076	-0.108
-251.063	-92.191	-0.488	-0.178
-250.049	-31.181	-0.344	-0.252
-249.034	-128.891	0.105	0.019
-248.019	-78.923	-0.195	-0.086
-247.005	-120.271	-0.521	0.115
-245.990	-24.825	-0.349	0.269
-244.976	-65.818	-0.103	-0.053
-243.961	-200.000	-0.053	0.326
-242.946	-18.692	0.257	0.208
-241.932	-7.977	0.224	0.197
-240.917	-104.085	0.327	-0.099
-239.903	-145.964	-0.359	0.041
-238.888	108.039	0.279	0.434
-237.873	-200.000	0.053	-0.319
-236.859	-11.716	0.642	-0.548
-235.844	-77.871	-0.520	-0.233
-234.830	-200.000	0.016	0.178
-233.815	-199.949	0.189	0.001
-232.800	-107.756	-0.173	0.049
-231.786	-90.188	-0.144	0.054
-230.771	135.031	-0.095	-0.162
-229.757	-65.937	-0.402	0.208
-228.742	15.496	0.264	0.270
-227.727	-100.031	-0.493	0.159
-226.713	56.138	-0.132	-0.167
-225.698	-124.383	0.295	0.059
-224.684	-72.103	-0.223	0.107
-223.669	66.572	-0.045	-0.059
-222.655	-42.261	0.061	-0.040
-221.640	-24.623	0.276	0.213
-220.625	74.957	0.050	0.068
-219.611	-155.510	-0.311	0.026
-218.596	-90.574	-0.331	0.124
-217.582	800.000	-0.030	0.168
-216.567	-138.169	-0.264	-0.038
-215.552	800.000	0.061	-0.255
-214.538	-191.684	-0.294	0.004
-213.523	231.771	-0.221	0.474
-212.509	-61.379	0.171	-0.093
-211.494	269.302	-0.291	-0.667
-210.479	56.840	0.095	-0.121
-209.465	195.141	0.151	-0.299
-208.450	438.530	-0.034	-0.098
-207.436	128.068	-0.159	0.263
-206.421	61.090	0.199	0.258
-205.406	-92.946	0.338	0.122
-204.392	58.647	0.263	-0.336
-203.377	-60.162	0.162	-0.089
-202.363	-200.000	-0.001	-0.058
-201.348	62.640	0.137	-0.178
-200.333	216.610	-0.036	0.074
-199.319	250.519	-0.144	-0.319
-198.304	-79.623	0.676	0.295
-197.290	-157.834	-0.648	-0.049
-196.275	-131.480	-0.569	0.097
-195.260	283.009	0.032	0.074
-194.246	48.310	-0.221	0.269
-193.231	-108.494	-0.231	0.064
-192.217	58.453	-0.272	-0.347
-191.202	-132.843	-0.620	-0.102
-190.187	25.462	0.159	0.171
-189.173	-186.196	-0.225	0.004
-188.158	12.861	-0.226	-0.227
-187.144	-0.734	0.175	-0.161
-186.129	800.000	0.082	0.417
-185.114	163.415	-0.164	0.300
-184.100	-44.751	-0.501	0.324
-183.085	-200.000	0.083	0.512
-182.071	-68.614	0.480	-0.241
-181.056	-143.112	-0.313	-0.039
-180.042	-145.897	-0.210	-0.024
-179.027	-19.907	0.233	0.186
-178.012	-103.835	-0.275	-0.083
-176.998	-154.005	0.407	-0.036
-175.983	787.049	0.144	-0.515
-174.969	-43.552	-0.182	0.119
-173.954	-58.150	-0.134	-0.075
-172.939	-178.436	0.318	0.009
-171.925	7.906	-0.126	0.122
-170.910	152.658	0.245	-0.436
-169.896	800.000	-0.054	0.197
-168.881	-136.276	-0.414	-0.062
-167.866	276.742	0.056	0.130
-166.852	130.555	-0.152	0.253
-165.837	496.196	-0.065	0.195
-164.823	509.890	0.065	0.196
-163.808	-110.541	0.296	0.079
-162.793	482.148	-0.104	0.307
-161.779	-18.944	-0.089	-0.072
-160.764	-200.000	-0.004	-0.123
-159.750	-6.741	-0.293	0.258
-158.735	302.733	0.096	0.232
-157.720	-125.009	-0.161	-0.032
-156.706	-51.818	0.295	-0.178
-155.691	-90.913	0.680	0.253
-154.677	157.539	0.108	0.194
-153.662	-73.778	-0.361	0.170
-152.647	-45.473	0.206	0.132
-151.633	245.177	0.065	0.142
-150.618	1.428	-0.255	0.238
-149.604	-166.978	-0.380	-0.020
-148.589	-118.926	0.653	-0.147
-147.574	257.899	-0.011	-0.025
-146.560	29.240	-0.216	-0.238
-145.545	86.210	0.242	0.346
-144.531	526.090	-0.161	-0.495
-143.516	355.015	0.079	0.203
-142.502	-34.184	0.210	0.150
-141.487	-160.842	0.074	-0.005
-140.472	-5.716	0.319	0.283
-139.458	-37.543	-0.118	-0.082
-138.443	-200.000	0.013	-0.182
-137.429	221.700	0.201	0.421
-136.414	31.560	0.117	0.130
-135.399	-56.178	-0.138	-0.079
-134.385	-200.000	0.061	0.388
-133.370	52.081	-0.265	0.328
-132.356	-101.289	0.306	0.096
-131.341	-42.487	-0.394	0.259
-130.326	-60.495	0.168	0.092
-129.312	-200.000	-0.028	-0.243
-128.297	-166.287	0.620	-0.033
-127.283	395.333	0.120	-0.327
-126.268	800.000	-0.095	-0.418
-125.253	1.973	-0.654	0.612
-124.239	-36.765	-0.580	0.403
-123.224	-200.000	-0.000	0.360
-122.210	238.361	0.106	0.229
-121.195	89.585	-0.254	0.368
-120.180	59.755	0.070	0.089
-119.166	-200.000	-0.041	0.415
-118.151	52.716	0.221	0.274
-117.137	-118.823	0.399	0.090
-116.122	-7.260	-0.173	-0.151
-115.107	-81.608	-0.333	0.141
-114.093	-43.012	0.243	0.159
-113.078	-52.788	-0.212	-0.126
-112.064	-48.506	0.199	0.124
-111.049	-73.731	-0.103	0.048
-110.034	-200.000	-0.040	-0.404
-109.020	-127.922	-0.104	0.019
-108.005	91.133	0.185	0.269
-106.991	394.325	-0.064	0.175
-105.976	-200.000	0.073	-0.552
-104.962	-128.854	-0.359	0.065
-103.947	-108.908	-0.354	0.097
-102.932	-91.897	0.110	-0.040
-101.918	-200.000	0.000	-0.010
-100.903	-200.000	0.030	0.215
-99.889	-166.012	-0.465	-0.025
-98.874	-112.053	-0.455	0.118
-97.859	137.768	-0.049	-0.083
-96.845	800.000	-0.092	0.378
-95.830	-68.867	-0.380	0.189
-94.816	-150.883	-0.282	-0.027
-93.801	-121.894	0.145	0.031
-92.786	441.525	-0.062	-0.177
-91.772	-200.000	-0.019	-0.263
-90.757	-113.278	0.066	-0.017
-89.743	75.492	-0.217	-0.297
-88.728	-61.962	0.156	-0.084
-87.713	167.249	0.137	0.253
-86.699	-116.832	0.450	-0.106
-85.684	468.819	0.075	0.220
-84.670	497.256	0.073	-0.218
-83.655	373.290	-0.028	-0.074
-82.640	-25.388	-0.187	0.143
-81.626	-107.686	0.338	0.095
-80.611	-19.238	0.333	0.267
-79.597	800.000	0.021	-0.087
-78.582	-200.000	-0.017	0.357
-77.567	800.000	0.032	0.139
-76.553	800.000	-0.035	0.129
-75.538	-74.093	0.328	0.153
-74.524	-166.891	0.493	0.026
-73.509	470.707	-0.074	-0.216
-72.494	-101.496	-0.353	-0.110
-71.480	47.519	-0.135	0.163
-70.465	674.266	-0.046	0.155
-69.451	-57.638	0.386	-0.218
-68.436	-200.000	-0.010	0.296
-67.422	51.574	0.176	0.216
-66.407	73.534	0.108	0.147
-65.392	800.000	-0.065	0.259
-64.378	800.000	-0.118	0.432
-63.363	163.118	-0.163	0.297
-62.349	-60.582	0.317	-0.173
-61.334	31.816	-2.178	-2.425
-60.319	97.126	1.156	1.718
-59.305	209.900	-3.701	-7.528
-58.290	61.858	4.098	5.282
-57.276	374.988	3.724	9.855
-56.261	-200.000	24.710	319.832
-55.246	355.406	1302.017	3363.533
-54.232	53.351	2840.241	3521.202
-53.217	51.529	2659.486	3268.827
-52.203	31.876	2389.722	2660.348
-51.188	27.928	2055.398	2239.531
-50.173	24.614	1941.268	2076.451
-49.159	23.559	1929.401	2051.428
-48.144	23.036	1925.525	2041.152
-47.130	22.920	1923.759	2037.850
-46.115	22.886	1920.727	2034.175
-45.100	22.916	1919.738	2033.387
-44.086	22.765	1919.433	2031.235
-43.071	22.769	1916.826	2028.444
-42.057	22.878	1914.925	2027.606
-41.042	22.825	1913.864	2025.798
-40.027	22.870	1912.194	2024.471
-39.013	22.946	1910.638	2023.611
-37.998	22.930	1909.168	2021.797
-36.984	22.858	1907.780	2019.418
-35.969	22.851	1907.489	2018.945
-34.954	22.780	1906.377	2016.870
-33.940	22.835	1904.486	2015.427
-32.925	22.704	1903.494	2012.793
-31.911	22.684	1902.783	2011.729
-30.896	22.686	1901.599	2010.418
-29.881	22.740	1899.511	2008.752
-28.867	22.776	1897.521	2006.981
-27.852	22.745	1895.601	2004.518
-26.838	22.651	1895.574	2003.330
-25.823	22.703	1893.867	2002.038
-24.809	22.697	1891.934	1999.846
-23.794	22.685	1891.986	1999.685
-22.779	22.685	1890.202	1997.727
-21.765	22.752	1888.421	1996.525
-20.750	22.682	1887.972	1995.180
-19.736	22.737	1885.850	1993.477
-18.721	22.642	1885.800	1992.270
-17.706	22.695	1884.485	1991.403
-16.692	22.688	1882.716	1989.370
-15.677	22.463	1882.003	1985.996
-14.663	22.494	1880.296	1984.459
-13.648	22.604	1878.744	1983.994
-12.633	22.543	1878.273	1982.725
-11.619	22.509	1877.413	1981.354
-10.604	22.674	1874.691	1980.265
-9.590	22.615	1873.951	1978.735
-8.575	22.635	1872.701	1977.570
-7.560	22.566	1871.662	1975.606
-6.546	22.698	1870.691	1975.991
-5.531	22.625	1869.309	1973.634
-4.517	22.543	1868.507	1971.793
-3.502	22.566	1867.883	1971.308
-2.487	22.696	1866.172	1970.887
-1.473	22.671	1862.857	1967.022
-0.458	22.396	1844.017	1944.005
0.556	18.949	1989.052	2043.533
1.571	17.439	2191.955	2231.832
2.586	18.234	2231.875	2282.872
3.600	18.225	2235.134	2285.817
4.615	18.292	2233.887	2285.165
5.629	18.414	2230.568	2283.134
6.644	18.328	2229.749	2280.866
7.659	18.298	2228.292	2278.702
8.673	18.330	2226.246	2276.766
9.688	18.021	2234.758	2281.052
10.702	16.839	2313.622	2344.833
11.717	15.166	2378.218	2386.089
12.731	7.218	2359.536	2253.764
13.746	0.904	2343.854	2148.627
14.761	0.232	2338.729	2134.105
15.775	0.006	2338.348	2130.282
16.790	0.079	2336.158	2129.063
17.804	-0.015	2335.129	2126.545
18.819	0.045	2333.874	2126.001
19.834	-0.002	2332.641	2123.956
20.848	-0.049	2331.530	2122.014
21.863	-0.007	2328.975	2120.031
22.877	-0.083	2327.706	2117.542
23.892	-0.022	2325.032	2115.718
24.907	-0.012	2322.830	2113.609
25.921	-0.037	2321.112	2111.444
26.936	0.027	2317.890	2109.151
27.950	0.065	2316.594	2108.261
28.965	0.013	2313.747	2104.686
29.980	0.104	2311.827	2103.964
30.994	0.202	2309.746	2103.200
32.009	3.850	2322.379	2165.868
33.023	12.916	2348.476	2318.561
34.038	16.795	2354.290	2378.867
35.053	16.994	2351.489	2378.553
36.067	17.013	2349.061	2376.082
37.082	16.973	2347.816	2373.973
38.096	16.989	2345.721	2371.795
39.111	17.126	2342.926	2370.613
40.126	17.200	2341.352	2369.780
41.140	17.323	2339.828	2369.665
42.155	17.321	2337.907	2367.420
43.169	17.175	2336.894	2364.060
44.184	17.138	2333.401	2359.723
45.199	17.110	2331.088	2356.720
46.213	17.054	2330.022	2354.572
47.228	17.208	2329.267	2355.682
48.242	17.199	2327.749	2353.740
49.257	17.280	2325.939	2352.752
50.271	17.465	2322.163	2351.220
51.286	17.198	2320.373	2345.426
52.301	17.083	2318.610	2341.762
53.315	17.578	2321.092	2350.855
54.330	19.679	2326.272	2384.999
55.344	20.939	2326.614	2402.534
56.359	21.092	2322.938	2400.573
57.374	21.238	2321.993	2401.315
58.388	21.414	2319.342	2400.726
59.403	21.291	2316.123	2395.412
60.417	21.168	2312.744	2389.928
61.432	21.276	2311.612	2389.969
62.447	21.532	2309.904	2391.433
63.461	21.517	2308.226	2389.192
64.476	21.739	2305.683	2389.323
65.490	21.360	2304.747	2382.874
66.505	20.800	2300.951	2371.004
67.520	19.054	2294.653	2340.386
68.534	17.408	2288.198	2311.061
69.549	17.103	2283.784	2302.165
70.563	17.149	2281.328	2300.048
71.578	17.204	2279.039	2298.216
72.593	17.037	2278.209	2294.830
73.607	17.222	2276.740	2295.586
74.622	17.185	2274.212	2292.254
75.636	17.184	2271.080	2288.810
76.651	17.076	2269.789	2285.780
77.666	17.185	2266.980	2284.150
78.680	17.184	2264.884	2281.756
79.695	17.060	2263.705	2278.614
80.709	16.913	2261.686	2274.330
81.724	16.907	2260.427	2272.707
82.739	17.103	2257.177	2271.802
83.753	16.886	2255.896	2267.328
84.768	16.872	2254.382	2265.355
85.782	16.784	2253.174	2262.675
86.797	16.871	2250.799	2261.196
87.812	16.944	2248.473	2259.565
88.826	16.958	2246.855	2257.849
89.841	16.952	2244.188	2254.827
90.855	16.985	2242.339	2253.140
91.870	17.010	2241.244	2252.095
92.884	17.012	2239.178	2249.783
93.899	17.014	2237.659	2248.018
94.914	17.336	2240.570	2254.961
95.928	19.361	2245.140	2286.310
96.943	20.044	2243.525	2293.481
97.957	18.169	2235.828	2260.452
98.972	17.041	2229.720	2239.048
99.987	16.868	2226.713	2233.480
101.001	16.968	2224.598	2232.403
102.016	16.905	2222.718	2229.424
103.030	16.819	2220.660	2225.950
104.045	16.889	2218.477	2224.422
105.060	16.944	2216.393	2222.790
106.074	16.986	2214.505	2221.193
107.089	16.903	2212.777	2218.098
108.103	16.970	2212.005	2217.931
109.118	16.953	2210.586	2216.025
110.133	17.076	2209.081	2215.870
111.147	16.969	2206.952	2212.063
112.162	17.034	2205.128	2210.821
113.176	17.113	2202.679	2209.132
114.191	17.091	2201.849	2207.752
115.206	16.996	2200.848	2205.246
116.220	17.060	2198.044	2203.002
117.235	17.173	2196.237	2202.403
118.249	17.180	2192.891	2198.874
119.264	17.082	2192.419	2196.864
120.279	17.082	2191.122	2195.302
121.293	17.042	2189.458	2192.850
122.308	17.111	2187.689	2191.709
123.322	17.087	2186.421	2189.863
124.337	17.502	2186.984	2195.547
125.352	19.544	2193.150	2227.989
126.366	19.999	2190.905	2231.341
127.381	17.917	2182.187	2195.312
128.395	17.226	2177.395	2181.319
129.410	17.077	2175.511	2177.249
130.424	16.943	2174.905	2174.653
131.439	16.967	2172.780	2172.571
132.454	17.093	2169.721	2170.877
133.468	17.090	2167.853	2168.711
134.483	17.220	2166.319	2168.579
135.497	17.087	2165.284	2165.574
136.512	17.020	2163.468	2162.643
137.527	17.037	2161.681	2160.815
138.541	17.030	2159.981	2158.772
139.556	16.971	2159.563	2157.339
140.570	16.837	2157.378	2153.191
141.585	16.964	2155.322	2152.501
142.600	16.937	2153.657	2150.240
143.614	16.891	2152.131	2147.865
144.629	16.944	2150.073	2146.237
145.643	16.881	2148.545	2143.643
146.658	16.845	2146.863	2141.254
147.673	16.830	2145.772	2139.726
148.687	16.980	2143.950	2139.547
149.702	17.038	2142.284	2138.367
150.716	17.082	2141.346	2137.727
151.731	16.924	2141.092	2135.221
152.746	16.952	2139.427	2133.660
153.760	17.452	2141.651	2141.952
154.775	19.525	2147.331	2173.634
155.789	20.189	2145.061	2179.478
156.804	18.241	2135.033	2144.504
157.819	17.052	2129.499	2123.743
158.833	16.900	2127.229	2119.313
159.848	16.942	2125.087	2117.462
160.862	17.013	2124.073	2117.078
161.877	16.960	2123.614	2115.708
162.892	17.044	2121.844	2114.738
163.906	17.082	2120.431	2113.556
164.921	17.183	2118.144	2112.286
165.935	17.094	2116.315	2109.096
166.950	17.110	2115.102	2107.842
167.964	17.093	2113.242	2105.523
168.979	17.027	2111.065	2102.271
169.994	17.048	2108.874	2100.099
171.008	16.928	2108.498	2097.992
172.023	17.167	2105.253	2097.472
173.037	16.993	2105.421	2095.236
174.052	17.060	2104.521	2094.916
175.067	17.145	2102.271	2093.477
176.081	17.023	2100.633	2090.086
177.096	17.019	2099.588	2088.752
178.110	16.987	2098.017	2086.540
179.125	17.107	2096.412	2086.176
180.140	17.099	2095.799	2085.215
181.154	17.109	2094.279	2083.575
182.169	17.046	2093.553	2081.823
183.183	17.453	2095.127	2088.167
184.198	19.711	2099.919	2120.562
185.213	20.239	2097.273	2124.137
186.227	18.062	2089.780	2089.578
187.242	17.176	2085.744	2074.420
188.256	17.125	2083.521	2071.331
189.271	17.029	2082.913	2069.307
190.286	17.083	2080.232	2067.054
191.300	17.127	2077.957	2065.081
192.315	17.065	2076.979	2063.109
193.329	17.182	2074.586	2061.912
194.344	17.115	2074.971	2061.222
195.359	17.275	2072.842	2060.818
196.373	17.252	2070.144	2057.610
197.388	17.099	2067.817	2053.183
198.402	16.951	2066.252	2049.593
199.417	16.944	2064.209	2047.229
200.432	17.092	2062.461	2047.049
201.446	16.957	2062.185	2044.897
202.461	16.934	2061.248	2043.439
203.475	16.915	2059.107	2040.845
204.490	16.992	2056.530	2038.979
205.504	17.024	2054.290	2036.899
206.519	16.952	2053.059	2034.562
207.534	16.991	2050.726	2032.485
208.548	17.026	2049.331	2031.277
209.563	16.989	2048.179	2029.443
210.577	17.066	2046.870	2028.832
211.592	17.110	2045.942	2028.192
212.607	17.984	2050.905	2043.384
213.621	20.419	2055.915	2077.443
214.636	19.951	2049.796	2065.405
215.650	17.670	2041.975	2030.000
216.665	16.966	2039.695	2019.068
217.680	17.065	2037.040	2017.383
218.694	16.972	2036.454	2015.449
219.709	17.038	2033.982	2013.544
220.723	17.165	2033.376	2014.220
221.738	17.198	2031.249	2012.265
222.753	17.121	2029.305	2009.188
223.767	17.071	2028.015	2007.079
224.782	17.154	2025.874	2005.697
225.796	17.001	2024.492	2002.273
226.811	17.127	2022.653	2001.715
227.826	17.047	2021.352	1999.240
228.840	17.073	2020.318	1998.283
229.855	17.062	2018.618	1996.228
230.869	17.007	2018.277	1995.003
231.884	17.031	2015.323	1992.128
232.899	16.996	2013.990	1990.162
233.913	16.955	2013.462	1988.914
234.928	17.029	2011.746	1987.859
235.942	17.009	2010.238	1985.890
236.957	17.105	2008.257	1984.826
237.972	17.151	2006.252	1983.153
238.986	17.046	2006.621	1982.041
240.001	16.979	2005.044	1979.459
241.015	17.064	2004.066	1979.252
242.030	17.628	2005.325	1986.867
243.045	19.546	2008.616	2012.393
244.059	19.680	2006.530	2011.629
245.074	17.803	1997.855	1980.801
246.088	17.175	1994.584	1970.005
247.103	17.250	1992.462	1968.544
248.117	17.264	1990.966	1966.995
249.132	17.130	1989.817	1964.068
250.147	17.119	1988.170	1962.075
251.161	17.115	1986.575	1960.223
252.176	17.219	1986.018	1960.642
253.190	17.362	1983.789	1959.866
254.205	17.325	1981.320	1956.762
255.220	17.320	1980.517	1955.680
256.234	17.317	1978.926	1953.839
257.249	17.077	1978.447	1950.360
258.263	17.072	1977.018	1948.665
259.278	17.110	1976.824	1948.675
260.293	17.072	1973.945	1945.164
261.307	17.111	1971.485	1942.956
262.322	17.060	1969.891	1940.570
263.336	17.040	1968.017	1938.265
264.351	17.044	1966.650	1936.733
265.366	16.867	1966.043	1933.864
266.380	17.013	1965.329	1934.612
267.395	16.941	1963.267	1931.520
268.409	16.875	1962.298	1929.587
269.424	16.979	1960.860	1929.124
270.439	17.001	1959.946	1928.249
271.453	17.713	1961.261	1937.447
272.468	19.920	1964.485	1965.619
273.482	19.911	1961.883	1962.682
274.497	17.861	1954.095	1931.360
275.512	17.085	1949.764	1918.037
276.526	17.013	1948.247	1915.494
277.541	17.124	1946.094	1914.408
278.555	17.025	1945.406	1912.378
279.570	16.951	1942.501	1908.463
280.585	16.967	1942.271	1908.187
281.599	16.968	1941.134	1906.858
282.614	17.090	1939.484	1906.382
283.628	17.170	1938.906	1906.484
284.643	17.273	1938.160	1906.682
285.657	17.329	1937.092	1906.036
286.672	17.352	1934.886	1903.901
287.687	17.292	1933.139	1901.279
288.701	17.288	1931.877	1899.760
289.716	17.246	1931.002	1898.205
290.730	17.237	1928.998	1895.901
291.745	17.207	1927.589	1893.959
292.760	17.298	1926.501	1893.681
293.774	17.160	1927.056	1892.454
294.789	17.108	1925.268	1889.886
295.803	17.095	1922.387	1886.697
296.818	17.127	1920.806	1885.272
297.833	17.078	1919.822	1883.536
298.847	17.218	1917.648	1882.731
299.862	17.084	1917.132	1880.510
300.876	17.595	1917.820	1886.652
301.891	19.840	1922.009	1915.554
302.906	20.227	1919.867	1917.497
303.920	18.034	1913.672	1886.768
304.935	17.293	1909.729	1874.438
305.949	17.173	1907.534	1870.736
306.964	17.161	1905.352	1868.242
307.979	17.319	1904.002	1868.440
308.993	17.139	1904.383	1866.603
310.008	17.383	1901.989	1866.725
311.022	17.417	1900.118	1865.037
312.037	17.250	1898.554	1861.435
313.052	17.250	1897.163	1859.857
314.066	17.361	1896.125	1859.831
315.081	17.296	1895.528	1858.307
316.095	17.311	1893.430	1856.192
317.110	17.304	1891.514	1854.017
318.125	17.202	1890.227	1851.416
319.139	17.218	1888.895	1850.067
320.154	17.218	1887.450	1848.432
321.168	17.273	1885.118	1846.528
322.183	17.116	1884.170	1843.661
323.197	17.102	1882.816	1841.965
324.212	16.941	1881.159	1838.369
325.227	17.000	1879.125	1836.808
326.241	17.059	1877.255	1835.392
327.256	16.984	1876.171	1833.307
328.270	16.918	1875.657	1831.866
329.285	17.041	1874.868	1832.209
330.300	17.753	1878.465	1843.246
331.314	20.208	1882.356	1873.525
332.329	20.138	1877.306	1867.523
333.343	17.896	1870.530	1836.337
334.358	17.036	1868.003	1824.349
335.373	17.096	1866.009	1822.831
336.387	16.971	1863.129	1818.455
337.402	16.987	1862.243	1817.546
338.416	16.985	1861.243	1816.334
339.431	16.941	1859.842	1814.268
340.446	17.107	1857.200	1813.256
341.460	17.251	1855.928	1813.345
342.475	17.248	1855.009	1812.202
343.489	17.331	1853.752	1811.647
344.504	17.323	1853.140	1810.748
345.519	17.326	1851.640	1809.092
346.533	17.468	1850.006	1808.796
347.548	17.546	1848.397	1807.839
348.562	17.328	1847.989	1804.902
349.577	17.383	1846.856	1804.162
350.592	17.513	1845.882	1804.380
351.606	17.417	1844.628	1801.920
352.621	17.467	1842.817	1800.467
353.635	17.271	1841.069	1796.457
354.650	17.149	1839.605	1793.519
355.665	17.246	1838.000	1792.770
356.679	17.139	1836.596	1790.051
357.694	17.188	1834.996	1788.800
358.708	17.208	1834.287	1788.100
359.723	18.068	1837.700	1800.323
360.738	20.373	1840.024	1826.795
361.752	19.669	1835.846	1814.991
362.767	17.804	1829.680	1789.041
363.781	17.195	1826.663	1779.467
364.796	17.099	1826.128	1777.716
365.810	16.972	1824.748	1774.827
366.825	17.226	1823.174	1775.760
367.840	17.213	1822.496	1774.743
368.854	17.209	1822.300	1774.305
369.869	17.073	1820.015	1770.439
370.883	17.022	1817.658	1767.402
371.898	17.049	1816.702	1766.535
372.913	17.120	1814.890	1765.314
373.927	17.137	1814.277	1764.680
374.942	17.239	1813.211	1764.492
375.956	17.290	1811.418	1763.075
376.971	17.156	1809.782	1759.869
377.986	17.078	1808.494	1757.595
379.000	17.043	1806.904	1755.481
380.015	17.207	1805.480	1755.582
381.029	17.067	1803.575	1752.071
382.044	16.950	1802.381	1749.493
383.059	17.072	1800.027	1748.255
384.073	17.088	1799.046	1747.260
385.088	17.154	1798.250	1746.966
386.102	16.937	1796.672	1742.981
387.117	16.948	1794.466	1740.739
388.132	16.920	1794.807	1740.577
389.146	17.698	1797.781	1751.287
390.161	20.063	1801.066	1778.710
391.175	19.920	1794.937	1770.977
392.190	17.712	1787.361	1740.651
393.205	17.051	1784.745	1731.131
394.219	17.096	1782.958	1729.650
395.234	17.158	1781.841	1728.992
396.248	17.210	1780.443	1727.962
397.263	17.080	1778.657	1724.687
398.278	17.048	1776.230	1721.805
399.292	17.014	1776.403	1721.416
400.307	17.088	1775.961	1721.538
401.321	17.146	1774.495	1720.502
402.336	17.137	1772.958	1718.717
403.350	17.191	1770.705	1716.869
404.365	17.294	1770.051	1717.078
405.380	17.518	1769.547	1718.659
406.394	17.525	1768.923	1717.918
407.409	17.420	1767.505	1715.269
408.423	17.523	1765.123	1713.797
409.438	17.453	1763.197	1711.013
410.453	17.347	1762.838	1709.391
411.467	17.470	1761.886	1709.507
412.482	17.433	1760.130	1707.225
413.496	17.438	1757.877	1704.882
414.511	17.291	1755.705	1701.095
415.526	17.223	1753.816	1698.382
416.540	17.215	1752.810	1697.115
417.555	17.254	1752.713	1697.211
418.569	17.253	1752.857	1697.140
419.584	17.213	1752.871	1696.545
420.599	17.204	1752.820	1696.203
421.613	17.348	1750.610	1695.302
422.628	17.330	1748.827	1693.195
423.642	17.257	1747.558	1691.038
424.657	17.223	1746.107	1689.086
425.672	17.250	1744.232	1687.346
426.686	17.414	1742.445	1687.045
427.701	17.336	1741.165	1684.829
428.715	17.137	1741.039	1682.526
429.730	17.293	1739.553	1682.441
430.745	17.414	1737.510	1681.464
431.759	17.271	1737.445	1679.778
432.774	17.387	1737.235	1680.528
433.788	17.655	1736.692	1682.455
434.803	17.763	1735.508	1682.183
435.818	17.712	1734.805	1680.795
436.832	17.642	1734.014	1679.129
437.847	16.603	1727.222	1662.101
438.861	9.243	1707.783	1571.108
439.876	1.628	1693.983	1483.783
440.890	0.354	1689.734	1467.424
441.905	0.208	1688.878	1465.077
442.920	0.146	1688.120	1463.645
443.934	0.114	1687.184	1462.336
444.949	0.060	1685.364	1460.060
445.963	0.207	1684.036	1460.173
446.978	0.028	1684.212	1458.402
447.993	0.130	1682.532	1457.768
449.007	0.178	1679.792	1455.682
450.022	0.155	1677.786	1453.553
451.036	0.162	1677.362	1453.076
452.051	1.087	1681.468	1465.450
453.066	8.435	1698.177	1551.763
454.080	15.853	1708.719	1633.829
455.095	17.361	1710.557	1650.112
456.109	17.695	1710.647	1653.260
457.124	17.909	1709.338	1653.880
458.139	17.691	1708.702	1650.941
459.153	17.651	1707.388	1649.081
460.168	17.708	1705.429	1647.550
461.182	17.651	1703.566	1644.998
462.197	17.635	1701.944	1643.085
463.212	17.653	1700.190	1641.362
464.226	17.563	1699.458	1639.593
465.241	17.693	1699.044	1640.252
466.255	17.520	1698.163	1637.530
467.270	17.616	1696.963	1637.105
468.285	17.535	1694.875	1634.113
469.299	17.632	1693.109	1633.155
470.314	17.495	1692.230	1630.795
471.328	17.597	1691.150	1630.537
472.343	17.637	1689.983	1629.598
473.358	17.730	1687.864	1628.256
474.372	17.654	1686.928	1626.429
475.387	17.533	1685.679	1623.865
476.401	17.573	1685.141	1623.537
477.416	17.729	1684.065	1623.801
478.430	17.695	1682.378	1621.650
479.445	17.685	1680.746	1619.794
480.460	17.584	1679.629	1617.558
481.474	17.709	1678.090	1617.076
482.489	17.686	1677.435	1616.029
483.503	17.744	1675.228	1614.263
484.518	17.782	1674.357	1613.592
485.533	17.727	1673.090	1611.658
486.547	17.728	1672.454	1610.857
487.562	18.026	1670.997	1612.088
488.576	17.990	1669.850	1610.450
489.591	17.854	1668.599	1607.758
490.606	17.859	1667.024	1606.096
491.620	17.745	1665.291	1603.163
492.635	17.740	1663.633	1601.326
493.649	17.836	1662.561	1601.009
494.664	17.752	1661.300	1598.804
495.679	17.525	1659.781	1595.019
496.693	17.591	1658.828	1594.531
497.708	17.756	1656.926	1594.064
498.722	17.735	1656.659	1593.421
499.737	17.833	1654.669	1592.232
500.752	17.812	1653.167	1590.404
501.766	17.755	1651.108	1587.694
502.781	17.768	1650.355	1586.903
503.795	17.782	1649.267	1585.799
504.810	17.714	1648.232	1583.977
505.825	17.811	1647.584	1584.071
506.839	17.836	1646.352	1582.928
507.854	17.834	1644.695	1581.133
508.868	17.949	1642.654	1580.048
509.883	17.678	1642.528	1577.214
510.898	17.860	1641.828	1578.044
511.912	17.709	1639.931	1574.634
512.927	17.732	1637.638	1572.461
513.941	17.829	1636.600	1572.168
514.956	17.908	1635.497	1571.653
515.971	17.965	1634.331	1570.877
516.985	17.915	1633.273	1569.208
518.000	17.823	1633.028	1567.933
519.014	17.923	1631.195	1566.910
520.029	17.884	1629.776	1564.993
521.043	17.911	1628.870	1564.190
522.058	17.759	1627.564	1561.348
523.073	17.833	1626.327	1560.653
524.087	17.946	1625.466	1560.681
525.102	17.967	1624.114	1559.387
526.116	17.704	1623.419	1556.119
527.131	17.698	1622.292	1554.798
528.146	17.900	1620.520	1554.769
529.160	17.971	1619.586	1554.334
530.175	17.916	1618.864	1552.950
531.189	17.902	1617.434	1551.269
532.204	17.942	1615.893	1549.968
533.219	17.934	1614.051	1547.941
534.233	17.862	1613.077	1546.168
535.248	17.891	1612.682	1545.864
536.262	18.062	1611.900	1546.483
537.277	17.997	1610.961	1544.808
538.292	18.030	1609.757	1543.768
539.306	17.977	1607.694	1541.126
540.321	18.087	1606.223	1540.524
541.335	18.124	1604.965	1539.468
542.350	18.084	1603.837	1537.845
543.365	18.121	1602.480	1536.694
544.379	18.115	1601.196	1535.221
545.394	18.066	1600.086	1533.532
546.408	17.856	1598.245	1529.695
547.423	17.606	1597.397	1526.445
548.438	17.812	1595.584	1526.387
549.452	17.756	1594.832	1524.976
550.467	17.917	1593.895	1525.349
551.481	17.795	1592.770	1522.998
552.496	17.886	1592.749	1523.609
553.511	17.958	1590.992	1522.393
554.525	17.926	1590.347	1521.300
555.540	18.097	1588.691	1521.072
556.554	18.240	1587.245	1520.779
557.569	18.082	1586.007	1518.005
558.583	18.021	1584.058	1515.406
559.598	17.831	1583.822	1513.313
560.613	17.885	1582.384	1512.235
561.627	17.965	1580.596	1511.061
562.642	18.066	1579.599	1510.820
563.656	18.181	1578.589	1510.693
564.671	18.138	1577.207	1508.811
565.686	18.106	1576.051	1507.236
566.700	18.010	1574.342	1504.575
567.715	17.917	1573.749	1503.002
568.729	17.999	1572.258	1502.122
569.744	18.019	1570.950	1500.875
570.759	18.148	1569.337	1500.285
571.773	18.049	1568.283	1498.231
572.788	18.076	1567.152	1497.210
573.802	18.027	1565.572	1495.086
574.817	18.050	1563.893	1493.505
575.832	18.143	1562.969	1493.262
576.846	18.074	1562.052	1491.599
577.861	18.107	1560.405	1490.145
578.875	18.087	1560.467	1489.845
579.890	18.165	1559.253	1489.191
580.905	18.137	1558.582	1488.130
581.919	18.160	1557.959	1487.560
582.934	18.208	1556.944	1486.824
583.948	18.221	1555.333	1485.223
584.963	18.140	1553.768	1482.845
585.978	18.037	1553.098	1481.133
586.992	18.043	1552.494	1480.428
588.007	18.199	1551.561	1480.722
589.021	18.076	1550.531	1478.494
590.036	18.093	1548.961	1476.965
591.051	18.282	1547.631	1477.157
592.065	18.244	1546.709	1475.776
593.080	18.380	1544.189	1474.372
594.094	18.346	1542.779	1472.552
595.109	18.000	1540.993	1467.689
596.123	17.964	1539.375	1465.655
597.138	17.983	1539.181	1465.459
598.153	18.157	1538.091	1465.745
599.167	18.126	1536.458	1463.751
600.182	18.028	1535.691	1462.004
601.196	18.142	1534.675	1461.840
602.211	18.169	1533.425	1460.708
603.226	18.135	1532.434	1459.292
604.240	18.248	1531.043	1458.760
605.255	18.305	1528.957	1457.088
606.269	18.298	1528.892	1456.793
607.284	18.186	1527.737	1454.563
608.299	18.124	1526.111	1452.310
609.313	18.203	1524.483	1451.262
610.328	18.190	1523.482	1450.022
611.342	18.316	1521.210	1448.757
612.357	18.345	1521.038	1448.666
613.372	18.366	1520.702	1448.354
614.386	18.285	1519.516	1446.359
615.401	18.296	1518.846	1445.644
616.415	18.182	1518.430	1444.104
617.430	18.169	1517.304	1442.749
618.445	18.341	1515.719	1442.533
619.459	18.251	1514.778	1440.704
620.474	18.156	1514.685	1439.634
621.488	18.079	1512.743	1436.965
622.503	18.225	1510.913	1436.289
623.518	18.119	1510.617	1434.945
624.532	18.172	1509.425	1434.083
625.547	18.247	1508.076	1433.258
626.561	18.312	1507.794	1433.368
627.576	18.274	1507.077	1432.193
628.591	18.392	1504.571	1430.630
629.605	18.367	1503.201	1428.951
630.620	18.300	1501.600	1426.699
631.634	18.314	1501.082	1426.154
632.649	18.432	1500.316	1426.242
633.663	18.362	1498.595	1423.848
634.678	18.328	1497.519	1422.372
635.693	18.349	1496.644	1421.542
636.707	18.249	1495.081	1419.056
637.722	18.483	1494.086	1419.888
638.736	18.505	1493.299	1419.154
639.751	18.351	1492.425	1416.873
640.766	18.341	1490.952	1415.224
641.780	18.308	1489.529	1413.433
642.795	18.262	1488.482	1411.888
643.809	18.375	1487.785	1411.991
644.824	18.308	1486.998	1410.520
645.839	18.477	1485.421	1410.251
646.853	18.261	1484.771	1407.685
647.868	18.269	1483.753	1406.612
648.882	18.318	1482.017	1405.203
649.897	18.512	1480.337	1405.045
650.912	18.550	1479.034	1403.954
651.926	18.484	1478.073	1402.326
652.941	18.400	1477.719	1401.136
653.955	18.447	1475.551	1399.299
654.970	18.522	1474.071	1398.339
655.985	18.431	1472.454	1395.897
656.999	18.497	1472.103	1395.931
658.014	18.419	1471.059	1394.135
659.028	18.501	1469.789	1393.436
660.043	18.527	1468.553	1392.316
661.058	18.592	1467.221	1391.414
662.072	18.454	1467.017	1389.924
663.087	18.458	1465.887	1388.719
664.101	18.343	1464.662	1386.458
665.116	18.256	1464.192	1385.141
666.131	18.405	1462.472	1384.557
667.145	18.416	1460.635	1382.745
668.160	18.461	1459.941	1382.288
669.174	18.690	1458.508	1382.615
670.189	18.549	1457.377	1380.238
671.204	18.421	1456.640	1378.341
672.218	18.469	1455.772	1377.745
673.233	18.554	1454.666	1377.216
674.247	18.611	1453.441	1376.349
675.262	18.557	1452.374	1374.744
676.276	18.415	1452.171	1373.246
677.291	18.401	1450.918	1371.776
678.306	18.476	1449.300	1370.685
679.320	18.489	1447.450	1368.876
680.335	18.459	1447.532	1368.553
681.349	18.537	1447.424	1368.909
682.364	18.458	1446.145	1366.908
683.379	18.448	1444.248	1364.866
684.393	18.580	1442.361	1363.978
685.408	18.574	1441.342	1362.800
686.422	18.574	1440.414	1361.765
687.437	18.382	1440.878	1360.506
688.452	18.491	1439.787	1360.178
689.466	18.503	1437.542	1357.995
690.481	18.562	1436.346	1357.170
691.495	18.291	1436.205	1354.717
692.510	18.357	1434.804	1353.760
693.525	18.310	1433.103	1351.623
694.539	18.232	1432.245	1350.028
695.554	18.523	1431.561	1351.530
696.568	18.430	1430.775	1349.886
697.583	18.497	1429.385	1348.944
698.598	18.418	1429.227	1348.010
699.612	18.504	1427.780	1347.167
700.627	18.612	1426.369	1346.525
701.641	18.674	1425.062	1345.615
702.656	18.490	1424.341	1343.330
703.671	18.486	1424.018	1342.831
704.685	18.574	1422.927	1342.332
705.700	18.535	1421.451	1340.477
706.714	18.634	1419.621	1339.363
707.729	18.388	1419.209	1336.888
708.744	18.530	1417.544	1336.268
709.758	18.488	1416.821	1335.097
710.773	18.634	1416.030	1335.332
711.787	18.758	1414.037	1334.263
712.802	18.600	1412.739	1331.647
713.816	18.643	1412.419	1331.522
714.831	18.632	1410.959	1329.900
715.846	18.648	1410.183	1329.133
716.860	18.614	1408.995	1327.591
717.875	18.694	1407.909	1327.034
718.889	18.542	1406.798	1324.647
719.904	18.565	1405.601	1323.541
720.919	18.552	1404.658	1322.390
721.933	18.670	1404.281	1322.793
722.948	18.560	1403.747	1321.274
723.962	18.703	1402.216	1320.788
724.977	18.706	1400.982	1319.488
725.992	18.647	1399.725	1317.690
727.006	18.779	1397.705	1316.646
728.021	18.651	1397.096	1314.933
729.035	18.763	1395.650	1314.278
730.050	18.701	1395.126	1313.150
731.065	18.739	1393.918	1312.142
732.079	18.615	1392.953	1310.124
733.094	18.741	1391.109	1309.203
734.108	18.660	1390.156	1307.530
735.123	18.568	1389.100	1305.678
736.138	18.491	1387.949	1303.846
737.152	18.727	1386.676	1304.300
738.167	18.733	1386.263	1303.797
739.181	18.733	1385.583	1303.002
740.196	18.862	1384.258	1302.585
741.211	18.534	1383.479	1299.196
742.225	18.480	1382.834	1298.025
743.240	18.720	1381.110	1298.080
744.254	18.667	1379.347	1295.860
745.269	18.584	1379.523	1295.238
746.284	18.485	1378.897	1293.752
747.298	18.540	1377.075	1292.300
748.313	18.418	1376.458	1290.643
749.327	18.454	1375.126	1289.510
750.342	18.480	1374.488	1288.953
751.356	18.449	1373.403	1287.546
752.371	18.433	1372.209	1286.154
753.386	18.403	1371.892	1285.475
754.400	18.647	1370.357	1285.723
755.415	18.870	1369.194	1286.160
756.429	18.688	1367.188	1282.749
757.444	18.729	1366.901	1282.633
758.459	18.706	1366.257	1281.704
759.473	18.754	1364.947	1280.686
760.488	18.758	1363.757	1279.442
761.502	18.746	1362.774	1278.278
762.517	18.743	1361.678	1277.076
763.532	18.814	1359.745	1275.636
764.546	18.754	1359.234	1274.562
765.561	18.681	1358.804	1273.457
766.575	18.584	1357.821	1271.660
767.590	18.574	1356.267	1269.977
768.605	18.703	1354.931	1269.534
769.619	18.775	1354.167	1269.205
770.634	18.680	1352.834	1267.097
771.648	18.723	1351.755	1266.252
772.663	18.794	1351.303	1266.209
773.678	18.699	1350.441	1264.541
774.692	18.785	1349.014	1263.690
775.707	18.759	1349.105	1263.429
776.721	18.818	1348.319	1262.981
777.736	18.668	1347.185	1260.657
778.751	18.786	1346.223	1260.480
779.765	18.668	1345.522	1258.801
780.780	18.729	1344.393	1258.048
781.794	18.662	1343.677	1256.733
782.809	18.701	1342.248	1255.533
783.824	18.612	1341.227	1253.769
784.838	18.464	1339.277	1250.716
785.853	18.428	1338.723	1249.784
786.867	18.383	1338.258	1248.865
787.882	18.396	1337.723	1248.312
788.897	18.530	1337.137	1248.601
789.911	18.524	1335.756	1247.114
790.926	18.586	1334.265	1246.027
791.940	18.638	1332.843	1244.927
792.955	18.650	1331.610	1243.718
793.969	18.751	1330.548	1243.309
794.984	18.821	1329.657	1242.842
795.999	18.818	1328.220	1241.324
797.013	18.933	1326.967	1240.842
798.028	18.774	1326.020	1238.652
799.042	18.517	1325.778	1236.418
800.057	18.873	1324.383	1237.548
801.072	18.754	1323.224	1235.453
802.086	18.726	1321.890	1233.856
803.101	18.731	1320.817	1232.742
804.115	18.893	1319.699	1232.724
805.130	18.901	1318.842	1231.833
806.145	18.815	1318.264	1230.525
807.159	18.947	1316.611	1229.782
808.174	18.795	1315.209	1227.237
809.188	18.995	1313.784	1227.195
810.203	18.836	1312.833	1225.020
811.218	18.756	1311.427	1222.985
812.232	18.967	1309.439	1222.497
813.247	18.544	1309.250	1219.147
814.261	18.693	1308.879	1219.721
815.276	18.736	1307.525	1218.620
816.291	18.858	1306.805	1218.673
817.305	19.004	1305.400	1218.256
818.320	18.779	1304.365	1215.545
819.334	18.845	1303.051	1214.647
820.349	18.786	1301.937	1213.040
821.364	18.907	1300.111	1212.054
822.378	18.879	1298.588	1210.287
823.393	18.765	1297.328	1208.164
824.407	18.822	1296.539	1207.690
825.422	18.695	1296.182	1206.313
826.437	18.849	1294.959	1206.122
827.451	18.606	1293.532	1202.929
828.466	18.550	1291.766	1200.754
829.480	18.534	1290.051	1198.900
830.495	18.473	1288.184	1196.593
831.509	18.464	1288.631	1196.804
832.524	18.589	1287.417	1196.407
833.539	18.583	1286.411	1195.290
834.553	18.806	1284.699	1195.115
835.568	18.837	1283.298	1193.884
836.582	18.859	1283.115	1193.728
837.597	18.792	1281.918	1192.001
838.612	18.878	1280.372	1191.022
839.626	18.880	1279.093	1189.700
840.641	18.897	1278.572	1189.196
841.655	18.722	1278.369	1187.646
842.670	18.785	1276.614	1186.313
843.685	18.626	1275.728	1184.243
844.699	18.863	1274.239	1184.360
845.714	18.718	1272.956	1182.023
846.728	18.835	1271.965	1181.767
847.743	19.033	1270.772	1181.887
848.758	18.884	1269.730	1179.749
849.772	18.938	1268.168	1178.532
850.787	18.827	1266.515	1176.084
851.801	18.896	1265.697	1175.659
852.816	18.810	1264.712	1174.015
853.831	18.607	1263.373	1171.237
854.845	18.805	1261.122	1170.368
855.860	18.633	1260.142	1168.141
856.874	18.567	1259.441	1166.898
857.889	18.669	1258.040	1166.158
858.904	18.664	1256.168	1164.249
859.918	18.276	1254.646	1160.054
860.933	18.388	1254.325	1160.388
861.947	18.544	1253.527	1160.568
862.962	18.732	1250.989	1159.355
863.977	18.540	1250.309	1157.284
864.991	18.653	1250.232	1157.844
866.006	18.755	1249.703	1157.905
867.020	18.879	1248.018	1157.045
868.035	18.609	1247.826	1154.900
869.049	18.878	1246.771	1155.603
870.064	18.785	1245.787	1153.927
871.079	18.759	1245.261	1153.121
872.093	18.906	1244.288	1153.075
873.108	18.891	1242.868	1151.520
874.122	19.103	1241.568	1151.604
875.137	18.810	1241.935	1149.837
876.152	18.907	1240.360	1148.892
877.166	18.963	1238.978	1147.854
878.181	18.821	1238.517	1146.332
879.195	19.028	1237.249	1146.413
880.210	18.961	1235.682	1144.372
881.225	19.041	1234.347	1143.532
882.239	18.938	1234.014	1142.399
883.254	18.926	1233.424	1141.640
884.268	18.826	1232.963	1140.408
885.283	18.948	1231.218	1139.466
886.298	18.923	1229.675	1137.741
887.312	18.948	1228.911	1137.060
888.327	18.994	1227.600	1136.016
889.341	18.858	1226.280	1133.757
890.356	19.090	1225.394	1134.341
891.371	18.763	1225.504	1132.138
892.385	18.727	1224.547	1130.883
893.400	18.821	1223.985	1130.851
894.414	18.698	1222.512	1128.543
895.429	18.752	1220.354	1126.771
896.444	18.617	1218.841	1124.352
897.458	18.509	1217.849	1122.589
898.473	18.607	1217.283	1122.579
899.487	18.710	1217.171	1123.019
900.502	18.791	1215.896	1122.239
901.517	18.892	1214.073	1121.083
902.531	18.938	1213.189	1120.432
903.546	19.011	1213.114	1120.709
904.560	19.011	1212.148	1119.682
905.575	18.994	1211.538	1118.875
906.589	19.078	1210.033	1117.897
907.604	19.122	1209.462	1117.525
