DTS Sentinel unit serial number:	SN409020Multiplexer serial number:	ORYXHardware model number:	OX4-SRSoftware version number:	ORYX F/W v3.00 Oryx Data Collector v3.7.2.0data status	okinstallation	HaddamTimeLapsedifferential loss correction	single-endedforward channel	channel 3reverse channel	N/Adate	2011/06/22time	08:16:16forward acquisition time	30.00reverse acquisition time	0.00gamma	498.7831k internal	0.1773k external	0.1773temperature offset calibration	1.0074default loss term (dB/km)	0.3790temperature slope calibration	1.3530multiplexer offset coefficient	1.0000multiplexer slope coefficient	1.0000fibre end	0.00T internal ref (°C)	25.25T ext. ref 1 (°C)	24.12T ext. ref 2 (°C)	0.16length (m)	temperature (°C)	Stokes	anti-Stokes-747.200	332.937	-0.106	-0.271
-746.185	276.970	-0.114	0.267
-745.171	800.000	-0.031	0.146
-744.156	-200.000	0.070	0.595
-743.142	-140.447	-0.407	0.055
-742.127	-99.908	0.153	0.050
-741.112	800.000	-0.147	0.636
-740.098	400.623	0.081	0.224
-739.083	9.980	-0.116	0.115
-738.069	-200.000	0.037	0.512
-737.054	-109.438	-0.598	0.165
-736.039	-200.000	0.037	0.410
-735.025	800.000	0.077	0.331
-734.010	157.927	0.413	-0.753
-732.996	-55.533	-0.320	-0.187
-731.981	-173.328	0.424	-0.017
-730.966	-159.183	0.229	0.017
-729.952	-74.837	-0.371	-0.174
-728.937	-120.202	0.234	0.052
-727.923	-200.000	0.011	0.202
-726.908	-72.728	0.262	-0.126
-725.894	-80.561	-0.357	-0.155
-724.879	276.945	0.120	-0.280
-723.864	-200.000	-0.029	0.338
-722.850	-150.052	-0.110	0.011
-721.835	-84.838	-0.862	-0.353
-720.821	35.912	-0.281	-0.324
-719.806	-148.188	0.302	0.032
-718.791	-23.848	0.378	-0.296
-717.777	-91.392	0.235	0.087
-716.762	-76.352	-0.142	-0.065
-715.748	-79.945	0.360	0.157
-714.733	-200.000	0.003	0.142
-713.718	-34.160	-0.520	-0.373
-712.704	-200.000	-0.010	-0.146
-711.689	-1.703	0.200	-0.185
-710.675	31.141	-0.336	-0.377
-709.660	398.035	-0.135	-0.371
-708.645	-200.000	0.053	-0.539
-707.631	-123.105	-0.567	0.118
-706.616	-79.401	0.500	0.221
-705.602	-80.064	0.042	0.018
-704.587	-200.000	0.017	0.386
-703.572	-70.934	0.657	-0.322
-702.558	-3.074	-0.240	0.219
-701.543	350.698	0.183	-0.476
-700.529	800.000	0.040	0.191
-699.514	50.706	-0.519	0.644
-698.499	9.672	-0.188	0.186
-697.485	126.913	-0.108	-0.179
-696.470	-65.155	0.457	0.240
-695.456	-200.000	-0.009	0.058
-694.441	800.000	0.103	0.594
-693.426	52.919	-0.105	-0.131
-692.412	-24.098	-0.270	-0.211
-691.397	82.580	0.109	0.156
-690.383	-127.727	0.208	0.039
-689.368	152.161	0.139	-0.249
-688.354	-194.262	-0.192	0.002
-687.339	-33.122	-0.092	0.066
-686.324	-154.111	-0.282	-0.025
-685.310	-106.592	0.224	-0.065
-684.295	-199.359	-0.273	0.002
-683.281	-95.941	-0.469	0.163
-682.266	-128.730	0.275	-0.050
-681.251	276.170	0.081	0.189
-680.237	-81.584	-0.364	0.156
-679.222	-51.729	-0.294	0.179
-678.208	-115.734	0.110	0.027
-677.193	800.000	-0.120	0.540
-676.178	-38.918	-0.548	0.377
-675.164	312.437	0.146	-0.360
-674.149	-97.448	-0.209	-0.071
-673.135	800.000	-0.038	0.208
-672.120	217.538	0.128	0.267
-671.105	121.700	0.238	0.388
-670.091	23.948	0.112	0.121
-669.076	-200.000	0.001	0.030
-668.062	-36.580	0.362	-0.254
-667.047	6.653	-0.324	-0.315
-666.032	-177.199	0.195	-0.006
-665.018	-35.772	0.173	-0.122
-664.003	-75.962	-0.108	-0.050
-662.989	469.016	-0.105	0.310
-661.974	800.000	0.046	0.211
-660.959	245.606	-0.272	0.602
-659.945	118.523	0.368	0.596
-658.930	-47.062	0.280	-0.178
-657.916	-89.043	-0.387	-0.149
-656.901	800.000	0.015	-0.061
-655.886	-47.905	-0.421	0.266
-654.872	302.841	0.185	-0.449
-653.857	-200.000	-0.013	-0.332
-652.843	800.000	0.038	0.203
-651.828	81.224	0.212	-0.300
-650.814	298.992	-0.093	-0.225
-649.799	-72.914	0.083	-0.040
-648.784	61.462	-0.128	0.166
-647.770	127.916	-0.198	-0.330
-646.755	50.458	-0.048	0.059
-645.741	-103.992	0.140	0.042
-644.726	-176.758	-0.337	-0.011
-643.711	532.762	0.088	0.273
-642.697	-17.233	-0.144	0.119
-641.682	-65.040	-0.196	-0.103
-640.668	-84.252	0.224	0.092
-639.653	290.714	-0.161	-0.384
-638.638	-118.612	-0.192	0.044
-637.624	107.020	0.126	-0.195
-636.609	-22.606	0.575	0.453
-635.595	279.343	0.069	-0.161
-634.580	214.214	-0.099	0.205
-633.565	-7.302	0.178	-0.158
-632.551	51.829	-0.395	-0.492
-631.536	-160.396	-0.483	0.033
-630.522	-156.456	0.265	0.021
-629.507	-41.145	-0.272	0.183
-628.492	-71.665	-0.217	0.105
-627.478	-17.490	-0.377	-0.309
-626.463	-96.248	0.171	0.059
-625.449	246.502	0.181	-0.401
-624.434	-126.613	-0.261	0.050
-623.419	-168.927	-0.266	-0.013
-622.405	-6.435	0.129	-0.115
-621.390	-11.834	0.389	0.332
-620.376	-154.369	-0.324	0.028
-619.361	-39.551	-0.283	0.193
-618.346	182.440	-0.073	-0.141
-617.332	-162.236	-0.446	0.029
-616.317	800.000	0.057	0.228
-615.303	-17.458	0.414	0.339
-614.288	-102.171	-0.331	0.103
-613.273	650.559	0.200	0.673
-612.259	176.638	0.363	0.690
-611.244	35.216	-0.153	-0.175
-610.230	-111.509	-0.378	0.100
-609.215	-63.938	0.175	0.093
-608.201	-5.429	0.395	-0.353
-607.186	800.000	0.049	0.231
-606.171	-35.355	-0.296	-0.210
-605.157	-200.000	0.013	0.098
-604.142	-107.825	-0.150	0.042
-603.128	-87.389	-0.536	-0.211
-602.113	-171.702	-0.270	0.011
-601.098	-154.211	0.060	-0.005
-600.084	-47.805	-0.217	-0.137
-599.069	-153.839	-0.195	0.017
-598.055	-13.120	0.110	0.093
-597.040	800.000	0.122	-0.494
-596.025	-50.666	-0.129	0.079
-595.011	243.363	0.256	-0.562
-593.996	-200.000	0.038	-0.247
-592.982	-15.769	0.356	0.295
-591.967	118.724	0.157	-0.253
-590.952	-200.000	0.014	0.295
-589.938	-156.372	0.138	0.011
-588.923	118.011	-0.190	-0.306
-587.909	98.971	-0.207	-0.312
-586.894	602.423	0.109	-0.357
-585.879	-200.000	0.022	0.168
-584.865	263.141	-0.128	0.290
-583.850	-113.828	0.293	0.074
-582.836	387.745	-0.105	0.286
-581.821	-71.680	-0.203	0.099
-580.806	539.460	-0.096	-0.301
-579.792	-4.922	-0.189	-0.169
-578.777	-200.000	-0.011	0.175
-577.763	18.288	-0.065	-0.068
-576.748	-25.427	-0.378	0.291
-575.733	107.306	0.266	-0.413
-574.719	70.862	0.164	-0.222
-573.704	-200.000	-0.019	-0.320
-572.690	-32.083	0.474	0.344
-571.675	-16.305	0.094	0.078
-570.661	-47.040	0.456	-0.289
-569.646	-200.000	0.032	0.225
-568.631	-110.874	-0.102	0.027
-567.617	-18.404	-0.035	-0.029
-566.602	-52.982	-0.020	0.012
-565.588	127.782	-0.023	-0.038
-564.573	201.655	0.008	-0.017
-563.558	800.000	-0.108	-0.423
-562.544	-2.391	0.173	0.158
-561.529	-147.530	-0.524	0.057
-560.515	309.221	0.123	0.300
-559.500	-28.768	0.197	-0.147
-558.485	-16.376	-0.183	-0.151
-557.471	800.000	0.104	0.378
-556.456	-200.000	0.015	-0.241
-555.442	84.792	0.117	0.167
-554.427	423.195	-0.098	0.274
-553.412	-200.000	0.034	-0.317
-552.398	-200.000	-0.001	0.151
-551.383	434.990	-0.159	-0.451
-550.369	-98.808	0.403	-0.133
-549.354	-114.963	0.345	-0.085
-548.339	-200.000	0.014	0.269
-547.325	-21.311	-0.244	0.194
-546.310	-165.097	-0.402	-0.023
-545.296	800.000	-0.029	-0.157
-544.281	-200.000	0.022	0.152
-543.266	-200.000	-0.005	0.083
-542.252	800.000	-0.084	-0.319
-541.237	105.428	-0.214	-0.330
-540.223	177.541	-0.063	0.119
-539.208	-5.985	0.161	0.143
-538.193	-14.566	0.316	0.264
-537.179	-138.523	0.123	-0.017
-536.164	12.699	-0.020	-0.020
-535.150	-86.730	-0.280	-0.111
-534.135	378.911	0.030	-0.081
-533.121	-59.316	-0.570	0.318
-532.106	83.115	-0.158	-0.224
-531.091	-106.639	0.378	0.109
-530.077	800.000	0.139	0.652
-529.062	-14.060	0.118	-0.099
-528.048	-36.830	0.250	0.174
-527.033	312.536	0.133	0.327
-526.018	-80.858	-0.239	-0.103
-525.004	139.219	-0.101	-0.173
-523.989	137.946	0.265	0.453
-522.975	-52.314	0.278	-0.167
-521.960	-87.945	0.294	-0.114
-520.945	-61.261	0.295	0.161
-519.931	800.000	-0.108	-0.393
-518.916	-106.801	-0.265	-0.076
-517.902	800.000	0.028	-0.141
-516.887	-67.616	-0.361	0.183
-515.872	-24.085	0.312	0.242
-514.858	-200.000	-0.008	-0.464
-513.843	159.617	0.069	-0.126
-512.829	-60.023	-0.282	-0.156
-511.814	-200.000	0.011	-0.129
-510.799	-43.170	-0.175	0.115
-509.785	212.466	-0.130	0.267
-508.770	-72.142	0.215	-0.103
-507.756	-99.388	-0.307	0.100
-506.741	55.771	0.352	0.443
-505.726	800.000	-0.110	0.581
-504.712	-10.070	-0.338	0.292
-503.697	-67.789	0.232	-0.117
-502.683	-102.427	0.490	-0.151
-501.668	91.170	-0.391	-0.570
-500.653	-44.255	-0.322	0.209
-499.639	-200.000	0.001	-0.148
-498.624	-70.428	-0.140	0.069
-497.610	-200.000	-0.025	0.198
-496.595	-95.472	0.454	-0.157
-495.581	-200.000	0.007	-0.699
-494.566	255.666	-0.162	-0.362
-493.551	237.011	0.198	-0.428
-492.537	-98.879	0.335	-0.110
-491.522	50.450	0.331	-0.407
-490.508	309.192	-0.145	-0.354
-489.493	-26.160	0.189	-0.144
-488.478	-91.290	0.610	-0.225
-487.464	-35.788	0.160	0.112
-486.449	83.304	-0.300	-0.425
-485.435	-92.762	-0.432	-0.156
-484.420	-200.000	-0.012	-0.159
-483.405	800.000	0.096	-0.502
-482.391	-174.088	0.191	0.007
-481.376	59.908	0.353	-0.453
-480.362	148.446	0.162	-0.284
-479.347	6.883	-0.276	-0.266
-478.332	-200.000	-0.004	0.034
-477.318	800.000	-0.054	0.235
-476.303	-190.770	0.463	-0.006
-475.289	-42.708	-0.122	-0.080
-474.274	50.851	-0.056	0.069
-473.259	124.858	-0.147	-0.241
-472.245	-36.377	-0.503	0.351
-471.230	800.000	0.107	-0.395
-470.216	-17.337	-0.134	-0.110
-469.201	99.386	-0.200	-0.301
-468.186	237.567	0.303	0.654
-467.172	-49.419	-0.328	-0.202
-466.157	-81.991	-0.050	-0.021
-465.143	-100.357	-0.277	-0.089
-464.128	-103.877	0.360	0.108
-463.113	214.329	0.143	-0.295
-462.099	800.000	0.074	-0.347
-461.084	-200.000	0.088	-0.522
-460.070	800.000	0.077	-0.278
-459.055	-88.167	0.391	-0.151
-458.040	-158.370	-0.162	0.012
-457.026	-200.000	-0.005	-0.146
-456.011	-120.642	0.435	0.095
-454.997	-68.983	-0.108	-0.054
-453.982	19.289	0.209	0.218
-452.968	8.833	-0.385	0.377
-451.953	-9.034	0.185	-0.160
-450.938	232.266	0.220	-0.471
-449.924	-24.605	-0.161	0.124
-448.909	-10.168	0.431	-0.371
-447.895	86.443	-0.302	0.433
-446.880	-200.000	-0.002	0.063
-445.865	-45.727	0.296	-0.189
-444.851	-75.295	-0.274	-0.126
-443.836	113.610	-0.169	0.266
-442.822	458.574	-0.114	-0.331
-441.807	-119.718	0.144	0.032
-440.792	-67.926	-0.160	0.081
-439.778	-92.121	-0.234	-0.085
-438.763	800.000	0.066	0.354
-437.749	-149.834	-0.174	-0.017
-436.734	-148.265	-0.329	-0.035
-435.719	800.000	0.128	0.568
-434.705	682.538	0.063	0.214
-433.690	-48.849	0.087	-0.054
-432.676	-78.706	-0.101	0.044
-431.661	-87.850	-0.153	0.059
-430.646	162.148	-0.010	0.018
-429.632	-176.463	0.244	-0.008
-428.617	-6.901	-0.307	-0.270
-427.603	50.434	-0.293	-0.360
-426.588	-69.871	-0.328	0.161
-425.573	-159.554	0.175	0.012
-424.559	-200.000	0.009	-0.161
-423.544	91.647	0.142	0.208
-422.530	500.035	0.125	-0.376
-421.515	-200.000	-0.043	0.277
-420.500	172.886	0.378	0.708
-419.486	-17.355	-0.155	0.126
-418.471	-45.041	-0.287	0.184
-417.457	-97.291	-0.064	0.021
-416.442	67.721	0.064	0.084
-415.428	-80.667	-0.490	-0.210
-414.413	800.000	-0.050	-0.282
-413.398	-200.000	0.089	0.574
-412.384	800.000	-0.051	0.221
-411.369	-200.000	0.022	0.242
-410.355	800.000	-0.109	0.448
-409.340	-200.000	-0.061	0.438
-408.325	2.683	-0.104	0.098
-407.311	10.043	0.259	0.254
-406.296	93.617	-0.254	0.372
-405.282	91.249	0.064	-0.093
-404.267	156.094	0.311	0.557
-403.252	-188.892	0.334	0.005
-402.238	102.805	-0.338	0.513
-401.223	127.707	-0.418	0.689
-400.209	-111.905	0.523	0.136
-399.194	-188.732	-0.278	0.004
-398.179	6.575	-0.133	0.128
-397.165	-200.000	-0.009	0.476
-396.150	118.065	0.156	-0.249
-395.136	-13.152	-0.274	-0.230
-394.121	800.000	-0.041	0.171
-393.106	205.211	0.087	0.175
-392.092	-13.510	-0.293	0.245
-391.077	-187.219	-0.528	0.009
-390.063	49.845	0.045	-0.055
-389.048	128.847	0.298	0.493
-388.033	-200.000	0.067	-0.535
-387.019	-123.882	-0.782	-0.158
-386.004	-91.858	-0.061	-0.022
-384.990	-27.651	0.463	0.347
-383.975	-2.042	0.135	-0.123
-382.960	322.456	-0.175	0.432
-381.946	-165.253	0.452	0.025
-380.931	-200.000	-0.008	0.217
-379.917	-150.409	-0.315	-0.031
-378.902	-10.715	-0.142	0.121
-377.888	300.094	0.162	-0.387
-376.873	160.628	0.069	-0.124
-375.858	-107.009	-0.425	0.121
-374.844	12.912	-0.518	0.518
-373.829	154.182	-0.210	0.373
-372.815	-146.473	-0.184	0.020
-371.800	-120.092	0.276	-0.061
-370.785	190.380	0.085	0.165
-369.771	-108.325	-0.210	-0.058
-368.756	383.190	0.131	0.349
-367.742	-128.495	0.288	0.052
-366.727	-111.732	-0.387	0.101
-365.712	477.530	0.144	0.424
-364.698	84.587	-0.295	-0.418
-363.683	-159.098	0.567	-0.041
-362.669	-53.607	-0.182	0.107
-361.654	73.477	-0.254	0.344
-360.639	-121.497	0.517	0.110
-359.625	800.000	0.107	-0.412
-358.610	-200.000	0.025	0.281
-357.596	357.363	0.178	0.462
-356.581	-41.605	0.021	-0.014
-355.566	-200.000	-0.008	-0.164
-354.552	-200.000	-0.031	0.459
-353.537	145.932	-0.174	-0.302
-352.523	-58.139	-0.551	-0.309
-351.508	-79.221	-0.261	-0.114
-350.493	14.814	-0.286	-0.288
-349.479	-200.000	-0.013	-0.268
-348.464	-180.964	0.272	0.007
-347.450	-128.322	-0.249	0.045
-346.435	6.009	0.262	-0.251
-345.420	255.330	-0.099	-0.221
-344.406	-120.564	-0.166	0.036
-343.391	-171.472	0.487	-0.021
-342.377	800.000	-0.087	0.320
-341.362	367.307	0.097	0.253
-340.348	-55.849	-0.500	-0.288
-339.333	-95.713	0.197	-0.068
-338.318	-200.000	-0.009	-0.154
-337.304	800.000	0.072	0.298
-336.289	800.000	-0.054	-0.221
-335.275	19.899	-0.366	0.381
-334.260	60.176	0.370	-0.473
-333.245	-149.347	0.454	-0.046
-332.231	68.752	-0.199	-0.264
-331.216	-128.226	-0.149	0.027
-330.202	368.681	-0.013	0.035
-329.187	6.378	0.320	0.306
-328.172	62.132	-0.224	0.289
-327.158	50.182	0.258	0.315
-326.143	-101.230	0.224	-0.070
-325.129	800.000	0.041	-0.229
-324.114	-62.647	0.244	-0.130
-323.099	225.297	-0.146	-0.306
-322.085	-22.736	0.413	-0.321
-321.070	321.744	0.014	0.034
-320.056	81.613	-0.044	-0.062
-319.041	-200.000	-0.018	-0.199
-318.026	-105.681	0.406	0.118
-317.012	-113.560	-0.247	0.062
-315.997	-122.638	0.053	0.011
-314.983	-116.090	-0.320	0.076
-313.968	12.126	-0.331	-0.328
-312.953	-200.000	0.014	-0.193
-311.939	-47.981	0.311	0.194
-310.924	-200.000	-0.019	-0.225
-309.910	-17.715	-0.439	0.355
-308.895	678.928	-0.128	0.433
-307.880	-124.373	-0.543	-0.108
-306.866	214.750	-0.298	0.612
-305.851	109.853	-0.148	0.230
-304.837	241.403	-0.058	-0.126
-303.822	-119.857	-0.103	0.023
-302.807	-72.925	-0.367	-0.173
-301.793	134.768	0.136	-0.228
-300.778	-1.022	-0.214	0.195
-299.764	-145.562	-0.374	0.043
-298.749	800.000	0.077	0.408
-297.735	361.701	0.209	0.542
-296.720	-63.504	0.408	0.215
-295.705	-62.256	0.601	-0.321
-294.691	216.136	0.200	-0.411
-293.676	800.000	-0.019	0.091
-292.662	100.659	0.222	-0.333
-291.647	800.000	0.037	-0.194
-290.632	-166.499	-0.525	0.028
-289.618	-62.448	0.363	-0.194
-288.603	-54.018	0.086	0.050
-287.589	62.277	0.092	-0.119
-286.574	-26.980	-0.165	-0.124
-285.559	-98.471	0.421	0.138
-284.545	13.557	0.513	0.512
-283.530	2.234	-0.170	0.158
-282.516	-96.657	0.319	0.108
-281.501	-184.391	0.198	-0.004
-280.486	168.696	-0.186	0.342
-279.472	386.019	-0.096	-0.256
-278.457	632.267	-0.034	0.112
-277.443	11.359	0.162	0.160
-276.428	50.709	0.289	-0.353
-275.413	-65.354	-0.383	-0.197
-274.399	-40.397	0.321	0.214
-273.384	-168.483	0.356	-0.017
-272.370	65.332	0.245	-0.320
-271.355	115.137	0.193	0.304
-270.340	-200.000	0.051	0.423
-269.326	-73.133	-0.355	-0.167
-268.311	493.492	-0.152	-0.450
-267.297	800.000	0.145	-0.581
-266.282	-88.547	0.354	0.135
-265.267	-200.000	-0.028	-0.442
-264.253	-200.000	-0.018	0.196
-263.238	-106.997	0.175	0.049
-262.224	74.947	-0.260	-0.353
-261.209	-200.000	-0.013	0.215
-260.195	-158.346	-0.283	-0.021
-259.180	800.000	-0.057	-0.254
-258.165	-127.620	-0.202	0.037
-257.151	59.131	-0.295	-0.375
-256.136	22.800	0.141	0.149
-255.122	-147.998	-0.201	-0.021
-254.107	800.000	0.053	0.261
-253.092	-34.735	0.113	0.079
-252.078	11.673	-0.216	0.213
-251.063	-159.711	-0.236	0.017
-250.049	-51.770	-0.223	-0.133
-249.034	-200.000	-0.063	-0.367
-248.019	33.649	0.101	0.113
-247.005	-68.899	0.334	-0.165
-245.990	6.094	0.260	-0.248
-244.976	532.892	-0.041	0.127
-243.961	173.090	-0.042	0.077
-242.946	-200.000	0.033	-0.231
-241.932	-129.340	0.120	-0.021
-240.917	128.071	0.219	-0.360
-239.903	-59.590	-0.305	-0.167
-238.888	-55.775	-0.133	-0.076
-237.873	150.520	0.205	0.359
-236.859	-63.176	0.245	0.130
-235.844	-156.793	0.354	0.028
-234.830	-26.779	0.779	-0.584
-233.815	114.752	-0.099	-0.155
-232.800	239.983	0.177	-0.381
-231.786	101.426	0.240	0.359
-230.771	-124.248	-0.456	-0.091
-229.757	-154.010	0.786	-0.068
-228.742	725.479	0.075	-0.257
-227.727	27.011	0.445	-0.480
-226.713	-113.193	0.318	0.080
-225.698	336.166	0.149	0.373
-224.684	32.098	-0.187	0.208
-223.669	800.000	-0.128	0.488
-222.655	-20.300	-0.361	0.285
-221.640	34.337	-0.154	0.173
-220.625	-116.666	-0.313	-0.073
-219.611	800.000	0.056	-0.224
-218.596	-200.000	0.018	-0.219
-217.582	-93.299	-0.254	-0.090
-216.567	-79.551	0.557	0.241
-215.552	-7.681	0.453	-0.393
-214.538	69.921	0.128	-0.170
-213.523	-12.635	0.330	0.276
-212.509	114.298	0.127	-0.200
-211.494	-76.728	-0.152	0.068
-210.479	96.490	-0.153	-0.225
-209.465	-114.594	-0.186	0.045
-208.450	264.608	0.102	-0.229
-207.436	501.064	0.049	-0.147
-206.421	326.980	-0.053	-0.131
-205.406	291.428	-0.165	0.387
-204.392	-36.777	0.226	0.155
-203.377	800.000	-0.063	-0.259
-202.363	800.000	-0.050	-0.239
-201.348	-91.614	0.422	0.153
-200.333	-20.497	0.184	-0.145
-199.319	-14.067	-0.299	0.248
-198.304	800.000	0.101	-0.403
-197.290	-200.000	-0.059	-0.359
-196.275	55.064	0.201	-0.250
-195.260	-126.603	-0.287	-0.054
-194.246	-72.484	-0.586	0.277
-193.231	18.214	0.326	0.333
-192.217	-100.996	-0.330	0.103
-191.202	567.228	-0.044	-0.139
-190.187	541.213	0.143	-0.441
-189.173	4.609	-0.277	0.261
-188.158	-53.701	-0.163	0.095
-187.144	-200.000	0.035	0.532
-186.129	800.000	0.100	0.451
-185.114	-53.721	0.193	0.113
-184.100	-200.000	0.032	0.282
-183.085	-83.590	-0.256	-0.105
-182.071	-95.657	0.375	0.128
-181.056	-116.631	0.243	-0.057
-180.042	-135.285	0.360	0.055
-179.027	-76.196	0.452	-0.204
-178.012	-38.736	-0.384	0.259
-176.998	-116.492	-0.594	-0.139
-175.983	-151.097	0.345	0.033
-174.969	48.903	-0.194	-0.233
-173.954	-116.642	0.241	0.057
-172.939	-128.218	-0.345	-0.063
-171.925	-97.260	0.245	0.082
-170.910	-62.536	-0.309	-0.164
-169.896	195.065	-0.155	-0.302
-168.881	-90.506	-0.382	0.141
-167.866	310.977	0.117	0.282
-166.852	800.000	-0.037	-0.202
-165.837	-77.734	-0.522	-0.230
-164.823	-172.498	0.533	0.021
-163.808	130.634	0.219	0.361
-162.793	-119.901	-0.486	0.106
-161.779	193.430	-0.220	-0.427
-160.764	800.000	-0.070	-0.339
-159.750	-130.927	0.506	0.086
-158.735	14.974	-0.299	0.300
-157.720	467.563	0.086	0.248
-156.706	-200.000	-0.053	-0.398
-155.691	-147.188	0.299	-0.032
-154.677	-200.000	0.012	0.254
-153.662	116.659	-0.171	0.269
-152.647	-152.777	0.295	-0.026
-151.633	-130.655	0.299	-0.051
-150.618	169.481	0.091	0.167
-149.604	-200.000	-0.037	-0.431
-148.589	226.830	-0.137	-0.285
-147.574	-200.000	0.008	-0.099
-146.560	347.664	0.172	0.437
-145.545	-114.170	0.521	0.128
-144.531	142.220	0.353	-0.602
-143.516	-200.000	-0.001	-0.274
-142.502	-139.822	-0.431	-0.058
-141.487	-200.000	0.020	-0.313
-140.472	357.520	0.087	-0.223
-139.458	-200.000	-0.052	-0.666
-138.443	-200.000	0.001	-0.104
-137.429	339.784	0.061	-0.152
-136.414	-135.562	0.194	-0.029
-135.399	0.096	0.217	0.198
-134.385	800.000	0.031	0.140
-133.370	-62.697	0.322	0.170
-132.356	519.659	0.100	-0.301
-131.341	-104.440	-0.282	0.083
-130.326	-57.666	0.173	-0.097
-129.312	23.513	-0.201	-0.212
-128.297	32.235	0.303	-0.335
-127.283	96.686	0.441	-0.648
-126.268	-31.188	-0.200	-0.144
-125.253	-27.453	-0.255	-0.190
-124.239	99.613	-0.130	0.193
-123.224	-2.761	0.201	-0.180
-122.210	710.627	0.145	-0.494
-121.195	-120.173	0.605	0.131
-120.180	156.938	-0.193	0.342
-119.166	-164.550	-0.063	-0.004
-118.151	-200.000	-0.010	0.195
-117.137	157.448	-0.217	0.385
-116.122	-119.992	-0.399	-0.087
-115.107	-58.011	0.124	0.069
-114.093	-62.118	-0.471	-0.251
-113.078	716.353	0.093	0.318
-112.064	-69.522	0.313	-0.153
-111.049	83.336	0.120	-0.168
-110.034	19.311	-0.577	-0.592
-109.020	623.330	-0.138	0.448
-108.005	-28.264	0.310	-0.229
-106.991	-158.531	-0.089	0.006
-105.976	-200.000	-0.031	0.423
-104.962	-88.411	-0.120	0.045
-103.947	573.517	-0.069	-0.215
-102.932	-95.426	-0.179	0.061
-101.918	30.369	-0.181	0.197
-100.903	-78.894	0.057	0.025
-99.889	38.759	-0.131	0.149
-98.874	-200.000	0.060	0.571
-97.859	-0.920	-0.179	-0.162
-96.845	-37.823	-0.370	-0.251
-95.830	800.000	0.080	-0.446
-94.816	-0.933	0.585	0.529
-93.801	410.239	-0.055	0.151
-92.786	800.000	-0.090	0.339
-91.772	202.862	-0.203	-0.403
-90.757	5.297	-0.210	0.198
-89.743	-110.714	-0.113	0.030
-88.728	268.251	-0.113	-0.255
-87.713	800.000	0.056	-0.291
-86.699	16.022	-0.221	-0.222
-85.684	-126.959	0.176	-0.033
-84.670	800.000	-0.008	-0.043
-83.655	17.664	-0.199	0.202
-82.640	-47.655	0.473	-0.292
-81.626	11.817	0.065	0.064
-80.611	-200.000	-0.042	0.247
-79.597	-45.390	0.300	0.189
-78.582	800.000	-0.109	0.517
-77.567	-200.000	0.056	0.392
-76.553	-194.079	-0.509	-0.005
-75.538	201.793	-0.221	-0.437
-74.524	-96.047	0.586	0.198
-73.509	16.619	0.315	0.318
-72.494	-63.823	-0.537	0.280
-71.480	9.685	0.265	-0.257
-70.465	-17.833	0.282	0.226
-69.451	-99.886	0.507	0.161
-68.436	-21.715	0.180	0.140
-67.422	672.577	-0.087	0.290
-66.407	-79.497	0.438	-0.188
-65.392	85.066	0.056	-0.078
-64.378	22.503	0.092	-0.096
-63.363	48.991	-0.200	0.240
-62.349	-128.820	-0.197	0.035
-61.334	7.322	-2.051	-1.955
-60.319	63.472	0.942	1.208
-59.305	206.659	-3.655	-7.294
-58.290	52.563	3.805	4.642
-57.276	309.483	4.355	10.440
-56.261	-200.000	20.093	278.321
-55.246	393.101	1246.004	3325.216
-54.232	58.229	2815.063	3525.435
-53.217	66.030	2670.584	3462.168
-52.203	31.444	2403.102	2636.210
-51.188	31.006	2061.000	2255.511
-50.173	27.567	1942.650	2086.405
-49.159	26.245	1931.990	2059.738
-48.144	25.672	1928.091	2048.942
-47.130	25.571	1925.271	2044.712
-46.115	25.445	1924.046	2041.891
-45.100	25.415	1923.125	2040.491
-44.086	25.444	1921.199	2038.693
-43.071	25.482	1919.527	2037.275
-42.057	25.538	1917.543	2035.723
-41.042	25.501	1916.256	2033.848
-40.027	25.354	1915.895	2031.713
-39.013	25.545	1913.231	2030.975
-37.998	25.480	1912.094	2028.952
-36.984	25.426	1910.559	2026.633
-35.969	25.383	1910.114	2025.590
-34.954	25.336	1909.178	2023.990
-33.940	25.437	1907.240	2022.998
-32.925	25.559	1905.940	2022.918
-31.911	25.213	1905.639	2018.599
-30.896	25.374	1903.099	2017.649
-29.881	25.394	1901.904	2016.532
-28.867	25.202	1900.707	2013.014
-27.852	25.249	1899.794	2012.499
-26.838	25.195	1898.261	2010.181
-25.823	25.255	1896.348	2008.756
-24.809	25.388	1895.208	2008.959
-23.794	25.328	1894.276	2007.220
-22.779	25.253	1892.987	2004.933
-21.765	25.268	1891.674	2003.637
-20.750	25.272	1890.441	2002.289
-19.736	25.170	1889.179	1999.734
-18.721	25.338	1887.466	1999.715
-17.706	25.183	1886.683	1997.081
-16.692	25.220	1885.900	1996.582
-15.677	25.130	1884.878	1994.418
-14.663	25.152	1883.760	1993.394
-13.648	25.121	1881.985	1991.095
-12.633	25.264	1880.763	1991.322
-11.619	25.014	1880.685	1988.370
-10.604	25.009	1878.839	1986.281
-9.590	25.102	1877.495	1985.817
-8.575	25.135	1875.895	1984.411
-7.560	25.042	1875.081	1982.437
-6.546	25.139	1874.250	1982.566
-5.531	25.147	1873.100	1981.355
-4.517	25.000	1872.327	1978.825
-3.502	25.125	1870.478	1978.179
-2.487	25.232	1869.543	1978.300
-1.473	25.356	1866.264	1976.117
-0.458	25.509	1849.663	1960.144
0.556	23.196	1996.063	2075.690
1.571	22.546	2204.081	2283.273
2.586	23.519	2247.179	2340.553
3.600	23.596	2249.307	2343.505
4.615	23.523	2248.339	2341.242
5.629	23.642	2246.644	2340.777
6.644	23.738	2244.353	2339.384
7.659	23.614	2242.400	2335.430
8.673	23.716	2240.452	2334.466
9.688	23.461	2247.844	2338.509
10.702	22.528	2327.599	2408.383
11.717	21.273	2393.922	2458.967
12.731	10.866	2366.243	2283.966
13.746	1.711	2340.612	2130.608
14.761	0.277	2336.667	2106.619
15.775	0.099	2335.010	2102.379
16.790	0.157	2333.001	2101.130
17.804	0.109	2330.681	2098.116
18.819	0.181	2330.558	2098.763
19.834	0.076	2329.040	2095.665
20.848	0.027	2327.504	2093.353
21.863	0.086	2325.956	2092.538
22.877	0.170	2323.621	2091.359
23.892	0.111	2320.756	2087.700
24.907	0.063	2318.896	2085.112
25.921	0.026	2317.583	2083.164
26.936	0.042	2314.779	2080.618
27.950	0.181	2311.074	2078.966
28.965	0.057	2310.507	2076.492
29.980	0.044	2309.091	2074.787
30.994	0.102	2307.467	2073.883
32.009	5.596	2326.063	2166.919
33.023	19.626	2368.486	2403.704
34.038	26.424	2381.878	2512.275
35.053	27.373	2381.880	2525.223
36.067	27.376	2379.043	2521.947
37.082	27.259	2376.126	2516.928
38.096	27.270	2374.708	2515.284
39.111	27.179	2374.134	2513.100
40.126	27.179	2371.586	2510.109
41.140	27.249	2369.419	2508.484
42.155	26.767	2365.645	2497.515
43.169	26.701	2364.108	2494.677
44.184	27.250	2362.633	2500.416
45.199	27.240	2359.972	2497.154
46.213	27.240	2358.117	2494.902
47.228	26.950	2357.629	2490.083
48.242	26.843	2356.465	2487.084
49.257	27.110	2353.394	2487.216
50.271	26.918	2350.293	2481.003
51.286	27.003	2348.690	2480.177
52.301	27.160	2348.205	2481.522
53.315	25.357	2341.583	2449.529
54.330	23.118	2332.194	2408.813
55.344	22.149	2327.317	2390.242
56.359	22.144	2322.455	2384.903
57.374	22.015	2320.735	2381.089
58.388	22.078	2318.764	2379.633
59.403	22.287	2315.900	2379.251
60.417	22.493	2314.393	2380.216
61.432	22.632	2313.536	2380.946
62.447	22.645	2311.974	2379.233
63.461	22.553	2310.237	2375.903
64.476	22.625	2306.899	2373.166
65.490	22.933	2307.060	2377.218
66.505	23.717	2308.952	2389.483
67.520	25.034	2312.402	2410.594
68.534	26.294	2313.296	2428.266
69.549	27.151	2313.312	2439.565
70.563	27.481	2310.975	2441.256
71.578	27.480	2309.308	2439.183
72.593	27.382	2307.330	2435.484
73.607	27.613	2306.872	2437.821
74.622	27.976	2305.835	2441.299
75.636	28.013	2303.381	2438.907
76.651	27.832	2300.881	2433.548
77.666	27.816	2298.911	2430.962
78.680	27.828	2296.708	2428.497
79.695	28.018	2295.442	2429.409
80.709	28.172	2294.816	2430.501
81.724	28.421	2294.173	2432.854
82.739	28.267	2290.116	2426.216
83.753	28.030	2287.719	2420.234
84.768	28.177	2286.216	2420.306
85.782	28.086	2285.928	2418.506
86.797	28.113	2282.617	2415.064
87.812	27.742	2279.577	2406.642
88.826	27.408	2277.838	2400.096
89.841	27.743	2276.679	2403.015
90.855	28.295	2275.311	2408.594
91.870	27.931	2272.561	2400.581
92.884	27.680	2271.095	2395.437
93.899	27.932	2269.718	2397.023
94.914	27.174	2266.686	2383.544
95.928	24.620	2258.027	2340.578
96.943	23.563	2254.367	2322.594
97.957	25.862	2258.692	2357.044
98.972	27.276	2260.030	2376.748
99.987	27.159	2256.880	2371.609
101.001	27.268	2253.705	2369.423
102.016	27.240	2254.727	2369.841
103.030	27.358	2251.383	2367.597
104.045	27.593	2248.927	2367.799
105.060	27.962	2248.078	2371.432
106.074	27.776	2245.963	2366.496
107.089	27.343	2243.817	2358.303
108.103	27.754	2244.432	2364.028
109.118	28.089	2242.873	2366.462
110.133	28.022	2240.833	2363.151
111.147	28.301	2239.761	2365.362
112.162	28.532	2239.623	2367.935
113.176	28.122	2234.435	2356.848
114.191	27.797	2231.322	2349.079
115.206	27.853	2230.662	2348.837
116.220	27.878	2228.850	2346.964
117.235	27.651	2225.784	2340.524
118.249	27.533	2222.897	2335.687
119.264	27.525	2222.710	2335.120
120.279	27.909	2220.941	2337.914
121.293	27.576	2218.306	2330.582
122.308	27.404	2217.398	2327.143
123.322	27.387	2214.920	2324.047
124.337	26.322	2209.837	2304.794
125.352	24.279	2204.264	2272.554
126.366	24.013	2202.528	2267.088
127.381	25.489	2204.958	2288.217
128.395	26.369	2204.371	2298.585
129.410	27.058	2204.616	2307.364
130.424	27.651	2202.866	2312.831
131.439	27.299	2200.635	2305.720
132.454	27.298	2199.686	2304.434
133.468	27.518	2198.435	2305.657
134.483	27.485	2195.754	2302.143
135.497	27.024	2193.773	2293.946
136.512	27.383	2191.609	2295.953
137.527	27.648	2190.773	2298.157
138.541	27.848	2190.152	2299.771
139.556	27.540	2187.954	2293.288
140.570	27.609	2187.026	2292.909
141.585	27.751	2186.158	2293.522
142.600	27.728	2184.985	2291.724
143.614	27.553	2183.139	2287.304
144.629	27.971	2181.084	2290.146
145.643	27.457	2177.784	2279.939
146.658	27.432	2176.041	2277.528
147.673	27.518	2175.015	2277.271
148.687	27.659	2173.971	2277.676
149.702	27.608	2172.600	2275.318
150.716	27.388	2170.915	2270.522
151.731	27.869	2170.787	2276.146
152.746	28.506	2171.783	2284.908
153.760	27.236	2166.070	2262.740
154.775	24.200	2156.998	2215.121
155.789	22.949	2152.979	2195.125
156.804	24.990	2157.307	2224.776
157.819	26.940	2157.959	2249.501
158.833	27.322	2155.587	2251.521
159.848	27.532	2154.598	2252.824
160.862	27.936	2154.789	2257.771
161.877	28.154	2154.259	2259.659
162.892	27.824	2153.269	2254.247
163.906	27.932	2150.604	2252.528
164.921	27.778	2148.770	2248.437
165.935	27.879	2146.187	2246.713
166.950	27.629	2144.777	2241.875
167.964	27.606	2141.622	2238.020
168.979	27.553	2140.509	2235.934
169.994	28.017	2140.400	2241.278
171.008	28.378	2138.507	2243.468
172.023	28.317	2136.590	2240.437
173.037	28.232	2135.338	2237.815
174.052	27.923	2132.897	2231.197
175.067	27.355	2130.240	2221.186
176.081	27.258	2128.821	2218.250
177.096	27.471	2128.340	2220.092
178.110	27.108	2125.027	2211.930
179.125	26.836	2124.105	2207.374
180.140	27.303	2122.457	2211.109
181.154	27.223	2121.016	2208.369
182.169	26.755	2119.493	2200.808
183.183	25.883	2114.733	2184.974
184.198	23.642	2107.010	2149.500
185.213	23.203	2106.249	2143.116
186.227	25.574	2111.243	2176.824
187.242	26.978	2112.040	2194.468
188.256	27.228	2111.491	2196.661
189.271	28.049	2112.525	2207.447
190.286	28.043	2110.398	2204.891
191.300	27.379	2106.616	2192.634
192.315	27.371	2103.594	2189.134
193.329	27.492	2103.140	2189.860
194.344	27.580	2101.537	2188.987
195.359	27.673	2101.258	2189.556
196.373	28.145	2100.721	2194.435
197.388	28.376	2098.595	2194.727
198.402	27.921	2095.797	2186.065
199.417	27.808	2092.656	2181.172
200.432	27.936	2092.286	2182.068
201.446	27.848	2091.285	2179.701
202.461	28.007	2089.219	2179.190
203.475	27.735	2087.756	2174.154
204.490	27.831	2085.535	2172.727
205.504	27.662	2083.099	2167.906
206.519	27.458	2079.783	2161.768
207.534	27.151	2077.658	2155.633
208.548	27.098	2077.747	2154.842
209.563	27.234	2075.232	2153.596
210.577	26.880	2072.976	2146.785
211.592	26.922	2072.999	2147.054
212.607	26.029	2068.223	2131.242
213.621	23.296	2060.292	2090.435
214.636	23.412	2060.796	2092.073
215.650	26.243	2065.815	2130.538
216.665	27.107	2065.944	2140.655
217.680	27.469	2064.636	2143.327
218.694	27.769	2064.111	2146.069
219.709	27.800	2061.277	2143.237
220.723	27.763	2060.021	2141.231
221.738	27.802	2058.382	2139.730
222.753	27.797	2056.889	2137.865
223.767	27.713	2055.539	2135.219
224.782	27.281	2051.925	2126.140
225.796	27.102	2050.915	2122.734
226.811	27.050	2049.837	2120.755
227.826	27.606	2050.361	2127.565
228.840	28.299	2048.422	2133.417
229.855	27.840	2046.703	2126.002
230.869	27.768	2044.728	2122.847
231.884	27.702	2043.263	2120.301
232.899	27.754	2041.437	2118.762
233.913	27.652	2040.356	2116.200
234.928	27.537	2039.667	2113.885
235.942	27.561	2037.592	2111.766
236.957	27.523	2035.363	2108.756
237.972	27.331	2034.196	2105.062
238.986	27.698	2034.293	2109.182
240.001	27.600	2032.194	2105.618
241.015	27.037	2029.373	2095.916
242.030	26.428	2026.300	2085.425
243.045	24.260	2018.187	2051.783
244.059	23.744	2017.424	2044.792
245.074	26.199	2020.184	2075.737
246.088	27.070	2020.194	2085.558
247.103	26.981	2018.940	2082.993
248.117	26.970	2018.674	2082.345
249.132	27.376	2016.614	2084.641
250.147	27.406	2013.855	2081.889
251.161	27.030	2012.003	2075.406
252.176	26.947	2009.703	2071.832
253.190	26.758	2007.126	2066.757
254.205	26.309	2004.474	2058.639
255.220	26.485	2004.196	2060.121
256.234	26.307	2003.652	2057.283
257.249	26.268	2001.926	2054.819
258.263	26.230	2000.356	2052.528
259.278	26.160	1998.858	2049.943
260.293	26.177	1997.713	2048.714
261.307	26.724	1996.762	2053.727
262.322	27.185	1995.851	2057.793
263.336	27.169	1993.719	2055.164
264.351	27.090	1993.488	2053.790
265.366	27.322	1992.627	2055.292
266.380	27.453	1991.984	2055.869
267.395	27.203	1989.177	2049.890
268.409	27.091	1988.101	2047.266
269.424	27.624	1987.034	2051.955
270.439	27.828	1987.166	2054.148
271.453	26.946	1981.573	2038.172
272.468	23.874	1972.588	1994.112
273.482	23.462	1972.563	1989.206
274.497	26.172	1976.148	2023.151
275.512	27.701	1977.365	2041.369
276.526	27.848	1975.092	2040.428
277.541	27.794	1973.135	2037.562
278.555	27.961	1970.718	2036.689
279.570	26.940	1968.413	2022.626
280.585	26.819	1966.879	2019.461
281.599	27.291	1966.953	2024.580
282.614	27.224	1963.440	2019.974
283.628	26.374	1961.169	2007.910
284.643	26.055	1960.339	2003.258
285.657	26.160	1958.262	2002.063
286.672	25.482	1953.794	1989.714
287.687	24.662	1950.605	1977.119
288.701	24.493	1949.714	1974.103
289.716	24.535	1947.636	1972.228
290.730	24.184	1945.669	1966.102
291.745	24.302	1944.620	1966.118
292.760	25.174	1946.055	1977.000
293.774	25.839	1946.649	1984.727
294.789	26.192	1946.513	1988.266
295.803	26.463	1944.393	1988.853
296.818	26.980	1945.414	1995.374
297.833	27.463	1943.846	1998.858
298.847	27.271	1943.581	1996.229
299.862	27.177	1941.190	1992.503
300.876	26.226	1935.787	1976.256
301.891	23.931	1927.958	1942.861
302.906	23.702	1930.330	1942.503
303.920	26.640	1934.400	1978.685
304.935	27.630	1933.270	1988.151
305.949	27.208	1931.730	1981.698
306.964	27.447	1930.568	1982.895
307.979	27.003	1926.667	1973.795
308.993	25.676	1922.424	1954.738
310.008	25.892	1921.575	1955.996
311.022	26.202	1920.056	1957.597
312.037	25.460	1916.966	1946.129
313.052	24.767	1913.609	1934.959
314.066	24.425	1911.039	1928.418
315.081	24.241	1910.537	1925.677
316.095	24.213	1909.684	1924.282
317.110	24.217	1907.623	1922.025
318.125	24.858	1907.431	1928.543
319.139	25.594	1907.987	1936.845
320.154	25.910	1908.818	1940.882
321.168	26.472	1907.453	1945.333
322.183	26.709	1906.450	1946.641
323.197	26.909	1907.299	1949.434
324.212	27.256	1905.393	1950.987
325.227	27.347	1905.061	1951.401
326.241	27.766	1903.451	1954.029
327.256	27.969	1902.228	1954.720
328.270	27.718	1901.527	1951.063
329.285	27.768	1901.190	1951.027
330.300	26.896	1897.118	1937.266
331.314	23.967	1887.975	1896.362
332.329	23.458	1888.392	1891.091
333.343	26.508	1892.903	1928.109
334.358	28.005	1893.977	1944.997
335.373	28.151	1891.538	1943.814
336.387	28.011	1889.874	1940.380
337.402	28.263	1887.928	1940.834
338.416	28.059	1886.438	1936.903
339.431	27.881	1885.941	1934.268
340.446	27.929	1883.099	1931.624
341.460	27.218	1879.653	1920.318
342.475	26.910	1876.938	1914.049
343.489	26.196	1873.932	1903.190
344.504	25.748	1872.598	1896.869
345.519	24.889	1868.900	1883.813
346.533	24.496	1865.500	1876.015
347.548	24.823	1866.182	1879.929
348.562	25.090	1864.834	1881.156
349.577	24.790	1863.904	1876.829
350.592	24.655	1862.493	1873.764
351.606	24.998	1861.986	1876.645
352.621	25.604	1861.278	1882.078
353.635	25.578	1858.967	1879.243
354.650	25.137	1857.704	1873.114
355.665	25.723	1857.869	1879.209
356.679	26.778	1858.144	1890.327
357.694	27.112	1858.026	1893.478
358.708	27.337	1858.376	1895.961
359.723	26.610	1853.294	1882.952
360.738	23.812	1846.060	1846.206
361.752	23.984	1847.551	1849.272
362.767	26.339	1849.717	1875.820
363.781	26.720	1849.336	1879.184
364.796	26.884	1848.197	1879.511
365.810	26.938	1847.749	1879.390
366.825	27.164	1846.298	1880.040
367.840	27.417	1845.641	1881.768
368.854	27.657	1845.399	1883.792
369.869	27.372	1842.591	1877.747
370.883	26.673	1838.963	1866.587
371.898	26.118	1837.416	1859.054
372.913	25.775	1835.541	1853.383
373.927	25.726	1833.944	1851.041
374.942	25.854	1833.125	1851.313
375.956	26.506	1833.369	1858.071
376.971	27.581	1833.300	1868.867
377.986	27.900	1832.228	1870.832
379.000	27.821	1831.229	1868.781
380.015	27.667	1828.874	1864.565
381.029	27.561	1827.657	1862.021
382.044	27.668	1826.608	1861.823
383.059	28.088	1824.985	1864.254
384.073	27.822	1823.476	1859.764
385.088	27.271	1821.150	1851.526
386.102	27.092	1819.427	1847.725
387.117	26.941	1816.932	1843.434
388.132	26.756	1815.930	1840.307
389.146	26.430	1813.259	1834.060
390.161	23.857	1806.578	1800.916
391.175	23.699	1805.870	1798.384
392.190	26.236	1807.223	1825.329
393.205	26.736	1806.902	1829.854
394.219	27.233	1806.530	1834.306
395.234	27.718	1806.338	1838.805
396.248	27.944	1804.241	1838.740
397.263	27.899	1802.480	1836.262
398.278	27.393	1799.831	1828.243
399.292	26.902	1798.223	1821.435
400.307	26.716	1796.972	1818.077
401.321	26.768	1794.658	1816.038
402.336	26.302	1792.559	1809.015
403.350	26.069	1790.124	1803.996
404.365	26.466	1790.526	1808.175
405.380	27.020	1789.490	1812.471
406.394	26.815	1789.345	1810.049
407.409	26.562	1786.870	1804.797
408.423	26.077	1784.241	1797.067
409.438	25.620	1781.992	1790.020
410.453	25.516	1780.626	1787.398
411.467	25.594	1779.456	1786.782
412.482	25.804	1779.707	1788.921
413.496	26.629	1779.209	1796.431
414.511	26.788	1778.069	1796.654
415.526	27.019	1775.646	1796.286
416.540	27.119	1774.730	1796.142
417.555	26.651	1772.441	1788.961
418.569	26.409	1772.319	1786.223
419.584	26.803	1773.467	1791.081
420.599	27.299	1774.319	1796.652
421.613	27.549	1772.796	1797.368
422.628	27.496	1772.460	1796.287
423.642	27.387	1770.555	1793.063
424.657	27.061	1767.266	1786.296
425.672	26.604	1763.682	1777.953
426.686	26.423	1762.679	1774.942
427.701	26.307	1761.674	1772.577
428.715	26.046	1759.957	1768.065
429.730	26.454	1758.641	1770.541
430.745	26.713	1757.907	1772.140
431.759	25.788	1754.563	1759.479
432.774	24.735	1752.193	1746.558
433.788	24.328	1749.809	1739.981
434.803	23.884	1748.248	1733.874
435.818	23.812	1748.278	1732.985
436.832	23.898	1747.932	1733.282
437.847	22.919	1738.863	1714.532
438.861	13.077	1712.467	1593.286
439.876	2.386	1692.728	1471.777
440.890	0.321	1688.392	1447.898
441.905	0.174	1686.826	1444.967
442.920	0.243	1685.252	1444.108
443.934	0.232	1684.106	1442.853
444.949	0.168	1682.912	1441.037
445.963	0.215	1681.891	1440.443
446.978	0.068	1681.745	1438.738
447.993	0.044	1680.539	1437.298
449.007	0.194	1678.089	1436.472
450.022	0.111	1676.280	1433.955
451.036	0.145	1674.885	1432.913
452.051	0.658	1677.824	1440.174
453.066	9.150	1699.105	1540.406
454.080	19.763	1716.003	1658.382
455.095	22.446	1720.315	1688.239
456.109	22.986	1720.223	1693.143
457.124	22.819	1719.011	1690.142
458.139	23.003	1718.727	1691.430
459.153	23.133	1718.488	1692.249
460.168	22.953	1716.091	1687.957
461.182	23.111	1714.531	1687.730
462.197	23.245	1713.216	1687.520
463.212	23.464	1712.334	1688.548
464.226	23.505	1711.704	1688.114
465.241	23.335	1709.812	1684.420
466.255	23.108	1707.812	1680.080
467.270	23.128	1706.622	1678.905
468.285	23.251	1705.874	1679.136
469.299	23.326	1704.353	1678.151
470.314	23.200	1702.343	1674.775
471.328	23.057	1700.865	1671.766
472.343	22.961	1699.441	1669.251
473.358	22.641	1696.759	1663.381
474.372	22.203	1695.448	1657.748
475.387	22.318	1694.651	1657.859
476.401	22.357	1691.845	1655.287
477.416	22.163	1690.012	1651.460
478.430	21.779	1689.589	1647.226
479.445	22.027	1689.377	1649.167
480.460	22.430	1687.966	1651.391
481.474	22.451	1686.674	1650.122
482.489	22.210	1685.826	1646.826
483.503	21.803	1683.641	1640.669
484.518	21.883	1681.869	1639.496
485.533	21.815	1680.629	1637.454
486.547	21.704	1678.074	1633.730
487.562	21.220	1677.181	1628.134
488.576	21.264	1676.125	1627.321
489.591	21.717	1674.542	1629.822
490.606	21.894	1673.888	1630.646
491.620	21.943	1672.607	1629.660
492.635	21.762	1670.014	1625.259
493.649	21.463	1668.843	1621.131
494.664	21.916	1669.283	1625.588
495.679	22.449	1668.440	1629.531
496.693	22.755	1667.416	1631.179
497.708	22.803	1666.496	1630.533
498.722	22.424	1664.490	1624.858
499.737	22.362	1663.376	1623.004
500.752	22.858	1662.904	1626.940
501.766	23.092	1661.642	1627.677
502.781	22.830	1660.671	1624.109
503.795	22.840	1659.480	1622.844
504.810	22.802	1657.628	1620.482
505.825	22.636	1656.916	1618.062
506.839	22.863	1654.824	1617.920
507.854	22.758	1653.426	1615.392
508.868	22.481	1651.730	1610.992
509.883	22.333	1650.988	1608.719
510.898	22.232	1649.429	1606.084
511.912	22.322	1649.107	1606.400
512.927	22.655	1646.498	1606.713
513.941	22.488	1645.495	1604.021
514.956	22.698	1644.470	1604.749
515.971	22.409	1642.648	1600.132
516.985	22.544	1642.333	1600.871
518.000	22.563	1640.587	1599.155
519.014	21.991	1639.500	1592.683
520.029	21.866	1637.669	1589.581
521.043	22.082	1636.194	1589.917
522.058	22.092	1636.177	1589.802
523.073	22.248	1634.361	1589.268
524.087	21.711	1632.724	1582.608
525.102	21.836	1631.956	1582.814
526.116	22.650	1631.779	1589.834
527.131	22.888	1630.927	1590.965
528.146	22.325	1629.421	1584.209
529.160	21.967	1627.540	1578.954
530.175	22.161	1625.626	1578.664
531.189	21.981	1624.221	1575.489
532.204	21.976	1622.140	1573.232
533.219	21.922	1622.840	1573.234
534.233	21.942	1621.694	1572.118
535.248	21.798	1619.010	1568.032
536.262	21.271	1617.211	1561.368
537.277	21.307	1615.398	1559.754
538.292	21.340	1615.035	1559.516
539.306	21.290	1612.817	1556.742
540.321	21.221	1610.880	1554.066
541.335	21.120	1609.866	1551.996
542.350	21.174	1608.386	1550.866
543.365	21.113	1607.484	1549.265
544.379	21.106	1606.124	1547.709
545.394	20.996	1604.312	1544.794
546.408	21.496	1603.819	1548.589
547.423	22.192	1603.959	1554.726
548.438	22.173	1603.973	1554.384
549.452	21.935	1601.714	1549.903
550.467	21.698	1599.816	1545.773
551.481	21.856	1599.933	1547.101
552.496	21.676	1598.463	1543.904
553.511	21.412	1596.733	1539.707
554.525	21.562	1595.671	1539.827
555.540	21.531	1594.076	1537.835
556.554	21.342	1593.407	1535.335
557.569	21.590	1592.019	1536.004
558.583	21.859	1591.090	1537.286
559.598	21.804	1590.086	1535.655
560.613	21.733	1588.774	1533.578
561.627	21.747	1586.081	1530.916
562.642	21.380	1584.304	1525.798
563.656	21.019	1583.029	1521.220
564.671	20.894	1582.627	1519.558
565.686	21.037	1581.294	1519.347
566.700	21.242	1580.541	1520.237
567.715	21.491	1579.104	1520.847
568.729	21.598	1577.321	1519.884
569.744	21.593	1576.576	1518.940
570.759	21.410	1574.957	1515.601
571.773	21.335	1574.289	1514.132
572.788	21.227	1572.355	1511.146
573.802	21.155	1570.990	1509.032
574.817	21.181	1568.562	1506.745
575.832	20.836	1567.428	1502.481
576.846	20.915	1567.260	1502.823
577.861	21.302	1566.432	1505.207
578.875	21.370	1565.194	1504.419
579.890	21.252	1563.149	1501.258
580.905	21.156	1562.797	1499.908
581.919	21.037	1562.177	1498.109
582.934	20.994	1560.442	1495.897
583.948	20.917	1558.723	1493.407
584.963	20.901	1558.687	1493.051
585.978	21.189	1557.194	1493.917
586.992	20.957	1555.037	1489.678
588.007	20.589	1554.693	1486.014
589.021	20.866	1554.493	1488.018
590.036	20.964	1552.868	1487.130
591.051	20.647	1550.556	1482.019
592.065	20.669	1548.418	1479.990
593.080	20.416	1546.848	1476.147
594.094	20.655	1546.474	1477.658
595.109	20.978	1546.067	1479.845
596.123	21.553	1544.367	1482.941
597.138	21.201	1542.959	1478.421
598.153	20.922	1541.606	1474.575
599.167	20.896	1540.790	1473.391
600.182	20.825	1539.469	1471.350
601.196	20.860	1538.446	1470.495
602.211	21.128	1536.805	1471.024
603.226	20.738	1535.640	1466.430
604.240	20.765	1534.720	1465.603
605.255	20.659	1532.624	1462.532
606.269	20.669	1532.259	1462.091
607.284	20.872	1531.423	1462.831
608.299	20.866	1529.805	1461.060
609.313	20.921	1528.623	1460.221
610.328	20.926	1528.201	1459.683
611.342	20.891	1526.096	1457.204
612.357	20.650	1524.972	1453.932
613.372	20.598	1523.999	1452.394
614.386	20.610	1523.326	1451.682
615.401	20.416	1521.926	1448.544
616.415	20.594	1520.911	1448.894
617.430	20.392	1520.553	1446.690
618.445	20.340	1518.563	1444.186
619.459	20.413	1517.803	1443.903
620.474	20.681	1517.200	1445.395
621.488	21.157	1516.218	1448.260
622.503	21.204	1515.019	1447.329
623.518	20.681	1513.311	1441.172
624.532	20.327	1512.062	1436.866
625.547	20.072	1510.395	1432.986
626.561	20.031	1508.761	1430.929
627.576	19.942	1508.076	1429.366
628.591	20.389	1507.347	1432.217
629.605	20.658	1506.676	1433.629
630.620	20.537	1506.112	1431.921
631.634	20.738	1504.676	1432.048
632.649	20.510	1503.495	1428.866
633.663	20.319	1501.913	1425.621
634.678	20.066	1499.815	1421.369
635.693	19.989	1497.680	1418.542
636.707	19.913	1496.632	1416.753
637.722	19.993	1495.155	1415.840
638.736	20.123	1494.320	1415.952
639.751	20.225	1493.617	1415.956
640.766	20.219	1492.587	1414.759
641.780	20.247	1491.075	1413.381
642.795	20.437	1490.774	1414.486
643.809	20.345	1490.344	1413.153
644.824	20.476	1489.074	1412.850
645.839	20.650	1488.256	1413.330
646.853	20.467	1487.175	1410.641
647.868	20.445	1485.222	1408.437
648.882	20.392	1484.303	1406.969
649.897	20.417	1483.140	1405.901
650.912	20.391	1480.960	1403.455
651.926	20.152	1479.943	1400.377
652.941	20.304	1479.219	1400.762
653.955	20.446	1478.074	1400.660
654.970	20.625	1476.370	1400.330
655.985	20.482	1475.121	1397.822
656.999	20.504	1474.619	1397.351
658.014	20.374	1472.609	1394.231
659.028	20.131	1471.475	1391.030
660.043	20.234	1470.805	1391.061
661.058	20.196	1469.347	1389.207
662.072	20.121	1468.000	1387.166
663.087	20.302	1467.864	1388.328
664.101	20.393	1466.268	1387.383
665.116	20.341	1465.171	1385.766
666.131	20.216	1464.545	1384.005
667.145	20.248	1463.110	1382.738
668.160	20.141	1461.528	1380.223
669.174	19.994	1460.140	1377.570
670.189	19.988	1459.069	1376.344
671.204	20.217	1458.984	1377.927
672.218	20.153	1458.763	1377.048
673.233	20.052	1456.518	1373.956
674.247	20.077	1454.053	1371.661
675.262	19.985	1453.745	1370.481
676.276	19.943	1452.841	1369.125
677.291	20.190	1452.174	1370.299
678.306	20.385	1451.978	1371.500
679.320	20.402	1449.755	1369.371
680.335	20.149	1449.074	1366.558
681.349	20.007	1448.145	1364.396
682.364	20.119	1446.953	1363.991
683.379	19.941	1445.494	1361.044
684.393	20.071	1443.765	1360.281
685.408	19.937	1443.049	1358.385
686.422	19.845	1442.172	1356.673
687.437	19.763	1441.687	1355.408
688.452	19.627	1440.744	1353.290
689.466	19.776	1438.204	1351.915
690.481	19.830	1436.962	1351.006
691.495	19.835	1436.947	1350.869
692.510	20.206	1436.322	1353.030
693.525	20.389	1435.374	1353.408
694.539	20.071	1433.729	1349.209
695.554	19.721	1432.523	1345.174
696.568	19.679	1431.665	1343.882
697.583	19.577	1430.349	1341.691
698.598	19.579	1429.662	1340.900
699.612	19.728	1427.918	1340.264
700.627	19.756	1426.977	1339.441
701.641	19.847	1426.437	1339.483
702.656	19.897	1425.032	1338.387
703.671	19.769	1424.254	1336.505
704.685	19.734	1423.740	1335.586
705.700	19.913	1422.253	1335.420
706.714	19.851	1420.894	1333.509
707.729	19.985	1420.151	1333.686
708.744	20.023	1418.164	1331.954
709.758	19.961	1417.170	1330.379
710.773	19.992	1416.867	1330.175
711.787	20.032	1415.531	1329.070
712.802	20.074	1413.408	1327.244
713.816	19.982	1412.326	1325.363
714.831	19.966	1411.890	1324.672
715.846	19.781	1410.747	1322.017
716.860	19.735	1409.247	1320.098
717.875	19.981	1407.798	1320.470
718.889	19.952	1407.299	1319.622
719.904	19.832	1406.298	1317.605
720.919	19.774	1405.056	1315.846
721.933	19.750	1404.272	1314.768
722.948	19.779	1403.480	1314.088
723.962	19.707	1402.306	1312.285
724.977	19.719	1400.785	1310.796
725.992	19.658	1400.257	1309.677
727.006	19.604	1399.283	1308.203
728.021	19.679	1397.683	1307.118
729.035	19.722	1395.990	1305.704
730.050	19.697	1395.279	1304.695
731.065	19.861	1393.947	1304.534
732.079	19.785	1392.994	1302.912
733.094	19.769	1392.329	1302.016
734.108	19.988	1390.968	1302.240
735.123	19.944	1389.355	1300.246
736.138	19.725	1388.839	1297.950
737.152	19.662	1387.958	1296.498
738.167	19.575	1386.162	1294.006
739.181	19.678	1385.071	1293.614
740.196	19.647	1384.515	1292.707
741.211	19.693	1383.574	1292.017
742.225	19.727	1382.813	1291.403
743.240	19.487	1381.139	1287.890
744.254	19.425	1379.867	1286.082
745.269	19.577	1378.987	1286.243
746.284	19.399	1378.147	1283.976
747.298	19.477	1377.390	1283.704
748.313	19.575	1376.099	1283.080
749.327	19.701	1375.954	1283.725
750.342	20.045	1376.312	1286.475
751.356	20.239	1374.784	1286.341
752.371	20.052	1372.874	1283.007
753.386	19.622	1371.352	1278.237
754.400	19.495	1370.455	1276.304
755.415	19.585	1369.170	1275.621
756.429	19.662	1367.900	1274.859
757.444	19.653	1367.406	1274.179
758.459	19.541	1366.002	1271.889
759.473	19.649	1364.713	1271.333
760.488	19.676	1363.484	1270.232
761.502	19.605	1361.770	1267.964
762.517	19.586	1361.728	1267.628
763.532	19.735	1360.428	1267.368
764.546	19.622	1359.629	1265.637
765.561	19.717	1359.361	1265.940
766.575	20.020	1358.374	1267.096
767.590	20.099	1357.197	1266.423
768.605	19.838	1355.323	1262.610
769.619	19.650	1354.163	1260.004
770.634	19.549	1353.156	1258.177
771.648	19.712	1351.673	1257.834
772.663	19.526	1350.786	1255.499
773.678	19.539	1349.790	1254.517
774.692	19.705	1349.277	1255.108
775.707	19.529	1348.577	1253.022
776.721	19.523	1348.094	1252.377
777.736	19.555	1346.765	1251.223
778.751	19.563	1345.654	1250.104
779.765	19.533	1344.787	1248.930
780.780	19.436	1344.481	1247.787
781.794	19.434	1343.568	1246.775
782.809	19.387	1342.047	1244.878
783.824	19.302	1341.012	1243.155
784.838	19.566	1339.640	1243.639
785.853	19.729	1339.571	1244.610
786.867	19.551	1338.642	1242.312
787.882	19.517	1337.302	1240.670
788.897	19.493	1336.009	1239.152
789.911	19.306	1335.478	1237.162
790.926	19.428	1333.838	1236.370
791.940	19.352	1332.015	1233.986
792.955	19.301	1330.548	1232.111
793.969	19.344	1330.400	1232.138
794.984	19.349	1329.636	1231.318
795.999	19.365	1328.652	1230.379
797.013	19.443	1326.770	1229.044
798.028	19.437	1325.679	1227.846
799.042	19.403	1325.018	1226.842
800.057	19.464	1323.953	1226.145
801.072	19.293	1322.672	1223.591
802.086	19.330	1321.575	1222.694
803.101	19.256	1320.270	1220.810
804.115	19.453	1318.690	1220.607
805.130	19.495	1318.220	1220.323
806.145	19.296	1317.438	1218.043
807.159	19.352	1316.007	1216.967
808.174	19.565	1314.729	1217.153
809.188	19.576	1313.280	1215.743
810.203	19.489	1312.395	1214.159
811.218	19.663	1311.046	1213.998
812.232	19.873	1309.643	1214.036
813.247	19.929	1308.810	1213.510
814.261	19.668	1308.123	1210.890
815.276	19.573	1307.512	1209.509
816.291	19.502	1306.075	1207.538
817.305	19.443	1304.819	1205.820
818.320	19.494	1303.297	1204.624
819.334	19.269	1302.431	1202.106
820.349	19.441	1301.312	1202.129
821.364	19.384	1299.734	1200.132
822.378	19.339	1298.607	1198.633
823.393	19.393	1296.309	1196.741
824.407	19.205	1295.641	1194.676
825.422	19.347	1294.919	1194.855
826.437	19.235	1294.191	1193.259
827.451	19.351	1292.250	1192.131
828.466	19.614	1291.365	1192.998
829.480	19.693	1290.033	1192.177
830.495	19.616	1287.426	1189.088
831.509	19.136	1287.505	1185.697
832.524	19.175	1286.855	1185.225
833.539	19.262	1284.931	1183.916
834.553	19.219	1284.251	1182.852
835.568	19.262	1283.015	1181.864
836.582	19.303	1281.818	1180.907
837.597	19.426	1280.233	1180.148
838.612	19.504	1279.464	1179.833
839.626	19.399	1278.500	1178.086
840.641	19.519	1277.744	1178.070
841.655	19.403	1277.320	1176.742
842.670	19.706	1277.047	1178.426
843.685	20.037	1275.841	1179.439
844.699	19.807	1273.930	1175.958
845.714	19.579	1272.288	1172.749
846.728	19.638	1271.262	1172.064
847.743	19.566	1269.973	1170.245
848.758	19.386	1269.009	1167.987
849.772	19.425	1267.489	1166.713
850.787	19.258	1265.972	1164.046
851.801	19.218	1265.058	1162.796
852.816	19.234	1264.442	1162.198
853.831	19.202	1262.548	1160.103
854.845	19.222	1260.526	1158.244
855.860	19.262	1259.020	1156.990
856.874	19.209	1258.437	1155.958
857.889	19.448	1257.162	1156.258
858.904	19.632	1255.972	1156.263
859.918	19.642	1255.079	1155.371
860.933	19.751	1253.603	1154.601
861.947	19.670	1252.467	1152.878
862.962	19.375	1251.291	1149.681
863.977	19.282	1250.480	1148.170
864.991	19.137	1249.448	1146.119
866.006	19.194	1248.894	1145.856
867.020	19.335	1247.418	1145.306
868.035	19.350	1246.520	1144.443
869.049	19.250	1245.934	1143.102
870.064	19.254	1244.709	1141.869
871.079	19.403	1244.277	1142.329
872.093	19.363	1244.016	1141.681
873.108	19.474	1242.671	1141.052
874.122	19.516	1241.510	1140.129
875.137	19.632	1241.042	1140.331
876.152	19.834	1240.368	1140.914
877.166	19.809	1238.051	1138.483
878.181	19.580	1237.328	1136.166
879.195	19.456	1236.925	1134.840
880.210	19.350	1235.991	1133.148
881.225	19.325	1234.664	1131.627
882.239	19.356	1233.623	1130.746
883.254	19.278	1232.384	1128.961
884.268	19.317	1231.798	1128.540
885.283	19.393	1230.607	1127.818
886.298	19.274	1229.193	1125.606
887.312	19.414	1228.263	1125.539
888.327	19.428	1226.868	1124.214
889.341	19.616	1224.775	1123.392
890.356	19.206	1224.970	1120.755
891.371	19.406	1224.627	1121.618
892.385	19.408	1223.769	1120.707
893.400	19.287	1223.153	1119.218
894.414	19.310	1222.384	1118.531
895.429	19.501	1220.798	1118.190
896.444	19.850	1219.570	1119.205
897.458	20.050	1218.588	1119.467
898.473	19.900	1217.169	1117.053
899.487	19.600	1215.977	1113.882
900.502	19.482	1214.967	1112.058
901.517	19.373	1214.273	1110.590
902.531	19.483	1212.803	1109.823
903.546	19.388	1212.371	1108.677
904.560	19.574	1211.742	1109.172
905.575	19.732	1210.574	1108.990
906.589	19.507	1209.924	1106.810
907.604	19.491	1209.329	1106.030
