DTS Sentinel unit serial number:	SN409020Multiplexer serial number:	ORYXHardware model number:	OX4-SRSoftware version number:	ORYX F/W v3.00 Oryx Data Collector v3.7.2.0data status	okinstallation	HaddamTimeLapsedifferential loss correction	single-endedforward channel	channel 3reverse channel	N/Adate	2011/06/22time	10:16:17forward acquisition time	30.00reverse acquisition time	0.00gamma	498.7831k internal	0.1812k external	0.1812temperature offset calibration	1.0074default loss term (dB/km)	0.3790temperature slope calibration	1.3530multiplexer offset coefficient	1.0000multiplexer slope coefficient	1.0000fibre end	0.00T internal ref (°C)	29.69T ext. ref 1 (°C)	26.33T ext. ref 2 (°C)	0.22length (m)	temperature (°C)	Stokes	anti-Stokes-747.200	55.326	-0.102	0.127
-746.185	800.000	-0.019	0.100
-745.171	63.903	0.411	0.531
-744.156	29.093	-0.253	0.275
-743.142	216.934	-0.151	-0.309
-742.127	-31.011	0.210	-0.152
-741.112	294.859	0.146	0.344
-740.098	101.103	-0.210	0.314
-739.083	-121.000	0.158	0.034
-738.069	11.991	0.101	-0.099
-737.054	142.598	0.059	0.101
-736.039	-200.000	0.048	0.375
-735.025	5.683	-0.296	-0.280
-734.010	18.829	-0.281	-0.289
-732.996	-67.900	0.182	-0.091
-731.981	595.845	0.122	0.388
-730.966	-140.874	0.284	-0.037
-729.952	45.415	0.123	-0.145
-728.937	-200.000	-0.037	-0.247
-727.923	-47.752	0.241	-0.149
-726.908	-1.557	-0.085	0.077
-725.894	-200.000	-0.008	0.075
-724.879	800.000	-0.035	0.154
-723.864	-200.000	0.019	0.529
-722.850	-200.000	-0.064	0.539
-721.835	217.588	-0.075	0.153
-720.821	-200.000	0.016	0.161
-719.806	-78.597	-0.229	-0.100
-718.791	-200.000	-0.006	-0.498
-717.777	-200.000	-0.018	-0.531
-716.762	-200.000	-0.025	0.275
-715.748	-200.000	-0.075	0.631
-714.733	-108.450	-0.212	-0.058
-713.718	419.180	-0.158	-0.435
-712.704	800.000	-0.033	-0.121
-711.689	155.406	0.169	-0.299
-710.675	-200.000	-0.024	-0.166
-709.660	-186.407	0.182	-0.003
-708.645	76.058	-0.066	-0.090
-707.631	-80.519	-0.140	-0.060
-706.616	-121.604	-0.361	0.076
-705.602	-13.035	-0.312	-0.260
-704.587	-150.266	-0.284	0.028
-703.572	-126.284	-0.536	-0.102
-702.558	45.653	-0.290	0.344
-701.543	21.205	0.202	-0.210
-700.529	133.776	-0.223	0.371
-699.514	17.614	0.165	0.168
-698.499	-10.866	-0.093	0.078
-697.485	-86.428	-0.356	0.139
-696.470	-151.533	-0.196	0.018
-695.456	283.059	-0.128	-0.295
-694.441	800.000	0.077	0.368
-693.426	21.153	-0.278	0.289
-692.412	194.691	0.094	-0.183
-691.397	-99.096	-0.464	-0.150
-690.383	78.805	-0.149	0.205
-689.368	-128.969	0.232	-0.041
-688.354	-101.035	0.301	-0.094
-687.339	603.750	0.095	0.305
-686.324	-54.441	0.371	-0.215
-685.310	-14.188	0.248	0.205
-684.295	121.569	0.172	0.275
-683.281	800.000	-0.074	-0.325
-682.266	19.416	-0.114	0.117
-681.251	-157.534	0.119	-0.009
-680.237	-200.000	0.038	0.277
-679.222	-128.868	-0.258	-0.046
-678.208	-32.090	0.143	0.102
-677.193	-130.891	-0.247	-0.042
-676.178	26.485	-0.341	-0.365
-675.164	-25.132	0.135	-0.102
-674.149	-2.114	0.127	-0.114
-673.135	-116.646	0.326	-0.076
-672.120	43.366	-0.075	0.087
-671.105	90.718	-0.285	0.409
-670.091	-9.611	-0.116	0.099
-669.076	-113.736	0.130	-0.032
-668.062	155.834	0.052	-0.091
-667.047	125.584	-0.350	0.566
-666.032	178.880	0.206	-0.387
-665.018	-48.873	0.326	0.199
-664.003	32.461	-0.169	-0.187
-662.989	-200.000	-0.012	0.106
-661.974	233.479	0.069	0.147
-660.959	-194.744	-0.457	0.004
-659.945	22.764	-0.133	-0.139
-658.930	-171.355	-0.152	-0.006
-657.916	-90.663	-0.260	-0.096
-656.901	75.469	-0.316	0.428
-655.886	-200.000	0.028	-0.222
-654.872	-92.390	-0.228	-0.082
-653.857	-49.163	0.331	-0.202
-652.843	-168.037	-0.094	-0.005
-651.828	-9.513	0.346	-0.295
-650.814	-9.714	-0.406	-0.346
-649.799	26.594	-0.063	-0.067
-648.784	-133.871	0.331	-0.052
-647.770	-157.588	-0.151	-0.011
-646.755	20.808	-0.174	-0.181
-645.741	800.000	0.091	-0.462
-644.726	333.232	0.159	-0.396
-643.711	-37.883	0.438	-0.297
-642.697	-200.000	-0.010	0.295
-641.682	-42.891	0.098	-0.063
-640.668	-40.866	-0.219	0.145
-639.653	99.621	0.128	0.190
-638.638	330.840	-0.139	-0.345
-637.624	-127.307	0.320	0.059
-636.609	-121.900	-0.378	-0.079
-635.595	-68.897	-0.172	-0.084
-634.580	-175.597	-0.242	-0.008
-633.565	-131.211	0.246	-0.041
-632.551	75.623	0.067	0.091
-631.536	-200.000	-0.011	0.084
-630.522	-125.801	0.403	-0.077
-629.507	131.724	-0.042	-0.070
-628.492	-74.439	0.498	0.229
-627.478	123.091	-0.230	-0.370
-626.463	-158.906	0.431	-0.031
-625.449	327.704	-0.011	-0.027
-624.434	-68.664	0.123	0.060
-623.419	-200.000	0.026	-0.496
-622.405	263.122	-0.028	0.063
-621.390	-133.995	-0.423	-0.066
-620.376	-103.119	-0.541	0.162
-619.361	-200.000	-0.014	-0.278
-618.346	-48.200	-0.168	0.103
-617.332	-135.834	0.338	-0.050
-616.317	-200.000	-0.031	0.599
-615.303	800.000	0.043	0.165
-614.288	-45.212	0.352	-0.223
-613.273	-200.000	0.005	-0.068
-612.259	-124.142	-0.585	0.116
-611.244	-107.228	-0.306	-0.086
-610.230	800.000	-0.040	0.177
-609.215	-200.000	-0.025	0.235
-608.201	-67.684	0.603	0.300
-607.186	323.788	0.144	0.352
-606.171	20.769	0.168	-0.174
-605.157	-24.864	0.414	0.313
-604.142	-86.439	0.387	-0.151
-603.128	-2.091	-0.150	0.135
-602.113	4.564	-0.233	-0.218
-601.098	-200.000	0.027	-0.408
-600.084	-21.355	0.096	0.075
-599.069	-142.490	0.377	0.047
-598.055	-56.987	0.418	-0.235
-597.040	-47.766	0.526	0.325
-596.025	-8.736	0.147	0.126
-595.011	170.646	0.240	0.439
-593.996	-80.421	0.320	0.136
-592.982	666.477	-0.152	-0.504
-591.967	800.000	-0.101	0.410
-590.952	-105.022	-0.680	0.197
-589.938	-200.000	0.035	-0.405
-588.923	403.362	0.098	0.265
-587.909	-32.566	0.064	-0.045
-586.894	68.399	0.316	0.414
-585.879	-123.357	0.128	0.026
-584.865	-180.698	-0.093	-0.002
-583.850	-77.550	0.511	0.225
-582.836	-200.000	0.053	0.340
-581.821	-194.698	0.254	0.002
-580.806	-32.955	-0.117	0.083
-579.792	-200.000	-0.030	0.188
-578.777	-91.991	0.508	0.182
-577.763	14.092	-0.252	0.250
-576.748	-192.614	-0.592	-0.007
-575.733	101.602	0.106	-0.157
-574.719	-109.478	-0.331	0.089
-573.704	-79.913	-0.391	-0.167
-572.690	-12.567	-0.515	-0.428
-571.675	51.669	-0.294	0.357
-570.661	-200.000	-0.256	-0.001
-569.646	-182.702	-0.240	0.005
-568.631	-83.597	-0.421	0.171
-567.617	29.064	0.052	-0.056
-566.602	-155.427	-0.299	0.024
-565.588	-39.317	-0.098	0.066
-564.573	-68.833	0.089	0.044
-563.558	-117.150	0.323	-0.074
-562.544	-200.000	0.016	-0.252
-561.529	145.020	-0.190	0.325
-560.515	-26.351	0.296	-0.221
-559.500	103.321	-0.188	-0.282
-558.485	-72.018	0.126	0.060
-557.471	-97.278	0.569	-0.188
-556.456	-105.323	0.433	0.125
-555.442	-82.826	0.264	-0.108
-554.427	-151.216	-0.460	-0.043
-553.412	-127.227	-0.229	0.042
-552.398	-35.348	-0.615	0.425
-551.383	599.178	0.050	-0.159
-550.369	-132.355	0.665	-0.108
-549.354	-170.029	0.295	-0.013
-548.339	157.446	0.062	0.110
-547.325	563.141	0.128	0.397
-546.310	-171.540	0.446	0.019
-545.296	451.062	0.095	-0.269
-544.281	196.310	0.153	-0.298
-543.266	36.600	0.162	-0.182
-542.252	155.403	-0.247	0.435
-541.237	800.000	0.043	0.206
-540.223	75.716	0.097	0.131
-539.208	-200.000	-0.025	-0.223
-538.193	-88.805	-0.250	-0.094
-537.179	-55.545	0.411	0.234
-536.164	39.396	0.119	0.136
-535.150	131.792	-0.077	-0.127
-534.135	-131.176	-0.212	0.036
-533.121	-84.692	-0.313	0.125
-532.106	-139.462	-0.473	0.064
-531.091	-101.023	-0.191	-0.059
-530.077	-148.550	-0.243	0.025
-529.062	-2.933	-0.141	0.126
-528.048	-113.987	0.165	-0.040
-527.033	-99.222	-0.530	0.169
-526.018	-36.929	-0.428	-0.292
-525.004	-101.356	-0.431	-0.133
-523.989	-200.000	-0.029	0.267
-522.975	800.000	0.030	0.162
-521.960	-133.123	-0.222	0.036
-520.945	800.000	0.094	-0.383
-519.931	-105.035	0.314	-0.091
-518.916	92.226	0.114	-0.164
-517.902	-200.000	-0.052	-0.484
-516.887	-57.753	-0.214	0.119
-515.872	-150.015	0.248	-0.024
-514.858	3.757	0.412	-0.383
-513.843	800.000	0.034	-0.192
-512.829	-200.000	-0.024	-0.276
-511.814	-68.597	0.168	-0.083
-510.799	44.857	-0.364	-0.426
-509.785	30.831	-0.299	-0.326
-508.770	-45.087	0.161	-0.102
-507.756	-124.928	-0.228	0.044
-506.741	159.885	-0.096	-0.171
-505.726	-15.451	-0.250	-0.203
-504.712	800.000	0.007	0.033
-503.697	-144.383	-0.134	-0.016
-502.683	21.255	0.296	0.306
-501.668	41.889	-0.371	0.429
-500.653	800.000	0.095	0.411
-499.639	-28.653	0.220	0.161
-498.624	-200.000	0.031	0.482
-497.610	-55.528	0.553	0.314
-496.595	-71.176	-0.926	-0.440
-495.581	-138.578	-0.182	0.025
-494.566	-200.000	-0.007	-0.141
-493.551	-200.000	-0.010	0.099
-492.537	-200.000	-0.046	-0.370
-491.522	-200.000	0.123	0.722
-490.508	-56.276	0.174	0.098
-489.493	35.094	0.142	-0.158
-488.478	101.628	0.123	0.183
-487.464	-99.689	-0.190	-0.060
-486.449	502.355	-0.206	0.609
-485.435	-200.000	0.018	0.285
-484.420	17.583	-0.166	0.167
-483.405	800.000	-0.097	-0.402
-482.391	-153.864	0.349	-0.030
-481.376	-101.322	-0.084	-0.026
-480.362	-83.107	0.242	-0.098
-479.347	458.558	0.082	-0.234
-478.332	39.109	-0.170	0.193
-477.318	446.519	0.079	-0.221
-476.303	-159.266	0.374	-0.026
-475.289	-38.856	0.261	-0.175
-474.274	27.203	0.199	0.213
-473.259	-103.203	0.120	0.036
-472.245	-140.345	-0.338	0.044
-471.230	-85.127	-0.369	-0.146
-470.216	800.000	-0.078	0.280
-469.201	-53.708	-0.266	-0.154
-468.186	393.163	0.060	-0.159
-467.172	500.716	0.165	0.485
-466.157	172.868	-0.106	0.195
-465.143	-200.000	0.013	0.379
-464.128	-166.221	0.190	0.010
-463.113	-155.807	0.505	-0.040
-462.099	-50.753	0.155	-0.093
-461.084	-31.761	-0.182	0.129
-460.070	15.595	-0.236	0.236
-459.055	111.632	0.204	-0.313
-458.040	-150.626	-0.150	-0.014
-457.026	800.000	-0.043	-0.161
-456.011	-200.000	0.037	-0.238
-454.997	203.579	-0.172	-0.339
-453.982	-100.831	-0.396	0.123
-452.968	-36.567	-0.034	-0.023
-451.953	-63.308	-0.024	-0.012
-450.938	-193.428	-0.159	-0.002
-449.924	800.000	0.139	-0.551
-448.909	-87.104	-0.106	-0.041
-447.895	98.918	0.142	-0.209
-446.880	458.795	-0.128	-0.362
-445.865	-109.207	0.127	-0.034
-444.851	-20.195	-0.431	0.336
-443.836	-200.000	0.051	-0.302
-442.822	-138.153	0.426	0.059
-441.807	-200.000	-0.002	0.175
-440.792	800.000	-0.051	-0.254
-439.778	285.061	-0.090	0.206
-438.763	-200.000	0.001	-0.277
-437.749	-50.361	-0.434	0.259
-436.734	127.235	-0.095	0.153
-435.719	-45.132	0.098	0.061
-434.705	297.879	0.039	-0.091
-433.690	-107.153	0.145	-0.040
-432.676	-200.000	-0.056	-0.431
-431.661	-76.898	-0.443	-0.195
-430.646	99.183	-0.501	0.735
-429.632	-91.994	0.150	0.054
-428.617	-97.899	0.392	-0.128
-427.603	-105.631	-0.494	0.141
-426.588	-200.000	0.041	0.246
-425.573	269.075	-0.127	-0.284
-424.559	-140.335	0.324	0.042
-423.544	-82.248	-0.117	0.048
-422.530	-200.000	-0.068	0.491
-421.515	-5.425	-0.187	0.162
-420.500	-98.698	-0.317	-0.102
-419.486	800.000	0.049	0.263
-418.471	-78.957	-0.310	-0.133
-417.457	-45.535	-0.101	0.063
-416.442	16.657	0.407	-0.408
-415.428	-38.946	-0.449	0.299
-414.413	175.867	-0.053	0.099
-413.398	592.398	0.111	0.350
-412.384	-115.900	-0.139	0.033
-411.369	-200.000	0.016	-0.289
-410.355	-75.804	-0.496	-0.222
-409.340	-112.558	0.423	0.106
-408.325	-136.164	0.497	-0.073
-407.311	-34.685	0.193	-0.134
-406.296	-191.880	-0.212	0.003
-405.282	-9.420	-0.251	0.212
-404.267	-200.000	-0.020	0.175
-403.252	385.883	0.200	0.527
-402.238	123.299	-0.322	-0.512
-401.223	22.479	-0.382	0.395
-400.209	-112.127	0.498	0.126
-399.194	-200.000	-0.061	0.450
-398.179	-175.005	-0.391	-0.014
-397.165	-62.778	0.456	0.238
-396.150	-149.316	0.362	-0.036
-395.136	-200.000	-0.001	0.066
-394.121	20.587	0.041	0.042
-393.106	47.679	0.256	-0.303
-392.092	-200.000	-0.020	0.231
-391.077	-200.000	0.002	0.406
-390.063	547.764	-0.021	0.063
-389.048	24.756	-0.139	0.146
-388.033	-160.620	0.165	0.011
-387.019	121.680	0.047	0.074
-386.004	66.115	-0.061	0.078
-384.990	-127.958	0.504	-0.091
-383.975	-19.996	0.184	-0.144
-382.960	-200.000	-0.006	-0.174
-381.946	-200.000	0.060	-0.395
-380.931	35.092	-0.266	-0.295
-379.917	-102.127	-0.283	-0.086
-378.902	-200.000	-0.054	-0.381
-377.888	800.000	-0.051	0.209
-376.873	-7.077	0.146	0.126
-375.858	-85.341	0.355	-0.139
-374.844	68.205	0.144	-0.187
-373.829	-122.903	0.229	0.046
-372.815	-200.000	-0.038	0.588
-371.800	-120.476	0.296	0.063
-370.785	-75.822	-0.058	0.026
-369.771	17.546	-0.062	0.063
-368.756	-71.618	0.207	0.098
-367.742	2.080	-0.322	0.294
-366.727	469.079	0.151	-0.430
-365.712	-200.000	-0.022	-0.217
-364.698	118.782	0.030	0.046
-363.683	-75.672	-0.029	-0.013
-362.669	166.740	0.207	-0.373
-361.654	303.604	0.085	-0.200
-360.639	90.594	-0.278	0.394
-359.625	-22.951	-0.344	0.262
-358.610	-14.234	-0.277	-0.226
-357.596	-142.239	-0.174	-0.021
-356.581	-113.430	0.509	-0.125
-355.566	-62.424	0.396	-0.207
-354.552	-15.090	0.246	-0.199
-353.537	-35.426	-0.560	0.384
-352.523	-60.628	-0.332	-0.177
-351.508	-53.110	0.128	-0.074
-350.493	-25.101	-0.296	0.221
-349.479	196.024	-0.114	0.219
-348.464	194.217	0.100	-0.192
-347.450	-95.673	-0.242	-0.081
-346.435	-141.234	-0.495	0.063
-345.420	800.000	0.052	0.246
-344.406	111.463	-0.141	0.216
-343.391	-106.292	-0.091	0.026
-342.377	-200.000	-0.208	0.001
-341.362	325.219	-0.080	0.195
-340.348	-27.099	0.260	-0.191
-339.333	-148.413	-0.146	0.015
-338.318	145.519	0.197	0.334
-337.304	41.341	0.207	0.237
-336.289	276.123	0.039	0.088
-335.275	-200.000	-0.002	0.207
-334.260	-200.000	0.001	-0.049
-333.245	141.944	-0.175	-0.294
-332.231	7.545	0.152	-0.143
-331.216	-105.342	-0.359	-0.103
-330.202	127.233	-0.076	0.123
-329.187	183.710	0.104	-0.194
-328.172	-86.030	0.566	-0.220
-327.158	800.000	-0.041	0.197
-326.143	129.008	0.171	-0.276
-325.129	-49.066	-0.041	0.025
-324.114	-190.941	0.345	0.004
-323.099	-183.740	0.169	0.004
-322.085	-145.666	0.508	0.057
-321.070	-200.000	0.055	-0.350
-320.056	171.230	-0.182	-0.331
-319.041	194.065	0.126	0.243
-318.026	-41.169	0.168	0.109
-317.012	-41.988	0.389	-0.251
-315.997	76.127	-0.220	-0.294
-314.983	-127.798	0.371	-0.067
-313.968	-99.610	-0.266	0.084
-312.953	38.120	0.109	-0.123
-311.939	-200.000	-0.006	0.389
-310.924	61.992	0.149	0.187
-309.910	-110.153	-0.501	0.131
-308.895	-179.779	-0.434	-0.012
-307.880	607.247	0.164	0.519
-306.866	800.000	0.045	-0.174
-305.851	563.007	-0.129	-0.398
-304.837	51.902	-0.324	-0.389
-303.822	85.388	0.197	-0.273
-302.807	-43.553	-0.331	-0.211
-301.793	-89.850	-0.202	0.074
-300.778	800.000	0.114	-0.434
-299.764	-9.531	0.126	0.106
-298.749	-56.459	-0.323	0.180
-297.735	167.037	-0.030	-0.055
-296.720	117.664	0.087	-0.136
-295.705	-200.000	-0.091	-0.548
-294.691	195.171	0.073	-0.140
-293.676	145.563	0.207	-0.351
-292.662	-48.988	-0.088	-0.053
-291.647	-200.000	0.086	0.508
-290.632	-200.000	0.039	-0.476
-289.618	12.450	-0.377	-0.367
-288.603	-41.400	0.353	0.228
-287.589	-200.000	-0.105	-0.716
-286.574	-200.000	-0.012	0.079
-285.559	5.509	0.325	-0.303
-284.545	-118.583	0.091	0.020
-283.530	-4.594	-0.111	-0.097
-282.516	212.251	-0.163	-0.326
-281.501	-31.335	-0.252	-0.178
-280.486	25.959	-0.215	0.226
-279.472	153.595	-0.109	-0.189
-278.457	-74.761	0.152	-0.069
-277.443	-200.000	0.075	-0.434
-276.428	-129.243	0.379	-0.066
-275.413	330.873	-0.155	0.379
-274.399	-200.000	-0.041	-0.245
-273.384	-200.000	0.015	0.172
-272.370	-143.791	-0.321	-0.038
-271.355	-24.669	-0.071	-0.053
-270.340	-65.815	0.094	0.047
-269.326	95.852	-0.158	0.228
-268.311	-193.661	-0.210	-0.002
-267.297	-38.278	-0.216	0.144
-266.282	-38.302	-0.202	-0.135
-265.267	-81.899	-0.303	0.124
-264.253	32.183	0.246	0.267
-263.238	-126.356	0.040	-0.007
-262.224	-148.017	0.759	0.078
-261.209	59.574	0.369	0.459
-260.195	800.000	-0.065	0.355
-259.180	-200.000	0.036	-0.342
-258.165	119.412	-0.273	-0.426
-257.151	173.997	-0.242	0.441
-256.136	-106.314	-0.260	0.073
-255.122	93.469	-0.036	0.051
-254.107	-139.862	-0.174	-0.023
-253.092	-55.233	-0.406	-0.229
-252.078	-200.000	0.020	-0.279
-251.063	97.046	0.271	0.392
-250.049	296.869	0.157	0.365
-249.034	-200.000	-0.077	-0.438
-248.019	64.433	-0.146	0.185
-247.005	-50.751	0.333	0.197
-245.990	146.518	0.265	0.449
-244.976	270.618	-0.150	0.333
-243.961	-27.263	-0.089	0.065
-242.946	600.840	-0.124	-0.389
-241.932	1.340	0.288	-0.261
-240.917	-84.861	0.290	-0.114
-239.903	-200.000	0.055	0.371
-238.888	113.882	0.165	0.253
-237.873	-136.403	0.229	-0.033
-236.859	-121.564	-0.247	0.051
-235.844	348.902	0.220	0.549
-234.830	514.287	0.009	-0.026
-233.815	611.992	-0.138	-0.436
-232.800	169.278	-0.123	-0.221
-231.786	214.101	0.044	-0.088
-230.771	-188.305	-0.128	0.002
-229.757	800.000	-0.072	-0.312
-228.742	53.139	0.193	0.233
-227.727	7.715	0.364	-0.343
-226.713	-57.947	0.021	0.011
-225.698	-200.000	0.012	-0.510
-224.684	-151.070	-0.118	-0.011
-223.669	800.000	-0.062	-0.269
-222.655	-96.905	-0.579	0.190
-221.640	298.941	0.226	0.524
-220.625	-24.084	-0.570	-0.428
-219.611	132.608	-0.409	0.665
-218.596	136.134	-0.100	-0.164
-217.582	-68.359	-0.423	-0.206
-216.567	217.811	-0.138	0.278
-215.552	266.774	-0.066	-0.145
-214.538	-106.955	-0.351	-0.097
-213.523	-200.000	-0.003	-0.106
-212.509	-59.606	-0.311	-0.167
-211.494	-24.128	0.190	-0.143
-210.479	274.663	0.079	-0.178
-209.465	-139.725	0.284	0.037
-208.450	-91.236	0.468	0.168
-207.436	258.513	-0.104	-0.227
-206.421	442.054	0.076	0.209
-205.406	-107.660	0.517	0.141
-204.392	77.715	-0.136	-0.183
-203.377	-82.857	0.133	0.054
-202.363	108.378	0.222	0.334
-201.348	-200.000	0.031	-0.432
-200.333	554.903	-0.114	0.347
-199.319	52.465	-0.230	0.276
-198.304	191.972	0.244	0.464
-197.290	374.134	0.240	0.616
-196.275	-68.021	0.490	-0.239
-195.260	-200.000	-0.013	-0.178
-194.246	128.160	-0.065	-0.105
-193.231	43.712	0.419	0.482
-192.217	73.729	0.110	-0.144
-191.202	373.925	0.084	-0.217
-190.187	-148.746	-0.200	0.020
-189.173	-93.745	-0.454	0.156
-188.158	-30.115	0.300	-0.214
-187.144	-9.674	0.023	0.019
-186.129	-93.166	-0.233	-0.081
-185.114	259.822	-0.072	-0.156
-184.100	-123.846	0.447	-0.088
-183.085	78.853	0.203	0.273
-182.071	800.000	-0.086	-0.455
-181.056	79.306	0.076	-0.102
-180.042	207.833	0.103	0.202
-179.027	-84.175	0.221	0.088
-178.012	-123.708	-0.590	0.116
-176.998	143.031	-0.083	0.138
-175.983	480.077	-0.091	-0.262
-174.969	17.113	-0.179	-0.178
-173.954	118.987	0.402	-0.625
-172.939	55.733	0.241	0.293
-171.925	-33.055	0.316	0.220
-170.910	800.000	-0.119	-0.436
-169.896	252.861	0.109	0.234
-168.881	427.726	0.204	0.555
-167.866	11.093	-0.385	-0.370
-166.852	-164.333	0.283	-0.016
-165.837	-139.029	-0.103	0.014
-164.823	-62.692	-0.230	0.119
-163.808	54.355	0.224	-0.271
-162.793	502.142	-0.110	0.321
-161.779	69.491	0.015	-0.019
-160.764	434.927	-0.191	0.525
-159.750	18.600	0.278	-0.279
-158.735	-16.967	0.290	0.229
-157.720	101.500	-0.288	0.421
-156.706	256.753	0.251	-0.542
-155.691	351.652	-0.123	-0.308
-154.677	172.213	0.225	-0.407
-153.662	478.785	0.078	0.224
-152.647	8.726	-0.322	0.304
-151.633	-2.646	0.183	-0.160
-150.618	8.533	-0.471	-0.444
-149.604	-138.868	-0.250	-0.034
-148.589	-42.277	0.364	0.232
-147.574	-79.536	0.363	0.153
-146.560	2.874	0.475	0.432
-145.545	8.991	-0.162	-0.153
-144.531	-200.000	-0.036	0.368
-143.516	271.131	0.073	0.161
-142.502	-200.000	-0.027	0.157
-141.487	-85.501	-0.066	-0.026
-140.472	-34.111	0.600	-0.412
-139.458	800.000	0.079	0.394
-138.443	-36.759	0.142	-0.095
-137.429	-29.105	0.256	-0.184
-136.414	-200.000	-0.000	0.789
-135.399	-200.000	-0.022	0.300
-134.385	-200.000	0.049	0.497
-133.370	-42.074	0.322	0.206
-132.356	-125.341	0.422	0.080
-131.341	-73.564	0.540	-0.246
-130.326	-72.851	0.360	0.165
-129.312	714.569	0.021	0.072
-128.297	32.248	0.206	0.223
-127.283	-175.479	-0.171	-0.006
-126.268	-200.000	-0.046	0.265
-125.253	-93.882	-0.072	0.025
-124.239	18.347	-0.261	-0.261
-123.224	-200.000	-0.000	0.457
-122.210	-140.734	-0.432	0.055
-121.195	-5.549	0.367	0.315
-120.180	19.432	-0.148	0.149
-119.166	-200.000	-0.077	0.446
-118.151	51.895	0.370	0.441
-117.137	-200.000	0.007	-0.354
-116.122	-200.000	-0.013	-0.184
-115.107	800.000	0.105	-0.500
-114.093	-112.992	-0.348	0.086
-113.078	-102.798	0.223	0.066
-112.064	443.777	0.204	-0.564
-111.049	37.776	-0.433	-0.482
-110.034	-13.848	-0.164	0.133
-109.020	-200.000	-0.076	-0.558
-108.005	-124.420	-0.265	0.051
-106.991	-84.913	0.606	0.237
-105.976	800.000	-0.031	0.146
-104.962	-147.781	-0.149	-0.015
-103.947	-97.271	0.481	-0.156
-102.932	65.034	-0.221	0.279
-101.918	205.032	0.145	0.283
-100.903	800.000	0.126	0.446
-99.889	-25.128	0.483	-0.358
-98.874	-59.179	-0.372	0.200
-97.859	209.892	-0.201	-0.397
-96.845	-107.692	0.439	-0.119
-95.830	306.686	0.047	-0.109
-94.816	209.738	-0.169	-0.334
-93.801	800.000	0.068	0.296
-92.786	-30.108	-0.109	0.077
-91.772	-200.000	0.072	0.398
-90.757	293.223	0.128	0.293
-89.743	21.120	-0.225	0.228
-88.728	-108.255	-0.345	-0.093
-87.713	378.485	-0.170	-0.437
-86.699	265.544	0.072	0.158
-85.684	-200.000	0.012	-0.068
-84.670	217.831	-0.249	-0.499
-83.655	-89.685	0.243	-0.089
-82.640	-127.996	0.893	0.159
-81.626	127.432	0.114	-0.182
-80.611	-200.000	0.030	0.279
-79.597	-96.067	-0.238	0.079
-78.582	-154.709	0.364	0.030
-77.567	-107.199	0.063	-0.017
-76.553	-200.000	0.308	0.000
-75.538	-200.000	0.040	-0.220
-74.524	-105.631	0.385	0.108
-73.509	-176.330	0.801	0.026
-72.494	-14.127	-0.259	0.209
-71.480	-121.325	0.247	0.051
-70.465	-93.584	0.158	-0.054
-69.451	-31.083	-0.225	0.158
-68.436	446.572	0.089	-0.247
-67.422	4.291	-0.222	-0.203
-66.407	-69.191	0.420	-0.201
-65.392	-200.000	-0.040	0.448
-64.378	50.911	-0.283	0.335
-63.363	68.770	0.341	-0.439
-62.349	332.165	-0.205	-0.497
-61.334	91.080	-1.491	-2.094
-60.319	31.751	0.802	0.863
-59.305	399.435	-2.533	-6.665
-58.290	33.006	3.068	3.323
-57.276	512.928	3.593	10.522
-56.261	-200.000	16.056	250.959
-55.246	446.575	1197.764	3308.133
-54.232	63.318	2816.564	3532.540
-53.217	72.321	2708.899	3531.183
-52.203	62.042	2440.998	3044.029
-51.188	35.919	2097.357	2306.289
-50.173	32.885	1973.191	2135.239
-49.159	30.628	1963.539	2099.129
-48.144	30.172	1958.555	2088.559
-47.130	30.056	1956.057	2084.500
-46.115	30.001	1954.523	2082.158
-45.100	30.005	1952.785	2080.275
-44.086	29.911	1951.634	2077.906
-43.071	29.893	1950.448	2076.359
-42.057	29.933	1948.569	2074.718
-41.042	29.907	1947.154	2072.839
-40.027	30.008	1945.647	2072.286
-39.013	29.940	1943.898	2069.584
-37.998	29.874	1942.199	2066.948
-36.984	29.862	1942.130	2066.656
-35.969	29.878	1940.356	2064.868
-34.954	29.928	1938.444	2063.307
-33.940	29.717	1938.468	2060.887
-32.925	29.830	1935.858	2059.298
-31.911	29.768	1935.512	2058.161
-30.896	29.778	1934.204	2056.801
-29.881	29.643	1933.160	2054.096
-28.867	29.648	1931.526	2052.330
-27.852	29.746	1930.379	2052.130
-26.838	29.734	1928.573	2049.991
-25.823	29.680	1927.938	2048.630
-24.809	29.771	1925.552	2047.034
-23.794	29.748	1924.547	2045.621
-22.779	29.741	1922.953	2043.773
-21.765	29.743	1921.575	2042.250
-20.750	29.734	1921.117	2041.585
-19.736	29.791	1919.573	2040.486
-18.721	29.653	1918.316	2037.541
-17.706	29.624	1917.520	2036.296
-16.692	29.639	1916.400	2035.190
-15.677	29.638	1914.979	2033.586
-14.663	29.510	1913.766	2030.808
-13.648	29.593	1912.199	2029.979
-12.633	29.449	1911.442	2027.504
-11.619	29.600	1908.526	2025.993
-10.604	29.565	1907.419	2024.355
-9.590	29.503	1906.897	2023.036
-8.575	29.511	1905.522	2021.584
-7.560	29.677	1904.358	2022.095
-6.546	29.554	1903.558	2019.821
-5.531	29.517	1902.731	2018.454
-4.517	29.578	1901.460	2017.697
-3.502	29.575	1900.201	2016.240
-2.487	29.520	1899.043	2014.337
-1.473	29.639	1896.218	2012.559
-0.458	30.013	1876.698	1995.814
0.556	26.796	2018.476	2096.716
1.571	26.259	2233.293	2312.669
2.586	27.774	2278.149	2378.708
3.600	27.772	2280.957	2381.326
4.615	27.780	2280.787	2380.966
5.629	27.748	2279.366	2378.785
6.644	27.815	2276.687	2376.578
7.659	27.796	2275.604	2374.909
8.673	27.787	2273.943	2372.777
9.688	27.107	2279.597	2369.480
10.702	24.824	2353.928	2415.509
11.717	22.632	2419.839	2452.242
12.731	11.896	2391.098	2273.731
13.746	2.102	2362.570	2110.728
14.761	0.471	2359.056	2084.706
15.775	0.366	2356.859	2081.059
16.790	0.276	2355.134	2078.036
17.804	0.230	2353.240	2075.475
18.819	0.299	2353.028	2075.990
19.834	0.230	2351.246	2073.222
20.848	0.273	2350.029	2072.497
21.863	0.249	2347.803	2069.948
22.877	0.223	2345.293	2067.135
23.892	0.149	2343.792	2064.538
24.907	0.260	2340.847	2063.228
25.921	0.164	2340.313	2061.194
26.936	0.170	2337.740	2058.754
27.950	0.266	2334.429	2056.912
28.965	0.275	2332.549	2055.138
29.980	0.242	2331.519	2053.529
30.994	0.289	2329.861	2052.463
32.009	5.682	2348.128	2142.586
33.023	20.127	2392.805	2384.165
34.038	27.870	2409.503	2507.854
35.053	29.438	2412.199	2532.008
36.067	29.725	2411.135	2534.545
37.082	29.695	2407.894	2530.424
38.096	29.643	2405.857	2527.263
39.111	30.056	2405.336	2532.097
40.126	30.506	2404.353	2536.936
41.140	30.938	2404.020	2542.200
42.155	30.360	2400.457	2530.212
43.169	30.175	2397.742	2524.523
44.184	30.492	2395.883	2526.594
45.199	30.434	2392.660	2522.102
46.213	30.142	2391.245	2516.325
47.228	30.060	2391.758	2515.435
48.242	30.097	2388.871	2512.609
49.257	30.136	2386.089	2509.908
50.271	30.095	2384.872	2507.775
51.286	30.308	2382.864	2508.263
52.301	29.914	2380.171	2499.776
53.315	28.597	2373.896	2475.043
54.330	25.913	2365.020	2429.191
55.344	24.272	2357.792	2399.287
56.359	24.205	2353.537	2393.772
57.374	23.848	2351.790	2386.890
58.388	23.880	2348.115	2383.313
59.403	24.179	2345.739	2384.639
60.417	24.685	2344.697	2390.087
61.432	24.777	2342.967	2389.278
62.447	24.759	2340.331	2386.062
63.461	24.618	2338.100	2381.610
64.476	24.444	2336.672	2377.544
65.490	25.110	2337.536	2387.049
66.505	26.304	2340.702	2405.984
67.520	27.821	2344.374	2429.793
68.534	28.621	2344.728	2440.569
69.549	29.379	2342.401	2447.965
70.563	29.688	2341.941	2451.310
71.578	29.416	2340.058	2445.431
72.593	29.705	2338.983	2447.860
73.607	30.192	2338.519	2453.551
74.622	30.450	2336.959	2455.059
75.636	30.017	2333.468	2445.350
76.651	29.768	2331.481	2439.671
77.666	29.835	2328.588	2437.238
78.680	30.067	2326.895	2438.241
79.695	30.412	2325.664	2441.225
80.709	30.539	2325.271	2442.196
81.724	30.611	2324.085	2441.612
82.739	30.606	2321.002	2438.016
83.753	30.505	2319.639	2434.954
84.768	30.495	2317.737	2432.540
85.782	30.492	2316.409	2430.815
86.797	30.520	2313.571	2427.914
87.812	30.257	2311.237	2421.718
88.826	29.907	2308.469	2413.948
89.841	30.247	2306.836	2416.401
90.855	30.899	2306.085	2423.855
91.870	30.295	2303.010	2412.443
92.884	30.047	2301.231	2407.054
93.899	30.309	2299.940	2408.833
94.914	29.245	2297.474	2392.082
95.928	26.744	2288.112	2349.507
96.943	25.619	2283.676	2330.036
97.957	27.741	2288.657	2362.486
98.972	29.352	2290.046	2384.597
99.987	29.047	2285.845	2375.989
101.001	29.280	2285.170	2378.014
102.016	29.460	2285.559	2380.479
103.030	29.706	2282.121	2379.799
104.045	30.238	2280.591	2384.790
105.060	30.743	2280.192	2390.606
106.074	30.517	2277.630	2384.720
107.089	29.945	2274.656	2373.957
108.103	30.086	2275.152	2376.004
109.118	30.439	2273.433	2378.469
110.133	30.420	2271.396	2375.806
111.147	30.410	2269.249	2373.156
112.162	30.390	2266.871	2370.118
113.176	30.026	2264.624	2362.818
114.191	29.820	2262.410	2357.595
115.206	29.949	2260.056	2356.507
116.220	29.874	2258.481	2353.630
117.235	29.772	2255.076	2348.487
118.249	29.622	2252.607	2343.725
119.264	29.832	2253.207	2346.748
120.279	30.267	2252.252	2351.011
121.293	29.936	2248.218	2342.321
122.308	29.694	2247.857	2338.580
123.322	29.801	2245.607	2337.324
124.337	28.667	2241.101	2317.969
125.352	26.486	2234.119	2282.837
126.366	26.335	2232.664	2279.169
127.381	28.412	2235.953	2308.578
128.395	29.393	2236.577	2321.365
129.410	29.628	2236.174	2323.639
130.424	29.836	2233.729	2323.449
131.439	29.798	2231.135	2319.998
132.454	29.664	2230.430	2317.294
133.468	30.050	2228.396	2319.764
134.483	29.930	2225.118	2314.560
135.497	29.599	2223.798	2308.754
136.512	29.886	2222.623	2310.866
137.527	30.018	2220.880	2310.426
138.541	29.865	2219.054	2306.341
139.556	29.584	2218.106	2301.561
140.570	29.542	2216.428	2299.017
141.585	29.895	2214.999	2301.676
142.600	30.241	2214.513	2305.209
143.614	30.178	2213.551	2303.149
144.629	30.657	2212.447	2307.701
145.643	30.117	2208.794	2296.890
146.658	29.843	2206.941	2291.272
147.673	29.873	2204.762	2289.114
148.687	30.211	2204.154	2292.403
149.702	30.038	2203.042	2288.826
150.716	29.892	2201.202	2284.827
151.731	30.371	2201.429	2290.739
152.746	30.957	2201.025	2297.302
153.760	29.404	2195.841	2272.407
154.775	26.494	2185.769	2225.792
155.789	24.922	2182.019	2202.293
156.804	27.073	2185.090	2231.726
157.819	28.833	2186.316	2254.428
158.833	29.504	2185.225	2261.301
159.848	30.159	2183.973	2267.791
160.862	30.530	2184.419	2272.546
161.877	30.806	2184.356	2275.590
162.892	30.846	2183.125	2274.531
163.906	30.877	2181.298	2272.731
164.921	30.904	2179.169	2270.578
165.935	30.911	2176.815	2267.934
166.950	30.596	2174.843	2261.759
167.964	30.136	2171.991	2252.909
168.979	30.025	2169.407	2248.596
169.994	30.483	2168.646	2253.127
171.008	30.427	2166.562	2250.010
172.023	29.920	2164.915	2241.855
173.037	30.113	2164.625	2243.637
174.052	30.177	2161.829	2241.246
175.067	29.956	2158.773	2235.138
176.081	29.734	2157.692	2231.060
177.096	29.678	2156.895	2229.290
178.110	29.632	2154.185	2225.656
179.125	29.598	2153.134	2223.902
180.140	29.757	2152.374	2224.766
181.154	29.512	2150.124	2219.213
182.169	29.216	2148.099	2213.285
183.183	28.388	2144.381	2199.209
184.198	25.942	2134.957	2159.858
185.213	25.207	2134.982	2150.774
186.227	28.074	2140.745	2190.910
187.242	29.116	2141.515	2203.983
188.256	29.394	2140.012	2205.513
189.271	30.315	2141.141	2217.478
190.286	30.682	2139.686	2220.112
191.300	29.981	2135.712	2207.327
192.315	29.772	2133.621	2202.395
193.329	30.079	2133.538	2205.718
194.344	30.423	2132.430	2208.420
195.359	30.446	2130.495	2206.429
196.373	30.853	2129.863	2210.369
197.388	30.851	2126.833	2206.931
198.402	30.441	2124.712	2199.589
199.417	30.297	2121.832	2194.635
200.432	30.324	2120.860	2193.689
201.446	30.563	2120.850	2196.256
202.461	30.764	2118.498	2195.943
203.475	30.291	2115.495	2186.958
204.490	29.998	2113.670	2181.339
205.504	30.006	2111.605	2179.051
206.519	29.771	2108.026	2172.320
207.534	29.852	2107.235	2172.197
208.548	29.955	2106.196	2172.083
209.563	29.629	2103.699	2165.404
210.577	29.486	2102.255	2161.975
211.592	29.867	2102.516	2166.476
212.607	28.707	2096.584	2146.484
213.621	25.037	2086.520	2092.923
214.636	25.059	2087.362	2093.774
215.650	28.217	2093.736	2137.046
216.665	29.609	2094.743	2154.143
217.680	30.218	2093.642	2159.887
218.694	30.549	2093.305	2163.156
219.709	30.110	2091.937	2156.349
220.723	30.331	2090.737	2157.441
221.738	30.717	2088.646	2159.524
222.753	30.403	2085.843	2152.706
223.767	30.245	2083.916	2148.618
224.782	29.941	2080.701	2141.513
225.796	29.803	2080.265	2139.212
226.811	30.308	2078.970	2143.488
227.826	30.528	2078.249	2145.040
228.840	30.690	2076.977	2145.348
229.855	30.205	2075.187	2137.627
230.869	30.137	2073.997	2135.354
231.884	30.056	2071.008	2131.085
232.899	29.811	2069.047	2125.986
233.913	29.739	2068.925	2124.766
234.928	30.106	2068.098	2127.903
235.942	30.425	2066.539	2129.716
236.957	30.304	2064.992	2126.479
237.972	30.220	2064.075	2124.318
238.986	30.521	2062.833	2126.248
240.001	30.232	2059.123	2118.843
241.015	29.424	2057.144	2107.279
242.030	29.119	2053.943	2100.252
243.045	26.889	2046.428	2066.814
244.059	25.988	2046.347	2056.170
245.074	28.701	2049.123	2089.799
246.088	29.476	2047.574	2096.821
247.103	29.503	2046.123	2095.393
248.117	29.784	2046.901	2099.143
249.132	30.333	2046.081	2104.307
250.147	30.259	2043.086	2100.129
251.161	29.514	2040.715	2088.974
252.176	29.662	2039.244	2088.904
253.190	29.302	2034.991	2080.216
254.205	28.430	2031.946	2066.968
255.220	28.487	2030.990	2066.402
256.234	28.776	2030.564	2068.992
257.249	28.981	2029.363	2069.842
258.263	29.127	2029.479	2071.357
259.278	28.717	2027.510	2064.467
260.293	28.655	2025.520	2061.498
261.307	29.321	2025.293	2068.528
262.322	29.781	2024.420	2072.569
263.336	29.440	2021.822	2065.829
264.351	29.484	2020.486	2064.715
265.366	29.581	2019.154	2064.195
266.380	29.689	2018.246	2064.229
267.395	29.239	2015.394	2056.024
268.409	29.430	2014.837	2057.346
269.424	30.310	2015.032	2067.157
270.439	30.545	2014.269	2068.756
271.453	29.465	2008.911	2050.957
272.468	26.212	1998.545	2003.912
273.482	25.332	1997.832	1993.142
274.497	28.163	2002.690	2029.363
275.512	29.924	2003.590	2049.651
276.526	30.062	2002.313	2049.634
277.541	30.021	2000.128	2046.691
278.555	29.879	1998.010	2042.703
279.570	29.237	1994.343	2031.600
280.585	29.000	1993.055	2027.419
281.599	29.573	1992.939	2033.405
282.614	29.847	1991.073	2034.289
283.628	29.196	1988.929	2024.662
284.643	29.210	1988.035	2023.667
285.657	29.353	1987.043	2023.993
286.672	29.242	1984.910	2020.357
287.687	28.753	1981.897	2011.663
288.701	28.027	1980.080	2001.595
289.716	28.024	1976.819	1998.016
290.730	28.030	1975.665	1996.685
291.745	28.319	1974.811	1998.754
292.760	28.334	1974.782	1998.641
293.774	28.488	1975.583	2000.905
294.789	29.696	1976.080	2014.409
295.803	29.924	1975.087	2015.658
296.818	29.794	1973.244	2012.107
297.833	29.982	1972.275	2012.943
298.847	30.150	1970.308	2012.517
299.862	30.107	1968.414	2009.879
300.876	29.186	1964.234	1995.347
301.891	26.323	1955.438	1955.099
302.906	25.604	1956.589	1948.188
303.920	28.822	1961.370	1987.769
304.935	30.034	1961.309	2000.634
305.949	29.843	1959.610	1996.589
306.964	30.311	1959.704	2001.523
307.979	30.423	1956.934	1999.663
308.993	29.088	1951.629	1979.589
310.008	27.954	1947.974	1963.403
311.022	28.242	1946.867	1965.157
312.037	28.781	1945.868	1969.721
313.052	28.221	1942.779	1960.330
314.066	27.154	1938.874	1944.693
315.081	26.727	1936.540	1937.529
316.095	26.659	1936.187	1936.210
317.110	26.940	1934.671	1937.482
318.125	27.527	1934.707	1943.582
319.139	28.160	1936.185	1951.619
320.154	28.879	1936.334	1959.250
321.168	28.918	1933.744	1956.809
322.183	29.169	1933.425	1958.934
323.197	29.749	1933.595	1965.074
324.212	29.746	1932.301	1963.487
325.227	29.708	1930.597	1961.117
326.241	30.018	1928.578	1962.134
327.256	30.231	1928.377	1963.955
328.270	30.183	1927.315	1962.137
329.285	30.094	1927.499	1961.139
330.300	29.406	1923.286	1949.316
331.314	26.066	1913.535	1903.839
332.329	25.372	1913.073	1895.788
333.343	28.515	1917.948	1933.761
334.358	30.405	1919.708	1955.337
335.373	30.778	1918.938	1958.262
336.387	30.719	1917.135	1955.564
337.402	30.730	1915.160	1953.434
338.416	30.377	1912.963	1947.231
339.431	30.305	1911.775	1945.031
340.446	30.780	1910.580	1948.586
341.460	30.253	1907.756	1939.931
342.475	29.676	1904.823	1930.662
343.489	29.062	1901.300	1920.427
344.504	28.619	1899.550	1913.786
345.519	28.370	1896.976	1908.357
346.533	27.974	1892.975	1899.962
347.548	27.984	1892.693	1899.553
348.562	28.215	1892.754	1901.808
349.577	28.087	1891.544	1899.027
350.592	27.809	1890.397	1894.741
351.606	28.040	1888.430	1894.951
352.621	27.835	1886.322	1890.483
353.635	28.195	1886.367	1894.043
354.650	28.540	1886.287	1897.326
355.665	28.898	1885.224	1899.748
356.679	29.205	1884.764	1902.241
357.694	29.635	1883.465	1905.159
358.708	30.014	1883.711	1909.114
359.723	29.037	1879.054	1894.060
360.738	25.914	1871.246	1853.733
361.752	26.193	1871.789	1856.935
362.767	28.976	1876.245	1889.916
363.781	29.859	1876.277	1898.840
364.796	30.139	1876.063	1901.282
365.810	30.115	1873.760	1898.474
366.825	30.031	1873.074	1896.686
367.840	30.257	1872.424	1898.130
368.854	30.182	1871.030	1895.712
369.869	29.807	1868.544	1889.120
370.883	29.614	1866.520	1884.871
371.898	29.016	1862.965	1874.933
372.913	28.521	1861.126	1867.792
373.927	28.673	1860.360	1868.349
374.942	28.709	1859.384	1867.519
375.956	28.764	1857.285	1865.745
376.971	28.563	1854.051	1860.224
377.986	27.966	1851.576	1851.446
379.000	28.249	1851.909	1854.436
380.015	29.472	1853.643	1868.408
381.029	30.248	1853.271	1875.697
382.044	30.496	1852.191	1876.891
383.059	30.654	1850.511	1876.572
384.073	30.490	1847.285	1871.412
385.088	29.690	1845.252	1861.034
386.102	29.522	1843.552	1857.403
387.117	29.591	1841.589	1855.898
388.132	29.662	1841.220	1856.024
389.146	28.905	1839.080	1846.011
390.161	25.950	1831.126	1808.066
391.175	25.685	1829.948	1804.016
392.190	28.603	1832.231	1835.431
393.205	29.522	1832.372	1844.595
394.219	29.671	1832.025	1845.512
395.234	29.639	1831.265	1844.210
396.248	29.839	1828.686	1843.391
397.263	29.731	1825.951	1839.336
398.278	29.367	1824.283	1833.799
399.292	29.413	1824.022	1833.781
400.307	30.065	1824.379	1840.426
401.321	30.123	1822.516	1838.908
402.336	28.758	1816.565	1819.107
403.350	27.521	1813.533	1803.554
404.365	28.143	1813.571	1809.562
405.380	28.118	1810.998	1806.528
406.394	27.239	1807.944	1794.549
407.409	26.943	1807.257	1790.715
408.423	26.626	1804.949	1785.077
409.438	26.746	1802.870	1783.994
410.453	26.944	1803.506	1786.374
411.467	28.103	1805.155	1799.256
412.482	29.110	1805.503	1809.342
413.496	29.332	1805.212	1811.021
414.511	29.447	1802.665	1809.387
415.526	29.472	1800.726	1807.475
416.540	29.867	1799.892	1810.301
417.555	29.690	1798.432	1806.878
418.569	29.094	1797.992	1800.360
419.584	29.191	1797.950	1801.056
420.599	28.904	1796.463	1796.534
421.613	28.619	1794.830	1791.894
422.628	29.219	1795.159	1797.890
423.642	29.918	1794.757	1804.125
424.657	29.703	1792.393	1799.433
425.672	28.933	1788.953	1788.239
426.686	29.287	1788.990	1791.517
427.701	29.491	1787.533	1791.834
428.715	29.010	1785.143	1784.534
429.730	29.238	1783.644	1785.049
430.745	29.639	1783.553	1788.645
431.759	29.459	1781.140	1784.260
432.774	27.912	1777.466	1765.353
433.788	26.055	1772.595	1742.300
434.803	25.141	1769.791	1730.472
435.818	25.036	1769.524	1728.987
436.832	25.038	1768.490	1727.784
437.847	24.022	1760.701	1710.165
438.861	14.414	1733.495	1591.726
439.876	2.903	1710.747	1461.055
440.890	0.609	1705.433	1434.457
441.905	0.378	1703.912	1430.803
442.920	0.322	1703.650	1429.881
443.934	0.286	1701.989	1427.969
444.949	0.265	1700.431	1426.298
445.963	0.269	1699.728	1425.574
446.978	0.224	1699.306	1424.617
447.993	0.211	1697.892	1423.142
449.007	0.238	1696.236	1421.834
450.022	0.352	1693.778	1420.690
451.036	0.217	1692.187	1417.909
452.051	0.772	1695.235	1425.553
453.066	9.887	1719.387	1532.992
454.080	21.562	1738.875	1662.279
455.095	24.676	1744.820	1697.532
456.109	25.878	1746.808	1710.741
457.124	26.271	1745.865	1713.363
458.139	26.176	1744.402	1710.817
459.153	26.005	1743.004	1707.607
460.168	26.018	1741.616	1706.175
461.182	26.167	1741.058	1706.835
462.197	26.133	1738.796	1704.088
463.212	26.375	1737.839	1705.245
464.226	26.542	1736.216	1705.027
465.241	26.393	1735.427	1702.638
466.255	26.275	1734.263	1700.176
467.270	26.393	1732.363	1699.228
468.285	26.512	1732.018	1699.805
469.299	26.805	1730.744	1701.114
470.314	26.779	1728.357	1698.323
471.328	26.539	1727.770	1695.287
472.343	26.501	1726.963	1693.930
473.358	26.481	1725.132	1691.743
474.372	26.304	1723.974	1688.743
475.387	26.618	1721.591	1689.150
476.401	26.297	1719.614	1684.006
477.416	25.925	1718.442	1679.176
478.430	25.890	1717.584	1677.808
479.445	26.184	1717.044	1679.828
480.460	26.643	1715.130	1682.042
481.474	26.539	1715.444	1681.176
482.489	26.391	1713.724	1677.905
483.503	26.259	1710.510	1673.332
484.518	25.932	1708.969	1668.582
485.533	25.917	1708.443	1667.730
486.547	25.650	1706.207	1662.864
487.562	25.213	1704.786	1657.231
488.576	25.528	1703.788	1658.982
489.591	25.722	1703.056	1659.868
490.606	26.067	1702.398	1662.221
491.620	26.304	1701.129	1662.977
492.635	26.008	1698.272	1657.252
493.649	25.641	1695.804	1651.263
494.664	26.053	1696.027	1655.083
495.679	26.449	1695.382	1657.896
496.693	26.512	1694.372	1657.298
497.708	26.370	1692.848	1654.303
498.722	26.173	1690.817	1650.306
499.737	26.212	1689.506	1649.186
500.752	26.374	1688.717	1649.708
501.766	26.534	1687.642	1649.922
502.781	26.492	1685.195	1646.951
503.795	26.338	1684.427	1644.592
504.810	26.456	1683.332	1644.407
505.825	26.198	1682.671	1641.212
506.839	26.158	1681.471	1639.475
507.854	26.330	1679.229	1638.662
508.868	26.002	1677.453	1633.748
509.883	25.998	1676.044	1632.141
510.898	25.642	1674.555	1627.264
511.912	25.661	1672.781	1625.512
512.927	25.800	1671.417	1625.251
513.941	25.780	1669.202	1622.728
514.956	26.062	1668.885	1624.776
515.971	26.003	1667.748	1622.944
516.985	25.846	1666.579	1620.192
518.000	25.728	1665.016	1617.414
519.014	25.525	1663.877	1614.280
520.029	25.422	1662.193	1611.521
521.043	25.271	1661.615	1609.411
522.058	25.542	1660.681	1610.753
523.073	25.666	1658.412	1609.476
524.087	25.199	1658.112	1604.793
525.102	25.329	1656.879	1604.571
526.116	26.010	1656.536	1610.167
527.131	26.256	1655.771	1611.437
528.146	25.957	1654.287	1607.121
529.160	25.779	1652.609	1603.698
530.175	25.884	1651.334	1603.213
531.189	25.779	1649.921	1600.707
532.204	25.720	1648.638	1598.745
533.219	25.901	1647.841	1599.400
534.233	26.232	1647.622	1601.942
535.248	25.873	1645.707	1596.690
536.262	25.289	1643.915	1589.567
537.277	25.436	1642.855	1589.657
538.292	25.766	1640.994	1590.596
539.306	25.764	1638.349	1587.832
540.321	25.339	1636.598	1582.177
541.335	25.029	1636.628	1579.274
542.350	25.305	1635.102	1580.052
543.365	25.699	1632.884	1581.200
544.379	25.551	1631.930	1578.776
545.394	25.354	1631.183	1576.134
546.408	25.590	1629.864	1576.748
547.423	26.245	1630.182	1582.639
548.438	26.417	1629.422	1583.222
549.452	26.047	1627.725	1578.127
550.467	25.847	1626.942	1575.426
551.481	25.761	1624.802	1572.409
552.496	25.659	1623.749	1570.311
553.511	25.362	1622.359	1566.175
554.525	25.315	1620.970	1564.230
555.540	25.345	1620.017	1563.390
556.554	25.225	1618.625	1560.811
557.569	25.410	1616.662	1560.341
558.583	25.458	1615.384	1559.345
559.598	25.533	1614.902	1559.342
560.613	25.325	1614.063	1556.536
561.627	25.391	1611.662	1554.612
562.642	25.172	1609.279	1550.218
563.656	24.640	1607.557	1543.759
564.671	24.472	1606.570	1541.170
565.686	24.695	1604.790	1541.212
566.700	24.776	1604.968	1541.893
567.715	25.006	1602.766	1541.587
568.729	25.231	1602.007	1542.620
569.744	25.333	1600.592	1541.954
570.759	25.209	1599.587	1539.731
571.773	25.029	1599.277	1537.688
572.788	24.811	1596.828	1533.273
573.802	24.928	1595.001	1532.341
574.817	24.739	1593.407	1529.009
575.832	24.334	1591.731	1523.734
576.846	24.611	1591.126	1525.357
577.861	25.056	1590.808	1528.683
578.875	25.141	1589.345	1527.821
579.890	25.024	1588.744	1526.057
580.905	24.935	1587.494	1523.914
581.919	24.892	1587.066	1522.952
582.934	24.858	1586.124	1521.575
583.948	24.706	1583.819	1517.885
584.963	24.870	1582.750	1518.078
585.978	25.174	1582.023	1519.787
586.992	24.937	1580.646	1516.265
588.007	24.600	1579.739	1512.347
589.021	24.728	1578.479	1512.053
590.036	24.695	1577.143	1510.311
591.051	24.553	1576.447	1508.254
592.065	24.512	1573.437	1504.849
593.080	24.457	1571.994	1502.827
594.094	24.760	1570.966	1504.221
595.109	25.165	1570.669	1507.180
596.123	25.620	1570.285	1510.469
597.138	25.437	1568.392	1506.926
598.153	25.026	1566.584	1501.552
599.167	25.037	1565.259	1500.191
600.182	25.041	1563.745	1498.591
601.196	24.905	1563.712	1497.243
602.211	24.981	1562.504	1496.541
603.226	24.732	1559.444	1491.347
604.240	24.617	1558.512	1489.315
605.255	24.539	1557.025	1487.064
606.269	24.522	1556.704	1486.435
607.284	24.577	1556.053	1486.091
608.299	24.663	1554.133	1484.799
609.313	24.800	1553.281	1484.954
610.328	24.674	1551.935	1482.435
611.342	24.591	1549.854	1479.582
612.357	24.366	1548.872	1476.597
613.372	24.304	1547.651	1474.743
614.386	24.313	1547.030	1474.044
615.401	24.208	1546.235	1472.237
616.415	24.213	1544.163	1470.131
617.430	24.016	1542.841	1467.061
618.445	23.817	1541.964	1464.405
619.459	23.941	1541.203	1464.537
620.474	24.387	1540.615	1467.490
621.488	24.763	1540.886	1470.677
622.503	25.163	1538.946	1471.952
623.518	24.378	1536.701	1463.162
624.532	23.945	1534.635	1457.454
625.547	23.898	1533.580	1455.887
626.561	23.759	1531.720	1452.808
627.576	23.498	1531.413	1450.197
628.591	23.926	1530.988	1453.140
629.605	24.457	1530.100	1456.477
630.620	24.425	1529.933	1455.883
631.634	24.905	1528.337	1458.120
632.649	24.661	1527.798	1455.435
633.663	24.178	1525.624	1449.242
634.678	23.769	1523.348	1443.568
635.693	23.492	1521.467	1439.347
636.707	23.375	1519.289	1436.162
637.722	23.424	1517.876	1435.054
638.736	23.604	1517.416	1435.915
639.751	23.717	1517.293	1436.543
640.766	23.878	1516.367	1436.800
641.780	23.807	1514.653	1434.429
642.795	24.071	1513.958	1435.741
643.809	24.054	1513.620	1435.110
644.824	24.129	1512.667	1434.646
645.839	24.447	1511.320	1435.764
646.853	24.137	1510.284	1432.107
647.868	24.194	1508.640	1430.835
648.882	24.243	1507.875	1430.336
649.897	24.248	1506.784	1429.166
650.912	24.190	1504.424	1426.294
651.926	23.978	1502.736	1422.816
652.941	24.037	1502.815	1423.198
653.955	24.019	1501.261	1421.411
654.970	24.113	1500.151	1420.940
655.985	24.074	1498.018	1418.438
656.999	24.024	1496.092	1416.043
658.014	23.730	1494.769	1412.274
659.028	23.539	1494.534	1410.354
660.043	23.978	1493.437	1412.657
661.058	23.992	1492.231	1411.461
662.072	23.919	1491.544	1410.056
663.087	24.089	1490.934	1410.669
664.101	24.217	1490.154	1410.780
665.116	24.108	1488.707	1408.370
666.131	24.054	1487.179	1406.333
667.145	24.087	1486.314	1405.607
668.160	23.800	1484.840	1401.765
669.174	23.616	1482.795	1398.212
670.189	23.751	1482.019	1398.381
671.204	24.041	1481.011	1399.554
672.218	23.832	1480.935	1397.663
673.233	23.756	1479.554	1395.594
674.247	23.602	1476.915	1391.723
675.262	23.651	1475.493	1390.604
676.276	23.534	1475.172	1389.210
677.291	23.640	1475.201	1389.911
678.306	24.034	1474.426	1392.112
679.320	24.018	1472.909	1390.388
680.335	23.690	1471.549	1386.363
681.349	23.550	1470.977	1384.561
682.364	23.385	1469.441	1381.657
683.379	23.411	1467.651	1380.009
684.393	23.340	1466.302	1378.019
685.408	23.308	1465.245	1376.613
686.422	23.209	1464.455	1374.936
687.437	23.096	1463.345	1372.847
688.452	22.904	1462.319	1370.222
689.466	22.977	1461.013	1369.401
690.481	23.026	1460.121	1368.786
691.495	23.220	1459.560	1369.599
692.510	23.825	1459.930	1374.493
693.525	24.415	1457.957	1377.050
694.539	23.864	1456.845	1371.561
695.554	23.242	1454.769	1364.625
696.568	22.917	1453.151	1360.427
697.583	22.954	1451.511	1359.013
698.598	22.858	1451.207	1357.824
699.612	22.871	1450.008	1356.643
700.627	23.018	1449.117	1356.778
701.641	23.298	1447.965	1357.695
702.656	23.437	1446.247	1356.989
703.671	23.139	1445.683	1354.012
704.685	23.190	1445.898	1354.442
705.700	23.311	1444.296	1353.710
706.714	23.350	1443.025	1352.654
707.729	23.458	1442.178	1352.522
708.744	23.590	1440.117	1351.438
709.758	23.449	1438.925	1349.086
710.773	23.286	1438.123	1346.926
711.787	23.357	1436.951	1346.204
712.802	23.514	1435.699	1346.069
713.816	23.422	1434.515	1344.097
714.831	23.390	1433.687	1342.919
715.846	23.282	1431.894	1340.257
716.860	23.002	1431.473	1337.575
717.875	23.230	1430.124	1337.883
718.889	23.351	1429.455	1338.013
719.904	23.319	1428.165	1336.403
720.919	23.343	1426.460	1334.833
721.933	23.056	1425.578	1331.674
722.948	22.878	1425.279	1329.892
723.962	22.865	1423.580	1328.045
724.977	22.708	1422.058	1325.282
725.992	22.834	1421.481	1325.537
727.006	23.164	1419.664	1326.171
728.021	23.050	1417.922	1323.527
729.035	23.017	1416.994	1322.252
730.050	22.909	1417.247	1321.519
731.065	22.936	1416.147	1320.534
732.079	22.869	1414.554	1318.394
733.094	22.960	1412.885	1317.361
734.108	23.218	1412.415	1318.692
735.123	23.081	1410.711	1315.921
736.138	23.119	1409.245	1314.682
737.152	23.108	1407.988	1313.270
738.167	22.748	1407.090	1309.591
739.181	22.862	1405.996	1309.266
740.196	22.874	1404.861	1308.137
741.211	22.780	1404.480	1306.927
742.225	22.822	1403.933	1306.573
743.240	22.718	1402.166	1304.006
744.254	22.810	1399.957	1302.476
745.269	22.689	1399.103	1300.628
746.284	22.435	1398.735	1298.244
747.298	22.632	1398.301	1299.145
748.313	22.898	1397.360	1300.085
749.327	23.289	1397.591	1303.037
750.342	23.758	1397.079	1305.871
751.356	24.290	1396.223	1308.845
752.371	23.967	1394.347	1304.547
753.386	23.125	1392.179	1296.161
754.400	22.717	1391.224	1292.119
755.415	22.854	1389.673	1291.531
756.429	22.890	1388.279	1290.346
757.444	22.952	1386.911	1289.370
758.459	22.592	1386.552	1286.244
759.473	22.516	1385.387	1284.451
760.488	22.585	1383.755	1283.292
761.502	22.698	1382.345	1282.654
762.517	22.726	1381.795	1282.195
763.532	22.959	1380.717	1282.739
764.546	22.904	1380.129	1281.642
765.561	22.893	1379.594	1280.907
766.575	23.094	1379.109	1281.774
767.590	23.324	1377.491	1281.786
768.605	23.099	1375.255	1277.918
769.619	23.014	1374.699	1276.631
770.634	23.048	1373.236	1275.365
771.648	22.624	1371.368	1270.411
772.663	22.538	1370.386	1268.725
773.678	22.452	1370.873	1268.401
774.692	22.652	1369.894	1268.792
775.707	22.724	1368.827	1268.171
776.721	22.618	1367.710	1266.222
777.736	22.584	1366.152	1264.381
778.751	22.392	1365.967	1262.673
779.765	22.557	1364.966	1262.783
780.780	22.492	1364.015	1261.283
781.794	22.566	1362.987	1260.717
782.809	22.510	1361.513	1258.801
783.824	22.556	1360.031	1257.610
784.838	22.649	1359.767	1257.882
785.853	23.179	1359.960	1261.711
786.867	23.035	1358.574	1259.239
787.882	22.621	1357.580	1255.205
788.897	22.523	1356.405	1253.267
789.911	22.347	1355.364	1250.903
790.926	22.394	1353.383	1249.254
791.940	22.066	1351.941	1245.442
792.955	22.352	1351.009	1246.470
793.969	22.155	1349.798	1243.803
794.984	22.374	1348.834	1244.318
795.999	22.420	1348.158	1243.873
797.013	22.367	1346.482	1241.800
798.028	22.224	1345.398	1239.640
799.042	22.336	1344.498	1239.453
800.057	22.279	1343.223	1237.730
801.072	22.338	1341.679	1236.579
802.086	22.378	1340.567	1235.685
803.101	22.421	1339.172	1234.556
804.115	22.436	1338.655	1234.036
805.130	22.298	1337.603	1231.950
806.145	22.276	1336.658	1230.774
807.159	22.484	1335.112	1230.661
808.174	22.505	1334.073	1229.709
809.188	22.527	1333.293	1228.994
810.203	22.476	1331.955	1227.255
811.218	22.767	1330.480	1227.784
812.232	22.731	1329.623	1226.597
813.247	22.804	1328.751	1226.152
814.261	22.732	1328.027	1224.840
815.276	22.579	1326.729	1222.431
816.291	22.207	1326.058	1219.068
817.305	22.173	1324.459	1217.217
818.320	22.277	1322.437	1215.937
819.334	22.310	1321.238	1214.917
820.349	22.353	1319.485	1213.457
821.364	22.359	1318.336	1212.299
822.378	22.290	1316.974	1210.423
823.393	22.153	1315.339	1207.831
824.407	22.110	1315.113	1207.180
825.422	22.129	1315.128	1207.184
826.437	22.181	1313.334	1205.747
827.451	22.216	1311.789	1204.424
828.466	22.566	1311.326	1206.266
829.480	22.973	1310.121	1207.810
830.495	22.536	1307.970	1202.687
831.509	22.248	1306.302	1199.037
832.524	21.987	1306.081	1196.896
833.539	22.147	1304.410	1196.321
834.553	22.107	1302.940	1194.556
835.568	22.206	1301.658	1193.914
836.582	22.156	1300.744	1192.587
837.597	22.171	1299.318	1191.240
838.612	22.114	1298.347	1189.822
839.626	22.226	1297.294	1189.474
840.641	22.479	1296.143	1189.997
841.655	22.530	1295.818	1189.899
842.670	22.651	1296.201	1190.933
843.685	22.748	1295.338	1190.655
844.699	22.815	1293.185	1188.987
845.714	22.528	1290.922	1184.827
846.728	22.335	1290.144	1182.667
847.743	22.228	1289.169	1180.904
848.758	22.191	1287.999	1179.443
849.772	22.124	1286.375	1177.368
850.787	22.117	1285.045	1175.960
851.801	22.176	1283.699	1174.983
852.816	22.107	1283.066	1173.800
853.831	21.974	1281.287	1171.139
854.845	22.127	1279.424	1170.322
855.860	22.130	1277.913	1168.822
856.874	22.109	1276.915	1167.626
857.889	22.416	1276.361	1169.030
858.904	22.656	1275.913	1170.078
859.918	22.973	1275.135	1171.340
860.933	23.375	1273.201	1172.095
861.947	22.945	1272.012	1168.002
862.962	22.473	1270.019	1162.902
863.977	22.482	1268.395	1161.337
864.991	22.099	1268.225	1158.501
866.006	22.039	1268.505	1158.223
867.020	21.993	1266.708	1156.141
868.035	22.124	1264.694	1155.028
869.049	22.030	1263.661	1153.326
870.064	22.066	1263.157	1152.966
871.079	22.138	1262.392	1152.601
872.093	22.027	1262.026	1151.402
873.108	22.239	1261.299	1151.994
874.122	22.207	1260.434	1150.860
875.137	22.502	1259.404	1151.718
876.152	22.524	1258.966	1151.325
877.166	22.488	1256.882	1149.046
878.181	22.310	1255.544	1146.519
879.195	22.130	1254.792	1144.512
880.210	22.000	1253.908	1142.718
881.225	21.993	1252.933	1141.649
882.239	22.150	1251.542	1141.269
883.254	22.006	1251.146	1139.835
884.268	21.923	1249.896	1138.015
885.283	21.996	1248.301	1136.905
886.298	21.984	1246.900	1135.411
887.312	21.967	1245.954	1134.306
888.327	22.130	1244.693	1134.077
889.341	21.981	1243.590	1131.976
890.356	22.037	1243.376	1132.008
891.371	21.866	1243.081	1130.493
892.385	22.157	1241.946	1131.211
893.400	22.083	1240.418	1129.205
894.414	22.333	1239.308	1129.674
895.429	22.463	1239.247	1130.319
896.444	23.151	1238.839	1134.251
897.458	23.913	1237.696	1137.971
898.473	23.307	1236.286	1132.644
899.487	22.639	1234.710	1126.770
900.502	22.372	1232.772	1123.158
901.517	22.142	1231.584	1120.465
902.531	22.099	1230.392	1118.975
903.546	22.164	1229.778	1118.695
904.560	21.982	1229.085	1116.771
905.575	22.107	1228.393	1116.802
906.589	22.345	1227.541	1117.414
907.604	22.198	1226.393	1115.302
