DTS Sentinel unit serial number:	SN409020Multiplexer serial number:	ORYXHardware model number:	OX4-SRSoftware version number:	ORYX F/W v3.00 Oryx Data Collector v3.7.2.0data status	okinstallation	HaddamTimeLapsedifferential loss correction	single-endedforward channel	channel 3reverse channel	N/Adate	2011/06/21time	23:06:17forward acquisition time	30.00reverse acquisition time	0.00gamma	498.7831k internal	0.1753k external	0.1753temperature offset calibration	1.0074default loss term (dB/km)	0.3790temperature slope calibration	1.3530multiplexer offset coefficient	1.0000multiplexer slope coefficient	1.0000fibre end	0.00T internal ref (°C)	23.41T ext. ref 1 (°C)	19.18T ext. ref 2 (°C)	0.05length (m)	temperature (°C)	Stokes	anti-Stokes-747.200	-200.000	-0.067	0.525
-746.185	151.813	-0.326	0.592
-745.171	-45.665	0.294	0.192
-744.156	-76.274	0.410	0.191
-743.142	-160.474	-0.086	0.006
-742.127	-200.000	0.011	0.120
-741.112	216.334	-0.216	0.457
-740.098	45.630	0.307	0.376
-739.083	-35.296	-0.071	0.051
-738.069	-2.336	-0.192	0.178
-737.054	-107.262	0.300	-0.087
-736.039	-100.144	0.106	-0.035
-735.025	800.000	-0.107	0.398
-734.010	800.000	0.076	0.403
-732.996	-148.375	-0.221	0.024
-731.981	6.896	-0.197	0.194
-730.966	-102.565	-0.186	0.058
-729.952	-200.000	0.023	-0.199
-728.937	231.585	-0.161	-0.351
-727.923	-200.000	-0.078	0.457
-726.908	-7.076	-0.188	-0.169
-725.894	76.817	-0.111	-0.156
-724.879	-111.721	-0.387	0.103
-723.864	-200.000	-0.001	-0.416
-722.850	315.429	0.052	0.130
-721.835	-73.465	-0.071	-0.034
-720.821	800.000	-0.130	-0.699
-719.806	-83.392	0.103	0.043
-718.791	266.816	0.018	-0.041
-717.777	-128.391	-0.107	-0.020
-716.762	-119.597	-0.129	-0.029
-715.748	-200.000	0.025	0.432
-714.733	-200.000	0.011	0.545
-713.718	-114.360	-0.183	0.046
-712.704	-5.823	-0.186	0.169
-711.689	39.850	-0.238	-0.283
-710.675	-106.938	0.156	-0.045
-709.660	-153.659	-0.397	-0.036
-708.645	-46.559	0.364	0.236
-707.631	141.075	0.142	0.250
-706.616	-48.823	-0.127	-0.081
-705.602	497.050	0.044	0.136
-704.587	75.959	0.228	0.319
-703.572	-84.277	0.315	0.132
-702.558	306.878	-0.095	0.236
-701.543	134.712	0.179	-0.308
-700.529	132.785	0.126	-0.215
-699.514	-200.000	0.017	0.235
-698.499	-72.103	-0.758	0.371
-697.485	-166.953	0.488	-0.026
-696.470	765.633	0.043	-0.156
-695.456	-86.033	-0.266	0.108
-694.441	-71.946	0.154	0.076
-693.426	422.632	-0.100	-0.287
-692.412	-38.953	-0.206	-0.144
-691.397	-86.573	0.390	-0.157
-690.383	-61.668	0.152	-0.084
-689.368	27.703	0.097	0.109
-688.354	335.660	-0.178	-0.459
-687.339	-12.499	-0.090	-0.078
-686.324	-21.986	0.507	-0.407
-685.310	-43.667	-0.363	-0.241
-684.295	-162.360	0.775	-0.050
-683.281	800.000	0.043	0.199
-682.266	613.122	-0.113	0.378
-681.251	20.104	-0.429	0.458
-680.237	-99.477	0.373	-0.123
-679.222	-106.844	0.426	0.124
-678.208	-149.849	-0.461	0.047
-677.193	8.843	-0.112	-0.112
-676.178	-200.000	0.072	0.431
-675.164	-189.973	-0.229	-0.003
-674.149	-82.847	0.619	0.263
-673.135	-190.034	-0.737	0.011
-672.120	800.000	0.060	0.298
-671.105	-200.000	0.008	0.051
-670.091	-52.670	0.476	-0.290
-669.076	-188.784	0.117	-0.002
-668.062	800.000	0.053	-0.253
-667.047	-75.683	-0.326	-0.153
-666.032	800.000	-0.120	0.612
-665.018	4.374	0.159	0.154
-664.003	-54.977	-0.223	0.132
-662.989	106.084	0.113	0.177
-661.974	-200.000	0.031	0.214
-660.959	60.623	0.119	-0.156
-659.945	-137.352	0.202	0.030
-658.930	126.194	-0.296	-0.495
-657.916	25.758	0.294	-0.324
-656.901	-33.480	0.075	-0.054
-655.886	-200.000	0.002	-0.287
-654.872	-23.910	-0.453	-0.357
-653.857	-103.173	-0.178	-0.055
-652.843	115.025	0.162	-0.262
-651.828	-69.167	-0.200	-0.101
-650.814	-126.688	0.155	-0.030
-649.799	146.248	-0.059	0.104
-648.784	800.000	-0.030	0.144
-647.770	-99.877	-0.394	-0.129
-646.755	-114.318	-0.361	-0.091
-645.741	-125.183	-0.087	0.017
-644.726	-60.994	-0.493	-0.274
-643.711	-141.843	-0.504	-0.066
-642.697	-127.041	-0.153	0.029
-641.682	800.000	-0.070	-0.296
-640.668	-106.687	0.255	-0.074
-639.653	-200.000	-0.024	-0.224
-638.638	-40.651	0.244	-0.167
-637.624	-200.000	0.027	-0.299
-636.609	-138.517	-0.455	-0.065
-635.595	-190.222	-0.308	0.004
-634.580	800.000	-0.093	-0.525
-633.565	-200.000	0.013	0.388
-632.551	-71.562	-0.322	-0.158
-631.536	800.000	0.133	0.559
-630.522	800.000	0.068	-0.310
-629.507	-25.917	-0.257	-0.200
-628.492	-24.189	-0.173	0.136
-627.478	332.728	-0.096	-0.247
-626.463	-21.982	-0.300	0.240
-625.449	-3.737	-0.443	0.406
-624.434	310.697	-0.144	-0.359
-623.419	-120.084	0.151	-0.034
-622.405	33.417	0.095	-0.109
-621.390	-57.256	0.101	-0.058
-620.376	-200.000	-0.052	0.396
-619.361	595.275	-0.191	-0.628
-618.346	-118.885	-0.593	0.137
-617.332	-36.194	-0.342	0.243
-616.317	-4.939	0.237	-0.215
-615.303	-132.301	0.279	0.047
-614.288	-100.171	-0.565	-0.185
-613.273	-128.713	-0.255	-0.047
-612.259	-57.536	0.638	0.368
-611.244	52.842	-0.076	0.096
-610.230	-124.114	-0.155	0.032
-609.215	-35.557	0.258	0.185
-608.201	159.952	0.105	0.194
-607.186	-81.286	-0.274	-0.119
-606.171	-200.000	0.021	-0.162
-605.157	154.533	0.155	-0.281
-604.142	-152.245	0.230	0.022
-603.128	-125.618	-0.383	0.076
-602.113	311.371	-0.218	-0.540
-601.098	-200.000	-0.009	-0.275
-600.084	-93.205	0.179	-0.065
-599.069	-200.000	0.045	-0.436
-598.055	64.882	0.280	0.374
-597.040	54.604	-0.237	0.301
-596.025	-36.687	-0.385	0.273
-595.011	43.556	0.179	-0.215
-593.996	589.550	0.099	0.324
-592.982	-110.418	-0.280	0.076
-591.967	-81.338	0.512	0.221
-590.952	9.184	0.267	0.266
-589.938	800.000	0.025	-0.095
-588.923	66.835	0.285	-0.382
-587.909	109.750	0.037	0.059
-586.894	-175.276	-0.283	-0.010
-585.879	48.010	0.256	0.316
-584.865	64.107	0.202	0.268
-583.850	-65.986	-0.199	-0.105
-582.836	-96.847	-0.593	0.204
-581.821	-107.235	0.240	-0.069
-580.806	800.000	0.077	-0.398
-579.792	-157.598	-0.510	0.040
-578.777	-42.309	0.032	0.022
-577.763	-38.745	-0.151	0.105
-576.748	599.925	0.092	0.301
-575.733	105.892	-0.463	-0.724
-574.719	-105.199	0.309	-0.092
-573.704	-200.000	0.348	0.000
-572.690	-51.228	0.260	-0.160
-571.675	-148.304	-0.316	0.034
-570.661	198.133	0.166	-0.335
-569.646	-23.040	-0.166	-0.131
-568.631	-33.083	-0.182	0.133
-567.617	166.152	0.085	-0.159
-566.602	363.655	-0.064	-0.170
-565.588	366.778	-0.068	0.181
-564.573	119.202	-0.113	0.185
-563.558	-63.532	0.414	-0.223
-562.544	11.336	-0.118	0.119
-561.529	800.000	-0.066	-0.277
-560.515	-34.130	0.179	0.130
-559.500	-2.100	-0.153	0.141
-558.485	-200.000	-0.012	0.196
-557.471	-126.802	0.613	-0.118
-556.456	569.225	-0.022	-0.070
-555.442	80.843	-0.098	-0.140
-554.427	-119.667	-0.378	0.085
-553.412	21.941	0.321	-0.345
-552.398	-200.000	0.053	-0.394
-551.383	39.924	0.344	0.407
-550.369	-200.000	-0.005	0.069
-549.354	190.832	0.134	-0.266
-548.339	83.747	0.344	-0.495
-547.325	-121.580	-0.457	-0.099
-546.310	69.887	-0.151	0.205
-545.296	221.529	-0.261	-0.554
-544.281	518.344	0.036	0.110
-543.266	-101.088	0.347	0.111
-542.252	-200.000	-0.006	0.114
-541.237	-21.738	0.199	-0.159
-540.223	-200.000	0.025	0.261
-539.208	-5.577	-0.078	0.070
-538.193	524.371	-0.082	-0.257
-537.179	-159.093	-0.447	-0.033
-536.164	-186.800	0.313	-0.006
-535.150	-99.592	-0.378	0.124
-534.135	-192.323	0.438	-0.005
-533.121	-83.651	0.107	-0.045
-532.106	158.418	0.274	-0.502
-531.091	78.677	0.164	-0.231
-530.077	163.075	0.090	-0.166
-529.062	-91.891	0.100	0.037
-528.048	-200.000	0.034	0.417
-527.033	-69.174	-0.359	0.181
-526.018	-200.000	0.018	-0.236
-525.004	9.795	0.244	0.243
-523.989	87.762	-0.194	-0.283
-522.975	-97.293	-0.121	-0.041
-521.960	-78.281	-0.128	0.057
-520.945	167.037	-0.110	0.205
-519.931	-14.041	0.098	-0.083
-518.916	-131.268	0.291	0.050
-517.902	69.567	-0.192	-0.261
-516.887	-35.818	0.122	-0.086
-515.872	-30.547	0.202	-0.150
-514.858	-152.624	-0.405	0.038
-513.843	-19.650	-0.524	0.425
-512.829	169.975	0.011	-0.020
-511.814	157.680	0.267	0.487
-510.799	-200.000	-0.013	0.212
-509.785	-89.366	0.138	0.053
-508.770	-89.047	0.149	0.058
-507.756	133.740	0.152	0.260
-506.741	-26.059	-0.343	0.264
-505.726	672.529	0.068	-0.233
-504.712	-134.567	0.169	0.027
-503.697	-3.733	-0.136	-0.124
-502.683	583.988	0.050	0.161
-501.668	-47.999	-0.447	0.283
-500.653	-200.000	-0.032	-0.194
-499.639	-13.566	0.264	0.225
-498.624	11.766	-0.217	-0.219
-497.610	-150.548	-0.168	-0.017
-496.595	-38.414	0.120	-0.083
-495.581	-169.984	-0.235	0.011
-494.566	-113.898	-0.321	-0.081
-493.551	-71.771	0.440	-0.214
-492.537	-98.629	0.332	-0.111
-491.522	4.114	0.144	0.138
-490.508	-139.905	-0.544	-0.075
-489.493	115.990	0.035	0.057
-488.478	-200.000	0.342	-0.000
-487.464	-83.577	-0.228	0.095
-486.449	16.198	-0.171	0.177
-485.435	-122.966	-0.198	-0.042
-484.420	150.927	-0.107	0.192
-483.405	-1.169	-0.023	0.021
-482.391	-52.265	0.380	0.231
-481.376	-100.727	0.169	0.054
-480.362	46.772	-0.166	0.203
-479.347	-133.089	-0.401	-0.066
-478.332	186.116	0.133	-0.261
-477.318	-43.154	-0.209	-0.139
-476.303	-4.568	0.042	0.038
-475.289	4.491	0.203	0.196
-474.274	-42.423	-0.115	-0.077
-473.259	10.413	-0.257	-0.257
-472.245	800.000	0.044	0.197
-471.230	-77.681	0.104	-0.047
-470.216	-98.698	0.660	0.220
-469.201	-77.208	0.164	0.075
-468.186	165.001	-0.162	0.300
-467.172	-71.653	0.679	-0.331
-466.157	-157.719	-0.211	0.016
-465.143	53.296	0.144	-0.181
-464.128	-0.163	-0.116	0.108
-463.113	448.594	0.053	-0.153
-462.099	82.531	-0.180	0.257
-461.084	-60.800	0.180	-0.100
-460.070	117.954	-0.138	0.223
-459.055	-160.440	0.331	-0.023
-458.040	-92.106	-0.342	-0.126
-457.026	-172.221	-0.480	0.020
-456.011	800.000	-0.018	0.095
-454.997	-29.305	-0.132	-0.099
-453.982	94.298	-0.360	0.537
-452.968	-119.545	0.117	-0.026
-451.953	-117.546	0.820	-0.193
-450.938	-121.867	-0.239	0.051
-449.924	-18.201	0.140	0.115
-448.909	52.117	0.199	0.249
-447.895	-168.249	0.260	0.013
-446.880	22.660	0.036	-0.039
-445.865	111.017	0.078	-0.124
-444.851	-9.413	-0.271	0.237
-443.836	-4.071	0.183	-0.166
-442.822	-162.212	0.593	0.038
-441.807	-160.823	0.339	0.023
-440.792	64.918	0.287	-0.380
-439.778	-54.273	-0.232	0.137
-438.763	800.000	-0.039	-0.209
-437.749	794.261	0.058	0.212
-436.734	-79.653	-0.416	-0.183
-435.719	-151.488	0.078	-0.007
-434.705	-134.416	-0.294	-0.047
-433.690	-154.548	-0.150	0.013
-432.676	800.000	-0.033	-0.160
-431.661	-59.198	0.209	-0.118
-430.646	-20.021	-0.233	-0.188
-429.632	4.245	-0.366	-0.351
-428.617	-74.149	0.395	0.186
-427.603	130.669	-0.303	0.511
-426.588	108.141	-0.102	0.160
-425.573	196.376	0.118	0.236
-424.559	800.000	0.100	0.465
-423.544	-16.841	-0.242	0.200
-422.530	14.759	-0.210	-0.215
-421.515	-200.000	0.032	-0.242
-420.500	-86.014	0.227	-0.091
-419.486	-23.093	-0.174	-0.137
-418.471	362.943	0.172	0.454
-417.457	-143.499	0.128	-0.016
-416.442	-140.970	-0.387	-0.051
-415.428	-62.710	-0.043	0.023
-414.413	-44.613	0.306	0.199
-413.398	288.226	-0.130	-0.309
-412.384	86.617	0.048	0.070
-411.369	-38.516	-0.157	-0.108
-410.355	47.135	-0.143	-0.174
-409.340	64.679	-0.316	-0.418
-408.325	-200.000	-0.031	0.306
-407.311	-74.310	0.143	0.067
-406.296	14.006	0.120	0.122
-405.282	-128.093	0.456	0.085
-404.267	25.383	0.135	-0.146
-403.252	800.000	-0.074	0.271
-402.238	-71.352	-0.232	0.113
-401.223	-125.797	-0.067	0.013
-400.209	-166.670	0.303	-0.016
-399.194	-200.000	0.026	-0.221
-398.179	-31.918	0.321	0.235
-397.165	-30.448	-0.424	0.314
-396.150	358.204	0.048	0.125
-395.136	29.919	0.370	0.412
-394.121	65.094	0.133	0.176
-393.106	161.439	-0.132	-0.242
-392.092	24.240	-0.258	-0.279
-391.077	-133.697	0.273	0.044
-390.063	339.092	0.114	-0.293
-389.048	-200.000	0.006	-0.177
-388.033	176.551	-0.094	0.179
-387.019	23.276	0.196	0.211
-386.004	205.316	0.068	-0.139
-384.990	-139.485	0.400	-0.055
-383.975	-200.000	-0.028	-0.292
-382.960	-13.404	-0.055	-0.046
-381.946	294.993	-0.076	-0.184
-380.931	-57.649	0.576	0.329
-379.917	-176.527	0.185	-0.006
-378.902	-76.317	-0.255	0.117
-377.888	10.208	0.152	0.151
-376.873	176.617	0.152	-0.291
-375.858	-16.088	-0.411	-0.341
-374.844	185.972	0.147	-0.286
-373.829	-15.307	0.102	0.085
-372.815	-141.645	0.396	-0.052
-371.800	-150.498	0.168	0.017
-370.785	31.340	-0.453	-0.509
-369.771	-25.494	0.122	0.094
-368.756	-200.000	0.002	0.205
-367.742	-70.000	0.093	-0.046
-366.727	-200.000	-0.077	0.469
-365.712	236.144	0.097	0.209
-364.698	233.734	-0.329	-0.710
-363.683	-100.647	-0.325	0.104
-362.669	-123.226	0.393	0.081
-361.654	800.000	-0.041	0.227
-360.639	12.176	0.236	0.237
-359.625	-64.605	0.269	-0.142
-358.610	-26.561	-0.123	0.094
-357.596	-27.749	-0.300	0.227
-356.581	-3.510	0.131	0.119
-355.566	26.087	-0.165	-0.180
-354.552	302.409	0.085	-0.206
-353.537	-67.362	-0.156	-0.080
-352.523	800.000	-0.031	0.170
-351.508	-147.971	-0.130	0.014
-350.493	64.285	0.473	0.623
-349.479	-45.828	0.289	-0.186
-348.464	106.058	-0.019	0.029
-347.450	51.738	0.107	0.133
-346.435	-45.345	-0.398	-0.257
-345.420	800.000	-0.103	-0.382
-344.406	92.674	-0.270	0.399
-343.391	387.162	0.053	0.144
-342.377	-132.526	0.336	-0.056
-341.362	-169.767	0.619	-0.029
-340.348	5.623	0.047	0.045
-339.333	-118.701	-0.349	0.080
-338.318	-23.585	-0.622	-0.486
-337.304	557.475	-0.044	-0.139
-336.289	7.257	0.075	-0.073
-335.275	-170.028	-0.087	-0.004
-334.260	-113.117	0.502	0.128
-333.245	40.743	0.380	0.447
-332.231	-28.323	0.363	-0.273
-331.216	800.000	-0.023	-0.090
-330.202	-25.778	0.147	0.113
-329.187	-142.776	0.712	-0.089
-328.172	-200.000	-0.013	-0.077
-327.158	-136.000	-0.287	-0.044
-326.143	-126.040	-0.470	0.091
-325.129	-58.109	0.275	0.156
-324.114	140.711	0.241	-0.416
-323.099	-200.000	0.001	0.053
-322.085	800.000	-0.126	-0.465
-321.070	79.268	0.260	-0.365
-320.056	-88.645	-0.395	-0.153
-319.041	-90.577	0.261	0.098
-318.026	-39.282	0.428	-0.293
-317.012	31.630	0.343	0.385
-315.997	-74.601	0.366	-0.171
-314.983	-35.682	0.211	0.149
-313.968	55.215	0.171	-0.216
-312.953	-200.000	0.452	-0.002
-311.939	191.151	0.098	-0.193
-310.924	522.081	0.080	0.246
-309.910	-12.295	-0.218	0.186
-308.895	386.703	-0.046	-0.125
-307.880	-177.339	0.478	0.015
-306.866	800.000	-0.009	0.049
-305.851	-73.432	-0.076	-0.036
-304.837	29.122	-0.393	-0.435
-303.822	255.297	0.195	-0.437
-302.807	-200.000	-0.034	-0.363
-301.793	63.204	-0.175	0.229
-300.778	-17.743	-0.084	0.069
-299.764	-48.789	0.090	0.056
-298.749	61.850	0.090	0.117
-297.735	-39.064	0.071	0.049
-296.720	-163.674	0.563	0.034
-295.705	20.844	0.264	0.279
-294.691	43.395	-0.131	-0.156
-293.676	-130.378	-0.221	0.039
-292.662	800.000	0.124	0.474
-291.647	-148.719	-0.172	-0.018
-290.632	84.252	0.119	-0.170
-289.618	75.825	-0.133	-0.183
-288.603	137.825	-0.145	0.248
-287.589	-96.546	-0.393	-0.134
-286.574	-59.774	0.451	-0.251
-285.559	-126.885	-0.398	-0.076
-284.545	-99.326	0.365	-0.119
-283.530	-25.179	-0.074	-0.057
-282.516	-200.000	-0.000	0.131
-281.501	-42.189	0.049	-0.032
-280.486	158.581	-0.250	0.454
-279.472	-81.540	0.104	0.044
-278.457	316.240	0.137	-0.339
-277.443	-105.141	0.388	-0.115
-276.428	28.851	0.109	0.120
-275.413	-200.000	0.001	0.609
-274.399	-128.649	-0.414	0.076
-273.384	-25.352	-0.429	0.330
-272.370	119.730	0.114	0.184
-271.355	-200.000	0.037	-0.384
-270.340	750.254	-0.075	-0.267
-269.326	-115.042	-0.154	0.038
-268.311	10.003	-0.260	0.257
-267.297	548.946	-0.213	-0.668
-266.282	51.503	-0.293	-0.363
-265.267	-60.663	0.288	0.159
-264.253	126.345	0.201	0.332
-263.238	510.479	-0.148	-0.451
-262.224	800.000	0.040	-0.152
-261.209	-200.000	-0.057	0.353
-260.195	-65.340	0.458	0.239
-259.180	620.592	0.058	-0.190
-258.165	15.502	0.057	0.058
-257.151	-200.000	-0.018	0.303
-256.136	86.613	-0.365	0.525
-255.122	-170.553	0.919	-0.041
-254.107	-116.672	-0.284	0.067
-253.092	101.584	-0.199	-0.303
-252.078	29.854	-0.431	0.478
-251.063	-2.416	0.349	0.318
-250.049	18.943	0.186	-0.194
-249.034	-106.342	0.295	0.085
-248.019	-185.689	-0.204	0.004
-247.005	-133.144	0.194	0.032
-245.990	-49.303	-0.339	0.210
-244.976	800.000	0.177	0.747
-243.961	487.321	0.110	0.328
-242.946	-128.999	0.533	0.096
-241.932	101.872	-0.255	0.387
-240.917	-38.358	-0.354	0.243
-239.903	-126.830	-0.319	0.061
-238.888	-50.923	-0.168	-0.102
-237.873	-103.248	-0.167	-0.051
-236.859	-200.000	-0.426	-0.001
-235.844	77.687	0.268	-0.371
-234.830	-76.987	-0.344	0.156
-233.815	30.832	-0.324	0.361
-232.800	-200.000	0.031	-0.634
-231.786	-68.956	0.275	-0.137
-230.771	-181.234	-0.203	-0.005
-229.757	12.199	0.029	-0.029
-228.742	-107.136	0.109	0.031
-227.727	-107.889	-0.071	-0.020
-226.713	-200.000	-0.049	0.362
-225.698	-103.571	-0.301	0.091
-224.684	-6.851	-0.222	0.196
-223.669	91.290	-0.176	-0.257
-222.655	-56.188	0.064	0.037
-221.640	71.930	-0.040	-0.054
-220.625	269.787	0.067	-0.154
-219.611	-200.000	0.034	-0.286
-218.596	800.000	-0.104	0.470
-217.582	-13.917	-0.295	0.247
-216.567	140.467	0.191	0.328
-215.552	276.483	-0.136	0.315
-214.538	-68.174	0.378	0.191
-213.523	290.757	0.106	0.251
-212.509	-0.531	0.371	-0.341
-211.494	-117.590	0.244	0.057
-210.479	-200.000	-0.044	-0.701
-209.465	-94.092	-0.155	-0.055
-208.450	-170.398	-0.325	-0.015
-207.436	-115.162	0.043	-0.011
-206.421	496.804	-0.138	-0.414
-205.406	-200.000	-0.001	-0.392
-204.392	21.178	0.320	-0.337
-203.377	563.295	0.012	-0.038
-202.363	277.330	0.078	-0.180
-201.348	-126.824	-0.320	-0.061
-200.333	-187.171	-0.334	-0.006
-199.319	800.000	0.029	-0.158
-198.304	576.658	0.041	0.132
-197.290	800.000	0.063	-0.295
-196.275	-87.441	0.096	0.038
-195.260	422.175	-0.150	-0.419
-194.246	17.307	-0.196	-0.202
-193.231	26.190	-0.173	-0.188
-192.217	-137.756	0.486	-0.070
-191.202	-133.487	0.172	-0.028
-190.187	-56.624	0.040	0.023
-189.173	-82.384	0.371	0.156
-188.158	-200.000	0.027	-0.220
-187.144	-77.310	-0.145	-0.065
-186.129	-156.201	-0.059	0.005
-185.114	-32.573	0.056	0.040
-184.100	800.000	-0.085	0.405
-183.085	-100.057	0.374	0.120
-182.071	-121.785	-0.171	-0.036
-181.056	646.520	0.132	0.441
-180.042	-151.608	0.285	0.027
-179.027	49.816	-0.071	-0.087
-178.012	170.322	-0.235	0.437
-176.998	104.356	0.331	-0.507
-175.983	-28.691	0.451	0.336
-174.969	-0.007	-0.260	0.240
-173.954	-191.159	-0.796	-0.010
-172.939	371.339	0.040	0.106
-171.925	800.000	0.051	-0.210
-170.910	-65.489	0.670	0.348
-169.896	800.000	-0.048	-0.267
-168.881	-200.000	0.025	-0.432
-167.866	-1.452	-0.284	-0.259
-166.852	-126.827	-0.337	-0.064
-165.837	384.031	-0.159	-0.426
-164.823	101.821	0.248	0.376
-163.808	-200.000	-0.009	0.457
-162.793	-15.905	-0.206	0.169
-161.779	-200.000	-0.001	-0.105
-160.764	-153.881	-0.673	-0.059
-159.750	401.424	0.059	0.162
-158.735	258.160	-0.098	0.219
-157.720	122.899	-0.247	0.402
-156.706	800.000	0.114	-0.442
-155.691	38.911	0.333	0.386
-154.677	-200.000	0.033	-0.241
-153.662	745.329	-0.077	0.269
-152.647	-95.586	-0.223	0.077
-151.633	-200.000	0.019	0.427
-150.618	800.000	0.059	-0.237
-149.604	221.738	0.315	-0.659
-148.589	-200.000	-0.016	-0.198
-147.574	-1.353	0.234	0.214
-146.560	26.231	-0.102	0.110
-145.545	165.737	-0.070	-0.129
-144.531	-113.032	-0.234	-0.059
-143.516	-25.768	0.143	0.109
-142.502	59.117	0.427	-0.545
-141.487	5.604	0.308	0.295
-140.472	50.624	0.241	0.295
-139.458	800.000	-0.127	-0.514
-138.443	-139.257	-0.140	0.019
-137.429	-0.643	0.113	0.104
-136.414	19.294	-0.204	-0.212
-135.399	146.895	-0.071	-0.125
-134.385	-200.000	-0.026	0.397
-133.370	699.235	0.146	0.500
-132.356	800.000	0.095	0.494
-131.341	-99.504	-0.400	0.129
-130.326	15.637	0.314	0.319
-129.312	196.954	0.112	0.222
-128.297	170.212	-0.175	0.325
-127.283	-200.000	-0.017	-0.130
-126.268	-86.599	-0.281	0.111
-125.253	800.000	0.089	-0.434
-124.239	316.450	-0.064	-0.157
-123.224	745.453	0.104	0.364
-122.210	131.505	-0.113	-0.189
-121.195	-85.549	0.191	0.077
-120.180	-200.000	-0.022	-0.211
-119.166	-200.000	-0.003	-0.043
-118.151	480.630	0.116	0.342
-117.137	-22.019	0.313	0.246
-116.122	-100.284	0.489	0.156
-115.107	-140.764	-0.089	0.012
-114.093	44.965	0.388	0.463
-113.078	-20.290	0.192	-0.152
-112.064	21.902	0.135	-0.143
-111.049	-89.380	-0.541	0.205
-110.034	800.000	-0.041	-0.200
-109.020	13.265	0.238	-0.239
-108.005	-138.414	0.514	-0.073
-106.991	-200.000	-0.014	0.151
-105.976	-79.366	0.362	0.158
-104.962	-36.743	-0.382	-0.265
-103.947	-83.173	-0.325	0.135
-102.932	-121.652	-0.213	0.045
-101.918	-136.328	-0.206	0.031
-100.903	72.058	0.158	-0.213
-99.889	-168.999	-0.247	-0.012
-98.874	101.555	-0.067	0.101
-97.859	-109.091	0.517	0.141
-96.845	134.446	0.136	-0.228
-95.830	5.208	0.141	0.134
-94.816	128.733	0.230	-0.381
-93.801	-59.463	0.137	-0.076
-92.786	-6.278	-0.066	0.058
-91.772	-200.000	-0.005	0.414
-90.757	-78.962	-0.641	0.281
-89.743	-123.410	0.070	-0.014
-88.728	-200.000	-0.002	0.242
-87.713	-71.511	0.168	-0.081
-86.699	-29.409	0.139	-0.103
-85.684	-78.661	0.170	0.075
-84.670	800.000	0.170	0.774
-83.655	-66.393	0.176	-0.090
-82.640	-156.221	0.470	0.038
-81.626	298.396	0.176	0.420
-80.611	-71.965	-0.289	0.138
-79.597	33.352	-0.419	0.470
-78.582	-38.197	0.461	0.315
-77.567	-45.707	0.364	0.232
-76.553	267.312	-0.019	0.044
-75.538	-135.536	-0.205	0.031
-74.524	156.977	-0.041	0.073
-73.509	21.945	-0.272	-0.287
-72.494	370.961	0.188	-0.494
-71.480	79.577	-0.326	0.453
-70.465	95.180	0.370	0.545
-69.451	100.396	0.332	-0.499
-68.436	112.227	-0.065	0.102
-67.422	-200.000	-0.050	-0.380
-66.407	-200.000	0.172	0.001
-65.392	-200.000	0.007	0.434
-64.378	778.304	-0.191	0.679
-63.363	800.000	-0.046	-0.228
-62.349	-132.681	-0.459	0.075
-61.334	29.902	-1.958	-2.156
-60.319	16.052	1.397	1.421
-59.305	322.486	-3.089	-7.631
-58.290	49.808	3.884	4.731
-57.276	378.750	3.973	10.551
-56.261	-200.000	22.161	315.380
-55.246	360.170	1293.281	3357.753
-54.232	52.902	2846.543	3518.236
-53.217	51.860	2663.620	3275.903
-52.203	32.720	2394.554	2675.227
-51.188	28.517	2060.506	2250.220
-50.173	25.279	1945.350	2086.602
-49.159	24.176	1934.610	2062.176
-48.144	23.771	1929.508	2051.959
-47.130	23.730	1926.815	2048.541
-46.115	23.608	1925.829	2045.994
-45.100	23.640	1924.996	2045.401
-44.086	23.777	1922.446	2044.188
-43.071	23.602	1922.087	2041.703
-42.057	23.597	1920.228	2039.592
-41.042	23.604	1918.356	2037.600
-40.027	23.586	1917.379	2036.279
-39.013	23.570	1915.176	2033.669
-37.998	23.563	1914.102	2032.365
-36.984	23.434	1913.422	2030.083
-35.969	23.514	1912.315	2029.751
-34.954	23.456	1911.028	2027.640
-33.940	23.550	1909.200	2026.690
-32.925	23.615	1907.645	2025.705
-31.911	23.503	1907.023	2023.681
-30.896	23.556	1904.539	2021.570
-29.881	23.562	1903.457	2020.416
-28.867	23.452	1902.842	2018.425
-27.852	23.438	1900.810	2016.028
-26.838	23.411	1899.778	2014.544
-25.823	23.432	1898.871	2013.739
-24.809	23.456	1897.761	2012.756
-23.794	23.462	1896.256	2011.152
-22.779	23.377	1894.782	2008.536
-21.765	23.480	1893.281	2008.041
-20.750	23.338	1892.121	2005.113
-19.736	23.399	1891.092	2004.638
-18.721	23.394	1889.079	2002.370
-17.706	23.350	1888.320	2000.990
-16.692	23.446	1886.891	2000.479
-15.677	23.330	1886.173	1998.325
-14.663	23.255	1885.691	1996.884
-13.648	23.187	1883.712	1993.940
-12.633	23.284	1882.198	1993.357
-11.619	23.336	1880.729	1992.312
-10.604	23.299	1879.879	1990.911
-9.590	23.333	1878.412	1989.665
-8.575	23.361	1877.136	1988.550
-7.560	23.246	1876.495	1986.494
-6.546	23.306	1874.938	1985.446
-5.531	23.331	1873.405	1984.022
-4.517	23.207	1873.495	1982.643
-3.502	23.243	1871.516	1980.872
-2.487	23.336	1870.294	1980.542
-1.473	23.429	1866.446	1977.440
-0.458	23.133	1849.023	1955.609
0.556	19.803	1995.930	2058.873
1.571	18.445	2200.027	2251.211
2.586	19.219	2239.526	2301.746
3.600	19.297	2241.733	2304.789
4.615	19.269	2240.471	2302.837
5.629	19.292	2238.402	2300.745
6.644	19.224	2236.220	2297.315
7.659	19.185	2235.152	2295.418
8.673	19.286	2232.624	2293.904
9.688	19.081	2241.621	2300.121
10.702	18.313	2322.778	2372.415
11.717	16.703	2387.305	2414.958
12.731	7.926	2364.793	2266.765
13.746	1.135	2347.411	2153.134
14.761	0.156	2344.481	2136.225
15.775	0.168	2342.027	2133.905
16.790	0.064	2340.207	2130.509
17.804	0.063	2339.025	2129.157
18.819	-0.014	2338.840	2127.640
19.834	0.020	2336.715	2125.940
20.848	0.017	2334.947	2124.033
21.863	0.034	2332.931	2122.186
22.877	0.036	2331.568	2120.716
23.892	-0.026	2330.001	2118.158
24.907	0.011	2326.504	2115.257
25.921	0.036	2325.000	2113.981
26.936	0.081	2322.426	2112.030
27.950	0.055	2319.766	2108.984
28.965	0.113	2317.588	2107.571
29.980	0.002	2317.882	2106.028
30.994	0.131	2314.769	2104.758
32.009	4.301	2328.526	2175.894
33.023	14.012	2354.471	2337.755
34.038	17.767	2361.187	2397.298
35.053	17.902	2358.674	2396.364
36.067	17.882	2356.556	2393.638
37.082	17.891	2354.591	2391.491
38.096	17.918	2352.848	2389.812
39.111	18.118	2350.217	2389.667
40.126	18.232	2348.297	2389.029
41.140	18.230	2346.553	2386.931
42.155	18.329	2344.707	2386.165
43.169	18.234	2342.858	2382.659
44.184	18.232	2339.256	2378.688
45.199	18.052	2339.080	2375.703
46.213	18.253	2337.691	2376.812
47.228	18.225	2337.420	2375.870
48.242	18.294	2334.249	2373.328
49.257	18.407	2332.438	2372.769
50.271	18.547	2329.564	2371.512
51.286	18.187	2328.110	2364.738
52.301	18.104	2325.624	2360.779
53.315	18.778	2328.378	2372.657
54.330	21.350	2335.978	2415.901
55.344	23.053	2335.758	2439.015
56.359	23.269	2332.620	2438.433
57.374	23.434	2332.221	2440.020
58.388	23.487	2329.337	2437.438
59.403	23.136	2325.859	2428.660
60.417	22.780	2322.765	2420.231
61.432	22.985	2320.768	2420.687
62.447	23.172	2319.279	2421.422
63.461	23.390	2317.461	2422.230
64.476	23.533	2315.353	2421.699
65.490	22.976	2315.102	2413.502
66.505	22.387	2309.890	2399.711
67.520	20.416	2302.313	2364.600
68.534	18.583	2295.750	2332.545
69.549	18.332	2289.684	2322.673
70.563	18.184	2288.067	2318.742
71.578	18.174	2286.577	2316.815
72.593	18.255	2285.116	2316.163
73.607	18.264	2284.093	2314.972
74.622	18.352	2281.136	2312.897
75.636	18.188	2278.588	2307.810
76.651	18.212	2275.856	2305.087
77.666	18.091	2274.705	2302.009
78.680	18.086	2272.474	2299.407
79.695	18.057	2270.022	2296.264
80.709	18.032	2268.383	2293.996
81.724	18.088	2266.524	2292.589
82.739	18.081	2264.355	2290.033
83.753	17.997	2263.149	2287.408
84.768	18.057	2260.586	2285.354
85.782	18.034	2259.214	2283.377
86.797	18.073	2257.201	2281.601
87.812	17.860	2256.421	2277.675
88.826	18.035	2254.031	2277.341
89.841	18.090	2250.916	2274.655
90.855	18.110	2247.933	2271.632
91.870	18.165	2247.139	2271.296
92.884	18.013	2246.566	2268.409
93.899	18.052	2245.107	2267.192
94.914	18.605	2247.400	2276.607
95.928	20.702	2253.504	2310.540
96.943	21.542	2251.128	2319.019
97.957	19.577	2241.394	2282.631
98.972	18.219	2237.194	2260.061
99.987	18.214	2234.417	2256.923
101.001	18.279	2230.115	2253.165
102.016	18.094	2229.661	2249.993
103.030	18.156	2226.640	2247.490
104.045	18.049	2224.493	2243.642
105.060	18.049	2222.783	2241.648
106.074	18.040	2220.463	2238.921
107.089	18.136	2219.841	2239.297
108.103	18.167	2219.040	2238.622
109.118	18.165	2217.209	2236.485
110.133	18.236	2215.520	2235.448
111.147	18.159	2212.367	2230.991
112.162	18.182	2210.809	2229.443
113.176	18.264	2209.561	2228.993
114.191	18.175	2207.643	2225.633
115.206	18.274	2205.693	2224.694
116.220	18.151	2204.576	2221.696
117.235	18.169	2202.905	2219.981
118.249	18.220	2200.508	2217.962
119.264	18.131	2198.476	2214.491
120.279	18.050	2197.454	2212.139
121.293	18.163	2194.616	2210.491
122.308	18.208	2193.042	2209.223
123.322	18.042	2192.701	2206.455
124.337	18.573	2192.832	2213.219
125.352	20.887	2199.602	2249.850
126.366	21.429	2198.022	2254.995
127.381	19.202	2188.128	2215.812
128.395	18.155	2183.629	2197.473
129.410	18.041	2180.787	2192.876
130.424	17.978	2179.186	2190.200
131.439	18.167	2177.661	2190.836
132.454	18.098	2177.084	2189.101
133.468	18.183	2174.230	2187.063
134.483	18.276	2173.297	2187.055
135.497	18.289	2172.076	2185.732
136.512	18.379	2168.542	2183.071
137.527	18.238	2167.275	2179.728
138.541	18.109	2165.777	2176.311
139.556	18.125	2165.260	2175.733
140.570	18.086	2163.393	2173.098
141.585	18.234	2161.140	2172.462
142.600	18.118	2161.226	2170.813
143.614	18.106	2158.761	2167.927
144.629	18.057	2156.003	2164.269
145.643	18.036	2154.726	2162.467
146.658	18.122	2153.122	2161.689
147.673	18.084	2151.004	2158.815
148.687	18.043	2149.872	2156.908
149.702	18.135	2149.547	2157.492
150.716	17.973	2148.605	2154.226
151.731	18.048	2146.515	2152.830
152.746	17.948	2146.375	2151.161
153.760	18.743	2148.294	2162.893
154.775	20.992	2154.081	2196.983
155.789	21.794	2152.385	2205.137
156.804	19.681	2142.051	2167.667
157.819	18.270	2135.692	2143.232
158.833	18.074	2132.896	2137.698
159.848	18.128	2131.468	2136.688
160.862	18.158	2130.221	2135.567
161.877	18.203	2129.044	2134.695
162.892	18.126	2128.992	2133.415
163.906	18.216	2126.972	2132.271
164.921	18.228	2124.277	2129.464
165.935	18.215	2122.138	2126.902
166.950	18.339	2121.111	2127.157
167.964	18.289	2119.152	2124.325
168.979	18.313	2117.283	2122.486
169.994	18.240	2115.480	2119.524
171.008	18.142	2113.388	2115.947
172.023	17.996	2112.650	2113.144
173.037	18.014	2111.388	2111.851
174.052	18.180	2109.310	2111.576
175.067	18.294	2108.217	2111.646
176.081	18.102	2106.495	2107.286
177.096	18.148	2104.708	2105.816
178.110	18.177	2104.091	2105.306
179.125	18.184	2102.005	2103.057
180.140	18.132	2100.431	2100.590
181.154	18.112	2100.042	2099.699
182.169	18.211	2098.362	2098.988
183.183	18.923	2100.921	2110.082
184.198	21.486	2107.718	2148.334
185.213	21.999	2104.933	2151.559
186.227	19.328	2095.376	2108.748
187.242	18.278	2091.415	2091.617
188.256	18.157	2089.408	2087.868
189.271	18.059	2087.160	2084.173
190.286	17.987	2086.364	2082.243
191.300	18.134	2083.811	2081.247
192.315	18.082	2082.474	2079.031
193.329	18.276	2081.373	2080.056
194.344	18.320	2080.313	2079.285
195.359	18.545	2079.721	2081.178
196.373	18.285	2077.222	2075.260
197.388	18.191	2074.799	2071.450
198.402	18.270	2072.242	2069.611
199.417	18.164	2070.256	2066.088
200.432	18.248	2069.066	2065.677
201.446	18.222	2067.674	2063.720
202.461	18.112	2065.815	2060.293
203.475	18.017	2064.243	2057.329
204.490	18.099	2061.312	2055.149
205.504	18.142	2059.675	2053.793
206.519	18.109	2058.100	2051.583
207.534	18.121	2055.455	2048.842
208.548	18.155	2055.781	2049.327
209.563	18.283	2053.487	2048.335
210.577	18.158	2053.061	2046.164
211.592	18.206	2052.219	2045.652
212.607	19.422	2056.754	2064.573
213.621	22.097	2064.030	2103.868
214.636	21.767	2057.438	2092.945
215.650	18.935	2048.439	2049.648
216.665	18.235	2044.902	2037.491
217.680	18.316	2042.333	2035.659
218.694	18.217	2041.400	2033.299
219.709	18.017	2039.579	2028.857
220.723	18.193	2039.095	2030.233
221.738	18.253	2036.985	2028.595
222.753	18.169	2035.396	2025.780
223.767	18.130	2033.537	2023.220
224.782	18.227	2032.111	2022.710
225.796	18.363	2031.375	2023.347
226.811	18.364	2029.696	2021.443
227.826	18.281	2027.512	2018.049
228.840	18.157	2026.006	2014.834
229.855	18.310	2024.421	2014.829
230.869	18.319	2022.932	2013.210
231.884	18.202	2021.430	2010.101
232.899	18.157	2020.594	2008.495
233.913	18.146	2019.340	2006.875
234.928	18.143	2017.254	2004.533
235.942	18.109	2015.553	2002.201
236.957	18.190	2013.283	2000.661
237.972	18.183	2012.109	1999.162
238.986	18.013	2011.491	1996.322
240.001	18.001	2009.923	1994.382
241.015	18.073	2009.288	1994.352
242.030	18.701	2011.102	2003.293
243.045	21.016	2016.011	2035.131
244.059	21.357	2013.010	2035.841
245.074	19.014	2004.087	1999.236
246.088	18.258	2000.366	1986.475
247.103	18.259	1999.225	1985.111
248.117	18.160	1997.800	1982.304
249.132	18.084	1994.874	1978.285
250.147	18.229	1993.081	1977.953
251.161	18.047	1992.570	1975.096
252.176	18.327	1991.442	1976.985
253.190	18.611	1989.747	1978.360
254.205	18.742	1987.118	1977.031
255.220	18.442	1986.787	1972.987
256.234	18.423	1986.276	1972.032
257.249	18.445	1984.303	1970.090
258.263	18.365	1982.754	1967.387
259.278	18.436	1982.094	1967.317
260.293	18.412	1980.175	1964.902
261.307	18.260	1978.069	1960.828
262.322	18.090	1976.185	1956.764
263.336	18.088	1974.225	1954.571
264.351	18.098	1972.657	1952.899
265.366	18.056	1971.198	1950.740
266.380	18.061	1970.680	1950.046
267.395	18.148	1969.451	1949.590
268.409	18.095	1967.051	1946.383
269.424	18.036	1966.391	1944.820
270.439	18.077	1964.969	1943.644
271.453	18.928	1966.690	1954.848
272.468	21.302	1971.938	1987.003
273.482	21.575	1968.015	1985.923
274.497	19.104	1959.338	1948.843
275.512	18.122	1956.102	1934.229
276.526	18.081	1953.882	1931.336
277.541	17.987	1951.964	1928.145
278.555	18.030	1950.614	1927.066
279.570	18.073	1948.672	1925.407
280.585	18.131	1947.494	1924.666
281.599	18.091	1945.752	1922.266
282.614	18.103	1945.379	1921.798
283.628	18.353	1944.541	1923.568
284.643	18.425	1943.930	1923.546
285.657	18.466	1943.347	1923.200
286.672	18.618	1940.623	1921.990
287.687	18.574	1938.507	1919.167
288.701	18.484	1937.378	1916.805
289.716	18.581	1935.968	1916.265
290.730	18.492	1934.945	1914.030
291.745	18.605	1932.969	1913.110
292.760	18.481	1932.858	1911.389
293.774	18.326	1931.562	1908.141
294.789	18.235	1929.517	1904.876
295.803	18.172	1926.635	1901.088
296.818	17.998	1926.600	1898.882
297.833	18.066	1924.794	1897.640
298.847	18.098	1923.557	1896.545
299.862	18.064	1922.817	1895.215
300.876	18.800	1923.376	1903.735
301.891	21.512	1928.447	1938.780
302.906	21.933	1926.318	1941.087
303.920	19.209	1918.070	1902.352
304.935	18.301	1914.646	1888.653
305.949	18.175	1911.703	1884.131
306.964	18.063	1910.735	1881.719
307.979	18.242	1908.587	1881.351
308.993	18.313	1907.555	1880.899
310.008	18.534	1906.336	1881.903
311.022	18.613	1905.774	1882.002
312.037	18.530	1904.516	1879.619
313.052	18.603	1903.205	1878.898
314.066	19.008	1902.094	1882.032
315.081	18.785	1900.731	1878.006
316.095	18.590	1899.368	1874.296
317.110	18.423	1897.356	1870.258
318.125	18.248	1894.953	1865.741
319.139	18.346	1894.129	1865.780
320.154	18.480	1892.421	1865.339
321.168	18.331	1891.456	1862.540
322.183	18.319	1889.097	1859.865
323.197	18.151	1887.965	1856.686
324.212	17.973	1886.120	1852.718
325.227	18.032	1884.420	1851.469
326.241	18.002	1882.830	1849.358
327.256	18.037	1881.997	1848.693
328.270	18.048	1881.117	1847.728
329.285	18.016	1880.782	1846.829
330.300	18.876	1883.810	1858.941
331.314	21.808	1888.267	1895.014
332.329	21.590	1884.538	1888.688
333.343	19.025	1876.256	1852.435
334.358	18.106	1872.235	1838.315
335.373	18.120	1870.932	1836.964
336.387	18.006	1868.784	1833.399
337.402	18.044	1866.358	1831.215
338.416	18.115	1865.881	1831.293
339.431	18.140	1865.029	1830.503
340.446	18.165	1863.070	1828.633
341.460	18.275	1862.252	1828.791
342.475	18.393	1861.011	1828.621
343.489	18.525	1859.162	1828.001
344.504	18.556	1857.994	1826.958
345.519	18.482	1856.596	1824.579
346.533	18.770	1855.342	1826.208
347.548	18.972	1855.637	1828.439
348.562	19.723	1855.306	1835.911
349.577	19.687	1853.796	1833.811
350.592	18.898	1851.393	1822.811
351.606	18.713	1850.076	1819.320
352.621	18.671	1847.393	1816.023
353.635	18.329	1845.891	1810.694
354.650	18.097	1845.310	1807.447
355.665	18.088	1842.942	1804.806
356.679	18.106	1841.189	1803.069
357.694	18.156	1839.524	1801.754
358.708	18.042	1838.861	1799.680
359.723	19.253	1842.483	1815.849
360.738	21.981	1846.941	1848.944
361.752	21.485	1842.352	1838.889
362.767	19.130	1834.340	1805.878
363.781	18.322	1831.074	1793.938
364.796	18.134	1829.673	1790.364
365.810	18.101	1828.342	1788.501
366.825	18.098	1827.192	1787.140
367.840	18.147	1826.568	1786.820
368.854	18.308	1825.241	1787.006
369.869	18.468	1824.297	1787.546
370.883	19.029	1824.623	1793.532
371.898	19.449	1823.979	1797.077
372.913	18.861	1821.965	1788.733
373.927	18.876	1820.189	1786.933
374.942	19.008	1819.655	1787.567
375.956	18.879	1817.759	1784.147
376.971	18.662	1814.637	1778.604
377.986	18.352	1813.213	1773.774
379.000	18.366	1811.777	1772.296
380.015	18.521	1810.130	1772.086
381.029	18.365	1808.359	1768.525
382.044	18.100	1807.091	1764.320
383.059	18.151	1805.640	1763.223
384.073	18.087	1804.460	1761.196
385.088	18.132	1803.764	1760.771
386.102	18.143	1802.005	1758.963
387.117	18.094	1800.625	1756.896
388.132	18.063	1800.387	1756.131
389.146	19.036	1803.285	1768.806
390.161	21.650	1807.261	1799.532
391.175	21.524	1800.829	1791.612
392.190	18.984	1793.167	1757.718
393.205	18.339	1789.711	1747.503
394.219	18.202	1788.181	1744.396
395.234	18.126	1786.703	1741.969
396.248	18.206	1785.317	1741.225
397.263	18.208	1783.090	1738.864
398.278	18.264	1781.671	1737.845
399.292	18.224	1781.266	1736.838
400.307	18.247	1780.985	1736.593
401.321	18.239	1779.049	1734.408
402.336	18.406	1777.550	1734.443
403.350	18.368	1776.674	1732.998
404.365	18.594	1776.288	1734.707
405.380	18.878	1774.824	1735.955
406.394	18.909	1773.990	1735.247
407.409	18.904	1771.875	1732.914
408.423	18.835	1771.292	1731.439
409.438	18.817	1769.829	1729.625
410.453	18.697	1768.687	1727.081
411.467	18.468	1767.088	1722.999
412.482	18.260	1765.032	1718.693
413.496	18.107	1763.728	1715.679
414.511	18.191	1761.487	1714.136
415.526	18.198	1759.130	1711.705
416.540	18.000	1757.708	1708.124
417.555	18.121	1757.011	1708.460
418.569	18.158	1757.099	1708.717
419.584	18.379	1755.926	1709.583
420.599	18.304	1756.539	1709.223
421.613	18.079	1755.662	1705.912
422.628	18.057	1753.747	1703.625
423.642	18.024	1751.260	1700.673
424.657	17.999	1749.693	1698.700
425.672	18.145	1747.649	1697.973
426.686	18.130	1746.650	1696.651
427.701	17.981	1745.921	1694.248
428.715	18.081	1744.311	1693.480
429.730	18.278	1743.192	1694.147
430.745	18.221	1741.768	1691.995
431.759	18.151	1741.983	1691.305
432.774	18.439	1742.362	1694.337
433.788	18.846	1742.038	1697.860
434.803	19.011	1741.047	1698.330
435.818	19.061	1740.463	1698.054
436.832	18.958	1739.874	1696.257
437.847	18.111	1733.221	1681.199
438.861	10.247	1711.073	1582.498
439.876	1.895	1695.793	1486.565
440.890	0.317	1692.940	1468.446
441.905	0.184	1691.330	1465.569
442.920	0.141	1689.695	1463.557
443.934	-0.093	1689.125	1460.605
444.949	0.053	1687.714	1460.633
445.963	0.194	1686.061	1460.403
446.978	-0.075	1686.717	1458.168
447.993	-0.023	1685.509	1457.462
449.007	0.215	1682.119	1456.666
450.022	0.263	1680.319	1455.399
451.036	0.017	1679.383	1452.031
452.051	1.193	1684.306	1467.552
453.066	9.521	1701.783	1564.186
454.080	17.377	1713.545	1651.769
455.095	19.085	1716.587	1671.188
456.109	19.447	1717.250	1675.167
457.124	19.656	1715.639	1675.428
458.139	19.737	1715.688	1676.069
459.153	19.888	1714.562	1676.233
460.168	19.823	1712.980	1673.854
461.182	19.899	1710.959	1672.424
462.197	19.911	1709.275	1670.689
463.212	19.629	1708.700	1667.193
464.226	19.755	1706.848	1666.406
465.241	19.927	1705.703	1666.757
466.255	19.908	1705.134	1665.817
467.270	19.958	1704.301	1665.289
468.285	19.886	1702.452	1662.589
469.299	19.728	1700.847	1659.296
470.314	19.849	1699.156	1658.608
471.328	19.841	1697.585	1656.807
472.343	20.007	1695.860	1656.517
473.358	20.089	1695.183	1656.441
474.372	20.022	1693.857	1654.310
475.387	19.813	1692.443	1650.725
476.401	19.682	1690.592	1647.471
477.416	19.558	1690.280	1645.778
478.430	19.659	1688.837	1645.140
479.445	19.610	1687.635	1643.301
480.460	19.487	1686.454	1640.785
481.474	19.615	1685.479	1640.860
482.489	19.929	1684.396	1642.602
483.503	20.048	1683.306	1642.483
484.518	19.943	1682.116	1640.126
485.533	19.946	1680.309	1638.190
486.547	19.935	1678.737	1636.360
487.562	19.989	1678.705	1636.647
488.576	20.065	1676.400	1634.925
489.591	20.069	1675.427	1633.820
490.606	20.000	1673.300	1630.894
491.620	20.016	1672.151	1629.727
492.635	20.236	1670.749	1630.245
493.649	20.376	1669.916	1630.563
494.664	20.000	1668.620	1625.557
495.679	19.615	1666.932	1620.087
496.693	19.814	1665.722	1620.590
497.708	19.937	1664.917	1620.767
498.722	20.247	1664.297	1622.891
499.737	20.317	1662.152	1621.263
500.752	20.127	1659.996	1617.183
501.766	19.889	1659.409	1614.188
502.781	20.079	1657.474	1613.886
503.795	20.212	1656.038	1613.538
504.810	20.119	1655.148	1611.606
505.825	20.355	1654.815	1613.296
506.839	20.274	1653.061	1610.639
507.854	20.145	1652.398	1608.599
508.868	20.190	1650.655	1607.127
509.883	20.301	1649.865	1607.203
510.898	20.493	1648.241	1607.208
511.912	20.308	1646.630	1603.733
512.927	20.068	1645.018	1599.744
513.941	20.054	1643.488	1597.928
514.956	19.852	1642.402	1594.808
515.971	19.939	1640.109	1593.197
516.985	19.901	1639.754	1592.315
518.000	19.810	1640.525	1592.028
519.014	20.235	1639.332	1594.604
520.029	20.288	1637.592	1593.213
521.043	20.339	1635.997	1591.946
522.058	20.328	1634.685	1590.372
523.073	20.430	1634.492	1590.935
524.087	20.556	1633.988	1591.410
525.102	20.666	1631.224	1589.539
526.116	20.360	1629.859	1585.215
527.131	20.357	1628.410	1583.584
528.146	20.528	1628.361	1584.915
529.160	20.630	1627.349	1584.674
530.175	20.592	1626.023	1582.847
531.189	20.678	1625.383	1582.821
532.204	20.569	1623.834	1580.128
533.219	20.462	1621.886	1577.066
534.233	20.174	1621.232	1573.618
535.248	20.508	1620.632	1575.887
536.262	20.779	1619.770	1577.331
537.277	20.612	1618.364	1574.254
538.292	20.300	1615.881	1568.810
539.306	20.117	1615.333	1566.431
540.321	20.183	1613.136	1564.714
541.335	20.140	1611.756	1562.799
542.350	20.275	1610.874	1562.979
543.365	20.514	1609.346	1563.470
544.379	20.523	1608.277	1562.321
545.394	20.760	1606.963	1563.000
546.408	20.321	1605.567	1557.492
547.423	20.250	1603.500	1554.667
548.438	20.054	1602.945	1552.175
549.452	20.557	1601.111	1554.735
550.467	20.595	1600.854	1554.643
551.481	20.447	1599.843	1552.142
552.496	20.767	1599.277	1554.282
553.511	20.942	1598.291	1554.711
554.525	20.852	1597.558	1553.000
555.540	20.778	1597.085	1551.691
556.554	20.818	1595.915	1550.733
557.569	20.958	1593.423	1549.375
558.583	20.474	1592.862	1544.317
559.598	20.615	1591.074	1543.663
560.613	20.591	1590.296	1542.503
561.627	20.695	1589.277	1542.258
562.642	20.796	1588.104	1541.834
563.656	21.090	1586.713	1542.916
564.671	21.105	1585.571	1541.754
565.686	20.822	1585.423	1538.910
566.700	20.621	1583.537	1535.114
567.715	20.519	1581.062	1531.627
568.729	20.287	1579.134	1527.520
569.744	20.106	1577.234	1523.905
570.759	20.260	1575.743	1523.634
571.773	20.315	1575.930	1524.123
572.788	20.475	1574.741	1524.197
573.802	20.677	1572.893	1524.008
574.817	20.833	1572.074	1524.409
575.832	20.871	1571.490	1523.987
576.846	20.994	1570.000	1523.442
577.861	20.887	1568.550	1520.915
578.875	21.007	1568.090	1521.339
579.890	21.186	1567.658	1522.304
580.905	21.124	1566.251	1520.218
581.919	21.177	1566.325	1520.572
582.934	21.365	1565.190	1520.929
583.948	21.286	1564.137	1519.039
584.963	21.221	1561.480	1515.708
585.978	20.953	1560.557	1512.290
586.992	20.958	1560.016	1511.632
588.007	21.047	1559.642	1511.863
589.021	20.536	1557.314	1504.978
590.036	20.263	1555.578	1500.744
591.051	20.305	1554.524	1499.911
592.065	20.833	1553.231	1503.069
593.080	21.094	1551.424	1503.398
594.094	21.135	1549.870	1502.068
595.109	20.874	1547.245	1497.091
596.123	20.557	1546.431	1493.387
597.138	20.887	1546.891	1496.505
598.153	21.034	1545.347	1496.101
599.167	21.037	1544.561	1495.183
600.182	21.022	1544.033	1494.363
601.196	21.115	1542.741	1493.732
602.211	21.074	1541.870	1492.360
603.226	21.272	1540.873	1492.922
604.240	21.380	1538.899	1491.755
605.255	21.482	1538.410	1491.975
606.269	21.293	1537.650	1489.443
607.284	21.242	1536.417	1487.635
608.299	21.281	1533.948	1485.396
609.313	21.110	1533.390	1483.215
610.328	21.214	1531.866	1482.452
611.342	21.314	1531.074	1482.363
612.357	21.330	1530.448	1481.715
613.372	21.443	1529.102	1481.197
614.386	21.217	1527.675	1477.717
615.401	21.423	1527.110	1478.744
616.415	21.448	1526.537	1478.224
617.430	21.547	1525.690	1478.065
618.445	21.660	1523.706	1476.923
619.459	21.501	1522.463	1474.198
620.474	21.164	1520.767	1469.527
621.488	20.687	1518.533	1463.163
622.503	20.364	1517.845	1459.598
623.518	20.871	1518.301	1464.138
624.532	21.222	1517.940	1466.586
625.547	21.325	1516.787	1466.165
626.561	21.620	1516.121	1467.828
627.576	21.752	1514.797	1467.482
628.591	21.015	1512.916	1459.291
629.605	20.866	1510.828	1455.845
630.620	20.710	1509.054	1452.656
631.634	20.346	1507.682	1448.108
632.649	20.525	1506.622	1448.416
633.663	20.887	1506.589	1451.245
634.678	21.242	1505.950	1453.422
635.693	21.479	1505.126	1454.435
636.707	21.613	1504.070	1454.360
637.722	21.986	1503.126	1456.383
638.736	21.920	1502.358	1454.916
639.751	21.693	1501.140	1451.674
640.766	21.876	1499.160	1451.103
641.780	21.870	1498.031	1449.787
642.795	21.675	1497.459	1447.443
643.809	21.702	1496.524	1446.589
644.824	21.918	1495.128	1446.856
645.839	21.692	1494.368	1444.073
646.853	21.821	1493.089	1443.738
647.868	21.897	1491.280	1442.437
648.882	21.803	1489.938	1440.192
649.897	21.554	1489.114	1437.168
650.912	21.414	1488.414	1435.170
651.926	21.396	1486.912	1433.399
652.941	21.114	1484.593	1428.671
653.955	20.973	1482.058	1424.905
654.970	20.593	1480.897	1420.494
655.985	20.557	1479.441	1418.635
656.999	20.804	1477.905	1419.013
658.014	20.957	1477.260	1419.477
659.028	21.162	1477.078	1420.808
660.043	21.386	1476.362	1421.785
661.058	21.503	1475.591	1421.830
662.072	21.634	1474.448	1421.625
663.087	21.567	1473.311	1419.808
664.101	21.637	1471.942	1418.896
665.116	21.815	1470.897	1419.162
666.131	21.849	1471.008	1419.381
667.145	21.773	1470.150	1417.761
668.160	21.909	1469.228	1417.807
669.174	22.076	1467.748	1417.569
670.189	21.938	1466.500	1415.072
671.204	21.857	1464.989	1412.791
672.218	21.882	1464.253	1412.114
673.233	21.944	1463.943	1412.144
674.247	22.217	1462.741	1413.023
675.262	22.225	1461.616	1411.830
676.276	22.153	1460.745	1410.236
677.291	22.097	1458.702	1407.651
678.306	21.805	1457.259	1403.736
679.320	22.047	1456.115	1404.415
680.335	22.130	1456.566	1405.344
681.349	22.080	1455.761	1403.998
682.364	22.183	1454.601	1403.540
683.379	21.944	1453.426	1400.318
684.393	22.014	1452.027	1399.365
685.408	22.125	1451.359	1399.441
686.422	22.031	1449.908	1397.127
687.437	22.134	1449.359	1397.251
688.452	22.225	1448.577	1397.058
689.466	22.148	1446.968	1394.725
690.481	21.935	1444.943	1390.906
691.495	21.621	1443.598	1386.950
692.510	20.969	1441.200	1379.297
693.525	20.628	1439.910	1375.183
694.539	20.990	1439.438	1377.447
695.554	21.640	1440.144	1383.115
696.568	22.184	1439.883	1387.018
697.583	22.253	1438.974	1386.526
698.598	22.309	1437.773	1385.640
699.612	22.320	1436.899	1384.724
700.627	22.443	1434.938	1383.636
701.641	22.380	1433.961	1382.034
702.656	22.375	1432.628	1380.546
703.671	22.435	1432.848	1381.064
704.685	22.459	1432.376	1380.629
705.700	22.317	1430.955	1377.981
706.714	22.158	1429.155	1374.834
707.729	21.975	1427.793	1371.920
708.744	22.077	1425.614	1370.464
709.758	21.789	1424.066	1366.554
710.773	21.501	1422.230	1362.374
711.787	21.285	1421.024	1359.366
712.802	21.448	1419.902	1359.406
713.816	21.815	1420.280	1362.472
714.831	22.024	1419.328	1363.026
715.846	22.206	1417.844	1362.856
716.860	22.397	1416.971	1363.339
717.875	22.293	1416.148	1361.574
718.889	22.106	1415.932	1359.747
719.904	22.420	1413.761	1359.939
720.919	22.567	1413.151	1360.335
721.933	22.541	1413.024	1359.843
722.948	22.641	1411.582	1359.066
723.962	22.704	1409.926	1357.797
724.977	22.518	1409.460	1355.748
725.992	22.667	1408.383	1355.706
727.006	22.494	1407.195	1353.062
728.021	22.682	1405.971	1353.176
729.035	22.704	1404.792	1352.049
730.050	22.587	1404.068	1350.284
731.065	22.608	1402.561	1348.838
732.079	22.648	1402.270	1348.706
733.094	22.596	1400.190	1346.139
734.108	22.380	1399.204	1343.375
735.123	22.423	1397.320	1341.733
736.138	22.504	1396.798	1341.694
737.152	22.436	1396.550	1340.772
738.167	22.796	1394.903	1341.788
739.181	22.816	1393.899	1340.810
740.196	22.857	1393.139	1340.233
741.211	22.698	1392.227	1337.979
742.225	22.766	1391.471	1337.614
743.240	22.627	1390.238	1335.209
744.254	22.687	1388.676	1334.010
745.269	22.632	1387.966	1332.750
746.284	22.559	1387.213	1331.308
747.298	22.298	1386.082	1328.081
748.313	21.920	1383.869	1322.944
749.327	21.387	1382.238	1317.188
750.342	21.084	1381.000	1313.559
751.356	20.925	1379.202	1310.490
752.371	20.947	1378.667	1309.991
753.386	21.937	1379.052	1317.675
754.400	22.535	1378.803	1321.793
755.415	22.785	1378.212	1322.948
756.429	22.740	1377.059	1321.342
757.444	22.657	1375.905	1319.456
758.459	22.754	1375.240	1319.391
759.473	23.101	1373.796	1320.448
760.488	22.960	1372.634	1318.115
761.502	22.894	1371.916	1316.775
762.517	22.670	1370.746	1313.820
763.532	22.419	1368.764	1309.886
764.546	22.233	1366.944	1306.595
765.561	21.823	1365.688	1302.177
766.575	21.433	1363.733	1297.256
767.590	21.271	1362.568	1294.785
768.605	21.745	1362.756	1298.338
769.619	22.131	1362.117	1300.447
770.634	22.389	1361.162	1301.291
771.648	22.731	1361.079	1303.602
772.663	22.720	1360.390	1302.701
773.678	22.994	1359.354	1303.590
774.692	22.826	1359.142	1301.986
775.707	22.946	1358.201	1301.815
776.721	23.013	1356.909	1300.917
777.736	22.970	1355.603	1299.191
778.751	22.900	1355.771	1298.677
779.765	22.921	1354.282	1297.252
780.780	22.886	1353.151	1295.757
781.794	22.863	1352.766	1295.057
782.809	22.820	1350.991	1292.889
783.824	22.698	1349.823	1290.723
784.838	22.272	1346.934	1284.676
785.853	21.430	1345.916	1277.370
786.867	21.583	1345.955	1278.380
787.882	22.052	1345.329	1281.071
788.897	22.093	1345.466	1281.347
789.911	22.483	1344.187	1282.833
790.926	22.715	1342.533	1282.800
791.940	22.798	1341.304	1282.077
792.955	22.775	1340.853	1281.322
793.969	22.923	1340.089	1281.521
794.984	22.822	1338.960	1279.549
795.999	22.960	1338.548	1280.009
797.013	22.981	1336.455	1278.003
798.028	23.067	1335.225	1277.303
799.042	22.910	1335.369	1276.144
800.057	23.133	1334.388	1276.671
801.072	23.104	1332.458	1274.464
802.086	22.968	1331.078	1272.005
803.101	23.199	1330.461	1272.937
804.115	23.272	1329.315	1272.212
805.130	23.133	1328.690	1270.458
806.145	23.162	1326.961	1268.862
807.159	23.049	1325.296	1266.307
808.174	22.790	1324.145	1263.194
809.188	22.841	1322.541	1261.875
810.203	22.566	1320.994	1258.280
811.218	22.222	1318.813	1253.584
812.232	21.872	1317.450	1249.631
813.247	21.708	1316.273	1247.195
814.261	22.160	1316.489	1250.479
815.276	22.613	1316.592	1253.672
816.291	23.050	1315.167	1255.284
817.305	23.187	1314.702	1255.663
818.320	23.364	1313.277	1255.413
819.334	23.186	1312.172	1252.945
820.349	23.146	1311.360	1251.733
821.364	23.249	1309.839	1250.862
822.378	23.264	1308.342	1249.392
823.393	23.166	1306.879	1247.150
824.407	23.060	1306.569	1245.952
825.422	23.131	1305.711	1245.490
826.437	23.084	1303.847	1243.229
827.451	22.839	1301.465	1239.080
828.466	22.141	1299.584	1232.223
829.480	21.693	1297.653	1227.088
830.495	22.123	1296.441	1228.819
831.509	22.520	1296.717	1231.724
832.524	22.706	1296.635	1232.807
833.539	22.925	1295.776	1233.382
834.553	23.188	1294.616	1233.974
835.568	23.227	1293.456	1232.989
836.582	23.268	1291.942	1231.688
837.597	23.314	1291.069	1231.033
838.612	23.287	1288.720	1228.454
839.626	23.058	1287.882	1225.909
840.641	22.856	1286.656	1223.192
841.655	22.564	1285.246	1219.672
842.670	21.824	1283.954	1213.160
843.685	21.414	1282.508	1208.798
844.699	22.069	1282.430	1213.130
845.714	22.665	1281.263	1216.016
846.728	22.886	1281.213	1217.351
847.743	23.018	1280.237	1217.195
848.758	23.269	1279.186	1217.779
849.772	23.222	1278.155	1216.328
850.787	23.224	1277.280	1215.366
851.801	23.267	1276.129	1214.422
852.816	23.145	1274.414	1211.806
853.831	23.042	1272.993	1209.600
854.845	23.032	1270.911	1207.406
855.860	22.987	1269.360	1205.481
856.874	22.779	1267.915	1202.540
857.889	22.430	1266.292	1198.471
858.904	22.068	1264.108	1193.788
859.918	21.743	1262.271	1189.689
860.933	21.557	1260.995	1187.080
861.947	21.973	1261.105	1189.878
862.962	22.599	1259.843	1192.805
863.977	22.456	1259.609	1191.464
864.991	22.709	1259.824	1193.248
866.006	22.776	1259.283	1193.046
867.020	23.026	1257.701	1193.101
868.035	23.238	1256.540	1193.290
869.049	23.180	1256.258	1192.491
870.064	23.289	1255.194	1192.073
871.079	23.151	1254.626	1190.457
872.093	23.057	1254.147	1189.229
873.108	23.224	1252.819	1188.955
874.122	22.797	1250.906	1184.119
875.137	22.343	1249.787	1179.858
876.152	22.366	1248.622	1178.770
877.166	22.421	1247.726	1178.153
878.181	22.663	1246.780	1178.744
879.195	23.071	1246.178	1180.776
880.210	23.181	1245.634	1180.853
881.225	23.272	1244.382	1180.135
882.239	23.536	1243.136	1180.581
883.254	23.333	1242.904	1178.858
884.268	23.377	1242.067	1178.218
885.283	23.363	1241.066	1177.034
886.298	23.176	1239.471	1174.131
887.312	23.319	1238.124	1173.673
888.327	23.323	1237.103	1172.592
889.341	23.435	1235.734	1171.897
890.356	23.174	1235.469	1169.769
891.371	22.996	1235.562	1168.533
892.385	23.021	1234.156	1167.229
893.400	22.885	1232.854	1164.960
894.414	22.960	1230.598	1163.185
895.429	22.487	1228.788	1158.208
896.444	21.744	1226.170	1150.704
897.458	21.272	1225.218	1146.555
898.473	21.744	1224.915	1149.250
899.487	22.394	1225.533	1153.973
900.502	22.715	1224.568	1155.039
901.517	23.098	1223.806	1156.703
902.531	23.042	1223.488	1155.894
903.546	23.255	1222.994	1156.687
904.560	23.376	1221.768	1156.181
905.575	23.281	1221.004	1154.700
906.589	23.213	1220.284	1153.437
907.604	23.212	1219.122	1152.194
