DTS Sentinel unit serial number:	SN409020Multiplexer serial number:	ORYXHardware model number:	OX4-SRSoftware version number:	ORYX F/W v3.00 Oryx Data Collector v3.7.2.0data status	okinstallation	HaddamTimeLapsedifferential loss correction	single-endedforward channel	channel 3reverse channel	N/Adate	2011/06/22time	01:26:17forward acquisition time	30.00reverse acquisition time	0.00gamma	498.7831k internal	0.1751k external	0.1751temperature offset calibration	1.0074default loss term (dB/km)	0.3790temperature slope calibration	1.3530multiplexer offset coefficient	1.0000multiplexer slope coefficient	1.0000fibre end	0.00T internal ref (°C)	22.50T ext. ref 1 (°C)	17.74T ext. ref 2 (°C)	0.01length (m)	temperature (°C)	Stokes	anti-Stokes-747.200	-200.000	0.056	-0.610
-746.185	800.000	0.121	0.659
-745.171	557.933	0.097	-0.313
-744.156	800.000	0.080	0.398
-743.142	-139.801	0.106	0.015
-742.127	-15.937	0.597	0.504
-741.112	0.484	-0.548	-0.519
-740.098	-116.761	0.271	-0.065
-739.083	91.665	0.486	-0.726
-738.069	-200.000	-0.042	0.350
-737.054	-57.453	0.290	-0.169
-736.039	-94.340	-0.504	-0.182
-735.025	-177.960	0.518	0.016
-734.010	9.228	0.030	-0.030
-732.996	-200.000	-0.076	-0.515
-731.981	190.207	0.088	-0.176
-730.966	-24.620	0.267	-0.211
-729.952	800.000	0.041	-0.159
-728.937	462.466	0.148	0.440
-727.923	36.297	-0.157	-0.184
-726.908	-12.919	-0.448	-0.386
-725.894	23.593	0.235	-0.257
-724.879	-200.000	0.041	0.610
-723.864	-34.265	0.263	0.191
-722.850	-200.000	-0.015	-0.114
-721.835	86.396	-0.236	0.345
-720.821	-96.375	0.522	-0.182
-719.806	-125.401	0.203	0.041
-718.791	212.224	0.109	-0.228
-717.777	87.355	0.311	-0.457
-716.762	-46.698	-0.238	0.154
-715.748	-98.594	0.080	0.027
-714.733	17.590	-0.183	0.193
-713.718	-98.100	-0.534	-0.181
-712.704	23.879	0.159	0.174
-711.689	-40.532	0.359	-0.246
-710.675	800.000	0.088	-0.430
-709.660	-112.824	-0.493	-0.129
-708.645	258.651	0.133	-0.304
-707.631	-144.424	0.206	-0.025
-706.616	26.794	-0.093	0.103
-705.602	-118.718	0.434	-0.101
-704.587	-45.615	-0.271	-0.178
-703.572	-44.948	0.120	-0.079
-702.558	197.794	-0.021	0.043
-701.543	-104.919	-0.327	-0.099
-700.529	25.651	0.356	-0.393
-699.514	-180.079	-0.331	-0.009
-698.499	-108.837	-0.413	0.116
-697.485	-56.774	-0.047	-0.027
-696.470	65.715	-0.070	-0.094
-695.456	268.741	-0.122	-0.285
-694.441	-136.906	0.286	0.043
-693.426	-126.225	0.133	0.026
-692.412	-41.475	0.319	-0.217
-691.397	598.160	0.167	0.552
-690.383	800.000	0.047	0.260
-689.368	-111.505	0.187	0.050
-688.354	142.196	-0.086	0.151
-687.339	0.447	0.166	0.157
-686.324	-86.887	-0.214	0.086
-685.310	-188.237	0.166	0.003
-684.295	191.281	-0.037	0.075
-683.281	358.663	-0.080	0.212
-682.266	738.784	-0.087	-0.311
-681.251	61.687	0.084	-0.110
-680.237	-106.715	-0.459	-0.134
-679.222	465.037	0.033	-0.098
-678.208	-45.563	-0.400	-0.261
-677.193	-200.000	-0.072	0.502
-676.178	-146.042	0.336	-0.039
-675.164	81.734	0.138	0.197
-674.149	-200.000	-0.028	0.237
-673.135	-46.479	0.105	0.068
-672.120	-13.461	0.275	0.236
-671.105	-54.770	0.244	0.146
-670.091	216.006	-0.044	-0.092
-669.076	-80.439	0.432	0.190
-668.062	-65.737	-0.058	-0.031
-667.047	-39.201	-0.334	-0.231
-666.032	-41.127	0.109	-0.075
-665.018	-170.362	0.460	0.021
-664.003	800.000	-0.101	0.498
-662.989	-61.056	0.290	-0.162
-661.974	9.481	-0.233	0.233
-660.959	270.605	0.136	-0.319
-659.945	800.000	-0.038	0.218
-658.930	-200.000	-0.054	0.320
-657.916	-86.748	0.155	0.062
-656.901	-200.000	-0.084	0.557
-655.886	-7.823	-0.321	-0.286
-654.872	800.000	0.040	-0.197
-653.857	-32.605	-0.332	0.244
-652.843	-162.265	0.538	-0.035
-651.828	-200.000	-0.090	0.568
-650.814	-114.185	-0.418	-0.106
-649.799	-75.557	-0.271	0.127
-648.784	-200.000	-0.022	0.378
-647.770	23.847	0.203	0.221
-646.755	-92.884	-0.418	-0.154
-645.741	-139.979	-0.370	-0.051
-644.726	547.378	0.094	-0.299
-643.711	800.000	0.057	-0.328
-642.697	266.293	-0.177	0.411
-641.682	61.428	0.108	0.142
-640.668	-21.512	0.132	-0.107
-639.653	77.044	0.184	-0.258
-638.638	103.039	0.065	-0.101
-637.624	-131.805	-0.203	-0.035
-636.609	800.000	-0.064	0.291
-635.595	90.712	-0.058	0.087
-634.580	-130.114	0.416	0.074
-633.565	738.757	-0.057	0.203
-632.551	675.649	0.064	-0.221
-631.536	-138.661	-0.360	0.052
-630.522	-56.292	-0.038	0.022
-629.507	37.075	0.266	0.311
-628.492	-200.000	-0.018	-0.247
-627.478	-200.000	0.067	-0.397
-626.463	800.000	0.047	-0.260
-625.449	-22.557	0.263	-0.210
-624.434	-2.460	0.197	0.182
-623.419	-200.000	-0.009	-0.309
-622.405	-71.601	-0.302	-0.149
-621.390	-88.894	-0.171	-0.067
-620.376	171.617	-0.163	-0.310
-619.361	-108.249	-0.530	-0.150
-618.346	-43.791	-0.186	-0.124
-617.332	-124.946	-0.442	-0.089
-616.317	-1.928	-0.045	0.042
-615.303	-200.000	-0.010	0.126
-614.288	-168.681	-0.098	-0.005
-613.273	19.774	-0.308	0.328
-612.259	-109.081	0.311	0.087
-611.244	-106.088	-0.443	0.131
-610.230	-6.286	-0.480	0.433
-609.215	-200.000	-0.001	0.564
-608.201	-45.949	0.256	0.166
-607.186	-20.720	-0.199	-0.161
-606.171	272.574	-0.083	0.195
-605.157	93.636	0.249	-0.373
-604.142	-97.759	-0.378	-0.129
-603.128	-112.549	0.175	0.046
-602.113	-41.478	-0.159	0.108
-601.098	-114.842	0.660	-0.165
-600.084	-76.143	-0.558	-0.259
-599.069	-88.913	0.119	-0.046
-598.055	-200.000	-0.003	0.206
-597.040	32.621	-0.153	-0.175
-596.025	-14.753	-0.260	-0.220
-595.011	-134.821	0.289	0.046
-593.996	800.000	-0.061	0.228
-592.982	576.691	-0.051	-0.164
-591.967	-200.000	-0.032	0.238
-590.952	19.064	-0.269	0.285
-589.938	-95.760	-0.046	0.016
-588.923	187.814	0.131	-0.258
-587.909	800.000	-0.030	0.130
-586.894	49.653	-0.129	0.161
-585.879	1.603	-0.071	-0.067
-584.865	65.252	0.343	0.459
-583.850	-47.807	-0.267	-0.170
-582.836	-138.300	0.147	-0.021
-581.821	-200.000	-0.057	-0.367
-580.806	-61.930	0.150	0.083
-579.792	-97.473	0.185	0.063
-578.777	11.945	0.149	-0.151
-577.763	-134.838	-0.563	0.089
-576.748	58.064	-0.115	0.149
-575.733	-85.290	0.567	0.232
-574.719	29.035	0.316	0.353
-573.704	-90.336	0.196	-0.075
-572.690	-200.000	-0.314	0.000
-571.675	528.907	-0.042	-0.131
-570.661	-173.265	0.349	0.014
-569.646	-4.338	-0.269	-0.246
-568.631	-179.122	0.325	-0.009
-567.617	-93.255	-0.175	0.064
-566.602	-37.068	0.449	0.316
-565.588	-135.772	-0.044	0.007
-564.573	66.892	-0.300	-0.403
-563.558	-79.052	0.122	0.054
-562.544	222.915	-0.076	0.162
-561.529	36.745	0.152	0.177
-560.515	-200.000	0.033	-0.245
-559.500	271.581	0.200	0.467
-558.485	20.506	0.178	-0.190
-557.471	-42.717	-0.255	0.171
-556.456	2.220	0.234	0.223
-555.442	178.861	0.120	0.233
-554.427	-26.360	0.521	-0.402
-553.412	-200.000	-0.011	-0.441
-552.398	800.000	-0.096	-0.429
-551.383	223.968	0.118	-0.253
-550.369	747.842	-0.052	-0.187
-549.354	-200.000	-0.003	0.108
-548.339	-94.598	0.092	-0.033
-547.325	-200.000	-0.004	-0.143
-546.310	-118.296	0.247	-0.057
-545.296	-148.202	0.076	0.008
-544.281	41.106	-0.045	-0.053
-543.266	800.000	-0.059	-0.223
-542.252	658.364	0.110	-0.374
-541.237	-200.000	-0.043	-0.301
-540.223	-200.000	0.010	-0.232
-539.208	-39.560	-0.512	0.352
-538.193	-200.000	0.036	-0.239
-537.179	111.342	-0.087	-0.139
-536.164	44.373	-0.216	-0.262
-535.150	197.232	0.272	-0.548
-534.135	-46.596	0.123	0.079
-533.121	-75.923	0.074	-0.034
-532.106	-88.400	0.288	0.113
-531.091	800.000	-0.014	0.079
-530.077	-35.694	0.149	-0.106
-529.062	274.668	-0.105	0.246
-528.048	-52.900	-0.475	0.287
-527.033	-4.045	-0.240	0.219
-526.018	-40.545	-0.320	-0.218
-525.004	69.381	-0.029	0.039
-523.989	99.665	-0.426	-0.650
-522.975	182.045	-0.180	-0.349
-521.960	30.177	0.059	-0.067
-520.945	-108.434	0.420	-0.118
-519.931	12.495	-0.182	0.185
-518.916	-61.969	0.046	0.025
-517.902	259.716	0.075	-0.172
-516.887	35.370	0.179	-0.207
-515.872	-51.905	0.172	0.105
-514.858	23.553	0.031	0.034
-513.843	-169.453	-0.236	0.011
-512.829	-200.000	0.056	0.562
-511.814	-200.000	0.038	-0.256
-510.799	-85.358	-0.222	-0.091
-509.785	-143.593	-0.302	-0.037
-508.770	-85.582	-0.153	-0.062
-507.756	-39.299	-0.232	0.160
-506.741	800.000	0.051	-0.190
-505.726	72.537	-0.125	-0.172
-504.712	-103.423	-0.436	-0.134
-503.697	50.989	0.143	0.178
-502.683	-70.477	-0.065	0.032
-501.668	-67.692	0.107	0.055
-500.653	-174.110	-0.312	0.012
-499.639	-21.550	0.121	0.096
-498.624	-93.922	0.175	0.063
-497.610	-103.239	-0.352	0.109
-496.595	174.094	-0.076	-0.146
-495.581	-36.849	-0.271	-0.191
-494.566	-25.139	-0.294	-0.229
-493.551	-132.593	-0.354	-0.059
-492.537	-121.114	0.546	-0.119
-491.522	99.666	0.176	-0.268
-490.508	-89.160	0.207	0.080
-489.493	-147.984	-0.244	-0.026
-488.478	749.457	0.138	0.492
-487.464	42.483	-0.385	-0.461
-486.449	-154.603	-0.247	0.021
-485.435	-171.435	-0.366	0.016
-484.420	-79.228	-0.540	0.240
-483.405	-81.574	0.467	0.201
-482.391	792.922	0.064	-0.232
-481.376	143.048	0.133	-0.233
-480.362	369.171	0.045	0.121
-479.347	800.000	0.095	0.483
-478.332	800.000	-0.058	0.250
-477.318	-187.753	0.223	0.004
-476.303	-41.388	0.214	0.144
-475.289	-35.772	0.318	-0.226
-474.274	-108.273	0.268	0.076
-473.259	-87.659	-0.330	-0.130
-472.245	-57.775	0.282	-0.161
-471.230	800.000	-0.113	0.424
-470.216	800.000	-0.093	0.382
-469.201	-200.000	0.038	0.263
-468.186	58.696	0.545	0.704
-467.172	80.879	0.083	-0.118
-466.157	730.630	-0.153	-0.540
-465.143	490.954	-0.050	0.151
-464.128	-200.000	-0.047	0.289
-463.113	-48.646	-0.246	0.155
-462.099	-115.900	0.268	-0.065
-461.084	-20.485	0.272	-0.219
-460.070	-105.979	-0.577	-0.169
-459.055	39.560	0.230	0.271
-458.040	-200.000	-0.007	0.149
-457.026	-120.185	-0.664	0.148
-456.011	62.753	-0.042	-0.055
-454.997	-89.308	0.764	0.294
-453.982	-56.614	-0.086	0.050
-452.968	-101.489	0.188	-0.060
-451.953	-192.740	-0.146	-0.002
-450.938	-127.016	0.566	-0.108
-449.924	25.904	-0.337	-0.369
-448.909	-144.333	0.458	0.055
-447.895	800.000	-0.039	0.167
-446.880	-188.201	-0.223	-0.004
-445.865	28.401	-0.137	-0.152
-444.851	-200.000	0.008	-0.335
-443.836	-105.648	0.140	0.041
-442.822	-174.538	0.196	0.007
-441.807	467.728	-0.094	0.279
-440.792	-200.000	0.053	-0.547
-439.778	31.325	0.373	-0.420
-438.763	-92.431	0.294	0.108
-437.749	-10.310	-0.305	0.265
-436.734	110.339	-0.027	-0.043
-435.719	164.855	-0.369	-0.686
-434.705	800.000	0.112	-0.483
-433.690	21.746	0.117	0.125
-432.676	52.869	-0.306	-0.384
-431.661	-95.260	0.509	0.179
-430.646	204.815	-0.076	-0.156
-429.632	-200.000	-0.002	0.420
-428.617	10.414	-0.368	0.368
-427.603	-69.600	0.424	0.212
-426.588	-40.824	0.109	-0.074
-425.573	-108.040	0.426	0.120
-424.559	-36.049	-0.208	-0.147
-423.544	363.231	-0.085	-0.226
-422.530	53.024	-0.033	-0.042
-421.515	-182.669	-0.221	-0.005
-420.500	-51.613	-0.242	0.148
-419.486	-46.765	-0.532	-0.341
-418.471	-10.587	0.400	-0.346
-417.457	170.372	-0.104	0.196
-416.442	256.434	-0.014	0.032
-415.428	-101.714	0.218	-0.069
-414.413	252.535	0.077	-0.173
-413.398	1.662	0.313	0.295
-412.384	-120.677	0.189	-0.042
-411.369	18.393	0.195	-0.204
-410.355	35.939	-0.096	-0.111
-409.340	-137.381	0.598	0.088
-408.325	-146.280	0.035	-0.004
-407.311	-35.640	0.252	-0.179
-406.296	38.868	-0.361	-0.423
-405.282	82.580	-0.164	-0.233
-404.267	-162.173	0.168	-0.011
-403.252	-142.765	0.199	-0.025
-402.238	375.245	0.027	0.073
-401.223	800.000	-0.086	-0.435
-400.209	-137.377	-0.788	0.116
-399.194	125.261	0.163	-0.271
-398.179	-108.560	-0.560	-0.157
-397.165	-83.209	-0.492	-0.206
-396.150	-24.156	-0.431	0.336
-395.136	-172.905	0.208	0.008
-394.121	-149.646	0.292	-0.030
-393.106	-54.843	0.366	-0.216
-392.092	-200.000	-0.049	-0.427
-391.077	-140.853	0.202	0.027
-390.063	190.782	0.130	0.258
-389.048	-7.717	-0.075	0.066
-388.033	-200.000	0.085	0.525
-387.019	-24.982	0.189	0.147
-386.004	143.038	-0.183	0.319
-384.990	27.379	0.081	0.089
-383.975	-40.009	-0.303	0.207
-382.960	-19.021	-0.291	0.237
-381.946	35.296	0.095	-0.109
-380.931	173.279	-0.077	-0.145
-379.917	151.744	-0.181	0.324
-378.902	-107.714	-0.360	0.102
-377.888	101.679	-0.278	0.426
-376.873	-123.594	0.349	0.072
-375.858	232.722	-0.032	-0.068
-374.844	88.087	0.207	0.300
-373.829	-110.258	-0.251	-0.068
-372.815	-200.000	0.020	-0.132
-371.800	-179.674	0.308	-0.009
-370.785	-66.997	0.165	0.085
-369.771	-147.412	0.414	-0.045
-368.756	-123.631	-0.401	0.083
-367.742	-200.000	0.050	-0.426
-366.727	-58.489	-0.269	0.153
-365.712	68.606	0.368	0.495
-364.698	479.604	0.114	0.341
-363.683	-104.078	0.236	-0.072
-362.669	-150.367	-0.185	0.018
-361.654	566.667	0.084	-0.268
-360.639	14.346	-0.357	0.365
-359.625	-131.397	0.464	0.080
-358.610	-200.000	-0.062	0.397
-357.596	251.889	-0.198	0.442
-356.581	-137.862	-0.298	-0.043
-355.566	-200.000	-0.018	0.570
-354.552	-27.929	-0.300	0.227
-353.537	-139.819	-0.325	0.045
-352.523	-200.000	0.038	-0.241
-351.508	800.000	-0.059	-0.312
-350.493	-199.136	0.275	-0.002
-349.479	-72.839	-0.553	-0.265
-348.464	800.000	-0.091	-0.340
-347.450	-170.668	0.277	0.012
-346.435	-169.196	0.251	0.012
-345.420	439.914	-0.171	0.492
-344.406	82.363	0.080	-0.113
-343.391	124.341	-0.092	-0.152
-342.377	65.394	-0.242	0.320
-341.362	384.816	-0.153	0.413
-340.348	-45.603	0.573	0.370
-339.333	-164.105	0.152	-0.009
-338.318	-58.490	-0.272	-0.154
-337.304	-47.495	0.478	0.303
-336.289	-200.000	0.110	0.734
-335.275	-121.239	-0.180	0.039
-334.260	-57.198	-0.017	0.010
-333.245	13.816	-0.282	-0.286
-332.231	-91.452	0.467	0.173
-331.216	-200.000	0.013	0.140
-330.202	430.982	-0.111	-0.315
-329.187	11.799	0.081	-0.081
-328.172	-154.763	0.544	-0.047
-327.158	77.157	-0.244	0.340
-326.143	-92.305	-0.815	0.299
-325.129	8.807	-0.161	-0.159
-324.114	714.925	-0.094	-0.327
-323.099	-95.552	-0.294	-0.102
-322.085	-176.097	-0.256	0.009
-321.070	291.002	-0.048	-0.115
-320.056	-105.786	0.330	0.097
-319.041	149.047	-0.054	0.096
-318.026	800.000	-0.014	0.051
-317.012	44.825	0.357	0.430
-315.997	102.269	0.242	-0.370
-314.983	-106.996	-0.442	-0.127
-313.968	5.084	-0.150	0.144
-312.953	170.085	-0.288	0.539
-311.939	219.447	0.220	-0.460
-310.924	-97.204	-0.298	-0.101
-309.910	-27.538	-0.381	-0.289
-308.895	-85.043	-0.296	-0.120
-307.880	666.929	0.087	-0.295
-306.866	-82.087	0.217	-0.092
-305.851	800.000	0.141	-0.637
-304.837	-3.407	-0.063	-0.057
-303.822	-5.284	0.363	-0.325
-302.807	245.904	0.047	-0.103
-301.793	-200.000	0.028	-0.207
-300.778	469.232	0.059	0.173
-299.764	-63.680	0.181	0.097
-298.749	-105.758	0.195	-0.057
-297.735	-200.000	-0.008	0.165
-296.720	66.022	-0.102	0.135
-295.705	-182.058	-0.405	-0.010
-294.691	800.000	0.130	0.586
-293.676	-109.666	0.020	-0.005
-292.662	-200.000	-0.030	0.277
-291.647	272.824	0.032	-0.074
-290.632	101.144	0.064	-0.097
-289.618	-88.277	0.784	-0.304
-288.603	211.748	0.142	-0.293
-287.589	-62.102	0.101	-0.055
-286.574	152.585	-0.044	0.078
-285.559	-200.000	-0.027	-0.415
-284.545	-40.716	-0.121	-0.082
-283.530	-200.000	-0.020	-0.229
-282.516	-105.403	-0.129	-0.038
-281.501	-85.740	0.241	0.097
-280.486	-191.391	0.448	-0.006
-279.472	-105.702	0.350	0.103
-278.457	800.000	-0.108	-0.465
-277.443	-171.048	-0.248	0.011
-276.428	325.602	-0.123	0.308
-275.413	45.222	0.078	-0.093
-274.399	-136.187	0.306	0.046
-273.384	-126.042	-0.164	0.032
-272.370	-46.219	0.093	-0.060
-271.355	-1.839	0.149	-0.136
-270.340	-45.770	0.181	-0.116
-269.326	210.854	-0.199	0.409
-268.311	49.117	-0.250	0.306
-267.297	47.810	0.286	0.348
-266.282	-200.000	0.016	-0.324
-265.267	217.037	-0.201	0.418
-264.253	371.440	-0.228	-0.605
-263.238	69.717	0.167	-0.225
-262.224	460.897	-0.043	0.127
-261.209	800.000	-0.066	-0.290
-260.195	162.934	-0.186	0.340
-259.180	-200.000	-0.019	0.212
-258.165	800.000	0.048	-0.262
-257.151	800.000	0.108	-0.498
-256.136	-49.748	-0.401	-0.248
-255.122	800.000	0.050	0.264
-254.107	-200.000	-0.045	-0.331
-253.092	-50.331	0.054	-0.033
-252.078	132.974	-0.201	-0.339
-251.063	-78.847	0.391	0.173
-250.049	699.718	0.162	0.559
-249.034	-89.536	0.321	-0.122
-248.019	135.244	0.122	-0.208
-247.005	103.230	-0.268	0.410
-245.990	-160.320	-0.430	0.030
-244.976	-128.801	-0.465	-0.085
-243.961	800.000	-0.071	0.315
-242.946	295.997	-0.085	0.204
-241.932	-131.030	0.172	-0.030
-240.917	-191.591	-0.305	0.004
-239.903	-200.000	0.017	-0.423
-238.888	550.998	-0.111	-0.347
-237.873	-93.650	0.059	0.021
-236.859	33.545	0.134	0.151
-235.844	800.000	-0.048	-0.226
-234.830	610.532	-0.098	-0.321
-233.815	-147.356	0.103	-0.011
-232.800	-85.194	-0.439	-0.178
-231.786	47.219	-0.549	-0.666
-230.771	-32.271	-0.352	0.255
-229.757	-200.000	-0.014	0.096
-228.742	800.000	-0.032	-0.153
-227.727	-9.501	0.173	-0.150
-226.713	355.392	-0.127	0.330
-225.698	31.280	-0.069	0.078
-224.684	-200.000	0.003	-0.074
-223.669	-200.000	0.026	0.306
-222.655	48.827	-0.240	-0.293
-221.640	-115.899	-0.180	0.043
-220.625	-69.957	-0.081	0.040
-219.611	-127.253	0.349	0.066
-218.596	49.361	-0.105	-0.129
-217.582	-54.825	-0.553	0.324
-216.567	-200.000	0.061	0.496
-215.552	-182.721	0.412	0.010
-214.538	151.886	-0.086	0.153
-213.523	-149.548	-0.031	0.003
-212.509	-93.535	0.090	0.032
-211.494	-166.361	0.290	0.016
-210.479	345.989	-0.137	-0.351
-209.465	-139.863	0.386	-0.053
-208.450	-200.000	0.020	0.135
-207.436	47.654	-0.131	-0.159
-206.421	11.961	0.102	-0.102
-205.406	-45.851	-0.153	0.098
-204.392	800.000	0.065	0.264
-203.377	-91.040	-0.124	0.046
-202.363	-71.362	0.337	0.164
-201.348	719.019	0.061	0.210
-200.333	-81.840	0.404	-0.171
-199.319	740.082	-0.029	0.103
-198.304	-142.838	-0.266	0.033
-197.290	-105.856	0.131	0.038
-196.275	-65.824	0.245	-0.127
-195.260	-200.000	-0.008	-0.568
-194.246	53.024	0.163	0.202
-193.231	359.645	0.152	0.398
-192.217	197.173	0.333	0.663
-191.202	-137.796	0.423	0.061
-190.187	-162.982	-0.534	-0.033
-189.173	-22.146	-0.311	-0.245
-188.158	-80.273	0.238	-0.103
-187.144	18.986	0.287	0.299
-186.129	28.682	0.315	0.347
-185.114	-165.568	0.276	-0.015
-184.100	-101.602	-0.404	0.127
-183.085	-200.000	0.574	0.001
-182.071	-58.557	0.031	0.017
-181.056	369.546	-0.124	0.329
-180.042	98.810	0.107	0.161
-179.027	-115.839	0.196	-0.047
-178.012	-110.643	-0.115	-0.031
-176.998	-200.000	-0.036	0.319
-175.983	-20.868	0.253	-0.201
-174.969	194.726	0.017	0.034
-173.954	200.627	0.090	-0.181
-172.939	-52.602	-0.119	-0.071
-171.925	-200.000	0.024	-0.441
-170.910	-73.209	0.879	-0.416
-169.896	800.000	-0.046	-0.244
-168.881	29.492	-0.077	-0.085
-167.866	-60.731	0.107	-0.059
-166.852	-79.287	0.505	0.221
-165.837	-128.264	0.410	0.075
-164.823	234.174	0.174	0.373
-163.808	-200.000	-0.056	-0.325
-162.793	-51.059	0.224	0.136
-161.779	-130.821	0.338	0.058
-160.764	74.648	-0.314	0.430
-159.750	-46.721	-0.230	0.146
-158.735	-119.553	0.188	-0.042
-157.720	800.000	0.118	-0.548
-156.706	1.797	0.480	0.449
-155.691	-105.292	0.273	-0.080
-154.677	-105.859	-0.274	0.080
-153.662	36.269	-0.093	0.106
-152.647	-60.454	-0.274	0.151
-151.633	-200.000	-0.025	0.366
-150.618	354.760	-0.029	-0.076
-149.604	-108.805	-0.470	0.130
-148.589	-167.018	-0.231	-0.012
-147.574	800.000	-0.057	0.285
-146.560	30.709	0.540	0.599
-145.545	-110.217	0.108	0.029
-144.531	800.000	-0.070	0.386
-143.516	-64.682	0.114	0.060
-142.502	611.129	0.090	0.294
-141.487	-11.551	-0.194	0.165
-140.472	-171.380	-0.159	-0.007
-139.458	95.587	-0.140	-0.207
-138.443	-68.380	0.423	-0.212
-137.429	-68.521	-0.199	0.100
-136.414	371.270	0.135	-0.356
-135.399	-107.717	0.451	-0.127
-134.385	216.828	0.127	0.263
-133.370	800.000	0.070	-0.294
-132.356	116.414	-0.071	0.113
-131.341	-200.000	0.021	-0.292
-130.326	-51.507	-0.273	-0.165
-129.312	-167.055	-0.318	0.017
-128.297	-156.402	0.208	0.017
-127.283	608.854	-0.156	0.508
-126.268	74.802	0.125	-0.171
-125.253	-64.973	-0.453	0.236
-124.239	153.147	-0.106	0.188
-123.224	180.936	-0.197	0.376
-122.210	-183.543	-0.322	0.007
-121.195	-200.000	0.021	-0.184
-120.180	-98.247	0.045	0.015
-119.166	7.785	0.107	0.104
-118.151	-200.000	0.033	-0.216
-117.137	94.462	0.119	0.175
-116.122	-39.159	0.134	-0.091
-115.107	-66.030	-0.453	0.233
-114.093	37.038	0.154	0.176
-113.078	179.670	0.115	-0.218
-112.064	23.713	-0.063	-0.068
-111.049	800.000	0.071	0.269
-110.034	652.490	-0.101	-0.338
-109.020	-23.288	0.222	0.173
-108.005	-200.000	0.073	-0.444
-106.991	-167.551	-0.400	0.020
-105.976	37.812	0.221	-0.254
-104.962	-200.000	0.020	-0.172
-103.947	-51.313	0.091	-0.055
-102.932	182.229	-0.030	-0.058
-101.918	122.024	0.061	0.099
-100.903	-13.194	0.377	0.316
-99.889	12.510	0.160	-0.160
-98.874	-150.598	0.215	-0.021
-97.859	-131.802	-0.652	-0.110
-96.845	459.881	-0.051	0.148
-95.830	-168.583	0.377	-0.018
-94.816	-151.228	-0.132	0.013
-93.801	-200.000	0.029	-0.416
-92.786	-200.000	-0.054	0.370
-91.772	-178.345	0.049	0.001
-90.757	-156.517	0.322	-0.026
-89.743	-35.140	0.153	0.108
-88.728	-137.036	0.555	-0.081
-87.713	174.586	0.243	0.456
-86.699	-58.744	-0.129	0.072
-85.684	-107.328	-0.145	-0.041
-84.670	-200.000	-0.040	0.238
-83.655	-153.131	-0.195	-0.017
-82.640	-61.299	-0.453	0.246
-81.626	-49.589	-0.187	0.115
-80.611	-69.864	0.057	0.028
-79.597	-124.938	-0.561	0.111
-78.582	-24.188	0.424	0.327
-77.567	-200.000	0.013	0.180
-76.553	37.350	0.244	-0.279
-75.538	-34.276	-0.343	0.243
-74.524	-169.046	0.300	-0.014
-73.509	-102.413	0.723	0.222
-72.494	174.425	0.201	-0.377
-71.480	-25.116	0.174	-0.133
-70.465	-200.000	-0.044	-0.254
-69.451	9.086	0.317	-0.310
-68.436	-95.784	0.144	-0.049
-67.422	-76.685	0.103	0.047
-66.407	-106.380	0.321	0.092
-65.392	82.586	-0.177	0.249
-64.378	-131.329	-0.278	-0.047
-63.363	597.617	0.041	0.133
-62.349	-96.533	-0.126	0.043
-61.334	30.107	-2.156	-2.379
-60.319	-10.384	1.698	1.454
-59.305	237.519	-3.499	-7.529
-58.290	57.608	3.920	4.958
-57.276	405.309	3.774	10.337
-56.261	-200.000	23.876	320.155
-55.246	352.868	1305.678	3362.753
-54.232	52.564	2847.537	3517.860
-53.217	51.205	2661.657	3267.071
-52.203	31.464	2391.486	2656.905
-51.188	27.661	2057.802	2239.255
-50.173	24.408	1944.210	2077.561
-49.159	23.222	1932.954	2051.640
-48.144	22.898	1926.923	2041.398
-47.130	22.723	1924.616	2036.844
-46.115	22.857	1922.821	2036.411
-45.100	22.719	1922.045	2033.911
-44.086	22.760	1920.501	2032.667
-43.071	22.757	1918.624	2030.565
-42.057	22.648	1917.443	2027.976
-41.042	22.646	1915.848	2026.194
-40.027	22.777	1913.356	2024.980
-39.013	22.605	1912.613	2022.133
-37.998	22.715	1911.520	2022.161
-36.984	22.649	1910.849	2020.611
-35.969	22.705	1909.120	2019.354
-34.954	22.645	1908.698	2018.135
-33.940	22.565	1907.017	2015.364
-32.925	22.668	1905.405	2014.759
-31.911	22.727	1903.434	2013.272
-30.896	22.595	1902.556	2010.751
-29.881	22.628	1901.201	2009.618
-28.867	22.642	1899.270	2007.652
-27.852	22.498	1898.860	2005.488
-26.838	22.561	1896.852	2004.010
-25.823	22.568	1895.847	2002.946
-24.809	22.468	1894.598	2000.412
-23.794	22.526	1893.765	2000.111
-22.779	22.569	1891.800	1998.451
-21.765	22.432	1891.408	1996.399
-20.750	22.470	1889.835	1995.082
-19.736	22.383	1888.539	1992.645
-18.721	22.384	1887.758	1991.759
-17.706	22.460	1886.244	1990.950
-16.692	22.377	1885.263	1988.893
-15.677	22.359	1884.680	1987.995
-14.663	22.337	1883.077	1985.974
-13.648	22.550	1879.930	1984.987
-12.633	22.359	1879.955	1982.774
-11.619	22.356	1878.655	1981.290
-10.604	22.353	1877.317	1979.758
-9.590	22.379	1876.190	1978.792
-8.575	22.463	1874.672	1978.061
-7.560	22.397	1874.550	1977.102
-6.546	22.342	1872.860	1974.624
-5.531	22.480	1870.427	1973.540
-4.517	22.409	1870.006	1972.213
-3.502	22.320	1869.663	1970.772
-2.487	22.378	1868.734	1970.365
-1.473	22.507	1864.357	1967.118
-0.458	22.241	1846.493	1945.241
0.556	18.839	1993.006	2046.650
1.571	17.327	2197.174	2236.076
2.586	18.087	2237.381	2286.942
3.600	18.330	2238.062	2290.633
4.615	18.210	2237.554	2288.223
5.629	18.063	2237.055	2285.459
6.644	18.135	2233.483	2282.511
7.659	18.062	2232.393	2280.139
8.673	18.147	2230.548	2279.122
9.688	17.980	2238.499	2284.726
10.702	16.993	2320.361	2354.241
11.717	15.455	2383.981	2396.439
12.731	7.322	2364.941	2260.827
13.746	0.959	2350.070	2155.488
14.761	0.142	2346.272	2140.084
15.775	0.076	2344.444	2137.216
16.790	0.067	2342.168	2134.750
17.804	0.043	2341.179	2133.259
18.819	-0.035	2340.293	2131.084
19.834	-0.010	2338.873	2129.895
20.848	0.050	2336.467	2128.291
21.863	0.096	2334.375	2126.785
22.877	0.040	2333.652	2125.081
23.892	0.041	2331.503	2122.889
24.907	0.019	2328.301	2119.410
25.921	0.043	2327.008	2118.314
26.936	0.110	2324.178	2116.427
27.950	0.053	2322.344	2113.702
28.965	0.031	2320.573	2111.534
29.980	0.133	2318.171	2110.529
30.994	0.146	2316.482	2108.912
32.009	3.827	2328.036	2171.214
33.023	12.595	2354.151	2320.029
34.038	16.317	2358.974	2377.265
35.053	16.315	2355.947	2373.903
36.067	16.173	2353.711	2369.358
37.082	16.193	2350.744	2366.369
38.096	16.299	2348.987	2365.817
39.111	16.488	2346.629	2365.809
40.126	16.559	2345.905	2365.790
41.140	16.752	2343.453	2365.748
42.155	16.808	2342.196	2364.983
43.169	16.775	2340.151	2362.176
44.184	16.420	2337.692	2354.436
45.199	16.469	2335.559	2352.701
46.213	16.614	2332.884	2351.747
47.228	16.681	2333.109	2352.620
48.242	16.762	2330.732	2351.079
49.257	16.867	2330.270	2351.800
50.271	16.904	2326.756	2348.477
51.286	16.648	2324.046	2341.898
52.301	16.474	2321.892	2337.038
53.315	17.167	2325.253	2349.771
54.330	19.981	2333.436	2396.981
55.344	21.886	2333.026	2422.734
56.359	22.015	2330.843	2421.974
57.374	22.187	2329.972	2423.165
58.388	22.234	2327.525	2420.970
59.403	22.063	2322.988	2413.607
60.417	21.700	2320.692	2405.917
61.432	21.877	2318.680	2405.991
62.447	22.035	2318.289	2407.464
63.461	22.307	2315.508	2408.034
64.476	22.292	2314.644	2406.644
65.490	22.038	2312.060	2400.179
66.505	21.110	2308.832	2383.805
67.520	19.139	2300.182	2347.599
68.534	17.118	2293.113	2312.465
69.549	16.679	2288.097	2301.142
70.563	16.587	2285.970	2297.464
71.578	16.640	2284.001	2295.934
72.593	16.813	2281.593	2295.596
73.607	16.824	2280.968	2294.835
74.622	16.767	2279.145	2291.959
75.636	16.685	2275.331	2286.731
76.651	16.700	2273.571	2284.900
77.666	16.644	2271.559	2281.845
78.680	16.645	2268.977	2278.983
79.695	16.630	2266.241	2275.770
80.709	16.387	2265.901	2271.866
81.724	16.518	2263.048	2270.497
82.739	16.393	2261.729	2267.217
83.753	16.472	2259.121	2265.402
84.768	16.521	2257.292	2263.958
85.782	16.466	2256.969	2262.622
86.797	16.572	2255.136	2261.937
87.812	16.549	2253.451	2259.670
88.826	16.752	2250.398	2259.055
89.841	16.596	2248.932	2255.225
90.855	16.588	2246.470	2252.379
91.870	16.668	2245.631	2252.334
92.884	16.764	2243.266	2250.981
93.899	16.825	2241.408	2249.664
94.914	17.382	2244.517	2259.951
95.928	19.713	2250.275	2296.639
96.943	20.555	2248.698	2305.994
97.957	18.061	2240.964	2264.612
98.972	16.855	2233.534	2240.806
99.987	16.713	2231.074	2236.186
101.001	16.760	2228.265	2233.735
102.016	16.697	2226.048	2230.413
103.030	16.571	2223.622	2226.037
104.045	16.573	2221.463	2223.636
105.060	16.683	2219.588	2222.956
106.074	16.664	2217.678	2220.526
107.089	16.661	2215.957	2218.491
108.103	16.701	2215.246	2218.045
109.118	16.710	2212.849	2215.490
110.133	16.787	2211.697	2215.083
111.147	16.561	2210.088	2210.239
112.162	16.557	2208.222	2208.061
113.176	16.660	2206.118	2207.040
114.191	16.868	2204.529	2207.917
115.206	16.578	2204.637	2203.952
116.220	16.643	2201.477	2201.380
117.235	16.632	2199.148	2198.652
118.249	16.711	2196.441	2196.713
119.264	16.621	2195.283	2194.119
120.279	16.528	2193.908	2191.264
121.293	16.457	2192.199	2188.369
122.308	16.441	2189.910	2185.621
123.322	16.338	2188.630	2182.746
124.337	16.768	2189.928	2189.363
125.352	19.513	2197.698	2232.603
126.366	20.102	2195.893	2238.150
127.381	17.456	2184.225	2191.782
128.395	16.351	2179.158	2172.157
129.410	16.276	2177.830	2169.607
130.424	16.353	2175.600	2168.122
131.439	16.279	2175.606	2166.913
132.454	16.561	2173.901	2168.597
133.468	16.768	2170.500	2167.598
134.483	16.942	2169.775	2168.855
135.497	16.854	2169.411	2167.099
136.512	16.838	2165.746	2162.977
137.527	16.813	2163.542	2160.194
138.541	16.760	2162.043	2157.765
139.556	16.465	2163.166	2154.840
140.570	16.575	2161.086	2153.925
141.585	16.651	2158.078	2151.640
142.600	16.572	2157.283	2149.574
143.614	16.630	2155.211	2147.997
144.629	16.640	2153.713	2146.377
145.643	16.583	2152.533	2144.208
146.658	16.612	2149.764	2141.569
147.673	16.556	2148.445	2139.287
148.687	16.636	2147.141	2138.749
149.702	16.615	2146.643	2137.735
150.716	16.672	2146.010	2137.568
151.731	16.843	2143.923	2137.404
152.746	16.780	2143.140	2135.565
153.760	17.357	2146.152	2145.629
154.775	19.846	2152.113	2182.933
155.789	20.683	2149.920	2191.056
156.804	18.257	2140.758	2150.837
157.819	17.032	2133.535	2127.900
158.833	16.781	2130.451	2121.411
159.848	16.699	2128.710	2118.385
160.862	16.793	2127.261	2117.877
161.877	16.705	2126.584	2115.844
162.892	16.835	2125.186	2115.827
163.906	16.751	2124.273	2113.617
164.921	16.807	2121.919	2111.724
165.935	16.827	2119.708	2109.512
166.950	16.869	2118.189	2108.280
167.964	16.936	2115.905	2106.593
168.979	16.801	2112.948	2101.705
169.994	16.616	2112.377	2098.586
171.008	16.540	2110.816	2095.829
172.023	16.431	2110.120	2093.530
173.037	16.410	2108.713	2091.628
174.052	16.614	2106.551	2091.769
175.067	16.549	2104.293	2088.475
176.081	16.482	2102.663	2085.771
177.096	16.499	2101.269	2084.351
178.110	16.437	2099.821	2081.898
179.125	16.357	2099.936	2080.769
180.140	16.403	2097.733	2078.912
181.154	16.386	2096.137	2076.863
182.169	16.556	2094.976	2077.566
183.183	17.331	2097.767	2089.663
184.198	20.343	2103.907	2132.781
185.213	20.678	2102.282	2135.010
186.227	17.796	2092.365	2089.258
187.242	16.518	2088.093	2069.034
188.256	16.357	2085.751	2064.487
189.271	16.234	2084.303	2061.297
190.286	16.204	2083.413	2059.803
191.300	16.273	2080.250	2057.271
192.315	16.337	2078.533	2056.111
193.329	16.549	2078.453	2058.386
194.344	16.895	2077.183	2061.109
195.359	16.898	2075.520	2059.246
196.373	16.755	2073.077	2054.835
197.388	16.709	2070.409	2051.375
198.402	16.596	2068.357	2047.730
199.417	16.555	2066.322	2044.965
200.432	16.603	2065.430	2044.430
201.446	16.637	2064.469	2043.636
202.461	16.595	2063.115	2041.548
203.475	16.606	2061.367	2039.712
204.490	16.638	2058.361	2036.874
205.504	16.541	2057.376	2034.484
206.519	16.606	2055.688	2033.360
207.534	16.632	2054.047	2031.808
208.548	16.567	2052.988	2029.729
209.563	16.785	2051.460	2030.602
210.577	16.693	2051.406	2029.196
211.592	16.763	2049.750	2028.160
212.607	18.197	2053.831	2049.229
213.621	21.137	2060.591	2091.192
214.636	20.469	2055.304	2077.552
215.650	17.742	2046.419	2035.640
216.665	17.009	2041.802	2022.028
217.680	16.858	2040.089	2018.284
218.694	16.716	2038.867	2015.135
219.709	16.631	2037.197	2012.229
220.723	16.707	2037.186	2012.883
221.738	16.886	2034.474	2012.100
222.753	16.862	2032.349	2009.468
223.767	16.827	2030.359	2006.849
224.782	16.842	2028.565	2005.014
225.796	16.676	2027.465	2001.716
226.811	16.674	2025.717	1999.718
227.826	16.636	2024.767	1998.099
228.840	16.557	2022.920	1995.093
229.855	16.494	2021.465	1992.672
230.869	16.687	2018.560	1991.854
231.884	16.431	2017.587	1987.634
232.899	16.531	2015.195	1986.221
233.913	16.487	2014.202	1984.478
234.928	16.442	2013.624	1983.142
235.942	16.371	2011.713	1980.194
236.957	16.384	2010.177	1978.590
237.972	16.297	2008.977	1976.146
238.986	16.161	2008.540	1973.891
240.001	16.102	2007.171	1971.610
241.015	16.297	2005.032	1971.567
242.030	17.057	2008.130	1983.302
243.045	19.754	2013.639	2020.228
244.059	19.983	2010.400	2019.415
245.074	17.467	2001.399	1980.735
246.088	16.438	1997.228	1964.355
247.103	16.790	1995.095	1966.134
248.117	16.671	1993.531	1962.973
249.132	16.380	1992.197	1958.028
250.147	16.298	1990.826	1955.496
251.161	16.365	1988.977	1954.219
252.176	16.694	1988.227	1957.074
253.190	16.859	1986.335	1956.897
254.205	16.882	1984.904	1955.518
255.220	16.969	1983.146	1954.557
256.234	16.816	1982.537	1951.953
257.249	16.586	1981.116	1947.659
258.263	16.664	1980.452	1947.682
259.278	16.754	1979.122	1947.170
260.293	16.727	1977.700	1945.231
261.307	16.609	1974.741	1940.731
262.322	16.629	1972.664	1938.689
263.336	16.614	1971.182	1936.823
264.351	16.531	1969.850	1934.335
265.366	16.578	1968.767	1933.570
266.380	16.609	1968.048	1932.997
267.395	16.723	1966.311	1932.363
268.409	16.724	1964.610	1930.470
269.424	16.690	1964.131	1929.376
270.439	16.736	1962.980	1928.547
271.453	17.692	1965.018	1941.268
272.468	20.317	1970.567	1976.600
273.482	20.383	1966.342	1972.884
274.497	17.808	1957.692	1934.659
275.512	16.755	1952.187	1917.011
276.526	16.657	1951.009	1914.513
277.541	16.503	1949.742	1911.284
278.555	16.614	1947.903	1910.520
279.570	16.513	1946.167	1907.434
280.585	16.514	1944.722	1905.804
281.599	16.558	1943.378	1904.758
282.614	16.689	1942.206	1904.858
283.628	16.867	1941.245	1905.703
284.643	16.867	1940.938	1905.178
285.657	16.980	1939.632	1904.941
286.672	16.956	1938.000	1902.839
287.687	16.967	1935.506	1900.282
288.701	16.821	1934.596	1897.520
289.716	16.744	1933.858	1895.706
290.730	16.866	1931.753	1894.785
291.745	16.819	1930.455	1892.760
292.760	16.816	1929.525	1891.582
293.774	16.705	1928.609	1889.213
294.789	16.599	1926.583	1885.819
295.803	16.504	1923.709	1881.713
296.818	16.407	1923.234	1879.942
297.833	16.517	1921.760	1879.500
298.847	16.490	1920.256	1877.509
299.862	16.484	1919.191	1876.172
300.876	17.248	1920.537	1885.786
301.891	20.197	1927.054	1924.917
302.906	20.499	1924.316	1925.312
303.920	17.558	1915.858	1883.961
304.935	16.650	1911.261	1869.151
305.949	16.558	1909.132	1865.815
306.964	16.499	1907.138	1862.998
307.979	16.669	1906.015	1863.552
308.993	16.747	1905.738	1863.920
310.008	17.038	1904.306	1865.517
311.022	16.994	1903.128	1863.653
312.037	16.874	1900.638	1859.665
313.052	16.861	1899.187	1857.886
314.066	16.943	1898.368	1857.757
315.081	16.861	1898.017	1856.296
316.095	16.854	1896.236	1854.258
317.110	16.730	1894.351	1850.827
318.125	16.627	1892.746	1847.910
319.139	16.673	1891.425	1846.901
320.154	16.800	1889.957	1846.633
321.168	16.821	1888.298	1845.022
322.183	16.660	1886.502	1841.293
323.197	16.602	1884.664	1838.637
324.212	16.586	1882.083	1835.724
325.227	16.465	1881.545	1833.660
326.241	16.559	1879.766	1832.731
327.256	16.497	1879.473	1831.557
328.270	16.617	1878.037	1831.245
329.285	16.587	1878.219	1830.869
330.300	17.599	1882.156	1845.520
331.314	20.624	1887.033	1883.050
332.329	20.336	1882.993	1875.659
333.343	17.650	1873.561	1836.986
334.358	16.517	1870.767	1821.755
335.373	16.488	1867.869	1818.405
336.387	16.420	1865.666	1815.309
337.402	16.454	1864.197	1814.026
338.416	16.556	1862.898	1813.647
339.431	16.574	1862.036	1812.784
340.446	16.735	1860.061	1812.377
341.460	16.749	1859.125	1811.394
342.475	16.847	1857.987	1811.127
343.489	16.915	1856.840	1810.522
344.504	16.840	1856.000	1808.677
345.519	16.929	1854.731	1808.181
346.533	17.040	1853.294	1807.754
347.548	17.101	1851.401	1806.342
348.562	16.712	1850.728	1801.310
349.577	16.887	1849.551	1801.822
350.592	17.155	1848.191	1803.137
351.606	17.120	1847.191	1801.576
352.621	17.002	1845.554	1798.507
353.635	16.832	1842.658	1793.653
354.650	16.685	1841.500	1790.752
355.665	16.623	1839.099	1787.548
356.679	16.543	1838.374	1785.775
357.694	16.561	1836.541	1783.976
358.708	16.454	1835.228	1781.351
359.723	17.831	1839.285	1799.684
360.738	20.621	1844.545	1834.233
361.752	19.879	1839.442	1821.096
362.767	17.248	1832.402	1786.147
363.781	16.553	1828.674	1774.973
364.796	16.458	1826.953	1772.089
365.810	16.334	1826.134	1769.775
366.825	16.380	1825.693	1769.625
367.840	16.619	1825.272	1771.517
368.854	16.787	1823.394	1771.252
369.869	16.575	1821.774	1767.239
370.883	16.556	1820.228	1765.321
371.898	16.555	1817.743	1762.698
372.913	16.488	1817.227	1761.284
373.927	16.654	1815.861	1761.487
374.942	16.702	1815.971	1761.882
375.956	16.816	1813.941	1760.894
376.971	16.749	1811.561	1757.675
377.986	16.758	1810.309	1756.341
379.000	16.680	1808.785	1753.842
380.015	16.736	1807.749	1753.210
381.029	16.622	1805.374	1749.512
382.044	16.507	1803.474	1746.263
383.059	16.626	1801.882	1745.752
384.073	16.488	1801.611	1743.849
385.088	16.632	1800.736	1744.286
386.102	16.603	1798.455	1741.565
387.117	16.630	1796.469	1739.708
388.132	16.673	1797.281	1740.737
389.146	17.491	1802.409	1753.966
390.161	20.467	1805.622	1787.715
391.175	20.344	1798.038	1778.723
392.190	17.441	1789.949	1740.702
393.205	16.867	1786.719	1731.461
394.219	16.627	1785.220	1727.339
395.234	16.635	1784.567	1726.580
396.248	16.599	1783.161	1724.645
397.263	16.494	1781.131	1721.401
398.278	16.586	1778.781	1719.863
399.292	16.610	1778.192	1719.336
400.307	16.617	1777.360	1718.392
401.321	16.555	1776.391	1716.624
402.336	16.671	1775.376	1716.615
403.350	16.760	1773.547	1715.543
404.365	16.775	1771.901	1713.904
405.380	17.121	1771.321	1716.658
406.394	17.087	1770.655	1715.453
407.409	16.856	1769.331	1711.628
408.423	17.000	1767.918	1711.516
409.438	17.021	1766.139	1709.804
410.453	16.770	1765.445	1706.378
411.467	16.982	1764.018	1706.942
412.482	16.784	1762.378	1703.152
413.496	16.544	1760.912	1699.105
414.511	16.614	1758.878	1697.646
415.526	16.572	1756.243	1694.482
416.540	16.507	1754.922	1692.346
417.555	16.446	1754.603	1691.218
418.569	16.717	1754.922	1694.055
419.584	16.842	1753.823	1694.049
420.599	16.697	1753.904	1692.459
421.613	16.596	1752.616	1690.000
422.628	16.556	1750.674	1687.529
423.642	16.511	1749.080	1685.339
424.657	16.437	1748.248	1683.597
425.672	16.453	1746.456	1681.822
426.686	16.467	1745.057	1680.417
427.701	16.478	1743.460	1678.788
428.715	16.673	1742.658	1679.759
429.730	16.886	1741.238	1680.318
430.745	16.818	1739.795	1678.044
431.759	16.787	1739.823	1677.565
432.774	17.254	1740.447	1682.607
433.788	17.612	1740.633	1686.151
434.803	18.018	1739.465	1688.849
435.818	17.813	1739.531	1686.673
436.832	17.817	1738.024	1685.057
437.847	16.684	1731.534	1667.351
438.861	9.283	1710.554	1574.329
439.876	1.662	1697.059	1487.077
440.890	0.341	1693.695	1471.005
441.905	0.307	1692.301	1469.283
442.920	0.301	1690.945	1467.871
443.934	0.215	1689.897	1465.941
444.949	0.123	1688.859	1463.965
445.963	0.048	1687.817	1462.152
446.978	0.117	1686.622	1461.614
447.993	0.177	1684.989	1460.619
449.007	0.282	1682.764	1459.535
450.022	0.205	1681.457	1457.473
451.036	0.186	1679.965	1455.819
452.051	1.056	1684.614	1468.153
453.066	8.557	1701.275	1556.062
454.080	15.939	1712.042	1638.147
455.095	17.622	1714.378	1656.638
456.109	17.878	1714.206	1658.779
457.124	18.152	1712.470	1659.570
458.139	18.153	1712.421	1659.339
459.153	18.119	1712.274	1658.661
460.168	18.206	1710.766	1657.852
461.182	18.125	1708.231	1654.413
462.197	18.135	1706.749	1652.874
463.212	18.032	1704.622	1649.614
464.226	18.024	1703.604	1648.356
465.241	18.017	1703.268	1647.762
466.255	18.187	1702.508	1648.482
467.270	18.283	1700.263	1647.035
468.285	17.986	1699.200	1642.938
469.299	17.974	1697.100	1640.601
470.314	18.129	1695.790	1640.628
471.328	18.048	1694.221	1638.137
472.343	18.088	1693.356	1637.486
473.358	18.148	1693.649	1638.154
474.372	18.082	1691.889	1635.623
475.387	18.067	1690.059	1633.509
476.401	18.021	1688.392	1631.266
477.416	18.039	1687.744	1630.614
478.430	18.119	1686.156	1629.649
479.445	17.961	1684.766	1626.604
480.460	17.977	1683.419	1625.256
481.474	18.028	1682.924	1625.067
482.489	18.178	1681.525	1624.960
483.503	18.228	1679.758	1623.535
484.518	18.182	1679.135	1622.300
485.533	18.370	1677.248	1622.076
486.547	18.261	1676.119	1619.745
487.562	18.511	1675.286	1621.126
488.576	18.432	1673.556	1618.512
489.591	18.346	1672.922	1616.885
490.606	18.347	1670.832	1614.683
491.620	18.278	1668.746	1611.817
492.635	18.406	1667.829	1611.950
493.649	18.484	1667.000	1611.696
494.664	18.333	1665.791	1608.908
495.679	17.991	1664.106	1603.860
496.693	17.948	1662.796	1602.003
497.708	18.149	1661.895	1602.835
498.722	18.412	1661.284	1604.530
499.737	18.464	1659.988	1603.578
500.752	18.264	1657.485	1599.086
501.766	18.214	1655.426	1596.437
502.781	18.155	1654.895	1595.178
503.795	18.291	1653.519	1594.942
504.810	18.329	1652.325	1593.955
505.825	18.422	1652.301	1594.606
506.839	18.445	1650.680	1593.070
507.854	18.546	1648.276	1591.499
508.868	18.449	1647.407	1589.567
509.883	18.555	1646.317	1589.308
510.898	18.481	1645.564	1587.702
511.912	18.341	1644.107	1584.809
512.927	18.292	1642.014	1582.147
513.941	18.367	1640.462	1581.151
514.956	18.290	1638.561	1578.424
515.971	18.292	1637.891	1577.602
516.985	18.300	1637.732	1577.339
518.000	18.304	1636.788	1576.279
519.014	18.514	1636.191	1577.458
520.029	18.713	1634.109	1577.099
521.043	18.452	1632.755	1573.191
522.058	18.499	1632.216	1572.915
523.073	18.552	1631.342	1572.380
524.087	18.811	1629.899	1573.182
525.102	18.788	1628.195	1571.137
526.116	18.427	1627.007	1566.486
527.131	18.377	1625.951	1564.823
528.146	18.617	1625.245	1566.162
529.160	18.596	1624.396	1564.962
530.175	18.577	1623.465	1563.705
531.189	18.753	1622.549	1564.243
532.204	18.727	1619.929	1561.292
533.219	18.440	1619.097	1557.687
534.233	18.441	1617.799	1556.253
535.248	18.610	1617.531	1557.354
536.262	18.740	1617.255	1558.086
537.277	18.733	1615.138	1555.796
538.292	18.570	1613.643	1552.691
539.306	18.423	1612.075	1549.653
540.321	18.579	1610.388	1549.265
541.335	18.474	1609.080	1546.873
542.350	18.687	1607.531	1547.124
543.365	18.766	1606.606	1546.769
544.379	18.696	1605.612	1544.994
545.394	18.740	1604.444	1544.077
546.408	18.552	1602.352	1540.187
547.423	18.277	1601.328	1536.532
548.438	18.386	1600.013	1536.075
549.452	18.499	1599.068	1535.998
550.467	18.683	1597.915	1536.364
551.481	18.563	1596.975	1534.196
552.496	18.629	1596.744	1534.381
553.511	18.987	1594.787	1535.531
554.525	18.830	1594.256	1533.427
555.540	18.903	1594.275	1533.915
556.554	18.835	1592.801	1531.708
557.569	18.825	1590.853	1529.564
558.583	18.827	1588.726	1527.353
559.598	18.743	1587.219	1524.969
560.613	18.584	1587.316	1523.461
561.627	18.672	1585.846	1522.656
562.642	18.849	1584.191	1522.458
563.656	19.034	1583.217	1522.990
564.671	19.138	1581.724	1522.291
565.686	19.019	1581.399	1520.736
566.700	18.724	1579.848	1516.444
567.715	18.751	1577.750	1514.494
568.729	18.511	1575.884	1510.397
569.744	18.555	1574.233	1509.022
570.759	18.446	1573.303	1506.981
571.773	18.468	1573.246	1506.943
572.788	18.687	1572.291	1507.782
573.802	18.651	1570.674	1505.737
574.817	19.026	1569.033	1507.283
575.832	19.006	1568.705	1506.613
576.846	19.040	1566.999	1505.089
577.861	18.957	1565.296	1502.546
578.875	19.031	1564.590	1502.343
579.890	19.122	1563.890	1502.288
580.905	19.023	1563.137	1500.512
581.919	19.167	1562.847	1501.316
582.934	19.062	1561.986	1499.389
583.948	19.218	1560.586	1499.233
584.963	19.048	1558.263	1495.336
585.978	18.954	1557.427	1493.533
586.992	18.930	1557.240	1492.971
588.007	19.155	1556.007	1493.571
589.021	18.931	1554.216	1489.720
590.036	18.703	1552.688	1486.094
591.051	18.705	1551.912	1485.191
592.065	18.932	1549.957	1485.115
593.080	19.164	1548.562	1485.614
594.094	19.168	1547.216	1484.173
595.109	18.837	1545.475	1479.461
596.123	18.656	1543.532	1475.862
597.138	18.890	1542.863	1477.069
598.153	19.122	1542.299	1478.354
599.167	18.946	1541.452	1475.845
600.182	19.005	1540.254	1475.032
601.196	19.027	1539.875	1474.681
602.211	19.099	1538.313	1473.627
603.226	19.176	1536.776	1472.640
604.240	19.186	1535.738	1471.556
605.255	19.303	1534.645	1471.335
606.269	19.291	1533.892	1470.336
607.284	19.224	1532.526	1468.276
608.299	19.212	1530.776	1466.323
609.313	19.216	1529.260	1464.733
610.328	19.140	1528.883	1463.544
611.342	19.176	1527.155	1462.020
612.357	19.242	1526.646	1461.919
613.372	19.303	1525.426	1461.096
614.386	19.187	1524.503	1459.055
615.401	19.397	1523.978	1460.163
616.415	19.334	1523.321	1458.818
617.430	19.293	1522.889	1457.884
618.445	19.404	1520.779	1456.634
619.459	19.430	1518.980	1454.958
620.474	19.089	1518.283	1451.224
621.488	18.810	1516.583	1447.067
622.503	18.681	1515.458	1444.728
623.518	19.000	1514.633	1446.464
624.532	19.255	1513.618	1447.477
625.547	19.355	1512.611	1447.179
626.561	19.426	1512.998	1447.977
627.576	19.447	1512.150	1447.171
628.591	19.152	1509.698	1442.162
629.605	18.828	1508.284	1437.918
630.620	18.908	1506.760	1436.963
631.634	18.724	1505.194	1433.751
632.649	18.785	1504.757	1433.678
633.663	18.933	1503.887	1433.916
634.678	19.224	1502.223	1434.593
635.693	19.499	1500.856	1435.416
636.707	19.603	1500.006	1435.302
637.722	19.710	1498.938	1434.999
638.736	19.779	1498.071	1434.572
639.751	19.623	1497.415	1432.479
640.766	19.593	1495.834	1430.540
641.780	19.540	1495.481	1429.594
642.795	19.423	1494.424	1427.440
643.809	19.597	1493.300	1427.638
644.824	19.666	1491.602	1426.418
645.839	19.385	1491.082	1423.416
646.853	19.666	1489.205	1423.786
647.868	19.534	1487.653	1421.039
648.882	19.458	1487.167	1419.778
649.897	19.469	1485.685	1418.278
650.912	19.348	1485.213	1416.657
651.926	19.478	1482.960	1415.418
652.941	19.281	1480.695	1411.459
653.955	19.214	1478.907	1409.039
654.970	18.998	1477.434	1405.690
655.985	18.807	1476.514	1403.080
656.999	18.979	1475.511	1403.369
658.014	19.170	1475.118	1404.392
659.028	19.132	1474.553	1403.374
660.043	19.359	1473.367	1403.939
661.058	19.401	1472.305	1403.104
662.072	19.372	1472.194	1402.593
663.087	19.274	1471.043	1400.524
664.101	19.363	1469.911	1400.006
665.116	19.611	1468.392	1400.410
666.131	19.575	1467.644	1399.240
667.145	19.522	1466.702	1397.742
668.160	19.703	1464.981	1397.406
669.174	19.818	1463.877	1397.121
670.189	19.891	1462.572	1396.302
671.204	19.621	1462.123	1393.514
672.218	19.627	1460.905	1392.237
673.233	19.654	1460.081	1391.505
674.247	19.702	1459.107	1390.797
675.262	19.652	1459.111	1390.230
676.276	19.777	1457.809	1389.826
677.291	19.767	1455.441	1387.326
678.306	19.548	1454.409	1384.413
679.320	19.547	1452.700	1382.611
680.335	19.603	1452.586	1382.787
681.349	19.903	1451.464	1383.969
682.364	19.631	1451.306	1381.461
683.379	19.687	1449.757	1380.270
684.393	19.758	1447.479	1378.510
685.408	19.821	1446.777	1378.177
686.422	19.770	1445.902	1376.772
687.437	19.680	1445.953	1375.933
688.452	19.844	1444.777	1375.960
689.466	19.845	1442.405	1373.546
690.481	19.540	1441.469	1370.060
691.495	19.405	1440.362	1367.770
692.510	19.162	1438.593	1363.986
693.525	18.914	1436.720	1360.080
694.539	19.154	1436.123	1361.255
695.554	19.406	1436.735	1363.681
696.568	19.878	1435.654	1366.235
697.583	19.876	1435.066	1365.491
698.598	19.859	1434.534	1364.695
699.612	19.804	1433.162	1362.785
700.627	19.983	1431.083	1362.064
701.641	19.970	1430.028	1360.790
702.656	20.000	1428.920	1359.814
703.671	20.101	1429.406	1360.911
704.685	19.951	1428.368	1358.575
705.700	19.943	1427.099	1357.142
706.714	19.760	1425.378	1353.903
707.729	19.801	1423.406	1352.191
708.744	19.666	1422.845	1350.434
709.758	19.559	1421.583	1348.235
710.773	19.375	1419.568	1344.725
711.787	19.458	1417.992	1343.720
712.802	19.429	1417.388	1342.757
713.816	19.705	1416.746	1344.148
714.831	19.760	1415.802	1343.515
715.846	19.878	1414.999	1343.517
716.860	19.876	1413.492	1341.909
717.875	19.946	1412.458	1341.309
718.889	19.752	1412.038	1339.245
719.904	19.991	1410.920	1339.883
720.919	19.951	1409.700	1338.254
721.933	19.939	1409.263	1337.583
722.948	20.055	1407.899	1337.026
723.962	20.012	1407.259	1335.923
724.977	20.105	1406.448	1335.716
725.992	20.056	1405.750	1334.514
727.006	20.041	1404.105	1332.675
728.021	20.117	1402.399	1331.489
729.035	20.125	1402.045	1331.051
730.050	19.919	1400.467	1327.805
731.065	20.040	1398.735	1326.939
732.079	20.248	1398.445	1328.106
733.094	20.066	1397.065	1325.234
734.108	19.897	1395.239	1322.051
735.123	20.078	1393.283	1321.424
736.138	20.067	1393.021	1320.934
737.152	20.113	1392.369	1320.507
738.167	20.254	1391.398	1320.509
739.181	20.181	1390.883	1319.304
740.196	20.190	1390.072	1318.448
741.211	20.167	1388.943	1317.041
742.225	20.095	1387.900	1315.343
743.240	20.048	1387.230	1314.191
744.254	19.983	1385.532	1311.930
745.269	20.142	1384.055	1311.586
746.284	20.149	1382.751	1310.250
747.298	19.946	1381.814	1307.659
748.313	19.691	1380.092	1303.942
749.327	19.457	1379.312	1301.275
750.342	19.210	1378.404	1298.388
751.356	19.071	1376.592	1295.477
752.371	19.122	1375.722	1294.888
753.386	19.513	1376.421	1298.350
754.400	19.947	1375.758	1300.847
755.415	20.055	1374.172	1300.003
756.429	20.177	1372.569	1299.253
757.444	20.190	1371.274	1297.969
758.459	20.246	1370.814	1297.797
759.473	20.224	1370.905	1297.563
760.488	20.351	1369.236	1296.783
761.502	20.343	1368.087	1295.482
762.517	20.188	1366.452	1292.614
763.532	20.160	1364.477	1290.384
764.546	19.927	1363.906	1287.946
765.561	19.756	1363.002	1285.662
766.575	19.348	1361.256	1280.810
767.590	19.424	1360.258	1280.286
768.605	19.633	1359.376	1280.861
769.619	19.984	1358.158	1282.176
770.634	20.034	1357.395	1281.672
771.648	20.293	1356.802	1282.886
772.663	20.398	1356.465	1283.194
773.678	20.326	1356.127	1282.180
774.692	20.206	1355.581	1280.626
775.707	20.374	1354.752	1280.931
776.721	20.409	1353.696	1280.042
777.736	20.521	1352.154	1279.258
778.751	20.511	1350.986	1277.924
779.765	20.158	1350.759	1274.951
780.780	20.182	1349.815	1274.080
781.794	20.389	1348.400	1274.123
782.809	20.206	1347.507	1271.775
783.824	20.260	1345.740	1270.351
784.838	19.838	1343.469	1264.955
785.853	19.285	1342.468	1259.804
786.867	19.350	1343.352	1260.957
787.882	19.569	1342.077	1261.216
788.897	19.823	1341.246	1262.150
789.911	20.115	1340.181	1263.140
790.926	20.098	1338.907	1261.663
791.940	20.147	1337.639	1260.670
792.955	20.250	1336.801	1260.487
793.969	20.178	1336.152	1259.194
794.984	20.128	1335.489	1258.058
795.999	20.416	1333.926	1258.532
797.013	20.407	1332.011	1256.509
798.028	20.391	1330.968	1255.256
799.042	20.348	1330.551	1254.403
800.057	20.539	1329.674	1254.806
801.072	20.502	1328.077	1252.885
802.086	20.418	1327.050	1251.160
803.101	20.551	1326.368	1251.327
804.115	20.489	1325.493	1249.906
805.130	20.522	1324.251	1248.820
806.145	20.448	1322.888	1246.850
807.159	20.440	1321.884	1245.696
808.174	20.355	1320.577	1243.705
809.188	20.230	1319.329	1241.483
810.203	20.225	1317.192	1239.286
811.218	19.907	1315.479	1235.245
812.232	19.578	1314.857	1232.157
813.247	19.553	1314.185	1231.197
814.261	19.932	1313.463	1233.089
815.276	20.185	1312.369	1233.726
816.291	20.300	1312.028	1234.080
817.305	20.488	1310.982	1234.292
818.320	20.488	1309.447	1232.693
819.334	20.331	1308.513	1230.548
820.349	20.425	1307.220	1229.855
821.364	20.482	1305.598	1228.587
822.378	20.535	1304.630	1227.903
823.393	20.589	1302.358	1226.006
824.407	20.524	1301.258	1224.362
825.422	20.435	1301.066	1223.404
826.437	20.389	1300.416	1222.322
827.451	20.274	1297.432	1218.560
828.466	19.775	1295.737	1213.302
829.480	19.624	1294.548	1210.980
830.495	19.869	1292.769	1210.895
831.509	20.021	1292.835	1211.879
832.524	20.216	1293.082	1213.340
833.539	20.383	1291.409	1212.797
834.553	20.469	1290.135	1212.055
835.568	20.468	1288.765	1210.617
836.582	20.542	1288.777	1211.001
837.597	20.508	1287.036	1208.988
838.612	20.654	1285.217	1208.147
839.626	20.394	1284.297	1205.328
840.641	20.159	1283.717	1202.997
841.655	19.860	1282.518	1199.646
842.670	19.768	1280.903	1197.352
843.685	19.454	1279.607	1193.815
844.699	20.024	1278.525	1196.619
845.714	20.308	1277.459	1197.451
846.728	20.295	1277.826	1197.561
847.743	20.398	1276.650	1197.031
848.758	20.465	1275.499	1196.269
849.772	20.592	1273.926	1195.534
850.787	20.438	1273.076	1193.528
851.801	20.496	1271.819	1192.604
852.816	20.414	1270.202	1190.379
853.831	20.334	1269.135	1188.685
854.845	20.434	1266.712	1186.966
855.860	20.352	1265.123	1184.771
856.874	20.143	1264.199	1182.328
857.889	19.959	1263.174	1179.967
858.904	19.671	1261.344	1176.146
859.918	19.511	1259.090	1172.813
860.933	19.282	1258.579	1170.633
861.947	19.531	1258.240	1171.875
862.962	19.976	1256.981	1173.595
863.977	19.964	1256.050	1172.509
864.991	20.324	1255.492	1174.290
866.006	20.389	1255.151	1174.278
867.020	20.545	1253.603	1173.747
868.035	20.504	1253.313	1173.055
869.049	20.644	1252.302	1172.919
870.064	20.569	1251.204	1171.238
871.079	20.665	1250.251	1170.856
872.093	20.597	1249.637	1169.681
873.108	20.546	1248.888	1168.499
874.122	20.220	1246.961	1164.357
875.137	20.054	1246.199	1162.387
876.152	20.118	1244.867	1161.432
877.166	20.188	1243.199	1160.211
878.181	20.364	1242.736	1160.821
879.195	20.474	1242.389	1161.100
880.210	20.648	1241.239	1161.055
881.225	20.587	1240.576	1159.882
882.239	20.625	1239.793	1159.271
883.254	20.624	1238.986	1158.366
884.268	20.616	1238.492	1157.712
885.283	20.712	1236.305	1156.173
886.298	20.668	1234.492	1154.044
887.312	20.649	1233.990	1153.311
888.327	20.698	1232.919	1152.496
889.341	20.625	1231.567	1150.613
890.356	20.608	1231.167	1149.989
891.371	20.428	1230.665	1148.183
892.385	20.373	1230.326	1147.365
893.400	20.242	1229.215	1145.321
894.414	20.303	1227.497	1143.990
895.429	20.177	1225.237	1140.915
896.444	19.641	1223.212	1135.348
897.458	19.188	1221.738	1130.858
898.473	19.488	1221.524	1132.502
899.487	20.184	1220.667	1136.159
900.502	20.326	1220.813	1137.095
901.517	20.373	1220.080	1136.581
902.531	20.625	1218.144	1136.302
903.546	20.624	1217.763	1135.803
904.560	20.618	1217.885	1135.739
905.575	20.719	1216.610	1135.079
906.589	20.598	1216.040	1133.616
907.604	20.505	1215.329	1132.209
