DTS Sentinel unit serial number:	SN409020Multiplexer serial number:	ORYXHardware model number:	OX4-SRSoftware version number:	ORYX F/W v3.00 Oryx Data Collector v3.7.2.0data status	okinstallation	HaddamTimeLapsedifferential loss correction	single-endedforward channel	channel 3reverse channel	N/Adate	2011/06/21time	19:11:17forward acquisition time	30.00reverse acquisition time	0.00gamma	498.7831k internal	0.1801k external	0.1801temperature offset calibration	1.0074default loss term (dB/km)	0.3790temperature slope calibration	1.3530multiplexer offset coefficient	1.0000multiplexer slope coefficient	1.0000fibre end	0.00T internal ref (°C)	34.50T ext. ref 1 (°C)	26.04T ext. ref 2 (°C)	0.23length (m)	temperature (°C)	Stokes	anti-Stokes-747.200	-72.556	0.418	-0.199
-746.185	-4.254	-0.119	0.106
-745.171	46.144	-0.142	-0.171
-744.156	383.643	-0.091	0.242
-743.142	-200.000	-0.057	-0.339
-742.127	-40.954	0.234	0.156
-741.112	-200.000	-0.082	-0.473
-740.098	85.918	-0.460	0.654
-739.083	-56.359	-0.528	-0.302
-738.069	103.988	-0.190	0.289
-737.054	-91.801	0.043	-0.016
-736.039	4.251	-0.601	0.568
-735.025	14.076	-0.175	0.175
-734.010	-7.656	-0.181	0.158
-732.996	-148.555	0.073	0.008
-731.981	-118.117	0.550	-0.126
-730.966	8.208	0.399	0.386
-729.952	-101.055	-0.836	0.263
-728.937	-105.955	-0.316	0.091
-727.923	-86.752	0.237	0.093
-726.908	-138.722	0.109	-0.015
-725.894	-141.207	0.507	-0.066
-724.879	-108.382	0.229	0.063
-723.864	-40.920	-0.230	0.153
-722.850	229.538	-0.101	-0.214
-721.835	-67.375	0.031	0.016
-720.821	-32.411	-0.214	0.154
-719.806	55.601	-0.138	-0.172
-718.791	330.874	0.024	-0.060
-717.777	-81.962	0.196	-0.082
-716.762	-67.280	-0.376	0.190
-715.748	800.000	0.114	-0.613
-714.733	335.408	0.220	-0.554
-713.718	226.696	0.082	-0.173
-712.704	-51.402	0.620	-0.373
-711.689	-156.180	-0.304	-0.024
-710.675	-59.349	-0.082	0.045
-709.660	-118.840	0.323	0.073
-708.645	-94.148	0.136	-0.048
-707.631	-118.256	-0.396	-0.090
-706.616	173.431	-0.091	-0.171
-705.602	-112.169	0.458	-0.118
-704.587	-200.000	-0.021	0.181
-703.572	-200.000	-0.015	0.154
-702.558	88.174	0.218	0.313
-701.543	-91.378	0.260	-0.095
-700.529	-46.346	-0.216	0.137
-699.514	800.000	-0.048	0.232
-698.499	129.007	-0.215	-0.354
-697.485	-69.360	0.222	0.110
-696.470	-169.629	-0.678	-0.031
-695.456	-21.480	-0.567	0.445
-694.441	-102.238	-0.328	0.101
-693.426	289.989	0.081	0.189
-692.412	-83.530	0.202	0.083
-691.397	-118.627	-0.249	-0.056
-690.383	-48.421	-0.280	-0.173
-689.368	88.270	-0.124	0.178
-688.354	92.812	-0.166	-0.242
-687.339	-153.595	-0.538	0.047
-686.324	-6.295	0.082	-0.072
-685.310	-200.000	0.025	-0.270
-684.295	66.767	-0.212	-0.278
-683.281	-200.000	0.241	0.001
-682.266	-102.476	-0.436	0.133
-681.251	267.730	0.094	-0.213
-680.237	214.954	-0.061	0.125
-679.222	-2.887	0.257	0.231
-678.208	-35.438	0.462	-0.323
-677.193	-100.756	0.257	0.081
-676.178	-33.964	0.225	0.159
-675.164	-85.610	-0.267	-0.106
-674.149	231.219	0.209	0.443
-673.135	-200.000	0.048	0.481
-672.120	-85.608	-0.330	-0.131
-671.105	76.812	-0.251	-0.344
-670.091	85.175	0.263	0.371
-669.076	482.043	0.069	0.203
-668.062	262.258	0.071	-0.160
-667.047	-114.681	0.488	0.119
-666.032	67.880	0.268	-0.354
-665.018	120.116	0.173	0.277
-664.003	-138.556	-0.172	0.024
-662.989	40.675	-0.319	0.370
-661.974	-135.379	-0.753	-0.115
-660.959	-200.000	0.073	-0.574
-659.945	800.000	-0.062	-0.256
-658.930	198.590	0.238	-0.471
-657.916	-200.000	-0.009	-0.265
-656.901	-132.000	0.202	0.034
-655.886	-86.652	-0.273	-0.107
-654.872	-167.928	-0.176	0.009
-653.857	-200.000	-0.010	-0.238
-652.843	98.165	-0.161	0.239
-651.828	-200.000	-0.008	-0.365
-650.814	-200.000	-0.053	-0.428
-649.799	300.466	-0.041	-0.097
-648.784	-34.636	0.125	0.088
-647.770	60.812	0.147	-0.188
-646.755	35.234	-0.144	0.162
-645.741	13.707	-0.393	-0.393
-644.726	433.927	-0.033	0.092
-643.711	85.155	-0.187	0.264
-642.697	-31.233	-0.208	0.150
-641.682	-55.520	-0.205	-0.118
-640.668	-200.000	0.018	0.118
-639.653	-200.000	0.019	-0.407
-638.638	323.424	0.078	0.192
-637.624	746.207	-0.152	0.530
-636.609	4.520	0.151	0.142
-635.595	141.482	0.123	0.210
-634.580	92.128	-0.287	0.417
-633.565	800.000	-0.096	0.418
-632.551	161.456	0.228	-0.411
-631.536	-200.000	-0.078	-0.524
-630.522	-69.098	0.169	-0.083
-629.507	-121.569	0.331	-0.070
-628.492	-110.290	0.225	-0.060
-627.478	-102.004	0.097	0.030
-626.463	64.261	0.278	-0.360
-625.449	-88.090	0.150	-0.058
-624.434	800.000	0.081	-0.453
-623.419	39.152	0.156	0.179
-622.405	219.797	-0.181	0.373
-621.390	-139.069	0.495	0.068
-620.376	26.518	0.114	-0.122
-619.361	-153.734	0.458	0.040
-618.346	-200.000	-0.067	0.509
-617.332	-37.197	0.154	0.106
-616.317	-14.876	0.086	-0.071
-615.303	800.000	0.079	-0.293
-614.288	-18.161	0.208	-0.167
-613.273	299.773	-0.105	-0.249
-612.259	-200.000	0.037	-0.514
-611.244	-200.000	0.057	0.418
-610.230	-116.074	0.133	0.031
-609.215	-146.616	0.164	0.018
-608.201	-51.547	-0.322	0.192
-607.186	-121.673	-0.115	0.024
-606.171	-94.820	0.237	-0.082
-605.157	-65.115	0.414	-0.214
-604.142	-49.665	0.029	-0.017
-603.128	-96.785	-0.361	0.121
-602.113	261.032	-0.048	0.106
-601.098	101.607	-0.340	-0.511
-600.084	77.165	-0.209	-0.286
-599.069	509.739	-0.128	-0.386
-598.055	-95.824	0.266	-0.091
-597.040	-102.311	0.131	0.040
-596.025	800.000	0.060	-0.277
-595.011	-59.878	-0.059	-0.032
-593.996	1.566	-0.550	-0.508
-592.982	-139.431	0.176	-0.024
-591.967	49.357	-0.389	0.470
-590.952	-107.038	-0.860	-0.242
-589.938	-108.936	-0.355	-0.097
-588.923	148.409	0.054	-0.093
-587.909	-59.451	0.106	0.058
-586.894	-185.849	0.189	-0.004
-585.879	21.694	0.161	-0.168
-584.865	-200.000	0.002	0.033
-583.850	-42.935	-0.424	0.276
-582.836	-200.000	-0.014	0.228
-581.821	3.156	-0.066	-0.062
-580.806	99.114	0.233	0.346
-579.792	665.739	-0.039	-0.131
-578.777	-65.029	-0.551	-0.284
-577.763	-139.566	0.209	-0.028
-576.748	467.597	-0.113	-0.326
-575.733	-102.955	0.131	0.040
-574.719	108.979	-0.363	0.558
-573.704	-142.592	-0.319	-0.040
-572.690	-44.910	-0.250	-0.160
-571.675	-133.939	-0.348	-0.055
-570.661	53.970	-0.243	-0.300
-569.646	-42.742	-0.290	-0.189
-568.631	-166.080	-0.253	0.014
-567.617	-177.921	0.667	0.020
-566.602	-23.390	-0.471	-0.362
-565.588	129.096	-0.214	-0.352
-564.573	-2.886	0.171	-0.153
-563.558	-200.000	0.034	-0.302
-562.544	296.244	0.247	-0.584
-561.529	372.610	0.116	0.305
-560.515	74.083	-0.205	-0.276
-559.500	-200.000	0.036	-0.281
-558.485	-11.456	0.329	-0.277
-557.471	-134.611	0.671	0.104
-556.456	800.000	-0.053	0.261
-555.442	7.134	0.217	0.208
-554.427	223.380	-0.021	-0.043
-553.412	96.003	0.070	-0.103
-552.398	-106.141	-0.251	0.072
-551.383	-199.482	-0.026	-0.000
-550.369	-78.050	0.358	0.157
-549.354	82.123	-0.173	0.241
-548.339	313.890	-0.038	0.093
-547.325	-68.065	-0.431	0.214
-546.310	0.092	0.460	0.420
-545.296	18.638	0.118	0.121
-544.281	-131.226	-0.138	0.023
-543.266	-162.232	0.277	0.017
-542.252	120.812	-0.126	0.201
-541.237	-200.000	-0.023	-0.165
-540.223	-163.002	0.020	0.001
-539.208	9.401	-0.385	-0.373
-538.193	-136.392	0.237	-0.035
-537.179	64.834	0.228	-0.295
-536.164	-200.000	-0.028	0.355
-535.150	-18.135	-0.376	0.301
-534.135	-42.384	-0.412	0.269
-533.121	366.556	-0.176	0.458
-532.106	-61.859	0.236	0.126
-531.091	-113.814	0.319	0.079
-530.077	-88.762	-0.498	0.189
-529.062	-27.754	-0.304	0.225
-528.048	-96.853	-0.243	0.081
-527.033	-81.857	-0.088	-0.037
-526.018	217.759	-0.011	0.023
-525.004	-44.920	0.100	0.063
-523.989	-200.000	-0.014	-0.327
-522.975	800.000	-0.120	-0.477
-521.960	59.542	-0.191	0.241
-520.945	622.553	0.157	0.511
-519.931	800.000	-0.170	0.697
-518.916	97.137	0.181	0.266
-517.902	51.753	-0.137	-0.166
-516.887	-53.073	-0.426	0.250
-515.872	20.830	-0.286	0.297
-514.858	-117.408	-0.115	-0.027
-513.843	-8.970	-0.246	0.211
-512.829	-113.891	-0.169	-0.042
-511.814	86.149	0.275	0.388
-510.799	800.000	0.075	0.420
-509.785	195.117	0.149	0.290
-508.770	-160.324	-0.434	-0.029
-507.756	-74.941	0.194	-0.089
-506.741	-105.268	0.243	0.070
-505.726	536.953	-0.090	0.275
-504.712	-200.000	0.045	0.384
-503.697	34.115	-0.112	0.125
-502.683	-138.852	-0.136	-0.019
-501.668	147.376	-0.199	-0.344
-500.653	-108.114	0.154	0.042
-499.639	-174.024	-0.114	-0.004
-498.624	-200.000	-0.013	-0.107
-497.610	-133.222	0.722	-0.116
-496.595	800.000	0.094	-0.486
-495.581	800.000	-0.047	-0.221
-494.566	800.000	0.038	-0.201
-493.551	13.719	0.315	-0.313
-492.537	38.988	0.092	0.105
-491.522	-45.362	0.067	-0.042
-490.508	142.748	0.146	-0.248
-489.493	17.380	0.146	-0.148
-488.478	-119.988	0.212	0.046
-487.464	-200.000	0.017	-0.226
-486.449	-177.877	-0.498	0.015
-485.435	800.000	0.101	0.358
-484.420	-200.000	0.019	0.333
-483.405	-200.000	-0.023	0.220
-482.391	-27.529	-0.246	0.182
-481.376	800.000	-0.050	-0.192
-480.362	-95.368	0.429	-0.146
-479.347	800.000	-0.048	-0.206
-478.332	-101.236	-0.509	0.158
-477.318	-79.371	-0.120	-0.052
-476.303	-46.707	0.259	0.162
-475.289	-137.181	-0.258	0.037
-474.274	-200.000	0.001	-0.129
-473.259	495.287	-0.043	-0.126
-472.245	-28.748	-0.239	-0.176
-471.230	-87.678	-0.328	-0.126
-470.216	-200.000	-0.051	0.435
-469.201	-188.765	-0.092	-0.001
-468.186	87.468	-0.195	0.276
-467.172	-200.000	-0.030	-0.232
-466.157	-54.518	0.329	-0.190
-465.143	-63.443	0.303	-0.159
-464.128	-22.814	-0.155	-0.119
-463.113	-200.000	0.016	0.182
-462.099	505.397	-0.173	0.516
-461.084	38.406	-0.183	-0.209
-460.070	800.000	-0.047	-0.239
-459.055	-132.956	-0.316	0.051
-458.040	800.000	0.078	0.391
-457.026	-200.000	-0.038	0.426
-456.011	-161.052	-0.175	0.012
-454.997	-86.073	0.373	-0.147
-453.982	-55.885	0.567	0.322
-452.968	-2.055	0.165	0.148
-451.953	-200.000	0.010	-0.254
-450.938	-91.580	0.191	0.069
-449.924	-71.619	0.105	0.050
-448.909	-180.334	0.406	-0.011
-447.895	9.923	0.439	0.426
-446.880	-168.139	0.244	0.012
-445.865	-157.368	-0.232	-0.018
-444.851	-98.528	-0.428	-0.139
-443.836	210.073	0.117	0.236
-442.822	800.000	0.040	0.206
-441.807	18.153	-0.337	-0.343
-440.792	25.715	-0.364	-0.387
-439.778	-109.594	0.143	0.038
-438.763	77.574	0.305	0.415
-437.749	-200.000	-0.032	0.406
-436.734	120.865	-0.272	0.432
-435.719	20.313	-0.305	0.314
-434.705	36.517	0.064	0.073
-433.690	497.161	-0.068	0.202
-432.676	724.165	-0.079	-0.269
-431.661	-163.053	0.201	-0.012
-430.646	140.189	0.157	0.265
-429.632	-152.657	-0.101	0.009
-428.617	-121.975	0.115	0.024
-427.603	-173.840	0.523	0.019
-426.588	-94.427	0.033	-0.011
-425.573	-159.655	0.435	0.030
-424.559	800.000	-0.100	0.379
-423.544	-66.027	-0.362	-0.184
-422.530	13.286	0.327	0.323
-421.515	-106.970	0.043	0.012
-420.500	112.098	0.291	0.450
-419.486	495.496	0.064	0.188
-418.471	-11.884	0.145	0.121
-417.457	-134.014	-0.471	-0.074
-416.442	-40.960	0.137	-0.090
-415.428	2.794	0.055	-0.050
-414.413	-5.037	-0.498	0.436
-413.398	800.000	0.119	0.454
-412.384	383.291	-0.137	0.361
-411.369	-125.489	-0.213	0.041
-410.355	-142.549	0.451	0.056
-409.340	-86.472	0.266	0.104
-408.325	205.019	-0.018	0.036
-407.311	651.778	-0.103	-0.337
-406.296	-18.471	-0.049	0.039
-405.282	-115.194	0.283	-0.068
-404.267	177.799	-0.105	0.195
-403.252	91.342	0.352	-0.505
-402.238	12.454	-0.135	-0.133
-401.223	-83.542	0.418	0.169
-400.209	-38.122	-0.072	0.048
-399.194	398.462	0.247	-0.661
-398.179	96.349	-0.197	-0.287
-397.165	222.816	0.110	0.226
-396.150	256.576	0.203	0.445
-395.136	-62.128	-0.625	0.331
-394.121	-116.319	-0.019	0.004
-393.106	-59.795	-0.451	-0.245
-392.092	-200.000	-0.004	0.327
-391.077	29.405	-0.151	-0.164
-390.063	800.000	-0.037	-0.188
-389.048	800.000	0.078	0.307
-388.033	3.100	-0.361	-0.334
-387.019	-75.146	0.252	-0.114
-386.004	-111.978	0.260	-0.066
-384.990	800.000	0.109	0.436
-383.975	8.676	0.363	0.348
-382.960	251.868	-0.029	0.063
-381.946	185.026	0.104	0.198
-380.931	-98.654	0.481	-0.155
-379.917	-107.608	0.199	-0.055
-378.902	-63.686	0.212	-0.110
-377.888	68.925	-0.279	-0.365
-376.873	-45.284	0.320	0.202
-375.858	0.963	-0.299	-0.273
-374.844	-97.322	-0.296	-0.098
-373.829	225.480	0.130	-0.269
-372.815	549.348	0.044	0.134
-371.800	23.557	0.307	-0.322
-370.785	428.248	-0.067	-0.184
-369.771	-42.063	0.109	0.071
-368.756	-200.000	-0.017	-0.203
-367.742	175.268	0.139	-0.258
-366.727	273.201	0.115	-0.260
-365.712	-105.001	-0.546	0.158
-364.698	280.967	0.186	0.426
-363.683	-33.151	-0.421	-0.297
-362.669	-200.000	-0.016	-0.191
-361.654	82.290	0.123	-0.170
-360.639	-12.895	-0.322	-0.266
-359.625	28.866	0.136	-0.146
-358.610	10.957	0.215	0.209
-357.596	79.180	0.245	0.334
-356.581	-61.621	-0.360	0.192
-355.566	203.267	-0.097	0.192
-354.552	119.828	0.116	0.183
-353.537	-200.000	0.043	0.474
-352.523	800.000	-0.056	0.281
-351.508	-200.000	-0.002	0.101
-350.493	-30.500	-0.219	-0.157
-349.479	-166.085	-0.428	-0.023
-348.464	312.150	0.069	-0.165
-347.450	109.952	-0.196	0.300
-346.435	-200.000	-0.001	0.427
-345.420	-200.000	-0.006	-0.159
-344.406	-84.900	0.228	0.090
-343.391	-111.443	-0.109	0.028
-342.377	800.000	0.077	0.301
-341.362	309.900	0.061	-0.146
-340.348	19.293	-0.237	0.242
-339.333	88.889	-0.308	0.437
-338.318	381.598	0.092	0.241
-337.304	800.000	0.070	0.382
-336.289	-36.122	-0.212	0.145
-335.275	38.260	-0.076	0.087
-334.260	800.000	-0.027	-0.129
-333.245	-200.000	-0.149	-0.000
-332.231	-17.661	-0.245	0.195
-331.216	17.807	0.262	0.265
-330.202	800.000	0.047	0.233
-329.187	-64.544	-0.478	-0.246
-328.172	-107.019	-0.500	0.140
-327.158	373.072	0.182	-0.472
-326.143	-69.679	0.298	-0.144
-325.129	-154.032	0.453	0.039
-324.114	-60.216	0.258	0.139
-323.099	101.652	0.133	-0.197
-322.085	407.937	-0.114	0.308
-321.070	-72.756	-0.204	0.095
-320.056	-191.336	-0.639	-0.008
-319.041	-200.000	0.038	-0.448
-318.026	353.398	0.182	-0.461
-317.012	800.000	-0.038	0.172
-315.997	97.281	0.260	0.380
-314.983	-200.000	0.056	0.375
-313.968	-110.663	0.085	-0.022
-312.953	31.270	0.105	-0.114
-311.939	-14.445	-0.230	-0.187
-310.924	190.412	0.098	0.188
-309.910	55.624	0.172	-0.211
-308.895	-200.000	0.044	-0.392
-307.880	-200.000	-0.038	-0.220
-306.866	-152.587	0.290	-0.026
-305.851	-200.000	0.019	-0.313
-304.837	-200.000	-0.218	0.000
-303.822	800.000	-0.027	-0.111
-302.807	50.771	0.164	0.198
-301.793	-98.887	0.539	-0.173
-300.778	66.378	0.247	-0.319
-299.764	-122.076	0.235	-0.049
-298.749	-200.000	0.016	-0.146
-297.735	130.135	0.309	-0.503
-296.720	97.150	0.183	0.267
-295.705	60.724	0.084	0.106
-294.691	250.682	0.211	0.456
-293.676	119.283	0.015	-0.023
-292.662	15.370	-0.503	-0.501
-291.647	-18.715	0.128	0.101
-290.632	361.140	0.199	-0.510
-289.618	-47.127	0.184	-0.114
-288.603	-10.566	-0.033	-0.028
-287.589	-11.560	-0.483	-0.402
-286.574	-186.888	0.377	-0.007
-285.559	-113.229	0.384	-0.095
-284.545	210.122	-0.035	-0.071
-283.530	179.100	-0.121	0.225
-282.516	-107.377	0.644	-0.178
-281.501	46.891	-0.157	0.186
-280.486	-57.055	0.182	0.101
-279.472	366.385	0.058	-0.149
-278.457	99.470	0.199	-0.293
-277.443	-88.596	0.487	-0.183
-276.428	235.342	0.365	-0.767
-275.413	-193.703	-0.266	-0.003
-274.399	-142.396	-0.438	-0.054
-273.384	227.549	-0.054	0.112
-272.370	72.142	0.192	-0.254
-271.355	17.315	0.104	0.105
-270.340	-22.533	0.270	0.207
-269.326	-152.625	-0.328	-0.029
-268.311	254.980	-0.182	-0.396
-267.297	74.003	0.327	-0.436
-266.282	170.377	0.099	0.180
-265.267	405.971	0.124	0.332
-264.253	206.352	0.102	0.202
-263.238	-58.628	-0.143	-0.078
-262.224	-106.288	0.229	0.065
-261.209	-62.712	0.231	-0.121
-260.195	97.785	0.123	0.180
-259.180	213.757	-0.104	0.209
-258.165	-37.866	0.590	0.397
-257.151	-10.756	0.324	-0.271
-256.136	-137.897	-0.393	0.055
-255.122	55.669	-0.134	0.165
-254.107	-26.620	-0.153	0.114
-253.092	-154.571	0.272	-0.023
-252.078	138.799	-0.158	-0.263
-251.063	-99.046	-0.530	0.169
-250.049	23.004	-0.308	0.320
-249.034	-150.582	0.494	-0.047
-248.019	-167.738	0.670	-0.033
-247.005	334.439	0.115	-0.284
-245.990	-87.926	-0.222	0.084
-244.976	-49.611	-0.353	0.212
-243.961	-103.905	-0.364	-0.107
-242.946	370.062	-0.224	-0.578
-241.932	-14.604	-0.343	0.279
-240.917	-53.035	0.362	0.210
-239.903	393.244	-0.061	-0.161
-238.888	-200.000	0.005	-0.195
-237.873	-200.000	0.027	-0.356
-236.859	46.015	-0.476	-0.558
-235.844	-54.853	0.192	0.109
-234.830	544.593	-0.064	-0.196
-233.815	-67.121	-0.085	-0.042
-232.800	258.238	-0.213	0.466
-231.786	-200.000	-0.015	-0.130
-230.771	56.788	0.043	-0.053
-229.757	-200.000	-0.010	0.202
-228.742	-34.603	-0.222	0.154
-227.727	28.922	0.109	0.117
-226.713	-108.617	0.363	-0.098
-225.698	-114.303	0.396	-0.096
-224.684	212.646	-0.136	-0.273
-223.669	26.872	0.309	0.328
-222.655	129.492	0.085	0.137
-221.640	37.986	-0.201	0.226
-220.625	-48.388	0.335	0.204
-219.611	800.000	0.034	0.132
-218.596	-13.467	-0.466	-0.382
-217.582	-133.491	0.094	0.015
-216.567	-200.000	0.005	-0.122
-215.552	-55.541	-0.359	0.203
-214.538	329.501	0.056	-0.136
-213.523	-47.025	-0.399	-0.246
-212.509	-171.703	0.157	0.006
-211.494	-162.013	-0.531	-0.033
-210.479	-52.439	0.352	-0.206
-209.465	-200.000	-0.028	-0.207
-208.450	-92.318	-0.461	-0.163
-207.436	-135.979	-0.202	0.030
-206.421	-107.967	0.268	-0.073
-205.406	-69.366	-0.130	-0.063
-204.392	14.517	0.319	0.315
-203.377	-41.166	-0.338	-0.220
-202.363	462.717	-0.099	-0.282
-201.348	-146.114	-0.395	0.044
-200.333	-200.000	-0.006	0.197
-199.319	-200.000	-0.021	0.630
-198.304	800.000	0.154	-0.602
-197.290	800.000	-0.056	-0.280
-196.275	29.411	0.170	0.182
-195.260	-113.576	-0.248	0.061
-194.246	-200.000	-0.001	0.256
-193.231	51.464	0.337	0.405
-192.217	800.000	-0.075	0.330
-191.202	800.000	0.025	-0.114
-190.187	-43.603	-0.236	-0.150
-189.173	-95.688	-0.071	-0.024
-188.158	31.842	0.067	-0.073
-187.144	-200.000	-0.036	-0.717
-186.129	100.378	-0.226	-0.332
-185.114	-89.399	0.170	-0.063
-184.100	-90.772	0.241	-0.087
-183.085	-160.777	0.111	0.007
-182.071	318.361	-0.070	0.168
-181.056	-105.555	-0.396	-0.113
-180.042	-47.856	0.133	-0.081
-179.027	53.387	-0.248	-0.301
-178.012	22.586	-0.438	0.453
-176.998	224.022	0.009	-0.019
-175.983	-17.422	0.323	-0.256
-174.969	394.214	-0.133	-0.352
-173.954	-71.083	-0.363	0.172
-172.939	-22.305	0.330	0.252
-171.925	589.271	0.150	-0.470
-170.910	228.801	-0.115	0.237
-169.896	-45.080	0.397	0.249
-168.881	764.280	0.043	-0.149
-167.866	-78.149	-0.478	0.207
-166.852	92.071	-0.123	0.175
-165.837	-6.966	-0.457	-0.392
-164.823	-8.885	0.440	-0.372
-163.808	-23.717	-0.261	0.197
-162.793	9.299	-0.085	0.081
-161.779	-66.240	-0.278	0.139
-160.764	-177.714	0.167	0.005
-159.750	-200.000	0.033	-0.456
-158.735	-31.991	0.337	-0.237
-157.720	-58.222	-0.153	-0.084
-156.706	-63.505	0.255	0.132
-155.691	800.000	-0.035	-0.137
-154.677	9.394	0.401	-0.383
-153.662	-200.000	0.008	-0.268
-152.647	40.529	0.242	-0.275
-151.633	-200.000	0.007	-0.039
-150.618	-164.284	-0.146	-0.008
-149.604	-94.549	-0.297	-0.102
-148.589	-130.102	0.205	0.035
-147.574	-34.193	-0.385	-0.266
-146.560	-170.508	-0.421	-0.018
-145.545	-85.733	0.160	-0.062
-144.531	800.000	0.066	-0.247
-143.516	180.236	-0.211	-0.392
-142.502	48.732	-0.184	-0.218
-141.487	-105.276	-0.532	-0.152
-140.472	800.000	-0.118	-0.452
-139.458	-200.000	0.010	-0.162
-138.443	-127.435	0.251	0.046
-137.429	-150.690	-0.279	0.027
-136.414	262.041	-0.154	-0.338
-135.399	2.420	-0.184	-0.168
-134.385	-58.774	0.481	-0.262
-133.370	800.000	-0.056	0.284
-132.356	-200.000	-0.021	0.141
-131.341	-200.000	-0.003	0.187
-130.326	-140.656	0.201	0.026
-129.312	200.375	-0.217	0.421
-128.297	19.762	-0.233	-0.237
-127.283	-200.000	0.029	0.272
-126.268	-89.154	-0.351	0.130
-125.253	-184.209	0.209	0.004
-124.239	22.513	-0.092	0.095
-123.224	336.247	0.078	0.191
-122.210	635.316	0.075	0.240
-121.195	-116.808	-0.292	-0.067
-120.180	-200.000	-0.034	0.260
-119.166	7.687	0.014	0.014
-118.151	63.289	0.510	-0.645
-117.137	-200.000	0.020	0.130
-116.122	36.648	0.203	-0.226
-115.107	-15.959	-0.070	-0.056
-114.093	-84.666	0.074	-0.029
-113.078	378.508	-0.103	-0.266
-112.064	-83.354	0.439	-0.176
-111.049	-178.981	0.012	0.000
-110.034	-118.702	-0.174	-0.038
-109.020	610.927	-0.083	-0.261
-108.005	-88.187	0.061	-0.023
-106.991	800.000	-0.053	0.252
-105.976	-200.000	-0.015	0.106
-104.962	48.956	0.207	-0.245
-103.947	-134.929	-0.420	0.063
-102.932	-48.041	-0.073	-0.044
-101.918	325.455	-0.039	-0.094
-100.903	-150.598	0.158	0.015
-99.889	460.863	-0.144	-0.408
-98.874	-28.088	0.173	0.126
-97.859	-200.000	0.046	0.473
-96.845	230.265	0.146	0.302
-95.830	-125.417	-0.321	-0.061
-94.816	331.944	0.062	0.152
-93.801	-146.584	0.621	0.067
-92.786	-0.553	0.137	-0.122
-91.772	-40.871	-0.087	-0.056
-90.757	6.373	0.253	0.237
-89.743	151.125	-0.336	0.577
-88.728	-82.994	-0.195	0.079
-87.713	-78.781	0.295	0.126
-86.699	9.231	-0.071	-0.067
-85.684	468.104	-0.085	-0.242
-84.670	-80.578	-0.099	0.041
-83.655	96.440	-0.029	-0.042
-82.640	48.639	-0.335	0.395
-81.626	-200.000	0.025	0.292
-80.611	175.260	-0.076	0.139
-79.597	-200.000	0.027	-0.230
-78.582	-91.766	-0.429	-0.153
-77.567	-97.548	-0.260	-0.085
-76.553	-12.101	0.289	0.238
-75.538	800.000	0.056	-0.232
-74.524	-126.689	-0.762	0.141
-73.509	800.000	0.036	0.170
-72.494	40.071	0.046	0.053
-71.480	-82.506	-0.217	-0.088
-70.465	-156.745	0.355	0.027
-69.451	23.074	-0.074	-0.076
-68.436	-19.188	0.174	-0.136
-67.422	-29.318	-0.111	-0.080
-66.407	216.211	-0.266	-0.534
-65.392	-147.380	0.346	0.036
-64.378	-106.510	-0.297	0.083
-63.363	356.352	0.161	0.406
-62.349	-197.676	-0.263	0.002
-61.334	-15.471	-1.653	-1.326
-60.319	-39.986	0.702	0.459
-59.305	209.159	-3.250	-6.421
-58.290	4.147	3.297	3.033
-57.276	439.348	3.732	10.298
-56.261	-200.000	14.691	237.932
-55.246	445.527	1190.277	3304.228
-54.232	60.425	2835.144	3531.900
-53.217	69.509	2723.528	3529.898
-52.203	50.272	2451.500	2913.701
-51.188	44.267	2101.602	2425.915
-50.173	36.828	1974.637	2194.916
-49.159	35.377	1963.965	2166.504
-48.144	34.979	1959.745	2157.250
-47.130	34.877	1957.841	2153.918
-46.115	34.737	1956.788	2151.085
-45.100	34.832	1954.842	2149.933
-44.086	34.755	1953.816	2147.857
-43.071	34.804	1951.671	2145.965
-42.057	34.821	1950.707	2145.005
-41.042	34.729	1949.626	2142.704
-40.027	34.778	1947.805	2141.167
-39.013	34.755	1946.451	2139.327
-37.998	34.764	1944.416	2137.117
-36.984	34.761	1942.956	2135.389
-35.969	34.814	1941.639	2134.451
-34.954	34.528	1941.468	2130.971
-33.940	34.719	1939.975	2131.391
-32.925	34.613	1938.887	2128.922
-31.911	34.666	1937.347	2127.737
-30.896	34.705	1935.418	2125.970
-29.881	34.660	1935.335	2125.292
-28.867	34.591	1933.900	2122.861
-27.852	34.641	1931.604	2120.813
-26.838	34.559	1929.452	2117.458
-25.823	34.482	1929.150	2116.178
-24.809	34.405	1928.134	2114.126
-23.794	34.455	1927.220	2113.597
-22.779	34.438	1925.992	2111.974
-21.765	34.642	1922.744	2110.590
-20.750	34.379	1923.046	2107.921
-19.736	34.433	1921.870	2107.146
-18.721	34.376	1919.913	2104.284
-17.706	34.429	1918.920	2103.696
-16.692	34.417	1917.704	2102.153
-15.677	34.439	1915.943	2100.379
-14.663	34.310	1915.417	2098.295
-13.648	34.496	1913.132	2097.767
-12.633	34.458	1912.021	2096.041
-11.619	34.351	1911.962	2094.712
-10.604	34.302	1909.669	2091.570
-9.590	34.329	1908.974	2091.025
-8.575	34.277	1907.886	2089.176
-7.560	34.360	1905.949	2087.891
-6.546	34.318	1905.266	2086.599
-5.531	34.360	1903.262	2084.783
-4.517	34.260	1903.094	2083.412
-3.502	34.218	1902.800	2082.547
-2.487	34.403	1900.330	2081.799
-1.473	34.361	1897.771	2078.449
-0.458	34.207	1877.076	2054.028
0.556	29.507	2009.766	2131.965
1.571	27.498	2224.366	2333.496
2.586	28.921	2269.109	2398.818
3.600	28.926	2272.610	2402.292
4.615	28.989	2271.365	2401.521
5.629	28.756	2270.093	2396.834
6.644	28.902	2267.799	2396.038
7.659	28.951	2267.258	2395.822
8.673	29.135	2265.256	2395.825
9.688	28.432	2269.544	2390.854
10.702	25.492	2339.786	2424.754
11.717	22.210	2403.803	2445.004
12.731	11.395	2375.639	2265.854
13.746	1.731	2350.017	2107.209
14.761	0.229	2345.185	2081.765
15.775	0.085	2343.249	2077.793
16.790	-0.030	2341.936	2074.787
17.804	0.089	2339.633	2074.143
18.819	0.149	2338.561	2073.782
19.834	0.025	2336.875	2070.325
20.848	0.093	2335.308	2069.619
21.863	0.039	2334.750	2068.139
22.877	0.073	2332.171	2066.071
23.892	-0.007	2329.653	2062.488
24.907	0.035	2327.235	2060.688
25.921	-0.063	2326.946	2058.833
26.936	0.052	2324.155	2057.695
27.950	0.063	2320.990	2054.796
28.965	-0.070	2319.655	2051.543
29.980	-0.083	2318.513	2050.110
30.994	0.234	2315.782	2051.796
32.009	6.058	2334.961	2148.775
33.023	19.081	2373.828	2365.281
34.038	24.685	2384.871	2453.545
35.053	25.140	2384.152	2458.789
36.067	25.038	2379.744	2452.538
37.082	24.808	2377.593	2446.879
38.096	24.951	2375.801	2446.700
39.111	25.165	2374.345	2447.847
40.126	24.957	2370.950	2441.195
41.140	25.070	2370.449	2441.935
42.155	25.238	2369.472	2442.946
43.169	25.064	2366.604	2437.319
44.184	25.207	2363.939	2436.233
45.199	25.034	2362.095	2431.680
46.213	25.057	2359.680	2429.218
47.228	25.054	2359.099	2428.286
48.242	25.216	2357.578	2428.637
49.257	25.346	2356.759	2429.261
50.271	25.516	2354.042	2428.487
51.286	25.194	2351.217	2420.912
52.301	24.619	2347.755	2409.266
53.315	24.733	2348.954	2411.749
54.330	26.086	2350.834	2431.731
55.344	26.982	2351.418	2444.177
56.359	27.246	2347.699	2443.582
57.374	27.082	2347.263	2440.627
58.388	27.115	2343.435	2436.807
59.403	26.905	2339.918	2430.025
60.417	26.689	2335.338	2422.070
61.432	26.859	2334.369	2423.068
62.447	26.939	2332.200	2421.590
63.461	26.948	2330.657	2419.828
64.476	26.989	2329.243	2418.621
65.490	27.001	2328.099	2417.305
66.505	26.529	2324.932	2407.410
67.520	25.899	2321.920	2395.594
68.534	25.792	2318.904	2390.761
69.549	25.524	2314.671	2382.548
70.563	25.160	2311.429	2374.085
71.578	25.005	2310.262	2370.532
72.593	25.230	2308.631	2371.575
73.607	25.182	2306.899	2368.863
74.622	25.283	2304.384	2367.341
75.636	25.356	2302.772	2366.364
76.651	25.381	2300.596	2364.185
77.666	25.485	2299.777	2364.435
78.680	25.249	2296.189	2357.348
79.695	24.935	2293.191	2349.849
80.709	24.405	2290.664	2339.982
81.724	24.262	2287.496	2334.589
82.739	24.749	2287.240	2340.461
83.753	25.577	2287.835	2351.667
84.768	25.408	2286.372	2347.666
85.782	25.493	2284.978	2347.072
86.797	25.437	2282.589	2343.604
87.812	25.221	2279.670	2337.491
88.826	25.365	2277.746	2337.121
89.841	25.555	2276.298	2337.846
90.855	25.616	2274.003	2336.001
91.870	25.372	2272.418	2330.916
92.884	25.358	2270.421	2328.401
93.899	25.263	2268.329	2324.749
94.914	24.927	2268.559	2320.319
95.928	25.477	2269.483	2328.155
96.943	25.955	2267.713	2332.281
97.957	25.797	2263.937	2326.067
98.972	25.537	2261.193	2319.590
99.987	25.352	2257.560	2313.202
101.001	25.181	2255.842	2308.940
102.016	25.375	2253.423	2308.697
103.030	25.254	2250.017	2303.371
104.045	24.934	2247.044	2295.934
105.060	25.223	2245.966	2298.276
106.074	25.466	2244.678	2299.809
107.089	25.252	2242.167	2294.220
108.103	24.906	2241.679	2288.994
109.118	25.214	2240.182	2291.147
110.133	25.332	2238.214	2290.368
111.147	25.325	2236.779	2288.537
112.162	25.424	2235.334	2288.055
113.176	25.302	2232.737	2283.558
114.191	25.101	2229.004	2276.910
115.206	24.927	2228.049	2273.437
116.220	25.170	2227.178	2275.372
117.235	25.200	2225.150	2273.420
118.249	25.118	2222.811	2269.702
119.264	25.027	2221.742	2267.190
120.279	24.935	2219.851	2263.813
121.293	25.051	2217.680	2262.800
122.308	25.218	2216.741	2263.692
123.322	25.065	2215.248	2259.963
124.337	24.639	2213.128	2252.136
125.352	25.347	2215.119	2262.860
126.366	26.061	2215.926	2272.453
127.381	25.974	2212.249	2267.317
128.395	25.802	2208.216	2260.743
129.410	25.513	2205.453	2254.003
130.424	25.366	2203.722	2250.102
131.439	25.578	2202.858	2251.627
132.454	25.381	2200.547	2246.522
133.468	25.562	2198.414	2246.345
134.483	25.520	2195.875	2242.954
135.497	25.331	2194.364	2238.769
136.512	25.504	2192.992	2239.269
137.527	25.622	2191.812	2239.276
138.541	25.606	2190.607	2237.574
139.556	25.624	2189.582	2236.483
140.570	25.592	2188.097	2234.296
141.585	25.343	2184.844	2227.603
142.600	25.170	2184.271	2224.595
143.614	25.102	2182.090	2221.268
144.629	25.277	2180.262	2221.313
145.643	25.012	2177.623	2215.072
146.658	24.959	2175.821	2212.319
147.673	24.883	2173.351	2208.594
148.687	24.713	2171.673	2204.519
149.702	24.743	2170.374	2203.311
150.716	24.929	2171.094	2206.078
151.731	25.535	2170.855	2213.069
152.746	25.686	2169.895	2213.695
153.760	25.330	2169.782	2208.915
154.775	25.700	2169.355	2212.791
155.789	25.966	2168.627	2215.066
156.804	25.652	2164.006	2206.209
157.819	25.107	2159.171	2194.317
158.833	24.944	2156.544	2189.376
159.848	25.145	2153.447	2188.436
160.862	25.259	2152.756	2188.866
161.877	25.616	2151.991	2192.200
162.892	25.517	2152.101	2190.839
163.906	25.691	2150.402	2190.985
164.921	25.585	2148.127	2187.105
165.935	25.434	2144.922	2181.734
166.950	25.123	2143.465	2176.202
167.964	25.192	2141.721	2175.013
168.979	25.066	2139.786	2171.255
169.994	25.170	2138.060	2170.508
171.008	25.006	2136.343	2166.507
172.023	24.891	2134.379	2162.862
173.037	25.185	2134.180	2165.972
174.052	25.279	2131.902	2164.543
175.067	25.071	2129.818	2159.639
176.081	25.026	2128.635	2157.643
177.096	25.042	2129.698	2158.649
178.110	25.204	2128.100	2158.736
179.125	25.231	2126.422	2157.107
180.140	25.369	2125.198	2157.269
181.154	25.585	2123.479	2157.869
182.169	25.579	2123.808	2157.874
183.183	25.796	2122.723	2159.131
184.198	26.339	2122.512	2165.188
185.213	26.460	2121.250	2165.099
186.227	25.918	2117.610	2154.615
187.242	25.484	2113.908	2145.392
188.256	25.211	2112.430	2140.359
189.271	25.596	2110.536	2142.792
190.286	25.192	2108.702	2135.838
191.300	24.945	2106.358	2130.258
192.315	25.161	2104.319	2130.523
193.329	25.267	2104.218	2131.424
194.344	25.427	2102.309	2131.143
195.359	25.320	2100.506	2127.786
196.373	25.355	2098.827	2126.255
197.388	25.247	2096.411	2122.261
198.402	25.327	2094.084	2120.605
199.417	25.423	2093.219	2120.615
200.432	25.411	2090.072	2117.035
201.446	25.195	2089.693	2113.835
202.461	25.266	2088.249	2112.962
203.475	25.165	2086.492	2109.736
204.490	25.114	2083.777	2106.136
205.504	25.212	2080.858	2104.088
206.519	25.194	2078.817	2101.568
207.534	25.293	2079.434	2103.097
208.548	25.540	2077.787	2104.090
209.563	25.288	2075.840	2098.901
210.577	25.538	2074.384	2100.120
211.592	25.661	2074.684	2101.619
212.607	25.672	2074.329	2101.129
213.621	25.943	2074.884	2104.621
214.636	25.944	2072.776	2102.240
215.650	26.053	2071.138	2101.608
216.665	25.891	2068.449	2096.731
217.680	25.689	2065.964	2091.606
218.694	25.521	2063.494	2086.889
219.709	25.179	2061.144	2080.283
220.723	24.950	2061.031	2077.243
221.738	25.485	2058.965	2081.147
222.753	25.720	2056.763	2081.406
223.767	25.583	2055.534	2078.320
224.782	25.495	2053.211	2074.702
225.796	25.328	2051.545	2070.827
226.811	25.407	2050.444	2070.384
227.826	25.463	2047.790	2068.109
228.840	25.183	2045.711	2062.522
229.855	25.240	2045.726	2062.948
230.869	25.233	2044.338	2061.224
231.884	25.543	2042.446	2062.648
232.899	25.550	2041.778	2061.807
233.913	25.346	2041.257	2058.678
234.928	25.344	2039.791	2056.929
235.942	25.111	2036.313	2050.500
236.957	24.953	2034.954	2047.076
237.972	25.170	2034.443	2048.805
238.986	25.113	2032.755	2046.203
240.001	24.910	2031.027	2041.889
241.015	24.834	2029.943	2039.690
242.030	25.443	2031.808	2048.300
243.045	26.291	2030.727	2056.671
244.059	26.493	2030.539	2058.546
245.074	26.307	2026.086	2051.664
246.088	25.676	2022.726	2040.825
247.103	25.606	2020.630	2037.666
248.117	26.067	2019.370	2041.398
249.132	25.810	2018.183	2037.026
250.147	25.417	2014.946	2029.056
251.161	24.974	2013.843	2022.673
252.176	25.116	2012.650	2022.853
253.190	25.073	2009.614	2019.071
254.205	25.120	2007.156	2016.891
255.220	24.898	2006.114	2013.090
256.234	24.648	2005.007	2008.918
257.249	24.735	2003.114	2007.761
258.263	24.822	2002.988	2008.371
259.278	24.966	2001.907	2008.674
260.293	25.109	2000.408	2008.538
261.307	25.066	1998.938	2006.336
262.322	25.378	1997.007	2007.668
263.336	24.914	1995.075	2000.275
264.351	24.877	1993.639	1998.181
265.366	25.234	1992.914	2001.221
266.380	25.362	1992.463	2001.959
267.395	25.374	1990.965	2000.353
268.409	25.435	1989.576	1999.392
269.424	25.463	1987.448	1997.332
270.439	25.449	1986.436	1995.919
271.453	25.814	1987.259	2000.580
272.468	26.256	1986.345	2004.357
273.482	26.115	1984.087	2000.264
274.497	25.656	1979.792	1990.591
275.512	25.482	1976.842	1985.454
276.526	25.447	1975.322	1983.303
277.541	25.239	1972.401	1977.831
278.555	24.965	1970.446	1972.601
279.570	24.849	1969.012	1969.643
280.585	24.990	1967.348	1969.300
281.599	25.048	1966.224	1968.580
282.614	25.312	1964.887	1969.922
283.628	25.329	1964.394	1969.376
284.643	25.218	1962.104	1965.625
285.657	24.797	1960.321	1958.968
286.672	24.702	1958.943	1956.311
287.687	24.608	1956.610	1952.722
288.701	24.505	1955.968	1950.712
289.716	24.125	1953.266	1943.616
290.730	23.616	1950.708	1935.264
291.745	24.317	1950.342	1942.345
292.760	24.637	1950.690	1945.967
293.774	24.709	1950.614	1946.444
294.789	25.044	1950.591	1949.846
295.803	25.273	1947.753	1949.278
296.818	25.278	1946.568	1947.914
297.833	25.482	1946.095	1949.432
298.847	25.382	1944.065	1946.073
299.862	25.069	1941.822	1940.196
300.876	25.420	1942.021	1943.978
301.891	26.314	1943.322	1954.770
302.906	26.486	1942.635	1955.714
303.920	25.651	1939.532	1943.296
304.935	25.621	1936.123	1939.323
305.949	25.495	1933.702	1935.307
306.964	25.455	1931.697	1932.632
307.979	25.074	1928.429	1925.020
308.993	23.877	1924.183	1907.646
310.008	22.890	1919.140	1891.801
311.022	22.685	1917.562	1887.815
312.037	22.635	1916.681	1886.183
313.052	22.592	1914.716	1883.560
314.066	22.321	1912.851	1878.598
315.081	22.528	1912.233	1879.977
316.095	22.611	1910.583	1879.024
317.110	22.362	1909.332	1874.904
318.125	22.330	1906.988	1872.033
319.139	22.213	1906.048	1869.638
320.154	22.591	1905.319	1872.732
321.168	22.793	1903.845	1873.223
322.183	23.721	1906.661	1885.676
323.197	24.927	1907.921	1899.565
324.212	25.312	1906.445	1901.962
325.227	25.154	1904.608	1898.225
326.241	25.377	1903.702	1899.460
327.256	25.491	1902.725	1899.475
328.270	25.086	1900.725	1892.952
329.285	25.057	1899.621	1891.315
330.300	25.263	1901.035	1894.686
331.314	25.970	1901.069	1901.988
332.329	26.187	1898.531	1901.522
333.343	25.520	1894.500	1890.208
334.358	25.055	1892.501	1883.075
335.373	25.088	1891.501	1882.206
336.387	25.494	1890.316	1885.080
337.402	25.589	1888.116	1883.660
338.416	25.517	1886.105	1880.673
339.431	25.416	1885.425	1878.711
340.446	25.305	1883.449	1875.357
341.460	24.850	1880.390	1867.307
342.475	24.120	1876.220	1855.300
343.489	23.011	1872.682	1839.992
344.504	22.586	1870.956	1833.630
345.519	22.604	1868.274	1830.970
346.533	22.470	1866.141	1827.263
347.548	22.384	1865.771	1825.787
348.562	22.484	1865.222	1826.067
349.577	22.555	1864.069	1825.462
350.592	22.810	1862.771	1826.628
351.606	22.800	1862.175	1825.717
352.621	22.332	1860.356	1818.853
353.635	22.300	1858.586	1816.574
354.650	23.047	1859.045	1824.557
355.665	24.278	1860.922	1838.951
356.679	24.922	1860.060	1844.551
357.694	25.402	1860.012	1849.254
358.708	25.571	1859.461	1850.232
359.723	25.735	1859.733	1851.978
360.738	26.319	1859.771	1857.826
361.752	26.482	1858.083	1857.599
362.767	26.251	1854.894	1851.810
363.781	25.854	1851.852	1844.471
364.796	25.482	1850.328	1838.904
365.810	25.482	1849.494	1837.854
366.825	25.109	1844.903	1829.253
367.840	23.350	1840.591	1806.737
368.854	22.398	1838.272	1794.502
369.869	22.363	1836.377	1792.079
370.883	22.636	1835.508	1793.802
371.898	22.821	1834.952	1794.935
372.913	22.784	1832.552	1791.995
373.927	22.482	1831.084	1787.270
374.942	22.520	1830.814	1787.176
375.956	23.375	1831.445	1796.293
376.971	23.958	1830.339	1800.934
377.986	24.087	1828.829	1800.540
379.000	24.066	1827.127	1798.435
380.015	23.972	1826.600	1796.750
381.029	24.716	1826.483	1803.965
382.044	25.146	1825.504	1807.135
383.059	25.092	1824.322	1805.205
384.073	25.185	1823.704	1805.319
385.088	25.398	1822.974	1806.535
386.102	25.373	1821.802	1804.909
387.117	24.993	1819.005	1798.088
388.132	25.115	1818.910	1799.005
389.146	25.417	1820.306	1803.216
390.161	26.042	1820.171	1809.168
391.175	26.110	1815.445	1804.937
392.190	25.389	1810.388	1792.472
393.205	25.250	1808.933	1789.423
394.219	25.221	1807.322	1787.325
395.234	24.984	1805.841	1783.267
396.248	25.085	1803.177	1781.438
397.263	24.868	1801.632	1777.535
398.278	24.953	1799.767	1776.327
399.292	25.008	1798.742	1775.648
400.307	24.918	1797.552	1773.365
401.321	24.633	1796.389	1769.171
402.336	24.738	1795.768	1769.395
403.350	24.626	1793.516	1765.853
404.365	24.505	1791.231	1762.183
405.380	23.849	1788.094	1752.391
406.394	22.550	1785.235	1736.525
407.409	22.279	1783.421	1731.867
408.423	22.510	1782.264	1732.824
409.438	22.373	1781.247	1730.274
410.453	22.360	1779.985	1728.714
411.467	22.690	1778.687	1730.495
412.482	22.842	1778.252	1731.368
413.496	24.292	1780.984	1748.116
414.511	25.272	1781.025	1757.607
415.526	25.204	1778.080	1753.820
416.540	25.240	1776.789	1752.686
417.555	25.295	1776.827	1753.052
418.569	25.316	1777.313	1753.530
419.584	25.293	1776.450	1752.241
420.599	25.492	1775.697	1753.242
421.613	25.866	1774.765	1755.777
422.628	25.514	1772.700	1750.080
423.642	25.014	1770.253	1742.571
424.657	24.629	1768.479	1736.857
425.672	24.958	1766.702	1738.115
426.686	25.030	1765.188	1737.116
427.701	24.685	1763.613	1731.994
428.715	24.807	1761.884	1731.278
429.730	24.965	1761.821	1732.542
430.745	25.268	1761.218	1734.689
431.759	25.430	1760.891	1735.732
432.774	25.894	1761.030	1740.165
433.788	25.124	1756.708	1728.235
434.803	23.695	1754.864	1712.374
435.818	23.620	1753.535	1710.137
436.832	23.505	1753.014	1708.318
437.847	23.111	1746.267	1697.734
438.861	14.498	1721.522	1591.208
439.876	3.091	1699.512	1462.136
440.890	0.406	1693.866	1431.513
441.905	0.093	1693.783	1428.280
442.920	0.147	1691.664	1426.843
443.934	0.132	1689.862	1425.008
444.949	-0.023	1689.671	1423.205
445.963	-0.055	1688.961	1422.130
446.978	-0.006	1688.594	1422.119
447.993	0.027	1686.908	1420.838
449.007	0.098	1684.687	1419.473
450.022	0.166	1682.048	1417.718
451.036	0.222	1680.728	1416.972
452.051	1.529	1687.966	1435.304
453.066	12.405	1712.554	1560.310
454.080	22.481	1728.115	1670.866
455.095	24.697	1732.759	1696.315
456.109	26.730	1735.785	1718.469
457.124	27.478	1736.013	1725.620
458.139	27.123	1734.131	1720.166
459.153	26.833	1732.799	1715.879
460.168	26.669	1731.631	1712.963
461.182	27.020	1730.759	1715.224
462.197	27.528	1729.488	1718.580
463.212	27.611	1727.978	1717.659
464.226	27.695	1727.309	1717.587
465.241	27.749	1726.347	1716.932
466.255	28.086	1726.020	1719.587
467.270	28.144	1723.957	1717.876
468.285	28.069	1722.948	1715.958
469.299	28.382	1721.782	1717.537
470.314	28.496	1720.807	1717.433
471.328	28.527	1719.462	1716.176
472.343	28.545	1718.811	1715.494
473.358	28.514	1717.598	1713.780
474.372	28.586	1716.624	1713.281
475.387	28.587	1715.435	1711.899
476.401	28.514	1713.304	1708.885
477.416	28.193	1711.566	1703.947
478.430	28.336	1710.552	1704.070
479.445	28.301	1709.657	1702.646
480.460	27.969	1708.579	1698.266
481.474	28.143	1707.273	1698.389
482.489	28.551	1706.429	1701.149
483.503	28.654	1704.412	1699.892
484.518	28.459	1702.795	1696.262
485.533	28.659	1702.055	1697.179
486.547	28.614	1700.401	1694.910
487.562	28.605	1699.504	1693.736
488.576	28.739	1698.438	1693.708
489.591	28.884	1697.207	1693.619
490.606	28.841	1696.373	1692.190
491.620	28.833	1694.422	1689.967
492.635	28.924	1692.850	1689.037
493.649	28.737	1690.557	1684.824
494.664	28.314	1689.170	1679.338
495.679	28.079	1687.088	1674.902
496.693	28.150	1686.459	1674.733
497.708	28.403	1686.128	1676.534
498.722	28.731	1685.126	1678.346
499.737	28.856	1684.353	1678.528
500.752	28.745	1682.643	1675.601
501.766	28.599	1680.978	1672.406
502.781	28.790	1679.222	1672.204
503.795	28.718	1678.177	1670.305
504.810	28.782	1676.853	1669.377
505.825	28.764	1676.462	1668.625
506.839	28.502	1674.563	1664.141
507.854	28.414	1672.814	1661.400
508.868	28.359	1670.743	1658.651
509.883	28.198	1669.254	1655.505
510.898	28.129	1667.792	1653.236
511.912	27.562	1665.569	1645.682
512.927	26.852	1663.331	1636.842
513.941	26.823	1661.688	1634.764
514.956	27.082	1661.123	1636.360
515.971	27.741	1659.492	1640.513
516.985	27.617	1658.264	1637.984
518.000	27.247	1657.171	1633.363
519.014	27.041	1657.094	1631.234
520.029	27.415	1654.974	1632.322
521.043	27.332	1653.468	1629.895
522.058	27.377	1653.031	1629.675
523.073	27.661	1652.572	1631.582
524.087	27.998	1652.103	1633.958
525.102	28.258	1650.771	1634.778
526.116	28.214	1649.948	1633.366
527.131	28.333	1649.365	1633.660
528.146	28.793	1649.339	1637.563
529.160	28.943	1648.962	1638.341
530.175	29.112	1647.437	1638.133
531.189	29.333	1646.273	1638.759
532.204	29.274	1644.926	1636.697
533.219	28.916	1643.498	1631.888
534.233	28.627	1641.755	1627.380
535.248	28.723	1640.287	1626.586
536.262	28.737	1640.382	1626.616
537.277	29.154	1639.263	1629.020
538.292	29.172	1637.821	1627.549
539.306	29.131	1635.794	1624.972
540.321	28.998	1634.094	1621.918
541.335	28.596	1632.517	1616.594
542.350	28.881	1631.831	1618.242
543.365	29.412	1630.230	1621.158
544.379	29.499	1629.629	1621.133
545.394	29.511	1628.008	1619.435
546.408	28.965	1625.394	1611.831
547.423	28.432	1624.371	1605.928
548.438	28.575	1623.804	1606.436
549.452	28.916	1622.560	1608.014
550.467	28.969	1620.895	1606.629
551.481	28.970	1620.114	1605.676
552.496	29.022	1620.131	1605.954
553.511	29.194	1620.128	1607.266
554.525	29.420	1618.455	1607.397
555.540	29.276	1617.520	1605.020
556.554	29.430	1616.473	1605.135
557.569	29.214	1613.545	1600.148
558.583	28.862	1611.628	1594.986
559.598	28.822	1610.593	1593.418
560.613	28.866	1609.768	1592.793
561.627	28.766	1608.568	1590.551
562.642	28.583	1606.750	1586.967
563.656	28.454	1605.097	1584.023
564.671	28.154	1603.393	1579.552
565.686	27.974	1601.570	1576.010
566.700	27.715	1599.276	1571.322
567.715	27.634	1597.358	1568.544
568.729	27.702	1596.515	1568.115
569.744	28.016	1595.567	1569.709
570.759	28.263	1594.189	1570.295
571.773	28.026	1593.319	1567.206
572.788	27.986	1593.011	1566.378
573.802	27.863	1590.644	1562.801
574.817	27.913	1588.713	1561.145
575.832	28.135	1588.826	1562.982
576.846	28.650	1588.696	1567.082
577.861	28.884	1587.896	1568.113
578.875	28.984	1587.637	1568.526
579.890	29.307	1587.453	1570.928
580.905	29.544	1586.231	1571.556
581.919	29.630	1586.748	1572.611
582.934	29.820	1585.824	1573.137
583.948	29.652	1584.381	1570.083
584.963	29.441	1582.342	1566.068
585.978	29.126	1579.641	1560.526
586.992	29.188	1579.129	1560.367
588.007	29.467	1578.465	1561.891
589.021	28.944	1575.781	1554.611
590.036	27.970	1573.678	1544.081
591.051	28.635	1573.548	1549.417
592.065	29.363	1572.955	1554.814
593.080	29.506	1571.604	1554.505
594.094	29.651	1570.334	1554.292
595.109	29.199	1567.900	1547.881
596.123	29.017	1566.953	1545.221
597.138	29.392	1566.445	1547.695
598.153	29.532	1564.573	1546.846
599.167	29.176	1563.450	1542.548
600.182	29.114	1562.305	1540.718
601.196	29.385	1561.424	1541.938
602.211	29.492	1560.256	1541.499
603.226	29.643	1559.462	1541.796
604.240	29.770	1558.335	1541.560
605.255	29.931	1557.693	1542.092
606.269	29.685	1557.021	1539.187
607.284	29.511	1555.934	1536.465
608.299	29.637	1553.518	1534.952
609.313	29.303	1551.763	1530.248
610.328	29.169	1550.612	1527.814
611.342	29.494	1548.262	1528.017
612.357	29.362	1548.545	1527.012
613.372	29.267	1547.744	1525.252
614.386	29.153	1545.770	1522.177
615.401	29.156	1544.968	1521.228
616.415	28.990	1544.100	1518.814
617.430	28.631	1542.823	1514.404
618.445	28.519	1540.754	1511.261
619.459	28.231	1539.911	1507.868
620.474	28.059	1538.479	1504.863
621.488	28.176	1537.168	1504.370
622.503	28.395	1535.956	1504.808
623.518	28.431	1534.838	1503.833
624.532	28.499	1533.886	1503.281
625.547	28.435	1533.187	1501.887
626.561	28.430	1532.690	1501.179
627.576	28.636	1531.109	1501.143
628.591	28.545	1530.009	1499.144
629.605	28.580	1529.370	1498.624
630.620	28.859	1528.265	1499.647
631.634	29.017	1526.688	1499.218
632.649	29.079	1525.918	1498.786
633.663	29.036	1525.142	1497.494
634.678	28.821	1523.588	1494.034
635.693	28.551	1521.987	1490.078
636.707	28.681	1520.116	1489.131
637.722	28.890	1518.984	1489.541
638.736	29.199	1518.386	1491.296
639.751	29.623	1517.885	1494.070
640.766	29.575	1516.873	1492.508
641.780	29.363	1516.200	1489.946
642.795	29.695	1515.229	1491.508
643.809	29.865	1514.371	1491.856
644.824	29.971	1514.353	1492.526
645.839	30.150	1512.840	1492.303
646.853	29.998	1511.539	1489.608
647.868	29.838	1509.261	1485.892
648.882	29.574	1508.365	1482.708
649.897	29.455	1507.233	1480.458
650.912	29.368	1505.499	1477.876
651.926	29.667	1504.838	1479.452
652.941	29.679	1502.884	1477.451
653.955	29.215	1500.383	1471.098
654.970	28.343	1496.950	1460.570
655.985	28.258	1496.138	1458.922
656.999	28.121	1495.340	1456.868
658.014	28.476	1495.233	1459.429
659.028	29.053	1495.122	1463.767
660.043	29.470	1494.891	1466.696
661.058	29.781	1493.720	1467.854
662.072	29.776	1492.821	1466.751
663.087	29.615	1491.392	1463.893
664.101	29.454	1489.677	1460.754
665.116	29.629	1489.200	1461.503
666.131	29.580	1488.603	1460.352
667.145	29.809	1487.732	1461.143
668.160	29.842	1486.553	1460.067
669.174	29.835	1485.076	1458.387
670.189	29.930	1484.033	1457.943
671.204	29.895	1483.925	1457.386
672.218	29.869	1482.883	1455.983
673.233	30.194	1481.545	1457.059
674.247	30.245	1480.301	1456.060
675.262	30.174	1479.071	1454.121
676.276	30.039	1477.354	1451.194
677.291	29.887	1476.644	1449.124
678.306	29.965	1475.643	1448.586
679.320	29.737	1474.199	1445.204
680.335	29.615	1473.333	1443.223
681.349	29.805	1472.558	1443.784
682.364	29.772	1471.067	1441.888
683.379	29.602	1469.452	1438.801
684.393	29.440	1467.540	1435.488
685.408	29.383	1467.225	1434.562
686.422	29.387	1465.755	1432.991
687.437	28.953	1464.891	1428.582
688.452	28.841	1463.909	1426.579
689.466	28.794	1461.731	1423.921
690.481	28.743	1460.153	1421.815
691.495	28.776	1460.131	1421.885
692.510	29.054	1459.620	1423.378
693.525	29.313	1458.347	1423.974
694.539	29.340	1456.177	1421.896
695.554	29.026	1455.600	1418.732
696.568	28.912	1454.422	1416.530
697.583	28.885	1453.362	1415.121
698.598	29.134	1453.241	1416.758
699.612	29.421	1451.608	1417.214
700.627	29.560	1451.397	1417.909
701.641	29.863	1450.334	1419.039
702.656	29.942	1449.750	1418.901
703.671	30.044	1449.868	1419.638
704.685	30.143	1449.014	1419.393
705.700	30.097	1446.644	1416.542
706.714	29.815	1444.545	1412.158
707.729	29.542	1443.890	1409.257
708.744	29.687	1442.447	1408.789
709.758	29.459	1440.507	1404.981
710.773	29.004	1438.271	1399.152
711.787	28.668	1437.353	1395.530
712.802	29.271	1437.030	1399.653
713.816	29.513	1436.728	1401.032
714.831	29.741	1435.360	1401.267
715.846	29.801	1434.464	1400.684
716.860	29.833	1433.025	1399.353
717.875	29.636	1432.578	1397.252
718.889	29.500	1430.972	1394.489
719.904	29.569	1430.131	1394.023
720.919	29.639	1428.824	1393.114
721.933	29.701	1427.951	1392.564
722.948	29.475	1427.010	1389.775
723.962	29.631	1425.999	1389.800
724.977	29.585	1426.027	1389.311
725.992	29.814	1424.986	1389.860
727.006	30.171	1423.653	1391.086
728.021	29.929	1422.164	1387.647
729.035	30.082	1420.617	1387.117
730.050	30.075	1419.564	1385.872
731.065	30.043	1417.874	1383.820
732.079	30.049	1416.354	1382.213
733.094	29.981	1416.369	1381.552
734.108	30.054	1415.012	1380.610
735.123	30.163	1412.839	1379.137
736.138	29.885	1412.375	1376.447
737.152	29.847	1411.371	1375.019
738.167	29.839	1411.066	1374.495
739.181	29.854	1410.176	1373.579
740.196	30.023	1409.266	1373.782
741.211	29.717	1408.379	1370.475
742.225	29.857	1407.166	1370.176
743.240	29.592	1405.631	1366.547
744.254	29.565	1403.247	1363.866
745.269	29.327	1401.952	1360.678
746.284	29.101	1401.050	1357.963
747.298	28.974	1399.906	1355.752
748.313	29.010	1398.550	1354.539
749.327	29.163	1398.627	1355.588
750.342	29.363	1397.829	1356.130
751.356	29.385	1396.811	1355.141
752.371	29.210	1395.577	1352.492
753.386	29.297	1394.415	1351.840
754.400	29.371	1394.695	1352.501
755.415	29.760	1393.906	1354.433
756.429	30.017	1392.470	1354.766
757.444	30.214	1390.705	1354.337
758.459	30.157	1389.376	1352.462
759.473	29.949	1388.477	1349.896
760.488	29.645	1387.476	1346.539
761.502	29.406	1385.459	1342.672
762.517	29.616	1385.183	1343.779
763.532	29.845	1383.086	1343.258
764.546	29.605	1381.716	1340.015
765.561	28.907	1380.721	1333.801
766.575	28.288	1378.231	1326.729
767.590	28.093	1377.332	1324.285
768.605	29.082	1377.085	1331.081
769.619	29.391	1377.136	1333.221
770.634	29.626	1376.021	1333.687
771.648	29.698	1374.550	1332.618
772.663	29.472	1373.976	1330.272
773.678	29.700	1373.869	1331.660
774.692	29.998	1373.124	1332.929
775.707	29.860	1373.192	1331.836
776.721	29.875	1372.150	1330.775
777.736	29.871	1370.948	1329.425
778.751	29.817	1369.955	1327.911
779.765	29.792	1368.993	1326.642
780.780	29.751	1368.504	1325.712
781.794	29.787	1367.114	1324.470
782.809	29.534	1364.794	1320.245
783.824	29.131	1363.235	1315.683
784.838	29.063	1362.067	1313.910
785.853	29.098	1361.493	1313.453
786.867	29.232	1361.026	1313.801
787.882	29.146	1359.860	1311.905
788.897	28.963	1358.819	1309.433
789.911	28.821	1357.644	1307.126
790.926	28.821	1356.497	1305.869
791.940	29.071	1355.457	1306.493
792.955	29.244	1353.999	1306.162
793.969	29.340	1352.752	1305.490
794.984	29.340	1352.638	1305.223
795.999	29.676	1351.892	1306.738
797.013	29.961	1350.090	1306.863
798.028	29.727	1349.238	1304.221
799.042	29.740	1349.152	1304.071
800.057	29.655	1347.652	1301.861
801.072	29.658	1346.365	1300.483
802.086	29.746	1345.054	1299.686
803.101	29.822	1344.434	1299.469
804.115	29.718	1343.090	1297.281
805.130	29.773	1341.358	1295.842
806.145	29.656	1340.438	1293.969
807.159	29.183	1339.564	1289.648
808.174	29.435	1338.474	1290.215
809.188	29.493	1337.339	1289.375
810.203	29.390	1335.188	1286.419
811.218	29.046	1333.027	1281.777
812.232	28.677	1331.323	1277.408
813.247	28.192	1330.590	1273.156
814.261	28.779	1331.809	1278.283
815.276	29.440	1330.635	1281.620
816.291	29.370	1328.860	1279.269
817.305	29.352	1328.169	1278.321
818.320	29.465	1326.821	1277.657
819.334	29.648	1326.205	1278.183
820.349	29.646	1325.425	1277.267
821.364	29.818	1323.708	1276.650
822.378	29.919	1321.988	1275.540
823.393	29.585	1320.867	1271.991
824.407	29.574	1319.645	1270.586
825.422	29.399	1319.534	1269.118
826.437	29.283	1318.484	1267.157
827.451	29.114	1315.983	1263.438
828.466	29.222	1313.920	1262.048
829.480	29.253	1312.614	1260.857
830.495	29.115	1311.135	1258.337
831.509	28.921	1310.121	1255.877
832.524	28.849	1310.213	1255.323
833.539	29.386	1308.845	1257.543
834.553	29.621	1307.813	1258.011
835.568	29.488	1306.752	1255.931
836.582	29.618	1305.668	1255.624
837.597	29.798	1303.935	1255.037
838.612	29.547	1302.320	1251.626
839.626	29.347	1301.305	1249.133
840.641	29.208	1300.289	1247.064
841.655	28.938	1299.480	1244.307
842.670	28.462	1297.686	1239.202
843.685	27.896	1296.568	1234.146
844.699	28.642	1295.551	1238.087
845.714	29.075	1294.734	1240.095
846.728	29.144	1293.768	1239.489
847.743	29.026	1293.398	1238.189
848.758	29.295	1292.931	1239.407
849.772	29.401	1292.111	1239.192
850.787	29.435	1290.540	1237.765
851.801	29.390	1289.252	1236.075
852.816	29.544	1287.951	1235.718
853.831	29.318	1286.191	1232.361
854.845	29.217	1284.858	1230.262
855.860	29.129	1282.502	1227.267
856.874	29.030	1280.808	1224.842
857.889	28.966	1280.120	1223.606
858.904	29.122	1279.558	1223.967
859.918	29.379	1278.150	1224.185
860.933	29.395	1276.864	1222.914
861.947	29.196	1276.048	1220.663
862.962	28.902	1274.409	1216.995
863.977	28.805	1273.121	1214.973
864.991	28.914	1272.713	1215.161
866.006	28.944	1272.621	1215.128
867.020	29.073	1271.398	1214.667
868.035	29.311	1269.951	1214.719
869.049	29.356	1269.516	1214.455
870.064	29.423	1269.229	1214.479
871.079	29.390	1267.977	1212.919
872.093	29.253	1266.707	1210.652
873.108	29.181	1265.286	1208.673
874.122	28.814	1263.867	1204.753
875.137	28.516	1262.753	1201.585
876.152	28.569	1261.883	1200.964
877.166	28.500	1260.286	1198.845
878.181	28.729	1259.250	1199.220
879.195	28.963	1258.534	1199.928
880.210	29.142	1258.428	1200.858
881.225	29.241	1257.990	1200.944
882.239	29.199	1257.007	1199.587
883.254	29.314	1256.074	1199.309
884.268	29.507	1254.752	1199.164
885.283	29.227	1253.365	1195.864
886.298	29.294	1251.625	1194.498
887.312	29.273	1250.999	1193.624
888.327	29.087	1250.260	1191.565
889.341	29.206	1248.432	1190.453
890.356	29.107	1248.023	1189.279
891.371	28.914	1248.064	1187.923
892.385	28.965	1247.043	1187.137
893.400	28.849	1245.004	1184.305
894.414	28.924	1243.785	1183.487
895.429	28.904	1242.641	1182.127
896.444	29.236	1241.360	1182.911
897.458	29.347	1240.150	1182.329
898.473	29.254	1239.376	1180.850
899.487	28.936	1238.855	1178.167
900.502	28.973	1237.288	1176.775
901.517	28.897	1236.094	1175.013
902.531	28.758	1235.460	1173.373
903.546	29.059	1234.439	1174.193
904.560	29.241	1234.035	1174.835
905.575	29.096	1232.892	1172.677
906.589	29.028	1231.854	1171.116
907.604	28.959	1231.203	1169.915
