DTS Sentinel unit serial number:	SN409020Multiplexer serial number:	ORYXHardware model number:	OX4-SRSoftware version number:	ORYX F/W v3.00 Oryx Data Collector v3.7.2.0data status	okinstallation	HaddamTimeLapsedifferential loss correction	single-endedforward channel	channel 3reverse channel	N/Adate	2011/06/22time	09:31:17forward acquisition time	30.00reverse acquisition time	0.00gamma	498.7831k internal	0.1792k external	0.1792temperature offset calibration	1.0074default loss term (dB/km)	0.3790temperature slope calibration	1.3530multiplexer offset coefficient	1.0000multiplexer slope coefficient	1.0000fibre end	0.00T internal ref (°C)	27.84T ext. ref 1 (°C)	22.88T ext. ref 2 (°C)	0.19length (m)	temperature (°C)	Stokes	anti-Stokes-747.200	-138.958	0.429	0.060
-746.185	800.000	0.107	0.428
-745.171	-90.044	0.174	-0.066
-744.156	12.045	0.081	0.081
-743.142	53.683	0.239	0.298
-742.127	428.289	-0.142	0.401
-741.112	-16.336	0.154	0.127
-740.098	-76.876	-0.048	-0.022
-739.083	-152.029	-0.206	-0.019
-738.069	800.000	0.063	0.271
-737.054	24.608	-0.459	0.493
-736.039	78.236	0.232	0.321
-735.025	-200.000	-0.028	0.270
-734.010	-5.710	0.284	-0.252
-732.996	800.000	0.067	-0.376
-731.981	46.837	0.300	-0.362
-730.966	-113.799	-0.056	-0.014
-729.952	-157.704	-0.246	-0.019
-728.937	-53.583	-0.129	-0.077
-727.923	-68.223	-0.456	-0.229
-726.908	-37.479	-0.088	0.061
-725.894	214.286	-0.167	-0.343
-724.879	71.542	-0.128	-0.173
-723.864	800.000	0.124	-0.618
-722.850	-105.764	0.543	-0.158
-721.835	85.340	0.228	0.325
-720.821	-114.958	-0.249	-0.061
-719.806	729.801	0.130	-0.452
-718.791	176.709	-0.275	-0.520
-717.777	-45.562	-0.329	-0.211
-716.762	316.184	-0.163	-0.401
-715.748	-55.691	0.466	0.269
-714.733	-200.000	0.028	-0.249
-713.718	-138.871	0.282	-0.039
-712.704	-67.134	0.149	-0.076
-711.689	-175.478	-0.228	-0.008
-710.675	-200.000	0.025	-0.266
-709.660	-92.215	-0.072	0.026
-708.645	2.273	-0.149	0.140
-707.631	-200.000	-0.032	0.652
-706.616	297.213	-0.044	-0.104
-705.602	96.363	-0.266	-0.395
-704.587	-13.277	-0.023	0.019
-703.572	-149.958	-0.036	0.004
-702.558	-30.049	0.091	-0.067
-701.543	-45.563	0.107	-0.068
-700.529	136.517	-0.111	-0.188
-699.514	39.359	0.194	-0.225
-698.499	646.458	0.087	0.291
-697.485	-19.166	-0.142	-0.114
-696.470	-39.909	-0.460	-0.311
-695.456	50.032	-0.155	0.189
-694.441	-56.194	0.178	-0.102
-693.426	-89.079	0.226	-0.086
-692.412	-200.000	-0.014	0.322
-691.397	237.129	0.076	0.164
-690.383	-52.440	0.343	0.205
-689.368	-187.931	-0.581	-0.010
-688.354	-20.103	-0.347	0.277
-687.339	342.610	0.135	0.345
-686.324	-73.435	0.141	0.066
-685.310	-96.353	-0.237	0.081
-684.295	-200.000	0.026	-0.539
-683.281	-82.775	0.115	0.048
-682.266	-200.000	-0.072	-0.463
-681.251	800.000	-0.051	0.267
-680.237	-200.000	-0.022	-0.344
-679.222	-35.233	-0.102	0.072
-678.208	-80.616	0.159	0.068
-677.193	-200.000	0.062	0.434
-676.178	125.927	0.206	0.337
-675.164	121.210	-0.017	0.028
-674.149	695.340	0.042	-0.144
-673.135	-2.750	-0.133	-0.120
-672.120	-16.047	0.294	-0.242
-671.105	136.458	-0.222	-0.376
-670.091	-79.428	-0.210	0.092
-669.076	9.478	-0.152	0.149
-668.062	51.990	0.060	-0.074
-667.047	6.073	0.396	-0.379
-666.032	800.000	-0.091	-0.406
-665.018	-105.166	0.518	-0.152
-664.003	-104.379	-0.145	0.043
-662.989	-155.091	-0.494	-0.041
-661.974	-200.000	0.023	-0.605
-660.959	-74.489	0.159	-0.074
-659.945	81.900	0.125	-0.176
-658.930	349.139	0.126	0.324
-657.916	-78.262	-0.322	-0.142
-656.901	-200.000	-0.012	-0.223
-655.886	53.009	-0.260	0.323
-654.872	-52.679	-0.352	0.210
-653.857	-86.209	0.337	0.134
-652.843	-200.000	0.033	-0.407
-651.828	754.614	-0.126	0.445
-650.814	-168.030	0.239	-0.012
-649.799	-167.952	-0.560	-0.028
-648.784	-134.710	-0.233	-0.036
-647.770	-115.238	-0.355	-0.086
-646.755	109.446	-0.025	0.039
-645.741	-49.380	0.336	-0.206
-644.726	270.441	-0.115	0.263
-643.711	647.651	0.065	0.217
-642.697	13.289	-0.207	0.207
-641.682	44.275	0.055	0.065
-640.668	135.567	-0.130	-0.219
-639.653	-76.362	-0.209	0.095
-638.638	-130.851	-0.365	0.063
-637.624	-79.356	0.195	-0.085
-636.609	-1.610	-0.302	-0.275
-635.595	414.846	-0.080	0.221
-634.580	-200.000	-0.016	0.104
-633.565	-138.197	0.428	-0.061
-632.551	-39.236	0.136	0.092
-631.536	-12.607	0.234	-0.197
-630.522	-140.548	0.387	-0.051
-629.507	-200.000	-0.012	-0.380
-628.492	10.188	0.184	0.181
-627.478	85.799	0.102	0.146
-626.463	17.120	-0.334	-0.342
-625.449	181.203	-0.170	0.324
-624.434	-69.572	0.439	0.216
-623.419	-87.531	0.448	-0.174
-622.405	-200.000	0.062	-0.385
-621.390	-200.000	0.013	-0.223
-620.376	-6.443	-0.092	-0.081
-619.361	-200.000	0.005	-0.503
-618.346	13.784	-0.318	-0.319
-617.332	-56.411	-0.280	-0.160
-616.317	-191.217	-0.127	0.002
-615.303	-105.328	-0.054	-0.016
-614.288	-96.381	-0.218	-0.074
-613.273	-200.000	0.043	-0.365
-612.259	-95.278	0.165	0.057
-611.244	204.693	-0.123	-0.247
-610.230	75.987	-0.251	-0.343
-609.215	-103.265	-0.245	0.074
-608.201	-91.554	-0.138	0.050
-607.186	106.178	-0.075	0.115
-606.171	-55.677	-0.333	-0.192
-605.157	31.858	0.178	0.198
-604.142	-73.129	-0.364	0.172
-603.128	-95.767	0.306	-0.105
-602.113	-69.794	-0.608	-0.299
-601.098	78.004	-0.251	-0.346
-600.084	425.469	0.039	-0.109
-599.069	-200.000	-0.056	-0.862
-598.055	800.000	-0.064	0.245
-597.040	684.655	-0.021	0.070
-596.025	800.000	0.021	0.117
-595.011	5.344	0.400	-0.381
-593.996	-102.182	-0.473	0.146
-592.982	-52.599	0.233	-0.138
-591.967	-62.944	0.159	-0.085
-590.952	584.170	0.297	0.945
-589.938	-120.767	-0.358	0.077
-588.923	-135.846	-0.453	0.068
-587.909	-27.335	-0.326	-0.244
-586.894	-84.400	0.177	0.072
-585.879	10.853	-0.160	-0.157
-584.865	-64.433	-0.240	-0.125
-583.850	-152.915	-0.287	0.026
-582.836	443.630	0.057	0.161
-581.821	-113.728	0.341	-0.085
-580.806	95.785	-0.166	0.245
-579.792	-112.505	-0.731	-0.187
-578.777	-90.597	-0.130	-0.048
-577.763	-159.918	0.331	-0.023
-576.748	-200.000	0.027	-0.319
-575.733	-55.691	0.239	-0.138
-574.719	264.751	-0.165	-0.372
-573.704	-11.348	-0.285	-0.241
-572.690	-122.790	-0.078	-0.016
-571.675	-142.558	0.184	-0.023
-570.661	40.206	-0.036	0.041
-569.646	-50.321	-0.277	-0.168
-568.631	-131.725	-0.039	0.006
-567.617	-107.528	0.098	0.027
-566.602	166.505	0.274	-0.502
-565.588	121.579	0.105	0.169
-564.573	-49.007	0.338	0.208
-563.558	-200.000	-0.035	0.235
-562.544	800.000	-0.024	0.115
-561.529	-90.906	-0.023	-0.009
-560.515	-62.997	0.226	-0.120
-559.500	800.000	-0.088	-0.496
-558.485	117.643	-0.040	-0.064
-557.471	228.361	0.116	-0.245
-556.456	5.753	0.060	-0.058
-555.442	-149.471	-0.415	-0.042
-554.427	-114.312	-0.025	-0.006
-553.412	58.632	-0.296	0.375
-552.398	-63.414	0.139	-0.073
-551.383	62.893	-0.123	-0.159
-550.369	-80.064	-0.102	-0.044
-549.354	32.209	0.599	-0.666
-548.339	199.418	0.018	0.035
-547.325	-27.425	0.093	0.069
-546.310	800.000	0.053	0.212
-545.296	247.775	0.242	-0.529
-544.281	-183.585	0.518	0.011
-543.266	64.739	0.297	0.386
-542.252	33.349	0.345	0.385
-541.237	71.907	0.273	-0.366
-540.223	475.057	0.067	-0.196
-539.208	-64.306	0.166	0.087
-538.193	-178.748	-0.352	-0.010
-537.179	-60.441	0.446	0.243
-536.164	72.076	0.344	0.461
-535.150	-110.868	-0.331	-0.087
-534.135	193.947	-0.176	0.345
-533.121	800.000	0.038	-0.148
-532.106	371.691	0.069	0.181
-531.091	800.000	0.105	-0.495
-530.077	275.382	0.088	0.202
-529.062	159.931	0.210	0.377
-528.048	-74.605	-0.192	-0.089
-527.033	-138.940	0.233	-0.032
-526.018	-54.832	0.419	-0.243
-525.004	-200.000	0.011	0.302
-523.989	32.259	-0.250	0.278
-522.975	73.781	-0.185	-0.250
-521.960	53.897	-0.297	-0.367
-520.945	34.572	-0.008	0.009
-519.931	-92.256	0.494	-0.178
-518.916	-29.499	0.576	0.423
-517.902	-73.176	0.059	-0.028
-516.887	-182.258	0.315	0.007
-515.872	-200.000	0.053	0.504
-514.858	231.292	0.119	0.251
-513.843	60.927	0.198	-0.253
-512.829	-53.401	-0.351	-0.206
-511.814	260.468	0.089	0.199
-510.799	-79.917	-0.219	-0.094
-509.785	136.244	-0.250	-0.420
-508.770	-104.211	-0.622	-0.184
-507.756	400.480	-0.108	-0.293
-506.741	137.142	0.083	-0.140
-505.726	103.870	0.401	-0.607
-504.712	-50.200	0.358	0.217
-503.697	462.522	-0.033	0.095
-502.683	301.919	-0.247	-0.590
-501.668	181.338	-0.015	0.028
-500.653	-70.613	0.088	-0.043
-499.639	-6.571	0.302	-0.264
-498.624	800.000	0.038	0.155
-497.610	23.356	0.280	0.296
-496.595	-200.000	-0.060	-0.425
-495.581	-73.900	0.587	-0.273
-494.566	-22.915	0.317	0.245
-493.551	-22.821	-0.232	-0.179
-492.537	-143.585	0.191	-0.023
-491.522	-156.709	-0.275	-0.022
-490.508	-49.347	-0.046	-0.028
-489.493	-126.631	0.245	0.046
-488.478	-165.591	0.416	0.023
-487.464	-55.321	-0.161	0.092
-486.449	49.612	0.192	0.233
-485.435	-116.029	-0.283	-0.067
-484.420	-112.786	-0.234	-0.059
-483.405	-132.148	-0.420	0.069
-482.391	22.984	0.218	0.229
-481.376	-191.222	-0.183	0.002
-480.362	49.614	0.200	0.242
-479.347	94.196	0.176	0.258
-478.332	16.024	0.395	0.400
-477.318	-197.855	-0.299	-0.002
-476.303	-98.393	-0.330	0.108
-475.289	-96.873	0.207	0.069
-474.274	-200.000	-0.028	0.247
-473.259	800.000	0.074	0.359
-472.245	-175.521	-0.139	0.005
-471.230	-84.864	0.273	0.109
-470.216	-151.092	0.273	0.026
-469.201	-200.000	0.012	-0.149
-468.186	272.769	-0.217	-0.494
-467.172	-200.000	-0.029	-0.303
-466.157	-200.000	0.032	-0.425
-465.143	800.000	-0.062	-0.315
-464.128	-175.961	-0.275	0.009
-463.113	30.420	-0.160	0.176
-462.099	-129.074	-0.350	-0.062
-461.084	54.210	-0.099	0.122
-460.070	-96.380	0.271	-0.092
-459.055	-200.000	-0.036	-0.270
-458.040	-101.265	-0.204	-0.064
-457.026	308.641	-0.249	-0.599
-456.011	-34.677	-0.433	0.304
-454.997	184.172	-0.103	-0.196
-453.982	-97.159	0.310	0.103
-452.968	0.430	0.366	-0.335
-451.953	117.280	-0.106	-0.168
-450.938	46.572	0.459	0.547
-449.924	4.887	-0.194	-0.183
-448.909	4.008	0.082	0.076
-447.895	-38.838	-0.157	-0.106
-446.880	-12.483	0.090	0.075
-445.865	-106.422	0.855	-0.243
-444.851	-70.947	0.419	-0.201
-443.836	-96.155	0.178	-0.060
-442.822	37.840	-0.106	-0.120
-441.807	-200.000	0.002	-0.122
-440.792	-8.634	-0.026	0.023
-439.778	134.112	-0.116	0.193
-438.763	-39.164	0.581	0.391
-437.749	-19.848	0.291	0.230
-436.734	57.147	0.266	-0.333
-435.719	-6.958	-0.182	-0.158
-434.705	638.181	0.146	0.480
-433.690	39.073	-0.253	-0.290
-432.676	-175.301	-0.173	0.006
-431.661	-75.687	-0.118	0.054
-430.646	22.416	0.145	-0.152
-429.632	800.000	-0.084	0.315
-428.617	-149.280	-0.140	-0.014
-427.603	237.530	0.035	-0.074
-426.588	-200.000	-0.004	0.472
-425.573	800.000	-0.148	0.777
-424.559	-137.647	0.340	-0.049
-423.544	35.208	-0.035	-0.039
-422.530	470.563	-0.168	0.486
-421.515	-71.667	-0.490	-0.234
-420.500	-63.182	-0.408	0.215
-419.486	-96.665	0.299	0.100
-418.471	-95.269	0.242	0.083
-417.457	-117.253	0.242	-0.056
-416.442	800.000	-0.031	-0.113
-415.428	-98.891	-0.523	-0.169
-414.413	-119.558	0.469	0.103
-413.398	-123.351	-0.539	-0.109
-412.384	122.236	0.054	0.087
-411.369	-29.847	0.369	-0.269
-410.355	-33.091	-0.326	0.231
-409.340	-100.692	-0.241	0.076
-408.325	-46.201	0.312	-0.196
-407.311	20.609	0.032	0.033
-406.296	303.978	0.063	-0.150
-405.282	800.000	0.100	-0.518
-404.267	-115.909	-0.211	-0.050
-403.252	-125.874	0.404	-0.077
-402.238	37.410	0.034	0.039
-401.223	358.165	0.092	0.237
-400.209	-200.000	0.005	0.477
-399.194	148.771	-0.039	-0.068
-398.179	-63.997	0.358	0.187
-397.165	-150.357	-0.357	-0.035
-396.150	225.605	-0.290	-0.604
-395.136	800.000	-0.044	0.193
-394.121	45.595	-0.037	-0.043
-393.106	179.637	-0.198	-0.373
-392.092	-138.709	-0.195	-0.027
-391.077	-200.000	-0.056	0.419
-390.063	-125.092	0.218	0.043
-389.048	61.720	-0.191	0.243
-388.033	99.286	0.140	0.208
-387.019	-147.078	0.374	-0.041
-386.004	-109.052	-0.298	-0.081
-384.990	-98.205	0.109	-0.036
-383.975	-25.917	-0.420	0.316
-382.960	-91.541	0.227	-0.082
-381.946	-179.723	-0.101	-0.003
-380.931	800.000	0.054	-0.262
-379.917	318.528	-0.136	0.330
-378.902	60.688	-0.092	-0.116
-377.888	227.492	-0.181	0.378
-376.873	-68.636	-0.100	-0.049
-375.858	-200.000	-0.029	0.288
-374.844	-81.997	-0.536	-0.223
-373.829	800.000	-0.074	-0.416
-372.815	-134.118	0.073	0.011
-371.800	-71.044	-0.247	-0.119
-370.785	-133.066	0.219	-0.035
-369.771	-192.623	-0.547	0.006
-368.756	-105.920	0.387	0.111
-367.742	234.375	0.120	0.253
-366.727	-111.658	-0.364	0.094
-365.712	173.900	-0.133	0.246
-364.698	-75.752	0.268	0.121
-363.683	47.863	-0.230	-0.275
-362.669	87.811	0.053	0.075
-361.654	-140.332	0.244	-0.032
-360.639	-200.000	0.133	0.001
-359.625	168.514	-0.226	-0.413
-358.610	130.533	0.238	0.391
-357.596	-77.361	0.200	0.089
-356.581	-200.000	0.020	0.609
-355.566	-6.194	0.292	-0.255
-354.552	-115.356	0.422	0.101
-353.537	800.000	0.019	-0.077
-352.523	-200.000	-0.029	-0.269
-351.508	800.000	0.138	0.570
-350.493	-43.055	-0.117	0.076
-349.479	317.611	0.117	-0.285
-348.464	-83.623	0.139	-0.056
-347.450	65.214	0.394	0.509
-346.435	15.946	0.192	0.193
-345.420	-90.809	0.342	0.125
-344.406	-109.338	-0.431	-0.116
-343.391	-200.000	0.053	0.316
-342.377	23.743	-0.289	-0.304
-341.362	-109.735	-0.254	-0.068
-340.348	-96.345	0.441	-0.148
-339.333	-200.000	0.033	-0.191
-338.318	-24.861	0.224	-0.170
-337.304	-177.186	-0.246	-0.008
-336.289	-132.838	0.277	0.045
-335.275	-127.250	0.536	0.099
-334.260	-200.000	0.012	0.227
-333.245	-99.462	-0.258	-0.082
-332.231	24.296	-0.155	-0.163
-331.216	-117.688	-0.359	-0.082
-330.202	-6.640	-0.242	0.210
-329.187	-89.135	-0.424	-0.159
-328.172	23.071	-0.162	-0.169
-327.158	-128.723	-0.128	0.023
-326.143	-60.744	0.299	-0.161
-325.129	-81.485	0.545	0.228
-324.114	-87.913	0.214	-0.082
-323.099	87.942	-0.103	-0.146
-322.085	-122.224	-0.274	-0.057
-321.070	16.189	0.217	-0.218
-320.056	-92.363	0.559	0.200
-319.041	-22.077	-0.069	0.053
-318.026	-85.628	0.508	0.201
-317.012	369.355	-0.199	-0.517
-315.997	-47.066	-0.146	-0.091
-314.983	-66.869	0.172	0.086
-313.968	-65.882	-0.059	-0.030
-312.953	220.429	0.043	0.089
-311.939	-155.668	-0.249	-0.020
-310.924	127.764	-0.031	-0.050
-309.910	-100.039	0.141	-0.044
-308.895	-175.783	0.291	0.010
-307.880	469.843	0.198	0.571
-306.866	-200.000	0.084	-0.529
-305.851	-44.328	0.508	-0.324
-304.837	-55.643	-0.186	-0.106
-303.822	25.951	0.144	0.153
-302.807	-55.752	-0.544	-0.309
-301.793	-200.000	0.086	-0.500
-300.778	-9.455	0.194	-0.165
-299.764	800.000	-0.005	-0.023
-298.749	-110.442	-0.530	-0.139
-297.735	-71.332	-0.324	0.154
-296.720	-149.617	-0.160	0.016
-295.705	-170.148	0.208	-0.009
-294.691	-200.000	0.024	-0.237
-293.676	-26.793	-0.401	0.298
-292.662	684.822	0.048	0.159
-291.647	-70.107	0.436	0.210
-290.632	228.764	-0.278	0.581
-289.618	-3.954	-0.161	-0.142
-288.603	-167.122	-0.538	-0.027
-287.589	10.470	-0.141	0.137
-286.574	-19.756	0.355	-0.279
-285.559	-21.489	0.097	0.075
-284.545	-200.000	0.003	-0.377
-283.530	-121.367	-0.367	-0.077
-282.516	58.620	0.226	0.283
-281.501	-96.943	-0.497	-0.165
-280.486	31.542	-0.535	-0.586
-279.472	-200.000	-0.037	-0.291
-278.457	-121.533	-0.394	-0.083
-277.443	438.643	-0.020	-0.056
-276.428	-102.740	-0.244	0.074
-275.413	-200.000	0.004	0.231
-274.399	-165.494	0.234	-0.013
-273.384	-136.144	0.292	0.043
-272.370	-47.409	-0.144	0.089
-271.355	800.000	0.066	-0.299
-270.340	-39.536	-0.552	0.368
-269.326	516.530	0.084	0.252
-268.311	800.000	-0.092	0.447
-267.297	282.781	-0.052	-0.120
-266.282	23.729	0.299	-0.314
-265.267	-12.788	-0.299	-0.248
-264.253	-151.477	-0.622	0.058
-263.238	-18.156	-0.204	0.163
-262.224	-200.000	-0.013	0.235
-261.209	-172.673	0.465	-0.018
-260.195	-64.336	0.297	0.154
-259.180	-93.081	0.507	0.179
-258.165	-80.763	-0.238	0.100
-257.151	4.979	0.122	0.114
-256.136	-8.218	-0.223	-0.191
-255.122	-67.118	0.178	0.089
-254.107	-200.000	0.042	0.400
-253.092	708.788	0.135	0.458
-252.078	225.047	-0.039	-0.081
-251.063	-157.084	-0.194	-0.015
-250.049	-4.648	0.056	-0.049
-249.034	-148.491	-0.325	0.033
-248.019	-200.000	0.069	-0.596
-247.005	-88.287	-0.233	-0.088
-245.990	-110.097	0.417	0.110
-244.976	42.057	-0.052	0.060
-243.961	-81.355	-0.183	-0.077
-242.946	37.047	-0.183	-0.207
-241.932	-34.361	0.139	0.097
-240.917	-41.935	0.430	-0.280
-239.903	-200.000	-0.014	0.174
-238.888	-115.289	0.255	0.061
-237.873	-84.325	0.419	0.168
-236.859	-200.000	0.001	-0.180
-235.844	35.864	0.283	0.317
-234.830	34.841	0.180	0.200
-233.815	-136.928	-0.377	-0.054
-232.800	490.713	-0.117	0.342
-231.786	173.098	-0.157	-0.289
-230.771	-6.446	0.340	0.295
-229.757	18.221	0.177	0.180
-228.742	-200.000	0.048	0.291
-227.727	-109.479	0.409	0.109
-226.713	-1.564	0.233	0.208
-225.698	-134.470	-0.078	0.012
-224.684	-123.650	0.400	-0.080
-223.669	-20.519	-0.158	-0.124
-222.655	-110.565	-0.505	0.132
-221.640	308.054	-0.132	0.313
-220.625	97.425	-0.158	0.231
-219.611	-171.281	0.299	0.013
-218.596	-93.160	-0.400	-0.141
-217.582	100.580	0.021	-0.031
-216.567	800.000	-0.116	-0.440
-215.552	70.642	0.147	-0.193
-214.538	-95.894	-0.152	-0.051
-213.523	127.324	0.147	0.238
-212.509	-56.182	0.615	-0.347
-211.494	388.302	-0.220	-0.582
-210.479	94.765	0.041	-0.060
-209.465	-47.646	0.057	0.035
-208.450	-200.000	0.032	0.282
-207.436	-54.052	-0.083	0.048
-206.421	-24.628	-0.117	0.088
-205.406	-113.190	-0.312	0.077
-204.392	-141.856	0.287	0.036
-203.377	-200.000	-0.049	0.322
-202.363	-161.507	-0.527	-0.034
-201.348	-165.512	0.188	0.010
-200.333	800.000	-0.051	0.246
-199.319	-40.325	-0.217	0.143
-198.304	800.000	0.050	-0.223
-197.290	800.000	-0.220	0.847
-196.275	-200.000	-0.114	0.785
-195.260	-34.520	0.099	0.068
-194.246	523.167	-0.143	0.431
-193.231	53.331	0.201	0.245
-192.217	800.000	-0.020	-0.088
-191.202	-57.289	0.550	0.306
-190.187	-200.000	0.003	0.301
-189.173	0.965	-0.067	0.061
-188.158	-85.383	0.266	0.105
-187.144	-113.337	0.436	-0.108
-186.129	1.234	0.173	-0.157
-185.114	800.000	-0.076	0.325
-184.100	-68.265	0.305	0.150
-183.085	-21.807	0.144	0.111
-182.071	7.326	0.588	0.558
-181.056	-149.799	0.163	0.016
-180.042	-103.061	-0.121	0.036
-179.027	40.460	-0.193	-0.221
-178.012	-41.832	-0.419	-0.272
-176.998	800.000	-0.100	-0.370
-175.983	-101.239	-0.125	0.039
-174.969	800.000	0.049	0.260
-173.954	-200.000	0.040	-0.358
-172.939	-109.115	-0.072	-0.019
-171.925	-164.710	0.254	0.014
-170.910	-148.755	-0.394	-0.040
-169.896	113.051	-0.097	0.149
-168.881	454.918	-0.142	-0.401
-167.866	-66.125	-0.845	-0.426
-166.852	-127.568	-0.478	-0.087
-165.837	120.721	-0.195	0.308
-164.823	-21.085	-0.594	0.460
-163.808	-103.427	0.326	0.097
-162.793	-200.000	0.057	0.419
-161.779	-138.127	0.304	-0.042
-160.764	800.000	-0.141	-0.687
-159.750	-48.858	0.307	0.186
-158.735	-29.969	-0.272	-0.196
-157.720	78.822	0.100	-0.137
-156.706	18.460	-0.205	-0.208
-155.691	-14.060	-0.328	0.268
-154.677	-148.572	0.537	-0.055
-153.662	-200.000	0.019	-0.127
-152.647	-200.000	-0.092	0.708
-151.633	-200.000	0.035	0.470
-150.618	-200.000	0.034	0.543
-149.604	347.221	-0.160	-0.401
-148.589	-46.656	0.565	-0.350
-147.574	-50.891	-0.191	-0.113
-146.560	-80.662	0.380	0.159
-145.545	-67.377	-0.628	-0.312
-144.531	-103.601	-0.230	0.068
-143.516	148.999	0.131	0.225
-142.502	437.437	0.037	0.103
-141.487	-104.399	-0.422	-0.123
-140.472	527.518	0.070	-0.211
-139.458	-200.000	-0.006	-0.337
-138.443	-31.867	0.382	0.271
-137.429	163.406	-0.118	0.210
-136.414	-200.000	-0.118	-0.000
-135.399	-134.602	-0.099	0.015
-134.385	-200.000	0.054	0.470
-133.370	-200.000	0.026	0.168
-132.356	-200.000	-0.028	-0.159
-131.341	87.212	-0.247	-0.346
-130.326	-129.383	0.309	0.054
-129.312	165.732	0.234	-0.421
-128.297	-16.156	0.273	-0.219
-127.283	-200.000	0.020	0.176
-126.268	181.199	-0.161	0.301
-125.253	-200.000	-0.011	0.394
-124.239	-83.255	0.093	-0.038
-123.224	76.409	0.108	0.145
-122.210	241.138	0.182	-0.386
-121.195	-7.201	0.315	-0.270
-120.180	16.843	0.144	0.144
-119.166	53.648	-0.099	-0.120
-118.151	-96.581	0.305	0.101
-117.137	83.771	-0.169	0.235
-116.122	-146.281	0.265	-0.029
-115.107	-115.676	-0.366	0.086
-114.093	-55.013	-0.905	0.514
-113.078	15.900	0.289	0.288
-112.064	-94.380	-0.197	0.068
-111.049	100.480	-0.399	-0.587
-110.034	79.426	-0.298	0.405
-109.020	-200.000	-0.025	-0.192
-108.005	209.984	0.185	0.369
-106.991	11.853	-0.220	0.213
-105.976	527.256	-0.103	-0.310
-104.962	82.287	0.146	0.200
-103.947	-111.800	-0.443	0.113
-102.932	-56.483	0.106	-0.059
-101.918	-158.706	0.616	-0.044
-100.903	-13.424	-0.303	-0.249
-99.889	-59.292	0.428	0.232
-98.874	41.134	-0.201	-0.230
-97.859	-71.785	-0.358	0.168
-96.845	18.453	-0.118	0.120
-95.830	-124.941	0.573	-0.111
-94.816	21.083	-0.285	-0.293
-93.801	-10.498	-0.307	-0.257
-92.786	99.541	-0.233	0.342
-91.772	-200.000	-0.014	0.278
-90.757	-105.372	0.410	0.117
-89.743	-84.753	0.340	-0.135
-88.728	50.778	-0.180	-0.215
-87.713	-200.000	0.080	-0.610
-86.699	-18.585	-0.171	0.135
-85.684	-48.601	0.375	0.227
-84.670	-28.410	-0.112	-0.082
-83.655	118.133	0.099	0.155
-82.640	24.319	-0.200	0.209
-81.626	-185.460	0.473	0.009
-80.611	38.696	-0.080	-0.091
-79.597	-28.782	0.080	-0.058
-78.582	-150.157	0.381	-0.037
-77.567	362.752	0.108	-0.275
-76.553	-89.567	-0.137	0.051
-75.538	-42.130	-0.180	0.116
-74.524	-114.297	-0.158	0.038
-73.509	-19.121	0.091	0.071
-72.494	800.000	-0.062	0.344
-71.480	346.884	0.091	-0.227
-70.465	264.735	-0.072	0.159
-69.451	19.681	-0.275	-0.280
-68.436	-54.100	0.524	-0.300
-67.422	-60.138	-0.458	-0.246
-66.407	-86.915	0.270	-0.104
-65.392	409.706	0.131	0.352
-64.378	-150.112	0.739	0.072
-63.363	-32.312	0.278	-0.196
-62.349	176.953	-0.165	-0.304
-61.334	110.117	-1.302	-1.979
-60.319	23.226	1.484	1.540
-59.305	264.222	-3.209	-7.084
-58.290	64.855	3.347	4.274
-57.276	327.789	4.260	10.374
-56.261	-200.000	18.155	275.489
-55.246	417.222	1229.531	3333.582
-54.232	59.259	2832.128	3526.745
-53.217	69.924	2700.853	3523.738
-52.203	43.408	2433.134	2810.360
-51.188	37.184	2094.995	2344.439
-50.173	30.069	1975.006	2128.273
-49.159	28.772	1964.161	2101.605
-48.144	28.345	1960.241	2092.417
-47.130	28.178	1958.279	2088.327
-46.115	28.236	1956.360	2086.863
-45.100	28.076	1955.087	2083.595
-44.086	28.163	1953.057	2082.338
-43.071	28.095	1951.474	2079.794
-42.057	28.039	1950.305	2077.825
-41.042	28.085	1948.584	2076.433
-40.027	28.033	1947.211	2074.299
-39.013	28.071	1945.598	2072.930
-37.998	27.904	1945.311	2070.642
-36.984	27.973	1943.467	2069.382
-35.969	27.967	1942.031	2067.698
-34.954	27.922	1940.862	2065.857
-33.940	28.002	1939.896	2065.653
-32.925	27.864	1939.245	2063.314
-31.911	28.007	1936.855	2062.308
-30.896	27.979	1936.190	2061.204
-29.881	28.001	1933.875	2058.904
-28.867	27.894	1932.851	2056.524
-27.852	27.871	1931.819	2055.085
-26.838	27.863	1929.988	2052.971
-25.823	27.822	1928.614	2050.964
-24.809	28.013	1926.345	2050.616
-23.794	27.889	1926.033	2048.804
-22.779	27.879	1924.375	2046.849
-21.765	27.848	1923.414	2045.400
-20.750	27.761	1922.282	2043.133
-19.736	27.848	1921.070	2042.749
-18.721	27.799	1919.798	2040.763
-17.706	27.730	1919.611	2039.707
-16.692	27.833	1918.060	2039.137
-15.677	27.823	1916.895	2037.698
-14.663	27.759	1914.090	2033.918
-13.648	27.718	1913.509	2032.766
-12.633	27.689	1912.485	2031.272
-11.619	27.764	1911.475	2030.950
-10.604	27.680	1909.696	2028.048
-9.590	27.690	1908.960	2027.300
-8.575	27.812	1907.386	2026.906
-7.560	27.700	1906.938	2025.101
-6.546	27.721	1904.673	2022.849
-5.531	27.809	1902.952	2021.919
-4.517	27.774	1903.321	2021.843
-3.502	27.686	1902.457	2019.866
-2.487	27.945	1900.227	2020.299
-1.473	27.926	1897.046	2016.619
-0.458	27.620	1878.103	1993.038
0.556	24.146	2021.843	2092.106
1.571	22.965	2233.942	2295.877
2.586	24.173	2276.654	2355.555
3.600	24.199	2278.630	2357.671
4.615	24.220	2277.562	2356.560
5.629	24.265	2276.380	2355.647
6.644	24.221	2274.180	2352.505
7.659	24.224	2272.505	2350.536
8.673	24.301	2270.637	2349.339
9.688	23.857	2277.424	2350.183
10.702	21.871	2355.273	2402.916
11.717	19.826	2419.548	2439.233
12.731	9.941	2394.884	2274.746
13.746	1.572	2370.842	2133.974
14.761	0.309	2366.635	2112.145
15.775	0.124	2364.807	2107.664
16.790	0.228	2362.693	2106.987
17.804	0.066	2362.368	2104.163
18.819	0.080	2361.071	2102.956
19.834	0.111	2358.797	2101.118
20.848	0.124	2357.209	2099.632
21.863	0.155	2354.852	2097.709
22.877	0.036	2354.543	2095.522
23.892	0.025	2351.936	2092.800
24.907	0.194	2348.299	2091.675
25.921	0.128	2347.893	2090.136
26.936	0.059	2345.368	2086.669
27.950	0.190	2341.958	2085.215
28.965	0.175	2340.517	2083.475
29.980	0.091	2339.157	2080.846
30.994	0.229	2337.171	2080.744
32.009	4.648	2352.975	2156.248
33.023	16.660	2389.039	2358.153
34.038	22.648	2402.206	2454.925
35.053	23.738	2400.089	2467.700
36.067	23.718	2398.078	2465.057
37.082	23.569	2395.424	2459.955
38.096	23.338	2394.246	2455.233
39.111	23.624	2390.910	2455.494
40.126	23.714	2389.983	2455.505
41.140	24.006	2389.082	2458.339
42.155	23.986	2386.615	2455.227
43.169	23.786	2383.970	2449.443
44.184	23.892	2383.050	2449.673
45.199	23.902	2380.208	2446.597
46.213	23.841	2378.369	2443.565
47.228	23.769	2377.896	2441.799
48.242	23.819	2376.674	2440.939
49.257	23.922	2374.562	2439.903
50.271	24.050	2371.261	2437.980
51.286	23.918	2370.365	2434.952
52.301	23.766	2367.837	2429.975
53.315	23.594	2366.442	2425.891
54.330	23.205	2364.921	2418.691
55.344	23.001	2360.975	2411.575
56.359	23.091	2356.285	2407.720
57.374	22.953	2354.924	2404.159
58.388	22.951	2353.190	2402.069
59.403	23.020	2350.602	2400.079
60.417	23.224	2347.104	2399.000
61.432	23.455	2346.278	2401.019
62.447	23.386	2345.214	2398.703
63.461	23.325	2343.381	2395.712
64.476	23.404	2340.326	2393.370
65.490	23.635	2339.851	2395.739
66.505	23.702	2339.593	2396.100
67.520	23.753	2338.301	2395.176
68.534	23.637	2336.165	2391.136
69.549	23.844	2332.383	2389.771
70.563	23.721	2330.482	2385.881
71.578	23.674	2328.432	2382.853
72.593	23.882	2326.848	2383.757
73.607	23.982	2325.444	2383.374
74.622	24.177	2323.826	2384.063
75.636	23.950	2321.163	2377.997
76.651	23.766	2317.997	2371.999
77.666	23.764	2316.508	2370.159
78.680	23.746	2314.563	2367.641
79.695	23.760	2311.677	2364.600
80.709	23.851	2310.945	2364.787
81.724	23.846	2310.355	2363.821
82.739	23.790	2306.987	2359.346
83.753	23.804	2304.481	2356.688
84.768	23.701	2303.088	2353.619
85.782	23.760	2301.844	2352.843
86.797	23.720	2299.884	2350.030
87.812	23.594	2298.130	2346.284
88.826	23.440	2295.937	2341.717
89.841	23.703	2293.253	2342.188
90.855	23.826	2291.411	2341.653
91.870	23.617	2289.513	2336.672
92.884	23.624	2287.203	2334.130
93.899	23.643	2286.843	2333.730
94.914	23.431	2286.265	2330.061
95.928	23.167	2284.687	2324.678
96.943	23.111	2281.731	2320.657
97.957	23.307	2280.311	2321.517
98.972	23.595	2278.344	2323.030
99.987	23.464	2275.195	2317.818
101.001	23.306	2273.431	2313.677
102.016	23.428	2271.849	2313.383
103.030	23.470	2269.234	2310.991
104.045	23.507	2267.783	2309.720
105.060	23.771	2265.664	2310.744
106.074	23.752	2263.341	2307.854
107.089	23.567	2261.479	2303.262
108.103	23.584	2260.940	2302.658
109.118	23.654	2258.406	2300.711
110.133	23.618	2258.525	2300.090
111.147	23.909	2256.254	2301.294
112.162	24.000	2254.749	2300.658
113.176	23.854	2250.713	2294.377
114.191	23.707	2249.016	2290.458
115.206	23.561	2248.875	2288.150
116.220	23.765	2245.617	2287.209
117.235	23.777	2243.540	2284.966
118.249	23.752	2241.297	2282.090
119.264	23.813	2240.963	2282.262
120.279	23.986	2238.827	2282.044
121.293	23.865	2236.715	2278.060
122.308	23.758	2236.391	2276.083
123.322	23.694	2234.011	2272.563
124.337	23.333	2232.362	2265.973
125.352	23.160	2232.063	2263.175
126.366	23.506	2230.352	2265.611
127.381	23.454	2227.347	2261.626
128.395	23.686	2224.371	2261.298
129.410	23.797	2223.002	2261.062
130.424	23.715	2222.894	2259.625
131.439	23.762	2220.220	2257.233
132.454	23.702	2218.746	2254.706
133.468	23.849	2216.261	2253.779
134.483	23.842	2212.844	2249.955
135.497	23.600	2212.647	2246.400
136.512	23.592	2210.340	2243.690
137.527	23.604	2208.026	2241.225
138.541	23.621	2206.900	2240.032
139.556	23.525	2205.556	2237.183
140.570	23.565	2204.416	2236.266
141.585	23.618	2202.408	2234.624
142.600	23.538	2201.503	2232.428
143.614	23.512	2199.273	2229.566
144.629	23.605	2197.938	2229.120
145.643	23.497	2195.771	2225.298
146.658	23.435	2193.870	2222.325
147.673	23.384	2192.451	2219.984
148.687	23.382	2191.931	2219.167
149.702	23.517	2189.307	2217.939
150.716	23.269	2188.803	2214.044
151.731	23.593	2187.951	2216.992
152.746	23.712	2187.640	2217.895
153.760	23.503	2185.976	2213.325
154.775	23.091	2183.969	2205.865
155.789	22.999	2180.487	2200.936
156.804	23.002	2178.668	2198.867
157.819	23.273	2175.850	2199.147
158.833	23.420	2173.603	2198.447
159.848	23.623	2171.623	2198.710
160.862	23.786	2170.733	2199.575
161.877	23.808	2170.460	2199.306
162.892	23.797	2169.083	2197.506
163.906	23.805	2167.465	2195.713
164.921	23.853	2165.004	2193.548
165.935	23.813	2162.700	2190.458
166.950	23.547	2161.289	2185.464
167.964	23.547	2158.196	2182.082
168.979	23.435	2156.378	2178.594
169.994	23.583	2155.748	2179.533
171.008	23.524	2153.943	2176.716
172.023	23.437	2152.502	2173.928
173.037	23.633	2151.015	2174.578
174.052	23.643	2149.983	2173.401
175.067	23.502	2147.484	2168.871
176.081	23.637	2146.508	2169.289
177.096	23.678	2145.978	2169.002
178.110	23.620	2142.906	2164.925
179.125	23.575	2141.639	2162.837
180.140	23.677	2140.659	2162.828
181.154	23.711	2139.537	2161.854
182.169	23.565	2138.863	2159.130
183.183	23.455	2137.173	2155.819
184.198	23.111	2135.404	2149.577
185.213	23.072	2134.228	2147.660
186.227	23.500	2132.482	2150.864
187.242	23.641	2130.859	2150.682
188.256	23.688	2129.726	2149.857
189.271	23.837	2128.663	2150.345
190.286	23.846	2126.116	2147.621
191.300	23.526	2123.322	2140.659
192.315	23.556	2121.327	2138.760
193.329	23.748	2120.452	2139.945
194.344	24.001	2119.579	2141.860
195.359	23.785	2118.115	2137.520
196.373	23.841	2117.077	2136.888
197.388	23.802	2114.296	2133.358
198.402	23.623	2111.694	2128.323
199.417	23.648	2108.659	2125.306
200.432	23.609	2107.422	2123.339
201.446	23.752	2107.206	2124.587
202.461	23.713	2105.676	2122.322
203.475	23.570	2102.904	2117.554
204.490	23.521	2101.252	2115.051
205.504	23.516	2098.712	2112.179
206.519	23.633	2095.723	2110.326
207.534	23.535	2095.142	2108.306
208.548	23.499	2094.004	2106.486
209.563	23.393	2091.635	2102.582
210.577	23.448	2090.380	2101.724
211.592	23.564	2090.818	2103.293
212.607	23.537	2089.096	2100.993
213.621	22.925	2087.571	2091.926
214.636	22.936	2085.790	2090.027
215.650	23.472	2085.634	2095.987
216.665	23.740	2083.308	2096.577
217.680	23.667	2082.320	2094.462
218.694	23.802	2080.901	2094.387
219.709	23.605	2078.793	2089.681
220.723	23.619	2076.990	2087.789
221.738	23.759	2075.357	2087.553
222.753	23.660	2072.731	2083.493
223.767	23.655	2072.506	2082.959
224.782	23.581	2069.203	2078.511
225.796	23.611	2067.916	2077.328
226.811	23.623	2067.066	2076.359
227.826	23.671	2065.633	2075.239
228.840	23.716	2064.154	2074.031
229.855	23.557	2062.095	2069.858
230.869	23.556	2061.476	2068.972
231.884	23.684	2059.644	2068.380
232.899	23.668	2057.825	2066.119
233.913	23.737	2056.164	2065.017
234.928	23.716	2055.477	2063.831
235.942	23.826	2054.773	2064.163
236.957	23.635	2053.740	2060.648
237.972	23.647	2052.362	2059.164
238.986	23.790	2051.027	2059.238
240.001	23.653	2048.390	2054.748
241.015	23.635	2046.434	2052.339
242.030	23.594	2045.595	2050.768
243.045	23.410	2043.645	2046.431
244.059	23.357	2042.330	2044.264
245.074	23.771	2039.915	2046.393
246.088	23.790	2037.426	2043.867
247.103	23.588	2036.221	2040.083
248.117	23.673	2035.512	2040.111
249.132	23.844	2034.790	2041.116
250.147	23.777	2031.636	2036.929
251.161	23.510	2030.274	2032.255
252.176	23.388	2028.833	2029.166
253.190	23.079	2024.692	2021.228
254.205	22.573	2021.264	2011.763
255.220	22.427	2020.261	2008.846
256.234	22.442	2019.446	2007.971
257.249	22.410	2018.092	2006.019
258.263	22.399	2017.058	2004.617
259.278	22.356	2015.065	2001.906
260.293	22.360	2013.013	1999.674
261.307	22.857	2012.063	2004.163
262.322	23.380	2012.402	2010.222
263.336	23.303	2010.395	2007.099
264.351	23.333	2009.142	2005.960
265.366	23.402	2008.550	2005.911
266.380	23.590	2007.207	2006.468
267.395	23.460	2006.045	2003.589
268.409	23.434	2004.610	2001.617
269.424	23.584	2004.073	2002.543
270.439	23.853	2003.130	2004.415
271.453	23.574	2001.269	1999.147
272.468	23.210	1998.319	1991.850
273.482	23.085	1996.984	1988.870
274.497	23.463	1994.660	1990.574
275.512	23.641	1993.042	1990.728
276.526	23.716	1990.938	1989.232
277.541	23.687	1988.796	1986.536
278.555	23.604	1987.034	1983.599
279.570	23.345	1985.350	1978.775
280.585	23.221	1983.104	1974.913
281.599	23.471	1982.774	1977.148
282.614	23.321	1981.275	1973.731
283.628	22.805	1977.386	1963.856
284.643	22.565	1976.380	1959.941
285.657	22.531	1975.818	1958.771
286.672	22.751	1973.384	1958.571
287.687	22.597	1971.845	1955.100
288.701	22.425	1970.339	1951.455
289.716	22.263	1968.430	1947.528
290.730	22.253	1967.155	1945.925
291.745	22.532	1966.229	1947.874
292.760	22.323	1964.908	1944.010
293.774	22.366	1964.871	1944.219
294.789	23.212	1965.241	1953.739
295.803	23.630	1963.553	1956.461
296.818	23.541	1963.147	1954.838
297.833	23.629	1961.487	1953.922
298.847	23.751	1959.634	1953.188
299.862	23.859	1958.284	1952.809
300.876	23.711	1956.143	1948.806
301.891	23.232	1954.605	1941.762
302.906	23.381	1953.748	1942.323
303.920	23.659	1953.300	1944.706
304.935	23.833	1950.578	1943.674
305.949	23.788	1948.871	1941.245
306.964	23.728	1947.400	1938.891
307.979	23.598	1944.088	1933.933
308.993	23.035	1941.984	1925.445
310.008	22.668	1938.712	1917.961
311.022	22.564	1936.915	1914.822
312.037	22.630	1936.361	1914.761
313.052	22.438	1933.949	1910.059
314.066	22.043	1931.581	1903.184
315.081	22.032	1931.070	1902.334
316.095	22.091	1928.913	1900.623
317.110	21.922	1927.782	1897.451
318.125	22.177	1926.606	1898.830
319.139	22.247	1925.451	1898.219
320.154	22.406	1924.502	1898.785
321.168	22.448	1923.225	1897.748
322.183	22.985	1923.032	1903.154
323.197	23.447	1922.767	1907.654
324.212	23.491	1921.087	1906.239
325.227	23.610	1920.143	1906.360
326.241	23.764	1918.132	1905.799
327.256	23.825	1917.313	1905.412
328.270	23.835	1916.345	1904.330
329.285	23.738	1915.668	1902.380
330.300	23.689	1915.828	1901.786
331.314	23.273	1913.341	1894.618
332.329	23.140	1911.144	1890.786
333.343	23.710	1909.246	1894.793
334.358	23.813	1908.669	1895.100
335.373	23.900	1906.780	1893.930
336.387	23.751	1904.967	1890.308
337.402	23.848	1903.713	1889.874
338.416	23.709	1902.274	1886.733
339.431	23.733	1901.005	1885.503
340.446	23.747	1899.160	1883.600
341.460	23.309	1895.416	1875.004
342.475	22.675	1892.044	1864.708
343.489	22.253	1890.493	1858.476
344.504	22.289	1889.280	1857.443
345.519	22.358	1888.060	1856.753
346.533	22.304	1886.034	1853.959
347.548	22.364	1885.700	1854.048
348.562	22.329	1884.302	1852.084
349.577	22.353	1882.908	1850.748
350.592	22.428	1881.487	1849.914
351.606	22.186	1879.598	1845.290
352.621	22.069	1877.917	1842.185
353.635	22.521	1878.032	1846.832
354.650	22.909	1877.451	1850.130
355.665	23.098	1876.119	1850.582
356.679	23.351	1875.665	1852.574
357.694	23.642	1874.903	1854.652
358.708	23.818	1873.645	1855.040
359.723	23.680	1873.207	1852.936
360.738	23.502	1869.669	1847.353
361.752	23.292	1868.758	1844.025
362.767	23.616	1867.951	1846.401
363.781	23.687	1866.275	1845.265
364.796	23.774	1865.449	1845.132
365.810	23.693	1864.025	1842.665
366.825	23.729	1862.481	1841.295
367.840	23.731	1860.854	1839.487
368.854	23.473	1859.471	1835.209
369.869	22.881	1857.001	1826.401
370.883	22.434	1853.931	1818.525
371.898	22.199	1851.720	1813.697
372.913	22.222	1850.834	1812.851
373.927	22.222	1849.424	1811.253
374.942	22.467	1847.691	1811.878
375.956	22.177	1846.278	1807.275
376.971	22.054	1843.508	1803.085
377.986	22.013	1841.800	1800.773
379.000	22.132	1841.506	1801.490
380.015	22.952	1842.281	1810.483
381.029	23.684	1841.778	1817.314
382.044	23.897	1840.006	1817.526
383.059	23.829	1838.936	1815.560
384.073	23.659	1838.285	1812.951
385.088	23.631	1836.021	1810.213
386.102	23.506	1835.005	1807.716
387.117	23.438	1832.779	1804.615
388.132	23.553	1832.723	1805.520
389.146	23.473	1833.650	1805.397
390.161	23.039	1831.560	1798.686
391.175	23.080	1827.437	1794.836
392.190	23.575	1824.327	1796.613
393.205	23.592	1823.258	1795.516
394.219	23.673	1821.839	1794.728
395.234	23.672	1821.094	1793.767
396.248	23.668	1819.205	1791.646
397.263	23.649	1816.772	1788.848
398.278	23.514	1814.926	1785.449
399.292	23.534	1814.088	1784.617
400.307	23.567	1813.945	1784.597
401.321	23.540	1811.139	1781.348
402.336	22.726	1808.057	1769.902
403.350	22.038	1805.770	1760.515
404.365	22.264	1804.567	1761.404
405.380	22.695	1803.312	1764.309
406.394	22.472	1803.037	1761.585
407.409	22.301	1801.357	1758.012
408.423	22.269	1798.924	1755.107
409.438	22.119	1798.415	1752.903
410.453	22.657	1797.802	1757.482
411.467	23.111	1798.000	1762.013
412.482	23.178	1796.890	1761.384
413.496	23.334	1796.644	1762.497
414.511	23.490	1794.018	1761.259
415.526	23.513	1791.453	1758.762
416.540	23.416	1791.020	1757.158
417.555	23.354	1789.752	1755.092
418.569	23.316	1789.290	1754.049
419.584	23.413	1789.354	1754.870
420.599	23.523	1788.890	1755.293
421.613	23.539	1787.949	1754.320
422.628	23.513	1787.454	1753.367
423.642	23.709	1785.349	1753.036
424.657	23.585	1782.301	1748.611
425.672	23.344	1780.778	1744.519
426.686	23.536	1779.652	1745.106
427.701	23.617	1778.664	1744.722
428.715	23.446	1778.207	1742.383
429.730	23.646	1776.457	1742.432
430.745	23.739	1775.052	1741.761
431.759	23.745	1773.778	1740.365
432.774	23.255	1772.430	1734.011
433.788	22.565	1770.240	1724.869
434.803	22.047	1768.398	1717.775
435.818	22.069	1767.621	1717.034
436.832	22.032	1767.002	1715.867
437.847	21.072	1758.034	1697.564
438.861	11.971	1732.857	1584.924
439.876	2.130	1715.145	1473.445
440.890	0.403	1711.007	1452.999
441.905	0.207	1709.639	1449.767
442.920	0.219	1708.631	1448.856
443.934	0.153	1706.898	1446.582
444.949	0.054	1706.369	1445.003
445.963	0.006	1705.890	1443.960
446.978	0.014	1705.543	1443.568
447.993	0.074	1703.460	1442.210
449.007	0.101	1701.749	1440.854
450.022	0.048	1699.495	1438.261
451.036	0.209	1697.356	1437.825
452.051	0.723	1700.393	1445.166
453.066	8.646	1720.433	1538.836
454.080	18.979	1738.281	1655.058
455.095	21.825	1742.855	1686.765
456.109	22.596	1743.737	1694.878
457.124	22.799	1742.862	1695.786
458.139	22.660	1741.524	1692.938
459.153	22.555	1740.505	1690.730
460.168	22.610	1738.246	1688.859
461.182	22.568	1736.859	1686.908
462.197	22.497	1735.775	1684.974
463.212	22.541	1734.299	1683.760
464.226	22.568	1733.294	1682.845
465.241	22.656	1732.234	1682.457
466.255	22.629	1730.689	1680.497
467.270	22.714	1729.049	1679.518
468.285	22.756	1728.324	1679.011
469.299	22.902	1726.603	1678.532
470.314	22.786	1724.920	1675.592
471.328	22.795	1723.796	1674.385
472.343	22.667	1722.704	1671.900
473.358	22.783	1721.158	1671.309
474.372	22.656	1720.711	1669.468
475.387	22.837	1719.424	1669.733
476.401	22.988	1717.054	1668.667
477.416	22.862	1715.852	1666.107
478.430	22.783	1715.072	1664.403
479.445	22.790	1714.165	1663.388
480.460	22.889	1713.018	1663.015
481.474	22.874	1711.942	1661.624
482.489	22.819	1710.233	1659.245
483.503	22.565	1708.884	1655.340
484.518	22.539	1706.963	1653.039
485.533	22.728	1705.581	1653.284
486.547	22.744	1703.883	1651.592
487.562	22.554	1702.944	1648.694
488.576	22.743	1701.865	1649.226
489.591	22.775	1700.042	1647.566
490.606	22.854	1699.236	1647.328
491.620	22.802	1697.505	1644.967
492.635	22.582	1695.791	1641.050
493.649	22.351	1694.707	1637.647
494.664	22.401	1694.246	1637.474
495.679	22.715	1692.644	1638.659
496.693	22.696	1690.732	1636.431
497.708	22.689	1690.116	1635.578
498.722	22.672	1688.091	1633.266
499.737	22.617	1686.902	1631.401
500.752	22.644	1685.694	1630.288
501.766	22.685	1684.214	1629.049
502.781	22.709	1682.555	1627.467
503.795	22.870	1680.335	1626.620
504.810	22.705	1679.798	1624.377
505.825	22.654	1679.361	1623.289
506.839	22.622	1679.170	1622.610
507.854	22.630	1677.125	1620.516
508.868	22.745	1674.808	1619.143
509.883	22.560	1674.053	1616.518
510.898	22.504	1672.458	1614.269
511.912	22.496	1670.304	1611.923
512.927	22.452	1668.793	1609.864
513.941	22.535	1668.337	1609.993
514.956	22.700	1667.361	1610.376
515.971	22.833	1665.862	1609.948
516.985	22.834	1664.704	1608.653
518.000	22.633	1663.888	1605.829
519.014	22.484	1662.505	1602.941
520.029	22.372	1661.155	1600.418
521.043	22.337	1659.524	1598.336
522.058	22.536	1657.965	1598.461
523.073	22.500	1657.315	1597.316
524.087	22.357	1656.728	1595.254
525.102	22.401	1655.163	1593.957
526.116	22.657	1653.767	1594.751
527.131	22.723	1652.785	1594.209
528.146	22.556	1652.089	1591.833
529.160	22.546	1650.683	1590.200
530.175	22.494	1650.025	1588.903
531.189	22.538	1648.761	1587.891
532.204	22.480	1646.598	1585.099
533.219	22.522	1645.160	1583.901
534.233	22.705	1644.908	1585.117
535.248	22.566	1643.623	1582.441
536.262	22.468	1641.598	1579.420
537.277	22.533	1640.448	1578.710
538.292	22.516	1639.646	1577.592
539.306	22.666	1637.743	1576.922
540.321	22.557	1636.382	1574.439
541.335	22.712	1635.321	1574.627
542.350	22.600	1633.820	1571.991
543.365	22.618	1631.409	1569.639
544.379	22.578	1630.248	1567.979
545.394	22.417	1629.311	1565.447
546.408	22.537	1628.064	1565.136
547.423	22.708	1627.294	1565.732
548.438	22.623	1626.639	1564.154
549.452	22.444	1625.508	1561.289
550.467	22.551	1624.115	1560.713
551.481	22.627	1622.431	1559.583
552.496	22.535	1621.039	1557.243
553.511	22.403	1620.354	1555.227
554.525	22.470	1619.541	1554.858
555.540	22.451	1618.859	1553.847
556.554	22.366	1617.836	1551.923
557.569	22.473	1615.952	1550.881
558.583	22.521	1614.300	1549.536
559.598	22.652	1612.709	1548.976
560.613	22.471	1612.140	1546.646
561.627	22.445	1610.323	1544.489
562.642	22.331	1609.129	1542.154
563.656	22.249	1607.696	1539.878
564.671	22.096	1606.674	1537.368
565.686	22.141	1605.075	1536.046
566.700	22.363	1603.788	1536.578
567.715	22.289	1602.911	1534.912
568.729	22.428	1601.437	1534.531
569.744	22.565	1600.378	1534.532
570.759	22.617	1598.896	1533.385
571.773	22.486	1598.483	1531.661
572.788	22.434	1596.763	1529.367
573.802	22.324	1594.737	1526.290
574.817	22.287	1592.780	1523.908
575.832	22.150	1592.128	1521.910
576.846	22.246	1590.748	1521.244
577.861	22.270	1589.972	1520.529
578.875	22.287	1589.211	1519.764
579.890	22.258	1588.506	1518.663
580.905	22.352	1587.235	1518.077
581.919	22.412	1585.939	1517.179
582.934	22.338	1585.506	1515.939
583.948	22.189	1584.076	1513.106
584.963	22.252	1581.853	1511.345
585.978	22.386	1581.560	1512.043
586.992	22.227	1580.329	1509.312
588.007	22.193	1579.803	1508.331
589.021	22.266	1578.807	1507.830
590.036	22.286	1577.880	1506.938
591.051	22.389	1576.409	1506.233
592.065	22.256	1574.462	1503.057
593.080	22.350	1572.969	1502.256
594.094	22.313	1571.355	1500.219
595.109	22.310	1569.634	1498.371
596.123	22.522	1567.767	1498.224
597.138	22.478	1566.764	1496.705
598.153	22.370	1565.649	1494.537
599.167	22.274	1564.363	1492.317
600.182	22.159	1563.920	1490.733
601.196	22.305	1562.703	1490.637
602.211	22.282	1560.957	1488.597
603.226	22.202	1559.811	1486.644
604.240	22.140	1557.845	1484.071
605.255	22.156	1556.465	1482.711
606.269	22.247	1556.483	1483.323
607.284	22.304	1555.493	1482.684
608.299	22.207	1553.752	1480.028
609.313	22.342	1552.186	1479.499
610.328	22.364	1551.634	1478.983
611.342	22.355	1550.684	1477.824
612.357	22.156	1549.622	1474.957
613.372	22.054	1548.696	1473.036
614.386	22.162	1547.507	1472.643
615.401	22.225	1546.566	1472.099
616.415	22.189	1545.371	1470.481
617.430	22.045	1544.053	1467.847
618.445	22.066	1542.280	1466.156
619.459	21.989	1542.289	1465.344
620.474	22.111	1541.237	1465.197
621.488	22.404	1540.478	1466.750
622.503	22.423	1539.457	1465.764
623.518	22.360	1537.758	1463.440
624.532	22.179	1535.988	1460.068
625.547	21.976	1534.658	1456.937
626.561	21.816	1533.799	1454.615
627.576	21.878	1532.673	1453.886
628.591	22.173	1531.858	1455.402
629.605	22.395	1531.456	1456.686
630.620	22.623	1530.162	1457.176
631.634	22.572	1528.796	1455.283
632.649	22.672	1528.065	1455.237
633.663	22.392	1526.146	1450.918
634.678	22.164	1524.435	1447.230
635.693	21.957	1522.514	1443.523
636.707	21.885	1520.974	1441.298
637.722	21.771	1520.327	1439.565
638.736	21.931	1519.485	1439.921
639.751	22.089	1518.256	1439.882
640.766	22.174	1516.446	1438.690
641.780	22.087	1515.115	1436.542
642.795	22.314	1514.992	1438.123
643.809	22.109	1514.451	1435.752
644.824	22.013	1513.875	1434.247
645.839	22.102	1512.323	1433.335
646.853	22.203	1510.451	1432.214
647.868	22.223	1508.782	1430.622
648.882	22.061	1507.981	1428.370
649.897	22.112	1506.636	1427.344
650.912	22.081	1504.763	1425.142
651.926	22.088	1503.935	1424.245
652.941	22.164	1503.757	1424.525
653.955	22.198	1502.527	1423.465
654.970	22.301	1500.991	1422.674
655.985	22.239	1499.642	1420.724
656.999	22.330	1498.084	1419.819
658.014	22.260	1496.435	1417.516
659.028	22.197	1495.098	1415.570
660.043	22.265	1495.495	1416.332
661.058	22.214	1493.316	1413.683
662.072	22.099	1491.836	1411.181
663.087	22.231	1490.439	1410.758
664.101	22.048	1490.167	1408.860
665.116	22.063	1489.421	1408.108
666.131	21.977	1488.325	1406.209
667.145	22.033	1486.447	1404.714
668.160	21.817	1485.723	1402.122
669.174	21.847	1483.518	1400.117
670.189	22.032	1482.262	1400.248
671.204	21.983	1481.821	1399.271
672.218	21.955	1481.514	1398.587
673.233	22.018	1480.064	1397.557
674.247	21.879	1478.593	1394.890
675.262	21.852	1477.725	1393.689
676.276	21.926	1476.398	1392.858
677.291	22.011	1476.275	1393.257
678.306	22.078	1475.222	1392.630
679.320	21.998	1473.721	1390.410
680.335	21.821	1473.215	1388.358
681.349	21.782	1472.154	1386.878
682.364	21.948	1469.960	1385.969
683.379	21.913	1468.767	1384.394
684.393	21.931	1467.412	1383.094
685.408	21.943	1466.518	1382.184
686.422	21.933	1465.229	1380.722
687.437	21.652	1465.288	1378.393
688.452	21.557	1464.081	1376.343
689.466	21.578	1462.986	1375.315
690.481	21.777	1461.159	1375.002
691.495	21.801	1461.289	1375.143
692.510	22.129	1460.799	1377.103
693.525	22.424	1458.789	1377.364
694.539	22.183	1457.546	1374.135
695.554	21.844	1456.306	1370.136
696.568	21.593	1454.811	1366.599
697.583	21.495	1453.744	1364.666
698.598	21.633	1452.901	1364.791
699.612	21.556	1452.098	1363.271
700.627	21.719	1450.634	1363.008
701.641	21.726	1450.317	1362.601
702.656	21.676	1448.794	1360.618
703.671	21.644	1448.436	1359.865
704.685	21.572	1447.837	1358.579
705.700	21.820	1445.831	1358.467
706.714	21.865	1444.715	1357.605
707.729	21.871	1443.465	1356.317
708.744	21.904	1441.794	1354.841
709.758	22.024	1440.954	1354.820
710.773	22.069	1440.379	1354.464
711.787	22.045	1438.827	1352.661
712.802	22.022	1437.877	1351.426
713.816	22.036	1436.591	1350.162
714.831	21.906	1435.446	1347.923
715.846	21.884	1433.570	1345.825
716.860	21.761	1432.181	1343.419
717.875	21.809	1431.257	1342.760
718.889	21.678	1430.662	1341.034
719.904	21.792	1429.426	1340.586
720.919	21.632	1427.972	1337.836
721.933	21.572	1427.193	1336.484
722.948	21.656	1425.933	1335.790
723.962	21.594	1425.642	1334.884
724.977	21.589	1424.336	1333.462
725.992	21.675	1423.232	1332.924
727.006	21.751	1421.199	1331.444
728.021	21.814	1419.135	1329.831
729.035	21.680	1419.336	1328.840
730.050	21.590	1418.282	1327.004
731.065	21.815	1416.674	1327.057
732.079	21.592	1416.205	1324.755
733.094	21.634	1415.401	1324.171
734.108	21.831	1414.060	1324.251
735.123	21.656	1412.473	1321.278
736.138	21.860	1410.963	1321.256
737.152	21.870	1409.758	1320.041
738.167	21.658	1408.777	1317.361
739.181	21.533	1408.531	1316.029
740.196	21.512	1407.956	1315.177
741.211	21.532	1406.480	1313.793
742.225	21.612	1405.524	1313.342
743.240	21.541	1404.227	1311.440
744.254	21.550	1402.489	1309.729
745.269	21.371	1401.720	1307.511
746.284	21.379	1401.792	1307.480
747.298	21.378	1400.686	1306.281
748.313	21.739	1399.602	1307.821
749.327	22.001	1399.653	1309.683
750.342	22.163	1399.460	1310.558
751.356	22.324	1397.895	1310.138
752.371	22.056	1396.521	1306.691
753.386	21.809	1394.609	1302.899
754.400	21.603	1393.179	1299.871
755.415	21.712	1391.377	1298.851
756.429	21.459	1391.014	1296.471
757.444	21.557	1389.495	1295.623
758.459	21.420	1388.350	1293.384
759.473	21.348	1387.629	1292.028
760.488	21.455	1386.432	1291.548
761.502	21.443	1384.714	1289.705
762.517	21.520	1382.943	1288.473
763.532	21.533	1382.749	1288.235
764.546	21.513	1382.218	1287.436
765.561	21.648	1381.918	1288.002
766.575	22.067	1380.989	1290.077
767.590	21.940	1380.355	1288.393
768.605	21.964	1377.671	1285.912
769.619	21.650	1376.616	1282.462
770.634	21.660	1375.351	1281.198
771.648	21.407	1374.361	1278.267
772.663	21.381	1373.247	1276.886
773.678	21.439	1372.741	1276.685
774.692	21.357	1372.130	1275.367
775.707	21.388	1371.479	1274.838
776.721	21.520	1370.348	1274.599
777.736	21.372	1368.599	1271.735
778.751	21.475	1367.211	1271.050
779.765	21.458	1366.550	1270.156
780.780	21.500	1366.512	1270.272
781.794	21.419	1365.219	1268.329
782.809	21.378	1364.117	1266.858
783.824	21.283	1363.062	1265.035
784.838	21.695	1361.925	1266.822
785.853	21.868	1361.732	1267.744
786.867	21.779	1361.357	1266.597
787.882	21.529	1360.423	1263.762
788.897	21.458	1359.336	1262.087
789.911	21.177	1358.132	1258.781
790.926	21.221	1356.287	1257.243
791.940	21.250	1355.067	1256.168
792.955	21.128	1353.274	1253.477
793.969	21.148	1352.551	1252.801
794.984	21.216	1351.571	1252.234
795.999	21.346	1349.975	1251.538
797.013	21.403	1348.213	1250.166
798.028	21.311	1347.439	1248.642
799.042	21.267	1346.221	1247.044
800.057	21.235	1345.485	1245.987
801.072	21.298	1343.486	1244.433
802.086	21.366	1342.449	1243.811
803.101	21.179	1342.027	1241.937
804.115	21.158	1341.588	1241.233
805.130	21.159	1340.592	1240.167
806.145	21.209	1339.513	1239.377
807.159	21.198	1337.530	1237.315
808.174	21.352	1336.765	1237.560
809.188	21.447	1335.657	1237.057
810.203	21.341	1334.510	1235.099
811.218	21.546	1333.176	1235.164
812.232	21.543	1332.502	1234.376
813.247	21.739	1331.162	1234.371
814.261	21.619	1330.269	1232.550
815.276	21.476	1328.786	1230.016
816.291	21.177	1328.082	1227.101
817.305	21.084	1326.838	1225.154
818.320	21.084	1325.459	1223.728
819.334	21.136	1323.914	1222.523
820.349	21.196	1322.609	1221.598
821.364	21.128	1321.196	1219.664
822.378	21.162	1319.966	1218.621
823.393	21.196	1318.084	1216.979
824.407	21.205	1317.512	1216.367
825.422	21.142	1316.988	1215.300
826.437	21.139	1315.887	1214.116
827.451	21.000	1314.868	1212.057
828.466	21.496	1313.778	1214.369
829.480	21.788	1311.447	1214.101
830.495	21.556	1309.506	1210.546
831.509	21.101	1308.858	1206.641
832.524	21.018	1307.944	1205.077
833.539	21.202	1306.566	1204.942
834.553	21.159	1305.366	1203.390
835.568	21.154	1304.418	1202.343
836.582	21.033	1303.373	1200.393
837.597	21.068	1302.177	1199.391
838.612	21.197	1299.846	1197.992
839.626	21.384	1299.319	1198.654
840.641	21.422	1298.933	1198.416
841.655	21.498	1298.342	1198.250
842.670	21.629	1298.194	1198.870
843.685	21.790	1296.502	1198.271
844.699	21.575	1294.907	1195.175
845.714	21.436	1293.533	1192.814
846.728	21.350	1292.647	1191.267
847.743	21.227	1291.292	1189.030
848.758	21.122	1290.034	1187.014
849.772	21.044	1288.667	1185.078
850.787	21.068	1287.120	1183.677
851.801	21.024	1286.079	1182.280
852.816	21.149	1285.029	1182.022
853.831	21.134	1283.322	1180.213
854.845	21.151	1281.260	1178.289
855.860	21.028	1280.198	1176.338
856.874	21.114	1279.455	1176.099
857.889	21.271	1279.002	1176.602
858.904	21.446	1277.945	1176.673
859.918	21.753	1276.548	1177.320
860.933	21.715	1275.702	1176.142
861.947	21.548	1274.608	1173.868
862.962	21.382	1272.268	1170.454
863.977	21.314	1270.945	1168.638
864.991	21.056	1269.951	1165.850
866.006	20.989	1269.987	1165.294
867.020	20.941	1268.260	1163.253
868.035	21.084	1267.026	1162.935
869.049	20.911	1266.729	1161.367
870.064	20.938	1265.795	1160.548
871.079	21.017	1264.887	1160.112
872.093	21.149	1263.411	1159.496
873.108	21.242	1262.393	1159.047
874.122	21.286	1261.616	1158.487
875.137	21.453	1261.699	1159.535
876.152	21.427	1261.114	1158.685
877.166	21.518	1258.854	1157.076
878.181	21.118	1257.316	1152.867
879.195	20.979	1257.090	1151.597
880.210	21.126	1255.603	1151.076
881.225	21.217	1253.785	1149.871
882.239	21.063	1253.709	1148.645
883.254	21.103	1252.439	1147.613
884.268	21.018	1252.059	1146.560
885.283	20.997	1250.594	1144.944
886.298	21.159	1248.939	1144.362
887.312	21.162	1248.124	1143.496
888.327	21.035	1247.428	1141.889
889.341	21.028	1246.071	1140.465
890.356	20.938	1245.518	1139.225
891.371	20.977	1245.395	1139.234
892.385	20.919	1244.489	1137.889
893.400	21.026	1243.333	1137.398
894.414	21.093	1242.354	1136.804
895.429	21.360	1240.812	1137.006
896.444	21.763	1239.880	1138.645
897.458	22.019	1239.237	1139.592
898.473	21.809	1237.740	1136.708
899.487	21.338	1236.592	1132.453
900.502	21.270	1234.978	1130.393
901.517	21.143	1233.386	1127.978
902.531	20.994	1232.732	1126.277
903.546	20.964	1232.605	1125.833
904.560	20.986	1231.564	1124.890
905.575	21.295	1229.867	1125.204
906.589	21.169	1229.304	1123.739
907.604	21.336	1228.718	1124.148
