DTS Sentinel unit serial number:	SN409020Multiplexer serial number:	ORYXHardware model number:	OX4-SRSoftware version number:	ORYX F/W v3.00 Oryx Data Collector v3.7.2.0data status	okinstallation	HaddamTimeLapsedifferential loss correction	single-endedforward channel	channel 3reverse channel	N/Adate	2011/06/21time	23:16:16forward acquisition time	30.00reverse acquisition time	0.00gamma	498.7831k internal	0.1753k external	0.1753temperature offset calibration	1.0074default loss term (dB/km)	0.3790temperature slope calibration	1.3530multiplexer offset coefficient	1.0000multiplexer slope coefficient	1.0000fibre end	0.00T internal ref (°C)	23.34T ext. ref 1 (°C)	18.95T ext. ref 2 (°C)	0.05length (m)	temperature (°C)	Stokes	anti-Stokes-747.200	40.557	0.066	-0.078
-746.185	74.590	0.303	-0.423
-745.171	698.766	-0.191	-0.671
-744.156	-107.323	-0.463	-0.134
-743.142	800.000	0.159	0.600
-742.127	-200.000	0.056	0.463
-741.112	-171.126	0.166	0.007
-740.098	-12.930	-0.411	0.355
-739.083	-15.470	0.113	0.096
-738.069	54.119	-0.018	0.023
-737.054	-59.319	-0.214	-0.122
-736.039	-102.469	-0.800	-0.252
-735.025	20.788	-0.045	0.048
-734.010	83.878	-0.262	-0.380
-732.996	-200.000	0.032	0.276
-731.981	800.000	-0.057	0.302
-730.966	-88.648	0.156	0.061
-729.952	118.865	-0.073	-0.119
-728.937	0.959	-0.438	-0.416
-727.923	75.865	-0.074	-0.104
-726.908	-144.177	0.202	-0.025
-725.894	-42.146	0.045	0.031
-724.879	800.000	-0.066	-0.265
-723.864	-154.233	-0.532	-0.047
-722.850	-67.893	0.444	-0.229
-721.835	-38.874	0.332	0.231
-720.821	-94.077	-0.270	0.097
-719.806	-95.640	0.179	0.063
-718.791	-154.432	0.260	-0.023
-717.777	-157.717	-0.492	-0.038
-716.762	25.168	-0.204	-0.224
-715.748	284.557	0.129	-0.308
-714.733	800.000	0.090	0.403
-713.718	-200.000	0.014	-0.134
-712.704	-29.410	-0.350	0.265
-711.689	-26.097	-0.256	-0.199
-710.675	-38.804	-0.226	0.158
-709.660	60.932	-0.256	0.336
-708.645	-149.190	0.301	0.032
-707.631	9.959	-0.178	-0.179
-706.616	24.079	0.246	0.269
-705.602	310.266	-0.077	-0.193
-704.587	51.402	0.272	-0.342
-703.572	-48.946	0.179	-0.113
-702.558	800.000	0.031	0.182
-701.543	154.049	-0.064	-0.117
-700.529	-19.414	-0.362	-0.296
-699.514	-144.573	-0.302	0.036
-698.499	-139.191	0.298	0.042
-697.485	-139.532	0.331	0.046
-696.470	800.000	-0.056	0.301
-695.456	-200.000	0.049	-0.402
-694.441	481.799	0.044	-0.134
-693.426	-87.281	0.337	-0.135
-692.412	-27.351	0.296	-0.228
-691.397	112.052	0.140	0.224
-690.383	-108.030	0.265	0.076
-689.368	-32.733	-0.270	-0.199
-688.354	-55.208	-0.203	-0.120
-687.339	800.000	0.027	-0.134
-686.324	-101.177	-0.095	0.031
-685.310	-62.223	-0.556	-0.306
-684.295	-126.681	-0.485	0.094
-683.281	-200.000	0.029	-0.410
-682.266	73.532	-0.193	0.268
-681.251	-116.483	0.190	0.046
-680.237	161.604	-0.386	0.716
-679.222	589.762	0.075	0.246
-678.208	160.690	0.408	0.756
-677.193	-103.251	0.395	0.123
-676.178	-200.000	0.007	0.310
-675.164	-200.000	-0.009	-0.335
-674.149	-200.000	0.041	-0.255
-673.135	28.309	-0.187	0.209
-672.120	-45.528	0.476	0.311
-671.105	22.475	0.208	-0.225
-670.091	-35.404	0.279	0.200
-669.076	-57.181	-0.215	0.125
-668.062	-117.505	-0.120	-0.028
-667.047	-64.486	-0.291	0.156
-666.032	9.686	-0.248	-0.248
-665.018	-21.842	-0.137	0.110
-664.003	-191.755	-0.420	0.005
-662.989	-96.743	0.266	0.092
-661.974	-110.060	0.149	-0.041
-660.959	-200.000	-0.000	-0.291
-659.945	-135.809	-0.273	-0.042
-658.930	-144.788	0.060	-0.007
-657.916	-78.452	0.180	0.081
-656.901	208.751	0.022	0.045
-655.886	-110.003	-0.541	0.149
-654.872	-152.880	-0.143	0.013
-653.857	-86.131	-0.430	0.175
-652.843	-18.830	0.359	0.295
-651.828	-103.629	0.372	0.115
-650.814	-99.006	-0.381	0.127
-649.799	139.858	0.165	0.288
-648.784	-100.247	-0.395	0.129
-647.770	-23.527	-0.322	-0.255
-646.755	800.000	-0.112	0.577
-645.741	-98.907	-0.236	-0.079
-644.726	-105.664	-0.362	-0.107
-643.711	-160.154	-0.588	-0.042
-642.697	-76.081	0.177	-0.082
-641.682	-56.982	-0.159	0.092
-640.668	-116.384	-0.504	0.122
-639.653	-200.000	0.026	0.317
-638.638	800.000	-0.083	-0.331
-637.624	58.475	0.258	-0.334
-636.609	-73.590	-0.296	-0.142
-635.595	800.000	-0.038	-0.143
-634.580	155.103	0.157	-0.285
-633.565	94.001	-0.128	-0.192
-632.551	800.000	-0.112	-0.413
-631.536	-155.580	-0.054	0.005
-630.522	-107.893	-0.342	-0.098
-629.507	-86.959	0.140	-0.056
-628.492	-92.068	0.260	-0.097
-627.478	-200.000	-0.034	-0.220
-626.463	-21.817	0.513	0.412
-625.449	-134.116	-0.240	0.039
-624.434	800.000	0.055	-0.204
-623.419	800.000	-0.063	0.241
-622.405	-67.098	-0.259	0.134
-621.390	-150.462	0.575	0.058
-620.376	0.445	-0.178	-0.168
-619.361	-200.000	0.015	0.289
-618.346	93.391	-0.351	0.525
-617.332	-154.718	0.117	-0.010
-616.317	800.000	-0.065	0.241
-615.303	8.296	-0.133	-0.131
-614.288	-27.854	-0.234	0.178
-613.273	267.156	0.123	0.285
-612.259	42.886	-0.012	-0.014
-611.244	53.043	0.136	0.172
-610.230	-200.000	-0.010	0.292
-609.215	-20.585	0.425	0.344
-608.201	-126.186	0.175	-0.034
-607.186	-3.750	-0.232	-0.212
-606.171	-45.831	0.141	0.092
-605.157	-76.681	-0.157	0.072
-604.142	-79.837	-0.439	0.194
-603.128	-111.863	-0.128	0.034
-602.113	-133.075	-0.337	-0.056
-601.098	-41.240	-0.234	-0.159
-600.084	92.532	0.106	-0.158
-599.069	-200.000	-0.021	-0.594
-598.055	-157.397	0.566	0.044
-597.040	338.789	0.111	0.285
-596.025	40.214	0.246	0.292
-595.011	38.759	-0.123	-0.145
-593.996	-79.935	0.509	-0.225
-592.982	-200.000	-0.013	-0.087
-591.967	-37.111	0.360	0.253
-590.952	722.991	-0.094	0.332
-589.938	-118.691	-0.294	0.068
-588.923	-193.530	-0.067	-0.001
-587.909	-13.844	0.388	-0.330
-586.894	-90.784	0.321	0.121
-585.879	-158.417	-0.335	0.025
-584.865	-44.011	-0.299	-0.198
-583.850	29.008	-0.159	0.177
-582.836	-57.266	-0.114	-0.066
-581.821	-64.141	-0.211	-0.113
-580.806	-58.341	-0.141	0.081
-579.792	-28.344	-0.271	0.205
-578.777	-126.745	-0.180	-0.035
-577.763	800.000	-0.067	0.381
-576.748	312.655	-0.089	-0.220
-575.733	116.104	0.163	0.263
-574.719	-66.192	-0.205	0.107
-573.704	-7.244	-0.666	-0.594
-572.690	-88.657	-0.360	0.141
-571.675	-200.000	0.006	-0.091
-570.661	-145.064	-0.138	-0.016
-569.646	-89.437	-0.096	0.037
-568.631	-82.332	0.223	-0.095
-567.617	250.983	-0.068	0.152
-566.602	-86.964	-0.269	-0.108
-565.588	800.000	0.129	0.562
-564.573	-83.769	0.331	0.138
-563.558	-60.560	0.188	0.105
-562.544	800.000	-0.050	-0.247
-561.529	51.509	0.159	0.200
-560.515	-28.632	-0.377	-0.286
-559.500	-58.378	-0.327	0.186
-558.485	-55.138	-0.190	0.112
-557.471	712.483	-0.112	-0.392
-556.456	99.593	0.131	-0.200
-555.442	-147.218	-0.142	0.016
-554.427	14.174	0.239	-0.245
-553.412	-159.036	-0.350	0.026
-552.398	-200.000	0.032	-0.364
-551.383	256.430	0.087	-0.196
-550.369	800.000	0.097	0.440
-549.354	-0.533	-0.095	-0.089
-548.339	-98.305	-0.099	-0.033
-547.325	-171.575	-0.424	0.018
-546.310	-140.728	-0.045	-0.006
-545.296	-139.461	-0.239	-0.033
-544.281	75.416	0.253	0.352
-543.266	-200.000	0.078	0.471
-542.252	800.000	0.180	0.822
-541.237	-18.372	0.184	-0.151
-540.223	-55.242	-0.089	0.052
-539.208	-124.126	-0.149	-0.031
-538.193	-86.046	0.138	-0.056
-537.179	-200.000	-0.089	-0.689
-536.164	-59.358	0.313	0.176
-535.150	-200.000	-0.022	0.235
-534.135	-71.262	0.880	-0.433
-533.121	-75.557	0.477	-0.222
-532.106	39.719	-0.390	-0.461
-531.091	-200.000	0.010	-0.243
-530.077	-19.820	-0.513	0.417
-529.062	59.489	0.235	0.304
-528.048	-143.301	0.171	0.021
-527.033	-46.371	0.219	-0.141
-526.018	-93.740	-0.454	-0.164
-525.004	23.174	0.358	-0.386
-523.989	-138.988	0.324	0.046
-522.975	254.921	0.230	-0.520
-521.960	29.742	-0.049	0.055
-520.945	126.138	-0.130	0.217
-519.931	183.125	-0.244	0.475
-518.916	197.807	-0.358	0.720
-517.902	79.645	0.291	0.412
-516.887	215.956	0.155	-0.325
-515.872	745.003	0.049	-0.173
-514.858	501.092	0.080	0.245
-513.843	-97.055	-0.051	-0.018
-512.829	26.083	-0.296	0.325
-511.814	-73.289	0.550	-0.263
-510.799	9.517	-0.303	0.301
-509.785	-105.849	0.203	0.060
-508.770	254.801	-0.115	-0.261
-507.756	90.817	0.314	0.463
-506.741	-163.142	0.229	-0.014
-505.726	-34.225	0.404	-0.291
-504.712	-108.977	-0.174	-0.048
-503.697	-200.000	-0.015	0.297
-502.683	-161.012	0.520	-0.035
-501.668	765.490	0.084	-0.302
-500.653	-47.260	-0.506	-0.323
-499.639	-147.197	0.270	0.030
-498.624	-200.000	0.030	0.473
-497.610	-26.574	0.177	-0.136
-496.595	-66.997	-0.085	0.044
-495.581	-200.000	0.001	-0.248
-494.566	-72.599	-0.156	-0.075
-493.551	-130.223	0.219	0.039
-492.537	442.332	0.130	-0.376
-491.522	-81.877	-0.345	-0.148
-490.508	388.334	0.198	0.540
-489.493	36.175	0.347	0.402
-488.478	110.686	0.133	-0.210
-487.464	-200.000	-0.042	0.345
-486.449	-28.684	-0.223	-0.168
-485.435	48.019	-0.147	0.181
-484.420	-54.603	0.173	-0.103
-483.405	7.934	0.073	0.072
-482.391	800.000	0.021	0.081
-481.376	-90.815	-0.377	-0.142
-480.362	19.154	-0.287	-0.302
-479.347	-30.020	-0.249	-0.186
-478.332	800.000	-0.038	-0.214
-477.318	-150.473	-0.122	0.012
-476.303	67.905	0.257	-0.345
-475.289	17.157	-0.008	-0.009
-474.274	-172.739	0.210	-0.008
-473.259	-138.192	-0.160	0.023
-472.245	-165.322	0.463	-0.026
-471.230	65.756	0.286	-0.381
-470.216	166.760	0.142	-0.264
-469.201	-200.000	-0.181	-0.000
-468.186	418.331	-0.177	-0.498
-467.172	48.673	0.271	-0.333
-466.157	38.847	-0.366	-0.429
-465.143	-51.245	-0.330	-0.202
-464.128	-75.782	0.287	-0.133
-463.113	-200.000	-0.009	0.133
-462.099	-93.519	0.348	-0.125
-461.084	2.531	-0.509	0.484
-460.070	-134.607	0.360	0.057
-459.055	17.680	0.240	-0.250
-458.040	-95.612	0.413	-0.144
-457.026	-87.780	0.293	-0.115
-456.011	-55.103	0.134	-0.079
-454.997	-100.897	0.702	0.225
-453.982	-69.909	0.354	-0.176
-452.968	11.224	0.051	-0.051
-451.953	-43.563	0.286	0.189
-450.938	-33.516	0.237	-0.172
-449.924	15.338	0.209	0.215
-448.909	383.437	0.100	-0.272
-447.895	800.000	0.065	-0.248
-446.880	-200.000	-0.002	-0.051
-445.865	-41.361	-0.509	-0.343
-444.851	686.034	0.068	-0.235
-443.836	235.900	0.240	-0.522
-442.822	314.514	-0.190	0.471
-441.807	-47.884	0.191	-0.121
-440.792	106.359	0.193	0.300
-439.778	-143.818	-0.247	0.030
-438.763	-76.189	0.246	0.113
-437.749	-66.626	0.285	-0.148
-436.734	-200.000	-0.028	0.311
-435.719	-109.714	-0.171	0.047
-434.705	-200.000	-0.076	0.459
-433.690	-72.675	0.159	0.076
-432.676	-200.000	-0.033	-0.701
-431.661	121.805	0.158	-0.259
-430.646	94.959	0.207	-0.309
-429.632	-27.764	-0.082	-0.062
-428.617	800.000	0.017	-0.072
-427.603	314.653	0.024	0.060
-426.588	-19.146	0.385	0.313
-425.573	-23.648	0.143	-0.112
-424.559	800.000	-0.032	-0.172
-423.544	199.082	0.135	0.272
-422.530	-116.108	0.147	0.035
-421.515	-44.767	0.418	0.272
-420.500	164.911	0.151	0.279
-419.486	38.103	0.094	0.109
-418.471	-200.000	-0.018	-0.161
-417.457	276.734	-0.096	0.224
-416.442	-200.000	-0.033	-0.342
-415.428	362.543	0.067	0.177
-414.413	-11.822	-0.448	0.385
-413.398	-44.099	0.255	-0.167
-412.384	19.922	0.176	0.186
-411.369	603.784	0.111	-0.363
-410.355	-27.516	0.218	-0.166
-409.340	800.000	-0.057	0.233
-408.325	49.707	-0.256	-0.316
-407.311	-126.539	-0.102	0.020
-406.296	42.478	-0.337	0.401
-405.282	178.921	0.090	-0.172
-404.267	-182.740	0.344	-0.008
-403.252	-141.250	-0.211	-0.028
-402.238	-54.161	0.547	0.325
-401.223	447.910	-0.059	0.170
-400.209	800.000	0.129	0.539
-399.194	162.803	0.084	0.154
-398.179	800.000	0.092	-0.455
-397.165	15.087	-0.190	0.195
-396.150	26.460	-0.173	-0.189
-395.136	-22.996	-0.058	0.045
-394.121	-95.804	0.189	-0.066
-393.106	-200.000	-0.033	-0.472
-392.092	38.156	-0.218	0.254
-391.077	-81.263	0.490	0.211
-390.063	-34.417	-0.360	0.258
-389.048	-116.610	-0.313	0.075
-388.033	-58.072	-0.468	0.266
-387.019	-58.227	-0.095	-0.054
-386.004	800.000	-0.109	-0.518
-384.990	-72.049	-0.287	0.139
-383.975	-64.516	-0.268	0.142
-382.960	-2.744	-0.148	-0.135
-381.946	6.760	0.382	-0.372
-380.931	94.998	-0.218	0.325
-379.917	-104.310	-0.123	0.037
-378.902	7.928	-0.166	-0.163
-377.888	-96.895	0.538	0.183
-376.873	-200.000	-0.056	0.532
-375.858	-22.399	-0.389	-0.308
-374.844	-200.000	-0.105	0.747
-373.829	800.000	0.032	-0.130
-372.815	-62.027	-0.239	-0.130
-371.800	-174.821	-0.375	-0.014
-370.785	-200.000	-0.047	0.397
-369.771	-44.117	0.165	-0.108
-368.756	-26.074	-0.021	-0.016
-367.742	800.000	-0.054	0.232
-366.727	-125.104	-0.414	0.082
-365.712	800.000	0.146	-0.599
-364.698	-200.000	-0.020	-0.150
-363.683	221.438	-0.170	-0.359
-362.669	-185.925	0.151	0.003
-361.654	359.431	0.103	0.270
-360.639	79.909	-0.321	0.452
-359.625	-59.024	0.273	0.154
-358.610	-151.294	0.427	-0.041
-357.596	-118.200	0.380	0.088
-356.581	298.139	0.029	0.070
-355.566	-70.003	-0.086	0.042
-354.552	-200.000	-0.107	-0.623
-353.537	800.000	-0.093	0.514
-352.523	-93.400	-0.308	0.111
-351.508	-9.092	-0.121	-0.105
-350.493	-200.000	0.037	-0.415
-349.479	287.552	0.087	0.206
-348.464	-104.216	0.634	0.191
-347.450	800.000	0.071	-0.284
-346.435	-113.703	0.311	-0.078
-345.420	26.465	0.546	0.597
-344.406	-122.610	0.317	0.067
-343.391	-200.000	0.011	0.088
-342.377	-29.376	0.149	0.111
-341.362	-200.000	-0.040	0.300
-340.348	-85.530	-0.452	0.183
-339.333	-77.487	0.379	0.171
-338.318	1.055	-0.095	-0.089
-337.304	-200.000	0.044	-0.305
-336.289	-116.097	-0.510	-0.123
-335.275	-93.236	0.062	-0.022
-334.260	245.126	-0.153	-0.337
-333.245	800.000	-0.079	0.414
-332.231	-94.345	0.040	-0.014
-331.216	60.700	-0.366	0.474
-330.202	-126.692	-0.748	0.143
-329.187	-93.947	-0.186	0.066
-328.172	-36.203	0.117	0.082
-327.158	97.855	-0.198	-0.298
-326.143	-48.884	-0.220	-0.137
-325.129	142.695	0.071	-0.123
-324.114	-152.689	0.245	-0.022
-323.099	145.939	-0.139	-0.244
-322.085	-68.604	-0.570	-0.287
-321.070	99.966	-0.071	-0.107
-320.056	110.221	-0.123	0.194
-319.041	128.399	-0.063	0.104
-318.026	161.462	-0.144	-0.264
-317.012	-200.000	-0.020	-0.122
-315.997	-162.817	0.245	0.015
-314.983	218.790	0.102	0.212
-313.968	-54.991	0.140	-0.082
-312.953	-27.546	-0.195	0.147
-311.939	733.713	0.157	-0.551
-310.924	86.946	0.218	-0.314
-309.910	-60.460	0.249	0.138
-308.895	24.856	0.391	-0.422
-307.880	-126.564	0.492	0.094
-306.866	800.000	0.101	0.560
-305.851	800.000	-0.080	0.457
-304.837	-87.538	-0.462	0.181
-303.822	800.000	-0.051	0.256
-302.807	-22.453	-0.147	0.116
-301.793	172.913	0.054	0.101
-300.778	-12.874	0.333	-0.283
-299.764	-73.729	-0.100	-0.047
-298.749	800.000	0.044	0.230
-297.735	-165.024	-0.540	0.031
-296.720	-129.666	0.257	0.046
-295.705	379.432	-0.127	-0.342
-294.691	-24.962	-0.343	0.264
-293.676	-41.154	0.519	0.348
-292.662	13.115	0.229	0.231
-291.647	-60.357	-0.255	0.141
-290.632	439.193	-0.013	-0.036
-289.618	267.402	0.158	-0.362
-288.603	-200.000	-0.001	0.146
-287.589	21.199	-0.159	0.168
-286.574	166.908	0.163	-0.302
-285.559	-54.468	-0.327	-0.192
-284.545	-134.190	-0.440	0.070
-283.530	103.597	-0.197	-0.302
-282.516	125.255	-0.300	-0.493
-281.501	-200.000	0.033	-0.229
-280.486	-30.300	-0.714	-0.527
-279.472	-200.000	-0.055	0.515
-278.457	-49.206	0.512	0.318
-277.443	-200.000	0.012	0.189
-276.428	-126.497	-0.411	0.079
-275.413	569.829	0.170	0.540
-274.399	-41.138	-0.287	0.192
-273.384	92.129	-0.339	-0.499
-272.370	-183.787	-0.285	0.006
-271.355	-85.274	0.706	-0.286
-270.340	-85.157	0.508	-0.206
-269.326	-200.000	-0.064	-0.493
-268.311	-122.730	-0.137	0.029
-267.297	-58.882	-0.166	0.093
-266.282	117.108	-0.170	-0.273
-265.267	0.159	-0.349	0.324
-264.253	-33.383	-0.273	0.196
-263.238	800.000	0.044	0.203
-262.224	-72.681	-0.121	-0.058
-261.209	-137.969	0.220	-0.032
-260.195	-28.101	0.074	-0.055
-259.180	-200.000	0.126	0.755
-258.165	59.893	-0.063	0.081
-257.151	63.690	-0.204	0.267
-256.136	61.487	-0.358	-0.464
-255.122	-59.530	-0.126	0.070
-254.107	57.994	0.245	0.312
-253.092	-24.574	0.058	-0.045
-252.078	12.155	0.151	-0.151
-251.063	13.224	0.138	-0.139
-250.049	-35.945	-0.240	0.169
-249.034	579.747	0.199	-0.639
-248.019	-93.917	0.260	-0.093
-247.005	31.870	-0.453	-0.508
-245.990	68.742	-0.221	0.295
-244.976	-194.199	0.501	-0.005
-243.961	-102.846	0.046	-0.014
-242.946	182.204	0.125	0.241
-241.932	3.447	-0.112	-0.106
-240.917	-200.000	-0.018	-0.259
-239.903	-41.652	0.199	0.133
-238.888	161.093	-0.056	-0.101
-237.873	345.246	-0.090	0.231
-236.859	800.000	0.085	0.316
-235.844	-122.212	-0.219	-0.046
-234.830	-55.113	0.255	0.148
-233.815	226.442	-0.065	-0.138
-232.800	800.000	-0.080	0.313
-231.786	308.212	-0.096	-0.235
-230.771	-200.000	0.010	0.365
-229.757	244.131	0.139	-0.304
-228.742	-120.545	-0.205	-0.045
-227.727	177.804	-0.071	0.134
-226.713	110.669	0.035	-0.055
-225.698	-200.000	0.003	-0.050
-224.684	-200.000	-0.010	-0.255
-223.669	-125.442	-0.244	0.048
-222.655	-113.425	0.700	-0.177
-221.640	-5.879	0.145	0.129
-220.625	39.643	-0.247	-0.288
-219.611	-69.236	0.221	-0.110
-218.596	-151.706	0.271	-0.026
-217.582	-176.848	-0.313	-0.010
-216.567	599.901	0.152	0.493
-215.552	-132.287	0.310	-0.052
-214.538	168.804	0.058	-0.107
-213.523	141.478	-0.196	-0.338
-212.509	117.208	0.067	-0.107
-211.494	-200.000	0.003	-0.534
-210.479	-156.717	-0.168	-0.013
-209.465	157.464	-0.269	0.486
-208.450	117.193	0.103	-0.164
-207.436	-139.253	0.264	-0.036
-206.421	-200.000	0.020	0.202
-205.406	-74.309	0.142	-0.066
-204.392	-55.618	0.130	-0.076
-203.377	-38.668	-0.156	0.107
-202.363	103.833	-0.046	-0.070
-201.348	-56.131	-0.341	-0.197
-200.333	-93.039	0.391	0.141
-199.319	133.683	0.437	-0.736
-198.304	433.607	-0.085	-0.240
-197.290	-11.899	-0.207	-0.176
-196.275	-4.636	-0.119	0.106
-195.260	-69.296	-0.115	0.057
-194.246	-182.210	-0.093	0.002
-193.231	273.701	0.195	-0.450
-192.217	-154.131	0.179	-0.016
-191.202	173.750	0.209	0.394
-190.187	-200.000	0.099	0.605
-189.173	-200.000	-0.038	0.311
-188.158	-15.107	0.205	0.171
-187.144	109.282	0.162	0.252
-186.129	-165.878	0.143	-0.008
-185.114	-134.672	-0.168	0.026
-184.100	279.419	0.146	0.339
-183.085	-154.339	-0.804	-0.069
-182.071	-183.417	-0.525	0.012
-181.056	-30.311	-0.375	-0.275
-180.042	316.070	-0.132	-0.324
-179.027	553.954	-0.034	-0.106
-178.012	-47.789	0.137	0.086
-176.998	185.211	0.121	0.234
-175.983	156.129	0.098	0.176
-174.969	77.830	0.189	-0.262
-173.954	-200.000	-0.013	0.184
-172.939	303.459	0.239	0.576
-171.925	35.123	0.278	0.316
-170.910	-200.000	0.090	-0.570
-169.896	-180.453	0.210	-0.006
-168.881	412.429	-0.128	0.356
-167.866	-51.216	-0.386	-0.234
-166.852	176.680	0.129	-0.245
-165.837	-172.367	0.096	-0.004
-164.823	-200.000	0.087	0.722
-163.808	-200.000	-0.064	-0.438
-162.793	90.304	0.177	-0.257
-161.779	277.915	-0.106	-0.245
-160.764	-2.330	0.099	0.090
-159.750	-200.000	0.019	-0.380
-158.735	-200.000	0.003	-0.381
-157.720	-83.631	-0.274	0.113
-156.706	751.019	0.026	-0.090
-155.691	-107.615	0.209	-0.059
-154.677	-133.685	0.461	-0.074
-153.662	-128.222	0.258	0.047
-152.647	62.984	-0.218	-0.283
-151.633	156.635	-0.143	0.257
-150.618	-200.000	0.026	-0.358
-149.604	-200.000	-0.030	0.259
-148.589	-79.819	-0.118	-0.051
-147.574	-43.997	0.380	0.247
-146.560	-73.766	0.555	0.260
-145.545	76.286	-0.281	-0.386
-144.531	-200.000	-0.073	-0.681
-143.516	611.258	-0.264	-0.862
-142.502	34.630	0.097	-0.110
-141.487	800.000	0.101	-0.436
-140.472	-138.738	-0.526	0.074
-139.458	-116.039	0.379	-0.091
-138.443	26.974	0.099	0.107
-137.429	-26.399	0.142	0.108
-136.414	188.150	0.188	0.365
-135.399	-165.722	0.208	-0.011
-134.385	800.000	-0.059	-0.327
-133.370	-55.494	-0.483	0.280
-132.356	-51.826	-0.267	0.160
-131.341	-34.122	0.440	-0.312
-130.326	-91.711	-0.362	-0.133
-129.312	-160.008	-0.046	0.003
-128.297	-183.418	0.384	0.008
-127.283	-48.900	0.243	0.150
-126.268	-85.084	0.215	0.087
-125.253	-103.104	-0.205	0.062
-124.239	207.565	0.267	0.542
-123.224	-113.168	-0.343	0.087
-122.210	-69.540	0.478	-0.236
-121.195	263.698	0.097	-0.220
-120.180	-139.630	-0.282	0.038
-119.166	30.233	0.500	0.552
-118.151	800.000	-0.052	-0.214
-117.137	-122.140	-0.055	0.012
-116.122	-63.934	0.279	0.147
-115.107	359.374	-0.116	0.300
-114.093	-126.535	0.229	-0.044
-113.078	-200.000	-0.016	-0.355
-112.064	-71.688	-0.326	-0.157
-111.049	-89.848	-0.299	-0.112
-110.034	800.000	0.085	0.330
-109.020	15.339	-0.197	-0.200
-108.005	-144.183	0.382	0.046
-106.991	-73.202	0.223	-0.105
-105.976	-126.997	-0.284	-0.053
-104.962	-200.000	-0.032	-0.356
-103.947	44.811	0.120	-0.143
-102.932	97.019	-0.106	-0.158
-101.918	-21.936	0.294	0.231
-100.903	132.619	-0.131	0.219
-99.889	-175.739	0.191	-0.007
-98.874	186.408	-0.117	0.226
-97.859	209.267	-0.093	0.190
-96.845	-200.000	-0.016	0.196
-95.830	148.658	0.067	0.118
-94.816	313.988	-0.132	-0.323
-93.801	-2.038	0.331	-0.300
-92.786	130.759	-0.027	-0.045
-91.772	-19.294	0.157	0.126
-90.757	73.197	-0.047	-0.064
-89.743	-120.380	0.164	-0.036
-88.728	54.478	0.220	0.275
-87.713	-45.132	0.269	-0.173
-86.699	140.020	-0.161	-0.275
-85.684	-112.337	0.400	-0.103
-84.670	-134.343	-0.606	-0.095
-83.655	-156.796	0.441	0.035
-82.640	-188.393	-0.276	-0.004
-81.626	106.035	0.083	-0.128
-80.611	4.654	-0.075	0.071
-79.597	18.967	-0.221	0.229
-78.582	-34.702	0.364	-0.256
-77.567	10.659	0.023	0.022
-76.553	238.880	0.137	0.296
-75.538	-166.648	-0.027	-0.001
-74.524	173.638	-0.377	0.705
-73.509	-53.280	0.184	0.109
-72.494	-58.596	-0.387	0.216
-71.480	215.002	-0.067	-0.138
-70.465	-130.081	-0.262	0.046
-69.451	-50.400	-0.035	0.021
-68.436	-97.125	-0.045	-0.015
-67.422	2.705	0.157	0.147
-66.407	798.846	-0.108	-0.388
-65.392	-144.566	0.188	0.022
-64.378	-94.185	0.286	-0.101
-63.363	-97.423	0.144	0.048
-62.349	-48.078	-0.334	0.208
-61.334	-19.114	-2.398	-1.921
-60.319	61.506	0.927	1.192
-59.305	187.807	-3.957	-7.655
-58.290	48.865	3.930	4.766
-57.276	465.516	3.597	10.449
-56.261	-200.000	22.238	315.079
-55.246	361.785	1292.149	3361.436
-54.232	53.200	2844.879	3520.987
-53.217	51.884	2664.117	3276.780
-52.203	32.574	2394.717	2673.240
-51.188	28.563	2059.537	2249.660
-50.173	25.107	1945.716	2084.926
-49.159	24.124	1933.965	2060.822
-48.144	23.773	1929.224	2051.611
-47.130	23.598	1926.987	2047.129
-46.115	23.511	1926.125	2045.119
-45.100	23.611	1924.123	2044.073
-44.086	23.634	1922.023	2042.021
-43.071	23.497	1921.667	2039.986
-42.057	23.506	1919.494	2037.695
-41.042	23.466	1918.064	2035.635
-40.027	23.648	1916.649	2036.151
-39.013	23.376	1915.266	2031.472
-37.998	23.537	1913.235	2031.084
-36.984	23.633	1912.341	2031.158
-35.969	23.490	1911.610	2028.660
-34.954	23.389	1910.140	2025.864
-33.940	23.520	1908.894	2025.956
-32.925	23.526	1907.295	2024.257
-31.911	23.588	1905.943	2023.447
-30.896	23.501	1904.427	2020.762
-29.881	23.391	1903.977	2018.941
-28.867	23.424	1902.302	2017.464
-27.852	23.459	1900.596	2015.981
-26.838	23.337	1899.246	2013.073
-25.823	23.324	1898.465	2012.017
-24.809	23.486	1897.208	2012.448
-23.794	23.381	1895.569	2009.438
-22.779	23.451	1894.111	2008.609
-21.765	23.243	1892.813	2004.783
-20.750	23.302	1891.865	2004.377
-19.736	23.185	1890.901	2001.943
-18.721	23.204	1889.532	2000.624
-17.706	23.314	1888.355	2000.547
-16.692	23.269	1887.342	1998.891
-15.677	23.232	1885.565	1996.512
-14.663	23.255	1885.295	1996.400
-13.648	23.291	1882.540	1993.819
-12.633	23.313	1881.351	1992.724
-11.619	23.203	1881.148	1991.183
-10.604	23.215	1879.822	1989.836
-9.590	23.266	1878.054	1988.463
-8.575	23.339	1876.044	1987.083
-7.560	23.233	1875.300	1985.022
-6.546	23.115	1875.250	1983.559
-5.531	23.104	1874.076	1982.113
-4.517	23.144	1872.186	1980.479
-3.502	23.172	1871.753	1980.264
-2.487	23.205	1870.288	1979.007
-1.473	23.203	1867.660	1976.122
-0.458	23.147	1848.532	1955.183
0.556	19.632	1995.546	2056.363
1.571	18.248	2200.053	2248.567
2.586	19.110	2238.596	2299.262
3.600	19.096	2241.589	2301.866
4.615	19.182	2240.521	2301.657
5.629	18.982	2239.100	2297.233
6.644	19.067	2236.637	2295.574
7.659	19.144	2234.043	2293.663
8.673	19.226	2231.792	2292.175
9.688	19.045	2240.614	2298.527
10.702	17.915	2321.706	2365.709
11.717	16.267	2385.564	2406.877
12.731	7.744	2364.988	2264.283
13.746	1.076	2346.654	2151.526
14.761	0.154	2343.586	2135.304
15.775	0.206	2341.416	2133.820
16.790	0.043	2340.182	2130.116
17.804	0.091	2338.103	2128.647
18.819	0.063	2337.822	2127.749
19.834	0.108	2335.610	2126.111
20.848	0.095	2334.337	2124.515
21.863	0.096	2333.009	2123.064
22.877	0.029	2330.738	2119.801
23.892	-0.007	2328.542	2117.041
24.907	0.112	2325.239	2115.470
25.921	0.071	2324.215	2113.704
26.936	0.048	2322.376	2111.456
27.950	-0.085	2319.712	2106.904
28.965	0.029	2317.872	2106.589
29.980	0.033	2316.869	2105.479
30.994	0.094	2314.732	2104.140
32.009	4.101	2326.729	2171.324
33.023	13.661	2354.527	2332.781
34.038	17.695	2359.967	2394.967
35.053	17.664	2358.240	2392.496
36.067	17.765	2355.871	2391.224
37.082	17.695	2353.457	2387.501
38.096	17.778	2352.110	2387.012
39.111	17.864	2349.213	2384.997
40.126	18.022	2346.633	2384.316
41.140	18.079	2345.203	2383.374
42.155	18.048	2343.492	2380.917
43.169	17.983	2342.413	2378.624
44.184	17.835	2338.823	2372.622
45.199	17.942	2336.138	2371.102
46.213	17.885	2336.639	2370.538
47.228	18.052	2335.367	2371.288
48.242	18.049	2333.301	2368.877
49.257	18.065	2330.986	2366.459
50.271	18.094	2328.386	2363.938
51.286	17.941	2325.593	2358.699
52.301	17.793	2324.974	2355.726
53.315	18.550	2327.046	2368.055
54.330	21.201	2334.848	2412.580
55.344	23.124	2333.862	2437.945
56.359	23.074	2332.600	2435.640
57.374	23.131	2332.565	2436.108
58.388	23.342	2329.240	2435.261
59.403	23.262	2323.359	2427.712
60.417	22.805	2321.381	2419.057
61.432	22.803	2320.197	2417.507
62.447	23.003	2319.435	2419.182
63.461	23.131	2317.408	2418.539
64.476	23.425	2314.499	2419.249
65.490	23.098	2313.021	2412.922
66.505	22.246	2309.352	2397.134
67.520	20.230	2301.841	2361.494
68.534	18.307	2293.775	2326.687
69.549	17.776	2288.765	2314.099
70.563	17.707	2286.994	2311.084
71.578	17.602	2285.459	2307.832
72.593	17.874	2282.011	2307.765
73.607	17.779	2281.626	2305.809
74.622	17.794	2279.384	2303.474
75.636	17.686	2276.591	2298.906
76.651	17.517	2274.727	2294.461
77.666	17.596	2272.455	2292.970
78.680	17.616	2270.294	2290.777
79.695	17.524	2267.397	2286.339
80.709	17.348	2267.247	2283.545
81.724	17.302	2263.739	2279.120
82.739	17.284	2261.910	2276.763
83.753	17.300	2259.766	2274.541
84.768	17.287	2258.133	2272.450
85.782	17.175	2257.204	2269.746
86.797	17.260	2255.474	2268.875
87.812	17.398	2252.829	2267.784
88.826	17.444	2250.662	2265.960
89.841	17.314	2248.626	2261.891
90.855	17.411	2245.824	2260.102
91.870	17.414	2245.053	2259.095
92.884	17.422	2243.058	2256.928
93.899	17.416	2242.111	2255.614
94.914	18.064	2244.939	2266.840
95.928	20.500	2252.159	2306.398
96.943	21.488	2249.862	2316.925
97.957	18.971	2240.354	2273.449
98.972	17.472	2234.400	2247.258
99.987	17.402	2230.960	2242.601
101.001	17.396	2229.238	2240.528
102.016	17.402	2226.212	2237.297
103.030	17.280	2223.739	2232.933
104.045	17.269	2222.337	2231.105
105.060	17.421	2218.978	2229.479
106.074	17.412	2217.692	2227.798
107.089	17.353	2216.169	2225.226
108.103	17.319	2216.117	2224.453
109.118	17.328	2214.528	2222.711
110.133	17.565	2211.277	2222.289
111.147	17.468	2209.248	2218.718
112.162	17.467	2208.886	2218.074
113.176	17.564	2206.312	2216.491
114.191	17.686	2205.401	2216.906
115.206	17.692	2203.200	2214.508
116.220	17.537	2201.924	2210.940
117.235	17.653	2199.103	2209.355
118.249	17.644	2197.171	2207.026
119.264	17.719	2196.129	2206.690
120.279	17.701	2195.028	2205.098
121.293	17.671	2192.887	2202.292
122.308	17.731	2191.459	2201.373
123.322	17.644	2190.148	2198.655
124.337	18.191	2191.123	2206.462
125.352	20.696	2198.500	2246.171
126.366	21.118	2197.123	2249.975
127.381	18.642	2186.678	2207.039
128.395	17.679	2181.216	2188.833
129.410	17.604	2178.999	2185.383
130.424	17.549	2177.491	2182.900
131.439	17.527	2176.167	2181.023
132.454	17.615	2174.443	2180.170
133.468	17.686	2171.961	2178.333
134.483	17.738	2170.006	2176.777
135.497	17.739	2169.684	2176.200
136.512	17.631	2166.847	2171.721
137.527	17.604	2164.185	2168.439
138.541	17.507	2162.852	2165.606
139.556	17.365	2162.952	2163.639
140.570	17.311	2161.638	2161.364
141.585	17.299	2159.042	2158.361
142.600	17.284	2157.519	2156.387
143.614	17.267	2155.687	2154.082
144.629	17.219	2153.989	2151.522
145.643	17.242	2152.419	2149.985
146.658	17.247	2149.649	2147.022
147.673	17.262	2148.004	2145.316
148.687	17.176	2147.429	2143.388
149.702	17.419	2146.581	2145.365
150.716	17.344	2145.794	2143.378
151.731	17.445	2144.416	2143.022
152.746	17.471	2142.500	2141.177
153.760	18.251	2145.352	2153.650
154.775	20.789	2152.337	2192.562
155.789	21.530	2150.907	2200.215
156.804	19.033	2140.165	2157.532
157.819	17.482	2133.945	2131.496
158.833	17.365	2130.220	2126.041
159.848	17.365	2128.455	2124.027
160.862	17.389	2127.076	2122.704
161.877	17.470	2126.128	2122.511
162.892	17.445	2125.393	2121.209
163.906	17.496	2124.594	2120.805
164.921	17.586	2121.602	2118.693
165.935	17.638	2119.913	2117.391
166.950	17.488	2120.086	2115.437
167.964	17.575	2117.313	2113.508
168.979	17.414	2114.965	2108.898
169.994	17.396	2112.930	2106.394
171.008	17.449	2110.688	2104.571
172.023	17.435	2109.209	2102.671
173.037	17.553	2108.785	2103.455
174.052	17.626	2107.498	2102.831
175.067	17.551	2105.446	2099.601
176.081	17.452	2104.829	2097.512
177.096	17.695	2102.746	2098.190
178.110	17.613	2101.494	2095.674
179.125	17.655	2100.384	2094.835
180.140	17.682	2098.527	2093.069
181.154	17.721	2097.350	2092.123
182.169	17.776	2096.810	2092.010
183.183	18.501	2099.067	2102.951
184.198	21.382	2105.906	2145.143
185.213	21.659	2103.773	2146.121
186.227	18.998	2093.868	2103.105
187.242	17.801	2090.033	2084.310
188.256	17.762	2087.808	2081.363
189.271	17.552	2086.156	2076.888
190.286	17.534	2084.433	2074.708
191.300	17.533	2082.773	2072.800
192.315	17.564	2080.812	2070.976
193.329	17.686	2079.974	2071.385
194.344	17.860	2078.442	2071.737
195.359	17.903	2077.016	2070.592
196.373	17.683	2074.313	2064.963
197.388	17.611	2071.634	2061.178
198.402	17.578	2069.116	2058.020
199.417	17.333	2067.854	2053.552
200.432	17.563	2065.280	2053.533
201.446	17.509	2065.060	2052.419
202.461	17.380	2063.544	2049.096
203.475	17.283	2062.035	2046.183
204.490	17.399	2058.927	2044.257
205.504	17.443	2056.390	2042.022
206.519	17.437	2054.994	2040.325
207.534	17.438	2053.536	2038.644
208.548	17.425	2052.547	2037.260
209.563	17.539	2050.779	2036.630
210.577	17.446	2050.720	2035.207
211.592	17.507	2050.243	2035.223
212.607	18.762	2055.000	2054.812
213.621	21.957	2061.409	2099.452
214.636	21.433	2055.113	2086.503
215.650	18.393	2046.373	2041.026
216.665	17.527	2043.319	2027.376
217.680	17.470	2040.804	2023.959
218.694	17.395	2038.554	2020.583
219.709	17.338	2036.915	2018.039
220.723	17.411	2035.789	2017.557
221.738	17.547	2034.393	2017.554
222.753	17.631	2032.471	2016.402
223.767	17.623	2031.330	2014.937
224.782	17.537	2029.206	2011.560
225.796	17.491	2028.359	2009.940
226.811	17.619	2026.154	2009.028
227.826	17.665	2024.634	2007.830
228.840	17.592	2022.874	2004.972
229.855	17.528	2021.823	2002.935
230.869	17.553	2020.264	2001.448
231.884	17.521	2018.998	1999.575
232.899	17.515	2017.783	1998.063
233.913	17.622	2016.992	1998.301
234.928	17.655	2015.559	1997.030
235.942	17.568	2013.752	1993.985
236.957	17.675	2011.677	1992.947
237.972	17.660	2010.895	1991.750
238.986	17.527	2010.621	1989.688
240.001	17.678	2007.675	1988.300
241.015	17.757	2007.318	1988.633
242.030	18.366	2009.567	1997.773
243.045	20.995	2014.347	2033.140
244.059	21.205	2011.417	2032.386
245.074	18.706	2002.932	1994.422
246.088	17.855	1999.190	1980.540
247.103	17.862	1996.896	1978.114
248.117	17.928	1995.508	1977.263
249.132	17.741	1993.742	1973.113
250.147	17.750	1991.354	1970.609
251.161	17.680	1990.427	1968.646
252.176	17.845	1989.096	1969.005
253.190	17.998	1988.153	1969.608
254.205	18.050	1985.477	1967.324
255.220	18.015	1984.247	1965.463
256.234	18.006	1983.110	1964.006
257.249	17.806	1981.689	1960.055
258.263	17.679	1980.923	1957.590
259.278	17.714	1980.330	1957.171
260.293	17.640	1977.803	1953.596
261.307	17.449	1975.749	1949.136
262.322	17.361	1974.219	1946.373
263.336	17.356	1972.463	1944.352
264.351	17.534	1969.406	1943.151
265.366	17.263	1968.512	1938.933
266.380	17.306	1967.765	1938.457
267.395	17.256	1966.513	1936.414
268.409	17.390	1964.622	1935.850
269.424	17.396	1963.271	1934.362
270.439	17.421	1962.316	1933.468
271.453	18.290	1964.574	1945.399
272.468	21.024	1970.191	1982.002
273.482	21.249	1967.182	1981.303
274.497	18.614	1957.361	1941.244
275.512	17.537	1952.934	1924.397
276.526	17.432	1951.016	1921.083
277.541	17.295	1949.287	1917.593
278.555	17.288	1948.033	1916.051
279.570	17.188	1945.752	1912.448
280.585	17.343	1944.969	1913.205
281.599	17.480	1943.392	1912.968
282.614	17.661	1942.186	1913.600
283.628	17.789	1942.013	1914.638
284.643	17.892	1941.119	1914.689
285.657	17.996	1940.364	1914.889
286.672	18.043	1938.814	1913.660
287.687	17.979	1936.589	1910.521
288.701	17.876	1935.362	1907.927
289.716	17.811	1934.155	1905.770
290.730	17.936	1932.628	1905.446
291.745	18.072	1931.383	1905.507
292.760	17.963	1930.999	1903.682
293.774	17.780	1929.727	1900.147
294.789	17.828	1927.568	1898.331
295.803	17.864	1925.514	1896.484
296.818	17.754	1923.737	1893.281
297.833	17.736	1923.585	1892.707
298.847	17.729	1922.152	1890.986
299.862	17.742	1920.868	1889.648
300.876	18.347	1921.806	1897.084
301.891	21.235	1927.535	1934.719
302.906	21.617	1925.395	1936.585
303.920	18.946	1916.494	1897.808
304.935	17.954	1913.273	1883.401
305.949	17.784	1911.419	1879.462
306.964	17.671	1909.072	1875.681
307.979	17.860	1907.457	1875.955
308.993	18.010	1906.319	1876.267
310.008	18.232	1905.713	1877.897
311.022	18.161	1904.467	1875.661
312.037	18.230	1901.286	1873.062
313.052	18.247	1901.396	1873.141
314.066	18.539	1900.529	1875.265
315.081	18.174	1898.837	1869.371
316.095	17.909	1897.194	1864.615
317.110	17.789	1895.291	1861.206
318.125	17.654	1893.208	1857.456
319.139	17.605	1892.025	1855.540
320.154	17.760	1891.184	1856.194
321.168	17.784	1888.624	1853.713
322.183	17.636	1887.246	1850.521
323.197	17.472	1885.907	1847.206
324.212	17.441	1884.469	1845.241
325.227	17.427	1882.095	1842.538
326.241	17.278	1881.139	1839.763
327.256	17.301	1879.592	1838.276
328.270	17.435	1877.928	1837.882
329.285	17.330	1878.326	1836.919
330.300	18.218	1882.538	1850.472
331.314	21.383	1888.243	1890.317
332.329	21.323	1883.137	1884.321
333.343	18.439	1874.265	1844.073
334.358	17.320	1871.267	1828.807
335.373	17.348	1868.601	1826.282
336.387	17.232	1866.680	1822.938
337.402	17.229	1865.448	1821.482
338.416	17.377	1863.879	1821.325
339.431	17.431	1861.716	1819.579
340.446	17.399	1860.612	1817.939
341.460	17.588	1859.409	1818.572
342.475	17.795	1858.067	1819.262
343.489	17.870	1856.938	1818.736
344.504	17.846	1855.898	1817.252
345.519	17.955	1854.852	1817.169
346.533	18.049	1853.194	1816.338
347.548	18.441	1853.942	1821.037
348.562	19.278	1854.508	1830.318
349.577	19.342	1852.409	1828.709
350.592	18.601	1849.953	1818.170
351.606	18.354	1848.880	1814.272
352.621	18.296	1845.679	1810.297
353.635	18.105	1844.317	1806.716
354.650	18.008	1842.260	1803.450
355.665	17.872	1841.000	1800.558
356.679	17.822	1840.461	1799.284
357.694	17.744	1839.028	1796.842
358.708	17.811	1837.248	1795.604
359.723	18.947	1841.372	1811.449
360.738	21.907	1846.294	1847.460
361.752	21.291	1842.043	1836.473
362.767	18.724	1833.461	1800.673
363.781	17.908	1829.523	1787.999
364.796	17.797	1829.302	1786.403
365.810	17.798	1827.231	1784.176
366.825	17.834	1826.278	1783.409
367.840	17.825	1825.451	1782.295
368.854	17.952	1824.518	1782.500
369.869	18.140	1823.036	1782.811
370.883	18.694	1823.975	1789.322
371.898	18.977	1823.152	1791.262
372.913	18.317	1820.435	1781.485
373.927	18.328	1820.107	1781.059
374.942	18.607	1818.586	1782.275
375.956	18.432	1816.078	1777.775
376.971	17.994	1813.132	1770.119
377.986	17.684	1811.095	1764.700
379.000	17.760	1809.595	1763.812
380.015	17.743	1808.415	1762.278
381.029	17.657	1806.258	1759.073
382.044	17.470	1804.186	1754.905
383.059	17.380	1803.308	1752.905
384.073	17.344	1802.538	1751.579
385.088	17.407	1801.796	1751.293
386.102	17.382	1799.711	1748.804
387.117	17.389	1798.037	1747.044
388.132	17.478	1797.594	1747.321
389.146	18.164	1802.521	1758.990
390.161	21.440	1806.336	1796.384
391.175	21.198	1799.312	1786.700
392.190	18.397	1790.210	1748.739
393.205	17.554	1787.311	1737.060
394.219	17.391	1786.933	1734.820
395.234	17.395	1785.272	1733.038
396.248	17.490	1783.654	1732.227
397.263	17.474	1780.771	1729.061
398.278	17.611	1779.188	1728.709
399.292	17.512	1778.369	1726.705
400.307	17.701	1778.195	1728.249
401.321	17.725	1776.940	1727.065
402.336	17.740	1775.688	1725.800
403.350	17.809	1774.466	1725.105
404.365	18.184	1773.328	1727.596
405.380	18.397	1773.419	1729.647
406.394	18.514	1773.161	1730.374
407.409	18.434	1770.924	1727.173
408.423	18.374	1769.761	1725.225
409.438	18.331	1768.427	1723.284
410.453	18.493	1766.493	1722.831
411.467	18.258	1765.898	1719.665
412.482	18.021	1763.808	1715.032
413.496	17.826	1761.807	1710.919
414.511	17.808	1759.935	1708.715
415.526	17.739	1757.607	1705.558
416.540	17.634	1756.291	1703.019
417.555	17.726	1755.684	1703.148
418.569	17.797	1755.408	1703.389
419.584	17.880	1755.548	1704.158
420.599	17.728	1755.738	1702.609
421.613	17.896	1753.929	1702.341
422.628	17.858	1752.066	1699.946
423.642	17.654	1750.632	1696.315
424.657	17.755	1748.463	1695.017
425.672	17.836	1747.862	1695.036
426.686	17.784	1746.694	1693.182
427.701	17.847	1744.528	1691.511
428.715	17.879	1743.674	1690.801
429.730	17.951	1743.106	1690.761
430.745	17.981	1741.184	1688.990
431.759	18.063	1740.614	1689.051
432.774	18.366	1740.304	1691.555
433.788	18.669	1739.719	1693.790
434.803	18.765	1739.942	1694.756
435.818	18.695	1739.424	1693.362
436.832	18.648	1738.638	1691.926
437.847	17.705	1731.518	1675.479
438.861	10.048	1710.478	1579.940
439.876	1.824	1695.572	1485.630
440.890	0.340	1691.628	1467.486
441.905	0.206	1690.740	1465.230
442.920	0.093	1689.504	1462.875
443.934	0.166	1687.967	1462.078
444.949	0.122	1686.834	1460.497
445.963	0.110	1686.257	1459.711
446.978	0.039	1685.490	1458.178
447.993	0.035	1685.030	1457.563
449.007	0.063	1682.110	1455.132
450.022	0.134	1679.875	1453.716
451.036	0.215	1678.540	1453.170
452.051	1.204	1683.398	1466.821
453.066	9.086	1701.929	1560.021
454.080	16.944	1713.941	1647.864
455.095	18.866	1715.593	1668.034
456.109	19.354	1715.989	1672.971
457.124	19.404	1715.431	1672.722
458.139	19.535	1715.000	1673.370
459.153	19.596	1713.857	1672.651
460.168	19.751	1711.745	1671.900
461.182	19.549	1710.597	1668.612
462.197	19.572	1709.155	1667.235
463.212	19.552	1706.607	1664.350
464.226	19.383	1706.248	1662.168
465.241	19.598	1705.463	1663.287
466.255	19.793	1705.079	1664.596
467.270	19.908	1702.799	1663.286
468.285	19.541	1701.340	1658.114
469.299	19.401	1699.560	1654.832
470.314	19.592	1697.974	1654.935
471.328	19.627	1696.966	1654.090
472.343	19.552	1696.381	1652.599
473.358	19.652	1694.983	1651.994
474.372	19.811	1693.330	1651.713
475.387	19.570	1691.785	1647.695
476.401	19.380	1690.643	1644.571
477.416	19.477	1689.173	1643.869
478.430	19.549	1687.560	1642.790
479.445	19.372	1686.220	1639.602
480.460	19.305	1685.476	1638.038
481.474	19.477	1684.159	1638.202
482.489	19.676	1683.312	1639.088
483.503	19.812	1681.966	1638.871
484.518	19.815	1680.633	1637.408
485.533	19.734	1679.855	1635.678
486.547	19.801	1677.699	1634.027
487.562	20.004	1676.854	1634.931
488.576	20.014	1676.066	1634.064
489.591	19.963	1674.475	1631.834
490.606	19.822	1672.951	1628.819
491.620	19.941	1671.557	1628.388
492.635	20.090	1669.652	1627.744
493.649	20.071	1669.297	1627.022
494.664	19.781	1667.946	1622.777
495.679	19.386	1665.656	1616.640
496.693	19.508	1664.756	1616.713
497.708	19.868	1663.885	1619.069
498.722	19.857	1663.716	1618.607
499.737	20.044	1662.161	1618.654
500.752	19.989	1659.700	1615.543
501.766	19.800	1658.022	1611.951
502.781	19.921	1656.673	1611.577
503.795	19.882	1655.806	1610.179
504.810	19.846	1655.365	1609.222
505.825	20.102	1654.291	1610.373
506.839	19.965	1653.380	1608.012
507.854	19.997	1651.696	1606.484
508.868	20.033	1650.043	1605.021
509.883	20.051	1649.316	1604.289
510.898	20.135	1648.127	1603.723
511.912	20.009	1646.621	1600.895
512.927	19.868	1644.589	1597.419
513.941	19.817	1642.484	1594.705
514.956	19.649	1641.394	1591.901
515.971	19.642	1640.201	1590.492
516.985	19.794	1639.346	1590.880
518.000	19.883	1638.676	1590.858
519.014	20.143	1638.093	1592.500
520.029	20.148	1637.070	1591.366
521.043	20.202	1635.655	1590.291
522.058	20.039	1634.277	1587.269
523.073	20.284	1633.129	1588.211
524.087	20.356	1632.872	1588.440
525.102	20.330	1631.580	1586.748
526.116	20.076	1628.675	1581.410
527.131	19.884	1628.214	1579.007
528.146	20.278	1627.418	1581.657
529.160	20.394	1627.301	1582.419
530.175	20.305	1626.368	1580.505
531.189	20.287	1625.069	1578.888
532.204	20.488	1623.368	1578.887
533.219	20.034	1622.008	1573.230
534.233	20.028	1620.073	1571.112
535.248	20.307	1619.747	1573.148
536.262	20.624	1618.559	1574.688
537.277	20.451	1617.166	1571.569
538.292	20.333	1614.500	1567.719
539.306	20.145	1613.087	1564.457
540.321	20.192	1612.194	1563.833
541.335	20.156	1610.873	1562.033
542.350	20.280	1609.258	1561.401
543.365	20.497	1608.313	1562.261
544.379	20.569	1607.570	1562.008
545.394	20.584	1605.666	1560.102
546.408	20.291	1604.282	1555.928
547.423	19.763	1603.780	1550.498
548.438	19.910	1602.681	1550.573
549.452	20.156	1601.086	1551.061
550.467	20.190	1600.540	1550.648
551.481	20.217	1599.335	1549.541
552.496	20.421	1598.756	1550.624
553.511	20.583	1598.474	1551.621
554.525	20.569	1597.216	1550.082
555.540	20.647	1596.587	1549.984
556.554	20.666	1595.497	1548.914
557.569	20.613	1593.391	1546.212
558.583	20.489	1591.577	1543.154
559.598	20.615	1590.214	1542.781
560.613	20.523	1588.967	1540.566
561.627	20.486	1588.381	1539.477
562.642	20.731	1586.986	1540.121
563.656	20.881	1585.871	1540.193
564.671	20.813	1584.819	1538.381
565.686	20.627	1584.108	1535.851
566.700	20.620	1581.482	1533.064
567.715	20.438	1579.784	1529.623
568.729	20.215	1578.346	1526.073
569.744	20.107	1575.924	1522.599
570.759	20.053	1575.735	1521.757
571.773	20.128	1575.212	1521.733
572.788	20.362	1574.005	1522.445
573.802	20.491	1572.370	1521.814
574.817	20.688	1571.427	1522.453
575.832	20.986	1570.486	1523.983
576.846	20.906	1569.427	1522.069
577.861	20.787	1567.834	1519.300
578.875	20.694	1568.074	1518.535
579.890	21.008	1567.360	1520.406
580.905	20.989	1566.031	1518.775
581.919	21.033	1565.758	1518.712
582.934	21.162	1564.501	1518.442
583.948	21.009	1562.846	1515.315
584.963	21.003	1561.364	1513.643
585.978	20.724	1559.784	1509.496
586.992	20.913	1559.129	1510.329
588.007	21.056	1558.778	1511.051
589.021	20.656	1556.196	1504.891
590.036	20.110	1554.466	1498.298
591.051	20.381	1553.234	1499.279
592.065	20.593	1552.514	1500.246
593.080	20.845	1551.133	1500.915
594.094	20.937	1549.267	1499.726
595.109	20.578	1547.076	1494.324
596.123	20.374	1546.104	1491.448
597.138	20.703	1545.777	1493.795
598.153	20.798	1545.016	1493.694
599.167	20.865	1543.272	1492.407
600.182	21.048	1542.220	1492.789
601.196	21.079	1541.267	1491.949
602.211	20.902	1540.622	1489.633
603.226	21.190	1539.741	1491.075
604.240	21.292	1538.861	1490.912
605.255	21.405	1537.716	1490.598
606.269	21.220	1536.660	1487.812
607.284	21.114	1535.417	1485.525
608.299	21.295	1533.025	1484.571
609.313	21.035	1532.513	1481.678
610.328	21.055	1531.729	1480.919
611.342	21.210	1530.165	1480.547
612.357	21.304	1529.721	1480.743
613.372	21.297	1528.276	1479.107
614.386	21.173	1527.057	1476.697
615.401	21.201	1526.259	1475.983
616.415	21.175	1525.955	1475.296
617.430	21.389	1524.659	1475.681
618.445	21.445	1523.707	1475.057
619.459	21.227	1521.894	1471.279
620.474	20.984	1519.994	1467.211
621.488	20.657	1517.805	1462.162
622.503	20.347	1516.754	1458.359
623.518	20.641	1517.250	1461.141
624.532	21.109	1516.351	1464.048
625.547	21.220	1515.897	1464.373
626.561	21.456	1515.211	1465.517
627.576	21.557	1513.846	1464.876
628.591	20.866	1512.359	1457.449
629.605	20.721	1509.860	1453.653
630.620	20.632	1508.166	1451.100
631.634	20.287	1507.393	1447.294
632.649	20.307	1506.809	1446.720
633.663	20.767	1505.561	1449.204
634.678	20.932	1505.908	1450.742
635.693	21.248	1504.365	1451.727
636.707	21.546	1502.987	1452.708
637.722	21.660	1502.046	1452.572
638.736	21.747	1501.168	1452.273
639.751	21.565	1500.636	1450.071
640.766	21.519	1499.082	1448.017
641.780	21.593	1497.518	1446.942
642.795	21.617	1496.240	1445.735
643.809	21.555	1496.071	1444.888
644.824	21.573	1494.742	1443.575
645.839	21.405	1493.701	1441.005
646.853	21.630	1492.555	1441.596
647.868	21.650	1490.447	1439.553
648.882	21.583	1489.475	1437.883
649.897	21.464	1488.227	1435.523
650.912	21.520	1486.447	1434.098
651.926	21.465	1484.966	1432.043
652.941	21.032	1483.918	1427.306
653.955	20.809	1481.633	1423.100
654.970	20.731	1479.265	1420.015
655.985	20.681	1477.772	1418.002
656.999	20.597	1477.619	1416.999
658.014	20.803	1477.044	1417.970
659.028	21.098	1476.393	1419.582
660.043	21.136	1475.921	1419.267
661.058	21.303	1474.603	1419.198
662.072	21.524	1474.013	1420.260
663.087	21.285	1472.881	1417.052
664.101	21.354	1471.964	1416.567
665.116	21.474	1471.638	1417.059
666.131	21.463	1470.721	1415.918
667.145	21.797	1468.728	1416.538
668.160	21.748	1467.854	1415.126
669.174	22.006	1466.556	1415.801
670.189	21.875	1465.284	1413.347
671.204	21.714	1464.575	1411.187
672.218	21.654	1464.127	1410.100
673.233	21.737	1462.768	1409.291
674.247	21.938	1461.681	1409.702
675.262	21.997	1461.373	1409.710
676.276	22.115	1459.681	1408.860
677.291	21.986	1457.879	1405.913
678.306	21.704	1456.522	1402.173
679.320	21.868	1454.982	1401.839
680.335	21.970	1454.806	1402.321
681.349	21.931	1454.936	1401.965
682.364	21.959	1453.675	1400.802
683.379	22.030	1452.051	1399.639
684.393	21.811	1450.895	1396.610
685.408	21.863	1449.631	1395.637
686.422	21.890	1448.760	1394.850
687.437	21.757	1449.035	1393.881
688.452	22.116	1447.929	1395.521
689.466	21.983	1445.818	1392.256
690.481	21.639	1444.851	1388.416
691.495	21.475	1442.508	1384.697
692.510	20.896	1439.947	1377.471
693.525	20.705	1437.900	1373.831
694.539	20.813	1438.692	1375.287
695.554	21.421	1439.383	1380.610
696.568	22.022	1438.343	1384.209
697.583	21.968	1437.605	1382.903
698.598	22.058	1436.873	1382.748
699.612	22.231	1435.673	1382.795
700.627	22.209	1434.107	1380.947
701.641	22.274	1432.630	1379.875
702.656	22.074	1432.967	1378.452
703.671	22.219	1432.539	1379.017
704.685	22.213	1431.661	1377.959
705.700	22.232	1429.695	1376.056
706.714	21.961	1427.642	1371.785
707.729	21.861	1426.235	1369.487
708.744	21.747	1425.202	1367.435
709.758	21.736	1423.793	1365.835
710.773	21.309	1422.090	1360.697
711.787	21.228	1420.150	1358.043
712.802	21.418	1418.938	1358.201
713.816	21.605	1418.782	1359.351
714.831	21.866	1418.227	1360.689
715.846	22.023	1417.542	1361.097
716.860	21.998	1416.952	1360.173
717.875	21.962	1415.892	1358.709
718.889	21.978	1414.962	1357.783
719.904	22.071	1413.827	1357.253
720.919	22.281	1412.360	1357.307
721.933	22.280	1411.985	1356.781
722.948	22.315	1410.746	1355.700
723.962	22.344	1410.368	1355.396
724.977	22.323	1409.369	1354.110
725.992	22.418	1407.510	1352.901
727.006	22.353	1406.184	1350.963
728.021	22.414	1404.871	1350.004
729.035	22.366	1404.001	1348.637
730.050	22.318	1403.149	1347.291
731.065	22.265	1402.297	1345.904
732.079	22.564	1401.049	1346.837
733.094	22.320	1399.380	1343.200
734.108	22.227	1397.961	1340.970
735.123	22.408	1396.323	1340.622
736.138	22.224	1395.815	1338.563
737.152	22.212	1395.539	1338.047
738.167	22.462	1395.312	1339.585
739.181	22.570	1394.055	1339.044
740.196	22.498	1392.992	1337.307
741.211	22.429	1391.845	1335.525
742.225	22.355	1390.171	1333.188
743.240	22.414	1389.460	1332.802
744.254	22.473	1387.977	1331.666
745.269	22.328	1387.150	1329.614
746.284	22.376	1386.283	1328.986
747.298	22.017	1385.106	1324.978
748.313	21.708	1383.584	1321.017
749.327	21.272	1381.691	1315.755
750.342	20.891	1380.429	1311.512
751.356	20.923	1378.669	1309.929
752.371	20.913	1378.569	1309.597
753.386	21.540	1379.087	1314.670
754.400	22.109	1379.071	1318.794
755.415	22.511	1377.458	1320.121
756.429	22.576	1375.553	1318.628
757.444	22.341	1374.973	1316.143
758.459	22.587	1374.267	1317.160
759.473	22.801	1372.872	1317.270
760.488	22.772	1371.864	1315.931
761.502	22.762	1370.998	1314.863
762.517	22.631	1369.657	1312.445
763.532	22.297	1368.160	1308.355
764.546	22.181	1365.726	1305.008
765.561	21.683	1364.831	1300.280
766.575	21.130	1363.278	1294.521
767.590	21.196	1362.177	1293.812
768.605	21.692	1361.991	1297.172
769.619	22.015	1360.863	1298.348
770.634	22.301	1359.857	1299.354
771.648	22.467	1360.006	1300.569
772.663	22.625	1359.564	1301.168
773.678	22.777	1358.026	1300.661
774.692	22.901	1357.452	1300.875
775.707	22.643	1357.551	1298.905
776.721	22.802	1357.147	1299.538
777.736	22.712	1355.517	1297.161
778.751	22.692	1354.173	1295.567
779.765	22.701	1353.504	1294.845
780.780	22.776	1352.470	1294.247
781.794	22.809	1351.239	1293.160
782.809	22.657	1349.537	1290.258
783.824	22.443	1348.972	1287.992
784.838	21.898	1346.732	1281.695
785.853	21.242	1345.455	1275.514
786.867	21.402	1345.351	1276.435
787.882	21.666	1344.522	1277.434
788.897	22.094	1344.311	1280.218
789.911	22.221	1343.070	1279.808
790.926	22.410	1342.236	1280.247
791.940	22.468	1340.940	1279.278
792.955	22.668	1339.484	1279.193
793.969	22.782	1338.030	1278.481
794.984	22.670	1338.109	1277.586
795.999	22.743	1337.512	1277.399
797.013	22.783	1335.359	1275.483
798.028	22.816	1334.301	1274.555
799.042	22.893	1333.916	1274.591
800.057	22.879	1333.355	1273.802
801.072	22.885	1331.554	1271.971
802.086	22.720	1330.708	1269.823
803.101	22.917	1329.349	1269.796
804.115	22.868	1328.246	1268.233
805.130	22.856	1327.617	1267.393
806.145	22.782	1325.563	1264.749
807.159	22.983	1323.947	1264.500
808.174	22.662	1322.976	1261.120
809.188	22.546	1322.092	1259.291
810.203	22.349	1320.195	1255.917
811.218	22.047	1318.746	1252.225
812.232	21.645	1316.810	1247.361
813.247	21.501	1315.734	1245.166
814.261	21.870	1316.011	1247.916
815.276	22.338	1315.973	1251.077
816.291	22.490	1315.130	1251.206
817.305	22.769	1313.989	1251.968
818.320	22.845	1312.760	1251.187
819.334	22.815	1311.499	1249.622
820.349	22.890	1310.665	1249.211
821.364	23.024	1308.827	1248.261
822.378	22.890	1307.797	1246.178
823.393	22.903	1306.331	1244.721
824.407	23.070	1304.730	1244.231
825.422	22.875	1304.513	1242.496
826.437	22.881	1303.611	1241.532
827.451	22.526	1301.337	1236.714
828.466	21.901	1299.003	1229.943
829.480	21.653	1296.787	1225.949
830.495	21.828	1296.152	1226.434
831.509	22.301	1296.165	1229.625
832.524	22.671	1295.379	1231.329
833.539	22.797	1294.776	1231.494
834.553	22.937	1293.253	1230.881
835.568	23.033	1292.548	1230.728
836.582	22.938	1291.622	1229.038
837.597	23.096	1289.608	1228.078
838.612	22.963	1288.485	1225.935
839.626	22.880	1286.989	1223.788
840.641	22.482	1285.744	1219.683
841.655	22.099	1284.752	1215.931
842.670	21.722	1282.984	1211.492
843.685	21.281	1281.879	1207.245
844.699	21.957	1281.639	1211.568
845.714	22.581	1280.678	1214.838
846.728	22.557	1280.325	1214.189
847.743	22.792	1279.920	1215.291
848.758	22.841	1278.870	1214.487
849.772	23.055	1277.501	1214.519
850.787	23.143	1276.381	1213.914
851.801	23.007	1275.635	1212.121
852.816	22.962	1273.579	1209.715
853.831	22.927	1271.747	1207.590
854.845	22.838	1270.710	1205.844
855.860	22.663	1269.493	1203.351
856.874	22.544	1266.888	1199.920
857.889	22.307	1264.931	1196.307
858.904	21.932	1263.470	1192.220
859.918	21.327	1261.490	1186.081
860.933	21.310	1260.805	1185.178
861.947	21.838	1260.645	1188.488
862.962	22.197	1259.375	1189.586
863.977	22.245	1258.823	1189.249
864.991	22.599	1258.279	1190.996
866.006	22.706	1258.585	1191.873
867.020	22.854	1257.270	1191.491
868.035	22.901	1255.856	1190.324
869.049	23.016	1255.256	1190.389
870.064	22.948	1255.278	1189.809
871.079	22.913	1254.085	1188.300
872.093	22.931	1253.294	1187.532
873.108	22.864	1252.150	1185.851
874.122	22.582	1250.651	1182.385
875.137	22.161	1249.149	1177.988
876.152	22.054	1247.650	1175.715
877.166	22.446	1246.474	1177.099
878.181	22.609	1245.760	1177.379
879.195	22.813	1245.123	1178.007
880.210	22.995	1244.689	1178.676
881.225	22.985	1243.719	1177.548
882.239	23.037	1242.791	1176.874
883.254	23.132	1242.545	1177.137
884.268	23.051	1241.824	1175.776
885.283	22.954	1239.908	1173.171
886.298	22.972	1238.631	1171.940
887.312	23.052	1237.317	1171.089
888.327	23.078	1236.696	1170.534
889.341	22.953	1234.861	1167.831
890.356	22.779	1235.028	1166.689
891.371	22.833	1235.022	1166.907
892.385	22.743	1233.373	1164.612
893.400	22.796	1231.746	1163.283
894.414	22.516	1230.443	1160.060
895.429	22.332	1228.008	1156.410
896.444	21.592	1225.127	1148.684
897.458	21.174	1224.313	1145.026
898.473	21.601	1224.611	1147.982
899.487	22.311	1224.191	1152.131
900.502	22.668	1223.921	1154.087
901.517	22.798	1222.945	1153.882
902.531	22.974	1221.889	1153.901
903.546	23.108	1221.120	1153.917
904.560	23.312	1220.332	1154.372
905.575	23.048	1220.223	1152.402
906.589	22.938	1219.531	1150.884
907.604	22.761	1218.832	1148.934
