DTS Sentinel unit serial number:	SN409020Multiplexer serial number:	ORYXHardware model number:	OX4-SRSoftware version number:	ORYX F/W v3.00 Oryx Data Collector v3.7.2.0data status	okinstallation	HaddamTimeLapsedifferential loss correction	single-endedforward channel	channel 3reverse channel	N/Adate	2011/06/22time	03:31:16forward acquisition time	30.00reverse acquisition time	0.00gamma	498.7831k internal	0.1751k external	0.1751temperature offset calibration	1.0074default loss term (dB/km)	0.3790temperature slope calibration	1.3530multiplexer offset coefficient	1.0000multiplexer slope coefficient	1.0000fibre end	0.00T internal ref (°C)	22.31T ext. ref 1 (°C)	17.90T ext. ref 2 (°C)	0.08length (m)	temperature (°C)	Stokes	anti-Stokes-747.200	-157.965	0.349	-0.027
-746.185	-200.000	-0.006	-0.104
-745.171	19.638	0.407	0.435
-744.156	-65.293	-0.217	0.116
-743.142	800.000	-0.023	0.088
-742.127	-63.174	0.176	0.096
-741.112	-109.107	-0.304	0.085
-740.098	551.022	-0.034	-0.109
-739.083	-165.883	-0.476	0.027
-738.069	-27.151	-0.379	0.293
-737.054	-120.143	-0.270	-0.061
-736.039	-85.381	-0.393	-0.162
-735.025	-197.380	0.357	-0.003
-734.010	-200.000	-0.045	-0.392
-732.996	-169.682	-0.872	0.041
-731.981	104.840	-0.151	-0.237
-730.966	-65.139	-0.115	0.062
-729.952	6.611	-0.188	0.186
-728.937	-200.000	-0.005	-0.160
-727.923	-200.000	-0.062	-0.555
-726.908	93.670	-0.225	-0.338
-725.894	108.717	-0.236	0.375
-724.879	800.000	0.041	-0.198
-723.864	-200.000	-0.027	0.440
-722.850	-16.681	-0.235	0.197
-721.835	48.274	-0.259	0.322
-720.821	-13.243	-0.363	0.312
-719.806	41.748	0.215	0.258
-718.791	5.700	0.382	0.375
-717.777	-175.756	-0.561	-0.020
-716.762	800.000	-0.067	0.260
-715.748	108.891	0.154	0.244
-714.733	-143.849	-0.257	-0.032
-713.718	-108.182	-0.477	-0.136
-712.704	-200.000	-0.044	-0.396
-711.689	92.805	-0.064	-0.097
-710.675	-200.000	0.008	-0.049
-709.660	-12.296	0.097	0.084
-708.645	800.000	-0.016	-0.087
-707.631	-65.473	-0.393	-0.209
-706.616	721.284	0.194	-0.690
-705.602	-50.950	0.284	-0.176
-704.587	-21.355	0.204	-0.165
-703.572	800.000	0.049	-0.252
-702.558	30.933	0.246	-0.280
-701.543	-23.569	-0.390	-0.310
-700.529	-176.833	0.226	0.007
-699.514	-72.447	-0.314	0.153
-698.499	-149.023	-0.119	0.013
-697.485	-200.000	-0.186	-0.001
-696.470	25.317	0.071	0.079
-695.456	-97.940	0.297	0.101
-694.441	-142.773	-0.114	0.015
-693.426	-84.160	0.245	-0.103
-692.412	401.467	-0.097	-0.271
-691.397	-200.000	-0.038	-0.356
-690.383	-40.752	-0.268	-0.184
-689.368	-166.665	-0.381	-0.021
-688.354	-79.833	0.330	-0.147
-687.339	-164.832	-0.390	0.023
-686.324	56.345	0.400	-0.515
-685.310	151.310	0.167	-0.302
-684.295	-35.706	0.180	-0.129
-683.281	-123.270	0.405	-0.085
-682.266	-122.222	-0.441	-0.095
-681.251	-61.236	-0.493	-0.275
-680.237	1.746	-0.574	-0.548
-679.222	7.128	0.152	-0.151
-678.208	-51.988	-0.315	-0.193
-677.193	-142.607	-0.419	0.054
-676.178	59.752	0.213	0.279
-675.164	-112.376	-0.527	-0.139
-674.149	66.107	0.150	-0.202
-673.135	-81.370	0.186	-0.081
-672.120	-96.698	-0.312	-0.108
-671.105	-200.000	0.022	0.181
-670.091	119.775	0.375	-0.617
-669.076	-123.445	0.421	-0.088
-668.062	95.537	-0.293	-0.443
-667.047	-36.071	0.192	-0.137
-666.032	-44.046	-0.266	0.176
-665.018	-25.470	0.132	-0.103
-664.003	-79.876	0.557	-0.247
-662.989	381.909	0.102	0.279
-661.974	-59.600	-0.322	0.182
-660.959	-49.360	0.049	-0.031
-659.945	119.590	-0.148	0.243
-658.930	-48.047	0.131	0.084
-657.916	-52.745	0.173	0.105
-656.901	-85.976	0.041	-0.017
-655.886	-106.485	-0.034	0.010
-654.872	-35.067	0.036	0.026
-653.857	-139.710	-0.050	-0.007
-652.843	224.155	-0.238	0.511
-651.828	-72.278	0.471	-0.230
-650.814	449.353	0.081	-0.237
-649.799	-11.717	0.186	-0.161
-648.784	-139.104	-0.642	-0.091
-647.770	-200.000	-0.113	-0.001
-646.755	234.347	-0.152	0.332
-645.741	91.070	-0.030	0.045
-644.726	-104.018	-0.355	0.109
-643.711	337.494	0.070	0.181
-642.697	76.300	-0.057	-0.079
-641.682	177.480	-0.238	0.461
-640.668	800.000	-0.097	0.388
-639.653	-113.566	-0.277	0.071
-638.638	-142.658	0.880	-0.113
-637.624	-55.017	0.219	-0.130
-636.609	145.978	0.193	-0.343
-635.595	-105.289	0.097	-0.029
-634.580	-72.326	0.393	0.192
-633.565	70.255	0.140	0.191
-632.551	273.399	-0.293	-0.687
-631.536	688.364	-0.062	0.215
-630.522	16.013	0.111	-0.115
-629.507	-64.069	-0.285	-0.153
-628.492	-95.230	-0.166	-0.059
-627.478	-47.088	-0.241	0.155
-626.463	-72.040	-0.591	-0.289
-625.449	-200.000	0.004	0.037
-624.434	204.252	-0.035	-0.072
-623.419	91.414	0.036	-0.054
-622.405	-53.554	-0.103	0.062
-621.390	-91.925	0.268	0.100
-620.376	-31.864	-0.332	-0.245
-619.361	-144.744	-0.589	-0.071
-618.346	27.639	-0.176	0.196
-617.332	-138.192	-0.203	0.029
-616.317	-8.560	0.355	0.315
-615.303	83.053	0.314	-0.452
-614.288	16.752	0.200	0.209
-613.273	-200.000	-0.007	0.154
-612.259	-4.367	-0.336	0.307
-611.244	-200.000	0.002	-0.352
-610.230	800.000	0.047	-0.242
-609.215	368.001	0.046	0.123
-608.201	18.726	0.138	0.146
-607.186	635.070	0.094	-0.316
-606.171	-71.175	-0.057	-0.028
-605.157	274.382	0.137	0.321
-604.142	-190.047	0.198	-0.003
-603.128	-188.202	-0.695	0.011
-602.113	-200.000	-0.020	-0.413
-601.098	-131.945	0.414	0.071
-600.084	-109.444	0.346	0.096
-599.069	800.000	-0.041	0.226
-598.055	16.395	-0.114	-0.119
-597.040	-164.213	-0.095	0.006
-596.025	-73.632	-0.176	0.084
-595.011	-149.849	-0.639	0.065
-593.996	-146.502	-0.156	0.018
-592.982	-61.669	-0.290	0.160
-591.967	12.437	-0.441	0.449
-590.952	-93.349	-0.453	0.165
-589.938	23.949	-0.353	0.385
-588.923	-68.301	0.095	-0.048
-587.909	-31.649	-0.272	-0.201
-586.894	-200.000	0.082	0.914
-585.879	800.000	-0.083	0.336
-584.865	244.289	0.177	0.395
-583.850	11.646	0.174	0.176
-582.836	-171.979	0.588	0.025
-581.821	800.000	-0.109	-0.582
-580.806	64.000	-0.107	-0.142
-579.792	278.961	0.027	-0.063
-578.777	496.211	0.071	-0.218
-577.763	-84.787	0.288	0.119
-576.748	69.046	-0.177	0.241
-575.733	-200.000	-0.027	0.206
-574.719	-189.138	0.113	-0.002
-573.704	333.983	-0.224	-0.575
-572.690	493.302	0.170	-0.517
-571.675	578.815	0.107	0.347
-570.661	-158.698	0.200	-0.015
-569.646	-200.000	-0.011	-0.476
-568.631	-32.485	0.455	-0.334
-567.617	-200.000	-0.017	0.299
-566.602	-63.914	0.063	0.034
-565.588	90.753	-0.332	-0.491
-564.573	-68.137	-0.257	0.132
-563.558	-35.772	0.163	0.117
-562.544	-40.363	0.224	-0.153
-561.529	-131.483	-0.121	-0.021
-560.515	-162.106	0.123	-0.008
-559.500	800.000	-0.028	-0.135
-558.485	-141.676	0.142	0.019
-557.471	-200.000	-0.030	0.235
-556.456	58.250	-0.455	0.588
-555.442	617.424	0.042	0.141
-554.427	-22.711	0.642	0.511
-553.412	124.203	0.282	0.469
-552.398	57.394	0.213	0.274
-551.383	196.704	-0.250	0.505
-550.369	-69.128	0.321	0.162
-549.354	-126.992	-0.712	-0.137
-548.339	-85.618	-0.369	0.150
-547.325	-6.195	0.046	-0.041
-546.310	-56.925	-0.149	-0.087
-545.296	-138.697	0.349	-0.050
-544.281	-200.000	-0.031	-0.261
-543.266	16.283	0.303	0.316
-542.252	-102.123	-0.186	-0.059
-541.237	-63.961	0.159	0.085
-540.223	-112.803	0.466	-0.121
-539.208	-35.908	0.368	0.262
-538.193	-9.474	-0.181	-0.159
-537.179	76.499	0.306	-0.428
-536.164	-200.000	-0.010	-0.427
-535.150	800.000	-0.027	-0.116
-534.135	104.704	0.198	0.309
-533.121	-35.980	-0.070	0.050
-532.106	-108.084	0.484	-0.137
-531.091	800.000	-0.083	-0.309
-530.077	-108.093	-0.100	0.028
-529.062	-52.144	0.240	0.146
-528.048	-128.484	0.416	-0.077
-527.033	-13.307	0.556	-0.475
-526.018	-11.845	-0.333	-0.287
-525.004	-75.934	-0.199	0.092
-523.989	-200.000	0.007	0.302
-522.975	6.422	-0.104	0.101
-521.960	-81.532	0.251	-0.108
-520.945	-74.002	0.145	0.069
-519.931	152.713	-0.110	0.199
-518.916	-177.613	-0.402	0.013
-517.902	-111.330	-0.192	-0.051
-516.887	-140.328	-0.165	0.023
-515.872	-174.763	0.439	-0.016
-514.858	70.600	-0.584	-0.796
-513.843	106.588	0.092	0.144
-512.829	-3.561	-0.192	-0.176
-511.814	-200.000	-0.150	0.000
-510.799	800.000	0.027	-0.136
-509.785	-8.498	-0.322	-0.284
-508.770	-158.747	-0.555	-0.041
-507.756	-198.526	-0.258	0.002
-506.741	-168.103	-0.370	-0.019
-505.726	800.000	0.091	-0.340
-504.712	-139.462	-0.222	-0.031
-503.697	-40.043	0.087	-0.060
-502.683	-186.975	0.271	-0.005
-501.668	-200.000	0.008	-0.429
-500.653	26.308	0.237	0.260
-499.639	-72.429	0.032	-0.016
-498.624	-117.638	0.646	-0.152
-497.610	732.877	0.112	0.397
-496.595	36.575	-0.192	-0.223
-495.581	-200.000	-0.023	0.470
-494.566	213.518	-0.136	0.283
-493.551	327.775	0.082	-0.208
-492.537	-200.000	-0.041	0.322
-491.522	-34.962	0.132	0.094
-490.508	-79.392	-0.321	-0.142
-489.493	43.597	-0.324	-0.390
-488.478	-83.362	0.483	0.203
-487.464	183.551	0.082	-0.160
-486.449	439.290	0.083	0.240
-485.435	30.265	0.217	-0.244
-484.420	90.993	0.462	0.683
-483.405	113.147	0.391	0.625
-482.391	-57.620	-0.318	-0.183
-481.376	-33.611	-0.150	0.108
-480.362	773.554	-0.054	-0.194
-479.347	-55.270	-0.103	0.061
-478.332	53.443	-0.100	-0.127
-477.318	-87.874	0.225	-0.088
-476.303	-132.458	-0.347	0.058
-475.289	423.541	0.052	0.146
-474.274	-112.490	-0.190	-0.049
-473.259	-79.913	-0.368	0.162
-472.245	-47.337	-0.120	-0.076
-471.230	556.937	0.165	-0.526
-470.216	762.640	0.145	0.520
-469.201	-22.947	0.192	0.152
-468.186	800.000	0.083	-0.304
-467.172	-82.741	0.149	0.063
-466.157	176.981	0.148	0.285
-465.143	-12.376	-0.343	-0.294
-464.128	22.822	-0.304	-0.327
-463.113	-56.992	-0.281	-0.163
-462.099	-200.000	0.083	-0.719
-461.084	-200.000	-0.036	-0.597
-460.070	-144.489	0.303	0.037
-459.055	-50.158	-0.293	-0.182
-458.040	352.496	0.140	-0.367
-457.026	232.224	0.193	-0.417
-456.011	800.000	-0.055	-0.308
-454.997	-167.015	0.191	0.010
-453.982	-90.615	-0.059	-0.022
-452.968	43.422	-0.063	0.075
-451.953	-32.802	0.403	0.294
-450.938	250.352	-0.107	-0.239
-449.924	291.647	-0.050	-0.120
-448.909	550.629	-0.068	0.214
-447.895	342.455	0.211	-0.545
-446.880	18.024	0.210	-0.220
-445.865	-200.000	-0.037	-0.233
-444.851	52.868	0.113	0.142
-443.836	800.000	-0.094	0.350
-442.822	-200.000	-0.337	0.001
-441.807	-80.549	0.262	0.114
-440.792	-200.000	0.023	-0.165
-439.778	-97.573	-0.318	-0.108
-438.763	-31.819	0.527	-0.387
-437.749	-136.922	0.280	0.042
-436.734	800.000	-0.046	-0.186
-435.719	75.445	-0.068	0.095
-434.705	-91.024	-0.571	0.214
-433.690	-19.546	-0.395	0.321
-432.676	141.720	-0.117	0.204
-431.661	436.634	0.021	-0.062
-430.646	204.723	-0.058	-0.118
-429.632	-108.755	-0.099	0.028
-428.617	4.274	0.208	-0.200
-427.603	-159.378	-0.530	0.038
-426.588	201.554	-0.034	0.069
-425.573	-155.421	0.237	0.020
-424.559	800.000	-0.079	0.319
-423.544	-200.000	-0.038	-0.337
-422.530	184.708	-0.215	0.420
-421.515	18.014	0.341	0.357
-420.500	800.000	0.034	0.183
-419.486	-106.513	0.187	0.054
-418.471	105.071	0.226	0.351
-417.457	-200.000	-0.049	0.678
-416.442	-200.000	0.017	-0.250
-415.428	545.592	-0.100	-0.314
-414.413	-76.892	-0.134	-0.061
-413.398	-109.584	0.214	-0.059
-412.384	-120.847	0.430	0.094
-411.369	110.904	-0.148	0.233
-410.355	-93.593	0.410	-0.148
-409.340	-65.008	-0.149	-0.078
-408.325	-68.295	0.113	0.057
-407.311	-200.000	-0.026	0.159
-406.296	-134.114	0.159	-0.025
-405.282	-98.524	-0.388	0.129
-404.267	117.083	0.215	0.346
-403.252	127.175	-0.184	-0.307
-402.238	352.269	0.128	-0.335
-401.223	-153.041	-0.300	0.027
-400.209	-107.508	0.269	0.077
-399.194	800.000	0.074	0.407
-398.179	-13.935	-0.258	-0.218
-397.165	-122.448	-0.583	-0.123
-396.150	-151.011	-0.073	0.007
-395.136	371.975	-0.044	0.117
-394.121	173.822	0.087	-0.164
-393.106	-200.000	-0.019	0.399
-392.092	800.000	-0.047	0.204
-391.077	136.211	0.031	-0.052
-390.063	-78.544	0.357	0.159
-389.048	-78.823	0.297	-0.132
-388.033	-115.176	-0.462	0.114
-387.019	229.070	0.055	-0.119
-386.004	800.000	-0.025	0.110
-384.990	-200.000	-0.001	0.278
-383.975	170.023	-0.257	-0.483
-382.960	-121.291	0.392	0.085
-381.946	-136.419	0.287	0.043
-380.931	-47.023	0.218	-0.139
-379.917	-119.420	0.370	0.084
-378.902	84.448	-0.129	0.185
-377.888	-96.650	0.294	-0.101
-376.873	-119.304	0.185	-0.042
-375.858	800.000	0.082	-0.381
-374.844	193.065	-0.035	-0.069
-373.829	-63.479	0.206	0.110
-372.815	-1.857	0.074	-0.069
-371.800	649.987	-0.062	0.209
-370.785	-40.658	-0.128	0.087
-369.771	63.091	-0.373	-0.489
-368.756	701.344	-0.077	0.267
-367.742	-81.279	0.455	-0.196
-366.727	-94.183	0.486	-0.173
-365.712	800.000	-0.024	-0.088
-364.698	-55.272	-0.254	0.149
-363.683	-64.204	-0.068	0.036
-362.669	-55.889	-0.281	0.164
-361.654	-78.253	0.483	0.216
-360.639	-43.050	0.573	-0.379
-359.625	-23.140	-0.239	-0.188
-358.610	-163.048	0.250	0.016
-357.596	-55.391	-0.502	0.294
-356.581	-85.714	0.368	-0.149
-355.566	39.765	0.202	0.237
-354.552	-4.756	-0.060	0.054
-353.537	255.999	0.251	0.565
-352.523	-125.873	0.384	-0.075
-351.508	800.000	0.055	-0.212
-350.493	57.581	-0.134	-0.172
-349.479	-200.000	-0.032	-0.202
-348.464	-88.315	0.095	0.037
-347.450	36.836	0.197	0.228
-346.435	35.127	-0.149	-0.171
-345.420	-48.233	-0.309	-0.194
-344.406	-177.650	0.527	0.016
-343.391	41.758	-0.021	-0.025
-342.377	-96.871	0.585	-0.200
-341.362	800.000	-0.053	-0.239
-340.348	800.000	0.035	-0.134
-339.333	-157.994	-0.207	-0.016
-338.318	-80.249	-0.531	-0.231
-337.304	-3.002	0.265	-0.242
-336.289	-160.510	0.364	-0.025
-335.275	236.117	0.047	0.103
-334.260	32.311	0.086	0.097
-333.245	84.196	-0.198	-0.284
-332.231	13.000	-0.158	-0.160
-331.216	365.067	-0.163	0.430
-330.202	-1.177	0.104	0.096
-329.187	362.426	-0.065	0.171
-328.172	-69.188	-0.268	0.134
-327.158	-104.863	-0.453	0.135
-326.143	-200.000	-0.038	0.312
-325.129	-89.831	0.339	0.129
-324.114	800.000	0.077	-0.282
-323.099	-154.603	0.281	-0.024
-322.085	-200.000	-0.016	0.300
-321.070	129.752	-0.221	-0.371
-320.056	-140.145	0.250	-0.034
-319.041	-69.971	-0.235	-0.117
-318.026	-119.075	-0.371	-0.084
-317.012	-5.376	0.122	0.110
-315.997	-64.601	0.324	0.171
-314.983	800.000	-0.069	-0.373
-313.968	-38.283	-0.289	0.200
-312.953	-157.096	-0.051	0.004
-311.939	43.599	-0.277	-0.331
-310.924	-79.661	-0.355	-0.156
-309.910	68.491	0.160	-0.215
-308.895	-62.804	-0.221	-0.119
-307.880	30.322	-0.224	-0.250
-306.866	21.639	-0.258	-0.275
-305.851	4.424	0.222	-0.213
-304.837	251.275	0.166	-0.370
-303.822	599.015	-0.092	0.299
-302.807	-6.493	0.297	0.264
-301.793	243.044	-0.106	-0.232
-300.778	-32.382	0.510	-0.371
-299.764	38.886	0.220	0.257
-298.749	-20.260	0.220	0.177
-297.735	80.580	0.180	-0.253
-296.720	800.000	0.018	-0.067
-295.705	-62.129	0.362	-0.197
-294.691	800.000	-0.034	0.183
-293.676	800.000	-0.046	0.169
-292.662	-102.623	-0.052	0.016
-291.647	-197.019	-0.667	-0.005
-290.632	-105.985	0.227	-0.066
-289.618	-125.473	-0.307	-0.061
-288.603	-55.495	0.107	-0.062
-287.589	44.360	-0.136	-0.163
-286.574	-144.375	-0.194	-0.023
-285.559	-200.000	0.051	-0.564
-284.545	54.025	0.298	-0.375
-283.530	299.787	0.110	0.267
-282.516	800.000	0.046	0.201
-281.501	13.503	-0.307	-0.311
-280.486	427.891	-0.159	-0.449
-279.472	-135.366	0.344	-0.053
-278.457	144.118	0.282	0.492
-277.443	-32.882	0.273	0.197
-276.428	-121.369	-0.482	0.104
-275.413	22.540	0.365	-0.390
-274.399	800.000	-0.036	-0.182
-273.384	-59.559	-0.124	0.069
-272.370	-200.000	-0.018	0.418
-271.355	-200.000	-0.056	0.454
-270.340	31.029	-0.235	0.262
-269.326	402.667	-0.096	-0.265
-268.311	135.516	0.127	-0.216
-267.297	-200.000	0.009	-0.189
-266.282	-80.792	0.317	-0.136
-265.267	-25.426	-0.243	-0.187
-264.253	320.882	-0.082	0.205
-263.238	-138.123	-0.094	0.013
-262.224	-200.000	-0.024	-0.175
-261.209	-200.000	0.013	-0.151
-260.195	-26.343	-0.115	0.088
-259.180	-99.521	0.126	-0.041
-258.165	-200.000	-0.025	-0.444
-257.151	19.558	-0.347	-0.364
-256.136	-154.028	-0.406	-0.036
-255.122	144.248	-0.175	0.306
-254.107	-27.341	0.353	-0.267
-253.092	-64.102	0.297	0.157
-252.078	13.572	-0.271	-0.274
-251.063	-31.304	0.116	-0.085
-250.049	-127.765	-0.595	0.111
-249.034	-200.000	0.012	-0.155
-248.019	-43.204	0.136	0.090
-247.005	-200.000	0.012	0.415
-245.990	-2.367	0.252	-0.230
-244.976	-129.386	-0.314	0.056
-243.961	800.000	-0.152	-0.568
-242.946	-66.121	0.192	0.100
-241.932	-200.000	-0.010	0.204
-240.917	-155.129	0.722	0.061
-239.903	800.000	-0.086	0.354
-238.888	75.807	0.377	-0.519
-237.873	53.056	0.301	0.376
-236.859	-148.443	0.199	-0.021
-235.844	800.000	-0.148	0.549
-234.830	800.000	-0.102	0.380
-233.815	-99.634	0.366	-0.119
-232.800	48.849	-0.161	-0.197
-231.786	253.676	0.127	-0.284
-230.771	7.330	0.272	-0.265
-229.757	-143.435	0.269	-0.033
-228.742	-200.000	0.006	-0.154
-227.727	-161.012	0.305	-0.021
-226.713	-20.055	-0.241	-0.194
-225.698	-33.304	-0.397	-0.285
-224.684	-159.545	-0.156	0.011
-223.669	-124.099	0.188	0.038
-222.655	-179.943	0.578	0.016
-221.640	-65.064	0.353	0.185
-220.625	457.825	0.029	0.084
-219.611	609.641	0.093	0.303
-218.596	32.522	-0.187	0.210
-217.582	382.963	0.076	0.204
-216.567	343.361	-0.121	0.309
-215.552	91.556	-0.260	-0.381
-214.538	-64.990	0.253	0.132
-213.523	-134.618	0.139	-0.022
-212.509	14.435	-0.141	0.143
-211.494	101.735	-0.189	0.287
-210.479	76.817	0.091	-0.126
-209.465	-121.246	-0.568	0.122
-208.450	-47.748	0.415	0.261
-207.436	-22.712	-0.110	0.087
-206.421	86.753	-0.254	-0.366
-205.406	-200.000	-0.000	-0.100
-204.392	-134.471	-0.206	0.032
-203.377	408.303	-0.029	0.080
-202.363	-56.234	-0.248	-0.143
-201.348	-155.127	-0.178	-0.015
-200.333	-15.640	0.166	0.137
-199.319	-150.545	0.220	0.022
-198.304	-107.363	0.573	-0.162
-197.290	-99.546	-0.537	0.174
-196.275	91.685	-0.159	-0.233
-195.260	78.551	0.176	-0.245
-194.246	228.097	-0.205	0.436
-193.231	-152.326	-0.540	-0.050
-192.217	74.845	0.125	0.171
-191.202	364.703	0.059	0.154
-190.187	214.352	-0.023	-0.047
-189.173	-87.042	0.045	0.018
-188.158	414.590	-0.113	0.314
-187.144	-47.977	-0.245	-0.154
-186.129	175.496	0.087	0.164
-185.114	161.580	0.124	0.227
-184.100	-48.394	-0.169	-0.106
-183.085	-87.483	0.131	0.051
-182.071	119.967	-0.057	-0.092
-181.056	353.880	0.065	-0.169
-180.042	800.000	0.084	0.345
-179.027	800.000	-0.077	0.318
-178.012	142.881	0.114	0.198
-176.998	452.832	0.055	0.160
-175.983	343.235	0.155	0.396
-174.969	43.091	-0.352	0.417
-173.954	-66.309	-0.162	0.084
-172.939	-130.505	-0.524	0.091
-171.925	-90.919	-0.528	0.196
-170.910	800.000	-0.089	0.502
-169.896	84.974	0.181	-0.258
-168.881	79.212	-0.163	-0.227
-167.866	-113.688	0.246	-0.062
-166.852	-8.161	-0.187	-0.164
-165.837	503.180	0.096	-0.291
-164.823	45.266	-0.109	0.131
-163.808	79.319	0.374	0.522
-162.793	239.705	-0.103	-0.224
-161.779	61.824	-0.191	-0.247
-160.764	-62.889	0.377	-0.202
-159.750	167.850	-0.198	-0.367
-158.735	-57.278	0.165	-0.094
-157.720	-97.466	0.259	-0.087
-156.706	221.365	0.124	0.260
-155.691	-200.000	-0.022	0.369
-154.677	-137.713	-0.325	-0.047
-153.662	-186.699	-0.236	0.004
-152.647	-95.502	-0.240	0.083
-151.633	800.000	0.124	0.657
-150.618	-128.168	-0.186	-0.034
-149.604	-79.769	0.145	0.063
-148.589	429.316	-0.208	0.587
-147.574	226.948	0.152	0.322
-146.560	-95.170	0.244	0.085
-145.545	800.000	-0.036	-0.136
-144.531	-200.000	0.020	0.415
-143.516	-114.131	-0.242	-0.060
-142.502	-106.098	0.311	-0.090
-141.487	-110.068	-0.307	0.083
-140.472	-131.120	-0.451	0.077
-139.458	800.000	-0.116	0.493
-138.443	-88.023	0.402	-0.156
-137.429	77.636	-0.203	-0.281
-136.414	-36.326	-0.371	-0.259
-135.399	-119.667	0.404	-0.090
-134.385	-173.559	-0.359	0.014
-133.370	206.852	0.185	-0.375
-132.356	-121.208	0.454	0.098
-131.341	-200.000	0.000	0.054
-130.326	-133.264	-0.357	-0.058
-129.312	-116.332	-0.298	0.071
-128.297	-118.947	-0.256	0.058
-127.283	484.201	0.162	-0.480
-126.268	-61.247	0.372	-0.202
-125.253	-200.000	0.012	0.494
-124.239	-12.013	0.377	-0.320
-123.224	-160.389	-0.336	-0.023
-122.210	-30.885	-0.299	0.218
-121.195	-84.955	0.526	0.213
-120.180	-92.759	0.213	0.077
-119.166	420.694	-0.129	-0.360
-118.151	-41.216	0.184	-0.123
-117.137	-200.000	-0.067	-0.414
-116.122	93.249	0.253	-0.371
-115.107	800.000	0.019	-0.086
-114.093	-4.693	-0.152	-0.136
-113.078	338.907	0.157	0.399
-112.064	-11.067	0.468	-0.400
-111.049	-200.000	0.042	-0.301
-110.034	800.000	0.077	0.320
-109.020	-137.566	-0.169	0.024
-108.005	-116.640	-0.435	0.103
-106.991	-34.496	-0.216	0.153
-105.976	-200.000	-0.000	0.206
-104.962	175.394	-0.082	-0.155
-103.947	17.362	-0.101	0.104
-102.932	-29.027	-0.297	-0.220
-101.918	63.483	-0.262	-0.341
-100.903	800.000	0.017	0.081
-99.889	-200.000	0.024	0.296
-98.874	65.480	0.093	-0.122
-97.859	-170.681	-0.294	-0.013
-96.845	272.206	-0.192	-0.441
-95.830	118.668	-0.184	0.295
-94.816	163.608	0.230	-0.420
-93.801	66.017	0.233	-0.306
-92.786	99.084	0.123	0.185
-91.772	-68.678	-0.494	-0.247
-90.757	-200.000	0.045	-0.307
-89.743	-80.056	-0.183	0.079
-88.728	71.214	0.241	0.324
-87.713	-126.398	-0.484	0.092
-86.699	-165.925	-0.304	0.017
-85.684	-122.866	0.305	0.063
-84.670	34.147	0.178	-0.201
-83.655	305.872	0.205	-0.495
-82.640	800.000	0.033	-0.148
-81.626	-28.830	0.092	0.068
-80.611	800.000	-0.026	-0.143
-79.597	-198.572	-0.333	0.002
-78.582	203.330	0.034	-0.068
-77.567	8.259	-0.402	-0.391
-76.553	-144.931	-0.323	0.038
-75.538	121.975	0.171	0.276
-74.524	-200.000	-0.005	-0.210
-73.509	-106.567	-0.299	0.086
-72.494	50.199	0.121	-0.148
-71.480	64.759	0.122	0.160
-70.465	-42.655	-0.268	0.176
-69.451	-36.238	0.452	-0.315
-68.436	-169.868	0.694	0.032
-67.422	-61.112	-0.249	-0.135
-66.407	562.508	0.092	-0.288
-65.392	-192.959	-0.602	-0.007
-64.378	139.673	-0.182	-0.311
-63.363	79.211	0.059	0.083
-62.349	800.000	-0.026	0.109
-61.334	50.296	-2.128	-2.603
-60.319	-25.280	1.673	1.278
-59.305	251.373	-3.496	-7.723
-58.290	44.874	4.192	4.994
-57.276	489.898	3.401	10.112
-56.261	-200.000	24.433	319.825
-55.246	353.214	1304.110	3361.736
-54.232	52.522	2847.037	3518.173
-53.217	51.122	2660.358	3265.694
-52.203	31.352	2389.684	2654.516
-51.188	27.599	2055.669	2237.201
-50.173	24.114	1942.976	2073.751
-49.159	22.954	1930.563	2046.928
-48.144	22.715	1925.590	2038.799
-47.130	22.442	1923.792	2033.638
-46.115	22.643	1920.913	2032.848
-45.100	22.496	1919.770	2029.859
-44.086	22.538	1919.157	2029.610
-43.071	22.450	1917.156	2026.400
-42.057	22.493	1914.756	2024.282
-41.042	22.492	1913.944	2023.326
-40.027	22.606	1912.109	2022.620
-39.013	22.438	1911.584	2020.048
-37.998	22.484	1909.537	2018.330
-36.984	22.554	1908.865	2018.356
-35.969	22.535	1907.740	2016.863
-34.954	22.396	1906.110	2013.460
-33.940	22.448	1904.839	2012.632
-32.925	22.358	1904.050	2010.688
-31.911	22.425	1902.327	2009.559
-30.896	22.404	1900.507	2007.310
-29.881	22.334	1900.000	2005.903
-28.867	22.419	1898.482	2005.190
-27.852	22.264	1897.392	2002.187
-26.838	22.317	1895.736	2000.961
-25.823	22.301	1894.260	1999.145
-24.809	22.374	1892.511	1998.048
-23.794	22.274	1891.962	1996.252
-22.779	22.212	1890.765	1994.198
-21.765	22.176	1888.977	1991.831
-20.750	22.314	1887.636	1991.911
-19.736	22.409	1886.412	1991.611
-18.721	22.218	1885.658	1988.567
-17.706	22.251	1884.252	1987.387
-16.692	22.244	1883.285	1986.198
-15.677	22.272	1881.992	1985.074
-14.663	22.339	1880.816	1984.515
-13.648	22.256	1879.313	1981.915
-12.633	22.247	1877.558	1979.886
-11.619	22.349	1875.787	1979.084
-10.604	22.297	1876.254	1978.916
-9.590	22.240	1874.839	1976.705
-8.575	22.082	1874.230	1974.196
-7.560	22.132	1872.731	1973.101
-6.546	22.317	1870.690	1972.958
-5.531	22.149	1870.030	1970.287
-4.517	22.258	1868.562	1969.897
-3.502	22.242	1867.559	1968.575
-2.487	22.236	1866.453	1967.268
-1.473	22.327	1862.927	1964.491
-0.458	22.074	1845.864	1943.614
0.556	18.804	1993.025	2047.186
1.571	17.583	2195.807	2239.090
2.586	18.389	2234.098	2288.687
3.600	18.512	2236.289	2292.315
4.615	18.157	2237.564	2288.570
5.629	18.362	2233.978	2287.380
6.644	18.348	2232.379	2285.279
7.659	18.396	2230.159	2283.383
8.673	18.273	2228.640	2279.905
9.688	18.211	2236.505	2286.848
10.702	17.281	2317.215	2356.138
11.717	15.567	2381.675	2396.828
12.731	7.204	2362.646	2257.980
13.746	1.023	2344.574	2152.359
14.761	0.240	2341.305	2137.933
15.775	0.095	2340.406	2134.784
16.790	0.130	2337.890	2132.736
17.804	0.072	2336.135	2130.056
18.819	0.086	2335.704	2129.601
19.834	0.022	2333.423	2126.351
20.848	0.004	2332.732	2125.216
21.863	0.037	2330.209	2123.128
22.877	0.021	2329.083	2121.628
23.892	0.033	2326.636	2119.318
24.907	-0.045	2324.520	2116.028
25.921	0.027	2323.006	2115.416
26.936	0.039	2320.298	2112.863
27.950	-0.144	2318.944	2108.802
28.965	-0.019	2316.025	2107.647
29.980	0.045	2314.110	2106.558
30.994	0.133	2311.189	2104.879
32.009	3.823	2323.817	2168.217
33.023	13.110	2349.795	2324.079
34.038	17.375	2357.454	2391.781
35.053	17.614	2355.876	2393.276
36.067	17.792	2352.885	2392.460
37.082	17.642	2351.490	2388.635
38.096	17.663	2350.126	2387.259
39.111	17.904	2346.771	2386.959
40.126	18.057	2344.787	2386.801
41.140	18.186	2343.250	2386.763
42.155	17.966	2341.675	2381.779
43.169	17.984	2339.343	2379.382
44.184	17.925	2336.170	2375.042
45.199	17.885	2333.972	2371.965
46.213	17.900	2333.978	2371.892
47.228	18.011	2332.739	2371.897
48.242	18.036	2330.437	2369.631
49.257	17.997	2329.096	2367.440
50.271	18.048	2326.308	2365.023
51.286	17.964	2323.739	2360.970
52.301	17.888	2321.982	2357.841
53.315	18.178	2323.883	2363.522
54.330	19.998	2328.216	2392.952
55.344	21.264	2327.604	2409.590
56.359	21.313	2324.292	2406.559
57.374	21.431	2323.361	2406.936
58.388	21.660	2320.909	2407.272
59.403	21.479	2317.765	2401.223
60.417	21.275	2313.947	2394.171
61.432	21.329	2313.212	2393.872
62.447	21.606	2312.496	2396.652
63.461	21.841	2310.166	2397.181
64.476	21.964	2307.755	2396.079
65.490	21.628	2305.761	2389.121
66.505	20.991	2303.476	2377.740
67.520	19.626	2297.489	2352.603
68.534	18.147	2291.225	2325.700
69.549	18.012	2286.596	2318.882
70.563	17.881	2284.805	2314.995
71.578	18.027	2283.064	2314.945
72.593	17.994	2281.483	2312.623
73.607	18.124	2280.216	2312.823
74.622	17.935	2279.039	2308.784
75.636	17.977	2275.200	2305.192
76.651	17.894	2272.851	2301.411
77.666	18.002	2271.275	2301.003
78.680	17.870	2270.259	2297.904
79.695	17.798	2268.575	2294.963
80.709	17.889	2267.224	2294.546
81.724	17.869	2265.107	2291.852
82.739	17.941	2261.981	2289.388
83.753	17.700	2259.621	2283.486
84.768	17.760	2257.416	2281.791
85.782	17.697	2257.040	2280.293
86.797	17.815	2253.862	2278.393
87.812	17.822	2252.244	2276.580
88.826	17.723	2250.154	2272.860
89.841	17.804	2248.300	2271.799
90.855	17.794	2245.946	2269.025
91.870	17.821	2245.148	2268.306
92.884	17.808	2243.118	2265.805
93.899	17.858	2241.935	2265.005
94.914	18.132	2243.133	2269.602
95.928	19.667	2248.128	2294.897
96.943	20.530	2244.634	2302.547
97.957	18.777	2238.886	2273.081
98.972	17.833	2233.293	2254.598
99.987	17.701	2230.722	2249.975
101.001	17.699	2228.220	2247.155
102.016	17.746	2225.312	2244.576
103.030	17.775	2223.654	2243.018
104.045	17.939	2221.613	2242.865
105.060	17.816	2219.055	2238.390
106.074	17.862	2217.453	2237.110
107.089	17.857	2215.725	2235.031
108.103	17.989	2215.387	2236.164
109.118	17.926	2213.363	2233.026
110.133	17.974	2211.617	2231.629
111.147	17.985	2209.309	2229.167
112.162	17.912	2208.099	2226.726
113.176	17.935	2205.766	2224.402
114.191	17.982	2204.410	2223.385
115.206	17.918	2203.169	2221.031
116.220	17.904	2201.564	2218.965
117.235	17.890	2199.149	2216.090
118.249	17.908	2196.917	2213.803
119.264	17.892	2195.506	2211.911
120.279	17.945	2193.993	2210.809
121.293	17.933	2191.323	2207.706
122.308	17.748	2191.093	2204.805
123.322	17.855	2189.787	2204.614
124.337	18.312	2190.095	2210.596
125.352	20.040	2193.952	2236.666
126.366	20.226	2193.587	2238.442
127.381	18.432	2185.060	2206.269
128.395	17.885	2179.931	2193.768
129.410	17.808	2179.331	2191.906
130.424	17.914	2176.618	2190.283
131.439	17.758	2175.571	2186.955
132.454	17.733	2173.680	2184.462
133.468	17.805	2172.020	2183.468
134.483	17.907	2170.078	2182.559
135.497	17.955	2168.779	2181.604
136.512	17.871	2166.311	2177.789
137.527	17.900	2163.922	2175.497
138.541	17.757	2163.470	2172.957
139.556	17.598	2162.247	2169.421
140.570	17.771	2160.340	2169.469
141.585	17.759	2158.209	2166.913
142.600	17.797	2157.355	2166.287
143.614	17.719	2155.282	2162.948
144.629	17.718	2153.753	2161.139
145.643	17.813	2152.005	2160.342
146.658	17.718	2150.076	2156.929
147.673	17.770	2148.065	2155.318
148.687	17.771	2147.292	2154.301
149.702	17.854	2146.454	2154.253
150.716	17.801	2145.630	2152.494
151.731	17.815	2144.689	2151.469
152.746	17.788	2142.741	2148.914
153.760	18.269	2144.320	2156.338
154.775	20.005	2148.489	2182.278
155.789	20.295	2147.569	2184.749
156.804	18.711	2138.228	2155.017
157.819	17.749	2133.590	2137.967
158.833	17.778	2130.177	2134.651
159.848	17.851	2128.178	2133.309
160.862	17.827	2127.810	2132.386
161.877	17.811	2126.493	2130.619
162.892	17.803	2125.648	2129.411
163.906	17.795	2123.727	2127.134
164.921	17.938	2121.666	2126.604
165.935	17.932	2119.608	2124.206
166.950	18.043	2118.622	2124.361
167.964	17.943	2115.760	2119.980
168.979	17.782	2114.198	2116.162
169.994	17.990	2113.156	2117.452
171.008	18.013	2110.525	2114.847
172.023	17.911	2109.567	2112.370
173.037	17.900	2109.530	2111.939
174.052	18.006	2106.867	2110.334
175.067	17.948	2104.720	2107.213
176.081	17.779	2104.432	2104.575
177.096	17.793	2102.661	2102.730
178.110	17.730	2100.880	2099.913
179.125	17.810	2099.833	2099.608
180.140	17.898	2098.412	2099.021
181.154	17.884	2097.033	2097.222
182.169	17.812	2096.288	2095.338
183.183	18.244	2096.731	2100.856
184.198	20.070	2101.887	2128.345
185.213	20.519	2099.292	2130.989
186.227	18.897	2091.052	2102.448
187.242	17.933	2089.083	2088.372
188.256	17.802	2087.909	2085.338
189.271	17.846	2085.926	2083.653
190.286	17.932	2083.290	2081.817
191.300	17.798	2081.387	2078.025
192.315	17.879	2078.877	2076.269
193.329	17.963	2077.931	2076.100
194.344	18.038	2076.917	2075.753
195.359	18.035	2076.188	2074.736
196.373	17.996	2074.342	2072.174
197.388	17.897	2071.061	2067.439
198.402	17.687	2069.529	2063.102
199.417	17.714	2066.781	2060.443
200.432	17.874	2066.002	2061.374
201.446	17.890	2065.271	2060.590
202.461	17.828	2063.222	2057.546
203.475	17.825	2061.617	2055.658
204.490	17.686	2059.861	2051.987
205.504	17.707	2057.256	2049.397
206.519	17.730	2055.584	2047.760
207.534	17.772	2053.811	2046.253
208.548	17.824	2052.111	2044.946
209.563	17.838	2050.798	2043.562
210.577	17.754	2049.370	2040.882
211.592	17.904	2049.430	2042.496
212.607	18.820	2052.478	2056.315
213.621	20.857	2057.625	2085.770
214.636	20.489	2051.315	2074.711
215.650	18.334	2044.675	2041.942
216.665	17.883	2041.748	2033.381
217.680	17.851	2039.878	2030.892
218.694	17.872	2038.121	2029.145
219.709	17.855	2037.682	2028.266
220.723	17.944	2035.586	2026.994
221.738	17.891	2034.465	2025.009
222.753	17.822	2032.551	2022.040
223.767	17.783	2030.382	2019.174
224.782	17.857	2028.844	2018.286
225.796	17.875	2027.302	2016.721
226.811	17.726	2026.497	2013.903
227.826	17.884	2025.097	2014.153
228.840	17.944	2022.551	2012.084
229.855	17.876	2021.599	2010.091
230.869	17.954	2019.994	2009.177
231.884	17.937	2019.258	2008.001
232.899	17.789	2017.394	2004.165
233.913	17.845	2015.602	2002.801
234.928	17.868	2013.790	2001.032
235.942	17.840	2012.601	1999.279
236.957	17.890	2010.548	1997.596
237.972	17.753	2010.255	1995.452
238.986	17.895	2009.397	1996.031
240.001	17.893	2007.608	1993.997
241.015	17.861	2006.671	1992.452
242.030	18.113	2008.008	1996.491
243.045	19.947	2010.371	2020.130
244.059	20.117	2007.473	2018.972
245.074	18.394	2000.693	1991.790
246.088	17.911	1997.698	1982.936
247.103	17.875	1996.462	1981.046
248.117	17.962	1995.688	1981.060
249.132	17.894	1993.465	1977.817
250.147	17.825	1991.710	1975.038
251.161	17.955	1989.676	1974.295
252.176	17.971	1988.597	1973.183
253.190	18.139	1986.445	1972.750
254.205	18.103	1985.469	1971.135
255.220	18.229	1983.714	1970.608
256.234	18.109	1983.098	1968.377
257.249	17.892	1982.408	1964.947
258.263	17.910	1980.669	1963.193
259.278	17.954	1979.241	1962.048
260.293	17.899	1977.413	1959.370
261.307	17.823	1975.425	1956.294
262.322	17.847	1973.873	1954.798
263.336	17.748	1972.251	1951.819
264.351	17.767	1969.872	1949.448
265.366	17.702	1969.432	1948.034
266.380	17.886	1967.658	1948.158
267.395	17.724	1965.836	1944.257
268.409	17.736	1964.083	1942.428
269.424	17.845	1963.471	1942.844
270.439	17.901	1962.573	1942.365
271.453	18.319	1963.452	1947.781
272.468	20.191	1965.918	1971.407
273.482	20.212	1963.734	1969.224
274.497	18.539	1956.382	1942.571
275.512	17.947	1952.506	1931.762
276.526	17.869	1951.021	1929.181
277.541	17.791	1948.543	1925.608
278.555	17.821	1947.396	1924.591
279.570	17.759	1945.584	1921.860
280.585	17.679	1945.095	1920.247
281.599	17.651	1944.307	1918.918
282.614	17.799	1942.374	1918.450
283.628	17.995	1941.055	1919.136
284.643	18.057	1940.285	1918.847
285.657	18.147	1939.995	1919.343
286.672	18.200	1937.708	1917.452
287.687	18.220	1935.066	1914.826
288.701	18.036	1935.055	1912.518
289.716	17.964	1933.344	1909.796
290.730	18.021	1931.340	1908.223
291.745	17.922	1929.898	1905.460
292.760	17.934	1929.124	1904.605
293.774	17.988	1928.416	1904.280
294.789	17.899	1926.553	1901.218
295.803	17.864	1924.488	1898.562
296.818	17.799	1924.109	1897.234
297.833	17.909	1922.485	1896.627
298.847	18.006	1920.399	1895.423
299.862	17.993	1919.522	1894.188
300.876	18.403	1919.696	1898.703
301.891	20.185	1923.827	1922.442
302.906	20.570	1921.809	1924.474
303.920	18.682	1915.352	1896.832
304.935	17.899	1911.992	1884.587
305.949	17.897	1909.016	1881.408
306.964	17.840	1907.797	1879.353
307.979	17.979	1907.623	1880.486
308.993	18.101	1905.601	1879.622
310.008	18.296	1903.774	1879.742
311.022	18.252	1903.088	1878.359
312.037	18.072	1901.431	1874.513
313.052	18.163	1898.673	1872.577
314.066	18.169	1898.139	1871.886
315.081	18.056	1897.272	1869.568
316.095	18.084	1896.086	1868.477
317.110	17.972	1894.344	1865.309
318.125	18.056	1892.584	1864.280
319.139	18.028	1890.989	1862.180
320.154	18.023	1889.883	1860.809
321.168	18.193	1888.017	1860.603
322.183	17.926	1886.978	1856.440
323.197	17.887	1885.471	1854.313
324.212	17.801	1882.661	1850.391
325.227	17.698	1882.074	1848.470
326.241	17.722	1880.173	1846.643
327.256	17.726	1879.018	1845.328
328.270	17.912	1878.038	1846.164
329.285	17.807	1877.973	1844.740
330.300	18.426	1880.298	1853.538
331.314	20.427	1883.288	1878.030
332.329	20.362	1879.179	1873.003
333.343	18.445	1872.866	1845.749
334.358	17.924	1869.808	1836.883
335.373	17.933	1867.822	1834.811
336.387	17.800	1865.593	1830.968
337.402	17.729	1865.112	1829.514
338.416	17.800	1863.284	1828.266
339.431	17.794	1862.028	1826.752
340.446	17.947	1859.976	1826.160
341.460	18.031	1859.547	1826.420
342.475	18.059	1857.992	1824.983
343.489	18.055	1855.942	1822.706
344.504	18.159	1855.397	1823.068
345.519	18.143	1854.125	1821.427
346.533	18.190	1852.591	1820.203
347.548	18.354	1851.269	1820.435
348.562	18.213	1850.595	1818.057
349.577	18.174	1849.169	1816.017
350.592	18.238	1848.173	1815.508
351.606	18.269	1846.742	1814.209
352.621	18.305	1844.675	1812.350
353.635	18.009	1843.311	1807.638
354.650	17.881	1841.947	1804.728
355.665	17.893	1840.231	1802.963
356.679	17.926	1838.373	1801.276
357.694	17.978	1837.308	1800.570
358.708	17.951	1836.924	1799.688
359.723	18.745	1838.787	1809.716
360.738	20.697	1841.071	1832.419
361.752	20.015	1837.295	1821.241
362.767	18.361	1831.213	1797.562
363.781	17.780	1828.661	1788.713
364.796	17.865	1827.622	1788.380
365.810	17.781	1826.759	1786.439
366.825	17.748	1825.780	1784.920
367.840	17.822	1825.332	1785.041
368.854	17.940	1823.099	1783.884
369.869	17.839	1821.447	1780.994
370.883	17.716	1820.109	1778.188
371.898	17.768	1818.661	1777.110
372.913	17.773	1817.297	1775.607
373.927	17.713	1816.929	1774.410
374.942	17.910	1816.253	1775.597
375.956	17.921	1814.314	1773.605
376.971	17.964	1811.402	1770.991
377.986	17.867	1810.642	1769.030
379.000	17.794	1809.817	1767.253
380.015	18.024	1808.597	1768.241
381.029	17.893	1806.258	1764.385
382.044	17.908	1804.277	1762.394
383.059	17.973	1802.071	1760.702
384.073	17.887	1801.668	1759.203
385.088	17.733	1800.924	1756.674
386.102	17.669	1799.411	1754.322
387.117	17.793	1797.038	1753.080
388.132	17.799	1796.699	1752.606
389.146	18.413	1799.551	1761.521
390.161	20.352	1802.652	1784.404
391.175	20.161	1796.645	1776.273
392.190	18.319	1789.498	1750.083
393.205	17.783	1786.627	1741.573
394.219	17.911	1785.599	1741.671
395.234	17.849	1783.799	1739.068
396.248	17.841	1783.079	1738.084
397.263	17.873	1780.914	1736.088
398.278	17.790	1779.153	1733.320
399.292	17.840	1778.521	1733.009
400.307	17.818	1777.509	1731.585
401.321	17.972	1776.067	1731.542
402.336	17.942	1774.487	1729.488
403.350	18.083	1772.939	1729.209
404.365	18.185	1772.649	1729.756
405.380	18.304	1772.401	1730.519
406.394	18.301	1771.718	1729.611
407.409	18.379	1769.464	1727.992
408.423	18.326	1767.958	1725.786
409.438	18.288	1766.014	1723.293
410.453	18.324	1764.668	1722.139
411.467	18.121	1764.749	1719.953
412.482	18.136	1763.114	1718.311
413.496	17.963	1761.954	1715.230
414.511	17.989	1759.277	1712.674
415.526	17.888	1757.574	1709.797
416.540	17.885	1756.372	1708.391
417.555	17.931	1755.215	1707.523
418.569	17.873	1754.882	1706.413
419.584	18.103	1753.895	1707.558
420.599	18.058	1753.703	1706.718
421.613	17.908	1752.970	1704.296
422.628	18.060	1751.247	1703.939
423.642	18.106	1749.064	1702.075
424.657	17.991	1748.015	1699.698
425.672	18.117	1746.016	1698.806
426.686	18.077	1745.021	1697.234
427.701	17.964	1744.222	1695.135
428.715	18.084	1742.632	1694.581
429.730	18.041	1741.203	1692.557
430.745	17.910	1740.718	1690.578
431.759	17.873	1739.742	1689.061
432.774	18.018	1738.382	1688.984
433.788	18.298	1737.760	1690.952
434.803	18.274	1737.997	1690.746
435.818	18.230	1736.735	1688.874
436.832	18.006	1736.218	1685.947
437.847	17.024	1729.100	1669.136
438.861	9.443	1708.764	1574.972
439.876	1.660	1694.523	1485.521
440.890	0.375	1690.456	1469.191
441.905	0.217	1689.192	1466.378
442.920	0.150	1688.605	1465.035
443.934	0.097	1687.778	1463.621
444.949	0.132	1685.917	1462.174
445.963	0.250	1684.844	1462.223
446.978	0.165	1684.617	1461.016
447.993	0.072	1683.670	1459.113
449.007	0.158	1680.536	1457.065
450.022	0.160	1678.877	1455.473
451.036	0.232	1677.480	1454.779
452.051	0.972	1681.558	1465.343
453.066	8.678	1698.788	1555.688
454.080	16.201	1709.547	1639.063
455.095	17.711	1711.511	1655.501
456.109	17.793	1711.985	1656.563
457.124	17.810	1711.398	1655.962
458.139	17.814	1710.314	1654.747
459.153	17.814	1709.080	1653.357
460.168	17.804	1707.107	1651.160
461.182	17.983	1705.406	1651.050
462.197	18.103	1703.063	1649.750
463.212	17.956	1701.701	1646.804
464.226	17.983	1700.827	1646.031
465.241	17.951	1699.913	1644.633
466.255	18.008	1698.589	1643.708
467.270	17.960	1697.751	1642.241
468.285	17.899	1696.710	1640.447
469.299	17.878	1694.885	1638.282
470.314	17.925	1692.973	1636.690
471.328	18.111	1691.594	1636.955
472.343	17.996	1690.340	1634.431
473.358	17.971	1689.890	1633.560
474.372	17.987	1688.199	1631.886
475.387	18.039	1686.647	1630.692
476.401	18.001	1685.273	1628.808
477.416	17.941	1684.292	1627.090
478.430	17.965	1682.780	1625.656
479.445	17.883	1681.922	1623.851
480.460	17.891	1680.699	1622.550
481.474	17.918	1680.016	1621.954
482.489	17.964	1678.446	1620.683
483.503	18.053	1676.570	1619.527
484.518	18.072	1675.197	1618.195
485.533	18.117	1673.787	1617.062
486.547	17.977	1673.259	1615.031
487.562	18.075	1671.408	1613.976
488.576	18.188	1670.244	1613.735
489.591	18.123	1668.803	1611.536
490.606	18.022	1667.162	1608.800
491.620	18.149	1665.547	1608.247
492.635	18.059	1664.212	1605.919
493.649	18.140	1663.185	1605.501
494.664	18.041	1662.509	1603.721
495.679	17.983	1660.565	1601.105
496.693	17.995	1659.124	1599.639
497.708	18.078	1658.264	1599.400
498.722	18.063	1657.959	1598.775
499.737	18.064	1656.099	1596.791
500.752	17.934	1654.851	1594.179
501.766	17.966	1653.208	1592.704
502.781	17.997	1651.849	1591.496
503.795	17.941	1650.238	1589.227
504.810	18.178	1649.352	1590.403
505.825	18.138	1648.701	1589.215
506.839	18.083	1646.975	1586.845
507.854	18.094	1646.427	1586.226
508.868	18.150	1644.041	1584.266
509.883	18.100	1643.168	1582.763
510.898	18.127	1641.777	1581.487
511.912	18.051	1640.764	1579.619
512.927	17.999	1638.600	1576.864
513.941	17.968	1637.357	1575.187
514.956	18.038	1636.570	1574.889
515.971	17.893	1635.263	1572.107
516.985	17.990	1633.812	1571.422
518.000	18.022	1633.572	1571.293
519.014	17.975	1632.081	1569.237
520.029	17.948	1631.038	1567.798
521.043	17.977	1629.881	1566.762
522.058	17.929	1629.365	1565.643
523.073	18.059	1628.414	1565.734
524.087	18.222	1626.446	1565.159
525.102	18.311	1624.839	1564.243
526.116	18.072	1623.964	1561.017
527.131	18.162	1622.389	1560.137
528.146	18.249	1621.539	1559.933
529.160	18.266	1620.350	1558.756
530.175	18.227	1619.281	1557.182
531.189	18.224	1618.418	1556.140
532.204	18.112	1617.166	1553.730
533.219	17.962	1616.476	1551.515
534.233	18.072	1615.509	1551.402
535.248	18.078	1614.831	1550.619
536.262	18.356	1612.959	1551.162
537.277	18.207	1611.573	1548.289
538.292	18.185	1609.592	1546.007
539.306	18.054	1608.363	1543.449
540.321	18.061	1606.794	1541.824
541.335	18.101	1605.377	1540.640
542.350	18.229	1603.460	1539.772
543.365	18.336	1601.582	1538.755
544.379	18.238	1601.609	1537.706
545.394	18.171	1600.915	1536.251
546.408	18.240	1598.536	1534.412
547.423	18.078	1597.872	1532.129
548.438	17.950	1596.742	1529.713
549.452	18.211	1595.307	1530.504
550.467	18.062	1595.156	1528.830
551.481	18.096	1593.382	1527.251
552.496	18.100	1592.641	1526.393
553.511	18.321	1591.177	1526.790
554.525	18.216	1590.208	1524.739
555.540	18.261	1589.977	1524.735
556.554	18.201	1588.780	1522.869
557.569	18.207	1586.849	1520.895
558.583	18.071	1585.184	1517.899
559.598	18.301	1583.876	1518.517
560.613	18.167	1582.987	1516.288
561.627	18.143	1581.798	1514.754
562.642	18.210	1581.118	1514.515
563.656	18.317	1579.325	1513.567
564.671	18.312	1578.033	1512.104
565.686	18.349	1576.463	1510.753
566.700	18.221	1575.515	1508.528
567.715	18.110	1573.516	1505.446
568.729	17.990	1572.513	1503.248
569.744	17.936	1571.629	1501.742
570.759	17.932	1570.247	1500.209
571.773	17.984	1569.189	1499.478
572.788	18.030	1567.166	1497.768
573.802	18.207	1565.748	1497.794
574.817	18.310	1565.285	1498.079
575.832	18.403	1564.078	1497.563
576.846	18.271	1562.615	1494.823
577.861	18.222	1561.652	1493.294
578.875	18.168	1561.772	1492.749
579.890	18.182	1560.074	1491.070
580.905	18.283	1559.261	1491.000
581.919	18.347	1558.764	1490.910
582.934	18.354	1557.693	1489.765
583.948	18.409	1556.519	1488.950
584.963	18.293	1554.588	1485.914
585.978	18.169	1553.685	1483.785
586.992	18.343	1552.350	1483.848
588.007	18.268	1552.344	1483.019
589.021	18.126	1551.210	1480.515
590.036	18.147	1549.361	1478.761
591.051	18.242	1547.584	1477.712
592.065	18.135	1546.910	1475.964
593.080	18.234	1545.465	1475.268
594.094	18.361	1543.464	1474.279
595.109	18.269	1541.546	1471.470
596.123	18.128	1540.689	1469.257
597.138	18.220	1539.508	1468.757
598.153	18.364	1538.349	1468.714
599.167	18.188	1537.138	1465.861
600.182	18.349	1536.654	1466.614
601.196	18.421	1535.541	1465.993
602.211	18.307	1533.721	1463.103
603.226	18.364	1532.730	1462.468
604.240	18.353	1531.169	1460.713
605.255	18.407	1530.058	1459.943
606.269	18.344	1529.950	1459.124
607.284	18.354	1528.627	1457.773
608.299	18.448	1526.730	1456.594
609.313	18.422	1524.925	1454.472
610.328	18.355	1523.833	1452.686
611.342	18.344	1523.321	1451.930
612.357	18.424	1522.084	1451.256
613.372	18.495	1521.578	1451.211
614.386	18.434	1519.943	1448.957
615.401	18.423	1519.169	1447.949
616.415	18.321	1519.032	1446.776
617.430	18.459	1517.887	1446.690
618.445	18.384	1517.079	1445.111
619.459	18.377	1514.837	1442.744
620.474	18.287	1513.977	1440.990
621.488	18.072	1512.868	1437.942
622.503	18.097	1511.696	1436.871
623.518	18.092	1511.399	1436.372
624.532	18.213	1510.198	1436.080
625.547	18.364	1508.550	1435.609
626.561	18.467	1507.386	1435.201
627.576	18.434	1506.796	1434.190
628.591	18.272	1505.106	1431.048
629.605	18.162	1503.309	1428.246
630.620	18.278	1502.036	1427.837
631.634	18.145	1501.511	1426.053
632.649	18.241	1500.769	1425.978
633.663	18.321	1498.898	1424.699
634.678	18.271	1497.893	1423.161
635.693	18.463	1496.544	1423.308
636.707	18.502	1495.356	1422.330
637.722	18.580	1494.921	1422.396
638.736	18.537	1493.816	1420.820
639.751	18.526	1492.418	1419.226
640.766	18.448	1491.089	1417.146
641.780	18.489	1490.291	1416.558
642.795	18.537	1489.373	1415.916
643.809	18.504	1488.378	1414.527
644.824	18.603	1487.092	1413.958
645.839	18.395	1486.700	1411.687
646.853	18.606	1484.852	1411.514
647.868	18.565	1483.373	1409.594
648.882	18.568	1482.240	1408.377
649.897	18.619	1481.231	1407.674
650.912	18.639	1479.608	1406.127
651.926	18.532	1478.583	1404.103
652.941	18.391	1477.480	1401.724
653.955	18.423	1476.067	1400.478
654.970	18.332	1474.441	1398.026
655.985	18.274	1472.713	1395.740
656.999	18.355	1471.983	1395.543
658.014	18.492	1470.409	1395.008
659.028	18.397	1470.183	1393.846
660.043	18.426	1469.831	1393.587
661.058	18.553	1467.941	1392.661
662.072	18.510	1467.087	1391.340
663.087	18.578	1466.511	1391.180
664.101	18.479	1465.616	1389.358
665.116	18.576	1464.256	1388.687
666.131	18.507	1463.197	1386.957
667.145	18.640	1462.145	1386.876
668.160	18.500	1461.299	1384.767
669.174	18.688	1459.308	1384.242
670.189	18.657	1458.064	1382.645
671.204	18.726	1456.845	1381.882
672.218	18.657	1456.290	1380.628
673.233	18.666	1454.985	1379.302
674.247	18.759	1454.267	1379.205
675.262	18.667	1453.805	1377.858
676.276	18.660	1452.436	1376.343
677.291	18.671	1450.866	1374.775
678.306	18.493	1450.205	1372.556
679.320	18.627	1448.356	1371.714
680.335	18.620	1448.085	1371.240
681.349	18.645	1447.574	1370.796
682.364	18.626	1446.095	1369.075
683.379	18.679	1444.469	1367.798
684.393	18.482	1443.473	1365.118
685.408	18.552	1443.083	1365.141
686.422	18.560	1441.652	1363.687
687.437	18.505	1441.217	1362.675
688.452	18.606	1440.870	1362.987
689.466	18.639	1438.778	1361.109
690.481	18.500	1436.647	1357.825
691.495	18.479	1435.657	1356.564
692.510	18.294	1434.616	1353.943
693.525	18.148	1433.118	1351.212
694.539	18.275	1432.213	1351.201
695.554	18.415	1432.350	1352.281
696.568	18.553	1431.460	1352.374
697.583	18.547	1430.593	1351.341
698.598	18.724	1429.601	1351.647
699.612	18.739	1428.274	1350.351
700.627	18.721	1426.688	1348.545
701.641	18.707	1425.575	1347.223
702.656	18.785	1424.837	1346.980
703.671	18.721	1424.913	1346.385
704.685	18.664	1424.671	1345.542
705.700	18.741	1422.582	1344.017
706.714	18.625	1420.479	1340.956
707.729	18.664	1419.873	1340.526
708.744	18.722	1418.094	1339.142
709.758	18.598	1417.012	1336.992
710.773	18.494	1416.562	1335.593
711.787	18.575	1414.563	1334.182
712.802	18.505	1413.043	1332.045
713.816	18.648	1412.258	1332.258
714.831	18.785	1411.918	1332.848
715.846	18.768	1410.785	1331.481
716.860	18.779	1409.736	1330.418
717.875	18.647	1408.968	1328.507
718.889	18.669	1407.104	1326.766
719.904	18.798	1406.652	1327.179
720.919	18.706	1405.553	1325.270
721.933	18.728	1404.722	1324.500
722.948	18.873	1403.227	1324.053
723.962	18.844	1401.944	1322.460
724.977	18.952	1400.951	1322.204
725.992	18.872	1400.244	1320.753
727.006	18.821	1398.661	1318.712
728.021	18.957	1397.371	1318.391
729.035	18.773	1396.389	1315.888
730.050	18.905	1395.616	1316.018
731.065	18.879	1394.542	1314.643
732.079	18.943	1393.220	1313.733
733.094	18.805	1392.541	1311.880
734.108	18.828	1390.622	1310.091
735.123	18.851	1389.918	1309.441
736.138	18.668	1388.863	1306.895
737.152	18.725	1388.281	1306.625
738.167	18.926	1386.810	1306.622
739.181	18.859	1385.964	1305.154
740.196	18.790	1385.290	1303.838
741.211	18.776	1384.271	1302.612
742.225	18.794	1383.087	1301.480
743.240	18.886	1381.446	1300.483
744.254	18.744	1380.747	1298.591
745.269	18.712	1379.843	1297.338
746.284	18.783	1378.980	1296.912
747.298	18.661	1377.875	1294.793
748.313	18.623	1375.861	1292.456
749.327	18.339	1375.602	1289.913
750.342	18.336	1374.191	1288.411
751.356	18.348	1372.835	1287.073
752.371	18.341	1372.000	1286.083
753.386	18.534	1371.425	1286.849
754.400	18.693	1370.941	1287.439
755.415	18.892	1369.680	1287.596
756.429	19.040	1367.899	1286.882
757.444	18.877	1367.124	1284.778
758.459	19.028	1366.172	1284.858
759.473	18.995	1365.432	1283.766
760.488	19.020	1364.328	1282.758
761.502	18.994	1362.926	1281.095
762.517	18.923	1361.616	1279.179
763.532	18.905	1360.464	1277.809
764.546	18.829	1359.320	1276.010
765.561	18.702	1358.822	1274.442
766.575	18.486	1358.315	1272.207
767.590	18.503	1356.806	1270.769
768.605	18.681	1355.255	1270.489
769.619	18.789	1353.849	1269.821
770.634	18.888	1352.965	1269.573
771.648	18.911	1353.160	1269.773
772.663	18.981	1352.434	1269.464
773.678	18.924	1351.339	1267.858
774.692	18.949	1350.107	1266.732
775.707	19.071	1349.738	1267.141
776.721	19.067	1348.849	1266.122
777.736	18.898	1347.645	1263.591
778.751	19.009	1347.151	1263.801
779.765	18.883	1345.708	1261.366
780.780	19.030	1345.111	1261.742
781.794	18.984	1343.938	1260.148
782.809	18.855	1342.169	1257.387
783.824	18.760	1341.319	1255.747
784.838	18.602	1339.714	1252.934
785.853	18.405	1339.002	1250.667
786.867	18.352	1338.060	1249.255
787.882	18.550	1338.089	1250.581
788.897	18.675	1337.170	1250.486
789.911	18.866	1335.840	1250.493
790.926	18.769	1334.608	1248.480
791.940	18.747	1334.130	1247.720
792.955	18.866	1332.326	1246.754
793.969	18.875	1332.118	1246.477
794.984	18.966	1331.060	1245.997
795.999	18.973	1329.966	1244.881
797.013	18.848	1328.286	1242.247
798.028	18.989	1326.687	1241.629
799.042	19.009	1326.067	1241.044
800.057	19.131	1325.073	1240.849
801.072	19.137	1323.126	1238.922
802.086	18.978	1322.088	1236.654
803.101	18.961	1321.952	1236.256
804.115	19.001	1321.133	1235.631
805.130	18.931	1319.720	1233.654
806.145	19.119	1319.045	1234.232
807.159	19.080	1317.474	1232.333
808.174	18.990	1315.836	1230.004
809.188	19.153	1314.106	1229.408
810.203	18.924	1313.010	1226.592
811.218	18.919	1311.652	1225.146
812.232	18.673	1309.905	1221.605
813.247	18.680	1309.167	1220.824
814.261	18.756	1309.382	1221.423
815.276	18.897	1308.912	1221.842
816.291	18.974	1307.486	1220.915
817.305	19.073	1306.388	1220.451
818.320	19.131	1304.905	1219.331
819.334	18.859	1304.495	1216.864
820.349	19.063	1302.403	1216.220
821.364	19.045	1301.109	1214.732
822.378	19.107	1299.389	1213.422
823.393	19.097	1297.878	1211.799
824.407	18.970	1297.906	1210.781
825.422	19.012	1296.789	1209.889
826.437	18.894	1295.538	1207.747
827.451	18.996	1293.532	1206.452
828.466	18.446	1292.545	1201.507
829.480	18.570	1290.612	1200.439
830.495	18.753	1289.056	1200.132
831.509	18.751	1288.189	1199.167
832.524	18.896	1288.232	1200.086
833.539	18.895	1287.319	1199.082
834.553	19.084	1285.611	1198.672
835.568	19.131	1284.358	1197.689
836.582	19.158	1283.485	1196.917
837.597	19.075	1282.549	1195.325
838.612	19.262	1280.539	1194.609
839.626	19.067	1279.543	1192.178
840.641	19.108	1278.179	1191.051
841.655	18.857	1278.025	1189.025
842.670	18.609	1277.301	1186.481
843.685	18.575	1275.970	1184.863
844.699	18.772	1274.919	1185.118
845.714	18.920	1273.523	1184.704
846.728	19.066	1272.565	1184.680
847.743	19.252	1271.362	1184.702
848.758	19.187	1270.461	1183.270
849.772	19.068	1269.838	1181.729
850.787	19.015	1268.528	1180.007
851.801	19.038	1266.700	1178.322
852.816	18.989	1266.051	1177.240
853.831	19.000	1264.707	1175.923
854.845	19.052	1262.160	1173.771
855.860	18.959	1260.845	1171.774
856.874	18.782	1259.788	1169.436
857.889	18.735	1258.440	1167.724
858.904	18.590	1256.426	1164.730
859.918	18.623	1254.537	1163.063
860.933	18.404	1253.987	1160.919
861.947	18.584	1253.737	1161.777
862.962	18.735	1252.588	1161.599
863.977	18.794	1251.513	1160.862
864.991	18.794	1251.610	1160.816
866.006	18.947	1250.938	1161.091
867.020	19.110	1248.918	1160.178
868.035	19.132	1247.959	1159.299
869.049	19.258	1247.619	1159.695
870.064	19.135	1246.631	1157.809
871.079	19.125	1245.612	1156.660
872.093	19.206	1245.182	1156.664
873.108	19.335	1243.865	1156.171
874.122	19.217	1242.310	1153.793
875.137	19.090	1241.414	1151.973
876.152	18.913	1240.874	1150.139
877.166	18.990	1239.565	1149.309
878.181	18.991	1238.689	1148.368
879.195	19.074	1237.960	1148.110
880.210	19.125	1237.269	1147.674
881.225	19.257	1235.545	1146.819
882.239	19.239	1234.820	1145.890
883.254	19.160	1234.133	1144.587
884.268	19.222	1233.073	1143.881
885.283	19.353	1231.854	1143.482
886.298	19.166	1230.436	1140.788
887.312	18.997	1230.174	1139.283
888.327	19.190	1228.760	1139.122
889.341	19.258	1227.304	1138.083
890.356	19.115	1226.575	1136.323
891.371	19.113	1226.564	1136.164
892.385	19.111	1225.510	1135.042
893.400	19.060	1224.275	1133.424
894.414	18.856	1222.632	1130.416
895.429	18.994	1220.546	1129.262
896.444	18.651	1218.821	1125.271
897.458	18.484	1217.987	1123.265
898.473	18.731	1217.581	1124.384
899.487	18.854	1217.543	1125.023
900.502	19.015	1216.580	1125.056
901.517	19.168	1214.740	1124.226
902.531	19.223	1214.239	1123.987
903.546	19.189	1213.842	1123.262
904.560	19.365	1212.901	1123.410
905.575	19.491	1211.906	1123.181
906.589	19.197	1211.899	1121.116
907.604	19.171	1210.611	1119.620
