DTS Sentinel unit serial number:	SN409020Multiplexer serial number:	ORYXHardware model number:	OX4-SRSoftware version number:	ORYX F/W v3.00 Oryx Data Collector v3.7.2.0data status	okinstallation	HaddamTimeLapsedifferential loss correction	single-endedforward channel	channel 3reverse channel	N/Adate	2011/06/21time	20:16:17forward acquisition time	30.00reverse acquisition time	0.00gamma	498.7831k internal	0.1781k external	0.1781temperature offset calibration	1.0074default loss term (dB/km)	0.3790temperature slope calibration	1.3530multiplexer offset coefficient	1.0000multiplexer slope coefficient	1.0000fibre end	0.00T internal ref (°C)	31.19T ext. ref 1 (°C)	22.94T ext. ref 2 (°C)	0.03length (m)	temperature (°C)	Stokes	anti-Stokes-747.200	-56.666	0.416	-0.240
-746.185	-166.526	0.075	0.004
-745.171	-200.000	0.020	-0.190
-744.156	-22.239	-0.262	-0.207
-743.142	16.338	-0.095	0.098
-742.127	537.177	0.154	0.482
-741.112	129.482	-0.151	0.252
-740.098	-200.000	0.030	0.597
-739.083	104.574	-0.123	0.190
-738.069	17.190	0.330	0.342
-737.054	-73.808	-0.392	0.185
-736.039	-44.062	0.336	-0.219
-735.025	-200.000	0.022	-0.153
-734.010	-90.819	-0.307	-0.115
-732.996	-37.016	0.285	-0.199
-731.981	-189.849	0.154	-0.002
-730.966	-163.893	0.054	-0.003
-729.952	-79.060	-0.408	-0.180
-728.937	-136.799	0.099	-0.015
-727.923	-132.307	-0.293	-0.049
-726.908	299.391	0.161	-0.388
-725.894	148.843	0.250	-0.443
-724.879	0.805	-0.463	-0.433
-723.864	17.395	0.087	-0.090
-722.850	-200.000	0.042	0.342
-721.835	364.990	-0.172	0.454
-720.821	-124.626	-0.288	0.058
-719.806	-78.923	0.193	-0.085
-718.791	1.693	-0.269	0.253
-717.777	282.067	-0.089	-0.208
-716.762	50.176	0.401	-0.494
-715.748	-141.555	0.303	-0.039
-714.733	-47.263	0.192	0.122
-713.718	373.311	0.075	0.200
-712.704	158.327	0.229	-0.415
-711.689	105.659	0.285	0.440
-710.675	-15.230	0.249	0.208
-709.660	-135.188	-0.093	-0.014
-708.645	-145.741	-0.128	0.015
-707.631	-84.657	-0.605	0.247
-706.616	50.025	-0.193	-0.237
-705.602	18.912	0.063	-0.066
-704.587	740.275	-0.053	-0.187
-703.572	800.000	-0.066	0.347
-702.558	90.621	-0.101	0.148
-701.543	80.462	0.154	0.216
-700.529	-33.796	0.366	-0.262
-699.514	544.275	0.104	-0.326
-698.499	800.000	-0.108	-0.595
-697.485	-102.684	-0.606	-0.187
-696.470	-183.204	-0.064	-0.001
-695.456	27.727	0.362	0.398
-694.441	-3.791	0.167	0.151
-693.426	800.000	0.107	0.522
-692.412	50.994	-0.350	0.433
-691.397	-138.522	0.150	0.021
-690.383	61.599	0.137	0.177
-689.368	15.501	0.171	0.175
-688.354	16.309	0.306	0.315
-687.339	-93.815	0.157	-0.056
-686.324	-43.140	-0.252	-0.166
-685.310	392.613	0.028	0.077
-684.295	132.829	0.076	0.128
-683.281	-45.867	-0.093	0.060
-682.266	-81.398	0.505	-0.216
-681.251	-46.936	0.051	0.032
-680.237	-29.995	0.281	-0.208
-679.222	69.154	-0.179	-0.240
-678.208	-71.348	0.314	-0.152
-677.193	-94.964	-0.256	-0.090
-676.178	-133.053	-0.229	0.037
-675.164	800.000	0.072	-0.294
-674.149	73.455	0.418	-0.571
-673.135	-134.163	-0.329	-0.052
-672.120	-200.000	-0.020	-0.392
-671.105	-154.588	-0.114	0.010
-670.091	13.279	-0.130	-0.131
-669.076	208.152	0.327	0.668
-668.062	84.926	-0.256	-0.365
-667.047	377.141	-0.051	-0.136
-666.032	-91.009	-0.521	-0.194
-665.018	732.868	0.161	-0.565
-664.003	-161.211	-0.058	-0.004
-662.989	-200.000	-0.019	0.128
-661.974	188.926	0.044	0.086
-660.959	-38.821	0.094	-0.064
-659.945	676.485	0.006	0.022
-658.930	411.686	0.080	0.221
-657.916	-37.426	0.289	-0.200
-656.901	-110.390	0.233	-0.063
-655.886	122.243	0.162	-0.264
-654.872	-97.310	0.340	0.115
-653.857	-29.293	0.205	-0.152
-652.843	800.000	-0.092	0.514
-651.828	800.000	0.202	0.778
-650.814	16.237	0.178	-0.182
-649.799	-29.871	-0.231	-0.171
-648.784	68.446	-0.130	-0.174
-647.770	51.298	-0.289	-0.357
-646.755	124.491	-0.156	0.257
-645.741	800.000	-0.106	-0.426
-644.726	-161.039	0.550	0.037
-643.711	-200.000	0.036	0.388
-642.697	-174.973	0.421	0.015
-641.682	-200.000	0.057	-0.377
-640.668	81.330	-0.192	-0.270
-639.653	85.772	0.105	-0.150
-638.638	-143.368	-0.246	-0.030
-637.624	14.510	0.270	-0.274
-636.609	-92.917	0.214	-0.077
-635.595	-200.000	0.025	0.349
-634.580	275.773	-0.069	-0.160
-633.565	217.912	-0.051	-0.106
-632.551	142.483	0.084	0.146
-631.536	-197.957	0.516	-0.004
-630.522	-10.884	0.168	-0.144
-629.507	-5.970	0.184	-0.163
-628.492	5.397	-0.244	0.233
-627.478	341.565	-0.046	0.118
-626.463	-200.000	0.063	-0.384
-625.449	-1.982	0.228	-0.208
-624.434	78.211	-0.192	-0.267
-623.419	-134.759	-0.280	-0.044
-622.405	212.476	0.106	0.218
-621.390	800.000	0.123	0.600
-620.376	-200.000	-0.014	-0.181
-619.361	-69.192	0.717	0.357
-618.346	72.817	0.166	-0.225
-617.332	-79.441	0.648	-0.284
-616.317	130.336	0.187	-0.313
-615.303	800.000	-0.047	0.180
-614.288	106.045	-0.105	-0.162
-613.273	-25.628	0.398	0.305
-612.259	-75.500	-0.065	-0.030
-611.244	-135.483	-0.361	-0.055
-610.230	113.389	0.159	0.252
-609.215	-136.214	-0.408	-0.061
-608.201	-34.302	-0.110	-0.078
-607.186	196.333	0.188	0.373
-606.171	244.148	0.199	0.436
-605.157	30.010	0.374	-0.414
-604.142	-109.701	0.059	-0.016
-603.128	30.939	0.240	0.268
-602.113	-17.111	-0.255	-0.208
-601.098	-200.000	0.010	0.161
-600.084	-142.510	-0.129	-0.016
-599.069	-200.000	0.031	0.377
-598.055	-200.000	-0.018	0.318
-597.040	-165.313	-0.288	0.016
-596.025	-66.941	0.064	0.033
-595.011	-36.048	0.283	0.198
-593.996	-118.952	-0.336	0.076
-592.982	15.132	-0.522	-0.531
-591.967	-82.480	0.362	0.152
-590.952	545.683	-0.166	0.517
-589.938	22.306	-0.106	0.112
-588.923	-25.517	0.380	0.291
-587.909	-147.175	-0.711	0.078
-586.894	-200.000	0.004	0.372
-585.879	-23.936	0.355	-0.275
-584.865	-200.000	-0.023	-0.391
-583.850	-200.000	-0.070	0.412
-582.836	-40.718	-0.454	0.305
-581.821	11.152	-0.215	0.213
-580.806	133.567	0.011	-0.019
-579.792	-111.465	-0.247	-0.065
-578.777	-171.736	0.366	0.015
-577.763	-121.824	0.205	0.044
-576.748	267.282	0.070	0.160
-575.733	-28.761	-0.183	0.137
-574.719	-37.832	-0.376	0.259
-573.704	79.337	-0.239	0.332
-572.690	17.239	-0.101	-0.104
-571.675	800.000	-0.074	0.384
-570.661	-200.000	-0.074	0.622
-569.646	150.522	-0.068	0.120
-568.631	421.171	0.075	0.209
-567.617	-22.582	0.083	0.065
-566.602	-143.661	0.483	-0.059
-565.588	7.536	-0.167	-0.162
-564.573	800.000	0.134	-0.512
-563.558	50.734	0.206	-0.253
-562.544	797.024	-0.034	-0.122
-561.529	50.636	0.150	0.185
-560.515	-200.000	-0.032	-0.341
-559.500	749.493	0.160	0.564
-558.485	-74.095	0.598	-0.279
-557.471	16.583	-0.262	0.269
-556.456	-122.794	0.327	0.068
-555.442	-145.305	-0.591	-0.068
-554.427	183.500	0.211	0.405
-553.412	800.000	0.056	0.312
-552.398	-200.000	-0.019	0.236
-551.383	201.989	0.087	-0.175
-550.369	-200.000	0.068	-0.511
-549.354	800.000	-0.019	-0.098
-548.339	-153.819	0.249	-0.022
-547.325	-200.000	-0.019	0.148
-546.310	315.630	0.019	0.046
-545.296	-200.000	0.072	-0.609
-544.281	-108.535	-0.643	-0.178
-543.266	-18.213	0.029	0.024
-542.252	-30.121	-0.477	-0.351
-541.237	425.041	-0.109	0.305
-540.223	108.209	-0.084	0.130
-539.208	-200.000	0.415	-0.000
-538.193	-111.519	-0.233	0.061
-537.179	-88.191	-0.166	-0.064
-536.164	149.705	-0.133	-0.234
-535.150	-13.955	-0.472	-0.394
-534.135	68.210	0.099	0.131
-533.121	152.135	0.250	-0.442
-532.106	-134.211	0.581	-0.092
-531.091	45.337	0.253	-0.302
-530.077	-112.016	-0.219	-0.057
-529.062	-76.738	-0.341	-0.154
-528.048	-118.551	0.453	-0.103
-527.033	105.626	-0.101	0.155
-526.018	-98.509	0.026	-0.009
-525.004	-181.218	0.748	0.019
-523.989	35.091	0.060	0.068
-522.975	-91.295	-0.123	0.045
-521.960	800.000	0.062	0.258
-520.945	-200.000	-0.008	0.084
-519.931	-127.831	-0.342	0.063
-518.916	-52.209	0.239	0.143
-517.902	-83.351	0.140	-0.058
-516.887	92.654	0.142	0.207
-515.872	-31.912	0.421	0.305
-514.858	-101.999	-0.397	-0.123
-513.843	-29.629	-0.092	-0.068
-512.829	-21.137	-0.515	0.407
-511.814	-200.000	-0.004	-0.069
-510.799	-115.754	0.102	0.025
-509.785	364.105	-0.210	-0.549
-508.770	35.646	-0.101	-0.115
-507.756	-115.520	-0.732	0.177
-506.741	96.190	0.231	-0.342
-505.726	15.280	0.218	0.221
-504.712	-110.121	0.228	-0.061
-503.697	413.282	0.333	-0.921
-502.683	-121.871	0.296	-0.063
-501.668	-100.346	-0.403	0.128
-500.653	81.938	0.232	-0.326
-499.639	-33.268	0.280	-0.200
-498.624	-63.170	0.302	0.160
-497.610	-106.064	0.057	-0.016
-496.595	-17.820	-0.220	-0.178
-495.581	-200.000	0.015	0.276
-494.566	-138.951	-0.130	0.018
-493.551	-105.119	0.200	0.059
-492.537	622.587	0.194	0.634
-491.522	622.687	0.136	-0.446
-490.508	-54.317	0.456	-0.267
-489.493	800.000	-0.073	-0.269
-488.478	6.054	-0.089	-0.085
-487.464	-200.000	-0.010	0.217
-486.449	17.570	0.125	0.129
-485.435	800.000	0.051	0.225
-484.420	168.122	-0.105	0.193
-483.405	-200.000	0.016	-0.446
-482.391	800.000	-0.040	0.180
-481.376	676.883	-0.131	-0.443
-480.362	-159.289	-0.098	0.007
-479.347	372.275	0.071	0.186
-478.332	-4.348	0.196	-0.175
-477.318	-200.000	-0.017	0.275
-476.303	-80.680	0.265	0.114
-475.289	-129.673	0.215	0.038
-474.274	-200.000	0.010	-0.080
-473.259	63.223	0.123	0.159
-472.245	278.521	0.050	-0.117
-471.230	-166.051	-0.388	-0.021
-470.216	800.000	-0.055	-0.199
-469.201	-101.003	-0.123	0.039
-468.186	367.408	0.143	0.374
-467.172	50.482	0.080	-0.097
-466.157	-98.225	0.064	0.021
-465.143	800.000	-0.042	-0.173
-464.128	566.204	-0.101	-0.319
-463.113	8.074	-0.254	-0.247
-462.099	-157.713	-0.485	0.037
-461.084	-51.910	-0.061	0.037
-460.070	29.542	-0.453	0.497
-459.055	-154.968	0.325	0.027
-458.040	-12.548	0.289	0.244
-457.026	169.801	0.172	-0.318
-456.011	-157.593	-0.313	-0.024
-454.997	6.943	-0.318	-0.306
-453.982	-200.000	-0.008	-0.085
-452.968	-75.852	-0.614	-0.280
-451.953	-92.116	0.340	0.123
-450.938	318.569	-0.065	-0.160
-449.924	-53.776	-0.189	-0.111
-448.909	800.000	0.039	-0.205
-447.895	179.448	0.117	0.222
-446.880	-64.964	-0.132	-0.069
-445.865	800.000	0.030	-0.164
-444.851	58.014	0.350	-0.443
-443.836	-131.329	-0.757	0.128
-442.822	-58.781	-0.285	-0.159
-441.807	-14.054	-0.124	0.103
-440.792	-42.695	0.090	-0.059
-439.778	228.931	-0.050	0.107
-438.763	155.705	-0.097	0.173
-437.749	63.484	0.391	0.506
-436.734	-120.104	-0.254	0.056
-435.719	-200.000	0.003	0.320
-434.705	-116.097	0.218	0.052
-433.690	160.603	-0.169	-0.305
-432.676	66.391	-0.215	-0.282
-431.661	-109.315	-0.572	0.155
-430.646	-92.396	-0.506	-0.183
-429.632	188.111	0.226	0.438
-428.617	85.631	-0.280	0.397
-427.603	800.000	0.058	0.255
-426.588	714.015	0.282	0.969
-425.573	582.383	-0.071	-0.227
-424.559	-79.437	-0.467	-0.203
-423.544	315.152	-0.178	-0.435
-422.530	103.851	0.215	-0.327
-421.515	14.292	-0.129	-0.130
-420.500	-84.224	-0.267	0.108
-419.486	-181.996	-0.293	-0.007
-418.471	-53.142	-0.193	0.114
-417.457	339.777	0.038	0.095
-416.442	-12.294	-0.148	0.124
-415.428	-3.442	-0.049	-0.044
-414.413	62.440	0.085	0.110
-413.398	483.038	0.176	-0.518
-412.384	-188.824	0.404	-0.006
-411.369	-143.602	0.570	0.069
-410.355	-1.583	0.152	0.138
-409.340	26.790	0.140	0.151
-408.325	-45.705	-0.311	0.198
-407.311	252.183	0.083	0.182
-406.296	-155.046	-0.555	0.046
-405.282	-9.659	0.201	0.172
-404.267	-62.319	-0.332	-0.177
-403.252	-24.724	0.410	0.314
-402.238	-127.309	-0.342	-0.064
-401.223	179.850	0.196	0.371
-400.209	-200.000	0.039	0.529
-399.194	-65.106	0.049	-0.025
-398.179	222.630	-0.254	0.529
-397.165	1.353	0.346	0.320
-396.150	-200.000	0.009	0.285
-395.136	-20.257	0.168	-0.133
-394.121	-116.817	-0.250	0.059
-393.106	-103.662	-0.482	-0.145
-392.092	74.267	0.181	0.245
-391.077	126.361	0.264	0.431
-390.063	-147.191	-0.497	0.054
-389.048	-106.393	-0.213	0.061
-388.033	332.778	0.037	-0.094
-387.019	-79.879	0.381	-0.164
-386.004	-17.147	-0.191	-0.155
-384.990	431.124	-0.120	-0.338
-383.975	-200.000	-0.008	-0.184
-382.960	-42.832	-0.294	-0.192
-381.946	-0.575	-0.149	0.136
-380.931	-200.000	-0.066	-0.756
-379.917	593.231	0.027	0.087
-378.902	-31.926	0.343	-0.247
-377.888	-28.554	0.342	-0.253
-376.873	-200.000	0.104	-0.798
-375.858	570.578	-0.152	-0.478
-374.844	-200.000	0.036	-0.211
-373.829	639.695	0.181	-0.595
-372.815	-26.200	0.254	0.192
-371.800	-105.566	0.483	0.140
-370.785	39.563	-0.273	-0.315
-369.771	74.737	-0.207	0.281
-368.756	-200.000	0.000	0.197
-367.742	195.547	0.194	-0.381
-366.727	203.845	0.175	-0.350
-365.712	-164.431	-0.220	0.013
-364.698	-53.108	0.266	-0.157
-363.683	-155.380	-0.329	0.027
-362.669	-109.907	-0.503	-0.135
-361.654	800.000	-0.047	-0.173
-360.639	-119.095	0.286	-0.064
-359.625	52.778	-0.209	0.257
-358.610	-200.000	0.050	-0.341
-357.596	-59.316	0.130	0.072
-356.581	-74.871	-0.145	-0.067
-355.566	585.093	-0.162	0.514
-354.552	-55.726	-0.634	-0.364
-353.537	108.695	0.208	-0.321
-352.523	-114.301	-0.241	-0.059
-351.508	324.505	0.048	0.119
-350.493	23.226	-0.179	-0.189
-349.479	523.382	-0.119	0.363
-348.464	-200.000	0.031	0.254
-347.450	-138.123	-0.261	0.037
-346.435	-23.042	-0.229	-0.177
-345.420	4.227	-0.004	0.004
-344.406	-87.882	-0.451	-0.174
-343.391	770.618	-0.045	0.159
-342.377	235.475	0.031	0.066
-341.362	137.142	-0.165	0.277
-340.348	-200.000	0.003	-0.121
-339.333	-173.506	-0.167	-0.006
-338.318	-200.000	0.007	-0.360
-337.304	19.796	0.090	0.093
-336.289	-200.000	-0.016	-0.098
-335.275	28.405	-0.170	0.185
-334.260	800.000	0.206	-0.769
-333.245	-18.490	0.461	-0.369
-332.231	191.061	-0.037	0.072
-331.216	85.890	0.076	-0.108
-330.202	-200.000	-0.041	0.277
-329.187	-82.071	-0.308	-0.128
-328.172	-54.119	0.424	0.247
-327.158	-109.133	-0.250	0.068
-326.143	93.395	0.036	-0.053
-325.129	-117.326	-0.186	-0.043
-324.114	800.000	0.091	0.495
-323.099	219.242	0.149	0.308
-322.085	-180.380	-0.047	0.001
-321.070	-27.739	0.223	-0.166
-320.056	-18.797	-0.292	-0.233
-319.041	-83.297	0.173	0.071
-318.026	-168.752	-0.429	-0.021
-317.012	800.000	0.054	-0.274
-315.997	-23.788	-0.391	-0.300
-314.983	665.847	0.034	0.114
-313.968	-134.569	0.323	-0.050
-312.953	800.000	-0.096	0.412
-311.939	-200.000	0.016	0.282
-310.924	567.899	0.069	0.215
-309.910	-145.655	0.129	-0.015
-308.895	-154.942	0.408	-0.034
-307.880	-41.174	-0.054	0.036
-306.866	-200.000	-0.039	-0.234
-305.851	83.699	0.127	-0.179
-304.837	96.319	0.141	-0.208
-303.822	-54.302	-0.301	-0.175
-302.807	-78.791	0.181	-0.079
-301.793	102.860	0.176	-0.264
-300.778	800.000	-0.039	0.169
-299.764	-46.342	0.129	-0.081
-298.749	-200.000	0.005	-0.352
-297.735	288.920	-0.082	-0.191
-296.720	80.891	-0.109	-0.151
-295.705	285.688	0.234	0.543
-294.691	49.638	0.169	0.205
-293.676	-148.258	-0.251	-0.026
-292.662	-200.000	0.009	0.090
-291.647	375.442	0.090	0.236
-290.632	-127.797	0.300	0.055
-289.618	-200.000	-0.087	-0.705
-288.603	554.012	0.047	-0.146
-287.589	-65.500	-0.287	0.147
-286.574	-126.257	0.108	-0.021
-285.559	-200.000	0.025	-0.281
-284.545	241.900	-0.229	-0.493
-283.530	800.000	0.113	-0.531
-282.516	-167.921	0.590	0.029
-281.501	395.793	-0.098	-0.264
-280.486	-45.207	0.213	-0.136
-279.472	61.375	0.297	0.378
-278.457	-51.288	0.149	0.089
-277.443	-104.707	-0.413	0.121
-276.428	-14.960	-0.130	0.107
-275.413	-194.625	0.207	0.002
-274.399	-103.675	-0.212	0.063
-273.384	51.974	0.399	0.488
-272.370	278.506	-0.056	0.128
-271.355	800.000	-0.122	0.534
-270.340	-23.871	0.401	0.307
-269.326	-117.105	0.234	0.054
-268.311	800.000	-0.117	-0.459
-267.297	102.306	-0.329	0.493
-266.282	457.140	0.031	0.089
-265.267	-155.385	0.242	-0.020
-264.253	-97.572	0.249	-0.082
-263.238	-200.000	0.018	0.254
-262.224	94.806	0.033	0.048
-261.209	14.466	-0.144	0.144
-260.195	154.167	-0.204	0.360
-259.180	-136.881	0.322	0.047
-258.165	6.714	0.321	0.306
-257.151	-111.300	0.123	0.032
-256.136	-17.156	0.004	-0.003
-255.122	-200.000	0.039	-0.658
-254.107	-55.118	0.551	-0.317
-253.092	711.030	0.135	-0.460
-252.078	-4.791	-0.171	-0.151
-251.063	-152.073	-0.416	-0.038
-250.049	-82.971	0.350	-0.144
-249.034	-16.047	0.170	0.138
-248.019	-28.794	0.285	-0.210
-247.005	84.703	-0.182	-0.255
-245.990	-200.000	0.015	-0.268
-244.976	774.961	-0.094	-0.332
-243.961	-86.754	0.197	0.077
-242.946	347.450	-0.170	-0.430
-241.932	-99.477	0.189	-0.061
-240.917	-101.273	0.399	0.124
-239.903	-154.526	-0.692	-0.058
-238.888	-93.975	-0.498	0.174
-237.873	746.002	-0.050	0.174
-236.859	-32.411	-0.585	0.417
-235.844	-200.000	0.004	-0.065
-234.830	800.000	-0.097	0.408
-233.815	246.729	0.146	0.317
-232.800	-108.437	-0.220	0.060
-231.786	147.086	-0.151	0.260
-230.771	-8.229	-0.294	0.253
-229.757	-69.393	0.247	0.121
-228.742	-200.000	0.005	0.652
-227.727	-53.653	-0.158	-0.092
-226.713	800.000	-0.065	-0.274
-225.698	-200.000	0.017	-0.436
-224.684	242.974	0.183	0.394
-223.669	409.154	0.124	0.338
-222.655	-133.540	-0.210	-0.033
-221.640	-169.784	0.146	0.007
-220.625	-97.327	-0.293	0.097
-219.611	-45.857	0.204	-0.129
-218.596	147.172	0.249	-0.430
-217.582	-47.344	-0.351	-0.218
-216.567	180.717	0.113	-0.212
-215.552	78.617	-0.276	-0.377
-214.538	-154.677	0.393	0.033
-213.523	-200.000	0.048	0.312
-212.509	276.879	0.124	-0.283
-211.494	177.463	-0.123	0.230
-210.479	-200.000	-0.007	0.481
-209.465	115.894	-0.239	-0.374
-208.450	-200.000	-0.021	0.131
-207.436	321.746	-0.036	0.088
-206.421	-200.000	-0.022	0.416
-205.406	-43.346	-0.280	0.181
-204.392	800.000	0.096	-0.455
-203.377	728.073	0.123	-0.421
-202.363	-200.000	0.028	-0.376
-201.348	188.680	0.212	-0.407
-200.333	82.367	-0.101	-0.140
-199.319	800.000	0.052	0.250
-198.304	-122.115	0.217	0.045
-197.290	35.109	-0.055	-0.061
-196.275	-200.000	0.030	0.442
-195.260	-102.030	-0.154	0.047
-194.246	100.764	0.141	0.210
-193.231	-90.537	0.339	0.125
-192.217	201.701	-0.045	0.090
-191.202	307.550	-0.140	-0.335
-190.187	-200.000	-0.008	0.359
-189.173	-174.070	-0.230	0.008
-188.158	4.560	0.268	0.251
-187.144	-39.795	0.127	-0.085
-186.129	110.231	-0.272	-0.417
-185.114	6.280	0.124	-0.117
-184.100	-200.000	-0.035	0.689
-183.085	-67.722	0.418	-0.208
-182.071	800.000	0.035	-0.162
-181.056	-58.070	0.216	0.120
-180.042	800.000	0.038	0.182
-179.027	-145.185	-0.340	-0.039
-178.012	81.144	-0.041	-0.056
-176.998	-121.480	-0.316	0.067
-175.983	54.947	-0.012	-0.015
-174.969	-200.000	-0.066	0.458
-173.954	-200.000	0.209	-0.001
-172.939	-82.028	-0.363	0.151
-171.925	-146.192	0.081	0.009
-170.910	800.000	0.033	0.185
-169.896	800.000	-0.112	-0.546
-168.881	433.027	0.265	0.738
-167.866	1.477	0.278	0.256
-166.852	394.834	0.164	-0.438
-165.837	-133.104	-0.235	-0.038
-164.823	-97.942	-0.399	0.130
-163.808	231.006	-0.055	-0.115
-162.793	133.833	-0.124	0.206
-161.779	-96.734	0.210	0.070
-160.764	800.000	-0.094	0.394
-159.750	-31.721	0.252	-0.180
-158.735	127.555	-0.182	-0.295
-157.720	-111.327	0.517	-0.134
-156.706	-152.500	0.367	0.033
-155.691	-89.205	-0.413	0.155
-154.677	-131.865	-0.267	0.044
-153.662	-148.826	0.278	0.028
-152.647	74.973	-0.134	0.180
-151.633	-39.570	0.336	0.224
-150.618	-103.920	0.407	-0.120
-149.604	266.921	-0.181	0.406
-148.589	-151.901	-0.265	0.024
-147.574	13.154	-0.452	0.446
-146.560	130.332	-0.096	0.157
-145.545	-174.501	0.590	-0.021
-144.531	-200.000	-0.097	-0.577
-143.516	324.905	0.147	0.361
-142.502	-31.106	-0.316	-0.227
-141.487	136.898	-0.115	0.192
-140.472	325.089	0.033	0.080
-139.458	44.351	-0.346	0.406
-138.443	-69.040	-0.207	-0.101
-137.429	-200.000	-0.010	0.069
-136.414	-200.000	-0.008	0.086
-135.399	-162.872	0.332	0.020
-134.385	706.681	0.020	-0.066
-133.370	6.094	-0.154	-0.146
-132.356	98.110	-0.078	0.114
-131.341	-200.000	-0.023	0.529
-130.326	-10.245	-0.127	0.107
-129.312	-82.845	-0.309	0.127
-128.297	344.348	-0.139	0.350
-127.283	-200.000	0.075	0.595
-126.268	-200.000	-0.064	0.494
-125.253	800.000	0.074	-0.294
-124.239	311.896	-0.133	0.319
-123.224	142.405	-0.113	0.191
-122.210	-200.000	-0.023	-0.136
-121.195	7.332	0.173	0.165
-120.180	13.437	0.124	0.122
-119.166	800.000	0.090	-0.429
-118.151	57.703	-0.063	-0.079
-117.137	-91.803	0.409	0.147
-116.122	-110.885	0.364	0.095
-115.107	-48.728	-0.249	-0.152
-114.093	-19.021	0.221	0.175
-113.078	-200.000	0.012	0.159
-112.064	-104.309	0.320	-0.094
-111.049	655.108	0.088	-0.290
-110.034	6.180	0.273	-0.257
-109.020	-8.147	0.414	-0.355
-108.005	-200.000	-0.003	-0.177
-106.991	180.327	-0.156	-0.293
-105.976	-200.000	-0.041	0.249
-104.962	-200.000	0.018	-0.354
-103.947	-134.643	-0.376	-0.058
-102.932	800.000	0.085	-0.328
-101.918	-145.360	0.298	-0.034
-100.903	800.000	0.091	0.329
-99.889	53.713	0.435	-0.532
-98.874	38.628	0.267	-0.303
-97.859	62.020	-0.146	0.185
-96.845	216.836	0.181	0.367
-95.830	577.966	-0.059	-0.185
-94.816	-87.989	-0.212	-0.081
-93.801	-106.438	-0.547	0.154
-92.786	-200.000	-0.054	0.913
-91.772	-200.000	-0.089	-0.751
-90.757	-112.109	-0.464	-0.118
-89.743	66.460	-0.187	-0.243
-88.728	-200.000	0.051	-0.371
-87.713	-200.000	-0.016	0.460
-86.699	-12.195	0.325	-0.270
-85.684	17.756	0.253	-0.257
-84.670	-43.390	-0.462	0.297
-83.655	-200.000	-0.067	0.463
-82.640	800.000	0.028	-0.121
-81.626	-73.940	0.207	-0.095
-80.611	-21.152	-0.256	0.199
-79.597	-58.421	0.162	-0.089
-78.582	697.329	-0.209	0.704
-77.567	-163.755	-0.290	-0.017
-76.553	43.731	0.130	0.151
-75.538	202.479	0.186	-0.366
-74.524	-4.615	0.315	0.276
-73.509	-56.897	0.218	-0.122
-72.494	-95.813	0.218	0.074
-71.480	-118.205	-0.219	0.049
-70.465	-31.263	0.092	0.066
-69.451	-200.000	0.014	-0.369
-68.436	-124.651	-0.435	-0.085
-67.422	-97.520	0.360	0.118
-66.407	15.495	0.315	0.315
-65.392	-87.863	-0.370	0.141
-64.378	10.699	-0.337	0.327
-63.363	-37.565	-0.265	0.179
-62.349	-30.436	-0.310	-0.223
-61.334	-17.695	-2.177	-1.736
-60.319	0.699	0.893	0.812
-59.305	175.316	-3.363	-6.214
-58.290	85.123	3.058	4.270
-57.276	413.672	3.776	10.263
-56.261	-200.000	18.813	263.343
-55.246	408.854	1230.717	3327.611
-54.232	56.397	2853.848	3529.273
-53.217	56.645	2730.996	3381.060
-52.203	38.357	2460.740	2787.533
-51.188	37.526	2116.135	2386.820
-50.173	33.449	1992.256	2199.541
-49.159	31.896	1981.843	2169.910
-48.144	31.564	1977.920	2161.674
-47.130	31.498	1975.265	2157.932
-46.115	31.534	1973.834	2156.693
-45.100	31.631	1972.098	2155.838
-44.086	31.420	1970.246	2151.279
-43.071	31.557	1968.749	2151.145
-42.057	31.480	1967.825	2149.169
-41.042	31.296	1967.862	2146.998
-40.027	31.404	1965.206	2145.257
-39.013	31.371	1963.087	2142.481
-37.998	31.356	1962.734	2141.832
-36.984	31.407	1960.535	2139.937
-35.969	31.332	1959.770	2138.149
-34.954	31.352	1958.243	2136.638
-33.940	31.268	1957.212	2134.463
-32.925	31.321	1955.164	2132.743
-31.911	31.364	1953.634	2131.487
-30.896	31.323	1952.685	2129.900
-29.881	31.328	1951.762	2128.863
-28.867	31.262	1950.719	2126.883
-27.852	31.170	1949.120	2124.005
-26.838	31.192	1947.002	2121.868
-25.823	31.230	1946.257	2121.399
-24.809	31.164	1945.186	2119.397
-23.794	31.264	1943.212	2118.301
-22.779	31.115	1941.712	2114.888
-21.765	31.095	1941.025	2113.822
-20.750	31.132	1939.834	2112.871
-19.736	31.269	1938.036	2112.387
-18.721	31.186	1937.364	2110.618
-17.706	31.090	1936.005	2107.964
-16.692	31.087	1934.376	2106.075
-15.677	31.311	1932.489	2106.483
-14.663	31.100	1931.879	2103.337
-13.648	31.113	1930.101	2101.461
-12.633	31.055	1929.078	2099.607
-11.619	30.955	1928.396	2097.658
-10.604	31.227	1925.817	2097.838
-9.590	31.110	1924.991	2095.531
-8.575	30.990	1924.202	2093.242
-7.560	31.031	1922.619	2091.896
-6.546	31.000	1921.145	2089.855
-5.531	31.020	1920.350	2089.135
-4.517	30.947	1919.198	2086.978
-3.502	31.121	1918.094	2087.650
-2.487	30.971	1917.782	2085.550
-1.473	31.108	1914.004	2082.895
-0.458	30.418	1893.300	2052.617
0.556	25.544	2030.456	2130.544
1.571	23.298	2242.727	2323.415
2.586	24.312	2286.751	2382.363
3.600	24.403	2289.545	2386.212
4.615	24.388	2289.461	2385.639
5.629	24.331	2286.717	2381.727
6.644	24.289	2285.295	2379.397
7.659	24.318	2283.899	2378.048
8.673	24.522	2282.012	2378.539
9.688	24.095	2289.079	2379.885
10.702	22.114	2364.269	2430.245
11.717	19.478	2428.908	2458.691
12.731	9.576	2402.688	2290.932
13.746	1.424	2381.316	2154.427
14.761	0.328	2376.643	2134.340
15.775	0.124	2375.799	2130.436
16.790	0.129	2373.437	2128.122
17.804	0.166	2372.274	2127.361
18.819	0.150	2370.691	2125.459
19.834	0.144	2369.379	2123.944
20.848	0.091	2368.356	2122.020
21.863	0.198	2365.481	2120.696
22.877	0.147	2363.549	2117.999
23.892	0.061	2361.839	2114.993
24.907	0.121	2359.569	2113.556
25.921	0.181	2357.708	2112.487
26.936	0.113	2355.575	2109.362
27.950	0.118	2352.531	2106.453
28.965	0.080	2351.277	2104.543
29.980	0.113	2348.976	2102.696
30.994	0.206	2347.656	2102.561
32.009	4.695	2362.335	2178.754
33.023	15.555	2395.367	2363.266
34.038	20.100	2401.374	2433.202
35.053	20.163	2398.488	2430.873
36.067	20.136	2396.409	2428.100
37.082	20.074	2394.413	2424.906
38.096	20.105	2392.515	2423.136
39.111	20.279	2390.493	2423.234
40.126	20.412	2387.903	2422.193
41.140	20.476	2386.589	2421.458
42.155	20.569	2384.307	2420.154
43.169	20.535	2382.930	2417.997
44.184	20.367	2379.870	2412.246
45.199	20.381	2377.916	2410.177
46.213	20.362	2377.254	2408.956
47.228	20.387	2375.807	2407.546
48.242	20.407	2374.741	2406.463
49.257	20.474	2373.394	2405.734
50.271	20.582	2369.799	2403.313
51.286	20.422	2367.477	2398.440
52.301	20.139	2365.748	2392.481
53.315	21.046	2369.136	2408.211
54.330	23.967	2375.428	2454.893
55.344	25.766	2376.872	2481.035
56.359	26.016	2375.280	2482.533
57.374	26.167	2373.412	2482.379
58.388	26.100	2370.722	2478.337
59.403	25.870	2366.185	2470.127
60.417	25.402	2363.192	2460.266
61.432	25.644	2361.859	2461.915
62.447	25.826	2358.619	2460.738
63.461	25.865	2357.666	2459.995
64.476	25.960	2355.504	2458.734
65.490	25.776	2354.531	2454.912
66.505	24.996	2350.623	2439.865
67.520	23.091	2342.519	2405.144
68.534	20.962	2334.065	2367.156
69.549	20.245	2328.659	2351.618
70.563	20.082	2324.816	2345.249
71.578	20.033	2323.612	2343.088
72.593	20.117	2322.582	2342.910
73.607	20.210	2321.205	2342.502
74.622	20.297	2319.175	2341.353
75.636	20.107	2315.704	2334.988
76.651	20.044	2313.611	2331.755
77.666	20.003	2312.707	2330.009
78.680	20.128	2309.616	2328.296
79.695	19.771	2307.331	2320.905
80.709	19.780	2305.774	2319.184
81.724	19.836	2303.835	2317.710
82.739	19.730	2301.261	2313.418
83.753	19.954	2298.436	2313.310
84.768	19.765	2297.693	2309.737
85.782	19.806	2296.562	2308.874
86.797	19.830	2294.258	2306.613
87.812	19.754	2292.763	2303.817
88.826	19.900	2290.902	2303.617
89.841	19.913	2288.659	2301.267
90.855	19.917	2285.497	2297.855
91.870	19.855	2283.867	2295.116
92.884	19.933	2282.260	2294.272
93.899	19.890	2281.897	2293.061
94.914	20.522	2283.974	2303.286
95.928	22.873	2292.128	2342.619
96.943	24.052	2289.750	2355.609
97.957	21.697	2279.445	2313.499
98.972	20.183	2273.395	2287.033
99.987	19.981	2270.242	2280.907
101.001	20.007	2266.904	2277.623
102.016	19.893	2266.021	2274.967
103.030	19.756	2263.236	2270.082
104.045	19.704	2260.861	2266.747
105.060	19.830	2258.964	2266.232
106.074	19.912	2256.524	2264.592
107.089	19.882	2255.463	2262.857
108.103	19.911	2253.867	2261.370
109.118	19.810	2252.729	2258.628
110.133	19.913	2251.519	2258.496
111.147	19.998	2248.474	2256.286
112.162	19.956	2247.684	2254.677
113.176	20.035	2245.316	2253.071
114.191	20.090	2244.327	2252.526
115.206	19.979	2243.126	2249.594
116.220	19.978	2240.912	2247.088
117.235	20.022	2238.744	2245.229
118.249	20.114	2237.136	2244.540
119.264	20.137	2234.757	2242.184
120.279	20.027	2232.505	2238.221
121.293	20.065	2231.079	2237.024
122.308	19.986	2229.981	2234.633
123.322	19.953	2228.537	2232.487
124.337	20.397	2229.315	2238.751
125.352	22.988	2236.858	2279.703
126.366	23.754	2236.555	2289.039
127.381	21.455	2224.550	2246.839
128.395	20.156	2220.037	2225.255
129.410	20.034	2217.356	2220.730
130.424	19.879	2215.688	2216.802
131.439	19.903	2214.481	2215.633
132.454	20.026	2213.446	2215.915
133.468	20.270	2209.696	2215.037
134.483	20.313	2208.953	2214.570
135.497	20.359	2207.427	2213.362
136.512	20.188	2205.393	2208.871
137.527	20.054	2203.422	2204.918
138.541	19.982	2202.537	2202.845
139.556	19.965	2201.325	2201.162
140.570	19.884	2199.905	2198.446
141.585	19.825	2197.142	2194.661
142.600	19.867	2195.832	2193.629
143.614	19.813	2194.369	2191.216
144.629	19.747	2192.286	2188.033
145.643	19.705	2191.109	2186.067
146.658	19.899	2188.363	2185.531
147.673	19.659	2186.717	2180.570
148.687	19.766	2185.182	2180.135
149.702	19.876	2184.072	2180.163
150.716	19.792	2183.419	2178.182
151.731	19.835	2181.765	2176.826
152.746	19.790	2181.256	2175.488
153.760	20.473	2183.822	2186.426
154.775	23.178	2191.005	2227.628
155.789	24.327	2189.208	2240.048
156.804	21.811	2179.042	2197.724
157.819	19.991	2171.780	2167.265
158.833	19.764	2168.471	2160.853
159.848	19.692	2165.872	2157.097
160.862	19.820	2164.807	2157.381
161.877	19.850	2163.922	2156.617
162.892	20.025	2162.882	2157.521
163.906	19.973	2161.970	2155.695
164.921	20.051	2159.410	2153.858
165.935	19.936	2157.357	2150.122
166.950	19.919	2156.613	2148.917
167.964	19.986	2153.936	2146.816
168.979	19.852	2152.308	2143.275
169.994	19.732	2150.892	2140.118
171.008	19.780	2147.612	2137.195
172.023	19.812	2146.188	2135.910
173.037	19.834	2146.419	2136.160
174.052	19.985	2144.362	2135.730
175.067	20.037	2142.733	2134.500
176.081	19.859	2141.829	2131.133
177.096	19.963	2141.485	2131.822
178.110	20.012	2138.453	2129.159
179.125	19.993	2137.300	2127.519
180.140	19.948	2136.416	2125.829
181.154	20.062	2135.595	2126.169
182.169	20.153	2135.161	2126.602
183.183	20.954	2136.444	2137.506
184.198	23.771	2143.803	2179.393
185.213	24.346	2140.878	2183.239
186.227	21.498	2131.186	2138.154
187.242	20.280	2125.325	2117.093
188.256	20.073	2123.850	2112.835
189.271	19.847	2122.626	2108.595
190.286	19.905	2120.796	2107.235
191.300	19.855	2118.634	2104.223
192.315	19.883	2116.679	2102.371
193.329	19.917	2116.150	2102.006
194.344	20.245	2114.596	2104.221
195.359	20.278	2114.451	2104.226
196.373	20.253	2110.918	2100.156
197.388	20.053	2108.260	2094.822
198.402	19.944	2105.519	2090.526
199.417	19.975	2103.908	2089.052
200.432	19.974	2102.697	2087.592
201.446	19.917	2101.122	2085.085
202.461	19.943	2099.152	2083.189
203.475	19.969	2097.292	2081.414
204.490	19.814	2095.772	2077.786
205.504	19.918	2093.159	2076.200
206.519	19.871	2091.400	2073.641
207.534	19.853	2089.296	2071.091
208.548	19.797	2088.052	2068.935
209.563	19.882	2087.355	2069.023
210.577	20.106	2085.780	2069.901
211.592	19.858	2085.092	2065.991
212.607	21.264	2089.877	2087.388
213.621	23.949	2097.413	2126.979
214.636	23.999	2091.466	2121.290
215.650	20.971	2083.123	2076.388
216.665	20.096	2077.564	2060.147
217.680	20.039	2075.612	2057.275
218.694	19.875	2073.747	2053.230
219.709	19.736	2073.397	2050.984
220.723	19.950	2070.975	2050.893
221.738	20.075	2069.964	2051.130
222.753	19.973	2068.290	2048.009
223.767	20.035	2066.660	2046.894
224.782	19.976	2065.193	2044.495
225.796	19.975	2063.839	2042.896
226.811	20.098	2061.443	2041.730
227.826	20.065	2059.443	2039.116
228.840	20.053	2058.050	2037.350
229.855	19.983	2056.728	2034.973
230.869	20.013	2054.995	2033.369
231.884	19.939	2054.043	2031.318
232.899	20.025	2052.229	2030.284
233.913	19.960	2052.145	2029.198
234.928	19.966	2050.497	2027.393
235.942	19.871	2049.389	2024.942
236.957	19.974	2047.338	2023.875
237.972	19.956	2046.051	2022.152
238.986	19.909	2045.339	2020.654
240.001	19.768	2043.529	2016.979
241.015	19.896	2041.974	2016.696
242.030	20.604	2044.407	2027.162
243.045	23.255	2050.603	2064.171
244.059	23.968	2047.597	2069.233
245.074	21.216	2038.169	2027.392
246.088	20.183	2032.964	2009.936
247.103	20.258	2031.238	2008.864
248.117	20.276	2031.026	2008.628
249.132	20.181	2027.989	2004.276
250.147	20.044	2025.450	1999.936
251.161	19.951	2024.367	1997.554
252.176	20.204	2023.007	1998.908
253.190	20.076	2021.433	1995.628
254.205	20.157	2019.017	1993.937
255.220	20.068	2018.107	1991.779
256.234	20.055	2017.512	1990.799
257.249	19.849	2016.719	1987.395
258.263	19.817	2015.438	1985.534
259.278	19.925	2013.808	1984.931
260.293	19.948	2012.414	1983.584
261.307	19.894	2010.527	1980.871
262.322	19.822	2008.921	1978.215
263.336	19.700	2007.330	1975.008
264.351	19.664	2004.686	1971.761
265.366	19.667	2003.859	1970.749
266.380	19.758	2002.637	1970.347
267.395	19.827	2001.241	1969.534
268.409	19.739	2000.019	1967.087
269.424	19.615	1998.216	1963.658
270.439	19.767	1997.095	1964.061
271.453	20.820	1999.530	1978.253
272.468	23.649	2005.397	2016.163
273.482	23.991	2002.090	2016.493
274.497	21.272	1992.129	1975.357
275.512	19.989	1987.044	1955.526
276.526	19.895	1984.478	1951.699
277.541	19.767	1983.869	1949.419
278.555	19.663	1982.026	1946.195
279.570	19.706	1980.573	1945.023
280.585	19.833	1979.391	1945.068
281.599	19.946	1977.208	1943.965
282.614	19.948	1977.282	1943.828
283.628	20.140	1976.195	1944.687
284.643	20.210	1975.114	1944.181
285.657	20.248	1974.180	1943.458
286.672	20.403	1972.655	1943.466
287.687	20.269	1969.917	1939.033
288.701	20.235	1969.935	1938.436
289.716	20.369	1967.945	1937.748
290.730	20.336	1966.590	1935.811
291.745	20.311	1965.405	1934.138
292.760	20.274	1963.330	1931.446
293.774	20.003	1962.295	1927.172
294.789	19.817	1961.065	1923.648
295.803	20.004	1958.371	1922.866
296.818	20.062	1957.419	1922.345
297.833	20.120	1956.808	1922.156
298.847	19.910	1955.550	1918.360
299.862	20.093	1953.853	1918.498
300.876	20.827	1955.546	1928.099
301.891	23.721	1962.555	1967.048
302.906	24.468	1960.353	1972.911
303.920	21.348	1950.961	1928.671
304.935	20.237	1946.885	1912.111
305.949	20.075	1944.415	1907.657
306.964	19.986	1942.163	1904.241
307.979	20.021	1939.992	1902.271
308.993	20.058	1939.171	1901.645
310.008	20.329	1937.577	1902.837
311.022	20.372	1936.335	1901.861
312.037	20.366	1934.450	1899.717
313.052	20.306	1933.428	1897.833
314.066	20.478	1932.529	1898.608
315.081	20.538	1930.959	1897.502
316.095	20.379	1929.499	1894.092
317.110	20.013	1927.835	1888.222
318.125	19.846	1925.664	1884.043
319.139	19.949	1924.117	1883.430
320.154	20.069	1922.333	1882.774
321.168	19.948	1921.410	1880.314
322.183	19.867	1919.750	1877.584
323.197	19.970	1919.245	1877.995
324.212	19.921	1916.415	1874.460
325.227	19.744	1915.302	1871.220
326.241	19.741	1913.678	1869.387
327.256	19.864	1912.023	1868.875
328.270	19.826	1911.322	1867.558
329.285	19.763	1910.873	1866.208
330.300	20.657	1914.827	1879.556
331.314	23.768	1920.423	1918.658
332.329	24.059	1916.363	1917.524
333.343	21.126	1906.532	1875.810
334.358	19.737	1903.249	1857.367
335.373	19.738	1901.468	1855.424
336.387	19.722	1898.949	1852.570
337.402	19.801	1897.692	1851.973
338.416	19.895	1896.051	1851.154
339.431	19.873	1895.405	1850.064
340.446	20.030	1893.194	1849.377
341.460	20.024	1892.022	1847.946
342.475	20.110	1891.351	1847.985
343.489	19.990	1890.158	1845.319
344.504	19.997	1888.560	1843.606
345.519	20.078	1886.886	1842.625
346.533	20.248	1885.139	1842.505
347.548	20.444	1884.568	1843.826
348.562	20.588	1885.146	1845.704
349.577	20.881	1884.001	1847.491
350.592	20.627	1882.176	1842.770
351.606	20.392	1880.469	1838.382
352.621	20.285	1877.742	1834.350
353.635	20.085	1875.566	1829.885
354.650	19.924	1874.270	1826.693
355.665	19.933	1873.413	1825.733
356.679	19.997	1871.807	1824.627
357.694	20.081	1870.412	1823.938
358.708	20.019	1869.276	1821.959
359.723	21.123	1873.182	1837.236
360.738	24.112	1878.809	1874.213
361.752	23.982	1874.526	1868.336
362.767	21.346	1866.019	1831.910
363.781	20.259	1862.010	1816.314
364.796	20.004	1860.475	1811.922
365.810	19.955	1859.416	1810.163
366.825	19.889	1857.688	1807.568
367.840	19.920	1856.133	1806.163
368.854	19.964	1854.886	1805.194
369.869	19.845	1854.132	1803.001
370.883	20.099	1852.667	1804.020
371.898	20.233	1852.528	1805.069
372.913	20.152	1850.885	1802.399
373.927	20.258	1849.285	1801.740
374.942	20.286	1847.676	1800.244
375.956	20.335	1846.118	1799.016
376.971	20.237	1844.150	1795.871
377.986	20.100	1842.377	1792.506
379.000	20.064	1841.429	1790.991
380.015	20.039	1839.990	1789.116
381.029	19.947	1838.525	1786.523
382.044	19.979	1835.480	1783.687
383.059	19.838	1834.619	1781.179
384.073	19.889	1834.040	1780.930
385.088	19.850	1832.989	1779.291
386.102	19.819	1831.494	1777.301
387.117	19.778	1829.397	1774.632
388.132	19.854	1828.758	1774.588
389.146	20.643	1833.071	1786.703
390.161	23.723	1838.377	1823.498
391.175	23.820	1831.584	1817.546
392.190	20.979	1822.799	1779.501
393.205	20.076	1819.365	1766.686
394.219	19.933	1817.999	1763.684
395.234	19.909	1816.278	1761.564
396.248	19.794	1815.077	1759.013
397.263	19.831	1812.350	1756.533
398.278	19.847	1811.391	1755.553
399.292	19.874	1809.812	1754.096
400.307	19.852	1809.592	1753.442
401.321	20.006	1807.753	1753.015
402.336	20.028	1806.841	1752.155
403.350	19.924	1806.317	1750.376
404.365	20.211	1804.598	1751.410
405.380	20.301	1803.308	1750.861
406.394	20.102	1802.331	1747.686
407.409	20.142	1800.473	1746.087
408.423	20.319	1798.742	1745.986
409.438	20.250	1797.182	1743.566
410.453	20.235	1795.837	1741.902
411.467	20.132	1796.553	1741.342
412.482	20.120	1794.103	1738.645
413.496	19.907	1792.592	1734.822
414.511	20.018	1790.471	1733.676
415.526	20.004	1788.221	1731.157
416.540	19.932	1787.134	1729.175
417.555	20.018	1786.005	1728.739
418.569	20.245	1786.296	1731.083
419.584	20.296	1785.894	1731.002
420.599	20.164	1785.585	1729.175
421.613	20.192	1783.902	1727.610
422.628	20.102	1782.211	1724.870
423.642	19.870	1780.256	1720.455
424.657	19.831	1778.754	1718.410
425.672	20.125	1778.092	1720.492
426.686	20.115	1777.857	1719.957
427.701	20.232	1775.789	1718.921
428.715	20.373	1774.664	1719.027
429.730	20.563	1773.072	1719.165
430.745	20.418	1772.003	1716.489
431.759	20.408	1771.850	1716.034
432.774	20.889	1771.678	1720.432
433.788	21.091	1771.192	1721.767
434.803	21.126	1771.028	1721.749
435.818	21.099	1769.917	1720.187
436.832	21.217	1768.987	1720.252
437.847	20.551	1762.961	1707.611
438.861	12.228	1739.230	1603.022
439.876	2.497	1720.383	1490.595
440.890	0.492	1716.075	1467.107
441.905	0.277	1714.984	1463.895
442.920	0.308	1713.317	1462.599
443.934	0.209	1712.238	1460.536
444.949	0.201	1711.132	1459.344
445.963	0.181	1709.794	1457.833
446.978	0.136	1710.178	1457.546
447.993	0.132	1708.655	1456.041
449.007	0.098	1706.529	1453.717
450.022	0.229	1704.151	1452.788
451.036	0.238	1702.788	1451.542
452.051	1.234	1707.640	1465.176
453.066	10.112	1728.806	1570.111
454.080	19.468	1744.478	1675.903
455.095	22.354	1748.521	1707.786
456.109	23.785	1751.592	1724.550
457.124	24.236	1751.558	1728.705
458.139	24.242	1750.963	1727.967
459.153	24.267	1748.968	1726.040
460.168	24.225	1747.232	1723.709
461.182	24.211	1745.442	1721.606
462.197	24.256	1743.093	1719.518
463.212	24.014	1741.515	1715.411
464.226	24.163	1740.441	1715.590
465.241	24.385	1740.514	1717.602
466.255	24.553	1740.199	1718.710
467.270	24.721	1738.218	1718.168
468.285	24.370	1735.602	1711.999
469.299	24.161	1734.508	1708.695
470.314	24.358	1733.281	1709.183
471.328	24.411	1732.140	1708.358
472.343	24.405	1731.033	1707.008
473.358	24.367	1730.441	1705.855
474.372	24.469	1729.298	1705.508
475.387	24.407	1726.792	1702.237
476.401	24.230	1725.721	1699.280
477.416	24.199	1723.717	1696.804
478.430	24.381	1722.938	1697.579
479.445	24.205	1722.313	1695.072
480.460	23.910	1720.689	1690.454
481.474	24.068	1720.248	1691.328
482.489	24.552	1719.432	1694.942
483.503	24.957	1717.635	1696.827
484.518	24.968	1716.505	1695.613
485.533	25.055	1715.028	1694.771
486.547	24.853	1714.483	1692.111
487.562	25.430	1713.451	1696.373
488.576	25.389	1711.956	1694.301
489.591	25.317	1710.132	1691.606
490.606	25.057	1708.117	1686.953
491.620	25.038	1706.828	1685.302
492.635	25.366	1706.205	1687.576
493.649	25.509	1705.342	1687.878
494.664	24.840	1702.815	1678.863
495.679	24.008	1700.688	1668.729
496.693	24.341	1699.271	1670.277
497.708	24.595	1699.160	1672.355
498.722	25.061	1698.675	1676.058
499.737	25.163	1697.748	1675.902
500.752	25.125	1694.776	1672.409
501.766	24.814	1692.964	1667.508
502.781	24.904	1691.661	1666.871
503.795	24.878	1690.305	1665.091
504.810	24.877	1689.253	1663.844
505.825	25.157	1689.233	1666.242
506.839	25.135	1688.023	1664.647
507.854	25.011	1685.741	1661.037
508.868	24.971	1685.108	1659.846
509.883	24.869	1683.798	1657.403
510.898	25.162	1682.398	1658.554
511.912	25.007	1680.048	1654.596
512.927	24.575	1677.976	1648.350
513.941	24.537	1676.836	1646.686
514.956	24.645	1675.200	1645.882
515.971	24.812	1674.004	1646.054
516.985	24.715	1673.823	1644.783
518.000	24.685	1673.759	1644.248
519.014	24.997	1672.974	1646.158
520.029	25.088	1671.657	1645.501
521.043	25.014	1670.025	1643.022
522.058	24.939	1667.785	1639.930
523.073	25.163	1667.406	1641.417
524.087	25.673	1666.875	1645.391
525.102	25.599	1665.785	1643.438
526.116	25.109	1663.342	1636.340
527.131	25.057	1662.143	1634.482
528.146	25.359	1662.924	1637.822
529.160	25.558	1662.430	1638.969
530.175	25.656	1660.914	1638.169
531.189	25.844	1659.825	1638.624
532.204	25.965	1659.162	1638.881
533.219	25.516	1656.085	1631.545
534.233	24.937	1654.687	1624.694
535.248	25.211	1654.351	1626.668
536.262	25.944	1654.612	1633.406
537.277	26.019	1653.076	1632.380
538.292	25.774	1650.296	1627.214
539.306	25.589	1649.457	1624.508
540.321	25.682	1647.206	1622.945
541.335	25.292	1646.166	1618.186
542.350	25.704	1644.996	1620.573
543.365	26.034	1643.954	1622.337
544.379	26.101	1643.160	1621.969
545.394	26.223	1641.619	1621.350
546.408	25.679	1639.365	1614.028
547.423	24.982	1637.146	1605.376
548.438	24.809	1635.995	1602.496
549.452	25.237	1635.465	1605.634
550.467	25.484	1634.488	1606.706
551.481	25.491	1634.366	1606.452
552.496	25.806	1633.843	1608.578
553.511	26.385	1632.635	1612.386
554.525	26.164	1631.612	1609.208
555.540	26.243	1630.659	1608.781
556.554	26.267	1629.515	1607.674
557.569	26.097	1627.664	1604.139
558.583	25.899	1625.687	1600.225
559.598	25.834	1624.193	1597.985
560.613	25.849	1623.526	1597.270
561.627	25.849	1622.057	1595.640
562.642	25.928	1621.135	1595.244
563.656	26.193	1620.684	1596.960
564.671	26.092	1619.524	1594.727
565.686	26.019	1617.521	1591.915
566.700	25.666	1615.854	1586.963
567.715	25.606	1613.783	1584.206
568.729	25.348	1611.972	1579.953
569.744	25.418	1610.258	1578.707
570.759	25.500	1608.945	1577.952
571.773	25.576	1608.748	1578.240
572.788	25.800	1608.154	1579.447
573.802	25.883	1606.393	1578.254
574.817	26.064	1605.165	1578.452
575.832	26.107	1605.309	1578.783
576.846	26.245	1603.917	1578.433
577.861	26.116	1602.564	1575.788
578.875	26.301	1601.854	1576.519
579.890	26.591	1601.394	1578.422
580.905	26.579	1600.553	1577.300
581.919	26.927	1599.699	1579.311
582.934	26.963	1599.051	1578.799
583.948	27.043	1598.049	1578.320
584.963	26.769	1595.762	1573.482
585.978	26.234	1594.323	1567.212
586.992	26.334	1593.579	1567.165
588.007	26.905	1592.899	1571.278
589.021	26.200	1589.613	1561.725
590.036	25.426	1587.742	1552.978
591.051	26.146	1588.009	1559.306
592.065	26.438	1587.580	1561.230
593.080	26.772	1586.754	1563.125
594.094	26.928	1583.878	1561.459
595.109	26.138	1581.527	1552.123
596.123	25.715	1579.103	1545.915
597.138	26.160	1579.712	1550.161
598.153	26.559	1578.699	1552.421
599.167	26.533	1577.095	1550.440
600.182	26.476	1576.816	1549.490
601.196	26.545	1576.201	1549.288
602.211	26.645	1574.277	1548.070
603.226	26.750	1574.276	1548.790
604.240	26.988	1572.909	1549.301
605.255	27.093	1571.722	1548.843
606.269	27.236	1570.649	1548.825
607.284	27.035	1569.937	1546.222
608.299	26.864	1567.903	1542.573
609.313	26.821	1565.711	1539.860
610.328	26.781	1564.883	1538.517
611.342	26.866	1563.169	1537.377
612.357	27.003	1563.079	1538.271
613.372	26.921	1561.711	1536.042
614.386	26.632	1561.068	1532.766
615.401	26.870	1560.395	1533.943
616.415	26.879	1559.733	1533.191
617.430	26.821	1558.983	1531.778
618.445	26.932	1557.304	1530.886
619.459	26.737	1554.695	1526.485
620.474	26.445	1553.251	1522.411
621.488	25.925	1551.382	1516.008
622.503	25.660	1550.518	1512.739
623.518	26.162	1550.110	1516.406
624.532	26.694	1549.163	1519.781
625.547	26.794	1548.440	1519.731
626.561	26.933	1549.153	1521.418
627.576	27.178	1547.562	1521.739
628.591	26.712	1544.590	1514.722
629.605	26.515	1543.159	1511.479
630.620	26.414	1541.312	1508.647
631.634	26.158	1539.779	1504.817
632.649	26.327	1539.590	1505.867
633.663	26.690	1538.898	1508.051
634.678	26.975	1537.941	1509.318
635.693	27.184	1536.049	1509.022
636.707	27.161	1535.112	1507.726
637.722	27.305	1535.109	1508.744
638.736	27.460	1534.075	1508.837
639.751	27.547	1532.835	1508.163
640.766	27.508	1531.617	1506.455
641.780	27.473	1530.319	1504.710
642.795	27.502	1529.514	1503.981
643.809	27.476	1529.354	1503.429
644.824	27.647	1528.355	1503.686
645.839	27.556	1527.049	1501.461
646.853	27.715	1525.290	1500.871
647.868	27.559	1523.336	1497.478
648.882	27.377	1522.212	1494.696
649.897	27.281	1521.053	1492.587
650.912	27.245	1519.785	1490.867
651.926	27.457	1518.589	1491.261
652.941	27.262	1517.126	1488.043
653.955	26.681	1514.704	1480.710
654.970	26.041	1511.277	1471.944
655.985	25.868	1510.377	1469.471
656.999	26.070	1509.048	1469.653
658.014	26.342	1509.155	1471.813
659.028	26.855	1508.926	1475.605
660.043	27.264	1508.933	1478.778
661.058	27.541	1507.828	1479.782
662.072	27.523	1506.997	1478.644
663.087	27.335	1505.650	1475.612
664.101	27.178	1504.499	1473.025
665.116	27.441	1503.780	1474.291
666.131	27.512	1503.331	1474.247
667.145	27.596	1501.700	1473.152
668.160	27.766	1500.603	1473.285
669.174	27.918	1499.647	1473.399
670.189	27.799	1498.671	1471.299
671.204	27.657	1497.499	1468.825
672.218	27.803	1495.990	1468.353
673.233	27.927	1494.976	1468.183
674.247	28.258	1494.338	1470.049
675.262	28.304	1493.276	1469.202
676.276	28.105	1492.394	1466.550
677.291	27.935	1491.149	1463.783
678.306	27.557	1489.816	1459.259
679.320	27.562	1487.839	1457.185
680.335	27.652	1488.281	1458.172
681.349	27.924	1487.205	1459.127
682.364	27.889	1486.013	1457.501
683.379	27.682	1485.080	1454.748
684.393	27.559	1483.327	1451.873
685.408	27.766	1482.225	1452.282
686.422	27.626	1480.707	1449.498
687.437	27.368	1480.670	1447.227
688.452	27.667	1479.733	1448.523
689.466	27.649	1477.396	1445.922
690.481	27.476	1475.775	1442.786
691.495	27.260	1474.739	1439.879
692.510	26.892	1472.992	1435.079
693.525	26.675	1470.092	1430.360
694.539	26.875	1470.522	1432.195
695.554	27.467	1471.012	1437.199
696.568	27.751	1470.395	1438.672
697.583	27.603	1469.408	1436.365
698.598	27.846	1469.145	1437.854
699.612	27.931	1468.195	1437.428
700.627	27.961	1466.655	1435.985
701.641	27.994	1465.290	1434.736
702.656	28.218	1464.202	1435.265
703.671	28.347	1464.338	1436.239
704.685	28.442	1463.618	1436.113
705.700	28.333	1461.001	1432.514
706.714	28.000	1459.954	1428.703
707.729	27.766	1458.414	1425.189
708.744	27.799	1457.054	1423.949
709.758	27.672	1455.333	1421.103
710.773	27.095	1453.106	1414.241
711.787	26.848	1451.507	1410.586
712.802	27.364	1450.991	1413.945
713.816	27.668	1451.066	1416.223
714.831	27.835	1451.257	1417.543
715.846	28.095	1449.642	1417.826
716.860	28.380	1447.960	1418.229
717.875	28.159	1446.586	1414.994
718.889	27.894	1445.360	1411.564
719.904	27.895	1444.831	1410.891
720.919	28.002	1443.782	1410.524
721.933	28.082	1443.800	1410.997
722.948	28.101	1442.171	1409.378
723.962	28.152	1441.042	1408.501
724.977	28.432	1440.338	1409.809
725.992	28.468	1439.237	1408.844
727.006	28.378	1437.552	1406.331
728.021	28.448	1435.939	1405.123
729.035	28.506	1435.493	1404.969
730.050	28.462	1434.312	1403.301
731.065	28.376	1433.581	1401.760
732.079	28.431	1432.798	1401.244
733.094	28.340	1431.644	1399.252
734.108	28.084	1430.002	1395.515
735.123	28.309	1428.004	1395.125
736.138	28.296	1427.543	1394.406
737.152	28.196	1426.330	1392.290
738.167	28.554	1425.353	1393.908
739.181	28.422	1424.497	1391.892
740.196	28.578	1423.622	1392.060
741.211	28.352	1423.152	1389.716
742.225	28.266	1422.510	1388.265
743.240	28.322	1420.029	1386.100
744.254	28.231	1418.446	1383.703
745.269	28.011	1417.758	1381.194
746.284	27.965	1416.418	1379.373
747.298	27.770	1415.264	1376.607
748.313	27.491	1414.379	1373.468
749.327	27.255	1412.898	1370.073
750.342	27.047	1411.095	1366.593
751.356	26.725	1409.868	1362.804
752.371	26.726	1409.203	1362.007
753.386	27.673	1409.092	1368.884
754.400	28.005	1408.973	1371.109
755.415	28.485	1408.123	1373.733
756.429	28.697	1407.156	1374.224
757.444	28.580	1405.644	1371.698
758.459	28.520	1405.108	1370.566
759.473	28.521	1403.768	1369.100
760.488	28.520	1402.139	1367.340
761.502	28.251	1401.432	1364.468
762.517	28.353	1400.569	1364.234
763.532	28.284	1399.214	1362.232
764.546	28.100	1396.979	1358.518
765.561	27.643	1394.189	1352.236
766.575	26.647	1392.578	1343.093
767.590	26.617	1391.430	1341.604
768.605	27.532	1391.313	1348.139
769.619	27.974	1390.729	1350.698
770.634	28.208	1390.589	1352.138
771.648	28.334	1390.307	1352.636
772.663	28.289	1389.712	1351.562
773.678	28.370	1389.334	1351.631
774.692	28.542	1388.709	1352.138
775.707	28.510	1388.583	1351.613
776.721	28.623	1387.024	1350.771
777.736	28.607	1385.683	1349.185
778.751	28.741	1384.462	1348.823
779.765	28.611	1383.521	1346.788
780.780	28.552	1382.488	1345.186
781.794	28.677	1380.777	1344.279
782.809	28.279	1379.946	1340.379
783.824	28.055	1378.077	1336.762
784.838	27.704	1375.693	1331.712
785.853	27.202	1374.894	1327.097
786.867	27.329	1374.818	1327.793
787.882	27.517	1374.734	1328.933
788.897	27.656	1373.785	1328.875
789.911	27.814	1372.512	1328.642
790.926	27.870	1371.820	1328.224
791.940	28.177	1370.472	1329.004
792.955	28.222	1369.341	1328.075
793.969	28.291	1367.922	1327.038
794.984	28.437	1367.616	1327.647
795.999	28.601	1366.705	1327.794
797.013	28.717	1365.466	1327.276
798.028	28.635	1363.534	1324.648
799.042	28.681	1363.218	1324.515
800.057	28.705	1362.608	1323.934
801.072	28.666	1361.269	1322.191
802.086	28.755	1360.281	1321.719
803.101	28.711	1359.229	1320.223
804.115	28.707	1357.785	1318.629
805.130	28.641	1357.392	1317.616
806.145	28.560	1355.861	1315.390
807.159	28.619	1353.528	1313.393
808.174	28.389	1352.744	1310.819
809.188	28.501	1351.000	1309.778
810.203	28.215	1349.816	1306.423
811.218	27.814	1348.058	1301.694
812.232	27.292	1345.484	1295.317
813.247	27.009	1344.325	1292.017
814.261	27.721	1344.718	1297.338
815.276	28.192	1344.777	1300.605
816.291	28.339	1343.742	1300.495
817.305	28.477	1342.382	1300.006
818.320	28.628	1341.691	1300.261
819.334	28.637	1340.654	1299.164
820.349	28.708	1339.466	1298.360
821.364	28.769	1338.989	1298.172
822.378	28.712	1337.350	1296.027
823.393	28.736	1335.483	1294.231
824.407	28.707	1334.142	1292.574
825.422	28.467	1333.639	1290.229
826.437	28.421	1332.181	1288.340
827.451	28.379	1329.444	1285.247
828.466	27.673	1327.513	1278.254
829.480	27.417	1325.866	1274.709
830.495	27.727	1324.802	1275.717
831.509	27.874	1325.022	1276.810
832.524	27.943	1325.134	1277.249
833.539	28.648	1323.323	1280.291
834.553	28.644	1322.372	1279.192
835.568	28.709	1321.188	1278.348
836.582	28.708	1320.198	1277.229
837.597	28.710	1318.767	1275.707
838.612	28.560	1317.392	1273.178
839.626	28.436	1315.813	1270.636
840.641	28.176	1314.541	1267.448
841.655	27.890	1313.835	1264.623
842.670	27.301	1310.776	1257.437
843.685	26.666	1309.365	1251.524
844.699	27.488	1309.223	1256.940
845.714	28.133	1308.668	1260.733
846.728	27.923	1308.367	1258.834
847.743	28.148	1307.918	1259.808
848.758	28.384	1306.548	1259.974
849.772	28.694	1305.124	1260.589
850.787	28.526	1304.206	1258.390
851.801	28.628	1302.953	1257.734
852.816	28.577	1301.537	1255.867
853.831	28.407	1300.263	1253.315
854.845	28.423	1298.531	1251.609
855.860	28.150	1296.349	1247.484
856.874	27.959	1295.163	1244.887
857.889	27.930	1294.058	1243.478
858.904	27.800	1292.100	1240.554
859.918	27.442	1290.636	1236.559
860.933	27.204	1290.051	1234.226
861.947	27.393	1289.279	1234.631
862.962	27.878	1288.271	1236.818
863.977	27.780	1286.915	1234.706
864.991	28.000	1286.759	1235.900
866.006	28.219	1286.253	1236.753
867.020	28.391	1285.411	1236.965
868.035	28.492	1284.507	1236.631
869.049	28.411	1284.399	1235.833
870.064	28.606	1283.325	1235.971
871.079	28.608	1281.646	1234.217
872.093	28.372	1281.094	1231.946
873.108	28.333	1279.102	1229.618
874.122	28.007	1277.941	1226.158
875.137	27.658	1276.592	1222.363
876.152	27.505	1274.718	1219.393
877.166	27.417	1273.941	1217.914
878.181	27.690	1273.546	1219.222
879.195	28.128	1272.767	1221.271
880.210	28.379	1271.985	1222.060
881.225	28.454	1271.536	1221.984
882.239	28.384	1271.156	1221.004
883.254	28.472	1270.159	1220.485
884.268	28.662	1268.771	1220.282
885.283	28.436	1267.678	1217.576
886.298	28.571	1266.047	1216.760
887.312	28.724	1265.284	1216.902
888.327	28.644	1264.024	1215.009
889.341	28.314	1262.986	1211.677
890.356	28.224	1262.237	1210.211
891.371	28.274	1261.636	1209.826
892.385	28.193	1260.446	1208.000
893.400	28.230	1259.383	1207.079
894.414	27.934	1258.141	1203.788
895.429	27.803	1256.013	1200.744
896.444	27.413	1253.106	1195.248
897.458	26.805	1252.112	1190.143
898.473	27.228	1251.947	1192.631
899.487	27.754	1251.826	1195.842
900.502	27.847	1251.056	1195.576
901.517	28.145	1249.914	1196.298
902.531	28.136	1249.729	1195.920
903.546	28.381	1248.959	1196.651
904.560	28.431	1247.440	1195.377
905.575	28.529	1247.302	1195.744
906.589	28.097	1246.863	1192.353
907.604	28.106	1245.899	1191.346
