DTS Sentinel unit serial number:	SN409020Multiplexer serial number:	ORYXHardware model number:	OX4-SRSoftware version number:	ORYX F/W v3.00 Oryx Data Collector v3.7.2.0data status	okinstallation	HaddamTimeLapsedifferential loss correction	single-endedforward channel	channel 3reverse channel	N/Adate	2011/06/21time	15:06:17forward acquisition time	30.00reverse acquisition time	0.00gamma	498.7831k internal	0.1844k external	0.1844temperature offset calibration	1.0074default loss term (dB/km)	0.3790temperature slope calibration	1.3530multiplexer offset coefficient	1.0000multiplexer slope coefficient	1.0000fibre end	0.00T internal ref (°C)	38.50T ext. ref 1 (°C)	30.37T ext. ref 2 (°C)	0.29length (m)	temperature (°C)	Stokes	anti-Stokes-747.200	-92.627	-0.376	-0.132
-746.185	-200.000	-0.100	0.665
-745.171	-59.077	-0.151	-0.082
-744.156	42.291	0.324	0.371
-743.142	58.148	-0.058	0.072
-742.127	8.258	0.419	0.397
-741.112	-119.849	-0.600	-0.129
-740.098	72.570	0.134	0.177
-739.083	251.279	-0.055	-0.119
-738.069	-200.000	0.030	0.725
-737.054	165.082	-0.175	0.313
-736.039	760.612	-0.127	0.436
-735.025	-200.000	0.014	0.433
-734.010	585.636	0.059	-0.184
-732.996	-25.272	-0.495	0.369
-731.981	-139.174	-0.408	-0.055
-730.966	-138.788	-0.351	0.048
-729.952	91.561	0.143	0.203
-728.937	-50.934	0.342	-0.202
-727.923	800.000	0.049	-0.192
-726.908	-120.800	-0.514	0.108
-725.894	-190.746	-0.471	-0.006
-724.879	-200.000	0.001	-0.040
-723.864	87.611	-0.084	-0.117
-722.850	-175.027	-0.250	-0.009
-721.835	-84.359	0.661	0.262
-720.821	108.685	-0.148	-0.223
-719.806	-194.724	0.145	-0.001
-718.791	-92.008	-0.087	0.031
-717.777	-105.625	-0.417	-0.118
-716.762	144.351	-0.248	-0.419
-715.748	487.936	0.071	-0.206
-714.733	55.386	0.297	0.362
-713.718	330.418	-0.147	0.358
-712.704	-35.821	-0.162	-0.110
-711.689	800.000	-0.128	-0.560
-710.675	-8.443	0.154	-0.131
-709.660	389.148	0.096	0.252
-708.645	-109.028	-0.513	-0.137
-707.631	-46.824	0.375	0.230
-706.616	-17.858	0.117	-0.093
-705.602	30.408	0.316	-0.340
-704.587	-88.140	-0.480	-0.180
-703.572	99.514	-0.126	-0.184
-702.558	63.814	0.297	0.376
-701.543	103.807	-0.234	0.347
-700.529	800.000	-0.048	0.192
-699.514	-86.610	0.166	-0.064
-698.499	-200.000	0.022	-0.612
-697.485	-35.063	-0.337	-0.231
-696.470	-47.922	-0.242	0.147
-695.456	-29.324	-0.093	0.067
-694.441	-200.000	-0.036	-0.319
-693.426	-1.544	-0.142	-0.126
-692.412	-49.121	-0.289	0.173
-691.397	110.592	-0.244	0.370
-690.383	800.000	-0.055	-0.234
-689.368	-62.302	0.232	0.121
-688.354	130.631	0.249	0.403
-687.339	-200.000	-0.001	-0.097
-686.324	-200.000	-0.071	-0.414
-685.310	0.436	0.309	0.277
-684.295	-64.028	-0.091	0.047
-683.281	-16.577	0.203	-0.162
-682.266	141.361	-0.193	0.323
-681.251	-143.472	0.103	0.012
-680.237	348.563	0.084	-0.211
-679.222	56.763	-0.312	0.382
-678.208	-156.818	0.191	0.015
-677.193	109.097	-0.203	-0.306
-676.178	88.385	-0.185	-0.258
-675.164	-32.132	-0.555	-0.389
-674.149	49.049	0.084	-0.099
-673.135	800.000	0.124	0.500
-672.120	-200.000	0.069	0.681
-671.105	-6.014	-0.270	0.232
-670.091	-24.873	0.608	-0.453
-669.076	46.116	0.191	-0.223
-668.062	-116.300	-0.092	0.021
-667.047	-151.569	-0.297	-0.027
-666.032	385.173	0.092	-0.240
-665.018	396.046	0.077	0.203
-664.003	32.643	-0.511	-0.556
-662.989	-54.590	-0.190	-0.108
-661.974	124.112	0.118	-0.187
-660.959	-88.063	-0.762	0.286
-659.945	-22.506	0.127	0.097
-658.930	376.261	-0.174	0.449
-657.916	-30.497	-0.149	-0.106
-656.901	107.647	-0.094	0.142
-655.886	800.000	0.087	-0.417
-654.872	424.130	-0.057	-0.154
-653.857	1.782	0.141	0.128
-652.843	-200.000	0.010	0.120
-651.828	800.000	0.073	-0.294
-650.814	10.856	0.209	0.200
-649.799	261.251	-0.112	0.244
-648.784	-118.058	-0.267	-0.059
-647.770	-200.000	0.012	-0.217
-646.755	-138.273	-0.671	0.092
-645.741	-33.564	0.255	-0.177
-644.726	-73.025	-0.195	0.089
-643.711	187.612	-0.089	0.167
-642.697	-31.519	-0.378	0.266
-641.682	-20.167	0.279	0.215
-640.668	-123.069	-0.098	-0.020
-639.653	-37.200	0.441	0.295
-638.638	125.168	0.116	0.184
-637.624	289.114	0.215	0.492
-636.609	-50.502	-0.445	0.263
-635.595	-200.000	-0.072	0.421
-634.580	94.717	-0.176	0.252
-633.565	-121.060	0.194	0.040
-632.551	-159.158	-0.183	0.013
-631.536	-29.082	-0.361	-0.260
-630.522	-162.077	0.144	-0.009
-629.507	441.630	-0.020	0.056
-628.492	32.108	-0.333	0.360
-627.478	-98.705	-0.143	0.046
-626.463	-144.805	-0.494	-0.056
-625.449	-200.000	-0.003	-0.152
-624.434	-200.000	-0.082	-0.000
-623.419	-108.137	0.158	-0.043
-622.405	15.388	0.205	-0.202
-621.390	800.000	0.077	-0.287
-620.376	-54.818	0.331	-0.187
-619.361	800.000	0.034	-0.166
-618.346	-72.609	0.109	0.050
-617.332	453.252	-0.160	0.448
-616.317	-137.949	-0.326	-0.045
-615.303	-22.906	-0.338	-0.256
-614.288	800.000	0.109	0.410
-613.273	-59.687	-0.247	-0.132
-612.259	40.139	-0.137	0.155
-611.244	800.000	0.052	-0.249
-610.230	-171.444	0.162	0.007
-609.215	38.625	-0.152	0.171
-608.201	-38.206	-0.178	-0.118
-607.186	-118.920	-0.375	-0.082
-606.171	4.886	-0.392	0.361
-605.157	47.369	-0.236	-0.276
-604.142	-165.857	-0.234	-0.012
-603.128	-55.001	0.315	0.178
-602.113	289.725	0.152	0.348
-601.098	0.279	0.156	0.140
-600.084	59.339	-0.173	0.214
-599.069	-200.000	0.022	0.290
-598.055	-198.963	-0.580	-0.004
-597.040	-200.000	-0.014	0.171
-596.025	-17.864	-0.178	0.140
-595.011	444.284	-0.173	0.477
-593.996	94.474	-0.107	0.153
-592.982	-167.002	-0.260	0.013
-591.967	-200.000	-0.015	-0.276
-590.952	-118.940	-0.589	0.129
-589.938	786.232	0.140	0.486
-588.923	193.607	-0.302	0.575
-587.909	-17.067	0.191	0.151
-586.894	-200.000	0.011	0.063
-585.879	-200.000	0.029	0.264
-584.865	-56.626	-0.355	-0.196
-583.850	722.307	-0.184	-0.619
-582.836	-138.311	0.468	-0.064
-581.821	-76.102	0.620	0.273
-580.806	-85.406	-0.243	0.094
-579.792	-142.260	-0.681	-0.083
-578.777	14.890	-0.450	0.441
-577.763	-125.658	-0.243	-0.046
-576.748	-110.942	0.232	-0.059
-575.733	77.876	0.090	-0.121
-574.719	-148.027	-0.267	-0.027
-573.704	185.811	0.190	-0.354
-572.690	-200.000	-0.009	-0.090
-571.675	-118.399	-0.355	-0.078
-570.661	-57.253	-0.386	0.212
-569.646	-137.975	0.358	-0.049
-568.631	-112.221	-0.373	0.093
-567.617	-125.416	-0.334	0.063
-566.602	3.364	-0.148	-0.135
-565.588	797.137	0.018	-0.064
-564.573	-17.881	-0.150	-0.118
-563.558	-14.815	0.401	0.322
-562.544	151.519	-0.259	0.443
-561.529	27.262	-0.156	0.164
-560.515	-12.986	-0.314	0.255
-559.500	-200.000	0.070	-0.506
-558.485	-111.554	-0.240	-0.061
-557.471	476.141	0.188	-0.533
-556.456	-18.045	0.297	-0.233
-555.442	72.951	0.278	-0.364
-554.427	-116.346	-0.326	-0.075
-553.412	-189.842	0.278	-0.004
-552.398	-39.450	0.307	-0.201
-551.383	232.909	-0.089	0.183
-550.369	21.326	-0.238	-0.242
-549.354	-80.720	-0.572	0.237
-548.339	-0.555	-0.096	-0.085
-547.325	2.010	-0.142	-0.128
-546.310	-9.714	-0.224	-0.187
-545.296	-45.734	0.206	-0.127
-544.281	-46.947	0.341	-0.208
-543.266	613.299	0.058	0.182
-542.252	18.217	0.208	0.208
-541.237	330.438	0.024	0.059
-540.223	74.471	0.214	0.282
-539.208	-200.000	-0.002	-0.197
-538.193	-149.260	-0.277	0.027
-537.179	800.000	-0.109	0.518
-536.164	-100.004	0.288	-0.089
-535.150	-12.095	0.285	0.233
-534.135	800.000	0.047	-0.197
-533.121	-61.320	-0.315	-0.165
-532.106	-45.749	-0.157	-0.097
-531.091	-107.505	0.384	-0.105
-530.077	-200.000	0.007	0.145
-529.062	95.311	0.211	0.301
-528.048	370.750	-0.065	0.164
-527.033	-117.958	-0.036	0.008
-526.018	-63.664	0.365	0.186
-525.004	67.857	0.240	-0.307
-523.989	-163.872	-0.224	-0.013
-522.975	-147.843	-0.138	0.014
-521.960	-200.000	0.075	0.440
-520.945	205.579	0.322	0.628
-519.931	39.170	-0.334	0.373
-518.916	78.123	-0.360	-0.481
-517.902	-54.917	0.364	-0.205
-516.887	-200.000	-0.010	-0.167
-515.872	-80.482	-0.343	0.142
-514.858	800.000	-0.045	0.218
-513.843	546.172	-0.140	-0.419
-512.829	-50.510	-0.256	0.150
-511.814	800.000	-0.065	-0.283
-510.799	132.580	-0.252	-0.407
-509.785	-49.628	0.098	-0.058
-508.770	-200.000	-0.149	0.000
-507.756	-62.512	-0.264	0.136
-506.741	-200.000	-0.026	-0.501
-505.726	-51.705	0.424	-0.246
-504.712	-65.528	-0.387	0.193
-503.697	129.928	-0.035	-0.056
-502.683	113.665	0.129	0.197
-501.668	800.000	0.050	-0.258
-500.653	-147.118	0.104	0.011
-499.639	800.000	-0.067	0.239
-498.624	800.000	-0.030	0.142
-497.610	22.631	0.210	-0.215
-496.595	54.483	-0.288	-0.347
-495.581	-71.563	-0.514	-0.239
-494.566	-98.454	0.073	0.023
-493.551	-37.569	-0.165	-0.109
-492.537	-131.951	-0.404	-0.065
-491.522	-108.360	0.350	0.094
-490.508	715.064	-0.100	-0.332
-489.493	-177.843	0.261	0.008
-488.478	190.892	-0.081	-0.153
-487.464	-141.364	0.404	0.051
-486.449	-6.106	0.120	-0.103
-485.435	175.755	0.202	-0.367
-484.420	800.000	0.054	-0.241
-483.405	-200.000	0.038	-0.384
-482.391	-200.000	0.051	-0.358
-481.376	-77.244	0.211	-0.091
-480.362	102.415	-0.239	0.349
-479.347	338.334	-0.156	0.381
-478.332	-111.791	-0.579	0.145
-477.318	-200.000	0.065	0.440
-476.303	800.000	0.098	0.350
-475.289	800.000	0.111	0.564
-474.274	-30.310	0.255	-0.181
-473.259	-102.577	-0.547	0.162
-472.245	-200.000	0.071	0.540
-471.230	-123.337	0.271	0.053
-470.216	62.460	-0.259	-0.323
-469.201	-110.723	0.249	0.064
-468.186	800.000	0.053	-0.280
-467.172	800.000	0.143	-0.508
-466.157	517.854	0.119	-0.349
-465.143	-142.884	-0.471	0.056
-464.128	-70.839	0.155	0.073
-463.113	-97.704	0.049	-0.016
-462.099	-108.227	-0.179	0.048
-461.084	8.997	0.201	0.190
-460.070	-48.694	-0.217	0.130
-459.055	-53.703	-0.223	0.126
-458.040	-27.400	-0.519	-0.376
-457.026	113.430	-0.069	0.105
-456.011	-45.934	0.121	-0.074
-454.997	50.186	-0.183	0.215
-453.982	-48.755	-0.205	-0.123
-452.968	-163.861	-0.113	-0.006
-451.953	-18.031	0.299	-0.233
-450.938	170.992	-0.133	-0.239
-449.924	-155.623	0.261	0.021
-448.909	-67.135	-0.127	-0.062
-447.895	-154.093	0.106	-0.009
-446.880	-76.553	0.495	-0.216
-445.865	-54.176	0.020	0.011
-444.851	439.593	-0.177	0.484
-443.836	-200.000	-0.004	0.270
-442.822	-136.408	-0.275	0.039
-441.807	800.000	-0.118	-0.571
-440.792	-35.185	-0.377	-0.256
-439.778	800.000	-0.065	-0.344
-438.763	-120.981	0.338	-0.070
-437.749	-142.625	0.382	-0.046
-436.734	-1.395	-0.314	0.276
-435.719	-13.605	-0.151	0.122
-434.705	-39.559	0.257	-0.167
-433.690	603.138	0.131	-0.409
-432.676	-112.770	-0.155	-0.038
-431.661	141.048	-0.284	0.469
-430.646	-200.000	0.025	0.252
-429.632	-113.719	-0.112	0.027
-428.617	-51.913	0.190	-0.110
-427.603	33.033	0.414	0.447
-426.588	-200.000	0.007	0.062
-425.573	4.847	0.249	-0.228
-424.559	-44.461	-0.076	-0.047
-423.544	-98.711	-0.211	-0.067
-422.530	800.000	0.064	0.296
-421.515	191.615	0.062	-0.117
-420.500	0.858	0.056	0.050
-419.486	-34.829	-0.026	0.018
-418.471	40.599	0.027	-0.031
-417.457	800.000	-0.074	-0.315
-416.442	58.825	0.443	-0.543
-415.428	-67.189	0.487	-0.238
-414.413	227.659	0.141	-0.286
-413.398	-200.000	-0.025	-0.269
-412.384	-109.623	0.186	-0.048
-411.369	522.909	0.187	0.550
-410.355	98.886	0.094	0.136
-409.340	-157.918	-0.548	0.040
-408.325	-94.604	0.516	0.174
-407.311	-150.473	0.286	0.027
-406.296	-200.000	-0.031	0.196
-405.282	286.723	-0.196	0.441
-404.267	-200.000	0.046	0.445
-403.252	-181.248	0.180	-0.004
-402.238	-40.640	-0.139	0.089
-401.223	-106.386	-0.387	0.107
-400.209	-153.182	-0.341	-0.029
-399.194	-34.427	0.315	0.214
-398.179	-53.060	0.098	-0.056
-397.165	254.890	-0.070	0.150
-396.150	-115.695	-0.508	-0.117
-395.136	-121.892	0.051	0.010
-394.121	712.854	-0.074	-0.246
-393.106	-93.901	-0.234	-0.079
-392.092	-26.980	-0.295	-0.214
-391.077	137.998	-0.171	0.279
-390.063	244.855	0.073	0.154
-389.048	42.785	0.129	-0.147
-388.033	-126.871	0.743	-0.135
-387.019	261.360	-0.215	0.464
-386.004	-82.568	-0.093	-0.037
-384.990	502.627	0.040	0.117
-383.975	273.112	0.201	-0.443
-382.960	-154.948	0.623	0.050
-381.946	73.639	-0.213	0.278
-380.931	-82.001	0.063	-0.026
-379.917	800.000	0.031	0.150
-378.902	-57.357	0.267	-0.145
-377.888	-110.365	0.614	0.157
-376.873	41.858	-0.377	0.425
-375.858	-8.590	-0.321	-0.268
-374.844	-64.068	0.419	-0.212
-373.829	121.717	0.250	0.388
-372.815	-200.000	-0.006	0.259
-371.800	-104.163	0.567	-0.163
-370.785	-111.558	0.303	0.076
-369.771	800.000	0.111	0.406
-368.756	263.148	0.128	0.277
-367.742	-29.553	0.325	-0.231
-366.727	233.906	-0.285	0.586
-365.712	-110.773	-0.463	-0.118
-364.698	800.000	0.065	0.338
-363.683	249.384	-0.099	-0.208
-362.669	99.452	-0.354	-0.510
-361.654	800.000	-0.153	0.554
-360.639	-180.972	-0.326	0.008
-359.625	-125.934	0.139	0.026
-358.610	-80.014	-0.055	0.023
-357.596	-39.175	0.401	0.261
-356.581	-85.769	0.235	0.090
-355.566	-200.000	0.009	0.298
-354.552	-87.256	-0.250	0.094
-353.537	-200.000	-0.009	0.062
-352.523	-139.833	0.298	-0.039
-351.508	-200.000	0.010	-0.114
-350.493	-200.000	0.007	-0.158
-349.479	21.905	0.431	0.436
-348.464	-97.851	0.430	0.137
-347.450	-200.000	0.030	0.198
-346.435	280.848	0.156	0.348
-345.420	-157.101	0.536	0.040
-344.406	-26.271	0.169	-0.123
-343.391	51.859	-0.087	0.103
-342.377	121.405	-0.102	0.158
-341.362	800.000	0.079	-0.349
-340.348	800.000	0.069	-0.352
-339.333	38.233	-0.151	0.167
-338.318	-32.889	-0.179	0.123
-337.304	-171.162	-0.425	-0.018
-336.289	351.553	-0.045	-0.111
-335.275	72.383	-0.205	-0.266
-334.260	-200.000	-0.005	-0.086
-333.245	-200.000	0.030	-0.348
-332.231	23.816	-0.059	-0.060
-331.216	-200.000	-0.033	0.198
-330.202	-150.834	-0.222	-0.021
-329.187	800.000	-0.066	-0.238
-328.172	-200.000	0.028	0.419
-327.158	-200.000	-0.024	-0.291
-326.143	-23.885	-0.209	0.155
-325.129	-49.880	-0.300	-0.176
-324.114	-22.132	0.304	-0.228
-323.099	136.170	-0.263	0.426
-322.085	303.088	0.169	-0.390
-321.070	-200.000	-0.119	0.000
-320.056	-111.865	0.051	0.013
-319.041	788.355	0.084	0.287
-318.026	-89.120	0.054	0.020
-317.012	263.377	0.250	-0.540
-315.997	-200.000	0.043	-0.348
-314.983	-174.196	0.285	-0.010
-313.968	31.768	-0.290	-0.310
-312.953	-30.709	-0.192	-0.135
-311.939	-32.450	-0.395	-0.273
-310.924	84.801	0.408	-0.555
-309.910	800.000	0.068	-0.236
-308.895	-2.284	-0.173	-0.150
-307.880	-105.331	0.296	-0.083
-306.866	-14.321	0.383	0.306
-305.851	110.645	-0.238	-0.356
-304.837	51.980	-0.142	0.168
-303.822	-191.981	0.554	0.007
-302.807	205.926	0.064	-0.123
-301.793	-92.160	0.126	0.044
-300.778	-60.506	0.457	-0.240
-299.764	-77.634	-0.273	-0.117
-298.749	503.834	0.122	-0.353
-297.735	-26.925	-0.224	-0.162
-296.720	41.914	0.063	-0.071
-295.705	-11.062	0.100	-0.081
-294.691	-171.128	0.357	-0.015
-293.676	160.102	-0.016	0.027
-292.662	758.048	-0.096	0.323
-291.647	-200.000	0.009	0.252
-290.632	-82.541	0.177	0.071
-289.618	-200.000	0.007	-0.045
-288.603	76.176	-0.231	-0.303
-287.589	136.603	0.275	-0.446
-286.574	535.726	-0.106	-0.312
-285.559	-200.000	0.005	0.097
-284.545	-80.192	-0.212	0.088
-283.530	-200.000	-0.090	0.513
-282.516	40.138	0.558	-0.621
-281.501	800.000	0.019	-0.070
-280.486	-147.223	-0.142	0.015
-279.472	-42.243	-0.090	-0.057
-278.457	224.960	0.164	-0.330
-277.443	-38.997	-0.101	0.066
-276.428	74.448	-0.050	0.065
-275.413	-200.000	-0.029	0.339
-274.399	-114.570	0.389	0.092
-273.384	-9.624	0.280	0.231
-272.370	-187.387	0.458	-0.007
-271.355	720.734	0.035	-0.115
-270.340	-70.610	0.522	-0.243
-269.326	-23.134	0.110	-0.082
-268.311	-6.671	-0.077	0.065
-267.297	546.115	0.008	0.024
-266.282	-200.000	-0.004	-0.392
-265.267	-200.000	-0.009	-0.132
-264.253	167.030	-0.061	-0.107
-263.238	-73.035	-0.030	0.014
-262.224	323.274	0.151	-0.358
-261.209	155.432	-0.036	-0.062
-260.195	800.000	-0.105	-0.496
-259.180	-20.309	-0.291	-0.221
-258.165	-126.976	-0.159	-0.029
-257.151	-200.000	0.179	-0.001
-256.136	161.146	0.323	-0.561
-255.122	99.612	0.215	-0.308
-254.107	308.973	0.068	-0.158
-253.092	132.837	-0.120	0.191
-252.078	-200.000	-0.024	-0.134
-251.063	10.469	0.241	-0.227
-250.049	-7.203	-0.482	0.404
-249.034	471.241	0.116	0.325
-248.019	57.353	-0.234	0.283
-247.005	-52.577	-0.171	0.097
-245.990	-19.190	-0.358	-0.274
-244.976	723.110	0.070	-0.233
-243.961	-135.453	-0.270	0.039
-242.946	10.931	-0.277	0.262
-241.932	-37.457	-0.168	-0.110
-240.917	-115.327	-0.303	0.070
-239.903	-20.172	-0.328	-0.250
-238.888	-120.487	-0.391	-0.081
-237.873	232.168	0.095	0.193
-236.859	361.485	0.185	-0.461
-235.844	-17.511	-0.229	-0.178
-234.830	-200.000	-0.027	-0.315
-233.815	-71.014	-0.060	0.028
-232.800	-97.928	0.098	-0.031
-231.786	-163.081	-0.119	-0.007
-230.771	-200.000	-0.015	-0.264
-229.757	317.143	0.212	0.499
-228.742	-47.093	-0.127	-0.077
-227.727	-200.000	-0.023	0.215
-226.713	-8.665	-0.188	0.156
-225.698	641.904	-0.119	0.377
-224.684	5.961	0.299	0.273
-223.669	41.765	0.057	-0.063
-222.655	-77.893	-0.304	-0.129
-221.640	154.321	-0.085	-0.144
-220.625	-109.904	0.219	-0.056
-219.611	-200.000	-0.081	-0.602
-218.596	800.000	-0.078	-0.283
-217.582	-42.203	0.168	-0.106
-216.567	-97.003	0.400	-0.129
-215.552	-79.909	-0.191	-0.079
-214.538	800.000	0.067	-0.326
-213.523	19.899	0.077	0.077
-212.509	32.533	0.387	0.413
-211.494	453.244	0.126	0.347
-210.479	-79.655	0.521	0.216
-209.465	-191.932	0.201	-0.002
-208.450	355.623	0.092	0.228
-207.436	-125.082	0.274	-0.051
-206.421	-189.782	0.197	-0.003
-205.406	474.316	-0.027	0.075
-204.392	-32.176	0.240	-0.165
-203.377	126.783	0.204	-0.320
-202.363	800.000	-0.068	-0.281
-201.348	16.151	-0.188	-0.183
-200.333	-149.296	0.440	0.043
-199.319	-10.073	-0.144	-0.118
-198.304	800.000	0.018	0.078
-197.290	-65.917	0.477	-0.235
-196.275	-5.180	0.108	0.092
-195.260	-14.957	0.182	0.144
-194.246	-114.549	0.422	0.099
-193.231	82.053	-0.396	-0.530
-192.217	-16.313	0.728	-0.569
-191.202	71.067	0.273	0.350
-190.187	610.735	-0.131	0.407
-189.173	800.000	-0.017	-0.065
-188.158	405.994	-0.058	-0.151
-187.144	-167.508	0.270	0.013
-186.129	2.034	0.193	0.172
-185.114	20.959	0.348	-0.349
-184.100	-36.502	0.169	0.112
-183.085	439.373	-0.097	0.263
-182.071	-1.309	-0.164	0.143
-181.056	-200.000	0.024	-0.205
-180.042	-127.803	-0.214	0.038
-179.027	-11.497	-0.325	-0.264
-178.012	-38.744	0.439	-0.285
-176.998	800.000	-0.114	0.488
-175.983	65.301	0.113	0.141
-174.969	49.436	-0.288	-0.335
-173.954	-101.064	-0.270	0.081
-172.939	15.172	-0.427	0.413
-171.925	-144.610	0.247	-0.028
-170.910	800.000	0.085	0.300
-169.896	485.012	0.065	0.184
-168.881	-125.377	0.227	0.042
-167.866	-68.658	0.326	-0.155
-166.852	74.011	-0.563	0.730
-165.837	-92.922	-0.559	-0.191
-164.823	800.000	0.076	-0.384
-163.808	-63.624	0.342	0.172
-162.793	14.579	-0.291	0.280
-161.779	123.453	0.134	0.207
-160.764	-200.000	-0.064	0.397
-159.750	-23.191	0.235	-0.174
-158.735	-72.473	0.317	-0.144
-157.720	-163.701	0.183	0.010
-156.706	-53.080	0.105	0.059
-155.691	167.037	-0.085	0.149
-154.677	72.194	0.120	0.154
-153.662	173.835	-0.076	0.135
-152.647	-32.834	0.109	0.074
-151.633	-65.059	0.306	-0.151
-150.618	40.865	0.097	0.107
-149.604	218.192	-0.198	-0.390
-148.589	-128.025	-0.477	0.083
-147.574	457.967	0.087	0.238
-146.560	-120.210	0.369	-0.077
-145.545	-200.000	-0.022	-0.196
-144.531	-34.836	0.294	-0.198
-143.516	-66.258	-0.039	-0.019
-142.502	-19.966	0.036	0.027
-141.487	-71.851	0.211	-0.096
-140.472	79.643	0.253	0.335
-139.458	-200.000	0.027	-0.641
-138.443	800.000	0.115	-0.468
-137.429	630.562	-0.058	0.182
-136.414	-200.000	0.017	0.110
-135.399	-40.179	-0.361	0.231
-134.385	354.826	0.069	0.170
-133.370	80.689	0.152	-0.202
-132.356	54.026	0.018	0.021
-131.341	-110.196	-0.199	0.051
-130.326	291.720	0.104	-0.235
-129.312	-151.052	0.273	0.025
-128.297	-179.491	0.278	0.007
-127.283	9.267	0.305	-0.284
-126.268	740.218	-0.090	-0.300
-125.253	-121.144	-0.238	-0.049
-124.239	-200.000	-0.048	-0.350
-123.224	210.091	0.195	-0.378
-122.210	-126.715	0.198	0.036
-121.195	-88.533	0.094	-0.034
-120.180	-51.072	-0.388	0.223
-119.166	-49.750	-0.257	0.150
-118.151	304.986	-0.141	0.325
-117.137	-200.000	-0.012	0.106
-116.122	579.195	-0.104	0.316
-115.107	-200.000	0.026	-0.230
-114.093	-46.101	-0.546	-0.330
-113.078	35.797	-0.255	0.276
-112.064	-46.482	-0.190	-0.114
-111.049	-200.000	0.052	0.337
-110.034	142.370	-0.318	-0.520
-109.020	-108.871	-0.259	-0.068
-108.005	-200.000	0.038	0.220
-106.991	-71.425	0.385	0.177
-105.976	52.494	-0.112	-0.132
-104.962	124.805	0.237	-0.369
-103.947	55.635	-0.196	-0.234
-102.932	128.969	-0.254	0.399
-101.918	-66.573	0.529	-0.257
-100.903	-200.000	-0.016	-0.330
-99.889	-200.000	0.023	-0.660
-98.874	-99.776	0.056	0.017
-97.859	-196.126	0.184	-0.002
-96.845	800.000	0.079	0.362
-95.830	-79.370	-0.352	0.146
-94.816	-200.000	0.071	-0.596
-93.801	-200.000	0.032	-0.478
-92.786	-18.565	-0.053	-0.041
-91.772	252.697	-0.026	0.055
-90.757	-200.000	-0.065	0.545
-89.743	-59.477	-0.080	-0.042
-88.728	-103.589	0.106	0.030
-87.713	-18.194	0.320	-0.246
-86.699	-16.705	0.261	-0.203
-85.684	-200.000	-0.042	0.302
-84.670	-85.269	-0.492	0.188
-83.655	118.223	0.348	-0.528
-82.640	278.983	0.071	0.156
-81.626	-44.017	-0.323	-0.199
-80.611	-149.196	-0.277	-0.027
-79.597	-200.000	0.028	-0.160
-78.582	-100.831	-0.419	-0.126
-77.567	-200.000	-0.310	0.002
-76.553	-68.022	-0.168	-0.080
-75.538	197.830	0.147	-0.277
-74.524	-125.455	0.406	0.075
-73.509	379.191	0.117	0.296
-72.494	277.873	-0.039	0.086
-71.480	18.073	0.010	0.010
-70.465	103.452	-0.166	0.239
-69.451	-92.147	-0.510	-0.176
-68.436	800.000	0.113	-0.441
-67.422	-118.999	-0.214	-0.046
-66.407	-200.000	-0.008	-0.076
-65.392	-144.957	-0.531	0.059
-64.378	-17.948	0.278	0.214
-63.363	-25.674	-0.058	-0.042
-62.349	120.966	-0.109	0.167
-61.334	-37.360	-0.866	-0.567
-60.319	-165.676	0.546	-0.029
-59.305	306.719	-2.319	-5.324
-58.290	2.273	2.672	2.370
-57.276	434.130	3.835	10.278
-56.261	-200.000	11.298	188.192
-55.246	568.322	1069.358	3207.017
-54.232	76.721	2694.963	3514.009
-53.217	80.144	2657.884	3513.729
-52.203	92.156	2397.584	3320.086
-51.188	40.021	2046.217	2257.325
-50.173	41.470	1909.408	2121.827
-49.159	39.640	1898.423	2090.061
-48.144	39.156	1894.866	2080.913
-47.130	38.941	1893.042	2076.536
-46.115	38.751	1891.246	2072.469
-45.100	38.862	1888.517	2070.578
-44.086	38.826	1887.966	2069.501
-43.071	38.892	1885.965	2067.925
-42.057	38.588	1885.689	2064.325
-41.042	38.878	1883.510	2064.924
-40.027	38.859	1882.612	2063.656
-39.013	38.837	1880.990	2061.564
-37.998	38.677	1879.890	2058.593
-36.984	38.766	1879.086	2058.567
-35.969	38.640	1877.650	2055.579
-34.954	38.548	1875.898	2052.616
-33.940	38.611	1875.293	2052.533
-32.925	38.644	1873.801	2051.164
-31.911	38.714	1872.128	2049.990
-30.896	38.685	1870.822	2048.174
-29.881	38.747	1869.337	2047.115
-28.867	38.592	1867.925	2043.867
-27.852	38.499	1867.580	2042.429
-26.838	38.558	1865.022	2040.167
-25.823	38.446	1864.632	2038.487
-24.809	38.571	1862.781	2037.697
-23.794	38.413	1862.331	2035.464
-22.779	38.531	1860.700	2034.837
-21.765	38.470	1859.694	2033.016
-20.750	38.611	1857.598	2032.112
-19.736	38.427	1858.124	2030.694
-18.721	38.505	1855.451	2028.501
-17.706	38.508	1854.313	2027.207
-16.692	38.278	1854.542	2024.980
-15.677	38.366	1853.155	2024.308
-14.663	38.410	1851.313	2022.666
-13.648	38.329	1849.970	2020.283
-12.633	38.487	1848.277	2019.995
-11.619	38.389	1847.279	2017.809
-10.604	38.329	1846.323	2016.056
-9.590	38.316	1845.491	2014.937
-8.575	38.334	1843.993	2013.408
-7.560	38.349	1842.994	2012.394
-6.546	38.301	1841.536	2010.228
-5.531	38.351	1840.500	2009.527
-4.517	38.331	1839.164	2007.779
-3.502	38.351	1839.098	2007.840
-2.487	38.319	1838.437	2006.703
-1.473	38.396	1835.115	2003.793
-0.458	38.756	1814.784	1985.184
0.556	34.541	1939.186	2063.171
1.571	33.135	2152.380	2272.737
2.586	35.041	2202.040	2348.428
3.600	35.271	2205.150	2354.313
4.615	35.587	2206.131	2358.975
5.629	35.390	2203.766	2353.732
6.644	35.481	2202.128	2352.827
7.659	35.565	2200.677	2352.028
8.673	35.873	2199.529	2354.305
9.688	35.079	2202.632	2347.565
10.702	30.553	2262.697	2353.836
11.717	26.284	2323.348	2360.713
12.731	13.944	2290.289	2166.071
13.746	2.392	2260.984	1987.906
14.761	0.621	2255.844	1960.063
15.775	0.380	2254.154	1955.218
16.790	0.315	2252.382	1952.599
17.804	0.235	2251.371	1950.441
18.819	0.288	2249.350	1949.153
19.834	0.331	2247.875	1948.195
20.848	0.283	2246.913	1946.511
21.863	0.218	2245.779	1944.450
22.877	0.376	2243.378	1944.185
23.892	0.206	2242.265	1940.786
24.907	0.347	2238.677	1939.276
25.921	0.289	2236.996	1936.834
26.936	0.255	2235.229	1934.632
27.950	0.261	2233.184	1932.703
28.965	0.196	2231.079	1929.818
29.980	0.350	2229.295	1930.022
30.994	0.505	2227.551	1930.276
32.009	6.998	2250.269	2033.856
33.023	23.452	2299.488	2293.823
34.038	32.716	2320.943	2435.909
35.053	34.760	2321.534	2462.754
36.067	34.679	2318.454	2458.146
37.082	33.857	2314.652	2443.206
38.096	33.503	2312.477	2436.033
39.111	34.221	2311.105	2443.565
40.126	34.923	2312.227	2453.513
41.140	36.212	2314.555	2472.318
42.155	35.480	2308.908	2456.574
43.169	35.027	2306.868	2448.286
44.184	35.488	2305.682	2452.663
45.199	35.368	2303.309	2448.303
46.213	34.948	2301.573	2440.774
47.228	34.797	2300.521	2437.441
48.242	35.107	2297.890	2438.324
49.257	35.243	2297.243	2439.088
50.271	35.522	2296.483	2441.553
51.286	35.450	2293.537	2437.214
52.301	34.947	2289.975	2426.726
53.315	34.633	2289.091	2421.486
54.330	34.089	2285.183	2410.141
55.344	32.611	2278.324	2383.845
56.359	32.572	2273.673	2378.195
57.374	32.135	2271.139	2369.717
58.388	31.760	2268.030	2361.434
59.403	32.190	2266.763	2365.282
60.417	33.118	2266.490	2376.443
61.432	33.465	2266.100	2380.136
62.447	32.935	2262.993	2369.898
63.461	32.511	2259.348	2360.461
64.476	32.084	2255.867	2351.165
65.490	33.263	2258.266	2368.233
66.505	34.665	2262.037	2389.556
67.520	35.045	2261.325	2393.292
68.534	32.967	2252.704	2357.837
69.549	32.139	2246.585	2340.777
70.563	32.511	2246.429	2344.991
71.578	32.872	2245.998	2348.778
72.593	33.536	2245.657	2356.448
73.607	34.308	2246.030	2366.193
74.622	34.094	2244.397	2361.521
75.636	33.325	2238.230	2345.186
76.651	33.244	2237.545	2343.174
77.666	33.445	2235.799	2343.562
78.680	33.271	2233.017	2338.205
79.695	33.620	2231.852	2341.033
80.709	33.689	2231.014	2340.734
81.724	33.690	2229.259	2338.623
82.739	33.870	2227.863	2339.107
83.753	33.998	2224.706	2337.101
84.768	33.586	2222.700	2329.618
85.782	33.151	2220.405	2321.575
86.797	33.088	2218.801	2318.843
87.812	32.855	2215.542	2312.285
88.826	32.390	2212.668	2303.288
89.841	32.543	2211.025	2303.183
90.855	33.277	2210.062	2310.916
91.870	32.608	2206.131	2298.331
92.884	32.096	2205.448	2291.068
93.899	32.689	2204.987	2297.584
94.914	32.532	2204.236	2294.601
95.928	32.377	2203.552	2291.719
96.943	32.285	2200.507	2287.153
97.957	32.247	2198.423	2284.253
98.972	32.286	2195.297	2281.205
99.987	31.618	2191.320	2268.667
101.001	31.921	2189.240	2269.930
102.016	32.098	2188.180	2270.700
103.030	32.234	2186.355	2270.186
104.045	32.889	2186.314	2277.828
105.060	33.866	2187.396	2290.534
106.074	33.863	2184.565	2287.252
107.089	32.915	2180.605	2271.378
108.103	32.924	2181.374	2272.017
109.118	33.712	2181.216	2281.098
110.133	33.698	2178.276	2277.589
111.147	33.435	2174.568	2270.268
112.162	33.157	2174.605	2266.683
113.176	33.321	2172.687	2266.394
114.191	33.243	2170.260	2262.650
115.206	33.249	2167.712	2259.792
116.220	33.431	2166.517	2260.458
117.235	32.936	2163.841	2251.463
118.249	32.642	2161.035	2244.761
119.264	33.104	2160.290	2249.248
120.279	33.563	2161.774	2256.009
121.293	33.486	2158.296	2251.193
122.308	33.108	2156.167	2244.197
123.322	32.669	2154.319	2236.766
124.337	32.452	2153.361	2232.914
125.352	33.244	2154.825	2243.612
126.366	34.255	2155.837	2256.446
127.381	33.569	2149.418	2241.302
128.395	32.879	2145.121	2228.378
129.410	33.094	2144.300	2229.808
130.424	33.195	2143.814	2230.226
131.439	33.030	2141.062	2225.141
132.454	32.626	2138.334	2217.262
133.468	32.637	2136.634	2215.365
134.483	32.846	2134.982	2215.864
135.497	32.768	2133.674	2213.319
136.512	33.403	2132.497	2219.309
137.527	33.214	2130.281	2214.515
138.541	32.688	2128.727	2206.446
139.556	32.424	2127.158	2201.455
140.570	32.534	2125.147	2200.402
141.585	32.839	2124.131	2202.664
142.600	33.056	2123.751	2204.548
143.614	32.888	2122.424	2200.939
144.629	33.458	2121.821	2206.730
145.643	32.891	2118.359	2196.233
146.658	32.503	2114.654	2187.600
147.673	32.062	2112.475	2179.938
148.687	32.692	2112.379	2186.928
149.702	32.826	2112.334	2188.181
150.716	32.775	2111.021	2185.967
151.731	33.057	2110.007	2187.943
152.746	33.246	2110.913	2190.813
153.760	32.481	2107.051	2177.658
154.775	31.463	2104.620	2163.048
155.789	31.216	2101.335	2156.551
156.804	31.244	2098.186	2153.387
157.819	31.569	2095.909	2154.548
158.833	32.177	2094.797	2160.179
159.848	32.913	2095.456	2169.111
160.862	33.566	2094.675	2175.568
161.877	33.703	2094.575	2176.793
162.892	34.066	2094.079	2180.195
163.906	34.285	2093.463	2181.811
164.921	34.332	2091.874	2180.433
165.935	34.371	2090.054	2178.722
166.950	33.968	2086.468	2170.109
167.964	33.337	2083.352	2159.368
168.979	33.098	2081.521	2154.476
169.994	33.443	2080.803	2157.422
171.008	33.440	2079.218	2155.493
172.023	33.277	2076.698	2150.756
173.037	33.632	2077.900	2155.801
174.052	34.027	2076.438	2158.537
175.067	33.566	2074.943	2151.472
176.081	33.287	2071.474	2144.436
177.096	33.050	2069.349	2139.278
178.110	32.735	2067.597	2133.634
179.125	32.639	2066.820	2131.482
180.140	33.347	2066.351	2138.792
181.154	33.320	2065.215	2137.053
182.169	32.919	2062.444	2129.388
183.183	32.902	2061.605	2128.070
184.198	32.843	2059.823	2125.311
185.213	32.254	2057.249	2115.729
186.227	32.847	2057.119	2122.057
187.242	32.854	2055.274	2119.973
188.256	32.860	2053.753	2118.217
189.271	33.572	2053.963	2126.209
190.286	34.051	2053.276	2130.646
191.300	33.165	2048.439	2115.405
192.315	32.671	2046.065	2107.156
193.329	33.252	2046.081	2113.447
194.344	34.244	2047.754	2126.064
195.359	34.524	2047.199	2128.370
196.373	34.649	2044.894	2127.123
197.388	34.366	2041.833	2120.515
198.402	33.803	2037.895	2109.890
199.417	33.624	2035.924	2105.599
200.432	33.960	2035.082	2108.215
201.446	34.109	2034.393	2108.913
202.461	33.569	2031.562	2099.719
203.475	32.827	2028.361	2087.904
204.490	32.551	2025.226	2081.366
205.504	32.787	2022.584	2081.016
206.519	32.424	2021.840	2075.979
207.534	32.529	2021.039	2076.071
208.548	32.822	2019.936	2077.938
209.563	32.159	2016.116	2066.431
210.577	31.859	2014.144	2060.851
211.592	32.886	2016.196	2074.052
212.607	32.518	2013.566	2067.037
213.621	30.614	2008.509	2040.613
214.636	30.513	2007.639	2038.373
215.650	31.551	2007.389	2049.317
216.665	32.116	2007.373	2055.272
217.680	33.033	2008.709	2066.484
218.694	33.487	2008.045	2070.535
219.709	33.000	2005.101	2061.912
220.723	33.595	2004.768	2067.847
221.738	34.140	2004.640	2073.438
222.753	33.952	2001.707	2068.103
223.767	33.493	1999.422	2060.475
224.782	33.059	1997.004	2053.003
225.796	32.895	1995.667	2049.587
226.811	33.786	1994.899	2058.265
227.826	34.072	1994.289	2060.513
228.840	34.283	1993.722	2061.968
229.855	33.797	1991.492	2054.138
230.869	32.862	1986.964	2039.071
231.884	32.484	1984.727	2032.425
232.899	32.764	1985.078	2035.588
233.913	33.174	1984.958	2039.660
234.928	33.635	1985.082	2044.539
235.942	33.933	1983.665	2046.067
236.957	33.894	1981.536	2043.202
237.972	33.847	1981.084	2041.988
238.986	34.137	1980.739	2044.514
240.001	33.574	1976.706	2034.045
241.015	32.978	1975.376	2026.005
242.030	33.261	1975.834	2029.282
243.045	33.674	1974.199	2031.801
244.059	33.607	1972.811	2029.419
245.074	33.716	1969.869	2027.317
246.088	33.260	1966.531	2018.748
247.103	33.299	1965.118	2017.479
248.117	33.535	1964.745	2019.380
249.132	33.597	1963.409	2018.429
250.147	33.324	1960.283	2012.057
251.161	32.873	1958.036	2004.691
252.176	33.187	1956.157	2005.875
253.190	33.146	1954.294	2003.293
254.205	33.081	1952.243	2000.259
255.220	33.551	1951.737	2004.493
256.234	33.407	1951.451	2002.436
257.249	33.019	1949.777	1996.359
258.263	32.995	1949.995	1996.087
259.278	33.477	1949.556	2000.512
260.293	33.585	1947.268	1999.064
261.307	33.161	1945.212	1992.232
262.322	32.962	1943.271	1987.895
263.336	32.547	1939.578	1979.504
264.351	32.156	1936.830	1972.329
265.366	32.196	1937.100	1972.794
266.380	32.678	1936.601	1977.138
267.395	32.161	1933.600	1968.384
268.409	31.799	1931.750	1962.462
269.424	32.172	1930.925	1965.311
270.439	32.645	1930.886	1970.011
271.453	32.758	1929.202	1969.237
272.468	32.170	1926.601	1960.180
273.482	31.644	1924.079	1951.870
274.497	31.678	1921.127	1949.003
275.512	32.131	1920.040	1952.401
276.526	32.296	1918.283	1952.097
277.541	32.300	1916.641	1950.242
278.555	32.315	1915.931	1949.438
279.570	31.963	1912.353	1941.901
280.585	31.472	1910.288	1934.470
281.599	32.055	1910.974	1940.996
282.614	32.871	1911.805	1950.083
283.628	33.980	1912.388	1961.961
284.643	34.327	1912.554	1965.497
285.657	34.543	1911.724	1966.645
286.672	34.437	1909.400	1962.918
287.687	33.800	1906.393	1953.006
288.701	33.320	1904.271	1945.643
289.716	33.100	1902.546	1941.377
290.730	33.294	1901.757	1942.340
291.745	33.549	1900.595	1943.554
292.760	33.294	1898.038	1938.078
293.774	32.902	1897.538	1933.302
294.789	33.693	1898.126	1941.811
295.803	33.823	1895.910	1940.642
296.818	33.302	1894.048	1933.160
297.833	33.400	1893.550	1933.431
298.847	33.836	1893.683	1937.800
299.862	34.182	1891.090	1938.458
300.876	33.953	1889.741	1934.499
301.891	33.792	1887.101	1929.926
302.906	33.002	1885.603	1920.098
303.920	33.785	1886.253	1928.525
304.935	33.981	1884.669	1928.673
305.949	33.873	1881.791	1924.394
306.964	34.049	1881.145	1925.300
307.979	33.857	1877.990	1919.890
308.993	32.590	1873.683	1902.409
310.008	32.541	1872.986	1900.970
311.022	33.314	1872.943	1908.536
312.037	33.791	1871.665	1911.835
313.052	33.564	1869.161	1906.753
314.066	32.858	1866.827	1897.017
315.081	33.012	1866.461	1897.977
316.095	33.173	1866.016	1898.915
317.110	33.063	1864.253	1895.790
318.125	33.027	1861.825	1892.726
319.139	32.759	1860.612	1888.568
320.154	33.148	1859.958	1891.590
321.168	33.221	1859.040	1891.167
322.183	33.661	1858.581	1894.889
323.197	33.429	1857.491	1891.231
324.212	33.057	1854.278	1884.008
325.227	32.507	1851.474	1875.419
326.241	32.464	1849.615	1872.885
327.256	32.643	1848.064	1872.879
328.270	32.534	1848.011	1871.517
329.285	32.579	1848.216	1871.946
330.300	32.854	1847.494	1873.736
331.314	31.895	1844.441	1860.858
332.329	31.600	1842.671	1855.904
333.343	32.389	1842.290	1863.155
334.358	33.342	1841.594	1871.712
335.373	33.506	1840.791	1872.295
336.387	33.404	1838.070	1868.294
337.402	33.387	1836.222	1866.020
338.416	32.999	1834.095	1859.800
339.431	32.824	1833.792	1857.539
340.446	33.872	1834.156	1868.046
341.460	34.079	1832.894	1868.590
342.475	34.383	1831.449	1869.885
343.489	33.541	1828.206	1858.058
344.504	33.026	1826.204	1850.736
345.519	33.226	1824.350	1850.602
346.533	33.335	1822.575	1849.652
347.548	33.168	1822.494	1847.703
348.562	33.113	1821.183	1845.616
349.577	33.200	1821.002	1846.067
350.592	33.565	1820.070	1848.480
351.606	33.806	1818.664	1849.182
352.621	33.605	1816.809	1845.111
353.635	33.498	1815.369	1842.385
354.650	33.191	1813.174	1836.935
355.665	32.770	1810.469	1829.872
356.679	32.898	1810.256	1830.688
357.694	33.246	1809.291	1832.879
358.708	33.493	1809.060	1834.837
359.723	33.654	1807.795	1834.897
360.738	32.387	1804.065	1818.590
361.752	31.960	1803.283	1813.435
362.767	33.081	1802.139	1822.944
363.781	33.694	1801.557	1828.074
364.796	34.212	1800.922	1832.227
365.810	33.298	1798.237	1820.442
366.825	32.793	1795.384	1812.460
367.840	32.818	1795.294	1812.391
368.854	32.484	1793.307	1806.953
369.869	32.461	1792.062	1805.254
370.883	32.639	1790.188	1804.869
371.898	32.696	1789.208	1804.209
372.913	33.323	1788.918	1809.732
373.927	33.186	1787.320	1806.579
374.942	32.948	1786.314	1803.066
375.956	33.024	1784.688	1801.940
376.971	32.709	1781.441	1795.423
377.986	32.675	1781.101	1794.549
379.000	33.233	1781.109	1799.673
380.015	33.595	1779.893	1801.691
381.029	33.334	1778.021	1797.090
382.044	33.178	1776.119	1793.463
383.059	33.018	1774.360	1789.950
384.073	32.437	1772.160	1781.991
385.088	32.395	1771.335	1780.551
386.102	32.882	1771.744	1785.378
387.117	33.282	1770.275	1787.484
388.132	33.247	1770.237	1786.894
389.146	32.935	1768.512	1781.982
390.161	32.034	1763.702	1768.398
391.175	31.914	1760.963	1764.302
392.190	32.421	1758.580	1766.492
393.205	32.112	1757.263	1762.037
394.219	32.448	1756.333	1764.062
395.234	32.491	1755.899	1763.821
396.248	32.592	1754.258	1762.910
397.263	32.452	1751.523	1758.642
398.278	32.073	1748.649	1751.984
399.292	32.194	1749.129	1753.397
400.307	33.405	1751.700	1767.125
401.321	33.871	1751.159	1770.734
402.336	33.604	1748.765	1765.608
403.350	33.322	1746.648	1760.622
404.365	33.696	1746.913	1764.171
405.380	34.609	1745.988	1771.549
406.394	34.193	1744.259	1765.704
407.409	33.670	1742.025	1758.367
408.423	33.305	1739.490	1752.200
409.438	33.097	1737.802	1748.355
410.453	32.912	1738.010	1746.632
411.467	33.436	1737.442	1750.727
412.482	33.427	1735.540	1748.517
413.496	33.521	1734.768	1748.395
414.511	33.519	1733.177	1746.566
415.526	33.547	1730.129	1743.543
416.540	33.837	1730.145	1746.037
417.555	33.720	1728.863	1743.452
418.569	33.211	1728.108	1737.778
419.584	33.780	1728.828	1743.549
420.599	33.816	1726.487	1741.314
421.613	32.843	1723.896	1729.535
422.628	32.713	1723.436	1727.669
423.642	34.021	1724.129	1740.195
424.657	34.145	1722.277	1739.254
425.672	33.149	1718.918	1726.521
426.686	33.314	1717.649	1726.552
427.701	33.115	1716.100	1722.969
428.715	33.230	1715.605	1723.317
429.730	33.912	1715.143	1728.882
430.745	34.861	1716.538	1738.762
431.759	35.414	1716.621	1743.697
432.774	35.003	1714.870	1737.957
433.788	32.668	1707.598	1709.123
434.803	29.835	1702.502	1678.035
435.818	28.940	1699.993	1667.210
436.832	28.639	1698.447	1662.751
437.847	27.798	1691.981	1648.593
438.861	18.429	1664.215	1537.262
439.876	4.415	1638.012	1387.690
440.890	0.730	1630.860	1348.464
441.905	0.557	1628.607	1344.897
442.920	0.349	1628.456	1342.743
443.934	0.263	1628.069	1341.498
444.949	0.225	1626.173	1339.433
445.963	0.330	1625.497	1339.653
446.978	0.180	1625.189	1337.901
447.993	0.238	1624.005	1337.284
449.007	0.223	1621.550	1334.970
450.022	0.355	1619.201	1334.049
451.036	0.246	1617.875	1331.832
452.051	1.484	1624.611	1348.255
453.066	13.661	1653.632	1482.165
454.080	27.875	1676.235	1630.811
455.095	30.927	1681.955	1663.618
456.109	33.052	1686.383	1686.894
457.124	34.485	1687.126	1700.285
458.139	33.391	1682.828	1685.973
459.153	32.386	1680.822	1674.774
460.168	32.305	1679.316	1672.348
461.182	33.300	1680.390	1682.107
462.197	34.588	1680.632	1693.646
463.212	35.042	1679.280	1696.128
464.226	35.244	1679.441	1697.889
465.241	35.612	1679.204	1700.715
466.255	35.726	1678.612	1700.927
467.270	35.633	1677.534	1698.806
468.285	35.964	1676.884	1700.884
469.299	36.467	1676.906	1705.166
470.314	36.502	1675.214	1703.554
471.328	36.426	1673.264	1700.696
472.343	36.428	1672.885	1700.126
473.358	36.566	1670.664	1698.881
474.372	36.475	1669.920	1697.121
475.387	37.113	1669.943	1702.572
476.401	37.299	1668.021	1702.043
477.416	36.572	1666.670	1694.063
478.430	36.857	1667.034	1696.742
479.445	37.501	1665.937	1701.080
480.460	37.327	1664.653	1698.042
481.474	37.247	1664.089	1696.554
482.489	37.397	1662.909	1696.466
483.503	36.992	1659.334	1689.074
484.518	36.180	1656.967	1679.356
485.533	36.892	1657.506	1685.933
486.547	37.119	1655.176	1685.340
487.562	36.238	1653.055	1675.292
488.576	36.799	1653.113	1680.047
489.591	37.758	1652.835	1687.919
490.606	37.925	1652.238	1688.567
491.620	37.986	1650.509	1687.129
492.635	37.774	1647.351	1681.852
493.649	36.449	1643.958	1666.705
494.664	35.673	1642.748	1658.554
495.679	36.110	1641.910	1661.296
496.693	36.376	1640.675	1662.150
497.708	36.446	1640.137	1662.010
498.722	36.346	1638.946	1659.742
499.737	36.576	1638.008	1660.584
500.752	36.751	1636.986	1660.858
501.766	36.894	1636.201	1661.091
502.781	36.745	1634.575	1657.958
503.795	36.905	1633.013	1657.554
504.810	36.703	1631.435	1654.017
505.825	36.399	1630.030	1649.788
506.839	36.017	1628.389	1644.653
507.854	35.955	1627.225	1642.744
508.868	35.817	1624.834	1638.955
509.883	35.123	1621.742	1629.706
510.898	34.196	1618.793	1618.630
511.912	33.301	1614.796	1606.800
512.927	32.606	1612.860	1598.760
513.941	32.496	1610.834	1595.627
514.956	33.097	1611.519	1601.234
515.971	34.129	1611.605	1609.906
516.985	33.646	1608.787	1602.796
518.000	32.637	1607.624	1592.881
519.014	32.589	1606.207	1590.878
520.029	32.510	1604.461	1588.286
521.043	32.482	1603.175	1586.591
522.058	32.724	1602.405	1587.687
523.073	32.986	1601.888	1589.197
524.087	33.039	1602.134	1589.696
525.102	33.964	1603.028	1598.215
526.116	35.283	1603.658	1609.800
527.131	35.851	1603.562	1614.302
528.146	35.923	1602.536	1613.680
529.160	36.145	1601.834	1614.651
530.175	36.641	1601.389	1618.178
531.189	36.465	1600.717	1615.826
532.204	36.252	1598.538	1611.648
533.219	36.309	1597.136	1610.519
534.233	36.421	1596.815	1610.938
535.248	35.986	1594.475	1604.742
536.262	35.401	1592.771	1597.944
537.277	36.035	1593.182	1603.471
538.292	37.044	1593.601	1612.138
539.306	37.436	1592.213	1613.809
540.321	36.871	1588.796	1605.452
541.335	35.960	1587.775	1596.640
542.350	36.378	1586.981	1599.132
543.365	36.772	1585.399	1600.616
544.379	36.790	1584.338	1599.500
545.394	36.667	1582.489	1596.426
546.408	36.093	1581.045	1590.017
547.423	36.383	1580.700	1591.889
548.438	36.839	1580.664	1595.434
549.452	36.885	1578.752	1593.693
550.467	36.440	1576.517	1587.575
551.481	36.346	1575.503	1585.589
552.496	36.075	1573.678	1581.325
553.511	35.659	1571.946	1575.971
554.525	35.912	1570.879	1576.793
555.540	35.661	1569.517	1573.173
556.554	35.629	1568.740	1571.944
557.569	35.642	1566.994	1570.108
558.583	35.249	1565.328	1565.025
559.598	35.323	1564.654	1564.779
560.613	35.502	1562.793	1564.189
561.627	34.924	1560.867	1557.346
562.642	34.555	1557.639	1550.927
563.656	33.226	1554.874	1537.142
564.671	32.591	1552.150	1529.090
565.686	32.519	1550.275	1526.469
566.700	32.481	1549.184	1524.903
567.715	32.307	1547.941	1522.080
568.729	32.513	1547.620	1523.260
569.744	33.403	1547.443	1530.137
570.759	33.636	1546.110	1530.526
571.773	33.103	1543.989	1523.925
572.788	32.580	1542.548	1518.080
573.802	32.392	1540.430	1514.293
574.817	32.193	1538.482	1510.591
575.832	32.307	1538.307	1511.161
576.846	33.591	1539.681	1522.705
577.861	34.925	1540.420	1534.016
578.875	34.926	1539.505	1532.928
579.890	34.656	1539.290	1530.354
580.905	34.939	1539.199	1532.356
581.919	35.111	1537.689	1532.055
582.934	35.152	1536.336	1530.855
583.948	34.792	1534.856	1526.303
584.963	34.739	1533.647	1524.497
585.978	35.189	1533.000	1527.277
586.992	34.634	1530.977	1520.637
588.007	34.416	1529.949	1517.691
589.021	34.802	1528.246	1518.899
590.036	34.228	1526.171	1512.079
591.051	34.374	1526.774	1513.660
592.065	34.764	1525.032	1514.858
593.080	34.778	1523.641	1513.407
594.094	35.343	1523.478	1517.558
595.109	35.516	1522.444	1517.723
596.123	36.325	1522.779	1524.303
597.138	36.608	1520.722	1524.302
598.153	35.636	1518.476	1514.175
599.167	35.182	1516.448	1508.383
600.182	34.878	1515.412	1504.765
601.196	34.959	1514.696	1504.516
602.211	35.373	1513.674	1506.592
603.226	34.421	1511.458	1496.698
604.240	34.565	1510.469	1496.667
605.255	34.936	1508.392	1497.353
606.269	34.514	1508.051	1493.516
607.284	34.616	1507.074	1493.170
608.299	34.455	1504.572	1489.252
609.313	34.488	1503.519	1488.289
610.328	34.399	1501.804	1485.718
611.342	33.980	1500.600	1481.066
612.357	33.645	1499.791	1477.464
613.372	33.721	1498.094	1476.215
614.386	33.471	1496.763	1472.772
615.401	33.262	1495.518	1469.740
616.415	33.058	1493.986	1466.466
617.430	32.414	1491.555	1458.892
618.445	31.797	1490.033	1452.420
619.459	31.772	1489.138	1451.175
620.474	32.027	1488.225	1452.101
621.488	32.880	1488.467	1458.795
622.503	34.176	1489.061	1469.264
623.518	33.073	1485.632	1457.160
624.532	31.720	1483.401	1444.316
625.547	31.574	1482.223	1441.866
626.561	31.487	1480.484	1439.331
627.576	31.457	1479.229	1437.710
628.591	31.915	1479.845	1441.672
629.605	32.335	1479.829	1444.727
630.620	32.974	1480.082	1449.740
631.634	34.236	1480.728	1459.933
632.649	34.092	1478.660	1456.605
633.663	33.231	1474.727	1445.950
634.678	32.183	1472.385	1435.437
635.693	31.521	1470.350	1428.199
636.707	31.385	1467.988	1424.692
637.722	31.314	1467.418	1423.424
638.736	31.955	1467.299	1428.043
639.751	32.575	1467.485	1432.799
640.766	32.843	1466.779	1433.985
641.780	32.781	1465.056	1431.656
642.795	33.102	1465.068	1433.946
643.809	33.478	1464.596	1436.174
644.824	33.340	1464.610	1434.964
645.839	33.975	1464.503	1439.528
646.853	33.895	1462.524	1436.801
647.868	33.776	1461.253	1434.473
648.882	33.902	1460.139	1434.168
649.897	33.966	1458.995	1433.357
650.912	33.711	1457.351	1429.635
651.926	33.677	1456.702	1428.572
652.941	33.789	1455.431	1428.002
653.955	33.679	1453.402	1425.014
654.970	33.197	1450.408	1418.271
655.985	32.755	1447.717	1412.145
656.999	32.080	1445.625	1404.863
658.014	31.988	1445.698	1404.071
659.028	32.475	1445.293	1407.171
660.043	33.353	1446.552	1414.830
661.058	33.801	1445.671	1417.155
662.072	33.533	1443.876	1413.225
663.087	33.569	1443.474	1412.929
664.101	33.494	1442.438	1411.186
665.116	33.497	1441.031	1409.663
666.131	33.413	1440.070	1407.927
667.145	33.549	1439.263	1407.985
668.160	33.421	1437.061	1404.706
669.174	32.952	1434.725	1398.765
670.189	32.926	1433.895	1397.591
671.204	33.409	1433.787	1400.909
672.218	33.285	1433.288	1399.338
673.233	33.066	1432.009	1396.293
674.247	32.886	1428.803	1391.664
675.262	32.430	1427.879	1387.223
676.276	32.381	1426.766	1385.609
677.291	32.618	1427.758	1388.165
678.306	33.539	1426.891	1393.970
679.320	33.408	1424.439	1390.441
680.335	32.365	1423.645	1381.800
681.349	32.366	1422.514	1380.543
682.364	32.355	1421.837	1379.644
683.379	32.102	1419.946	1375.774
684.393	32.044	1417.394	1372.718
685.408	32.050	1415.716	1370.967
686.422	31.972	1415.519	1370.038
687.437	31.657	1414.698	1366.772
688.452	31.079	1412.978	1360.708
689.466	31.109	1410.788	1358.658
690.481	31.115	1409.738	1357.526
691.495	31.466	1410.518	1360.685
692.510	32.604	1412.342	1370.605
693.525	34.011	1412.327	1380.707
694.539	33.563	1408.591	1373.632
695.554	31.789	1406.537	1358.546
696.568	31.170	1404.448	1351.863
697.583	31.025	1403.091	1349.337
698.598	31.162	1402.825	1349.916
699.612	31.164	1401.663	1348.657
700.627	31.315	1400.744	1348.705
701.641	31.978	1399.863	1352.501
702.656	32.165	1399.238	1353.085
703.671	31.987	1398.338	1350.767
704.685	32.249	1397.984	1352.156
705.700	32.400	1397.548	1352.670
706.714	32.280	1396.978	1351.089
707.729	32.719	1395.315	1352.485
708.744	32.847	1394.180	1352.145
709.758	32.482	1392.581	1347.801
710.773	31.773	1390.515	1340.544
711.787	31.374	1389.312	1336.360
712.802	32.227	1388.700	1341.737
713.816	32.573	1388.051	1343.432
714.831	32.712	1387.613	1343.837
715.846	32.437	1385.980	1340.129
716.860	32.352	1384.266	1337.704
717.875	32.410	1383.116	1336.847
718.889	32.501	1381.785	1336.047
719.904	32.263	1380.983	1333.418
720.919	32.305	1380.133	1332.733
721.933	32.026	1379.076	1329.568
722.948	31.787	1377.947	1326.621
723.962	31.598	1376.889	1324.103
724.977	31.730	1375.104	1323.163
725.992	31.677	1374.339	1321.889
727.006	32.013	1373.360	1323.177
728.021	32.107	1371.784	1322.160
729.035	31.803	1370.754	1318.860
730.050	31.867	1369.671	1318.112
731.065	31.820	1368.883	1316.865
732.079	31.533	1367.239	1313.099
733.094	31.734	1366.404	1313.559
734.108	32.289	1365.455	1316.398
735.123	31.824	1364.211	1311.770
736.138	31.496	1363.635	1308.750
737.152	31.488	1362.108	1307.073
738.167	31.456	1360.587	1305.236
739.181	31.388	1359.807	1303.851
740.196	31.401	1358.987	1302.999
741.211	31.242	1357.873	1300.663
742.225	31.198	1357.492	1299.838
743.240	31.092	1355.945	1297.455
744.254	31.061	1353.564	1294.811
745.269	30.976	1352.290	1292.844
746.284	30.832	1351.563	1290.989
747.298	31.029	1350.530	1291.222
748.313	31.251	1350.680	1292.752
749.327	31.634	1351.252	1295.812
750.342	32.704	1352.809	1304.594
751.356	33.910	1353.024	1313.031
752.371	33.793	1349.649	1308.788
753.386	32.026	1346.220	1293.085
754.400	31.218	1344.634	1285.815
755.415	31.312	1343.321	1285.052
756.429	31.507	1341.910	1284.893
757.444	31.719	1341.428	1285.742
758.459	31.536	1340.747	1283.676
759.473	31.361	1339.254	1280.886
760.488	31.236	1338.139	1278.807
761.502	31.076	1336.752	1276.225
762.517	31.201	1336.833	1277.010
763.532	31.597	1335.660	1278.458
764.546	31.694	1334.349	1277.714
765.561	31.393	1332.969	1274.176
766.575	30.780	1331.740	1268.656
767.590	30.861	1330.653	1268.021
768.605	31.459	1330.018	1271.350
769.619	31.711	1329.244	1272.183
770.634	31.759	1328.260	1271.411
771.648	31.459	1326.504	1267.535
772.663	30.957	1325.598	1263.099
773.678	31.051	1325.116	1263.127
774.692	31.465	1324.411	1265.126
775.707	31.170	1324.438	1262.989
776.721	31.041	1323.429	1261.004
777.736	31.002	1321.827	1259.060
778.751	31.032	1320.162	1257.526
779.765	31.141	1318.905	1256.916
780.780	30.966	1318.351	1255.054
781.794	31.082	1318.142	1255.487
782.809	30.846	1316.433	1252.115
783.824	30.589	1314.755	1248.637
784.838	30.963	1315.165	1251.403
785.853	32.427	1315.359	1261.308
786.867	31.870	1314.053	1256.154
787.882	31.294	1312.480	1250.624
788.897	31.085	1310.877	1247.541
789.911	30.703	1309.550	1243.563
790.926	30.512	1307.795	1240.470
791.940	30.434	1306.639	1238.700
792.955	30.535	1305.359	1238.017
793.969	30.269	1305.240	1235.973
794.984	30.437	1304.420	1236.172
795.999	30.661	1303.269	1236.430
797.013	30.632	1301.666	1234.569
798.028	30.754	1300.233	1233.872
799.042	30.686	1299.914	1232.971
800.057	30.536	1298.997	1230.954
801.072	30.721	1297.747	1230.852
802.086	30.707	1296.534	1229.462
803.101	30.600	1295.143	1227.286
804.115	30.602	1294.549	1226.588
805.130	30.802	1293.826	1227.081
806.145	30.810	1292.142	1225.389
807.159	30.780	1290.680	1223.662
808.174	31.106	1290.218	1225.230
809.188	31.324	1289.240	1225.589
810.203	31.068	1288.636	1223.180
811.218	31.112	1286.880	1221.658
812.232	30.835	1284.767	1217.687
813.247	30.549	1283.360	1214.332
814.261	30.767	1283.723	1215.962
815.276	31.113	1283.732	1218.092
816.291	30.834	1281.844	1214.332
817.305	30.618	1280.617	1211.610
818.320	30.542	1279.601	1210.005
819.334	30.578	1278.657	1209.199
820.349	30.845	1277.541	1209.747
821.364	30.675	1275.748	1206.790
822.378	30.552	1274.291	1204.470
823.393	30.521	1272.634	1202.558
824.407	30.455	1271.906	1201.295
825.422	30.401	1271.418	1200.339
826.437	30.476	1270.225	1199.558
827.451	30.383	1269.597	1198.219
828.466	31.085	1269.030	1202.088
829.480	32.080	1268.061	1207.461
830.495	31.362	1265.440	1200.186
831.509	30.807	1263.639	1194.760
832.524	30.291	1262.699	1190.398
833.539	30.323	1261.723	1189.545
834.553	30.313	1260.674	1188.349
835.568	30.350	1258.663	1186.545
836.582	30.515	1257.861	1186.712
837.597	30.527	1257.129	1185.954
838.612	30.603	1256.185	1185.408
839.626	30.535	1254.838	1183.563
840.641	30.651	1254.091	1183.454
841.655	30.640	1254.128	1183.282
842.670	30.410	1252.868	1180.481
843.685	30.313	1251.036	1177.991
844.699	30.345	1250.284	1177.346
845.714	30.674	1248.645	1177.760
846.728	30.455	1248.130	1175.735
847.743	30.184	1247.687	1173.458
848.758	30.327	1246.176	1172.806
849.772	30.414	1244.737	1171.857
850.787	30.329	1243.331	1169.857
851.801	30.313	1241.983	1168.347
852.816	30.354	1241.273	1167.799
853.831	30.304	1240.051	1166.192
854.845	30.231	1238.077	1163.738
855.860	30.240	1236.917	1162.563
856.874	30.194	1236.600	1161.838
857.889	30.604	1235.743	1163.472
858.904	31.378	1235.287	1167.766
859.918	31.866	1234.985	1170.406
860.933	32.433	1234.200	1173.078
861.947	31.781	1232.506	1167.247
862.962	30.961	1230.681	1160.248
863.977	30.742	1228.944	1157.105
864.991	30.410	1227.634	1153.661
866.006	30.139	1226.981	1151.216
867.020	30.112	1225.510	1149.532
868.035	30.265	1223.704	1148.648
869.049	30.307	1223.226	1148.324
870.064	30.216	1222.901	1147.320
871.079	30.165	1222.432	1146.420
872.093	30.162	1221.754	1145.632
873.108	30.342	1220.173	1145.129
874.122	30.269	1219.127	1143.556
875.137	30.240	1218.420	1142.578
876.152	30.329	1217.672	1142.286
877.166	30.223	1215.899	1139.833
878.181	30.125	1214.564	1137.839
879.195	30.243	1214.341	1138.227
880.210	30.075	1212.852	1135.660
881.225	30.076	1212.500	1135.196
882.239	30.206	1211.500	1134.926
883.254	30.119	1209.820	1132.684
884.268	30.057	1209.759	1132.111
885.283	29.890	1208.808	1130.057
886.298	30.136	1206.659	1129.419
887.312	30.238	1205.441	1128.768
888.327	30.015	1204.928	1126.792
889.341	30.022	1204.115	1125.937
890.356	30.170	1202.611	1125.298
891.371	30.191	1202.069	1124.787
892.385	30.111	1201.891	1123.999
893.400	30.071	1201.898	1123.627
894.414	30.352	1200.205	1123.616
895.429	30.698	1199.604	1125.023
896.444	31.992	1201.158	1134.216
897.458	33.449	1200.534	1142.331
898.473	32.501	1198.263	1134.294
899.487	31.195	1195.920	1124.038
900.502	30.713	1193.561	1118.775
901.517	30.184	1192.259	1114.230
902.531	30.151	1191.256	1112.957
903.546	30.201	1190.115	1112.062
904.560	30.206	1189.339	1111.235
905.575	30.147	1189.268	1110.677
906.589	30.228	1187.460	1109.346
907.604	30.068	1186.708	1107.547
