DTS Sentinel unit serial number:	SN409020Multiplexer serial number:	ORYXHardware model number:	OX4-SRSoftware version number:	ORYX F/W v3.00 Oryx Data Collector v3.7.2.0data status	okinstallation	HaddamTimeLapsedifferential loss correction	single-endedforward channel	channel 3reverse channel	N/Adate	2011/06/22time	06:56:18forward acquisition time	30.00reverse acquisition time	0.00gamma	498.7831k internal	0.1752k external	0.1752temperature offset calibration	1.0074default loss term (dB/km)	0.3790temperature slope calibration	1.3530multiplexer offset coefficient	1.0000multiplexer slope coefficient	1.0000fibre end	0.00T internal ref (°C)	22.75T ext. ref 1 (°C)	19.00T ext. ref 2 (°C)	0.12length (m)	temperature (°C)	Stokes	anti-Stokes-747.200	8.122	-0.251	-0.250
-746.185	-200.000	0.069	0.426
-745.171	745.384	0.069	0.248
-744.156	17.702	-0.462	0.488
-743.142	610.319	-0.131	-0.438
-742.127	22.453	0.295	0.320
-741.112	-84.101	0.404	0.169
-740.098	-67.268	-0.570	-0.297
-739.083	-200.000	0.055	-0.486
-738.069	22.526	0.085	-0.092
-737.054	270.605	-0.169	0.396
-736.039	163.938	-0.174	-0.327
-735.025	64.589	0.103	0.138
-734.010	-76.447	-0.197	-0.092
-732.996	-158.055	-0.430	0.033
-731.981	30.642	0.176	-0.200
-730.966	-97.424	0.313	0.107
-729.952	-148.426	-0.372	0.040
-728.937	-43.554	-0.338	0.226
-727.923	800.000	-0.110	0.562
-726.908	-200.000	-0.061	0.552
-725.894	-98.421	-0.345	-0.117
-724.879	106.043	-0.120	-0.190
-723.864	-132.671	-0.329	-0.055
-722.850	-155.431	-0.341	-0.029
-721.835	800.000	-0.059	-0.295
-720.821	-66.872	-0.226	0.118
-719.806	-129.560	-0.332	0.060
-718.791	377.330	-0.090	-0.246
-717.777	202.787	-0.080	-0.165
-716.762	69.928	-0.049	0.067
-715.748	-62.624	0.216	-0.118
-714.733	-186.142	0.237	0.005
-713.718	-200.000	-0.030	-0.333
-712.704	-110.796	-0.513	-0.139
-711.689	-200.000	-0.003	0.208
-710.675	-82.564	-0.158	0.068
-709.660	75.643	0.280	0.392
-708.645	10.805	-0.344	0.348
-707.631	-190.636	-0.372	0.005
-706.616	30.221	-0.237	-0.269
-705.602	236.577	0.169	0.372
-704.587	-133.817	-0.045	0.007
-703.572	-47.384	-0.272	0.175
-702.558	479.152	0.089	-0.270
-701.543	102.448	0.124	-0.193
-700.529	-200.000	-0.000	-0.294
-699.514	-139.522	-0.326	0.046
-698.499	-65.310	0.102	-0.054
-697.485	-51.432	0.137	-0.085
-696.470	121.328	0.157	-0.260
-695.456	-200.000	0.040	-0.384
-694.441	-150.354	-0.239	-0.024
-693.426	-111.486	-0.543	-0.145
-692.412	-144.743	-0.416	0.050
-691.397	19.167	-0.344	-0.365
-690.383	-162.127	-0.704	0.046
-689.368	-36.277	-0.192	0.137
-688.354	-10.910	-0.223	-0.195
-687.339	13.010	0.204	-0.209
-686.324	22.931	0.397	0.431
-685.310	65.016	-0.129	0.172
-684.295	-113.750	0.184	0.047
-683.281	-200.000	-0.045	-0.286
-682.266	228.612	-0.221	-0.478
-681.251	800.000	-0.122	0.462
-680.237	-22.768	0.208	0.166
-679.222	66.096	-0.547	0.735
-678.208	-107.123	-0.361	-0.105
-677.193	396.954	-0.055	0.153
-676.178	-130.980	0.124	-0.022
-675.164	614.255	-0.045	-0.151
-674.149	-55.818	-0.250	0.147
-673.135	-52.256	0.157	-0.096
-672.120	3.520	0.170	0.164
-671.105	104.972	0.239	-0.373
-670.091	264.574	-0.094	-0.216
-669.076	-200.000	-0.006	-0.316
-668.062	-200.000	0.046	-0.452
-667.047	592.106	0.165	0.543
-666.032	-200.000	-0.038	0.263
-665.018	-6.256	-0.237	-0.214
-664.003	16.618	0.054	0.057
-662.989	-43.991	-0.502	-0.333
-661.974	800.000	-0.030	-0.155
-660.959	-200.000	-0.542	0.000
-659.945	98.473	-0.290	0.444
-658.930	151.838	-0.111	-0.200
-657.916	-140.950	-0.200	-0.027
-656.901	-123.455	-0.349	-0.073
-655.886	-82.600	0.403	-0.172
-654.872	-200.000	0.010	-0.235
-653.857	-25.429	0.400	-0.312
-652.843	800.000	0.010	-0.047
-651.828	-200.000	0.351	0.002
-650.814	23.364	-0.312	0.339
-649.799	-200.000	0.028	0.399
-648.784	-26.169	0.123	0.096
-647.770	-200.000	-0.049	-0.441
-646.755	81.022	0.200	-0.286
-645.741	15.682	0.227	0.236
-644.726	-200.000	-0.003	-0.097
-643.711	-157.841	0.448	0.035
-642.697	-123.975	-0.565	0.117
-641.682	-87.091	0.064	-0.026
-640.668	51.203	0.278	0.349
-639.653	-200.000	0.281	-0.001
-638.638	-7.024	0.374	-0.335
-637.624	36.772	-0.131	0.152
-636.609	800.000	0.034	-0.138
-635.595	-24.518	-0.425	-0.334
-634.580	-185.457	-0.313	-0.006
-633.565	72.564	-0.120	-0.165
-632.551	-102.049	0.370	0.117
-631.536	-198.329	-0.274	0.002
-630.522	104.237	0.301	0.468
-629.507	-154.815	0.188	0.016
-628.492	-200.000	-0.082	-0.622
-627.478	61.727	-0.341	-0.448
-626.463	46.421	-0.141	-0.172
-625.449	-200.000	0.003	0.136
-624.434	-39.866	-0.041	0.028
-623.419	102.006	0.210	-0.324
-622.405	-115.733	0.438	-0.108
-621.390	-29.629	0.377	-0.284
-620.376	-65.068	0.381	0.202
-619.361	64.095	0.263	0.350
-618.346	-200.000	0.032	0.323
-617.332	-149.067	0.441	0.046
-616.317	226.581	-0.116	0.249
-615.303	-36.147	0.245	-0.174
-614.288	-200.000	0.011	-0.108
-613.273	-41.746	-0.265	0.179
-612.259	301.433	0.107	-0.262
-611.244	-28.836	0.224	-0.170
-610.230	11.282	-0.271	-0.274
-609.215	-51.088	-0.404	-0.250
-608.201	800.000	-0.036	-0.196
-607.186	-200.000	0.040	-0.297
-606.171	-15.125	0.154	0.130
-605.157	800.000	0.053	0.198
-604.142	-200.000	0.007	-0.055
-603.128	-99.960	0.246	0.080
-602.113	800.000	0.084	-0.365
-601.098	641.090	-0.097	-0.329
-600.084	136.343	0.138	-0.238
-599.069	-51.224	0.323	-0.199
-598.055	32.476	0.090	-0.103
-597.040	-139.775	-0.215	0.030
-596.025	-58.179	0.421	0.241
-595.011	800.000	-0.023	0.088
-593.996	-154.898	-0.509	-0.044
-592.982	-32.297	-0.288	-0.211
-591.967	-10.295	0.235	-0.206
-590.952	-138.671	0.491	0.070
-589.938	-154.449	0.097	-0.008
-588.923	-24.793	0.208	0.163
-587.909	800.000	0.082	-0.338
-586.894	68.710	0.289	0.392
-585.879	243.168	-0.266	0.589
-584.865	278.649	0.179	0.423
-583.850	132.376	0.148	0.251
-582.836	191.273	0.063	0.125
-581.821	-3.027	-0.287	0.264
-580.806	-44.943	-0.179	-0.117
-579.792	61.171	-0.297	0.389
-578.777	800.000	-0.110	0.561
-577.763	-78.738	-0.243	0.109
-576.748	-156.758	-0.515	0.041
-575.733	-80.548	-0.516	-0.226
-574.719	-200.000	-0.003	-0.047
-573.704	431.429	0.111	0.319
-572.690	-62.390	-0.118	-0.064
-571.675	-5.225	0.379	-0.344
-570.661	800.000	0.030	-0.125
-569.646	-200.000	0.016	0.355
-568.631	19.870	-0.095	0.101
-567.617	-151.512	-0.574	-0.055
-566.602	32.471	-0.354	0.404
-565.588	-200.000	-0.042	-0.253
-564.573	224.678	0.052	0.111
-563.558	-38.588	-0.085	0.059
-562.544	-153.321	0.082	0.007
-561.529	-34.432	0.207	-0.149
-560.515	135.445	0.071	-0.121
-559.500	-41.963	0.409	-0.276
-558.485	31.898	0.147	0.167
-557.471	-90.824	-0.222	0.084
-556.456	-62.038	0.364	0.200
-555.442	8.253	-0.264	0.262
-554.427	-200.000	-0.000	-0.500
-553.412	-103.645	0.301	-0.093
-552.398	8.380	-0.220	0.218
-551.383	-53.325	-0.578	-0.348
-550.369	-114.614	-0.364	-0.091
-549.354	-10.893	0.194	0.168
-548.339	44.744	-0.024	-0.029
-547.325	54.348	-0.271	-0.343
-546.310	-40.696	0.397	0.271
-545.296	-56.795	-0.576	0.334
-544.281	13.650	-0.270	-0.276
-543.266	436.402	-0.149	0.429
-542.252	21.957	0.146	-0.156
-541.237	150.970	0.119	-0.214
-540.223	15.559	0.246	0.254
-539.208	-72.926	-0.140	0.067
-538.193	217.874	-0.115	0.242
-537.179	120.483	-0.134	0.220
-536.164	-55.764	0.316	-0.185
-535.150	-57.537	-0.300	-0.173
-534.135	29.512	-0.223	-0.249
-533.121	-200.000	0.022	-0.161
-532.106	22.935	0.185	0.199
-531.091	133.029	0.024	0.041
-530.077	-34.368	0.244	-0.176
-529.062	77.733	0.210	0.295
-528.048	-127.246	-0.145	-0.028
-527.033	-45.815	-0.305	-0.198
-526.018	-39.982	0.281	0.193
-525.004	-92.049	0.372	-0.138
-523.989	-63.690	-0.427	0.229
-522.975	-109.962	-0.129	0.035
-521.960	-161.081	-0.573	0.039
-520.945	43.740	-0.319	-0.384
-519.931	202.781	0.182	-0.371
-518.916	276.980	-0.177	-0.416
-517.902	761.154	-0.028	0.101
-516.887	-14.603	-0.353	-0.298
-515.872	800.000	0.086	0.386
-514.858	-200.000	-0.003	-0.174
-513.843	800.000	0.047	0.188
-512.829	28.118	0.076	-0.085
-511.814	-28.107	0.291	-0.221
-510.799	-138.452	0.447	0.064
-509.785	-200.000	0.072	0.557
-508.770	-47.906	0.112	0.071
-507.756	-37.227	0.063	0.044
-506.741	243.359	-0.075	0.165
-505.726	-114.378	0.571	-0.143
-504.712	800.000	0.203	0.855
-503.697	-200.000	-0.063	0.394
-502.683	-47.950	-0.479	-0.304
-501.668	32.420	-0.361	-0.410
-500.653	11.295	0.323	-0.325
-499.639	-70.921	-0.157	0.078
-498.624	-200.000	0.007	0.287
-497.610	85.382	0.192	-0.278
-496.595	-113.756	-0.246	-0.063
-495.581	-54.476	-0.305	-0.181
-494.566	-102.460	-0.584	-0.183
-493.551	-114.609	0.324	-0.081
-492.537	-32.998	0.188	0.137
-491.522	-200.000	-0.020	0.263
-490.508	-47.050	-0.390	0.249
-489.493	57.761	-0.098	0.126
-488.478	207.278	-0.203	-0.417
-487.464	-139.687	-0.386	-0.053
-486.449	-114.607	-0.259	-0.065
-485.435	-179.046	0.019	0.001
-484.420	-200.000	-0.018	0.177
-483.405	4.088	-0.248	0.238
-482.391	378.314	-0.249	-0.672
-481.376	50.629	0.410	-0.511
-480.362	-144.148	-0.186	0.023
-479.347	-52.865	0.384	0.232
-478.332	483.972	0.226	0.680
-477.318	-129.944	-0.048	0.009
-476.303	-200.000	-0.043	0.379
-475.289	347.736	-0.089	0.230
-474.274	-53.847	-0.183	0.109
-473.259	35.390	0.626	0.722
-472.245	-200.000	-0.013	0.211
-471.230	382.785	-0.160	-0.433
-470.216	220.817	0.127	-0.269
-469.201	-200.000	-0.005	-0.469
-468.186	298.373	-0.157	-0.381
-467.172	85.428	0.315	-0.454
-466.157	-16.568	0.292	0.243
-465.143	-200.000	0.004	0.631
-464.128	240.102	-0.096	-0.210
-463.113	348.431	-0.091	0.236
-462.099	668.572	-0.135	0.460
-461.084	36.914	-0.215	0.250
-460.070	800.000	-0.057	-0.219
-459.055	-200.000	0.028	0.349
-458.040	-102.150	0.216	-0.068
-457.026	6.593	-0.148	0.145
-456.011	152.536	0.057	0.103
-454.997	-200.000	0.078	0.544
-453.982	54.771	-0.192	0.243
-452.968	-147.054	0.286	0.032
-451.953	-200.000	-0.117	0.679
-450.938	-186.571	-0.310	0.006
-449.924	328.381	0.093	-0.234
-448.909	-15.541	-0.294	0.246
-447.895	-124.032	0.230	0.047
-446.880	-89.961	0.171	-0.065
-445.865	-149.054	0.781	-0.081
-444.851	-106.662	-0.218	0.063
-443.836	-139.006	-0.268	-0.038
-442.822	119.035	-0.119	0.194
-441.807	-116.622	0.290	-0.069
-440.792	-85.242	0.183	0.075
-439.778	-181.711	0.215	0.005
-438.763	-53.296	-0.257	-0.154
-437.749	-91.025	-0.206	-0.077
-436.734	-200.000	0.041	-0.454
-435.719	-80.124	-0.346	0.152
-434.705	230.556	-0.347	-0.748
-433.690	84.291	0.398	-0.571
-432.676	324.542	-0.102	0.256
-431.661	-11.159	0.204	0.176
-430.646	-200.000	0.007	0.287
-429.632	-80.511	0.236	0.103
-428.617	-44.486	0.292	-0.191
-427.603	93.503	-0.398	-0.591
-426.588	-86.208	-0.074	0.030
-425.573	800.000	0.091	0.385
-424.559	-23.832	0.203	0.159
-423.544	44.850	-0.380	0.459
-422.530	-200.000	0.025	-0.637
-421.515	367.858	0.142	-0.379
-420.500	-52.657	-0.481	-0.290
-419.486	-132.472	0.194	-0.032
-418.471	-186.988	0.597	0.011
-417.457	-132.110	-0.339	-0.057
-416.442	800.000	0.043	0.163
-415.428	-2.484	-0.504	-0.462
-414.413	-61.517	-0.351	0.192
-413.398	124.381	0.203	-0.334
-412.384	205.583	0.192	-0.392
-411.369	139.330	0.107	0.185
-410.355	800.000	0.041	-0.229
-409.340	-98.984	-0.463	-0.153
-408.325	-200.000	0.007	-0.082
-407.311	-10.518	-0.371	-0.321
-406.296	-92.289	0.377	0.138
-405.282	36.308	-0.244	-0.282
-404.267	388.834	0.037	0.102
-403.252	342.511	-0.163	-0.420
-402.238	-96.618	-0.215	0.074
-401.223	-77.517	0.258	-0.117
-400.209	42.552	-0.078	0.092
-399.194	176.928	0.163	0.312
-398.179	800.000	0.056	0.265
-397.165	-128.240	0.332	-0.061
-396.150	-41.659	0.250	0.168
-395.136	-183.200	-0.805	-0.018
-394.121	-106.456	-0.092	-0.027
-393.106	-88.416	-0.086	0.033
-392.092	-132.097	-0.393	0.066
-391.077	569.036	-0.136	-0.435
-390.063	454.122	0.081	-0.235
-389.048	-113.699	0.679	-0.172
-388.033	-200.000	-0.036	-0.461
-387.019	-56.420	-0.111	-0.064
-386.004	-103.313	0.152	-0.046
-384.990	-200.000	-0.074	0.434
-383.975	35.180	-0.212	0.243
-382.960	800.000	0.088	0.373
-381.946	92.037	0.060	-0.088
-380.931	106.247	0.301	-0.467
-379.917	-200.000	-0.037	-0.608
-378.902	462.220	-0.096	0.281
-377.888	-200.000	-0.019	-0.217
-376.873	-73.615	-0.131	-0.062
-375.858	227.556	-0.203	-0.434
-374.844	800.000	-0.068	0.324
-373.829	-72.021	0.214	-0.104
-372.815	-24.954	0.105	0.082
-371.800	-200.000	-0.005	-0.297
-370.785	800.000	0.096	-0.488
-369.771	-23.506	0.491	-0.385
-368.756	78.311	0.080	0.112
-367.742	-200.000	0.035	0.563
-366.727	369.207	0.193	0.514
-365.712	135.263	-0.193	0.330
-364.698	-85.386	-0.099	-0.040
-363.683	-68.181	0.373	-0.189
-362.669	589.011	0.106	0.345
-361.654	-53.857	-0.421	0.250
-360.639	800.000	0.116	-0.522
-359.625	32.522	-0.197	-0.223
-358.610	-102.003	-0.394	0.124
-357.596	-183.683	-0.177	-0.004
-356.581	575.111	-0.106	-0.341
-355.566	-64.095	-0.125	0.066
-354.552	-200.000	0.052	-0.350
-353.537	-200.000	-0.061	-0.379
-352.523	-200.000	0.028	0.531
-351.508	-42.749	0.248	-0.165
-350.493	-38.304	0.240	0.166
-349.479	-15.194	-0.235	0.196
-348.464	74.124	0.277	-0.381
-347.450	478.767	0.095	-0.282
-346.435	612.490	0.116	-0.380
-345.420	-52.816	-0.417	-0.251
-344.406	-122.321	-0.293	-0.062
-343.391	58.985	-0.208	-0.268
-342.377	-152.603	0.234	0.022
-341.362	14.662	0.290	-0.296
-340.348	-136.703	-0.416	0.062
-339.333	-200.000	-0.002	0.614
-338.318	-200.000	0.020	-0.233
-337.304	-77.497	0.155	-0.070
-336.289	-30.839	-0.432	-0.318
-335.275	-142.106	-0.033	-0.004
-334.260	-200.000	0.088	0.565
-333.245	-200.000	-0.002	-0.112
-332.231	7.791	-0.394	-0.385
-331.216	32.167	0.254	0.287
-330.202	-114.603	-0.072	0.018
-329.187	800.000	-0.082	-0.341
-328.172	407.744	-0.082	-0.228
-327.158	-60.211	-0.650	-0.360
-326.143	16.599	0.304	-0.314
-325.129	-143.761	-0.563	0.069
-324.114	68.347	-0.149	0.199
-323.099	-24.136	-0.034	0.026
-322.085	-169.228	0.174	0.008
-321.070	-63.325	-0.314	-0.168
-320.056	-157.927	0.228	0.017
-319.041	31.689	-0.144	0.161
-318.026	800.000	-0.085	0.348
-317.012	-86.540	-0.152	0.061
-315.997	43.103	-0.253	0.302
-314.983	28.826	-0.324	-0.359
-313.968	-107.192	-0.136	-0.039
-312.953	173.077	-0.124	0.234
-311.939	800.000	-0.010	-0.054
-310.924	46.779	0.327	-0.396
-309.910	-105.300	0.268	0.079
-308.895	-5.794	-0.373	0.333
-307.880	-117.972	0.266	-0.062
-306.866	231.014	-0.073	0.156
-305.851	-200.000	0.041	-0.421
-304.837	-145.726	-0.667	-0.077
-303.822	129.847	-0.246	0.411
-302.807	-103.339	-0.336	-0.103
-301.793	-70.862	0.219	-0.107
-300.778	15.240	0.462	-0.472
-299.764	292.282	0.134	0.320
-298.749	408.453	0.114	-0.316
-297.735	-91.003	0.546	0.204
-296.720	-149.970	0.065	-0.007
-295.705	-200.000	-0.015	0.231
-294.691	800.000	-0.102	-0.403
-293.676	-200.000	-0.003	0.308
-292.662	-9.727	0.258	0.224
-291.647	35.888	-0.351	0.403
-290.632	-12.627	0.109	-0.093
-289.618	-22.068	0.201	0.159
-288.603	-125.907	0.378	0.074
-287.589	-52.527	-0.021	0.013
-286.574	-24.525	0.203	0.157
-285.559	-200.000	-0.024	0.342
-284.545	50.775	0.121	-0.150
-283.530	-200.000	0.014	0.299
-282.516	-25.477	-0.350	0.269
-281.501	-71.122	0.343	0.167
-280.486	-119.725	0.318	-0.071
-279.472	-7.006	0.511	-0.452
-278.457	505.507	0.040	-0.122
-277.443	-200.000	0.004	-0.158
-276.428	-61.824	0.388	0.211
-275.413	-50.327	-0.123	-0.076
-274.399	-107.351	-0.258	-0.073
-273.384	800.000	0.075	-0.381
-272.370	-125.002	0.178	-0.035
-271.355	-200.000	-0.030	0.242
-270.340	800.000	0.049	0.235
-269.326	590.906	-0.097	-0.313
-268.311	29.246	0.057	0.063
-267.297	356.471	0.076	-0.199
-266.282	-199.056	0.326	-0.002
-265.267	10.013	-0.406	0.402
-264.253	67.853	-0.343	0.457
-263.238	34.935	0.363	0.414
-262.224	192.031	0.133	0.263
-261.209	16.331	0.255	0.262
-260.195	145.189	-0.219	0.383
-259.180	-25.899	-0.092	-0.071
-258.165	800.000	-0.064	0.291
-257.151	-114.733	-0.178	-0.044
-256.136	-66.257	-0.375	0.193
-255.122	-69.710	0.092	0.046
-254.107	201.512	-0.040	0.081
-253.092	-200.000	0.015	-0.132
-252.078	-200.000	-0.005	-0.033
-251.063	-13.876	-0.357	0.300
-250.049	-200.000	0.060	0.494
-249.034	393.232	-0.099	0.269
-248.019	292.708	-0.080	0.190
-247.005	-149.452	0.213	0.022
-245.990	-73.774	0.262	-0.123
-244.976	-114.691	0.507	0.125
-243.961	-88.251	0.086	-0.033
-242.946	800.000	-0.096	0.395
-241.932	-200.000	0.071	-0.429
-240.917	-138.590	-0.288	0.041
-239.903	14.453	-0.276	0.280
-238.888	-80.048	-0.529	0.230
-237.873	-200.000	0.026	-0.529
-236.859	-16.231	0.285	-0.235
-235.844	-104.224	0.313	-0.094
-234.830	-81.937	0.175	0.074
-233.815	-6.940	0.277	0.244
-232.800	-131.764	-0.557	0.094
-231.786	41.313	0.097	-0.114
-230.771	34.024	0.186	-0.211
-229.757	-140.320	-0.167	0.022
-228.742	-103.796	0.254	0.077
-227.727	121.510	-0.148	0.241
-226.713	55.812	-0.374	-0.471
-225.698	9.031	-0.092	0.090
-224.684	-54.033	-0.244	0.144
-223.669	334.635	0.196	0.496
-222.655	180.244	-0.273	0.523
-221.640	-200.000	-0.051	-0.452
-220.625	-80.634	0.214	0.092
-219.611	95.783	-0.225	-0.335
-218.596	-158.404	0.335	0.025
-217.582	111.966	0.155	-0.245
-216.567	-56.905	0.364	-0.209
-215.552	5.826	-0.149	-0.143
-214.538	-106.777	0.267	0.077
-213.523	47.969	-0.194	0.236
-212.509	406.493	0.091	0.250
-211.494	-25.625	-0.257	0.197
-210.479	-200.000	0.087	-0.517
-209.465	-200.000	0.034	-0.213
-208.450	-69.312	-0.214	-0.106
-207.436	78.516	0.197	0.273
-206.421	49.851	-0.226	-0.277
-205.406	-1.101	0.328	0.301
-204.392	-108.421	-0.054	-0.015
-203.377	637.215	-0.202	-0.672
-202.363	527.245	-0.095	0.292
-201.348	-72.962	0.271	-0.129
-200.333	89.021	-0.159	-0.230
-199.319	227.855	-0.046	0.097
-198.304	-1.545	-0.101	-0.092
-197.290	-99.108	0.300	0.098
-196.275	-185.468	0.443	0.009
-195.260	-165.106	0.234	-0.013
-194.246	-4.084	0.405	0.365
-193.231	-38.843	-0.279	0.191
-192.217	-151.345	-0.245	-0.023
-191.202	116.981	-0.189	0.302
-190.187	46.143	-0.226	0.272
-189.173	800.000	-0.033	-0.124
-188.158	-27.470	0.333	0.251
-187.144	-102.512	0.364	0.112
-186.129	-103.282	0.109	0.033
-185.114	-71.386	-0.327	0.158
-184.100	-97.182	-0.006	-0.002
-183.085	206.202	-0.138	0.281
-182.071	71.311	0.148	-0.200
-181.056	550.815	0.056	0.177
-180.042	-156.225	0.307	-0.025
-179.027	800.000	0.079	0.287
-178.012	-200.000	0.034	0.303
-176.998	113.222	-0.055	0.086
-175.983	56.812	0.219	-0.278
-174.969	40.263	0.235	0.274
-173.954	-200.000	-0.008	0.118
-172.939	-83.913	0.128	0.053
-171.925	-38.049	-0.183	0.126
-170.910	-125.500	-0.370	0.072
-169.896	54.219	0.162	0.202
-168.881	-15.409	0.126	-0.104
-167.866	789.224	-0.076	0.272
-166.852	-110.189	-0.375	0.101
-165.837	125.283	0.214	-0.350
-164.823	-37.981	-0.244	0.168
-163.808	-92.766	0.493	0.178
-162.793	28.012	0.175	-0.191
-161.779	800.000	-0.044	-0.193
-160.764	-44.479	-0.067	-0.043
-159.750	-1.060	0.453	-0.415
-158.735	800.000	-0.119	-0.508
-157.720	44.754	0.120	-0.144
-156.706	190.642	0.260	-0.508
-155.691	800.000	-0.052	0.274
-154.677	-74.276	-0.362	-0.169
-153.662	145.268	-0.285	-0.496
-152.647	-101.060	0.485	-0.153
-151.633	-97.219	0.418	-0.141
-150.618	365.086	-0.136	0.357
-149.604	800.000	-0.114	0.423
-148.589	-8.140	-0.260	0.227
-147.574	-52.033	0.440	-0.264
-146.560	196.345	-0.102	0.202
-145.545	511.248	-0.214	-0.649
-144.531	35.267	-0.332	-0.378
-143.516	-102.128	0.348	0.108
-142.502	-139.171	0.475	-0.066
-141.487	-111.856	-0.249	-0.065
-140.472	-200.000	0.000	0.610
-139.458	-200.000	0.053	-0.354
-138.443	-28.014	-0.551	-0.413
-137.429	-137.060	0.456	-0.067
-136.414	-189.542	0.418	0.006
-135.399	26.055	0.189	0.205
-134.385	-200.000	-0.016	-0.542
-133.370	-40.813	0.147	0.098
-132.356	-200.000	-0.068	-0.563
-131.341	-95.528	-0.432	-0.149
-130.326	78.156	0.232	-0.321
-129.312	-200.000	0.003	0.174
-128.297	435.672	-0.163	0.463
-127.283	-200.000	0.022	-0.425
-126.268	-164.250	-0.284	0.017
-125.253	-159.971	0.717	0.050
-124.239	-162.684	-0.235	0.015
-123.224	-112.578	-0.066	0.017
-122.210	-115.601	0.216	-0.052
-121.195	-101.058	-0.142	0.045
-120.180	-87.363	-0.428	0.167
-119.166	-119.983	0.212	0.047
-118.151	-200.000	0.001	-0.131
-117.137	-131.605	-0.388	0.066
-116.122	83.928	-0.276	-0.390
-115.107	82.672	0.116	-0.163
-114.093	179.512	0.093	-0.178
-113.078	240.248	0.074	-0.160
-112.064	-78.163	0.201	0.089
-111.049	245.772	0.100	-0.219
-110.034	-148.419	0.274	-0.029
-109.020	-94.348	0.310	-0.109
-108.005	-200.000	0.004	0.156
-106.991	84.453	0.186	-0.263
-105.976	800.000	0.112	-0.495
-104.962	61.968	0.142	0.183
-103.947	-82.106	-0.105	-0.044
-102.932	800.000	-0.067	-0.280
-101.918	263.000	-0.092	-0.207
-100.903	56.878	-0.286	0.360
-99.889	-167.958	-0.262	-0.013
-98.874	546.117	-0.105	0.326
-97.859	-25.020	0.351	0.269
-96.845	39.916	0.265	0.308
-95.830	-37.587	-0.327	0.225
-94.816	213.726	-0.204	-0.418
-93.801	599.641	0.158	-0.509
-92.786	353.363	0.107	-0.276
-91.772	297.162	0.170	0.404
-90.757	174.441	0.341	0.640
-89.743	-85.100	-0.370	-0.149
-88.728	-200.000	-0.072	-0.509
-87.713	324.302	0.135	-0.335
-86.699	-157.567	0.083	-0.006
-85.684	-178.072	0.406	0.012
-84.670	444.184	-0.274	-0.783
-83.655	72.794	-0.206	-0.279
-82.640	-73.405	-0.142	0.067
-81.626	178.069	0.231	-0.437
-80.611	152.441	0.168	0.298
-79.597	90.182	-0.129	0.187
-78.582	140.377	0.135	0.230
-77.567	414.297	-0.045	-0.124
-76.553	800.000	-0.025	-0.109
-75.538	339.608	-0.061	-0.154
-74.524	-200.000	-0.008	-0.132
-73.509	-143.025	0.483	0.060
-72.494	-59.581	-0.151	0.084
-71.480	-109.671	0.314	0.085
-70.465	-3.682	-0.159	0.143
-69.451	-200.000	-0.012	0.108
-68.436	-122.402	-0.209	0.044
-67.422	-111.021	0.403	-0.106
-66.407	291.262	-0.071	-0.169
-65.392	333.395	0.121	-0.303
-64.378	-147.945	-0.333	0.035
-63.363	-106.169	0.308	0.089
-62.349	290.653	-0.093	0.219
-61.334	43.621	-2.196	-2.597
-60.319	1.120	1.481	1.372
-59.305	191.773	-3.699	-7.226
-58.290	69.908	3.727	4.973
-57.276	415.572	3.742	10.356
-56.261	-200.000	23.485	316.525
-55.246	363.708	1289.518	3364.597
-54.232	54.036	2834.169	3523.588
-53.217	51.986	2658.874	3273.901
-52.203	32.318	2389.448	2665.325
-51.188	27.963	2055.579	2239.315
-50.173	24.617	1941.591	2076.049
-49.159	23.603	1929.728	2051.498
-48.144	23.189	1925.454	2042.081
-47.130	22.881	1924.276	2037.178
-46.115	22.925	1921.453	2034.615
-45.100	23.032	1920.084	2034.326
-44.086	23.044	1918.633	2032.845
-43.071	22.989	1917.633	2031.063
-42.057	23.092	1914.651	2029.011
-41.042	22.885	1915.311	2027.246
-40.027	22.926	1913.180	2025.379
-39.013	22.895	1911.285	2022.945
-37.998	22.992	1909.911	2022.524
-36.984	22.792	1910.104	2020.345
-35.969	22.806	1908.518	2018.743
-34.954	22.931	1906.459	2017.925
-33.940	22.810	1905.905	2015.870
-32.925	22.912	1903.923	2014.866
-31.911	22.804	1903.272	2012.852
-30.896	22.881	1901.183	2011.446
-29.881	22.840	1900.350	2010.018
-28.867	22.852	1898.444	2008.061
-27.852	22.752	1897.599	2005.948
-26.838	22.864	1895.581	2005.006
-25.823	22.815	1894.447	2003.176
-24.809	22.879	1892.562	2001.829
-23.794	22.790	1891.941	2000.075
-22.779	22.678	1891.533	1998.292
-21.765	22.710	1889.548	1996.480
-20.750	22.765	1888.466	1995.885
-19.736	22.760	1886.921	1994.118
-18.721	22.741	1885.865	1992.703
-17.706	22.695	1885.083	1991.273
-16.692	22.613	1884.205	1989.343
-15.677	22.647	1882.633	1987.989
-14.663	22.698	1880.916	1986.671
-13.648	22.654	1879.278	1984.360
-12.633	22.612	1878.823	1983.332
-11.619	22.659	1876.751	1981.599
-10.604	22.717	1875.379	1980.724
-9.590	22.685	1874.299	1979.145
-8.575	22.694	1873.670	1978.501
-7.560	22.521	1872.983	1975.743
-6.546	22.592	1870.969	1974.346
-5.531	22.659	1869.810	1973.798
-4.517	22.545	1869.073	1971.657
-3.502	22.603	1867.535	1970.606
-2.487	22.651	1866.992	1970.496
-1.473	22.729	1863.302	1967.392
-0.458	22.737	1845.151	1948.242
0.556	19.618	1991.885	2053.663
1.571	18.296	2196.852	2247.284
2.586	19.293	2235.433	2299.863
3.600	19.322	2237.717	2302.318
4.615	19.351	2237.150	2301.855
5.629	19.273	2235.469	2298.797
6.644	19.340	2232.878	2296.757
7.659	19.427	2230.853	2295.569
8.673	19.321	2229.297	2292.267
9.688	19.131	2238.297	2298.697
10.702	17.993	2318.608	2365.067
11.717	16.493	2380.805	2406.774
12.731	7.951	2361.256	2265.036
13.746	1.239	2343.406	2152.169
14.761	0.255	2339.277	2134.115
15.775	0.104	2337.224	2129.844
16.790	0.155	2335.155	2128.418
17.804	0.010	2334.698	2125.694
18.819	-0.059	2335.096	2124.816
19.834	0.022	2332.071	2122.956
20.848	0.047	2331.089	2122.171
21.863	0.078	2328.871	2120.340
22.877	0.119	2326.592	2118.583
23.892	0.021	2324.232	2114.798
24.907	0.014	2322.424	2112.798
25.921	0.005	2320.732	2110.888
26.936	-0.012	2318.972	2108.789
27.950	0.050	2316.355	2107.030
28.965	-0.005	2313.527	2103.431
29.980	-0.043	2313.496	2102.618
30.994	0.032	2310.284	2100.502
32.009	4.031	2322.167	2167.401
33.023	14.011	2351.603	2336.242
34.038	18.598	2359.586	2408.785
35.053	19.137	2358.037	2414.514
36.067	19.426	2357.942	2418.208
37.082	19.295	2355.124	2413.173
38.096	19.157	2352.948	2408.722
39.111	19.260	2351.592	2408.492
40.126	19.509	2349.648	2409.703
41.140	19.728	2347.639	2410.431
42.155	19.390	2346.111	2403.840
43.169	19.175	2344.313	2398.698
44.184	19.320	2340.167	2396.195
45.199	19.249	2338.239	2392.942
46.213	19.231	2338.077	2392.240
47.228	19.266	2337.309	2391.651
48.242	19.247	2335.289	2389.033
49.257	19.377	2333.140	2388.360
50.271	19.427	2330.183	2385.743
51.286	19.265	2328.070	2381.047
52.301	19.230	2325.866	2378.017
53.315	19.380	2326.379	2380.335
54.330	20.391	2327.908	2395.646
55.344	21.035	2326.868	2403.217
56.359	21.126	2323.298	2400.492
57.374	21.157	2322.745	2400.060
58.388	21.286	2320.503	2399.243
59.403	21.338	2316.745	2395.789
60.417	21.252	2314.272	2391.762
61.432	21.442	2312.190	2391.935
62.447	21.460	2311.417	2391.090
63.461	21.540	2310.227	2390.671
64.476	21.720	2307.452	2389.979
65.490	21.607	2306.154	2386.808
66.505	21.253	2304.699	2380.163
67.520	20.409	2300.262	2363.759
68.534	19.554	2295.124	2346.514
69.549	19.385	2291.874	2340.609
70.563	19.369	2290.544	2338.757
71.578	19.424	2288.063	2336.696
72.593	19.516	2285.577	2335.123
73.607	19.605	2284.644	2335.096
74.622	19.496	2282.922	2331.582
75.636	19.496	2279.290	2327.595
76.651	19.523	2277.321	2325.673
77.666	19.485	2276.092	2323.621
78.680	19.447	2273.716	2320.397
79.695	19.568	2271.306	2319.302
80.709	19.553	2271.933	2319.460
81.724	19.681	2268.187	2317.089
82.739	19.583	2266.420	2313.683
83.753	19.494	2264.437	2310.178
84.768	19.469	2262.139	2307.226
85.782	19.466	2261.845	2306.612
86.797	19.376	2259.692	2302.927
87.812	19.398	2256.799	2299.997
88.826	19.440	2254.419	2297.868
89.841	19.418	2253.215	2296.065
90.855	19.528	2251.265	2295.268
91.870	19.467	2250.511	2293.412
92.884	19.301	2248.834	2289.219
93.899	19.434	2246.298	2288.132
94.914	19.586	2246.029	2289.618
95.928	20.304	2249.789	2302.753
96.943	20.760	2247.171	2305.862
97.957	19.947	2241.607	2289.084
98.972	19.270	2238.954	2277.107
99.987	19.299	2235.761	2273.973
101.001	19.314	2233.619	2271.717
102.016	19.185	2232.411	2268.515
103.030	19.405	2228.271	2266.948
104.045	19.591	2227.508	2268.353
105.060	19.516	2225.550	2265.100
106.074	19.470	2223.416	2262.047
107.089	19.494	2221.291	2259.934
108.103	19.524	2221.010	2259.774
109.118	19.552	2218.249	2257.058
110.133	19.629	2216.537	2256.060
111.147	19.462	2215.756	2252.793
112.162	19.596	2213.616	2252.106
113.176	19.500	2210.949	2247.868
114.191	19.423	2209.527	2245.146
115.206	19.521	2207.532	2244.138
116.220	19.510	2204.997	2241.146
117.235	19.449	2202.670	2237.720
118.249	19.463	2200.897	2235.828
119.264	19.467	2199.695	2234.398
120.279	19.601	2199.054	2235.220
121.293	19.411	2196.852	2230.246
122.308	19.409	2195.034	2228.102
123.322	19.357	2194.254	2226.369
124.337	19.570	2194.216	2228.831
125.352	20.569	2197.933	2245.312
126.366	20.920	2194.275	2245.850
127.381	19.811	2187.858	2224.691
128.395	19.354	2185.248	2215.872
129.410	19.449	2183.205	2214.758
130.424	19.575	2182.043	2214.929
131.439	19.431	2178.971	2209.694
132.454	19.274	2178.357	2206.792
133.468	19.281	2176.193	2204.419
134.483	19.483	2174.231	2204.773
135.497	19.331	2173.225	2201.528
136.512	19.461	2170.246	2199.913
137.527	19.428	2169.255	2198.226
138.541	19.450	2168.533	2197.515
139.556	19.466	2167.403	2196.305
140.570	19.437	2165.337	2193.581
141.585	19.568	2162.408	2192.024
142.600	19.443	2162.655	2190.417
143.614	19.465	2160.840	2188.597
144.629	19.544	2158.605	2187.076
145.643	19.446	2157.706	2184.662
146.658	19.528	2155.378	2183.085
147.673	19.544	2153.028	2180.647
148.687	19.556	2152.222	2179.721
149.702	19.580	2151.295	2178.824
150.716	19.489	2149.233	2175.315
151.731	19.481	2148.528	2174.246
152.746	19.453	2147.689	2172.781
153.760	19.605	2147.728	2174.484
154.775	20.594	2148.770	2187.797
155.789	20.699	2147.282	2187.349
156.804	19.800	2141.125	2169.475
157.819	19.381	2137.435	2160.211
158.833	19.458	2134.615	2158.064
159.848	19.630	2132.515	2157.840
160.862	19.665	2131.647	2157.144
161.877	19.500	2131.356	2154.526
162.892	19.527	2130.152	2153.390
163.906	19.554	2128.792	2152.093
164.921	19.607	2125.819	2149.492
165.935	19.542	2123.837	2146.416
166.950	19.525	2122.820	2144.920
167.964	19.380	2120.181	2140.196
168.979	19.353	2119.345	2138.750
169.994	19.544	2116.519	2138.020
171.008	19.470	2115.412	2135.724
172.023	19.515	2113.829	2134.432
173.037	19.524	2113.967	2134.432
174.052	19.585	2111.239	2132.178
175.067	19.489	2109.185	2128.658
176.081	19.483	2108.686	2127.827
177.096	19.474	2107.058	2125.812
178.110	19.304	2104.928	2121.312
179.125	19.417	2103.783	2121.301
180.140	19.514	2102.164	2120.611
181.154	19.465	2100.734	2118.306
182.169	19.367	2099.151	2115.251
183.183	19.433	2099.414	2116.076
184.198	20.487	2100.883	2130.296
185.213	20.876	2099.060	2132.987
186.227	20.009	2094.451	2117.398
187.242	19.480	2092.768	2108.944
188.256	19.443	2091.020	2106.475
189.271	19.512	2089.843	2105.880
190.286	19.516	2088.244	2104.066
191.300	19.446	2085.428	2100.126
192.315	19.395	2083.477	2097.283
193.329	19.418	2082.298	2096.124
194.344	19.540	2082.313	2097.386
195.359	19.493	2081.140	2095.382
196.373	19.523	2078.595	2092.931
197.388	19.513	2076.027	2089.970
198.402	19.456	2073.263	2086.251
199.417	19.437	2071.957	2084.447
200.432	19.551	2070.199	2083.816
201.446	19.452	2069.137	2081.298
202.461	19.439	2067.642	2079.393
203.475	19.421	2066.319	2077.591
204.490	19.413	2063.996	2074.911
205.504	19.432	2061.883	2072.763
206.519	19.448	2059.504	2070.321
207.534	19.471	2057.525	2068.358
208.548	19.373	2057.563	2066.973
209.563	19.520	2054.892	2065.805
210.577	19.352	2054.524	2063.174
211.592	19.466	2053.891	2063.653
212.607	19.902	2055.329	2070.096
213.621	20.992	2056.768	2084.410
214.636	20.627	2053.844	2076.812
215.650	19.453	2049.434	2058.039
216.665	19.389	2046.007	2053.577
217.680	19.387	2045.503	2052.812
218.694	19.495	2043.644	2051.988
219.709	19.582	2041.862	2050.993
220.723	19.577	2040.817	2049.638
221.738	19.667	2038.734	2048.368
222.753	19.541	2035.816	2043.691
223.767	19.572	2034.580	2042.576
224.782	19.509	2033.357	2040.361
225.796	19.599	2032.353	2040.178
226.811	19.631	2030.237	2038.187
227.826	19.582	2029.099	2036.220
228.840	19.558	2027.806	2034.394
229.855	19.491	2025.892	2031.441
230.869	19.552	2024.761	2030.779
231.884	19.499	2023.410	2028.554
232.899	19.458	2021.224	2025.641
233.913	19.369	2021.277	2024.397
234.928	19.473	2019.177	2023.283
235.942	19.527	2017.139	2021.632
236.957	19.560	2015.698	2020.327
237.972	19.485	2014.372	2017.876
238.986	19.492	2013.800	2017.151
240.001	19.535	2012.225	2015.835
241.015	19.532	2009.981	2013.305
242.030	19.720	2009.596	2014.889
243.045	20.438	2011.910	2025.378
244.059	20.534	2009.500	2023.833
245.074	19.575	2004.566	2007.425
246.088	19.432	2000.613	2001.563
247.103	19.384	1999.377	1999.521
248.117	19.413	1997.818	1998.062
249.132	19.391	1996.868	1996.617
250.147	19.427	1994.575	1994.500
251.161	19.374	1992.606	1991.681
252.176	19.314	1992.386	1990.524
253.190	19.585	1990.548	1991.591
254.205	19.496	1989.033	1988.803
255.220	19.501	1987.595	1987.189
256.234	19.511	1986.820	1986.293
257.249	19.601	1985.220	1985.501
258.263	19.466	1984.384	1982.861
259.278	19.479	1983.068	1981.459
260.293	19.465	1981.758	1979.749
261.307	19.391	1979.934	1976.836
262.322	19.364	1977.594	1973.959
263.336	19.277	1975.401	1970.528
264.351	19.256	1974.171	1968.823
265.366	19.384	1973.488	1969.384
266.380	19.430	1972.290	1968.473
267.395	19.397	1969.878	1965.459
268.409	19.374	1968.383	1963.468
269.424	19.503	1967.397	1963.723
270.439	19.642	1966.256	1963.932
271.453	19.730	1965.792	1964.249
272.468	20.623	1966.633	1975.045
273.482	20.700	1964.318	1973.365
274.497	19.726	1959.600	1957.310
275.512	19.572	1957.010	1952.733
276.526	19.453	1955.628	1949.772
277.541	19.504	1952.932	1947.434
278.555	19.443	1952.151	1945.726
279.570	19.396	1949.693	1942.512
280.585	19.383	1948.445	1940.888
281.599	19.373	1947.461	1939.558
282.614	19.419	1946.729	1939.122
283.628	19.599	1945.356	1939.557
284.643	19.577	1944.069	1937.791
285.657	19.806	1942.420	1938.498
286.672	19.904	1941.570	1938.518
287.687	19.616	1940.192	1933.672
288.701	19.736	1938.534	1933.136
289.716	19.695	1936.807	1930.718
290.730	19.517	1935.106	1926.798
291.745	19.457	1934.003	1924.796
292.760	19.391	1933.425	1923.245
293.774	19.430	1932.677	1922.709
294.789	19.631	1929.953	1922.015
295.803	19.444	1928.417	1918.172
296.818	19.549	1926.600	1917.304
297.833	19.629	1924.718	1916.092
298.847	19.510	1924.589	1914.410
299.862	19.519	1923.367	1913.067
300.876	19.651	1922.447	1913.393
301.891	20.671	1924.219	1926.288
302.906	20.868	1923.185	1927.208
303.920	20.001	1918.940	1913.100
304.935	19.721	1915.566	1906.404
305.949	19.516	1913.875	1902.226
306.964	19.493	1912.580	1900.452
307.979	19.618	1911.247	1900.282
308.993	19.494	1909.171	1896.628
310.008	19.594	1907.692	1896.029
311.022	19.551	1906.536	1894.184
312.037	19.580	1905.334	1893.084
313.052	19.569	1902.664	1890.078
314.066	19.643	1901.545	1889.557
315.081	19.579	1900.372	1887.458
316.095	19.708	1899.506	1887.791
317.110	19.695	1897.953	1885.880
318.125	19.628	1896.754	1883.722
319.139	19.654	1895.111	1882.150
320.154	19.691	1893.235	1880.467
321.168	19.615	1891.528	1877.721
322.183	19.627	1890.320	1876.426
323.197	19.518	1888.836	1873.536
324.212	19.367	1886.856	1869.711
325.227	19.370	1885.618	1868.292
326.241	19.442	1883.592	1866.844
327.256	19.446	1882.546	1865.620
328.270	19.399	1882.351	1864.693
329.285	19.467	1881.711	1864.581
330.300	19.789	1883.538	1869.659
331.314	20.888	1883.493	1881.334
332.329	20.639	1880.159	1875.073
333.343	19.683	1876.010	1860.381
334.358	19.540	1874.178	1856.787
335.373	19.512	1872.047	1854.152
336.387	19.456	1869.482	1850.790
337.402	19.581	1867.556	1850.009
338.416	19.511	1866.818	1848.305
339.431	19.502	1866.490	1847.662
340.446	19.617	1864.358	1846.567
341.460	19.730	1863.512	1846.722
342.475	19.593	1861.953	1843.484
343.489	19.677	1860.642	1842.868
344.504	19.743	1859.154	1841.878
345.519	19.747	1858.001	1840.556
346.533	19.728	1855.588	1837.746
347.548	19.692	1855.567	1837.111
348.562	19.820	1853.633	1836.344
349.577	19.630	1853.098	1833.575
350.592	19.584	1851.136	1830.918
351.606	19.616	1849.142	1829.068
352.621	19.481	1847.928	1826.213
353.635	19.369	1846.301	1823.192
354.650	19.294	1844.846	1820.750
355.665	19.262	1844.227	1819.574
356.679	19.293	1842.963	1818.446
357.694	19.293	1840.577	1815.868
358.708	19.590	1839.047	1817.283
359.723	20.044	1839.992	1822.807
360.738	21.044	1841.322	1834.484
361.752	20.678	1837.208	1826.302
362.767	19.511	1834.710	1811.294
363.781	19.263	1832.358	1806.151
364.796	19.256	1831.600	1805.112
365.810	19.365	1830.395	1804.853
366.825	19.469	1828.736	1804.091
367.840	19.406	1827.329	1801.823
368.854	19.421	1826.725	1801.172
369.869	19.233	1825.755	1798.028
370.883	19.304	1824.071	1796.899
371.898	19.488	1822.268	1796.834
372.913	19.416	1822.276	1795.875
373.927	19.662	1821.246	1797.220
374.942	19.617	1819.859	1795.161
375.956	19.609	1818.223	1793.249
376.971	19.458	1815.629	1788.901
377.986	19.299	1814.059	1785.489
379.000	19.452	1812.576	1785.405
380.015	19.699	1811.830	1787.019
381.029	19.672	1810.215	1784.941
382.044	19.660	1808.147	1782.561
383.059	19.635	1806.897	1780.857
384.073	19.615	1805.603	1779.159
385.088	19.444	1804.909	1776.491
386.102	19.510	1803.069	1775.154
387.117	19.617	1800.044	1773.060
388.132	19.271	1800.808	1770.035
389.146	19.706	1802.416	1775.893
390.161	20.836	1802.959	1787.882
391.175	20.665	1798.274	1781.267
392.190	19.656	1792.815	1765.289
393.205	19.388	1790.396	1759.943
394.219	19.366	1789.397	1758.526
395.234	19.443	1788.720	1758.436
396.248	19.496	1786.593	1756.685
397.263	19.494	1784.700	1754.590
398.278	19.297	1782.914	1750.608
399.292	19.319	1782.150	1749.875
400.307	19.478	1781.527	1750.673
401.321	19.587	1779.933	1750.016
402.336	19.595	1778.346	1748.327
403.350	19.473	1778.145	1746.670
404.365	19.735	1776.266	1747.280
405.380	19.928	1775.028	1747.814
406.394	20.060	1774.768	1748.689
407.409	20.149	1772.915	1747.554
408.423	19.889	1770.974	1742.802
409.438	19.865	1768.318	1739.735
410.453	19.717	1768.687	1738.390
411.467	19.789	1767.646	1737.891
412.482	19.654	1766.470	1735.161
413.496	19.552	1765.103	1732.589
414.511	19.623	1762.311	1730.355
415.526	19.490	1760.652	1727.174
416.540	19.412	1759.337	1724.895
417.555	19.450	1758.618	1724.364
418.569	19.368	1757.511	1722.249
419.584	19.310	1757.667	1721.622
420.599	19.645	1757.771	1724.879
421.613	19.576	1757.045	1723.266
422.628	19.699	1755.005	1722.294
423.642	19.747	1752.442	1720.044
424.657	19.628	1752.603	1718.806
425.672	19.672	1750.322	1716.804
426.686	19.449	1748.775	1712.864
427.701	19.403	1747.342	1710.792
428.715	19.427	1745.537	1709.055
429.730	19.524	1744.602	1708.901
430.745	19.367	1744.024	1706.569
431.759	19.495	1742.760	1706.402
432.774	19.361	1741.219	1703.354
433.788	19.101	1739.831	1699.218
434.803	19.040	1738.490	1697.102
435.818	19.057	1737.739	1696.329
436.832	18.981	1737.203	1694.852
437.847	17.661	1729.239	1673.863
438.861	9.377	1707.934	1571.958
439.876	1.529	1694.416	1482.629
440.890	0.236	1690.409	1466.302
441.905	0.270	1688.705	1464.981
442.920	0.169	1688.041	1463.242
443.934	0.189	1685.721	1461.243
444.949	0.247	1684.718	1460.772
445.963	0.285	1684.371	1460.666
446.978	0.109	1684.057	1458.507
447.993	0.081	1682.726	1456.901
449.007	0.088	1680.418	1454.799
450.022	0.150	1678.381	1453.464
451.036	0.140	1677.230	1452.199
452.051	0.656	1679.745	1459.207
453.066	7.581	1695.685	1540.569
454.080	16.309	1710.277	1639.151
455.095	18.453	1713.085	1662.574
456.109	18.724	1713.052	1664.984
457.124	18.743	1712.613	1664.547
458.139	18.754	1711.061	1662.942
459.153	18.780	1710.108	1662.074
460.168	18.733	1708.185	1659.547
461.182	18.725	1706.606	1657.738
462.197	18.780	1705.141	1656.645
463.212	18.745	1704.064	1655.065
464.226	18.755	1702.518	1653.458
465.241	18.734	1701.645	1652.218
466.255	18.697	1701.174	1651.203
467.270	18.752	1698.966	1649.386
468.285	18.748	1697.639	1647.870
469.299	18.850	1695.944	1647.005
470.314	18.816	1694.185	1644.777
471.328	18.799	1692.871	1643.134
472.343	18.755	1691.806	1641.484
473.358	18.709	1690.993	1640.061
474.372	18.775	1689.795	1639.330
475.387	18.850	1687.935	1638.051
476.401	18.844	1686.985	1636.881
477.416	18.724	1685.806	1634.387
478.430	18.701	1684.506	1632.712
479.445	18.756	1683.659	1632.219
480.460	18.773	1682.291	1630.861
481.474	18.842	1680.638	1629.718
482.489	18.701	1679.988	1627.550
483.503	18.633	1678.248	1625.025
484.518	18.626	1677.109	1623.659
485.533	18.761	1675.191	1622.887
486.547	18.666	1674.017	1620.661
487.562	18.666	1673.225	1619.700
488.576	18.619	1672.412	1618.267
489.591	18.685	1670.454	1616.811
490.606	18.810	1669.087	1616.472
491.620	18.758	1667.946	1614.684
492.635	18.724	1665.798	1612.090
493.649	18.724	1664.267	1610.411
494.664	18.768	1663.287	1609.688
495.679	18.603	1662.850	1607.522
496.693	18.577	1661.127	1605.415
497.708	18.611	1660.125	1604.576
498.722	18.571	1659.045	1602.961
499.737	18.692	1657.364	1602.281
500.752	18.644	1655.811	1600.140
501.766	18.742	1654.256	1599.365
502.781	18.728	1652.639	1597.479
503.795	18.838	1651.188	1596.913
504.810	18.776	1650.193	1595.179
505.825	18.746	1649.589	1594.128
506.839	18.717	1648.673	1592.778
507.854	18.607	1647.813	1590.729
508.868	18.601	1645.779	1588.518
509.883	18.620	1644.600	1587.373
510.898	18.754	1643.272	1587.139
511.912	18.509	1642.110	1583.554
512.927	18.612	1639.874	1582.165
513.941	18.554	1638.978	1580.577
514.956	18.572	1638.101	1579.705
515.971	18.789	1636.436	1579.919
516.985	18.729	1635.448	1578.221
518.000	18.643	1635.260	1577.054
519.014	18.641	1633.903	1575.543
520.029	18.603	1631.539	1572.726
521.043	18.563	1629.946	1570.632
522.058	18.578	1629.229	1569.893
523.073	18.717	1628.022	1569.813
524.087	18.769	1626.398	1568.543
525.102	18.621	1625.933	1566.545
526.116	18.795	1624.888	1566.943
527.131	18.792	1624.353	1566.218
528.146	18.679	1623.599	1564.268
529.160	18.789	1621.152	1562.725
530.175	18.646	1620.609	1560.707
531.189	18.624	1618.994	1558.761
532.204	18.655	1617.420	1557.345
533.219	18.707	1616.598	1556.847
534.233	18.790	1615.832	1556.678
535.248	18.620	1615.410	1554.530
536.262	18.588	1614.477	1553.160
537.277	18.664	1612.565	1551.821
538.292	18.601	1611.580	1550.115
539.306	18.629	1609.738	1548.416
540.321	18.611	1608.267	1546.650
541.335	18.781	1606.628	1546.425
542.350	18.782	1604.962	1544.646
543.365	18.699	1603.430	1542.237
544.379	18.626	1602.544	1540.548
545.394	18.659	1601.388	1539.550
546.408	18.725	1600.344	1538.957
547.423	18.672	1599.294	1537.281
548.438	18.670	1598.356	1536.175
549.452	18.645	1597.046	1534.508
550.467	18.687	1595.512	1533.235
551.481	18.648	1594.704	1531.920
552.496	18.681	1593.332	1530.713
553.511	18.678	1591.966	1529.193
554.525	18.565	1591.205	1527.265
555.540	18.551	1590.655	1526.433
556.554	18.626	1589.577	1525.889
557.569	18.594	1587.370	1523.301
558.583	18.653	1586.139	1522.458
559.598	18.604	1584.681	1520.440
560.613	18.609	1583.576	1519.247
561.627	18.584	1582.524	1517.834
562.642	18.573	1581.229	1516.311
563.656	18.573	1579.228	1514.211
564.671	18.415	1578.428	1511.860
565.686	18.497	1577.823	1511.828
566.700	18.455	1576.452	1509.955
567.715	18.513	1574.690	1508.605
568.729	18.569	1573.035	1507.334
569.744	18.586	1571.320	1505.660
570.759	18.550	1570.890	1504.751
571.773	18.555	1570.105	1503.861
572.788	18.479	1568.623	1501.593
573.802	18.585	1566.791	1500.594
574.817	18.683	1564.887	1499.451
575.832	18.463	1564.629	1497.090
576.846	18.628	1563.315	1497.106
577.861	18.567	1562.915	1496.004
578.875	18.656	1562.215	1495.936
579.890	18.582	1560.891	1493.840
580.905	18.620	1559.851	1492.994
581.919	18.483	1559.480	1491.268
582.934	18.624	1557.718	1490.639
583.948	18.527	1556.675	1488.609
584.963	18.602	1555.151	1487.627
585.978	18.481	1554.605	1485.873
586.992	18.542	1553.462	1485.140
588.007	18.535	1552.853	1484.319
589.021	18.552	1552.384	1483.838
590.036	18.555	1550.874	1482.246
591.051	18.577	1548.690	1480.170
592.065	18.717	1547.181	1479.759
593.080	18.612	1545.409	1476.984
594.094	18.593	1544.016	1475.313
595.109	18.602	1542.382	1473.652
596.123	18.653	1541.412	1472.988
597.138	18.695	1540.229	1472.044
598.153	18.628	1538.925	1470.045
599.167	18.557	1538.068	1468.439
600.182	18.536	1536.806	1466.876
601.196	18.650	1535.463	1466.393
602.211	18.660	1534.609	1465.491
603.226	18.642	1533.376	1463.983
604.240	18.652	1531.881	1462.462
605.255	18.647	1530.355	1460.792
606.269	18.631	1530.071	1460.213
607.284	18.673	1528.364	1458.768
608.299	18.645	1526.980	1457.029
609.313	18.569	1526.583	1455.832
610.328	18.669	1525.065	1455.058
611.342	18.511	1524.098	1452.616
612.357	18.532	1523.702	1452.246
613.372	18.571	1521.469	1450.277
614.386	18.509	1520.251	1448.413
615.401	18.533	1519.896	1448.103
616.415	18.563	1519.341	1447.658
617.430	18.450	1518.277	1445.515
618.445	18.425	1516.737	1443.657
619.459	18.649	1514.486	1443.236
620.474	18.542	1514.372	1442.053
621.488	18.596	1513.264	1441.282
622.503	18.588	1512.438	1440.253
623.518	18.503	1511.716	1438.680
624.532	18.493	1509.969	1436.763
625.547	18.541	1508.243	1435.349
626.561	18.539	1508.013	1434.940
627.576	18.524	1506.107	1432.831
628.591	18.607	1505.316	1432.603
629.605	18.492	1505.052	1431.212
630.620	18.600	1503.093	1430.083
631.634	18.648	1502.437	1429.690
632.649	18.686	1500.781	1428.262
633.663	18.556	1499.588	1425.873
634.678	18.466	1498.345	1423.764
635.693	18.337	1496.976	1421.215
636.707	18.514	1494.991	1420.641
637.722	18.516	1494.108	1419.649
638.736	18.539	1493.120	1418.731
639.751	18.558	1492.647	1418.267
640.766	18.519	1491.417	1416.602
641.780	18.645	1490.093	1416.225
642.795	18.532	1488.963	1414.046
643.809	18.603	1488.286	1413.823
644.824	18.455	1488.029	1412.180
645.839	18.462	1487.127	1411.214
646.853	18.644	1485.258	1410.773
647.868	18.493	1484.310	1408.458
648.882	18.602	1482.471	1407.444
649.897	18.665	1481.139	1406.527
650.912	18.588	1480.281	1404.910
651.926	18.602	1479.066	1403.708
652.941	18.437	1478.534	1401.679
653.955	18.731	1475.937	1401.458
654.970	18.708	1474.261	1399.510
655.985	18.666	1473.315	1398.099
656.999	18.729	1472.407	1397.588
658.014	18.701	1470.951	1395.812
659.028	18.508	1470.880	1393.998
660.043	18.583	1470.140	1393.739
661.058	18.701	1468.115	1392.620
662.072	18.578	1467.724	1391.082
663.087	18.663	1466.159	1390.121
664.101	18.665	1464.669	1388.558
665.116	18.680	1463.437	1387.344
666.131	18.618	1462.699	1385.979
667.145	18.577	1461.660	1384.492
668.160	18.607	1460.314	1383.293
669.174	18.595	1459.241	1382.020
670.189	18.405	1458.162	1379.296
671.204	18.401	1457.717	1378.678
672.218	18.440	1457.761	1378.868
673.233	18.532	1455.781	1377.570
674.247	18.465	1454.556	1375.704
675.262	18.637	1452.837	1375.301
676.276	18.497	1452.385	1373.583
677.291	18.563	1451.184	1372.814
678.306	18.822	1449.624	1373.252
679.320	18.570	1448.459	1369.960
680.335	18.554	1447.891	1369.135
681.349	18.566	1447.175	1368.386
682.364	18.557	1445.744	1366.803
683.379	18.641	1443.742	1365.416
684.393	18.564	1442.623	1363.579
685.408	18.634	1441.828	1363.221
686.422	18.595	1441.337	1362.283
687.437	18.444	1441.436	1361.012
688.452	18.550	1440.068	1360.395
689.466	18.658	1438.462	1359.579
690.481	18.459	1436.962	1356.412
691.495	18.436	1436.563	1355.692
692.510	18.573	1435.140	1355.279
693.525	18.554	1433.356	1353.278
694.539	18.509	1432.500	1351.954
695.554	18.324	1431.975	1349.827
696.568	18.560	1430.447	1350.097
697.583	18.622	1429.397	1349.433
698.598	18.461	1428.773	1347.410
699.612	18.474	1427.916	1346.546
700.627	18.425	1426.653	1344.802
701.641	18.451	1425.668	1343.921
702.656	18.453	1424.564	1342.731
703.671	18.466	1424.170	1342.303
704.685	18.631	1423.370	1342.691
705.700	18.567	1421.953	1340.683
706.714	18.566	1420.773	1339.410
707.729	18.570	1419.185	1337.781
708.744	18.437	1418.072	1335.525
709.758	18.624	1416.876	1335.710
710.773	18.660	1416.133	1335.130
711.787	18.656	1414.430	1333.329
712.802	18.675	1412.780	1331.763
713.816	18.609	1413.073	1331.363
714.831	18.650	1411.717	1330.250
715.846	18.629	1409.971	1328.280
716.860	18.596	1409.279	1327.216
717.875	18.727	1408.408	1327.251
718.889	18.595	1406.781	1324.533
719.904	18.609	1406.288	1324.023
720.919	18.667	1404.647	1322.768
721.933	18.669	1403.875	1321.898
722.948	18.556	1403.469	1320.482
723.962	18.663	1402.377	1320.126
724.977	18.703	1400.860	1318.845
725.992	18.648	1399.881	1317.340
727.006	18.599	1398.250	1315.274
728.021	18.705	1396.931	1314.693
729.035	18.565	1395.724	1312.320
730.050	18.680	1394.528	1311.923
731.065	18.645	1393.498	1310.532
732.079	18.540	1393.149	1309.233
733.094	18.417	1392.644	1307.664
734.108	18.590	1390.176	1306.514
735.123	18.718	1388.627	1305.877
736.138	18.478	1388.769	1304.022
737.152	18.636	1387.200	1303.599
738.167	18.701	1385.905	1302.726
739.181	18.569	1385.392	1301.080
740.196	18.584	1384.901	1300.573
741.211	18.541	1383.961	1299.208
742.225	18.468	1383.862	1298.403
743.240	18.385	1381.972	1295.844
744.254	18.460	1380.240	1294.636
745.269	18.467	1379.125	1293.486
746.284	18.589	1377.761	1292.979
747.298	18.594	1377.223	1292.354
748.313	18.475	1376.238	1290.379
749.327	18.542	1375.569	1290.101
750.342	18.434	1375.197	1288.783
751.356	18.517	1373.554	1287.715
752.371	18.652	1372.528	1287.613
753.386	18.432	1371.960	1285.274
754.400	18.503	1370.973	1284.727
755.415	18.596	1369.267	1283.673
756.429	18.751	1366.962	1282.522
757.444	18.684	1366.844	1281.757
758.459	18.602	1365.997	1280.196
759.473	18.663	1365.345	1279.885
760.488	18.714	1363.970	1278.827
761.502	18.702	1362.668	1277.367
762.517	18.612	1361.851	1275.768
763.532	18.674	1360.160	1274.496
764.546	18.609	1359.689	1273.418
765.561	18.620	1359.127	1272.822
766.575	18.668	1357.500	1271.500
767.590	18.641	1356.389	1270.113
768.605	18.697	1355.356	1269.406
769.619	18.568	1354.127	1267.144
770.634	18.651	1352.290	1265.892
771.648	18.823	1351.425	1266.204
772.663	18.596	1351.416	1264.363
773.678	18.480	1350.970	1262.931
774.692	18.664	1349.552	1262.815
775.707	18.501	1349.919	1261.803
776.721	18.587	1348.516	1260.975
777.736	18.787	1346.970	1260.859
778.751	18.688	1346.435	1259.476
779.765	18.541	1345.095	1256.987
780.780	18.583	1344.074	1256.192
781.794	18.564	1343.297	1255.177
782.809	18.399	1342.240	1252.824
783.824	18.449	1341.290	1252.156
784.838	18.379	1339.929	1250.226
785.853	18.503	1339.199	1250.298
786.867	18.384	1338.879	1248.979
787.882	18.458	1337.555	1248.138
788.897	18.465	1336.382	1246.944
789.911	18.681	1335.811	1247.841
790.926	18.606	1333.896	1245.357
791.940	18.479	1333.183	1243.617
792.955	18.444	1332.123	1242.220
793.969	18.494	1330.863	1241.263
794.984	18.534	1329.777	1240.390
795.999	18.556	1328.956	1239.635
797.013	18.693	1326.772	1238.446
798.028	18.680	1325.597	1237.104
799.042	18.701	1325.303	1236.836
800.057	18.684	1323.913	1235.265
801.072	18.591	1323.092	1233.678
802.086	18.617	1322.083	1232.779
803.101	18.633	1320.964	1231.707
804.115	18.611	1320.289	1230.770
805.130	18.585	1318.655	1228.912
806.145	18.647	1317.448	1228.087
807.159	18.733	1316.590	1227.754
808.174	18.793	1314.931	1226.493
809.188	18.858	1313.768	1225.727
810.203	18.674	1312.138	1222.742
811.218	18.533	1311.200	1220.714
812.232	18.710	1309.857	1220.585
813.247	18.790	1308.736	1219.966
814.261	18.676	1308.253	1218.553
815.276	18.699	1307.887	1218.231
816.291	18.584	1306.991	1216.433
817.305	18.726	1305.660	1216.056
818.320	18.786	1303.949	1214.742
819.334	18.664	1302.710	1212.577
820.349	18.787	1301.372	1212.061
821.364	18.608	1299.738	1209.122
822.378	18.761	1298.518	1208.932
823.393	18.540	1297.035	1205.841
824.407	18.462	1296.382	1204.538
825.422	18.504	1296.152	1204.475
826.437	18.558	1294.868	1203.519
827.451	18.384	1292.876	1200.300
828.466	18.480	1291.869	1199.896
829.480	18.596	1290.057	1198.883
830.495	18.298	1288.595	1195.292
831.509	18.557	1288.032	1196.442
832.524	18.526	1287.042	1195.162
833.539	18.471	1285.690	1193.378
834.553	18.663	1284.633	1193.599
835.568	18.580	1283.471	1191.798
836.582	18.684	1282.241	1191.239
837.597	18.676	1280.821	1189.717
838.612	18.787	1279.284	1188.923
839.626	18.801	1278.647	1188.282
840.641	18.673	1278.501	1187.121
841.655	18.581	1277.993	1185.865
842.670	18.638	1276.349	1184.591
843.685	18.748	1275.255	1184.199
844.699	18.688	1274.256	1182.711
845.714	18.683	1272.610	1181.009
846.728	18.742	1271.968	1180.681
847.743	18.555	1271.203	1178.533
848.758	18.712	1270.167	1178.518
849.772	18.534	1268.598	1175.695
850.787	18.629	1266.932	1174.666
851.801	18.580	1265.925	1173.254
852.816	18.416	1264.981	1171.113
853.831	18.482	1263.161	1169.741
854.845	18.652	1260.718	1168.497
855.860	18.414	1260.059	1166.119
856.874	18.393	1259.264	1165.104
857.889	18.374	1258.197	1163.844
858.904	18.594	1256.477	1163.616
859.918	18.529	1254.482	1161.184
860.933	18.596	1253.748	1160.825
861.947	18.487	1253.280	1159.510
862.962	18.561	1251.938	1158.635
863.977	18.498	1250.453	1156.691
864.991	18.465	1250.191	1156.087
866.006	18.551	1249.973	1156.334
867.020	18.678	1248.124	1155.345
868.035	18.557	1247.104	1153.444
869.049	18.609	1246.571	1153.159
870.064	18.661	1245.884	1152.739
871.079	18.708	1244.639	1151.765
872.093	18.737	1244.081	1151.307
873.108	18.624	1243.201	1149.595
874.122	18.881	1241.548	1149.658
875.137	18.778	1241.058	1148.372
876.152	18.907	1240.231	1148.337
877.166	19.007	1238.151	1146.945
878.181	18.601	1237.910	1143.861
879.195	18.806	1237.080	1144.332
880.210	18.778	1235.539	1142.580
881.225	18.858	1234.349	1141.880
882.239	18.788	1233.511	1140.502
883.254	18.691	1233.085	1139.318
884.268	18.813	1231.828	1138.837
885.283	18.915	1230.172	1137.846
886.298	18.840	1229.217	1136.331
887.312	18.750	1228.556	1134.985
888.327	18.862	1227.112	1134.258
889.341	18.830	1225.894	1132.786
890.356	18.719	1225.553	1131.599
891.371	18.730	1225.427	1131.417
892.385	18.669	1224.635	1130.148
893.400	18.700	1223.738	1129.392
894.414	18.619	1222.282	1127.379
895.429	18.790	1220.037	1126.301
896.444	18.834	1218.770	1125.286
897.458	18.719	1218.184	1123.849
898.473	18.692	1217.311	1122.731
899.487	18.757	1216.707	1122.469
900.502	18.880	1215.293	1121.835
901.517	18.939	1213.878	1120.787
902.531	18.846	1213.246	1119.458
903.546	18.874	1212.506	1118.823
904.560	19.021	1211.338	1118.574
905.575	18.891	1210.836	1117.127
906.589	18.970	1210.895	1117.564
907.604	18.785	1209.630	1115.057
