DTS Sentinel unit serial number:	SN409020Multiplexer serial number:	ORYXHardware model number:	OX4-SRSoftware version number:	ORYX F/W v3.00 Oryx Data Collector v3.7.2.0data status	okinstallation	HaddamTimeLapsedifferential loss correction	single-endedforward channel	channel 3reverse channel	N/Adate	2011/06/21time	21:56:18forward acquisition time	30.00reverse acquisition time	0.00gamma	498.7831k internal	0.1759k external	0.1759temperature offset calibration	1.0074default loss term (dB/km)	0.3790temperature slope calibration	1.3530multiplexer offset coefficient	1.0000multiplexer slope coefficient	1.0000fibre end	0.00T internal ref (°C)	25.16T ext. ref 1 (°C)	19.16T ext. ref 2 (°C)	0.03length (m)	temperature (°C)	Stokes	anti-Stokes-747.200	-92.701	0.519	-0.191
-746.185	174.024	-0.024	-0.045
-745.171	47.510	-0.150	0.184
-744.156	-4.934	0.452	0.411
-743.142	-24.897	-0.420	0.329
-742.127	-3.863	0.397	0.364
-741.112	462.848	0.118	0.350
-740.098	175.859	-0.256	0.493
-739.083	-47.708	-0.261	0.167
-738.069	-73.633	-0.164	-0.079
-737.054	496.274	0.069	0.212
-736.039	225.716	-0.152	0.326
-735.025	246.753	-0.035	-0.079
-734.010	68.697	-0.229	0.310
-732.996	-21.235	0.119	0.096
-731.981	-200.000	-0.001	-0.070
-730.966	800.000	0.077	0.338
-729.952	-200.000	0.028	-0.266
-728.937	-129.466	-0.124	0.023
-727.923	-150.929	0.353	-0.035
-726.908	-13.594	0.063	-0.054
-725.894	465.259	-0.043	-0.127
-724.879	76.541	-0.081	0.114
-723.864	134.191	-0.141	-0.242
-722.850	-32.933	0.103	0.075
-721.835	-111.687	0.265	-0.071
-720.821	-41.267	-0.312	0.212
-719.806	553.891	0.104	0.332
-718.791	-53.445	0.171	0.103
-717.777	-185.574	-0.090	0.002
-716.762	-36.322	-0.171	0.121
-715.748	-121.255	0.146	-0.032
-714.733	231.732	0.282	0.612
-713.718	90.975	-0.227	0.337
-712.704	100.330	0.238	-0.365
-711.689	-121.854	-0.353	-0.076
-710.675	-101.926	-0.475	0.151
-709.660	-152.415	-0.409	0.038
-708.645	-138.833	-0.133	0.019
-707.631	-20.684	-0.318	0.257
-706.616	370.903	-0.153	-0.412
-705.602	800.000	-0.119	-0.551
-704.587	800.000	-0.029	-0.138
-703.572	29.197	-0.259	0.290
-702.558	-163.038	-0.207	0.013
-701.543	-154.577	-0.380	-0.033
-700.529	-150.249	0.513	0.052
-699.514	-76.342	-0.076	0.035
-698.499	-133.075	-0.239	-0.040
-697.485	-98.426	-0.157	0.053
-696.470	-91.900	-0.231	-0.086
-695.456	-200.000	0.062	0.463
-694.441	800.000	0.132	0.625
-693.426	-9.262	-0.455	0.401
-692.412	-52.112	0.274	0.167
-691.397	209.656	0.101	0.210
-690.383	141.935	0.240	0.421
-689.368	-8.182	-0.129	-0.114
-688.354	427.835	0.033	0.095
-687.339	-0.648	-0.162	-0.151
-686.324	-18.240	0.046	0.038
-685.310	658.362	0.044	-0.151
-684.295	-157.151	-0.377	-0.030
-683.281	-20.380	-0.192	0.156
-682.266	-62.116	-0.190	0.104
-681.251	12.267	-0.177	0.180
-680.237	-58.078	0.627	0.360
-679.222	47.610	-0.407	-0.501
-678.208	-79.584	-0.233	0.103
-677.193	-200.000	0.032	-0.496
-676.178	24.921	-0.344	-0.376
-675.164	498.246	0.191	-0.584
-674.149	-200.000	-0.547	-0.000
-673.135	-58.360	-0.492	-0.281
-672.120	43.500	-0.138	-0.166
-671.105	-65.053	0.217	0.115
-670.091	214.665	0.179	-0.376
-669.076	34.432	0.216	-0.249
-668.062	-108.733	-0.322	0.090
-667.047	88.562	-0.173	-0.254
-666.032	33.403	-0.397	0.455
-665.018	800.000	0.039	0.201
-664.003	-89.201	0.238	-0.092
-662.989	-200.000	-0.026	0.314
-661.974	-38.412	-0.348	-0.242
-660.959	-135.227	-0.363	0.057
-659.945	78.022	0.088	-0.124
-658.930	800.000	0.082	0.413
-657.916	-156.379	0.229	0.019
-656.901	-200.000	-0.022	-0.256
-655.886	-96.652	0.527	-0.182
-654.872	25.382	0.145	0.159
-653.857	456.108	0.119	-0.351
-652.843	800.000	-0.067	-0.335
-651.828	-33.128	-0.087	-0.064
-650.814	-84.654	0.189	0.078
-649.799	263.788	0.074	0.170
-648.784	-133.391	0.322	0.053
-647.770	-15.153	-0.134	0.112
-646.755	-195.594	0.505	0.005
-645.741	-99.602	0.378	0.124
-644.726	-134.442	-0.184	-0.029
-643.711	13.382	0.191	-0.195
-642.697	174.178	-0.168	-0.320
-641.682	-42.570	-0.440	0.294
-640.668	331.986	0.069	-0.176
-639.653	-95.557	-0.025	-0.009
-638.638	-4.045	0.184	-0.168
-637.624	-40.976	-0.049	-0.033
-636.609	-200.000	-0.013	0.204
-635.595	-13.683	-0.200	0.170
-634.580	-116.902	0.063	-0.015
-633.565	10.561	-0.344	0.345
-632.551	465.245	-0.150	0.444
-631.536	800.000	-0.012	0.066
-630.522	74.965	0.271	-0.376
-629.507	66.302	-0.198	0.265
-628.492	-101.815	-0.098	0.031
-627.478	-60.038	0.280	0.157
-626.463	125.961	0.153	0.254
-625.449	-141.751	-0.559	-0.073
-624.434	-85.828	0.140	0.057
-623.419	-59.028	-0.121	0.068
-622.405	265.718	-0.063	0.146
-621.390	-94.854	-0.322	-0.114
-620.376	16.849	-0.026	0.027
-619.361	-51.995	0.141	-0.086
-618.346	-200.000	-0.036	-0.289
-617.332	-200.000	0.001	-0.028
-616.317	-104.930	-0.539	-0.161
-615.303	-91.819	0.394	0.146
-614.288	-164.006	0.148	-0.009
-613.273	-138.153	0.508	-0.073
-612.259	800.000	0.036	-0.188
-611.244	225.069	-0.169	-0.362
-610.230	-125.059	-0.365	-0.073
-609.215	222.858	-0.212	-0.452
-608.201	45.374	-0.224	-0.272
-607.186	-120.763	0.693	0.153
-606.171	-31.475	0.296	0.218
-605.157	-9.765	0.753	0.658
-604.142	-157.250	-0.251	0.020
-603.128	-28.762	-0.515	0.389
-602.113	-121.677	0.521	-0.112
-601.098	-98.259	0.340	0.114
-600.084	-105.774	-0.688	0.203
-599.069	-51.397	-0.174	-0.107
-598.055	800.000	-0.031	0.151
-597.040	-85.266	0.353	0.144
-596.025	257.444	0.097	0.220
-595.011	800.000	0.008	0.040
-593.996	-52.804	0.141	-0.085
-592.982	-159.204	-0.169	-0.012
-591.967	-91.816	0.417	0.155
-590.952	-34.189	0.340	0.245
-589.938	-181.054	0.065	-0.002
-588.923	-62.985	0.411	-0.222
-587.909	-159.331	0.232	-0.017
-586.894	-21.782	-0.268	-0.214
-585.879	115.309	0.100	0.161
-584.865	-71.263	-0.361	-0.177
-583.850	-67.937	0.489	0.250
-582.836	-132.246	0.378	-0.064
-581.821	-98.231	0.342	0.115
-580.806	-130.516	0.663	-0.117
-579.792	-114.882	-0.315	0.078
-578.777	800.000	0.155	-0.596
-577.763	-86.633	-0.176	-0.070
-576.748	-76.061	-0.499	-0.231
-575.733	800.000	0.088	0.395
-574.719	800.000	-0.045	-0.236
-573.704	36.629	-0.075	0.087
-572.690	-151.834	0.436	-0.042
-571.675	-10.401	-0.366	-0.318
-570.661	-200.000	-0.001	0.096
-569.646	-14.082	0.139	-0.117
-568.631	-180.720	-0.357	0.009
-567.617	762.609	0.084	0.302
-566.602	153.095	0.127	-0.229
-565.588	-19.057	0.283	0.231
-564.573	-117.086	0.279	-0.066
-563.558	56.266	0.141	0.179
-562.544	-36.275	0.257	-0.182
-561.529	-82.251	0.116	-0.049
-560.515	180.748	0.241	-0.467
-559.500	196.049	-0.194	0.389
-558.485	-53.686	-0.239	0.143
-557.471	96.168	0.204	-0.306
-556.456	-142.471	-0.230	-0.029
-555.442	-200.000	0.001	-0.071
-554.427	-200.000	0.012	-0.390
-553.412	-200.000	0.019	0.149
-552.398	191.536	0.225	-0.447
-551.383	107.841	0.060	-0.094
-550.369	415.510	0.092	-0.259
-549.354	-126.739	0.112	-0.022
-548.339	31.076	0.091	0.102
-547.325	-34.415	-0.059	-0.043
-546.310	73.202	-0.034	0.047
-545.296	-8.044	-0.202	-0.178
-544.281	-55.906	-0.446	0.260
-543.266	45.213	-0.185	0.223
-542.252	800.000	-0.122	0.577
-541.237	-40.788	-0.153	-0.103
-540.223	225.277	0.291	-0.619
-539.208	143.081	0.145	0.253
-538.193	18.523	-0.253	-0.265
-537.179	-91.748	-0.207	0.077
-536.164	-118.568	0.322	0.074
-535.150	-40.241	-0.244	0.166
-534.135	16.414	0.390	0.403
-533.121	-90.030	-0.316	-0.120
-532.106	-115.589	0.238	-0.058
-531.091	800.000	-0.028	0.149
-530.077	-41.928	-0.109	-0.073
-529.062	26.812	0.243	-0.267
-528.048	-122.440	-0.328	0.069
-527.033	-93.228	-0.696	-0.252
-526.018	800.000	0.042	0.156
-525.004	167.388	0.108	0.201
-523.989	-200.000	0.001	0.127
-522.975	-200.000	-0.085	0.718
-521.960	201.179	0.201	0.407
-520.945	87.157	0.161	0.233
-519.931	-85.816	0.112	-0.045
-518.916	122.803	0.187	0.308
-517.902	86.573	0.359	-0.519
-516.887	-80.761	-0.168	-0.073
-515.872	800.000	0.035	0.145
-514.858	-119.170	0.366	-0.083
-513.843	-200.000	-0.010	0.149
-512.829	-104.976	0.279	-0.083
-511.814	-63.266	-0.244	0.131
-510.799	-146.573	-0.025	-0.003
-509.785	-200.000	0.007	-0.127
-508.770	-135.200	0.312	0.049
-507.756	105.919	-0.082	0.128
-506.741	-63.701	0.293	0.157
-505.726	-72.118	-0.486	0.235
-504.712	756.611	0.082	0.293
-503.697	146.354	-0.167	-0.295
-502.683	699.224	-0.146	-0.505
-501.668	9.958	-0.192	0.191
-500.653	590.489	-0.131	0.427
-499.639	-80.145	0.289	-0.126
-498.624	21.064	-0.426	-0.453
-497.610	67.134	-0.190	0.254
-496.595	-1.331	-0.534	0.493
-495.581	-200.000	0.008	0.104
-494.566	-191.580	0.299	-0.004
-493.551	65.522	0.023	0.031
-492.537	-43.275	0.234	0.155
-491.522	-96.542	0.213	-0.073
-490.508	-129.330	0.044	0.008
-489.493	195.952	-0.297	-0.593
-488.478	-103.984	-0.400	-0.121
-487.464	-69.083	-0.157	-0.079
-486.449	258.078	-0.110	-0.249
-485.435	-112.322	-0.455	0.118
-484.420	171.598	0.117	-0.221
-483.405	569.812	-0.075	0.239
-482.391	-200.000	-0.049	0.303
-481.376	-101.389	0.466	-0.148
-480.362	-48.679	0.183	-0.115
-479.347	800.000	0.103	0.404
-478.332	-155.944	0.666	0.055
-477.318	800.000	-0.026	-0.104
-476.303	-40.834	-0.608	-0.410
-475.289	142.538	0.102	0.178
-474.274	-11.486	0.343	-0.295
-473.259	-85.758	0.338	-0.136
-472.245	-56.921	-0.174	-0.100
-471.230	-30.737	0.068	0.050
-470.216	-200.000	0.063	0.493
-469.201	402.324	0.041	-0.115
-468.186	-163.766	-0.093	-0.006
-467.172	29.671	-0.081	-0.091
-466.157	42.209	0.197	-0.234
-465.143	-18.352	-0.311	-0.254
-464.128	800.000	0.033	-0.168
-463.113	0.136	0.277	0.258
-462.099	75.543	-0.223	0.309
-461.084	-92.133	0.512	-0.188
-460.070	-200.000	0.041	-0.366
-459.055	-114.515	-0.089	-0.022
-458.040	-132.389	0.189	-0.031
-457.026	229.201	0.207	0.444
-456.011	-40.167	-0.166	0.113
-454.997	401.678	-0.068	-0.187
-453.982	207.391	-0.121	-0.247
-452.968	-108.631	-0.272	0.076
-451.953	198.625	0.113	-0.226
-450.938	-90.150	-0.194	0.073
-449.924	-153.119	0.391	-0.035
-448.909	467.628	0.048	-0.142
-447.895	-44.912	-0.330	-0.214
-446.880	-20.701	-0.121	0.097
-445.865	52.984	-0.465	-0.582
-444.851	800.000	0.085	-0.313
-443.836	-43.220	0.344	-0.227
-442.822	800.000	-0.103	0.495
-441.807	-97.048	-0.232	0.079
-440.792	336.139	-0.118	-0.301
-439.778	152.379	0.091	-0.163
-438.763	418.293	0.125	0.351
-437.749	-44.740	0.275	0.179
-436.734	212.957	0.107	0.222
-435.719	-79.290	0.434	0.191
-434.705	-105.575	-0.146	0.043
-433.690	-30.492	0.388	0.287
-432.676	185.288	0.077	-0.150
-431.661	34.484	-0.322	-0.367
-430.646	-125.996	-0.167	-0.032
-429.632	187.774	0.053	-0.104
-428.617	-22.673	-0.212	0.167
-427.603	-15.016	0.537	0.448
-426.588	-151.218	0.423	-0.041
-425.573	800.000	-0.089	0.396
-424.559	-127.540	0.263	-0.049
-423.544	132.267	0.318	0.536
-422.530	-58.045	-0.242	0.137
-421.515	-68.257	0.255	0.129
-420.500	-7.457	-0.207	0.182
-419.486	-40.552	-0.083	0.056
-418.471	-68.489	-0.076	0.039
-417.457	126.207	0.204	-0.337
-416.442	-149.383	0.190	0.019
-415.428	-200.000	0.029	0.495
-414.413	-126.220	-0.636	0.123
-413.398	-150.830	-0.524	-0.051
-412.384	167.556	-0.197	0.367
-411.369	-138.706	-0.077	-0.011
-410.355	-34.869	-0.360	0.256
-409.340	92.941	-0.186	0.275
-408.325	7.945	-0.090	0.088
-407.311	-103.188	-0.269	-0.082
-406.296	-115.454	0.155	0.038
-405.282	49.848	0.330	-0.406
-404.267	800.000	-0.144	-0.526
-403.252	47.068	-0.311	0.378
-402.238	-200.000	0.086	0.587
-401.223	800.000	-0.073	0.353
-400.209	-7.135	-0.065	0.058
-399.194	800.000	0.131	0.563
-398.179	-102.942	0.531	-0.163
-397.165	-52.727	0.330	-0.198
-396.150	-40.371	-0.221	-0.150
-395.136	103.139	-0.427	-0.654
-394.121	-127.584	0.332	-0.062
-393.106	3.390	-0.136	-0.129
-392.092	57.115	0.138	0.175
-391.077	-46.022	-0.182	-0.116
-390.063	-135.947	-0.069	-0.011
-389.048	328.489	-0.057	0.143
-388.033	112.808	0.069	-0.109
-387.019	10.377	-0.333	-0.330
-386.004	26.738	-0.075	-0.082
-384.990	-0.928	0.496	-0.457
-383.975	-117.604	-0.281	-0.066
-382.960	-116.386	-0.308	0.074
-381.946	800.000	-0.017	-0.099
-380.931	406.161	0.157	0.434
-379.917	-122.861	-0.124	0.026
-378.902	9.645	0.136	-0.135
-377.888	-130.168	-0.151	0.027
-376.873	-9.627	-0.574	-0.498
-375.858	-2.698	0.048	0.044
-374.844	-200.000	0.019	-0.238
-373.829	428.866	0.018	0.052
-372.815	50.719	-0.053	-0.066
-371.800	321.633	-0.049	-0.121
-370.785	-36.725	0.198	-0.138
-369.771	123.694	0.159	-0.260
-368.756	45.366	-0.155	-0.187
-367.742	-76.959	0.331	0.150
-366.727	176.796	0.070	-0.133
-365.712	144.684	-0.123	0.215
-364.698	-5.835	-0.144	0.128
-363.683	159.738	0.212	-0.385
-362.669	-129.373	0.341	-0.061
-361.654	-38.420	-0.126	-0.087
-360.639	-26.788	0.236	-0.179
-359.625	-200.000	-0.030	0.350
-358.610	-200.000	-0.073	0.437
-357.596	-187.709	-0.697	-0.012
-356.581	39.383	-0.130	0.152
-355.566	20.579	0.213	-0.225
-354.552	72.647	0.034	-0.046
-353.537	13.978	-0.063	0.064
-352.523	409.968	-0.206	0.570
-351.508	-8.417	-0.180	0.157
-350.493	31.550	0.116	0.130
-349.479	5.509	0.138	-0.133
-348.464	-166.810	0.213	-0.011
-347.450	71.519	-0.192	0.259
-346.435	800.000	0.019	-0.077
-345.420	800.000	-0.058	-0.225
-344.406	-110.389	-0.244	-0.066
-343.391	35.879	-0.068	-0.078
-342.377	-200.000	0.017	0.154
-341.362	63.466	-0.251	-0.327
-340.348	-54.912	-0.314	-0.184
-339.333	-91.653	0.361	0.133
-338.318	-67.651	0.264	0.134
-337.304	209.527	-0.242	0.496
-336.289	-126.546	-0.329	-0.063
-335.275	-77.058	0.311	0.141
-334.260	-97.763	-0.253	0.085
-333.245	-67.323	-0.378	0.192
-332.231	-157.407	0.224	-0.017
-331.216	-79.957	0.124	0.054
-330.202	800.000	0.042	0.174
-329.187	-40.184	-0.285	-0.193
-328.172	58.538	-0.044	0.056
-327.158	800.000	-0.085	-0.319
-326.143	-159.301	0.374	-0.027
-325.129	176.058	-0.113	-0.214
-324.114	-69.615	-0.282	-0.140
-323.099	-84.539	-0.250	0.102
-322.085	-167.961	0.144	0.007
-321.070	-107.392	0.194	-0.055
-320.056	-65.549	-0.430	0.223
-319.041	62.229	-0.162	0.210
-318.026	-12.458	-0.209	0.177
-317.012	-82.580	0.113	-0.048
-315.997	-193.283	-0.403	-0.004
-314.983	-200.000	-0.007	0.084
-313.968	-51.659	-0.218	0.132
-312.953	84.179	-0.231	0.329
-311.939	-75.258	-0.515	0.238
-310.924	-5.497	0.198	0.177
-309.910	102.263	-0.215	-0.327
-308.895	-200.000	0.036	-0.401
-307.880	-67.109	-0.352	-0.179
-306.866	-84.380	-0.581	-0.238
-305.851	-49.499	0.334	0.206
-304.837	-94.810	-0.393	0.138
-303.822	97.405	-0.286	-0.428
-302.807	68.095	0.299	-0.398
-301.793	149.918	0.144	-0.255
-300.778	311.794	-0.087	-0.213
-299.764	-129.331	0.242	0.043
-298.749	163.237	0.018	-0.034
-297.735	62.947	0.077	-0.101
-296.720	101.657	0.081	-0.123
-295.705	160.328	0.065	0.117
-294.691	-200.000	-0.033	0.239
-293.676	54.340	0.279	-0.349
-292.662	135.396	-0.125	0.212
-291.647	-84.693	0.289	-0.117
-290.632	198.481	-0.079	0.157
-289.618	53.560	0.123	0.154
-288.603	800.000	0.100	0.370
-287.589	46.515	0.113	-0.137
-286.574	-200.000	-0.030	-0.201
-285.559	-67.100	-0.233	0.119
-284.545	33.482	0.184	0.207
-283.530	133.877	-0.068	-0.114
-282.516	-115.363	-0.514	-0.125
-281.501	2.796	-0.115	-0.108
-280.486	-1.780	0.225	-0.206
-279.472	-38.997	-0.209	-0.142
-278.457	-73.629	-0.267	-0.126
-277.443	-154.394	-0.147	0.013
-276.428	87.767	-0.108	-0.156
-275.413	800.000	-0.069	0.346
-274.399	-149.284	0.008	0.001
-273.384	-67.074	-0.252	0.129
-272.370	800.000	-0.121	0.585
-271.355	-85.935	-0.364	-0.145
-270.340	-60.361	-0.213	-0.117
-269.326	-177.203	-0.212	0.007
-268.311	-83.939	0.385	-0.158
-267.297	371.114	-0.076	-0.201
-266.282	-50.617	-0.289	-0.176
-265.267	24.025	0.208	0.223
-264.253	-52.410	-0.169	0.101
-263.238	-57.590	-0.217	-0.123
-262.224	-200.000	-0.114	-0.683
-261.209	-64.514	0.266	-0.140
-260.195	-33.777	0.345	0.246
-259.180	47.340	-0.245	0.297
-258.165	-200.000	-0.030	0.440
-257.151	13.531	0.155	0.156
-256.136	800.000	-0.040	0.199
-255.122	-200.000	-0.081	-0.522
-254.107	41.639	-0.277	-0.326
-253.092	-162.713	-0.367	0.023
-252.078	0.309	-0.031	0.028
-251.063	-50.141	-0.132	0.081
-250.049	110.906	0.133	0.208
-249.034	-105.548	-0.287	0.084
-248.019	217.873	0.112	0.232
-247.005	-200.000	-0.099	-0.001
-245.990	195.156	0.172	0.340
-244.976	-108.823	0.158	0.043
-243.961	292.615	0.197	0.467
-242.946	-71.560	0.186	0.090
-241.932	353.537	-0.014	-0.037
-240.917	-112.857	0.682	0.174
-239.903	-107.788	-0.161	0.045
-238.888	-152.874	0.140	-0.013
-237.873	103.023	-0.120	0.183
-236.859	-46.923	0.241	-0.152
-235.844	142.337	0.106	-0.182
-234.830	-90.896	0.424	-0.157
-233.815	21.058	0.306	-0.321
-232.800	-70.274	0.447	0.219
-231.786	505.287	-0.158	-0.478
-230.771	-200.000	-0.026	-0.151
-229.757	-5.659	-0.028	-0.025
-228.742	-119.281	0.307	0.069
-227.727	-200.000	-0.012	-0.238
-226.713	-110.948	-0.150	-0.040
-225.698	-35.655	0.117	-0.082
-224.684	800.000	-0.042	-0.184
-223.669	-92.846	0.327	-0.118
-222.655	-200.000	0.045	0.524
-221.640	-70.654	0.396	0.193
-220.625	58.388	-0.171	-0.217
-219.611	18.616	0.138	0.143
-218.596	-151.092	0.318	0.031
-217.582	77.034	-0.264	-0.364
-216.567	-146.792	-0.120	-0.013
-215.552	-2.545	-0.200	-0.181
-214.538	800.000	-0.051	-0.204
-213.523	537.351	0.089	-0.275
-212.509	82.043	-0.143	-0.202
-211.494	-3.534	-0.110	0.099
-210.479	-121.089	-0.515	-0.111
-209.465	763.647	-0.040	-0.140
-208.450	-12.484	0.456	0.385
-207.436	234.960	-0.106	0.228
-206.421	-200.000	0.010	0.635
-205.406	481.877	0.135	0.400
-204.392	268.611	0.025	-0.056
-203.377	-115.757	-0.404	0.097
-202.363	357.770	-0.088	0.229
-201.348	800.000	-0.054	-0.212
-200.333	-65.587	0.165	-0.085
-199.319	-145.582	0.270	-0.031
-198.304	-200.000	-0.032	0.247
-197.290	189.176	-0.146	-0.283
-196.275	-58.609	-0.103	-0.058
-195.260	756.365	-0.053	-0.186
-194.246	-55.108	0.153	0.089
-193.231	-99.823	0.379	-0.122
-192.217	-79.798	-0.095	0.041
-191.202	-183.892	0.447	0.010
-190.187	-0.886	0.390	-0.357
-189.173	-44.190	-0.108	0.070
-188.158	-168.212	0.079	0.004
-187.144	-31.561	0.297	-0.215
-186.129	-89.508	0.251	-0.095
-185.114	800.000	-0.049	-0.265
-184.100	21.000	-0.206	-0.216
-183.085	-200.000	-0.042	0.389
-182.071	205.388	-0.045	0.091
-181.056	276.131	0.138	0.317
-180.042	-65.105	-0.463	0.241
-179.027	122.889	-0.292	-0.474
-178.012	-200.000	-0.019	-0.188
-176.998	76.753	-0.076	-0.104
-175.983	800.000	-0.019	0.092
-174.969	-158.110	0.167	0.013
-173.954	68.447	0.172	-0.228
-172.939	-169.376	0.159	-0.007
-171.925	-95.982	-0.336	0.115
-170.910	-176.755	-0.250	-0.008
-169.896	223.240	-0.194	-0.405
-168.881	-138.365	0.359	0.051
-167.866	84.634	-0.329	-0.466
-166.852	-22.842	-0.412	-0.321
-165.837	-11.482	0.246	-0.209
-164.823	306.887	-0.294	0.711
-163.808	20.680	0.175	0.183
-162.793	800.000	0.122	-0.564
-161.779	105.829	0.105	-0.160
-160.764	-47.909	0.272	0.170
-159.750	800.000	-0.177	-0.733
-158.735	-200.000	0.037	-0.276
-157.720	-103.051	0.223	0.068
-156.706	-5.736	0.282	0.249
-155.691	-65.686	0.373	-0.192
-154.677	-73.519	0.180	0.084
-153.662	800.000	-0.028	0.144
-152.647	59.549	0.099	0.127
-151.633	91.163	0.060	0.087
-150.618	68.556	-0.287	0.380
-149.604	-119.889	-0.356	-0.078
-148.589	45.171	-0.159	0.190
-147.574	257.212	0.312	0.695
-146.560	-200.000	0.013	-0.128
-145.545	244.698	0.122	-0.265
-144.531	87.627	-0.252	-0.361
-143.516	355.568	-0.109	0.282
-142.502	-99.285	-0.422	0.137
-141.487	-99.677	-0.251	-0.081
-140.472	-57.047	-0.369	-0.210
-139.458	-174.084	-0.595	-0.022
-138.443	-174.401	0.167	0.006
-137.429	-125.567	0.174	0.034
-136.414	-91.268	-0.221	0.081
-135.399	221.697	-0.154	-0.320
-134.385	-33.110	-0.145	-0.104
-133.370	8.005	-0.565	0.547
-132.356	-200.000	-0.013	0.664
-131.341	368.944	-0.146	0.384
-130.326	-200.000	0.034	0.574
-129.312	-76.173	0.214	0.097
-128.297	-200.000	0.001	0.073
-127.283	525.183	0.147	-0.450
-126.268	-65.759	-0.634	-0.326
-125.253	166.200	-0.192	0.351
-124.239	800.000	0.132	0.476
-123.224	-121.134	0.228	-0.049
-122.210	44.433	-0.144	-0.170
-121.195	120.267	0.051	0.082
-120.180	-182.221	-0.543	0.013
-119.166	-94.639	-0.272	-0.095
-118.151	-9.348	-0.209	-0.180
-117.137	-52.218	-0.053	0.032
-116.122	-141.965	0.192	0.024
-115.107	800.000	0.094	0.401
-114.093	-180.276	0.596	-0.016
-113.078	-152.133	0.112	0.010
-112.064	-78.832	0.353	-0.154
-111.049	13.378	-0.244	0.244
-110.034	93.163	0.089	0.131
-109.020	-98.446	0.425	-0.140
-108.005	228.251	0.165	-0.349
-106.991	-100.561	-0.450	0.142
-105.976	23.919	-0.083	0.089
-104.962	281.094	-0.058	0.135
-103.947	-129.674	-0.447	-0.079
-102.932	99.357	0.151	0.226
-101.918	-6.175	-0.375	0.330
-100.903	800.000	-0.044	-0.224
-99.889	-104.794	-0.048	-0.014
-98.874	4.850	0.242	-0.229
-97.859	63.984	0.392	-0.509
-96.845	-119.118	-0.527	0.118
-95.830	83.976	-0.333	0.469
-94.816	800.000	0.033	-0.148
-93.801	-120.485	0.250	-0.054
-92.786	-75.919	0.427	-0.194
-91.772	-9.587	-0.092	-0.079
-90.757	-90.138	0.397	-0.148
-89.743	-66.974	-0.180	-0.091
-88.728	-77.903	-0.282	0.125
-87.713	174.565	-0.298	0.558
-86.699	800.000	0.119	0.536
-85.684	-152.679	-0.452	0.041
-84.670	-200.000	-0.019	-0.141
-83.655	800.000	-0.076	0.392
-82.640	-46.253	-0.088	-0.056
-81.626	-8.377	0.267	0.231
-80.611	34.089	-0.188	0.212
-79.597	13.073	0.290	-0.289
-78.582	-200.000	0.022	0.309
-77.567	-85.360	-0.672	0.269
-76.553	-160.900	0.264	-0.018
-75.538	-100.288	-0.367	0.117
-74.524	-38.765	-0.572	-0.388
-73.509	-99.058	-0.268	-0.087
-72.494	-127.976	0.373	-0.068
-71.480	184.458	0.236	-0.452
-70.465	27.736	-0.057	-0.061
-69.451	107.218	0.072	-0.110
-68.436	-200.000	-0.001	0.414
-67.422	-157.592	0.106	-0.008
-66.407	-50.703	-0.151	0.091
-65.392	-131.488	0.122	0.021
-64.378	-87.627	0.583	0.225
-63.363	800.000	0.026	-0.132
-62.349	1.588	-0.150	0.139
-61.334	36.532	-1.986	-2.257
-60.319	106.941	1.095	1.677
-59.305	211.020	-3.741	-7.597
-58.290	36.189	3.820	4.333
-57.276	335.716	3.974	9.962
-56.261	-200.000	21.043	305.594
-55.246	361.360	1295.161	3356.263
-54.232	52.491	2865.352	3522.747
-53.217	53.151	2676.894	3301.125
-52.203	35.227	2405.598	2714.254
-51.188	30.467	2073.766	2281.173
-50.173	26.996	1960.622	2116.043
-49.159	25.863	1949.594	2090.846
-48.144	25.484	1945.225	2081.673
-47.130	25.538	1942.693	2079.501
-46.115	25.343	1941.332	2075.703
-45.100	25.415	1940.495	2075.552
-44.086	25.438	1939.018	2074.161
-43.071	25.387	1937.074	2071.411
-42.057	25.395	1935.452	2069.680
-41.042	25.420	1934.470	2068.840
-40.027	25.437	1932.322	2066.665
-39.013	25.341	1930.942	2063.990
-37.998	25.242	1930.245	2062.017
-36.984	25.316	1928.535	2060.971
-35.969	25.331	1927.339	2059.777
-34.954	25.258	1925.878	2057.291
-33.940	25.383	1924.339	2057.009
-32.925	25.356	1923.189	2055.389
-31.911	25.329	1922.283	2054.024
-30.896	25.306	1920.113	2051.360
-29.881	25.227	1918.981	2049.170
-28.867	25.246	1918.045	2048.302
-27.852	25.264	1916.562	2046.848
-26.838	25.258	1914.846	2044.865
-25.823	25.130	1914.103	2042.522
-24.809	25.127	1912.622	2040.822
-23.794	25.035	1911.237	2038.218
-22.779	25.199	1909.802	2038.478
-21.765	25.190	1908.818	2037.239
-20.750	25.151	1907.683	2035.511
-19.736	25.136	1906.347	2033.824
-18.721	25.035	1905.990	2032.213
-17.706	25.115	1904.227	2031.168
-16.692	25.079	1903.334	2029.723
-15.677	25.082	1901.379	2027.597
-14.663	25.053	1900.135	2025.856
-13.648	25.015	1897.884	2022.949
-12.633	25.056	1896.982	2022.368
-11.619	25.054	1896.417	2021.664
-10.604	25.035	1895.190	2020.058
-9.590	24.950	1894.488	2018.272
-8.575	25.098	1892.580	2017.829
-7.560	25.089	1891.115	2016.085
-6.546	24.964	1890.236	2013.661
-5.531	25.076	1890.184	2014.782
-4.517	24.878	1888.759	2010.955
-3.502	25.003	1887.785	2011.251
-2.487	25.067	1886.253	2010.253
-1.473	25.121	1881.952	2006.200
-0.458	24.605	1863.642	1980.852
0.556	20.592	2008.053	2073.859
1.571	18.641	2214.104	2260.578
2.586	19.495	2254.104	2312.656
3.600	19.398	2256.884	2313.912
4.615	19.436	2255.975	2313.214
5.629	19.335	2254.394	2309.962
6.644	19.380	2251.759	2307.585
7.659	19.398	2250.072	2305.832
8.673	19.501	2248.375	2305.200
9.688	19.280	2256.776	2310.561
10.702	18.167	2336.210	2376.064
11.717	16.352	2400.478	2415.074
12.731	7.491	2380.592	2267.978
13.746	0.960	2362.554	2157.215
14.761	0.253	2358.701	2143.332
15.775	0.099	2357.363	2139.661
16.790	0.155	2354.145	2137.281
17.804	0.089	2353.657	2135.631
18.819	-0.010	2352.786	2133.186
19.834	0.094	2350.362	2132.212
20.848	0.027	2349.613	2130.322
21.863	0.068	2348.133	2129.306
22.877	-0.045	2345.931	2125.442
23.892	0.061	2343.484	2124.475
24.907	0.062	2340.881	2121.875
25.921	0.080	2339.514	2120.645
26.936	-0.064	2338.182	2117.144
27.950	0.057	2334.337	2115.120
28.965	0.160	2332.179	2114.362
29.980	0.043	2331.551	2111.887
30.994	0.026	2329.743	2109.762
32.009	3.870	2340.586	2173.714
33.023	13.263	2368.376	2333.023
34.038	17.368	2374.735	2397.280
35.053	17.348	2371.643	2393.588
36.067	17.251	2369.072	2389.342
37.082	17.204	2367.724	2387.035
38.096	17.500	2365.123	2388.290
39.111	17.698	2363.453	2389.118
40.126	17.886	2362.182	2390.193
41.140	18.032	2361.690	2391.461
42.155	18.068	2359.113	2389.076
43.169	17.887	2356.958	2384.063
44.184	17.742	2352.925	2377.669
45.199	17.722	2350.729	2374.879
46.213	17.836	2350.016	2375.476
47.228	17.951	2349.825	2376.604
48.242	17.962	2347.689	2374.309
49.257	18.073	2346.995	2374.874
50.271	18.095	2344.790	2372.662
51.286	17.869	2341.880	2366.285
52.301	17.649	2339.130	2360.161
53.315	18.501	2342.421	2375.074
54.330	21.779	2351.921	2430.171
55.344	23.914	2352.825	2460.545
56.359	24.124	2349.774	2459.978
57.374	24.146	2350.654	2460.914
58.388	24.290	2346.746	2458.525
59.403	24.053	2341.495	2449.448
60.417	23.605	2339.054	2440.405
61.432	23.714	2337.393	2439.883
62.447	23.887	2336.104	2440.635
63.461	24.007	2334.495	2440.321
64.476	24.138	2332.955	2440.225
65.490	23.967	2330.419	2434.924
66.505	23.068	2325.878	2417.545
67.520	20.712	2317.189	2375.931
68.534	18.430	2308.102	2335.096
69.549	17.665	2303.970	2320.178
70.563	17.585	2301.003	2315.818
71.578	17.572	2299.179	2313.526
72.593	17.719	2297.368	2313.438
73.607	17.803	2296.041	2312.970
74.622	17.873	2293.412	2310.999
75.636	17.727	2291.004	2306.311
76.651	17.667	2288.658	2302.849
77.666	17.542	2287.918	2300.136
78.680	17.481	2284.397	2295.492
79.695	17.349	2281.730	2290.759
80.709	17.194	2281.181	2287.831
81.724	17.356	2278.372	2286.931
82.739	17.339	2276.585	2284.634
83.753	17.364	2274.511	2282.616
84.768	17.302	2271.695	2278.683
85.782	17.233	2270.932	2276.715
86.797	17.285	2268.172	2274.373
87.812	17.225	2267.155	2272.272
88.826	17.393	2265.559	2272.662
89.841	17.392	2262.525	2269.336
90.855	17.387	2261.021	2267.482
91.870	17.553	2258.710	2267.113
92.884	17.481	2257.557	2264.725
93.899	17.428	2255.484	2261.670
94.914	18.128	2260.062	2275.351
95.928	20.908	2267.534	2319.856
96.943	21.932	2265.489	2331.162
97.957	19.385	2253.537	2284.717
98.972	17.429	2248.371	2253.194
99.987	17.358	2244.535	2248.143
101.001	17.304	2241.944	2244.553
102.016	17.257	2240.862	2242.587
103.030	17.295	2238.240	2240.187
104.045	17.162	2236.156	2236.074
105.060	17.308	2233.198	2234.784
106.074	17.203	2231.099	2231.024
107.089	17.173	2230.228	2229.492
108.103	17.265	2228.754	2228.970
109.118	17.449	2227.294	2229.669
110.133	17.625	2226.566	2230.989
111.147	17.448	2224.340	2226.162
112.162	17.414	2223.010	2224.113
113.176	17.514	2220.633	2222.780
114.191	17.546	2219.466	2221.770
115.206	17.623	2217.085	2220.133
116.220	17.531	2215.512	2217.084
117.235	17.662	2213.585	2216.601
118.249	17.767	2210.433	2214.555
119.264	17.602	2209.319	2211.018
120.279	17.485	2208.587	2208.498
121.293	17.568	2206.243	2206.972
122.308	17.642	2204.322	2205.740
123.322	17.449	2203.412	2202.064
124.337	17.926	2205.224	2209.818
125.352	20.864	2213.754	2256.403
126.366	21.708	2211.735	2265.043
127.381	18.752	2200.252	2214.750
128.395	17.669	2195.000	2195.189
129.410	17.558	2192.717	2191.213
130.424	17.574	2190.148	2188.579
131.439	17.598	2188.999	2187.482
132.454	17.535	2187.879	2185.289
133.468	17.748	2185.577	2185.474
134.483	17.802	2184.512	2184.841
135.497	17.741	2183.970	2183.259
136.512	17.740	2180.562	2179.566
137.527	17.586	2178.473	2175.241
138.541	17.543	2176.427	2172.393
139.556	17.344	2176.427	2169.580
140.570	17.375	2174.501	2167.797
141.585	17.187	2171.838	2162.482
142.600	17.219	2170.290	2161.086
143.614	17.130	2169.547	2158.948
144.629	17.110	2166.269	2155.171
145.643	17.041	2164.924	2152.698
146.658	17.009	2163.006	2150.128
147.673	16.946	2160.548	2146.624
148.687	17.065	2159.931	2147.274
149.702	17.353	2158.784	2149.533
150.716	17.365	2157.616	2148.260
151.731	17.378	2157.233	2147.793
152.746	17.464	2155.659	2147.053
153.760	18.148	2159.564	2159.376
154.775	21.111	2168.076	2205.314
155.789	22.175	2166.530	2216.981
156.804	19.352	2154.379	2168.639
157.819	17.445	2146.808	2136.714
158.833	17.173	2142.973	2129.216
159.848	17.304	2140.562	2128.214
160.862	17.273	2140.130	2127.149
161.877	17.495	2138.811	2128.364
162.892	17.385	2138.847	2126.763
163.906	17.484	2137.675	2126.586
164.921	17.477	2135.670	2124.258
165.935	17.426	2133.580	2121.285
166.950	17.608	2131.279	2121.017
167.964	17.527	2130.677	2119.156
168.979	17.392	2127.643	2114.189
169.994	17.199	2125.952	2109.856
171.008	17.185	2123.589	2107.084
172.023	17.221	2122.646	2106.346
173.037	17.248	2121.659	2105.446
174.052	17.552	2120.293	2107.620
175.067	17.405	2118.725	2103.983
176.081	17.226	2117.311	2100.107
177.096	17.319	2116.010	2099.715
178.110	17.446	2114.477	2099.513
179.125	17.602	2113.753	2100.475
180.140	17.573	2112.463	2098.594
181.154	17.552	2110.855	2096.484
182.169	17.665	2109.275	2096.057
183.183	18.649	2112.123	2110.809
184.198	21.853	2120.689	2158.826
185.213	22.328	2118.312	2162.018
186.227	19.232	2107.043	2112.160
187.242	17.773	2102.830	2089.731
188.256	17.588	2100.308	2084.697
189.271	17.471	2098.231	2080.955
190.286	17.342	2096.709	2077.605
191.300	17.380	2094.607	2075.739
192.315	17.533	2092.128	2074.912
193.329	17.636	2091.859	2075.661
194.344	17.741	2091.592	2076.429
195.359	17.774	2090.426	2075.427
196.373	17.625	2087.249	2070.210
197.388	17.391	2084.596	2064.474
198.402	17.289	2082.441	2060.844
199.417	17.279	2080.116	2058.178
200.432	17.269	2079.015	2056.715
201.446	17.232	2077.884	2054.909
202.461	17.229	2075.371	2052.139
203.475	17.157	2073.549	2049.215
204.490	17.192	2071.064	2046.938
205.504	17.295	2069.563	2046.462
206.519	17.330	2068.312	2045.399
207.534	17.198	2066.693	2041.957
208.548	17.268	2065.200	2041.090
209.563	17.427	2064.000	2041.578
210.577	17.485	2062.700	2040.735
211.592	17.539	2062.577	2041.028
212.607	18.927	2068.342	2063.235
213.621	22.400	2076.505	2113.117
214.636	21.936	2069.663	2100.324
215.650	18.618	2060.263	2050.724
216.665	17.844	2055.105	2036.070
217.680	17.636	2053.544	2031.792
218.694	17.515	2050.738	2027.319
219.709	17.415	2049.137	2024.294
220.723	17.517	2047.553	2023.711
221.738	17.568	2046.843	2023.373
222.753	17.621	2045.556	2022.498
223.767	17.639	2044.120	2021.047
224.782	17.462	2042.189	2016.789
225.796	17.455	2039.277	2013.583
226.811	17.399	2038.228	2011.648
227.826	17.383	2037.426	2010.421
228.840	17.402	2035.091	2008.104
229.855	17.330	2034.470	2006.395
230.869	17.267	2032.582	2003.550
231.884	17.307	2030.105	2001.345
232.899	17.454	2029.839	2002.574
233.913	17.449	2028.880	2001.335
234.928	17.300	2028.029	1998.494
235.942	17.320	2025.379	1995.883
236.957	17.436	2024.165	1995.808
237.972	17.511	2021.911	1994.237
238.986	17.299	2021.849	1991.436
240.001	17.190	2020.409	1988.503
241.015	17.671	2018.091	1991.626
242.030	18.401	2022.050	2003.879
243.045	21.203	2029.284	2043.831
244.059	21.754	2026.363	2047.109
245.074	18.844	2015.248	2001.614
246.088	17.829	2010.997	1985.287
247.103	17.848	2009.398	1983.690
248.117	17.885	2007.494	1982.011
249.132	17.620	2005.677	1976.889
250.147	17.404	2004.144	1972.618
251.161	17.466	2002.618	1971.602
252.176	17.614	2001.751	1972.236
253.190	17.811	2000.097	1972.663
254.205	17.957	1998.450	1972.498
255.220	17.948	1997.799	1971.509
256.234	17.842	1996.026	1968.301
257.249	17.612	1993.458	1962.865
258.263	17.341	1992.260	1958.318
259.278	17.338	1991.389	1957.186
260.293	17.371	1989.219	1955.205
261.307	17.253	1987.857	1952.272
262.322	17.441	1985.089	1951.484
263.336	17.357	1983.430	1948.656
264.351	17.320	1981.739	1946.332
265.366	17.167	1980.838	1943.451
266.380	17.373	1980.501	1945.258
267.395	17.448	1978.027	1943.464
268.409	17.509	1976.956	1942.878
269.424	17.527	1976.173	1942.080
270.439	17.480	1975.049	1940.198
271.453	18.539	1978.438	1955.451
272.468	21.811	1984.914	1999.175
273.482	21.922	1980.821	1996.089
274.497	18.966	1969.281	1950.561
275.512	17.559	1965.167	1930.241
276.526	17.442	1963.090	1926.635
277.541	17.409	1960.763	1923.751
278.555	17.195	1960.467	1920.792
279.570	17.262	1957.150	1918.076
280.585	17.240	1956.994	1917.441
281.599	17.392	1955.595	1917.560
282.614	17.603	1954.480	1918.633
283.628	17.819	1954.969	1921.329
284.643	18.030	1954.146	1922.673
285.657	18.264	1952.710	1923.671
286.672	18.334	1951.223	1922.766
287.687	18.115	1948.804	1917.694
288.701	18.015	1947.340	1914.892
289.716	17.866	1946.605	1912.257
290.730	18.027	1944.597	1911.870
291.745	18.688	1944.964	1919.437
292.760	18.811	1944.136	1919.765
293.774	18.096	1941.475	1908.892
294.789	17.813	1939.748	1903.792
295.803	17.627	1936.887	1898.669
296.818	17.428	1936.474	1895.813
297.833	17.691	1934.761	1896.849
298.847	17.697	1933.211	1895.168
299.862	17.647	1932.176	1893.373
300.876	18.505	1934.323	1904.834
301.891	21.684	1942.107	1947.864
302.906	22.303	1939.108	1951.528
303.920	18.957	1929.668	1904.600
304.935	17.811	1925.307	1887.332
305.949	17.691	1922.289	1882.821
306.964	17.672	1920.650	1880.777
307.979	17.792	1920.198	1881.438
308.993	18.075	1918.797	1882.974
310.008	18.375	1918.232	1885.519
311.022	18.518	1916.977	1885.641
312.037	18.541	1915.154	1883.866
313.052	19.002	1915.640	1889.212
314.066	19.614	1913.958	1894.074
315.081	18.950	1911.331	1883.938
316.095	18.456	1910.576	1877.534
317.110	18.300	1907.514	1872.587
318.125	17.916	1905.037	1865.713
319.139	17.707	1903.652	1861.832
320.154	17.763	1902.577	1861.173
321.168	17.855	1900.237	1859.675
322.183	17.725	1898.347	1856.175
323.197	17.449	1897.115	1851.733
324.212	17.224	1894.751	1846.748
325.227	17.139	1893.269	1844.151
326.241	17.238	1891.995	1843.773
327.256	17.211	1891.162	1842.447
328.270	17.202	1889.725	1840.728
329.285	17.268	1889.950	1841.443
330.300	18.389	1894.000	1857.394
331.314	21.939	1900.483	1902.281
332.329	21.968	1895.343	1897.221
333.343	18.636	1885.580	1851.147
334.358	17.311	1881.931	1832.997
335.373	17.199	1880.025	1829.709
336.387	17.023	1877.440	1825.071
337.402	17.013	1876.003	1823.353
338.416	17.103	1874.958	1823.084
339.431	17.446	1872.814	1824.475
340.446	17.425	1871.246	1822.509
341.460	17.625	1872.011	1825.191
342.475	17.917	1870.309	1826.450
343.489	18.079	1868.917	1826.609
344.504	18.049	1868.538	1825.702
345.519	18.101	1867.624	1825.152
346.533	18.359	1865.885	1825.993
347.548	18.771	1865.939	1830.241
348.562	18.909	1865.258	1830.830
349.577	18.705	1864.525	1827.715
350.592	18.653	1862.363	1824.815
351.606	18.521	1860.775	1821.634
352.621	18.572	1858.781	1820.005
353.635	18.319	1857.071	1815.419
354.650	18.099	1855.756	1811.572
355.665	18.044	1853.025	1808.112
356.679	17.867	1851.689	1804.702
357.694	17.882	1849.913	1802.913
358.708	17.858	1849.236	1801.788
359.723	18.956	1853.405	1817.300
360.738	22.235	1859.206	1857.654
361.752	21.860	1854.077	1848.340
362.767	18.800	1845.246	1807.004
363.781	17.896	1841.237	1793.316
364.796	17.849	1839.373	1790.790
365.810	17.816	1838.500	1789.384
366.825	17.825	1838.124	1788.903
367.840	17.949	1837.325	1789.214
368.854	17.967	1836.620	1788.502
369.869	18.396	1835.176	1791.390
370.883	18.468	1834.819	1791.580
371.898	18.612	1833.708	1791.800
372.913	18.462	1832.575	1788.897
373.927	18.519	1831.521	1788.252
374.942	18.720	1829.070	1787.752
375.956	18.486	1828.297	1784.336
376.971	18.229	1824.706	1777.933
377.986	17.726	1822.383	1770.205
379.000	17.662	1820.970	1767.953
380.015	17.728	1819.788	1767.289
381.029	17.492	1816.980	1761.894
382.044	17.151	1815.679	1756.880
383.059	17.153	1813.709	1754.775
384.073	17.080	1813.241	1753.362
385.088	17.222	1811.672	1753.109
386.102	17.159	1810.251	1750.862
387.117	17.068	1808.390	1747.911
388.132	17.091	1808.268	1747.826
389.146	18.293	1812.541	1764.209
390.161	21.972	1818.408	1807.865
391.175	21.728	1812.017	1798.784
392.190	18.277	1802.130	1753.274
393.205	17.624	1798.149	1742.481
394.219	17.440	1796.272	1738.566
395.234	17.293	1795.587	1736.191
396.248	17.404	1794.296	1735.873
397.263	17.251	1791.209	1731.108
398.278	17.128	1789.895	1728.372
399.292	17.211	1789.145	1728.287
400.307	17.275	1788.214	1727.840
401.321	17.382	1788.457	1728.964
402.336	17.725	1787.237	1731.074
403.350	17.775	1785.831	1730.020
404.365	17.903	1785.133	1730.434
405.380	18.364	1784.266	1734.087
406.394	18.590	1783.408	1735.337
407.409	18.400	1781.833	1731.673
408.423	18.407	1780.710	1730.439
409.438	18.580	1780.141	1731.438
410.453	18.638	1777.878	1729.613
411.467	18.555	1776.651	1727.371
412.482	18.400	1774.603	1723.607
413.496	17.995	1773.672	1718.409
414.511	17.957	1771.427	1715.641
415.526	17.796	1769.228	1711.680
416.540	17.783	1767.024	1709.216
417.555	17.796	1766.512	1708.649
418.569	17.912	1767.624	1710.681
419.584	17.892	1766.492	1709.177
420.599	17.863	1765.691	1707.914
421.613	17.757	1764.159	1705.158
422.628	17.648	1762.581	1702.337
423.642	17.481	1761.321	1699.242
424.657	17.496	1759.442	1697.374
425.672	17.753	1758.060	1698.407
426.686	17.755	1757.115	1697.311
427.701	17.625	1756.017	1694.751
428.715	17.687	1754.433	1693.639
429.730	17.980	1752.873	1694.852
430.745	17.892	1751.073	1692.033
431.759	17.707	1751.185	1690.099
432.774	17.974	1752.167	1693.500
433.788	18.524	1752.169	1698.779
434.803	18.901	1751.146	1701.336
435.818	18.811	1750.633	1699.736
436.832	18.709	1749.337	1697.268
437.847	17.818	1742.525	1681.625
438.861	9.941	1720.543	1582.881
439.876	1.837	1705.114	1489.135
440.890	0.318	1701.923	1471.273
441.905	0.301	1700.750	1469.913
442.920	0.140	1700.298	1467.773
443.934	0.132	1698.774	1466.207
444.949	0.179	1697.298	1465.213
445.963	0.131	1696.138	1463.567
446.978	0.030	1696.544	1462.760
447.993	0.113	1694.321	1461.475
449.007	0.175	1692.228	1460.102
450.022	0.233	1690.082	1458.638
451.036	0.171	1689.230	1457.123
452.051	0.900	1693.819	1468.013
453.066	8.808	1711.268	1560.622
454.080	16.968	1724.512	1652.736
455.095	19.184	1726.899	1676.534
456.109	20.221	1728.859	1688.384
457.124	20.430	1727.967	1689.357
458.139	20.602	1728.003	1690.876
459.153	20.740	1727.190	1691.221
460.168	20.798	1724.686	1689.131
461.182	20.605	1722.923	1685.327
462.197	20.662	1721.309	1684.096
463.212	20.270	1719.596	1678.409
464.226	20.349	1718.167	1677.583
465.241	20.651	1717.797	1679.948
466.255	20.853	1716.475	1680.415
467.270	20.853	1715.642	1679.403
468.285	20.537	1713.252	1673.803
469.299	20.467	1711.980	1671.683
470.314	20.624	1710.676	1671.725
471.328	20.700	1709.254	1670.865
472.343	20.628	1709.112	1669.836
473.358	20.657	1707.599	1668.434
474.372	20.828	1705.983	1668.302
475.387	20.452	1704.078	1662.625
476.401	20.288	1702.849	1659.654
477.416	20.349	1701.766	1658.982
478.430	20.455	1700.202	1658.280
479.445	20.152	1699.054	1654.056
480.460	20.096	1697.443	1651.746
481.474	20.227	1696.841	1652.222
482.489	20.644	1696.177	1655.367
483.503	20.891	1695.257	1656.628
484.518	20.876	1694.376	1655.425
485.533	20.992	1691.621	1653.643
486.547	20.811	1691.157	1651.269
487.562	21.182	1690.195	1653.667
488.576	20.983	1689.331	1650.731
489.591	20.954	1687.763	1648.718
490.606	20.785	1686.662	1645.839
491.620	20.974	1684.569	1645.399
492.635	21.210	1683.535	1646.431
493.649	21.536	1682.172	1647.979
494.664	20.971	1679.892	1640.211
495.679	20.383	1677.112	1631.746
496.693	20.470	1676.810	1632.079
497.708	20.788	1676.846	1634.921
498.722	21.147	1676.109	1637.391
499.737	21.230	1674.525	1636.429
500.752	21.184	1671.453	1632.798
501.766	20.800	1670.442	1628.012
502.781	21.053	1669.364	1629.137
503.795	21.109	1667.288	1627.446
504.810	21.069	1667.205	1626.790
505.825	21.323	1666.899	1628.680
506.839	21.252	1665.607	1626.561
507.854	21.276	1664.292	1625.303
508.868	21.187	1663.038	1623.056
509.883	21.212	1662.554	1622.618
510.898	21.437	1661.676	1623.672
511.912	21.359	1658.941	1620.077
512.927	21.116	1656.812	1615.543
513.941	20.942	1656.030	1612.965
514.956	20.778	1653.578	1608.861
515.971	20.941	1652.224	1608.864
516.985	20.961	1652.553	1609.182
518.000	21.175	1651.936	1610.364
519.014	21.378	1651.302	1611.444
520.029	21.637	1649.216	1611.603
521.043	21.405	1648.484	1608.558
522.058	21.281	1647.403	1606.156
523.073	21.485	1646.833	1607.294
524.087	21.867	1645.965	1609.786
525.102	21.716	1644.289	1606.555
526.116	21.330	1641.594	1600.181
527.131	21.212	1640.648	1597.982
528.146	21.617	1641.180	1602.034
529.160	21.794	1639.379	1601.711
530.175	21.766	1639.006	1600.900
531.189	21.895	1637.486	1600.406
532.204	21.869	1636.084	1598.605
533.219	21.437	1634.196	1592.614
534.233	21.103	1632.516	1587.736
535.248	21.494	1632.541	1591.141
536.262	22.064	1632.076	1595.700
537.277	21.765	1631.051	1591.785
538.292	21.414	1629.065	1586.453
539.306	21.469	1626.403	1584.169
540.321	21.436	1625.075	1582.389
541.335	21.326	1623.093	1579.270
542.350	21.649	1622.471	1581.411
543.365	22.016	1621.098	1583.204
544.379	21.948	1620.965	1582.268
545.394	21.935	1619.663	1580.694
546.408	21.620	1616.847	1574.910
547.423	21.162	1614.870	1568.662
548.438	21.105	1613.875	1566.993
549.452	21.449	1613.783	1569.814
550.467	21.590	1612.561	1569.710
551.481	21.615	1612.063	1569.265
552.496	21.918	1612.255	1571.988
553.511	22.162	1610.636	1572.415
554.525	22.118	1609.543	1570.766
555.540	22.084	1609.820	1570.542
556.554	22.247	1608.034	1570.080
557.569	22.214	1605.731	1567.346
558.583	21.994	1603.474	1562.990
559.598	21.949	1602.437	1561.386
560.613	21.836	1602.745	1560.492
561.627	21.975	1601.195	1560.036
562.642	22.087	1600.692	1560.358
563.656	22.546	1599.799	1563.395
564.671	22.415	1598.845	1561.110
565.686	22.354	1596.333	1557.924
566.700	22.027	1594.747	1553.285
567.715	22.014	1592.411	1550.704
568.729	21.601	1590.403	1544.903
569.744	21.434	1588.822	1541.703
570.759	21.381	1588.394	1540.640
571.773	21.601	1588.309	1542.316
572.788	21.888	1586.823	1543.226
573.802	22.219	1585.358	1544.545
574.817	22.202	1584.837	1543.699
575.832	22.505	1584.051	1545.419
576.846	22.624	1582.201	1544.482
577.861	22.136	1580.810	1538.639
578.875	22.236	1580.993	1539.513
579.890	22.627	1579.982	1541.781
580.905	22.548	1579.360	1540.296
581.919	22.679	1579.166	1541.074
582.934	22.637	1578.295	1539.674
583.948	22.834	1575.713	1538.693
584.963	22.722	1573.779	1535.645
585.978	22.138	1573.275	1529.855
586.992	22.398	1572.551	1531.245
588.007	22.722	1572.027	1533.382
589.021	21.921	1568.917	1523.180
590.036	21.463	1566.961	1517.105
591.051	21.870	1566.559	1520.079
592.065	22.168	1565.982	1521.931
593.080	22.508	1564.215	1522.990
594.094	22.591	1562.402	1521.760
595.109	22.181	1560.355	1516.030
596.123	21.811	1558.534	1510.879
597.138	22.224	1558.599	1514.337
598.153	22.527	1557.790	1515.988
599.167	22.493	1556.002	1513.773
600.182	22.663	1555.950	1515.016
601.196	22.685	1555.210	1514.301
602.211	22.614	1553.189	1511.540
603.226	22.774	1552.620	1512.186
604.240	22.870	1551.854	1512.082
605.255	23.101	1550.606	1512.672
606.269	22.986	1549.164	1510.094
607.284	22.827	1548.632	1508.034
608.299	22.980	1546.573	1507.156
609.313	22.787	1545.166	1503.955
610.328	22.836	1543.917	1502.977
611.342	22.894	1543.331	1502.726
612.357	23.034	1542.900	1503.317
613.372	23.266	1540.717	1502.988
614.386	23.059	1540.180	1500.521
615.401	23.024	1540.320	1500.185
616.415	23.094	1538.945	1499.262
617.430	23.078	1538.392	1498.405
618.445	23.252	1536.892	1498.245
619.459	22.964	1534.982	1493.751
620.474	22.623	1533.669	1489.400
621.488	22.005	1531.108	1481.495
622.503	21.775	1529.599	1477.912
623.518	22.342	1529.956	1482.883
624.532	22.970	1529.651	1487.727
625.547	23.294	1528.608	1489.271
626.561	23.449	1528.042	1489.854
627.576	23.488	1527.841	1489.808
628.591	22.870	1525.004	1481.650
629.605	22.403	1523.057	1475.652
630.620	22.195	1521.301	1472.021
631.634	21.983	1519.233	1468.059
632.649	22.138	1518.401	1468.384
633.663	22.618	1517.876	1471.733
634.678	23.176	1517.574	1475.942
635.693	23.472	1516.837	1477.528
636.707	23.475	1516.725	1477.263
637.722	23.771	1515.811	1478.673
638.736	23.802	1514.202	1477.188
639.751	23.605	1513.678	1474.854
640.766	23.568	1512.573	1473.291
641.780	23.662	1509.836	1471.233
642.795	23.506	1509.030	1468.974
643.809	23.557	1508.398	1468.610
644.824	23.610	1507.305	1467.811
645.839	23.380	1506.145	1464.592
646.853	23.488	1505.162	1464.353
647.868	23.451	1503.810	1462.561
648.882	23.331	1502.518	1460.133
649.897	23.327	1501.226	1458.669
650.912	23.348	1499.969	1457.452
651.926	23.294	1498.735	1455.629
652.941	22.750	1497.100	1449.378
653.955	22.582	1493.463	1444.295
654.970	21.950	1491.765	1437.281
655.985	21.971	1490.656	1436.212
656.999	22.204	1489.859	1437.189
658.014	22.511	1489.233	1438.932
659.028	22.890	1489.140	1441.780
660.043	23.072	1488.629	1442.609
661.058	23.280	1488.079	1443.603
662.072	23.326	1487.062	1442.827
663.087	23.147	1485.755	1439.916
664.101	23.308	1484.729	1440.070
665.116	23.537	1483.791	1440.854
666.131	23.544	1482.968	1439.939
667.145	23.475	1482.249	1438.509
668.160	23.712	1481.201	1439.251
669.174	24.097	1479.702	1440.750
670.189	23.866	1478.132	1437.174
671.204	23.737	1477.140	1434.995
672.218	23.653	1476.375	1433.395
673.233	23.877	1475.410	1434.101
674.247	24.209	1474.404	1435.645
675.262	24.285	1473.162	1434.873
676.276	24.131	1472.576	1432.890
677.291	23.862	1471.300	1429.304
678.306	23.514	1470.403	1425.450
679.320	23.583	1468.785	1424.269
680.335	23.777	1468.802	1425.673
681.349	23.958	1468.340	1426.514
682.364	23.868	1467.037	1424.357
683.379	23.861	1465.318	1422.461
684.393	23.954	1464.138	1421.894
685.408	23.900	1463.272	1420.445
686.422	23.685	1462.529	1417.829
687.437	24.049	1461.656	1419.733
688.452	24.137	1461.167	1419.795
689.466	24.267	1458.839	1418.396
690.481	23.875	1457.848	1414.131
691.495	23.429	1456.029	1408.634
692.510	22.805	1453.300	1400.853
693.525	22.366	1451.168	1395.132
694.539	22.705	1451.810	1398.286
695.554	23.463	1452.623	1404.940
696.568	23.989	1452.166	1408.520
697.583	24.211	1451.076	1409.057
698.598	24.211	1449.893	1407.740
699.612	24.433	1448.588	1408.060
700.627	24.446	1447.442	1406.885
701.641	24.228	1446.243	1403.821
702.656	24.322	1444.792	1402.989
703.671	24.523	1445.334	1404.941
704.685	24.532	1444.772	1404.294
705.700	24.479	1442.452	1401.452
706.714	24.092	1440.666	1396.501
707.729	23.805	1439.408	1392.853
708.744	23.787	1438.024	1391.204
709.758	23.689	1436.475	1388.773
710.773	23.233	1434.761	1383.369
711.787	22.926	1433.384	1379.464
712.802	23.288	1431.775	1380.589
713.816	23.606	1431.997	1383.125
714.831	23.805	1432.020	1384.546
715.846	24.229	1430.674	1386.391
716.860	24.285	1429.588	1385.615
717.875	24.253	1428.184	1383.833
718.889	23.970	1427.573	1380.870
719.904	24.309	1426.250	1382.066
720.919	24.320	1425.484	1381.241
721.933	24.347	1424.833	1380.657
722.948	24.446	1424.223	1380.672
723.962	24.483	1423.184	1379.789
724.977	24.605	1422.023	1379.443
725.992	24.740	1420.526	1378.872
727.006	24.558	1419.454	1376.257
728.021	24.584	1418.433	1375.301
729.035	24.642	1417.191	1374.386
730.050	24.560	1416.066	1372.495
731.065	24.477	1415.520	1371.160
732.079	24.622	1413.946	1370.586
733.094	24.648	1412.746	1369.458
734.108	24.427	1411.338	1366.236
735.123	24.410	1410.253	1364.892
736.138	24.318	1409.368	1363.159
737.152	24.507	1408.709	1363.811
738.167	24.745	1407.688	1364.489
739.181	24.851	1407.056	1364.524
740.196	24.604	1405.972	1361.417
741.211	24.634	1404.619	1360.173
742.225	24.602	1404.140	1359.302
743.240	24.671	1402.201	1357.786
744.254	24.758	1400.562	1356.704
745.269	24.591	1400.188	1354.902
746.284	24.610	1398.784	1353.526
747.298	24.331	1397.670	1350.163
748.313	23.932	1395.851	1345.216
749.327	23.350	1393.802	1338.657
750.342	22.852	1392.273	1333.254
751.356	22.592	1390.434	1329.358
752.371	22.920	1390.067	1331.336
753.386	23.907	1390.686	1339.249
754.400	24.532	1390.973	1344.090
755.415	24.718	1390.008	1344.405
756.429	24.736	1388.975	1343.382
757.444	24.767	1387.517	1342.040
758.459	24.870	1386.844	1342.007
759.473	24.921	1386.430	1341.832
760.488	24.759	1385.220	1339.281
761.502	24.815	1383.936	1338.297
762.517	24.893	1382.319	1337.163
763.532	24.507	1380.718	1332.555
764.546	24.307	1378.741	1328.992
765.561	23.711	1377.046	1322.737
766.575	22.999	1374.975	1315.263
767.590	22.971	1374.089	1314.049
768.605	23.520	1374.090	1317.998
769.619	24.221	1373.389	1322.396
770.634	24.424	1372.695	1323.084
771.648	24.846	1372.214	1325.607
772.663	25.023	1371.852	1326.415
773.678	24.970	1371.408	1325.430
774.692	24.988	1370.598	1324.620
775.707	25.099	1370.190	1324.894
776.721	25.137	1369.457	1324.313
777.736	25.040	1368.135	1322.153
778.751	25.196	1366.571	1321.641
779.765	24.964	1366.402	1319.600
780.780	24.940	1364.984	1317.896
781.794	25.034	1364.076	1317.556
782.809	24.711	1363.062	1314.033
783.824	24.604	1361.798	1311.870
784.838	24.087	1358.242	1304.480
785.853	23.361	1357.623	1298.385
786.867	23.475	1357.532	1298.983
787.882	24.039	1356.985	1302.449
788.897	24.201	1356.762	1303.273
789.911	24.353	1356.032	1303.531
790.926	24.722	1354.489	1304.598
791.940	24.757	1353.692	1303.933
792.955	24.997	1352.573	1304.454
793.969	24.992	1351.702	1303.420
794.984	25.002	1350.857	1302.521
795.999	25.087	1349.567	1301.743
797.013	25.194	1347.849	1300.707
798.028	25.045	1347.257	1298.901
799.042	25.100	1346.925	1298.820
800.057	25.256	1345.147	1298.087
801.072	25.189	1344.067	1296.403
802.086	25.104	1343.069	1294.671
803.101	25.091	1342.256	1293.632
804.115	25.273	1341.293	1293.875
805.130	25.188	1339.896	1291.754
806.145	25.230	1338.537	1290.594
807.159	25.085	1337.389	1288.281
808.174	24.918	1335.981	1285.570
809.188	24.953	1334.323	1284.069
810.203	24.865	1331.805	1280.860
811.218	24.150	1330.268	1274.095
812.232	23.808	1328.209	1269.513
813.247	23.517	1327.807	1266.884
814.261	23.964	1328.314	1270.427
815.276	24.786	1327.802	1275.684
816.291	24.949	1326.961	1275.891
817.305	25.059	1326.293	1275.882
818.320	25.141	1325.612	1275.657
819.334	25.111	1324.262	1273.992
820.349	25.214	1322.717	1273.087
821.364	25.427	1321.215	1273.007
822.378	25.298	1320.416	1271.170
823.393	25.454	1318.482	1270.266
824.407	25.348	1317.519	1268.428
825.422	25.394	1317.005	1268.111
826.437	25.208	1315.705	1265.387
827.451	24.962	1313.038	1260.929
828.466	24.100	1310.955	1252.688
829.480	23.677	1309.068	1247.743
830.495	24.183	1307.791	1249.946
831.509	24.693	1307.724	1253.329
832.524	24.965	1307.824	1255.192
833.539	25.179	1307.140	1255.894
834.553	25.310	1305.987	1255.553
835.568	25.284	1305.109	1254.375
836.582	25.423	1303.830	1253.976
837.597	25.458	1302.406	1252.702
838.612	25.368	1300.116	1249.721
839.626	25.170	1298.890	1247.007
840.641	24.718	1298.659	1243.478
841.655	24.372	1297.376	1239.685
842.670	23.728	1294.803	1232.582
843.685	23.291	1293.094	1227.769
844.699	24.154	1293.119	1233.649
845.714	24.703	1292.471	1236.702
846.728	24.879	1292.156	1237.480
847.743	25.137	1291.768	1238.749
848.758	25.324	1290.777	1238.947
849.772	25.465	1289.340	1238.401
850.787	25.400	1287.881	1236.401
851.801	25.301	1287.369	1235.079
852.816	25.250	1285.973	1233.238
853.831	25.065	1284.741	1230.627
854.845	25.098	1282.509	1228.573
855.860	24.928	1280.904	1225.720
856.874	24.706	1279.608	1222.807
857.889	24.375	1277.537	1218.409
858.904	24.073	1275.299	1214.057
859.918	23.701	1273.312	1209.478
860.933	23.305	1271.688	1205.079
861.947	23.782	1272.671	1209.129
862.962	24.428	1272.028	1212.789
863.977	24.582	1270.570	1212.304
864.991	24.853	1270.252	1213.707
866.006	24.903	1270.142	1213.794
867.020	25.140	1268.968	1214.140
868.035	25.251	1268.370	1214.177
869.049	25.300	1267.691	1213.714
870.064	25.584	1266.702	1214.550
871.079	25.313	1265.815	1211.720
872.093	25.333	1264.637	1210.580
873.108	25.075	1264.315	1208.379
874.122	24.708	1261.975	1203.517
875.137	24.284	1260.607	1199.199
876.152	24.114	1259.462	1196.818
877.166	24.329	1258.087	1196.822
878.181	24.858	1257.439	1199.629
879.195	25.090	1257.417	1201.021
880.210	25.305	1256.846	1201.780
881.225	25.272	1255.685	1200.307
882.239	25.347	1254.841	1199.860
883.254	25.327	1253.676	1198.470
884.268	25.269	1253.427	1197.695
885.283	25.372	1252.070	1196.946
886.298	25.444	1249.972	1195.277
887.312	25.394	1249.284	1194.147
888.327	25.244	1248.460	1192.211
889.341	25.521	1246.271	1191.824
890.356	25.173	1246.149	1189.247
891.371	25.018	1245.975	1187.907
892.385	24.880	1244.914	1185.831
893.400	24.854	1243.757	1184.414
894.414	24.873	1241.918	1182.650
895.429	24.478	1239.431	1177.524
896.444	23.587	1236.453	1168.656
897.458	22.875	1235.437	1162.848
898.473	23.593	1235.632	1167.641
899.487	24.350	1235.184	1172.077
900.502	24.835	1234.849	1174.825
901.517	24.946	1234.079	1174.684
902.531	25.089	1233.804	1175.218
903.546	25.156	1233.051	1174.801
904.560	25.234	1232.725	1174.867
905.575	25.376	1231.230	1174.237
906.589	25.320	1230.062	1172.611
907.604	25.092	1229.893	1170.815
