DTS Sentinel unit serial number:	SN409020Multiplexer serial number:	ORYXHardware model number:	OX4-SRSoftware version number:	ORYX F/W v3.00 Oryx Data Collector v3.7.2.0data status	okinstallation	HaddamTimeLapsedifferential loss correction	single-endedforward channel	channel 3reverse channel	N/Adate	2011/06/21time	23:46:16forward acquisition time	30.00reverse acquisition time	0.00gamma	498.7831k internal	0.1752k external	0.1752temperature offset calibration	1.0074default loss term (dB/km)	0.3790temperature slope calibration	1.3530multiplexer offset coefficient	1.0000multiplexer slope coefficient	1.0000fibre end	0.00T internal ref (°C)	23.06T ext. ref 1 (°C)	18.35T ext. ref 2 (°C)	0.05length (m)	temperature (°C)	Stokes	anti-Stokes-747.200	-147.115	0.234	-0.026
-746.185	-88.985	-0.441	0.172
-745.171	-170.824	-0.363	0.016
-744.156	30.567	0.082	-0.093
-743.142	-49.113	-0.059	0.037
-742.127	-118.233	0.278	0.065
-741.112	-200.000	-0.023	0.372
-740.098	-140.377	-0.203	0.028
-739.083	-96.610	0.240	0.083
-738.069	-168.173	0.079	-0.004
-737.054	111.329	0.133	-0.213
-736.039	407.382	-0.209	0.589
-735.025	97.231	-0.051	0.078
-734.010	32.467	-0.307	-0.353
-732.996	800.000	-0.143	-0.537
-731.981	267.855	-0.044	0.102
-730.966	-99.320	-0.222	-0.074
-729.952	-125.568	-0.289	0.058
-728.937	-100.812	-0.095	0.031
-727.923	800.000	-0.052	-0.238
-726.908	-200.000	-0.002	-0.144
-725.894	155.436	-0.152	-0.278
-724.879	44.151	0.186	0.227
-723.864	-118.720	-0.334	-0.077
-722.850	100.542	-0.252	0.388
-721.835	-43.559	0.211	-0.141
-720.821	-200.000	-0.021	0.131
-719.806	-34.212	-0.112	-0.081
-718.791	-100.545	-0.144	-0.047
-717.777	-54.399	-0.191	-0.115
-716.762	-120.867	0.295	-0.065
-715.748	800.000	-0.041	0.194
-714.733	27.217	-0.232	-0.258
-713.718	-73.428	-0.662	-0.319
-712.704	-120.780	0.608	0.135
-711.689	347.329	0.162	-0.425
-710.675	37.825	-0.348	-0.410
-709.660	-3.641	-0.332	-0.306
-708.645	-169.295	0.434	0.021
-707.631	-77.611	0.082	-0.037
-706.616	119.817	0.227	-0.374
-705.602	-73.731	-0.188	0.090
-704.587	800.000	0.117	-0.484
-703.572	800.000	0.016	0.070
-702.558	-22.601	-0.319	0.255
-701.543	-132.102	0.151	0.026
-700.529	-136.824	0.328	0.050
-699.514	-20.268	-0.409	-0.333
-698.499	-200.000	0.001	0.020
-697.485	4.477	-0.140	-0.136
-696.470	800.000	-0.050	-0.244
-695.456	215.450	-0.039	0.083
-694.441	-44.818	-0.457	0.301
-693.426	-51.207	-0.165	0.102
-692.412	225.036	-0.045	-0.096
-691.397	-9.660	-0.423	0.373
-690.383	349.484	0.062	-0.162
-689.368	-200.000	-0.018	-0.298
-688.354	-111.386	0.145	0.039
-687.339	38.227	0.240	0.283
-686.324	-60.952	0.313	-0.175
-685.310	-153.373	-0.235	0.021
-684.295	127.713	-0.305	0.515
-683.281	-98.854	-0.381	0.128
-682.266	64.136	-0.222	-0.296
-681.251	-114.118	-0.572	-0.145
-680.237	-168.048	0.202	-0.010
-679.222	-9.772	0.226	-0.199
-678.208	-50.818	0.541	0.336
-677.193	-132.580	-0.207	-0.035
-676.178	800.000	0.058	-0.296
-675.164	-200.000	-0.034	-0.267
-674.149	-140.952	-0.751	0.101
-673.135	-136.515	-0.859	0.131
-672.120	800.000	0.096	0.405
-671.105	7.095	0.386	0.381
-670.091	-136.747	-0.058	-0.009
-669.076	-157.154	0.202	-0.016
-668.062	227.652	-0.087	-0.189
-667.047	618.829	-0.083	-0.277
-666.032	148.795	0.098	-0.175
-665.018	-5.549	-0.365	-0.331
-664.003	63.240	-0.301	0.399
-662.989	139.318	-0.158	-0.275
-661.974	-151.852	-0.093	-0.009
-660.959	-98.759	0.229	0.077
-659.945	207.411	0.201	-0.417
-658.930	-120.238	-0.250	0.056
-657.916	-79.363	-0.193	0.086
-656.901	-86.558	-0.236	-0.095
-655.886	20.627	0.208	-0.223
-654.872	105.768	0.142	0.222
-653.857	33.904	-0.366	-0.421
-652.843	-189.297	0.499	-0.008
-651.828	-0.161	0.064	-0.060
-650.814	-63.320	-0.571	-0.310
-649.799	-200.000	0.062	-0.367
-648.784	-60.440	-0.104	-0.058
-647.770	-0.960	-0.352	0.330
-646.755	-200.000	0.005	0.088
-645.741	-183.542	0.400	-0.009
-644.726	257.002	0.057	0.129
-643.711	80.399	-0.297	-0.424
-642.697	36.160	0.234	-0.272
-641.682	-99.949	0.477	0.157
-640.668	-73.743	-0.478	-0.229
-639.653	271.160	0.218	-0.510
-638.638	-146.280	0.109	0.012
-637.624	-70.495	-0.378	0.188
-636.609	-9.441	-0.131	-0.115
-635.595	619.192	-0.059	0.197
-634.580	135.887	-0.049	0.085
-633.565	120.714	-0.273	0.449
-632.551	-76.424	-0.380	0.176
-631.536	-45.292	0.343	0.224
-630.522	-0.345	0.207	0.194
-629.507	-148.305	-0.434	-0.047
-628.492	105.780	0.124	0.194
-627.478	-86.975	0.046	0.019
-626.463	-12.118	0.094	-0.082
-625.449	-23.279	0.193	0.153
-624.434	-200.000	-0.017	0.100
-623.419	-13.370	0.372	-0.318
-622.405	60.700	-0.106	-0.139
-621.390	337.072	-0.146	0.377
-620.376	404.793	0.114	-0.319
-619.361	-72.710	0.215	0.104
-618.346	-112.780	-0.065	-0.017
-617.332	-104.344	0.164	-0.050
-616.317	100.480	0.235	0.361
-615.303	395.789	-0.050	-0.139
-614.288	57.677	0.063	-0.082
-613.273	-2.878	0.198	-0.183
-612.259	6.808	-0.062	-0.060
-611.244	14.871	0.163	0.168
-610.230	-117.810	0.386	0.091
-609.215	-73.064	0.313	0.151
-608.201	-93.890	-0.292	0.105
-607.186	-51.965	0.286	-0.175
-606.171	-51.031	0.079	0.049
-605.157	44.888	0.202	-0.246
-604.142	100.707	-0.054	-0.084
-603.128	173.462	-0.341	0.651
-602.113	800.000	-0.043	-0.189
-601.098	75.685	0.135	0.189
-600.084	312.869	0.258	0.643
-599.069	-149.797	0.131	-0.013
-598.055	-66.151	0.275	0.144
-597.040	-153.316	0.107	-0.010
-596.025	50.918	0.089	0.111
-595.011	-144.936	-0.261	-0.031
-593.996	-159.984	-0.159	0.011
-592.982	-200.000	-0.035	0.244
-591.967	-89.653	0.057	-0.022
-590.952	307.095	-0.022	0.055
-589.938	93.510	-0.159	0.237
-588.923	-22.290	0.284	-0.227
-587.909	800.000	0.050	0.240
-586.894	-200.000	-0.020	0.401
-585.879	-110.645	0.405	-0.110
-584.865	7.411	0.091	-0.089
-583.850	128.598	-0.104	0.176
-582.836	631.985	-0.094	-0.315
-581.821	-11.915	0.413	-0.357
-580.806	84.535	-0.062	0.090
-579.792	131.743	0.208	-0.353
-578.777	318.505	0.084	-0.211
-577.763	-107.478	-0.188	0.054
-576.748	-63.913	0.480	-0.258
-575.733	-44.301	-0.467	-0.308
-574.719	-34.187	0.257	-0.186
-573.704	-32.601	-0.305	0.223
-572.690	-72.648	-0.100	-0.048
-571.675	197.406	-0.082	0.165
-570.661	522.168	0.077	0.241
-569.646	108.260	-0.219	-0.346
-568.631	-200.000	0.007	-0.189
-567.617	-200.000	-0.008	-0.147
-566.602	-200.000	-0.043	0.335
-565.588	-200.000	-0.039	0.332
-564.573	-38.887	-0.440	-0.305
-563.558	-82.510	0.190	-0.081
-562.544	-166.166	-0.221	0.012
-561.529	-129.175	-0.239	0.044
-560.515	-37.629	0.106	0.074
-559.500	-200.000	0.015	-0.146
-558.485	-50.104	-0.244	0.152
-557.471	26.760	0.230	-0.254
-556.456	-72.970	-0.613	0.295
-555.442	-8.760	-0.500	0.441
-554.427	-125.929	0.071	-0.014
-553.412	24.886	0.368	-0.402
-552.398	124.733	-0.153	0.254
-551.383	210.208	0.191	0.396
-550.369	-200.000	-0.012	0.262
-549.354	-182.226	-0.254	-0.006
-548.339	574.837	-0.119	-0.383
-547.325	-76.846	-0.285	0.131
-546.310	3.621	-0.208	-0.200
-545.296	-106.844	0.411	-0.119
-544.281	-200.000	-0.017	0.348
-543.266	182.006	0.112	-0.218
-542.252	-99.822	-0.129	-0.042
-541.237	-93.392	-0.375	-0.136
-540.223	-171.212	0.448	0.020
-539.208	-124.473	0.369	0.075
-538.193	-200.000	-0.037	0.435
-537.179	800.000	0.060	-0.237
-536.164	-200.000	0.277	-0.000
-535.150	102.360	0.131	0.202
-534.135	-87.925	0.467	0.184
-533.121	200.477	-0.225	0.456
-532.106	38.363	-0.153	0.180
-531.091	65.513	-0.404	0.538
-530.077	-117.236	0.459	0.109
-529.062	-4.279	0.265	-0.241
-528.048	190.690	-0.133	0.263
-527.033	-191.959	0.174	-0.002
-526.018	260.954	0.096	-0.219
-525.004	-30.662	0.392	-0.292
-523.989	-118.898	-0.479	0.110
-522.975	-14.826	-0.084	0.071
-521.960	318.112	0.091	-0.227
-520.945	-147.407	0.226	0.025
-519.931	-104.580	0.689	-0.208
-518.916	-38.273	-0.176	-0.122
-517.902	-36.034	-0.131	0.093
-516.887	253.544	-0.095	-0.213
-515.872	790.257	0.107	0.391
-514.858	-22.181	0.098	-0.078
-513.843	-134.479	0.681	0.109
-512.829	-43.629	0.281	-0.186
-511.814	-118.248	-0.085	0.020
-510.799	-5.433	0.314	-0.284
-509.785	-163.989	0.386	-0.023
-508.770	88.135	-0.240	-0.351
-507.756	-129.651	-0.435	0.078
-506.741	67.587	-0.357	-0.480
-505.726	120.726	-0.116	-0.189
-504.712	-119.813	0.153	-0.034
-503.697	6.771	0.253	0.248
-502.683	643.472	0.111	-0.374
-501.668	-34.532	0.483	-0.347
-500.653	-21.588	-0.203	-0.162
-499.639	59.285	-0.078	0.101
-498.624	53.421	-0.196	-0.247
-497.610	-75.655	-0.438	-0.204
-496.595	800.000	-0.070	-0.307
-495.581	-76.943	0.302	-0.138
-494.566	-53.644	0.576	0.345
-493.551	-138.346	-0.351	-0.050
-492.537	83.659	-0.114	-0.164
-491.522	-17.416	0.279	-0.231
-490.508	385.962	0.116	0.317
-489.493	133.470	0.107	0.182
-488.478	-103.874	-0.297	0.091
-487.464	-65.786	0.354	-0.185
-486.449	-200.000	-0.007	-0.657
-485.435	-91.180	0.478	0.179
-484.420	800.000	-0.044	0.219
-483.405	69.555	-0.322	0.436
-482.391	-90.312	-0.190	0.072
-481.376	-66.005	0.420	0.220
-480.362	116.653	0.069	-0.112
-479.347	-52.784	-0.163	-0.098
-478.332	-148.845	-0.553	0.058
-477.318	54.069	-0.157	-0.198
-476.303	-200.000	-0.062	0.360
-475.289	-195.284	-0.176	-0.002
-474.274	-118.302	-0.758	0.176
-473.259	-131.402	-0.288	-0.049
-472.245	-108.363	-0.171	0.048
-471.230	286.425	-0.169	0.403
-470.216	-46.635	-0.225	0.145
-469.201	-108.978	0.476	-0.132
-468.186	-200.000	-0.013	0.333
-467.172	-124.919	-0.151	-0.030
-466.157	156.334	-0.116	0.210
-465.143	528.864	0.084	0.261
-464.128	352.649	0.208	-0.545
-463.113	-92.673	0.385	0.141
-462.099	84.709	0.134	-0.193
-461.084	800.000	-0.022	-0.121
-460.070	-200.000	0.043	0.317
-459.055	-200.000	-0.009	-0.101
-458.040	-114.919	-0.245	-0.061
-457.026	-200.000	0.029	-0.274
-456.011	-18.270	-0.336	-0.276
-454.997	-120.501	-0.133	-0.029
-453.982	-200.000	-0.054	0.391
-452.968	-58.970	-0.417	0.236
-451.953	54.496	-0.236	0.298
-450.938	-108.228	-0.313	-0.088
-449.924	-200.000	-0.030	0.353
-448.909	-105.475	0.339	0.100
-447.895	43.601	-0.027	-0.033
-446.880	-63.460	-0.207	0.111
-445.865	-140.282	-0.275	0.037
-444.851	-107.338	0.099	0.028
-443.836	-73.718	-0.289	0.137
-442.822	108.914	0.359	0.564
-441.807	254.529	-0.207	-0.467
-440.792	-4.648	-0.318	-0.288
-439.778	-46.566	-0.214	0.137
-438.763	-200.000	0.043	0.290
-437.749	800.000	-0.041	0.200
-436.734	-20.457	-0.515	0.415
-435.719	-89.763	-0.227	-0.087
-434.705	-48.249	0.224	-0.141
-433.690	358.068	0.187	0.492
-432.676	-200.000	0.048	0.316
-431.661	3.879	-0.189	0.181
-430.646	-32.159	0.224	0.164
-429.632	-200.000	0.026	-0.292
-428.617	-200.000	0.017	-0.241
-427.603	800.000	0.094	0.409
-426.588	32.965	-0.129	0.146
-425.573	42.687	0.403	0.482
-424.559	-200.000	0.014	0.164
-423.544	-79.018	0.442	0.196
-422.530	-115.423	0.302	-0.074
-421.515	-82.011	-0.470	-0.200
-420.500	-116.899	-0.016	0.004
-419.486	52.364	0.128	0.160
-418.471	-200.000	-0.069	-0.441
-417.457	510.880	0.045	0.139
-416.442	-135.022	-0.430	-0.067
-415.428	-6.827	0.323	0.287
-414.413	-56.113	0.168	0.097
-413.398	800.000	-0.047	-0.263
-412.384	163.957	-0.145	-0.268
-411.369	800.000	0.069	-0.336
-410.355	-34.644	0.061	0.043
-409.340	-128.853	0.278	-0.051
-408.325	-90.342	-0.314	-0.119
-407.311	24.385	-0.215	0.233
-406.296	-65.179	-0.044	-0.023
-405.282	86.137	-0.254	-0.367
-404.267	-200.000	0.075	-0.536
-403.252	-43.182	-0.446	0.295
-402.238	-32.970	-0.230	0.167
-401.223	-101.466	0.322	0.102
-400.209	180.788	0.062	0.121
-399.194	-200.000	0.023	-0.155
-398.179	-166.455	0.260	-0.014
-397.165	800.000	-0.076	-0.408
-396.150	316.603	-0.171	-0.424
-395.136	253.006	-0.064	-0.144
-394.121	-36.285	0.523	-0.368
-393.106	-181.697	-0.248	-0.006
-392.092	61.169	0.349	0.455
-391.077	-154.282	0.168	0.015
-390.063	150.217	-0.134	-0.238
-389.048	-200.000	0.013	-0.174
-388.033	800.000	0.084	0.344
-387.019	79.219	0.179	0.251
-386.004	-148.651	-0.384	-0.040
-384.990	-99.932	0.271	0.088
-383.975	58.082	-0.090	0.115
-382.960	-200.000	-0.050	0.305
-381.946	-172.550	0.035	0.001
-380.931	340.890	0.078	-0.200
-379.917	-200.000	-0.007	0.227
-378.902	138.330	0.040	-0.069
-377.888	240.862	0.228	-0.499
-376.873	-5.381	0.236	0.212
-375.858	-153.515	0.742	0.066
-374.844	-16.449	-0.041	-0.034
-373.829	-143.878	-0.231	0.028
-372.815	29.561	-0.282	-0.314
-371.800	-7.872	0.495	0.436
-370.785	-84.123	-0.132	0.054
-369.771	-17.694	-0.350	0.287
-368.756	316.831	0.030	0.075
-367.742	608.875	0.092	0.303
-366.727	-200.000	-0.001	0.312
-365.712	-157.449	-0.130	-0.010
-364.698	-56.554	-0.286	0.165
-363.683	286.185	-0.118	0.280
-362.669	75.537	0.122	-0.169
-361.654	404.456	-0.104	-0.288
-360.639	-101.032	-0.358	-0.114
-359.625	174.489	0.051	0.096
-358.610	86.708	0.183	-0.264
-357.596	86.488	-0.079	-0.115
-356.581	67.441	0.345	0.460
-355.566	-34.254	-0.279	-0.200
-354.552	-106.517	-0.091	0.026
-353.537	123.423	0.077	-0.127
-352.523	-21.334	0.361	0.288
-351.508	-200.000	-0.025	0.176
-350.493	81.814	-0.291	0.412
-349.479	252.945	0.084	0.189
-348.464	85.628	0.059	-0.085
-347.450	-70.278	0.418	0.207
-346.435	0.324	-0.138	0.129
-345.420	277.241	0.118	-0.276
-344.406	-200.000	-0.002	-0.050
-343.391	-91.257	-0.153	0.057
-342.377	-114.021	-0.317	-0.080
-341.362	-156.303	0.244	0.020
-340.348	-200.000	0.004	-0.360
-339.333	-107.031	-0.340	-0.098
-338.318	40.065	0.172	-0.202
-337.304	-200.000	-0.074	0.625
-336.289	275.586	-0.112	-0.262
-335.275	-150.419	0.416	-0.041
-334.260	43.060	0.236	0.282
-333.245	-200.000	-0.018	-0.335
-332.231	65.513	0.079	-0.104
-331.216	-102.608	-0.329	-0.102
-330.202	-93.597	0.382	-0.137
-329.187	800.000	-0.064	0.250
-328.172	-91.171	0.260	-0.097
-327.158	-200.000	0.002	-0.082
-326.143	-152.076	-0.281	0.026
-325.129	-200.000	0.009	-0.184
-324.114	43.507	0.136	0.163
-323.099	-91.018	-0.150	0.056
-322.085	59.025	0.198	0.254
-321.070	403.137	0.073	-0.200
-320.056	116.303	-0.091	-0.145
-319.041	264.002	-0.174	-0.396
-318.026	-200.000	-0.071	-0.537
-317.012	-151.457	-0.586	0.056
-315.997	-21.779	-0.186	0.148
-314.983	-115.086	-0.310	-0.076
-313.968	-10.464	-0.081	0.070
-312.953	-187.861	-0.384	0.006
-311.939	-96.212	-0.313	0.108
-310.924	263.239	-0.121	-0.275
-309.910	-119.184	0.876	-0.198
-308.895	-103.320	0.245	0.075
-307.880	-112.144	0.311	0.081
-306.866	69.013	-0.101	-0.135
-305.851	-49.249	0.203	0.126
-304.837	-126.758	-0.392	-0.075
-303.822	-66.996	-0.049	-0.025
-302.807	245.061	-0.205	-0.451
-301.793	800.000	-0.065	0.355
-300.778	-34.513	-0.183	-0.131
-299.764	-20.494	-0.227	-0.182
-298.749	-50.548	0.159	-0.098
-297.735	800.000	-0.037	0.148
-296.720	-13.061	-0.243	-0.205
-295.705	45.559	0.230	-0.277
-294.691	-24.656	0.214	-0.166
-293.676	79.919	0.073	0.102
-292.662	-114.797	-0.573	-0.142
-291.647	-153.957	0.397	0.035
-290.632	119.039	-0.177	0.285
-289.618	-152.907	-0.385	0.035
-288.603	268.354	0.192	0.441
-287.589	-120.647	0.295	-0.065
-286.574	24.290	0.269	-0.289
-285.559	-200.000	0.019	-0.145
-284.545	4.031	-0.207	-0.198
-283.530	231.548	-0.092	0.196
-282.516	-61.335	0.352	0.193
-281.501	111.474	0.047	-0.074
-280.486	364.193	-0.158	0.416
-279.472	204.171	0.049	-0.100
-278.457	51.321	0.207	-0.256
-277.443	5.550	-0.288	-0.277
-276.428	-87.904	0.033	0.013
-275.413	-24.109	0.153	-0.119
-274.399	534.142	0.121	-0.377
-273.384	230.869	-0.141	0.301
-272.370	131.396	-0.138	0.232
-271.355	-123.418	0.166	0.034
-270.340	291.497	-0.062	-0.148
-269.326	-194.055	-0.176	-0.002
-268.311	179.821	0.274	-0.525
-267.297	-15.506	0.364	0.303
-266.282	800.000	0.073	0.332
-265.267	58.534	-0.135	0.173
-264.253	209.465	0.027	0.056
-263.238	196.487	0.079	0.158
-262.224	-7.831	0.050	-0.044
-261.209	-5.297	0.105	0.094
-260.195	-69.006	0.311	-0.155
-259.180	19.603	-0.114	0.120
-258.165	-94.815	-0.641	-0.225
-257.151	214.949	0.071	-0.147
-256.136	-155.385	0.130	0.011
-255.122	43.273	-0.041	0.049
-254.107	-1.257	-0.342	-0.314
-253.092	-90.343	0.411	-0.155
-252.078	567.021	0.098	-0.312
-251.063	-109.077	0.166	0.046
-250.049	-36.452	0.311	-0.218
-249.034	-26.152	0.275	-0.210
-248.019	-200.000	0.013	-0.296
-247.005	-152.551	0.172	-0.016
-245.990	-90.277	-0.094	0.036
-244.976	-115.672	-0.313	0.076
-243.961	-200.000	-0.073	-0.430
-242.946	-39.492	0.053	-0.036
-241.932	-143.933	0.163	-0.020
-240.917	-45.966	0.434	-0.278
-239.903	30.854	0.177	0.197
-238.888	-139.765	0.170	-0.023
-237.873	124.756	-0.204	-0.335
-236.859	-134.864	-0.585	0.091
-235.844	-15.883	0.172	-0.142
-234.830	303.537	0.130	-0.316
-233.815	91.353	-0.154	0.225
-232.800	67.845	0.311	0.414
-231.786	-200.000	-0.038	0.295
-230.771	-153.718	-0.309	0.027
-229.757	-164.229	-0.401	0.024
-228.742	800.000	0.042	-0.153
-227.727	-200.000	0.017	-0.179
-226.713	-112.117	-0.335	0.087
-225.698	-200.000	-0.018	-0.104
-224.684	-200.000	0.048	-0.497
-223.669	-160.044	0.166	-0.012
-222.655	-94.229	-0.350	0.124
-221.640	-100.343	-0.189	-0.060
-220.625	-73.359	-0.156	-0.074
-219.611	-21.979	-0.320	0.253
-218.596	126.392	0.208	0.343
-217.582	50.445	0.245	0.301
-216.567	139.729	-0.051	-0.088
-215.552	-200.000	0.028	0.290
-214.538	-166.631	-0.188	0.010
-213.523	800.000	0.114	0.473
-212.509	-96.503	-0.067	0.023
-211.494	800.000	0.017	-0.082
-210.479	154.511	-0.063	0.113
-209.465	-134.427	0.216	0.034
-208.450	93.634	-0.229	-0.337
-207.436	-200.000	-0.052	0.322
-206.421	-120.540	0.572	-0.125
-205.406	-190.597	-0.516	0.007
-204.392	28.760	-0.101	0.112
-203.377	-104.866	-0.886	-0.263
-202.363	-103.382	0.156	-0.047
-201.348	147.037	0.158	-0.277
-200.333	183.640	0.145	-0.279
-199.319	243.372	-0.053	0.115
-198.304	168.303	-0.174	-0.323
-197.290	-148.480	-0.181	0.019
-196.275	-35.699	0.208	-0.146
-195.260	-82.062	0.386	-0.163
-194.246	296.193	-0.135	0.323
-193.231	-48.154	-0.176	0.110
-192.217	-123.174	0.278	0.057
-191.202	-200.000	-0.041	-0.648
-190.187	-122.219	0.473	-0.100
-189.173	-200.000	0.039	-0.349
-188.158	-77.148	0.439	-0.198
-187.144	238.696	-0.141	-0.305
-186.129	92.819	0.135	-0.198
-185.114	-200.000	0.003	-0.383
-184.100	121.920	-0.257	-0.417
-183.085	121.139	-0.171	0.277
-182.071	-102.048	-0.406	-0.126
-181.056	-200.000	-0.017	-0.178
-180.042	416.758	-0.013	0.035
-179.027	-119.981	-0.078	-0.017
-178.012	800.000	0.112	0.583
-176.998	-165.507	0.097	0.005
-175.983	-200.000	-0.015	-0.281
-174.969	58.648	0.190	-0.242
-173.954	-200.000	-0.005	0.166
-172.939	746.971	-0.149	0.522
-171.925	11.939	0.379	0.377
-170.910	-200.000	0.017	-0.201
-169.896	-161.134	-0.568	-0.038
-168.881	-71.948	0.192	0.092
-167.866	800.000	0.137	-0.512
-166.852	-150.755	-0.193	-0.019
-165.837	675.426	0.066	0.225
-164.823	-81.243	-0.333	-0.142
-163.808	63.694	0.173	-0.225
-162.793	-19.502	0.467	0.375
-161.779	649.843	-0.080	0.266
-160.764	-84.942	-0.352	0.143
-159.750	-77.225	-0.157	0.071
-158.735	-128.991	-0.120	0.022
-157.720	800.000	0.039	0.188
-156.706	-89.806	0.386	0.146
-155.691	223.234	0.115	-0.241
-154.677	88.339	0.098	0.141
-153.662	541.553	0.058	0.181
-152.647	-122.587	-0.125	0.026
-151.633	-135.457	-0.556	-0.085
-150.618	5.446	-0.197	0.188
-149.604	-105.448	0.196	0.057
-148.589	-10.824	0.228	-0.195
-147.574	244.756	0.192	-0.421
-146.560	521.571	-0.060	-0.182
-145.545	-200.000	-0.034	-0.394
-144.531	36.915	0.347	0.398
-143.516	-105.854	-0.458	-0.133
-142.502	-200.000	-0.020	-0.523
-141.487	-29.036	-0.118	-0.088
-140.472	-18.861	-0.024	0.020
-139.458	666.621	0.033	0.113
-138.443	-200.000	0.023	-0.419
-137.429	-97.091	-0.178	-0.060
-136.414	291.432	-0.117	-0.278
-135.399	-121.495	-0.420	-0.090
-134.385	-158.119	-0.719	-0.054
-133.370	800.000	-0.123	-0.667
-132.356	-128.903	-0.278	-0.050
-131.341	800.000	-0.160	-0.595
-130.326	-200.000	-0.016	0.192
-129.312	58.620	0.139	0.177
-128.297	-200.000	0.015	0.202
-127.283	-114.038	0.055	0.014
-126.268	-87.215	0.143	-0.056
-125.253	-79.837	-0.077	0.034
-124.239	-200.000	-0.043	0.280
-123.224	800.000	0.063	0.235
-122.210	-175.428	0.385	-0.013
-121.195	189.902	0.182	0.355
-120.180	74.570	0.164	-0.224
-119.166	-78.497	-0.352	-0.155
-118.151	192.558	-0.256	-0.501
-117.137	28.623	0.356	-0.391
-116.122	-126.825	0.211	-0.040
-115.107	132.421	-0.165	0.276
-114.093	173.481	-0.215	-0.402
-113.078	1.478	-0.142	-0.132
-112.064	248.018	-0.096	0.212
-111.049	41.255	-0.174	-0.203
-110.034	-27.134	0.357	-0.269
-109.020	-20.695	0.574	0.455
-108.005	-66.059	-0.337	0.173
-106.991	-200.000	0.015	0.096
-105.976	187.399	0.105	0.203
-104.962	-137.659	-0.297	-0.043
-103.947	-200.000	0.205	0.001
-102.932	-186.820	0.328	-0.006
-101.918	-200.000	-0.708	-0.002
-100.903	-200.000	-0.020	-0.255
-99.889	-172.526	0.261	0.011
-98.874	609.234	0.039	-0.125
-97.859	-81.667	0.242	0.102
-96.845	-187.520	1.119	0.019
-95.830	70.864	0.028	-0.037
-94.816	-2.797	-0.138	-0.125
-93.801	200.516	0.133	0.266
-92.786	-148.536	0.559	0.058
-91.772	-200.000	0.077	0.477
-90.757	-200.000	-0.004	0.411
-89.743	-200.000	-0.011	0.253
-88.728	52.750	0.079	0.097
-87.713	-102.349	-0.061	-0.019
-86.699	65.546	0.155	-0.203
-85.684	-142.504	0.282	-0.035
-84.670	359.752	-0.088	-0.230
-83.655	20.930	-0.060	-0.063
-82.640	24.173	0.260	-0.277
-81.626	26.722	-0.177	0.191
-80.611	66.803	0.236	0.310
-79.597	-85.652	0.162	-0.065
-78.582	-166.115	-0.193	-0.010
-77.567	-200.000	0.008	0.142
-76.553	-17.780	0.360	-0.292
-75.538	-87.657	-0.169	-0.066
-74.524	374.579	-0.090	-0.237
-73.509	-21.134	-0.228	-0.180
-72.494	53.294	0.432	-0.536
-71.480	-14.917	-0.076	0.063
-70.465	345.722	-0.093	0.238
-69.451	-45.285	0.205	0.131
-68.436	-63.477	-0.213	-0.113
-67.422	-97.896	-0.461	0.153
-66.407	-182.875	0.501	-0.011
-65.392	-200.000	0.022	0.223
-64.378	-33.974	0.359	-0.255
-63.363	-11.575	0.243	-0.206
-62.349	188.438	0.176	0.341
-61.334	11.876	-2.270	-2.253
-60.319	39.276	1.404	1.624
-59.305	305.290	-3.176	-7.657
-58.290	66.657	3.765	4.954
-57.276	353.985	3.852	9.931
-56.261	-200.000	22.270	318.159
-55.246	358.439	1297.172	3362.368
-54.232	52.995	2843.832	3518.272
-53.217	51.573	2661.865	3271.041
-52.203	32.178	2392.652	2666.784
-51.188	28.246	2057.433	2244.715
-50.173	24.949	1944.274	2082.699
-49.159	23.897	1932.200	2057.460
-48.144	23.443	1927.440	2047.033
-47.130	23.408	1924.403	2043.319
-46.115	23.320	1923.793	2041.570
-45.100	23.307	1921.988	2039.427
-44.086	23.313	1920.655	2038.001
-43.071	23.201	1919.642	2035.555
-42.057	23.223	1917.410	2033.360
-41.042	23.328	1915.750	2032.728
-40.027	23.131	1915.303	2029.900
-39.013	23.312	1912.274	2028.689
-37.998	23.276	1911.760	2027.655
-36.984	23.269	1910.314	2025.962
-35.969	23.131	1910.636	2024.638
-34.954	23.178	1908.737	2023.082
-33.940	23.215	1907.049	2021.641
-32.925	23.144	1905.760	2019.379
-31.911	23.182	1904.646	2018.551
-30.896	23.110	1903.288	2016.207
-29.881	23.063	1901.461	2013.651
-28.867	23.186	1899.464	2012.869
-27.852	23.019	1898.779	2010.150
-26.838	23.095	1897.456	2009.542
-25.823	23.065	1896.281	2007.869
-24.809	23.111	1895.231	2007.201
-23.794	23.107	1893.822	2005.585
-22.779	23.028	1892.330	2003.029
-21.765	22.990	1891.055	2001.170
-20.750	23.071	1890.280	2001.182
-19.736	23.069	1888.978	1999.709
-18.721	22.974	1887.387	1996.864
-17.706	23.203	1885.771	1997.672
-16.692	23.013	1886.074	1995.760
-15.677	22.923	1884.460	1992.952
-14.663	23.090	1882.056	1992.227
-13.648	23.039	1881.043	1990.497
-12.633	23.018	1880.435	1989.537
-11.619	23.062	1878.444	1987.842
-10.604	22.919	1877.653	1985.312
-9.590	22.922	1876.469	1984.022
-8.575	22.883	1875.378	1982.343
-7.560	22.862	1874.235	1980.822
-6.546	22.920	1873.308	1980.414
-5.531	22.875	1871.421	1977.834
-4.517	22.943	1870.387	1977.429
-3.502	22.910	1869.704	1976.256
-2.487	22.931	1869.086	1975.758
-1.473	23.067	1865.300	1973.206
-0.458	22.826	1846.608	1950.684
0.556	19.191	1992.687	2049.292
1.571	17.929	2194.481	2239.916
2.586	18.645	2233.434	2289.005
3.600	18.777	2235.766	2292.902
4.615	18.694	2235.308	2291.042
5.629	18.681	2233.008	2288.229
6.644	18.609	2231.716	2285.667
7.659	18.635	2230.121	2284.111
8.673	18.520	2228.606	2280.751
9.688	18.435	2236.797	2287.720
10.702	17.607	2317.003	2357.947
11.717	15.892	2380.096	2397.339
12.731	7.318	2360.770	2255.410
13.746	1.053	2343.390	2149.410
14.761	0.179	2339.574	2133.210
15.775	0.043	2338.787	2130.298
16.790	-0.020	2336.943	2127.459
17.804	0.040	2334.420	2125.763
18.819	0.029	2333.616	2124.621
19.834	0.061	2332.730	2124.018
20.848	-0.006	2332.144	2122.278
21.863	0.068	2329.018	2120.231
22.877	0.021	2327.851	2118.241
23.892	-0.044	2325.950	2115.350
24.907	-0.037	2323.720	2113.165
25.921	-0.038	2321.689	2111.048
26.936	-0.006	2318.611	2108.445
27.950	0.022	2316.141	2106.345
28.965	0.026	2314.442	2104.604
29.980	-0.001	2313.530	2103.146
30.994	0.115	2310.847	2102.076
32.009	3.849	2322.369	2164.928
33.023	13.021	2349.524	2320.086
34.038	16.881	2354.937	2379.719
35.053	16.887	2352.205	2376.756
36.067	16.805	2348.484	2371.561
37.082	16.788	2347.884	2370.435
38.096	16.840	2345.813	2368.780
39.111	17.042	2343.009	2368.503
40.126	17.246	2340.727	2368.779
41.140	17.369	2340.881	2370.363
42.155	17.235	2339.242	2366.551
43.169	17.203	2336.470	2363.013
44.184	17.103	2332.728	2357.547
45.199	17.053	2330.536	2354.354
46.213	17.111	2330.613	2354.961
47.228	17.301	2329.671	2356.376
48.242	17.339	2327.548	2354.482
49.257	17.444	2325.420	2353.496
50.271	17.466	2323.624	2351.705
51.286	17.152	2320.451	2343.864
52.301	17.012	2318.328	2339.488
53.315	17.733	2322.291	2353.216
54.330	20.704	2329.594	2401.606
55.344	22.563	2331.373	2428.946
56.359	22.821	2328.021	2428.730
57.374	22.994	2327.798	2430.591
58.388	23.102	2324.497	2428.342
59.403	23.018	2319.240	2421.412
60.417	22.510	2316.777	2411.560
61.432	22.562	2316.192	2411.370
62.447	22.828	2314.578	2413.060
63.461	22.976	2312.848	2412.998
64.476	23.098	2311.185	2412.652
65.490	22.839	2308.518	2406.031
66.505	21.962	2304.554	2389.606
67.520	19.721	2297.249	2351.146
68.534	17.652	2288.277	2313.481
69.549	17.169	2283.642	2301.938
70.563	17.195	2280.839	2299.199
71.578	17.000	2279.856	2295.272
72.593	17.243	2277.872	2296.303
73.607	17.235	2277.566	2295.618
74.622	17.318	2275.259	2294.137
75.636	17.308	2270.776	2289.213
76.651	17.156	2269.555	2285.647
77.666	17.097	2267.956	2282.970
78.680	17.047	2265.037	2279.083
79.695	16.765	2263.487	2273.448
80.709	16.735	2261.294	2270.565
81.724	16.766	2259.563	2268.974
82.739	16.822	2256.999	2266.877
83.753	16.802	2255.063	2264.390
84.768	16.749	2253.312	2261.655
85.782	16.750	2251.864	2259.939
86.797	16.762	2249.506	2257.471
87.812	16.775	2247.574	2255.434
88.826	16.907	2246.214	2255.562
89.841	16.887	2244.167	2252.968
90.855	16.971	2242.059	2251.699
91.870	16.979	2241.018	2250.498
92.884	16.992	2238.925	2248.297
93.899	16.981	2238.575	2247.527
94.914	17.689	2240.754	2258.888
95.928	20.132	2247.864	2298.382
96.943	21.124	2246.242	2309.645
97.957	18.514	2235.054	2263.279
98.972	17.028	2229.206	2237.409
99.987	16.963	2225.190	2232.248
101.001	16.922	2222.754	2228.994
102.016	16.936	2221.666	2227.822
103.030	16.835	2220.400	2224.949
104.045	16.854	2217.325	2221.856
105.060	16.836	2215.307	2219.336
106.074	16.943	2214.003	2219.171
107.089	16.831	2211.775	2215.198
108.103	16.824	2210.566	2213.631
109.118	16.978	2209.614	2214.431
110.133	16.999	2208.252	2213.085
111.147	16.913	2205.103	2208.538
112.162	16.878	2204.386	2207.094
113.176	16.992	2202.378	2206.312
114.191	17.086	2200.011	2204.897
115.206	17.158	2198.197	2203.759
116.220	16.942	2197.441	2199.917
117.235	16.941	2195.496	2197.701
118.249	17.009	2193.246	2196.066
119.264	17.071	2191.235	2194.597
120.279	17.052	2190.053	2192.903
121.293	17.117	2187.897	2191.321
122.308	17.062	2186.688	2189.139
123.322	16.912	2184.867	2185.113
124.337	17.449	2186.524	2193.466
125.352	20.235	2194.233	2237.096
126.366	20.895	2192.691	2243.807
127.381	18.255	2181.691	2198.242
128.395	17.136	2176.435	2178.266
129.410	17.096	2174.268	2175.309
130.424	16.895	2172.811	2171.006
131.439	16.989	2170.754	2169.906
132.454	16.988	2168.932	2167.809
133.468	17.073	2167.386	2167.095
134.483	17.178	2166.243	2167.041
135.497	17.345	2163.513	2166.186
136.512	17.175	2162.231	2162.474
137.527	17.138	2159.800	2159.305
138.541	16.902	2158.741	2154.974
139.556	17.017	2158.271	2155.710
140.570	16.964	2155.654	2152.169
141.585	16.947	2153.887	2149.931
142.600	16.915	2152.173	2147.550
143.614	16.749	2151.306	2144.316
144.629	16.700	2149.681	2141.818
145.643	16.697	2147.549	2139.407
146.658	16.671	2145.639	2136.913
147.673	16.644	2143.440	2134.129
148.687	16.767	2142.118	2134.110
149.702	16.843	2142.307	2135.005
150.716	16.915	2141.550	2134.904
151.731	16.871	2140.946	2133.497
152.746	17.037	2138.512	2132.915
153.760	17.771	2141.836	2145.246
154.775	20.359	2149.607	2185.563
155.789	21.305	2146.821	2194.426
156.804	18.711	2135.728	2150.211
157.819	16.983	2129.051	2121.521
158.833	16.830	2125.298	2115.611
159.848	16.798	2123.288	2112.959
160.862	16.908	2122.708	2113.505
161.877	16.930	2122.154	2112.969
162.892	16.958	2121.524	2112.450
163.906	17.057	2119.635	2111.552
164.921	17.089	2117.392	2109.464
165.935	17.054	2115.484	2106.871
166.950	17.012	2114.685	2105.302
167.964	17.044	2112.656	2103.424
168.979	16.922	2109.547	2098.564
169.994	16.895	2107.758	2096.193
171.008	16.942	2106.654	2095.424
172.023	16.778	2105.177	2091.675
173.037	16.920	2104.306	2092.320
174.052	16.971	2103.210	2091.618
175.067	17.000	2100.292	2088.818
176.081	16.894	2098.713	2085.687
177.096	16.870	2097.950	2084.389
178.110	16.898	2096.449	2082.991
179.125	16.953	2096.216	2083.189
180.140	17.051	2094.038	2081.981
181.154	17.036	2092.287	2079.811
182.169	17.158	2091.465	2080.239
183.183	17.863	2094.958	2092.153
184.198	20.892	2101.977	2136.303
185.213	21.343	2099.597	2139.178
186.227	18.393	2089.633	2092.601
187.242	17.157	2084.827	2072.388
188.256	17.168	2082.758	2070.216
189.271	16.867	2081.164	2064.696
190.286	16.892	2079.312	2062.919
191.300	16.997	2077.467	2062.130
192.315	16.963	2075.944	2059.958
193.329	17.163	2074.490	2060.702
194.344	17.326	2074.040	2062.000
195.359	17.273	2072.416	2059.486
196.373	17.187	2068.804	2054.603
197.388	16.999	2066.605	2049.890
198.402	16.885	2065.167	2046.836
199.417	16.874	2062.958	2044.265
200.432	16.971	2061.387	2043.646
201.446	16.856	2060.826	2041.452
202.461	16.840	2058.973	2039.180
203.475	16.754	2056.832	2035.773
204.490	16.759	2054.902	2033.680
205.504	16.970	2051.989	2033.099
206.519	16.957	2050.754	2031.471
207.534	16.893	2049.291	2029.015
208.548	16.762	2048.401	2026.306
209.563	16.888	2046.884	2026.084
210.577	16.938	2046.003	2025.566
211.592	17.008	2045.879	2026.048
212.607	18.270	2050.674	2045.719
213.621	21.542	2058.636	2092.816
214.636	21.121	2051.380	2080.139
215.650	18.005	2042.173	2033.336
216.665	17.066	2038.651	2018.365
217.680	17.040	2035.972	2015.169
218.694	16.969	2034.615	2012.738
219.709	16.834	2032.771	2009.058
220.723	16.935	2031.221	2008.494
221.738	17.021	2030.209	2008.273
222.753	17.101	2027.762	2006.563
223.767	17.042	2027.178	2005.046
224.782	17.187	2024.840	2004.215
225.796	17.024	2023.897	2001.110
226.811	17.054	2022.387	1999.729
227.826	17.064	2020.329	1997.568
228.840	17.079	2018.568	1995.767
229.855	16.976	2017.671	1993.425
230.869	16.978	2016.123	1991.679
231.884	16.898	2014.946	1989.341
232.899	16.922	2013.560	1988.009
233.913	17.011	2012.250	1987.530
234.928	17.066	2010.832	1986.542
235.942	16.816	2009.523	1982.072
236.957	16.869	2007.796	1980.751
237.972	17.049	2005.918	1980.776
238.986	16.841	2005.646	1977.822
240.001	16.811	2003.967	1975.582
241.015	16.978	2002.538	1975.896
242.030	17.809	2005.150	1987.968
243.045	20.558	2010.301	2025.068
244.059	20.859	2007.360	2025.389
245.074	18.221	1997.614	1984.592
246.088	17.171	1994.426	1968.956
247.103	17.370	1992.329	1968.975
248.117	17.273	1991.076	1966.371
249.132	17.045	1989.132	1961.568
250.147	17.026	1987.136	1959.141
251.161	16.987	1985.823	1957.156
252.176	17.135	1985.553	1958.373
253.190	17.434	1983.322	1959.402
254.205	17.577	1981.319	1958.843
255.220	17.464	1979.907	1955.905
256.234	17.393	1979.338	1954.285
257.249	17.161	1978.160	1950.213
258.263	17.159	1975.690	1947.527
259.278	17.181	1975.218	1947.079
260.293	17.102	1972.756	1943.513
261.307	16.982	1971.187	1940.353
262.322	16.931	1969.608	1937.983
263.336	16.871	1967.736	1935.218
264.351	16.794	1965.504	1931.903
265.366	16.860	1963.817	1930.779
266.380	16.764	1963.491	1929.125
267.395	16.873	1962.303	1928.973
268.409	16.848	1960.965	1927.144
269.424	16.894	1959.513	1926.004
270.439	16.846	1958.922	1924.642
271.453	17.972	1961.618	1939.931
272.468	20.786	1966.682	1976.860
273.482	21.002	1962.496	1974.885
274.497	18.184	1953.199	1933.319
275.512	17.015	1949.551	1916.207
276.526	16.921	1946.489	1911.909
277.541	16.913	1944.443	1909.579
278.555	16.750	1943.361	1906.443
279.570	16.694	1941.544	1903.805
280.585	16.785	1940.587	1903.663
281.599	16.882	1939.168	1903.136
282.614	17.024	1938.095	1903.454
283.628	17.252	1938.068	1905.774
284.643	17.399	1937.405	1906.548
285.657	17.616	1936.175	1907.552
286.672	17.609	1934.794	1905.886
287.687	17.566	1933.244	1903.647
288.701	17.354	1932.104	1899.912
289.716	17.440	1929.684	1898.276
290.730	17.460	1928.543	1897.151
291.745	17.441	1926.647	1894.838
292.760	17.489	1925.932	1894.452
293.774	17.298	1925.141	1891.305
294.789	17.216	1923.817	1888.865
295.803	17.164	1920.486	1884.789
296.818	17.050	1919.225	1882.054
297.833	17.002	1918.756	1880.834
298.847	16.993	1917.625	1879.401
299.862	16.954	1915.331	1876.500
300.876	17.833	1917.471	1888.145
301.891	20.883	1924.081	1928.417
302.906	21.223	1921.926	1929.801
303.920	18.282	1912.511	1887.567
304.935	17.187	1908.921	1871.673
305.949	17.144	1906.385	1868.490
306.964	17.160	1904.639	1866.735
307.979	17.182	1903.630	1865.762
308.993	17.389	1902.393	1866.610
310.008	17.689	1901.495	1868.808
311.022	17.604	1900.316	1866.497
312.037	17.460	1898.301	1862.709
313.052	17.519	1896.059	1860.927
314.066	17.615	1894.648	1860.374
315.081	17.571	1894.070	1859.108
316.095	17.372	1892.674	1855.328
317.110	17.190	1890.338	1850.825
318.125	17.178	1888.742	1848.914
319.139	17.082	1887.795	1846.714
320.154	17.286	1885.905	1846.865
321.168	17.279	1884.082	1844.788
322.183	17.062	1882.527	1840.680
323.197	16.982	1881.390	1838.471
324.212	16.850	1879.406	1834.884
325.227	16.749	1877.512	1831.710
326.241	16.743	1876.058	1830.008
327.256	16.767	1875.136	1829.157
328.270	16.723	1874.078	1827.427
329.285	16.765	1874.038	1827.622
330.300	17.839	1878.163	1843.095
331.314	21.057	1883.952	1883.540
332.329	21.152	1877.959	1878.346
333.343	17.913	1869.851	1835.079
334.358	16.869	1865.903	1819.721
335.373	16.656	1864.496	1815.832
336.387	16.563	1861.936	1812.120
337.402	16.637	1860.422	1811.226
338.416	16.638	1859.402	1810.029
339.431	16.810	1858.441	1810.725
340.446	16.938	1855.554	1809.071
341.460	16.989	1855.670	1809.507
342.475	17.179	1855.073	1810.751
343.489	17.338	1853.728	1810.925
344.504	17.379	1852.150	1809.602
345.519	17.347	1850.858	1807.775
346.533	17.478	1849.778	1807.909
347.548	17.721	1848.492	1809.023
348.562	17.460	1846.865	1804.434
349.577	17.298	1847.191	1802.813
350.592	17.592	1845.563	1804.135
351.606	17.731	1843.924	1803.796
352.621	17.889	1841.271	1802.669
353.635	17.485	1840.417	1797.330
354.650	17.369	1838.795	1794.299
355.665	17.235	1837.435	1791.330
356.679	17.156	1835.782	1788.670
357.694	17.148	1833.975	1786.614
358.708	17.090	1832.429	1784.278
359.723	18.339	1837.956	1802.675
360.738	21.442	1842.670	1839.949
361.752	20.894	1836.723	1828.008
362.767	18.096	1828.843	1790.529
363.781	17.322	1824.660	1778.093
364.796	17.175	1823.744	1775.441
365.810	16.924	1823.303	1772.165
366.825	16.991	1821.513	1770.908
367.840	17.090	1820.506	1770.761
368.854	17.181	1819.672	1770.695
369.869	17.042	1817.857	1767.257
370.883	17.064	1816.504	1765.961
371.898	17.195	1816.105	1766.728
372.913	17.120	1815.085	1764.743
373.927	17.225	1814.843	1765.396
374.942	17.425	1812.767	1765.253
375.956	17.369	1810.877	1762.610
376.971	17.189	1808.742	1758.449
377.986	17.183	1806.981	1756.463
379.000	17.091	1806.287	1754.625
380.015	17.145	1804.179	1752.930
381.029	16.974	1802.024	1748.851
382.044	16.694	1800.225	1743.999
383.059	16.732	1798.635	1742.638
384.073	16.768	1798.127	1742.316
385.088	16.832	1797.423	1742.090
386.102	16.769	1795.418	1739.279
387.117	16.792	1793.128	1737.095
388.132	16.808	1793.431	1737.346
389.146	17.887	1798.012	1752.721
390.161	21.165	1802.213	1790.457
391.175	20.906	1795.090	1780.508
392.190	17.751	1787.522	1740.466
393.205	17.027	1783.547	1728.979
394.219	16.947	1782.238	1726.686
395.234	16.887	1781.025	1724.690
396.248	16.814	1778.951	1721.723
397.263	16.669	1776.518	1717.687
398.278	16.718	1775.135	1716.645
399.292	16.785	1774.059	1716.085
400.307	16.826	1773.875	1716.117
401.321	16.921	1772.940	1715.968
402.336	17.054	1771.521	1715.748
403.350	16.996	1770.165	1713.638
404.365	17.046	1769.017	1712.824
405.380	17.339	1767.832	1714.440
406.394	17.628	1768.023	1717.355
407.409	18.179	1768.549	1723.235
408.423	18.005	1765.705	1718.505
409.438	17.504	1762.438	1710.055
410.453	17.319	1761.742	1707.315
411.467	17.496	1761.243	1708.408
412.482	17.413	1759.259	1705.445
413.496	17.112	1757.282	1700.292
414.511	17.121	1755.484	1698.439
415.526	17.177	1753.398	1696.780
416.540	16.984	1751.503	1692.815
417.555	17.055	1750.826	1692.671
418.569	17.222	1751.692	1694.979
419.584	17.392	1751.078	1695.880
420.599	17.308	1750.673	1694.443
421.613	17.037	1749.247	1690.145
422.628	17.136	1747.088	1688.849
423.642	17.126	1744.949	1686.480
424.657	17.124	1743.492	1684.854
425.672	17.107	1743.044	1684.046
426.686	17.140	1742.176	1683.339
427.701	17.090	1740.248	1680.777
428.715	17.066	1738.979	1679.109
429.730	17.463	1738.104	1682.004
430.745	17.356	1736.579	1679.271
431.759	17.359	1736.496	1679.018
432.774	17.722	1736.828	1682.740
433.788	18.071	1737.566	1686.716
434.803	18.397	1736.578	1688.789
435.818	18.233	1736.377	1686.762
436.832	18.315	1735.019	1686.047
437.847	17.230	1728.484	1668.797
438.861	9.498	1707.077	1572.292
439.876	1.661	1692.735	1482.379
440.890	0.219	1689.210	1465.028
441.905	0.107	1688.476	1463.116
442.920	0.239	1686.814	1462.793
443.934	0.039	1686.215	1460.146
444.949	0.137	1684.424	1459.375
445.963	0.113	1683.727	1458.361
446.978	0.142	1682.689	1457.567
447.993	0.065	1681.517	1455.633
449.007	0.088	1678.996	1453.499
450.022	0.076	1677.168	1451.624
451.036	0.222	1675.594	1451.508
452.051	1.182	1680.384	1464.801
453.066	8.758	1697.896	1553.998
454.080	16.584	1710.260	1641.743
455.095	18.290	1712.233	1660.084
456.109	18.892	1711.918	1665.444
457.124	19.000	1711.320	1665.712
458.139	19.017	1711.496	1665.847
459.153	19.245	1710.411	1666.816
460.168	19.271	1708.067	1664.583
461.182	19.247	1706.981	1663.090
462.197	19.048	1704.918	1658.955
463.212	19.080	1702.263	1656.485
464.226	18.905	1702.460	1654.785
465.241	19.130	1701.638	1655.960
466.255	19.318	1700.445	1656.418
467.270	19.316	1698.301	1654.113
468.285	19.080	1697.262	1650.625
469.299	18.959	1696.037	1648.070
470.314	19.136	1694.053	1647.649
471.328	19.032	1692.930	1645.361
472.343	19.296	1691.346	1646.157
473.358	19.215	1690.517	1644.381
474.372	19.164	1689.967	1643.151
475.387	18.999	1688.026	1639.494
476.401	18.911	1686.237	1636.720
477.416	18.848	1686.612	1636.280
478.430	19.069	1684.360	1636.012
479.445	18.795	1683.552	1632.416
480.460	18.798	1681.913	1630.657
481.474	19.004	1680.087	1630.655
482.489	19.218	1679.854	1632.271
483.503	19.294	1677.643	1630.651
484.518	19.385	1676.765	1630.467
485.533	19.254	1675.980	1628.261
486.547	19.211	1674.472	1626.193
487.562	19.489	1673.777	1627.963
488.576	19.413	1672.393	1625.708
489.591	19.374	1671.362	1624.138
490.606	19.248	1669.617	1621.059
491.620	19.299	1668.146	1619.918
492.635	19.538	1666.016	1619.905
493.649	19.700	1665.066	1620.315
494.664	19.232	1664.092	1614.762
495.679	18.988	1661.508	1609.767
496.693	19.032	1660.630	1609.139
497.708	19.214	1660.689	1610.714
498.722	19.452	1659.279	1611.393
499.737	19.576	1657.553	1610.684
500.752	19.418	1655.292	1606.818
501.766	19.206	1654.268	1603.642
502.781	19.360	1653.109	1603.773
503.795	19.334	1651.965	1602.224
504.810	19.289	1651.219	1600.886
505.825	19.499	1650.721	1602.170
506.839	19.417	1649.735	1600.257
507.854	19.604	1647.786	1599.918
508.868	19.566	1646.296	1597.932
509.883	19.580	1645.780	1597.361
510.898	19.695	1644.476	1596.981
511.912	19.690	1641.892	1594.231
512.927	19.430	1640.399	1590.182
513.941	19.514	1638.840	1589.256
514.956	19.317	1637.545	1585.993
515.971	19.252	1636.447	1584.131
516.985	19.387	1635.870	1584.633
518.000	19.330	1635.900	1583.949
519.014	19.551	1634.775	1584.704
520.029	19.599	1633.233	1583.469
521.043	19.685	1631.356	1582.251
522.058	19.568	1630.845	1580.488
523.073	19.659	1629.792	1580.109
524.087	20.033	1628.845	1582.442
525.102	19.812	1627.599	1579.014
526.116	19.548	1625.263	1574.135
527.131	19.492	1623.698	1571.923
528.146	19.891	1623.588	1575.274
529.160	19.893	1622.815	1574.359
530.175	19.809	1622.121	1572.731
531.189	19.808	1621.360	1571.792
532.204	19.978	1619.038	1570.909
533.219	19.612	1618.033	1566.406
534.233	19.372	1617.542	1563.559
535.248	19.498	1616.867	1563.864
536.262	20.017	1615.859	1567.423
537.277	19.932	1613.846	1564.509
538.292	19.691	1611.770	1560.127
539.306	19.625	1609.848	1557.484
540.321	19.710	1608.205	1556.475
541.335	19.586	1607.276	1554.262
542.350	19.696	1606.241	1554.074
543.365	20.034	1604.493	1555.245
544.379	20.085	1603.598	1554.655
545.394	19.914	1602.733	1552.088
546.408	19.693	1601.000	1548.232
547.423	19.433	1599.336	1544.098
548.438	19.373	1598.366	1542.438
549.452	19.775	1597.481	1545.013
550.467	19.793	1596.082	1543.640
551.481	19.749	1595.486	1542.478
552.496	20.010	1595.338	1544.495
553.511	20.125	1594.443	1544.470
554.525	19.957	1593.872	1542.231
555.540	20.086	1592.805	1542.164
556.554	20.206	1591.449	1541.741
557.569	20.252	1588.860	1539.460
558.583	20.074	1587.751	1536.609
559.598	20.050	1586.480	1534.986
560.613	19.838	1585.994	1532.447
561.627	19.946	1584.980	1532.243
562.642	20.210	1583.671	1533.137
563.656	20.402	1582.998	1534.005
564.671	20.215	1581.914	1531.116
565.686	20.230	1580.361	1529.565
566.700	20.011	1578.035	1525.192
567.715	19.881	1576.290	1522.166
568.729	19.674	1575.023	1518.938
569.744	19.553	1573.239	1515.962
570.759	19.606	1571.804	1514.869
571.773	19.729	1571.948	1515.907
572.788	19.824	1570.818	1515.477
573.802	19.920	1569.386	1514.757
574.817	20.141	1567.994	1515.173
575.832	20.417	1567.248	1516.700
576.846	20.300	1566.313	1514.580
577.861	20.263	1564.469	1512.298
578.875	20.395	1563.655	1512.481
579.890	20.564	1563.095	1513.237
580.905	20.462	1562.403	1511.497
581.919	20.387	1562.203	1510.464
582.934	20.698	1561.063	1511.902
583.948	20.549	1559.226	1508.638
584.963	20.455	1557.320	1505.798
585.978	20.307	1555.991	1503.039
586.992	20.355	1555.578	1502.880
588.007	20.472	1554.822	1502.983
589.021	20.189	1552.771	1498.363
590.036	19.675	1551.480	1492.477
591.051	19.971	1549.878	1493.331
592.065	20.149	1548.967	1493.814
593.080	20.283	1547.972	1493.836
594.094	20.172	1546.329	1491.110
595.109	20.012	1544.486	1487.775
596.123	19.821	1543.451	1484.947
597.138	19.992	1542.863	1485.684
598.153	20.228	1541.635	1486.353
599.167	20.274	1540.177	1485.164
600.182	20.429	1539.624	1485.790
601.196	20.502	1538.231	1484.894
602.211	20.406	1537.661	1483.337
603.226	20.482	1536.703	1482.891
604.240	20.603	1535.122	1482.226
605.255	20.789	1533.940	1482.498
606.269	20.724	1533.018	1480.872
607.284	20.538	1531.597	1477.731
608.299	20.648	1530.511	1477.452
609.313	20.572	1529.006	1475.168
610.328	20.424	1528.095	1472.854
611.342	20.688	1526.532	1473.416
612.357	20.713	1526.415	1473.345
613.372	20.708	1525.659	1472.390
614.386	20.685	1523.140	1469.589
615.401	20.597	1523.530	1469.044
616.415	20.732	1522.770	1469.283
617.430	20.753	1521.566	1468.119
618.445	20.825	1520.928	1467.945
619.459	20.732	1519.207	1465.313
620.474	20.328	1517.815	1460.387
621.488	19.900	1515.192	1454.068
622.503	19.942	1513.600	1452.720
623.518	20.201	1513.931	1455.051
624.532	20.655	1513.439	1458.230
625.547	20.720	1512.941	1458.126
626.561	20.861	1512.402	1458.614
627.576	20.893	1511.032	1457.388
628.591	20.506	1508.346	1451.374
629.605	20.166	1507.120	1447.171
630.620	20.151	1504.800	1444.648
631.634	19.873	1503.487	1440.883
632.649	19.955	1503.060	1440.988
633.663	20.181	1502.371	1442.044
634.678	20.463	1501.842	1443.723
635.693	20.917	1500.915	1446.448
636.707	20.971	1499.549	1445.404
637.722	21.060	1499.047	1445.492
638.736	21.231	1496.894	1444.663
639.751	21.264	1495.908	1443.813
640.766	21.190	1494.579	1441.742
641.780	21.025	1493.705	1439.359
642.795	20.956	1493.025	1437.957
643.809	20.957	1491.994	1436.799
644.824	21.134	1491.172	1437.300
645.839	20.924	1490.595	1434.838
646.853	20.927	1489.149	1433.295
647.868	21.013	1487.172	1431.937
648.882	20.851	1486.476	1429.756
649.897	20.851	1485.312	1428.462
650.912	20.915	1483.625	1427.196
651.926	20.791	1481.456	1423.924
652.941	20.632	1480.099	1421.140
653.955	20.322	1478.389	1416.787
654.970	20.010	1477.017	1412.747
655.985	20.086	1475.388	1411.638
656.999	20.164	1474.194	1410.970
658.014	20.454	1473.551	1412.550
659.028	20.507	1472.849	1412.146
660.043	20.748	1472.281	1413.397
661.058	20.830	1470.989	1412.656
662.072	20.866	1470.438	1412.249
663.087	20.945	1469.022	1411.366
664.101	20.787	1469.250	1410.128
665.116	21.106	1467.700	1411.064
666.131	21.195	1466.400	1410.374
667.145	21.111	1465.397	1408.552
668.160	21.114	1464.740	1407.782
669.174	21.328	1463.248	1407.914
670.189	21.361	1461.983	1406.788
671.204	21.007	1462.088	1403.857
672.218	21.068	1460.632	1402.788
673.233	21.128	1460.162	1402.655
674.247	21.442	1458.652	1403.566
675.262	21.407	1457.461	1401.969
676.276	21.520	1456.350	1401.643
677.291	21.277	1455.669	1398.869
678.306	21.059	1454.127	1395.466
679.320	20.949	1452.976	1393.311
680.335	21.243	1452.718	1395.254
681.349	21.539	1451.650	1396.438
682.364	21.419	1450.237	1393.948
683.379	21.234	1448.651	1390.776
684.393	21.292	1447.289	1389.766
685.408	21.245	1447.011	1388.959
686.422	21.210	1445.961	1387.504
687.437	21.284	1445.743	1387.718
688.452	21.500	1444.488	1388.069
689.466	21.299	1443.019	1384.894
690.481	21.096	1441.053	1381.226
691.495	20.806	1440.008	1377.752
692.510	20.445	1437.625	1372.439
693.525	20.219	1435.815	1368.758
694.539	20.498	1435.730	1370.727
695.554	20.808	1436.578	1373.827
696.568	21.233	1435.426	1375.927
697.583	21.398	1434.939	1376.604
698.598	21.552	1433.731	1376.498
699.612	21.614	1432.611	1375.749
700.627	21.594	1431.305	1374.170
701.641	21.501	1429.861	1371.887
702.656	21.489	1429.463	1371.247
703.671	21.507	1429.242	1371.008
704.685	21.594	1428.361	1370.683
705.700	21.466	1426.431	1367.661
706.714	21.297	1424.802	1364.613
707.729	21.287	1423.155	1362.791
708.744	21.142	1421.931	1360.319
709.758	20.917	1421.016	1357.524
710.773	20.809	1418.968	1354.561
711.787	20.659	1417.728	1352.039
712.802	20.802	1416.525	1351.849
713.816	20.949	1416.652	1352.956
714.831	21.235	1415.307	1353.736
715.846	21.498	1414.560	1354.905
716.860	21.334	1413.855	1352.798
717.875	21.311	1412.185	1350.854
718.889	21.465	1411.400	1351.137
719.904	21.447	1410.775	1350.241
720.919	21.586	1409.903	1350.320
721.933	21.737	1409.063	1350.528
722.948	21.765	1407.811	1349.378
723.962	21.874	1406.222	1348.536
724.977	21.697	1405.574	1346.386
725.992	21.811	1404.978	1346.534
727.006	21.621	1403.181	1343.185
728.021	21.828	1401.841	1343.340
729.035	21.735	1401.137	1341.785
730.050	21.825	1400.260	1341.476
731.065	21.795	1398.795	1339.684
732.079	21.835	1397.733	1338.813
733.094	21.890	1396.226	1337.631
734.108	21.753	1394.230	1334.512
735.123	21.692	1393.328	1333.021
736.138	21.683	1392.814	1332.303
737.152	21.711	1391.817	1331.403
738.167	21.793	1391.542	1331.607
739.181	21.810	1390.524	1330.597
740.196	21.873	1389.666	1330.102
741.211	21.665	1389.421	1328.124
742.225	21.788	1387.510	1327.074
743.240	21.854	1386.329	1326.283
744.254	21.665	1385.662	1324.056
745.269	21.719	1384.536	1323.227
746.284	21.735	1383.866	1322.552
747.298	21.407	1381.919	1318.049
748.313	21.272	1379.700	1314.754
749.327	20.750	1378.386	1309.394
750.342	20.421	1377.504	1305.913
751.356	20.308	1375.622	1303.119
752.371	20.634	1374.862	1304.703
753.386	21.233	1375.234	1309.415
754.400	21.648	1374.815	1311.989
755.415	21.854	1373.848	1312.454
756.429	22.076	1372.343	1312.534
757.444	21.819	1371.572	1309.707
758.459	21.960	1370.804	1309.872
759.473	21.953	1370.345	1309.228
760.488	21.883	1369.470	1307.710
761.502	22.061	1367.687	1307.183
762.517	21.864	1366.387	1304.308
763.532	21.783	1364.951	1302.179
764.546	21.490	1363.163	1298.131
765.561	21.136	1361.854	1294.092
766.575	20.588	1360.981	1289.029
767.590	20.679	1359.806	1288.439
768.605	21.158	1358.963	1291.044
769.619	21.388	1358.240	1291.915
770.634	21.395	1357.538	1291.144
771.648	21.936	1356.955	1294.446
772.663	22.014	1356.043	1294.000
773.678	22.081	1355.941	1294.240
774.692	21.887	1355.296	1292.033
775.707	22.003	1354.861	1292.326
776.721	22.180	1353.222	1291.915
777.736	22.169	1352.027	1290.537
778.751	22.232	1350.908	1289.777
779.765	22.174	1350.233	1288.555
780.780	22.056	1349.071	1286.424
781.794	22.127	1348.442	1286.187
782.809	21.848	1346.922	1282.535
783.824	21.936	1345.134	1281.323
784.838	21.398	1343.142	1275.335
785.853	20.700	1342.264	1269.228
786.867	20.755	1342.673	1269.871
787.882	21.093	1342.010	1271.568
788.897	21.542	1340.875	1273.620
789.911	21.569	1339.761	1272.608
790.926	21.717	1339.458	1273.252
791.940	21.844	1338.097	1272.732
792.955	21.819	1337.588	1271.910
793.969	21.999	1335.831	1271.401
794.984	22.163	1334.904	1271.556
795.999	22.118	1333.869	1270.090
797.013	22.198	1332.008	1268.752
798.028	22.176	1331.128	1267.596
799.042	22.231	1330.671	1267.408
800.057	22.226	1329.644	1266.247
801.072	22.172	1328.640	1264.744
802.086	22.265	1327.078	1263.782
803.101	22.337	1326.478	1263.575
804.115	22.242	1325.773	1262.069
805.130	22.201	1324.428	1260.341
806.145	22.261	1323.623	1259.853
807.159	22.331	1322.021	1258.686
808.174	21.884	1320.765	1254.124
809.188	21.911	1319.177	1252.663
810.203	21.639	1317.540	1249.006
811.218	21.467	1315.746	1245.928
812.232	21.259	1313.531	1242.193
813.247	21.029	1313.313	1240.197
814.261	21.441	1313.448	1243.121
815.276	21.780	1313.013	1244.982
816.291	21.826	1312.461	1244.636
817.305	22.151	1311.281	1245.685
818.320	22.357	1309.707	1245.507
819.334	22.338	1308.581	1244.146
820.349	22.176	1307.470	1241.796
821.364	22.382	1305.949	1241.663
822.378	22.318	1304.564	1239.745
823.393	22.236	1303.806	1238.295
824.407	22.264	1302.523	1237.127
825.422	22.208	1302.231	1236.301
826.437	22.046	1300.884	1233.733
827.451	21.905	1298.662	1230.483
828.466	21.366	1295.834	1223.864
829.480	21.186	1293.377	1220.132
830.495	21.392	1292.756	1220.848
831.509	21.647	1293.346	1223.048
832.524	21.910	1292.977	1224.398
833.539	22.145	1292.284	1225.243
834.553	22.238	1290.825	1224.366
835.568	22.333	1289.559	1223.680
836.582	22.305	1288.388	1222.226
837.597	22.343	1287.468	1221.474
838.612	22.138	1285.933	1218.440
839.626	22.187	1284.315	1217.104
840.641	21.929	1283.352	1214.253
841.655	21.629	1281.994	1210.737
842.670	21.066	1280.848	1205.600
843.685	20.797	1279.414	1202.243
844.699	21.537	1278.330	1206.207
845.714	21.896	1277.580	1207.839
846.728	22.004	1277.328	1208.201
847.743	22.057	1276.778	1207.901
848.758	22.189	1276.368	1208.285
849.772	22.246	1275.166	1207.393
850.787	22.226	1273.993	1205.999
851.801	22.244	1272.478	1204.545
852.816	22.270	1270.259	1202.478
853.831	22.024	1269.421	1199.857
854.845	22.051	1267.390	1197.975
855.860	21.999	1265.573	1195.761
856.874	21.907	1263.932	1193.439
857.889	21.626	1262.612	1190.131
858.904	21.175	1261.555	1185.911
859.918	20.995	1258.853	1182.003
860.933	20.913	1257.740	1180.256
861.947	21.249	1257.760	1182.424
862.962	21.575	1256.684	1183.483
863.977	21.551	1256.156	1182.681
864.991	21.826	1256.091	1184.346
866.006	21.998	1255.551	1184.863
867.020	22.132	1254.373	1184.519
868.035	22.130	1253.759	1183.784
869.049	22.177	1252.654	1182.914
870.064	22.487	1251.732	1183.997
871.079	22.341	1250.967	1182.149
872.093	22.232	1250.608	1180.932
873.108	22.319	1248.853	1179.717
874.122	22.003	1246.962	1175.666
875.137	21.600	1246.114	1172.016
876.152	21.505	1245.338	1170.504
877.166	21.547	1244.253	1169.629
878.181	22.028	1243.421	1171.930
879.195	22.221	1243.373	1173.041
880.210	22.346	1242.303	1172.730
881.225	22.248	1241.401	1171.078
882.239	22.413	1239.982	1170.703
883.254	22.394	1239.143	1169.647
884.268	22.302	1238.564	1168.342
885.283	22.392	1237.192	1167.514
886.298	22.305	1235.954	1165.621
887.312	22.230	1235.135	1164.213
888.327	22.355	1233.751	1163.597
889.341	22.337	1232.563	1162.223
890.356	22.370	1231.964	1161.736
891.371	22.099	1231.466	1159.326
892.385	22.079	1230.776	1158.411
893.400	22.003	1229.453	1156.523
894.414	21.878	1227.155	1153.396
895.429	21.783	1224.425	1150.063
896.444	21.031	1222.686	1143.339
897.458	20.649	1222.061	1140.106
898.473	21.062	1221.919	1142.551
899.487	21.639	1221.898	1146.198
900.502	21.877	1221.477	1147.227
901.517	21.926	1220.523	1146.513
902.531	22.296	1219.473	1147.819
903.546	22.265	1218.353	1146.424
904.560	22.381	1218.195	1146.900
905.575	22.339	1216.953	1145.317
906.589	22.414	1216.258	1145.016
907.604	22.419	1215.513	1144.211
