DTS Sentinel unit serial number:	SN409020Multiplexer serial number:	ORYXHardware model number:	OX4-SRSoftware version number:	ORYX F/W v3.00 Oryx Data Collector v3.7.2.0data status	okinstallation	HaddamTimeLapsedifferential loss correction	single-endedforward channel	channel 3reverse channel	N/Adate	2011/06/21time	15:51:17forward acquisition time	30.00reverse acquisition time	0.00gamma	498.7831k internal	0.1803k external	0.1803temperature offset calibration	1.0074default loss term (dB/km)	0.3790temperature slope calibration	1.3530multiplexer offset coefficient	1.0000multiplexer slope coefficient	1.0000fibre end	0.00T internal ref (°C)	36.16T ext. ref 1 (°C)	27.03T ext. ref 2 (°C)	0.22length (m)	temperature (°C)	Stokes	anti-Stokes-747.200	-184.835	-0.629	0.013
-746.185	138.245	-0.315	0.534
-745.171	-139.161	0.184	-0.025
-744.156	800.000	0.089	0.463
-743.142	-200.000	0.014	0.240
-742.127	-200.000	-0.001	0.661
-741.112	-57.018	-0.249	0.141
-740.098	-200.000	0.031	0.618
-739.083	-200.000	-0.021	-0.214
-738.069	29.686	0.263	0.288
-737.054	-97.518	-0.525	0.175
-736.039	-140.827	-0.226	0.030
-735.025	-24.697	-0.081	-0.062
-734.010	-94.630	0.503	0.175
-732.996	-62.883	-0.237	0.126
-731.981	-30.046	0.253	0.185
-730.966	743.969	-0.056	-0.196
-729.952	-56.596	-0.406	0.231
-728.937	-200.000	-0.044	0.263
-727.923	266.058	-0.149	0.336
-726.908	-90.256	-0.061	0.023
-725.894	-91.277	0.430	-0.158
-724.879	-113.166	0.472	0.119
-723.864	7.283	-0.210	0.202
-722.850	44.637	0.088	-0.104
-721.835	638.428	-0.122	-0.402
-720.821	193.758	0.105	0.205
-719.806	209.898	-0.325	-0.660
-718.791	-103.908	-0.234	0.070
-717.777	71.769	0.147	-0.197
-716.762	-115.723	-0.091	-0.022
-715.748	-105.021	-0.102	0.030
-714.733	12.537	0.211	0.209
-713.718	-123.839	-0.387	-0.078
-712.704	-1.474	0.106	0.096
-711.689	-35.419	0.155	0.108
-710.675	-107.945	0.294	0.082
-709.660	-160.005	0.560	0.039
-708.645	-88.467	-0.178	0.068
-707.631	-76.399	-0.243	-0.110
-706.616	-179.537	0.228	-0.006
-705.602	-28.121	-0.319	0.237
-704.587	-107.505	-0.488	0.137
-703.572	188.596	-0.180	-0.348
-702.558	67.393	-0.034	0.045
-701.543	-1.249	-0.762	0.692
-700.529	255.531	0.196	0.433
-699.514	-97.155	0.437	-0.146
-698.499	-200.000	0.040	-0.729
-697.485	393.352	0.148	0.397
-696.470	800.000	0.071	0.266
-695.456	11.915	-0.443	0.438
-694.441	-149.742	0.062	0.006
-693.426	-89.916	-0.092	-0.035
-692.412	11.199	0.057	0.056
-691.397	-74.252	-0.535	-0.248
-690.383	-72.000	-0.577	-0.275
-689.368	-93.119	0.345	-0.123
-688.354	448.297	-0.180	0.512
-687.339	-13.090	-0.210	-0.175
-686.324	-200.000	0.009	-0.183
-685.310	-28.556	0.113	-0.084
-684.295	395.757	0.088	-0.239
-683.281	57.857	0.259	0.327
-682.266	-141.692	-0.185	0.024
-681.251	800.000	0.044	-0.219
-680.237	-200.000	-0.017	0.350
-679.222	-162.513	0.154	0.010
-678.208	192.415	0.209	0.407
-677.193	-106.264	-0.566	0.162
-676.178	-169.917	-0.025	0.001
-675.164	-52.452	-0.336	0.199
-674.149	800.000	-0.036	-0.190
-673.135	-50.970	-0.561	-0.338
-672.120	800.000	0.070	0.386
-671.105	94.297	-0.143	0.208
-670.091	800.000	0.069	-0.297
-669.076	26.781	-0.390	-0.420
-668.062	-74.620	-0.112	0.052
-667.047	-118.413	-0.270	0.061
-666.032	-200.000	0.027	-0.380
-665.018	-200.000	0.051	0.392
-664.003	185.985	0.152	-0.291
-662.989	800.000	0.054	0.305
-661.974	-57.399	-0.175	-0.098
-660.959	-118.975	-0.306	0.068
-659.945	-200.000	-0.064	-0.657
-658.930	-86.361	-0.429	-0.169
-657.916	-165.162	-0.283	-0.016
-656.901	-146.446	0.386	0.043
-655.886	23.600	0.140	-0.148
-654.872	800.000	0.015	-0.079
-653.857	-4.826	-0.374	-0.331
-652.843	-200.000	-0.019	-0.161
-651.828	-177.953	0.608	-0.018
-650.814	52.136	-0.266	-0.326
-649.799	695.353	0.096	-0.326
-648.784	144.624	-0.080	0.138
-647.770	-176.745	-0.339	-0.011
-646.755	-200.000	-0.010	-0.078
-645.741	52.936	0.204	-0.251
-644.726	-141.013	0.309	0.040
-643.711	134.474	-0.068	-0.114
-642.697	-35.184	-0.247	-0.172
-641.682	800.000	0.041	-0.177
-640.668	100.966	-0.115	0.173
-639.653	668.459	0.049	-0.164
-638.638	-87.304	0.043	0.017
-637.624	62.527	-0.064	0.082
-636.609	-200.000	-0.004	-0.028
-635.595	376.846	0.074	0.196
-634.580	-49.338	-0.167	0.102
-633.565	-60.881	-0.157	0.085
-632.551	235.070	0.156	-0.331
-631.536	-144.765	-0.477	0.056
-630.522	-81.065	0.115	-0.049
-629.507	800.000	0.027	-0.143
-628.492	-44.393	0.310	0.199
-627.478	-108.439	-0.576	-0.158
-626.463	195.539	0.423	-0.828
-625.449	10.695	-0.075	-0.073
-624.434	-57.516	-0.222	0.125
-623.419	-144.731	0.180	-0.021
-622.405	-200.000	-0.013	-0.161
-621.390	408.250	0.093	-0.254
-620.376	-134.058	0.361	-0.057
-619.361	800.000	0.042	0.186
-618.346	-200.000	0.000	-0.052
-617.332	-58.556	-0.137	0.076
-616.317	-200.000	-0.046	-0.418
-615.303	-11.954	0.181	0.152
-614.288	-200.000	0.041	-0.244
-613.273	800.000	0.079	0.381
-612.259	-200.000	-0.047	-0.473
-611.244	230.352	-0.069	-0.146
-610.230	231.829	0.081	-0.171
-609.215	-146.799	0.288	-0.031
-608.201	38.785	-0.036	-0.042
-607.186	-105.706	0.290	-0.084
-606.171	800.000	0.083	0.391
-605.157	108.707	0.271	-0.417
-604.142	-61.003	-0.407	-0.220
-603.128	-183.192	0.158	-0.003
-602.113	800.000	0.055	-0.222
-601.098	-53.884	-0.279	0.163
-600.084	34.527	-0.069	0.077
-599.069	5.893	0.209	-0.198
-598.055	211.605	0.206	-0.417
-597.040	292.072	-0.191	-0.448
-596.025	12.556	0.288	-0.285
-595.011	208.568	0.074	0.149
-593.996	-129.428	-0.326	0.057
-592.982	-148.195	-0.266	-0.028
-591.967	-53.314	-0.218	0.128
-590.952	-78.222	0.302	0.133
-589.938	800.000	-0.079	0.334
-588.923	800.000	-0.113	0.494
-587.909	-77.605	-0.476	0.211
-586.894	-105.637	-0.188	0.054
-585.879	-65.046	-0.136	0.070
-584.865	-46.615	-0.244	-0.153
-583.850	800.000	-0.082	-0.300
-582.836	-200.000	-0.009	-0.259
-581.821	-112.756	-0.333	0.084
-580.806	-200.000	0.017	0.354
-579.792	-100.250	0.322	0.102
-578.777	-90.780	0.375	0.138
-577.763	231.720	0.171	-0.361
-576.748	20.439	0.167	-0.172
-575.733	573.683	-0.091	0.287
-574.719	-34.557	-0.105	-0.074
-573.704	800.000	-0.059	0.265
-572.690	-109.218	-0.242	0.065
-571.675	-84.837	0.243	-0.097
-570.661	-109.747	0.185	-0.050
-569.646	20.010	-0.127	0.131
-568.631	407.021	-0.195	-0.532
-567.617	-37.086	-0.174	0.119
-566.602	-200.000	0.007	-0.137
-565.588	-155.065	0.381	-0.032
-564.573	-200.000	0.412	0.000
-563.558	-200.000	0.002	0.382
-562.544	122.373	0.095	0.153
-561.529	-165.620	0.167	0.009
-560.515	-153.376	0.522	0.046
-559.500	-46.551	0.159	-0.100
-558.485	-14.028	-0.121	-0.100
-557.471	-103.255	-0.586	0.176
-556.456	324.034	-0.148	0.363
-555.442	568.358	-0.083	0.261
-554.427	158.834	-0.098	-0.174
-553.412	126.715	-0.087	-0.141
-552.398	-200.000	0.009	0.101
-551.383	-175.652	-0.352	0.012
-550.369	-69.360	-0.149	0.073
-549.354	-93.959	0.130	0.045
-548.339	-200.000	-0.063	-0.487
-547.325	-85.230	0.146	0.058
-546.310	-200.000	0.008	-0.212
-545.296	800.000	-0.138	-0.553
-544.281	-157.862	-0.483	-0.036
-543.266	-11.569	-0.233	-0.195
-542.252	7.900	-0.216	0.207
-541.237	-94.473	0.288	0.100
-540.223	7.484	0.496	-0.474
-539.208	-200.000	-0.027	0.313
-538.193	127.261	-0.278	-0.452
-537.179	-185.777	0.382	-0.007
-536.164	-200.000	0.029	-0.166
-535.150	-122.771	-0.407	-0.083
-534.135	270.947	0.184	0.417
-533.121	-82.856	0.376	0.155
-532.106	-169.262	-0.056	0.003
-531.091	-129.409	-0.430	0.076
-530.077	-200.000	0.030	0.235
-529.062	-126.543	0.177	0.033
-528.048	-87.685	0.337	0.129
-527.033	800.000	0.008	0.031
-526.018	-74.622	-0.180	-0.083
-525.004	-64.190	-0.105	-0.055
-523.989	-115.831	0.187	0.044
-522.975	-143.921	0.634	0.076
-521.960	800.000	-0.007	-0.035
-520.945	343.171	0.096	-0.243
-519.931	559.261	-0.089	-0.275
-518.916	-101.913	0.406	-0.125
-517.902	-91.582	0.289	0.105
-516.887	-13.338	-0.277	-0.230
-515.872	-171.321	0.673	-0.028
-514.858	-60.852	0.194	-0.105
-513.843	312.272	-0.364	-0.878
-512.829	529.364	0.078	-0.237
-511.814	-64.548	0.113	0.059
-510.799	313.381	-0.079	-0.190
-509.785	8.680	-0.369	-0.355
-508.770	-114.387	-0.071	-0.017
-507.756	-2.792	-0.194	-0.173
-506.741	-180.047	-0.201	-0.005
-505.726	26.431	0.300	0.320
-504.712	488.813	0.130	0.382
-503.697	-200.000	-0.001	-0.122
-502.683	-51.477	0.241	0.143
-501.668	800.000	-0.019	0.097
-500.653	122.289	0.089	-0.143
-499.639	800.000	-0.131	-0.510
-498.624	-27.396	0.637	0.473
-497.610	210.385	0.118	-0.238
-496.595	469.250	-0.144	-0.416
-495.581	85.659	-0.280	0.394
-494.566	-200.000	-0.056	0.404
-493.551	140.915	-0.140	-0.237
-492.537	257.820	-0.058	-0.129
-491.522	3.785	-0.216	0.201
-490.508	65.339	0.181	0.234
-489.493	518.874	0.034	0.102
-488.478	-200.000	-0.021	0.299
-487.464	-119.024	-0.091	-0.020
-486.449	726.983	0.031	0.106
-485.435	-200.000	0.020	-0.293
-484.420	-141.387	0.263	-0.034
-483.405	-153.930	-0.590	-0.051
-482.391	-1.271	-0.226	0.203
-481.376	-124.402	-0.305	0.060
-480.362	-60.888	-0.084	0.045
-479.347	-200.000	0.000	-0.319
-478.332	-200.000	-0.046	-0.332
-477.318	165.026	-0.186	0.336
-476.303	80.488	0.178	0.245
-475.289	-35.930	-0.352	0.243
-474.274	-52.577	-0.352	-0.207
-473.259	-200.000	-0.061	-0.589
-472.245	293.920	0.253	-0.592
-471.230	-117.932	-0.261	0.059
-470.216	37.107	-0.242	0.274
-469.201	11.518	-0.198	-0.194
-468.186	-200.000	-0.007	0.786
-467.172	41.866	-0.091	0.105
-466.157	81.293	0.203	-0.281
-465.143	524.951	0.134	-0.406
-464.128	800.000	0.179	-0.652
-463.113	800.000	0.039	0.154
-462.099	294.742	0.153	-0.358
-461.084	115.876	-0.105	-0.165
-460.070	-125.492	-0.278	0.053
-459.055	13.423	-0.188	-0.185
-458.040	290.195	-0.202	-0.471
-457.026	-200.000	0.002	-0.246
-456.011	138.872	0.099	-0.167
-454.997	-151.906	0.391	0.036
-453.982	387.607	-0.124	-0.329
-452.968	800.000	-0.053	0.230
-451.953	279.917	-0.092	-0.211
-450.938	260.486	-0.121	-0.268
-449.924	-105.350	0.247	0.071
-448.909	-5.273	-0.223	-0.195
-447.895	-200.000	0.044	0.249
-446.880	-81.930	0.156	-0.065
-445.865	-28.028	-0.280	0.206
-444.851	-200.000	0.002	0.267
-443.836	-85.391	0.339	-0.134
-442.822	-200.000	-0.019	-0.174
-441.807	-161.557	0.149	0.010
-440.792	-129.753	-0.253	0.044
-439.778	-39.555	0.139	-0.093
-438.763	-93.642	0.392	-0.137
-437.749	-200.000	-0.555	0.000
-436.734	756.119	0.089	0.309
-435.719	-200.000	0.038	-0.273
-434.705	13.212	0.135	-0.134
-433.690	-94.050	-0.235	-0.082
-432.676	800.000	-0.053	-0.248
-431.661	-44.625	0.209	0.133
-430.646	-138.557	-0.239	0.033
-429.632	-61.134	-0.328	0.176
-428.617	177.421	-0.170	-0.317
-427.603	24.246	-0.243	0.256
-426.588	-5.694	0.254	0.222
-425.573	-96.018	0.377	-0.127
-424.559	138.321	-0.115	-0.192
-423.544	-66.544	-0.232	-0.117
-422.530	9.369	-0.233	0.224
-421.515	-79.721	-0.163	0.070
-420.500	131.156	0.092	0.151
-419.486	10.921	-0.117	-0.114
-418.471	-200.000	-0.049	0.297
-417.457	13.134	-0.168	-0.165
-416.442	109.370	0.185	0.283
-415.428	800.000	0.079	0.281
-414.413	-138.027	-0.115	0.016
-413.398	-96.751	-0.440	0.147
-412.384	-200.000	-0.045	-0.257
-411.369	41.298	-0.119	-0.137
-410.355	773.995	0.123	-0.431
-409.340	800.000	0.065	0.276
-408.325	81.111	0.095	-0.130
-407.311	11.011	-0.058	0.057
-406.296	-115.862	0.363	-0.086
-405.282	-200.000	0.011	0.199
-404.267	-144.021	-0.158	-0.019
-403.252	34.581	0.133	0.148
-402.238	-32.996	0.359	-0.253
-401.223	-108.065	-0.294	0.080
-400.209	800.000	-0.107	-0.501
-399.194	574.636	-0.059	0.184
-398.179	280.886	0.041	-0.093
-397.165	-136.611	0.369	-0.054
-396.150	792.523	-0.080	0.281
-395.136	70.390	0.044	-0.058
-394.121	-200.000	0.057	0.327
-393.106	800.000	0.060	0.255
-392.092	-91.612	-0.600	0.216
-391.077	-51.083	0.442	0.263
-390.063	-200.000	0.030	-0.349
-389.048	-137.271	0.064	0.009
-388.033	96.793	-0.236	-0.344
-387.019	29.142	-0.440	-0.475
-386.004	800.000	-0.152	-0.568
-384.990	-147.410	0.426	-0.045
-383.975	125.836	-0.158	-0.254
-382.960	-28.758	0.164	0.120
-381.946	-79.093	0.264	0.114
-380.931	73.833	0.420	-0.561
-379.917	87.882	-0.288	0.406
-378.902	800.000	-0.074	0.351
-377.888	30.417	-0.114	0.124
-376.873	227.365	-0.069	-0.143
-375.858	-31.908	0.272	0.193
-374.844	-94.453	-0.200	-0.069
-373.829	550.829	0.085	0.259
-372.815	-200.000	-0.017	-0.114
-371.800	-58.419	0.232	-0.128
-370.785	-143.211	0.296	0.036
-369.771	246.945	0.136	0.293
-368.756	-200.000	-0.057	-0.370
-367.742	221.911	-0.146	0.300
-366.727	-78.186	0.668	0.290
-365.712	-99.197	0.213	-0.068
-364.698	26.695	0.310	0.330
-363.683	-116.511	-0.186	-0.043
-362.669	-74.479	0.446	0.203
-361.654	216.032	0.106	0.214
-360.639	800.000	-0.075	-0.318
-359.625	-200.000	0.031	0.197
-358.610	174.664	-0.127	-0.234
-357.596	105.095	0.273	0.410
-356.581	-200.000	-0.022	0.195
-355.566	-200.000	0.020	-0.320
-354.552	-161.536	0.280	0.018
-353.537	-61.518	0.570	0.303
-352.523	-113.431	0.490	-0.121
-351.508	-200.000	-0.001	0.055
-350.493	-104.732	0.321	-0.093
-349.479	154.889	0.017	0.029
-348.464	-105.257	-0.155	-0.045
-347.450	-69.054	-0.067	0.032
-346.435	171.002	-0.066	-0.121
-345.420	-40.682	-0.213	-0.140
-344.406	-200.000	0.008	0.248
-343.391	-133.829	0.254	-0.040
-342.377	800.000	0.101	0.397
-341.362	-123.360	0.070	0.014
-340.348	281.037	-0.294	-0.670
-339.333	-200.000	0.002	-0.202
-338.318	37.999	0.240	0.272
-337.304	-90.757	0.219	0.080
-336.289	28.688	-0.120	0.129
-335.275	84.867	0.284	0.396
-334.260	-91.130	-0.180	-0.065
-333.245	-150.115	-0.160	0.016
-332.231	-30.043	-0.066	-0.048
-331.216	-96.239	-0.348	0.116
-330.202	-16.748	-0.631	-0.506
-329.187	-136.693	-0.390	-0.057
-328.172	800.000	-0.036	-0.141
-327.158	-200.000	-0.027	0.290
-326.143	186.227	-0.153	0.289
-325.129	583.303	0.243	0.763
-324.114	-43.470	0.332	-0.212
-323.099	-29.346	-0.148	0.107
-322.085	-10.585	0.237	0.199
-321.070	-126.742	0.268	-0.050
-320.056	-180.896	-0.494	0.012
-319.041	56.957	-0.211	-0.261
-318.026	89.597	0.097	-0.137
-317.012	-47.602	-0.265	0.163
-315.997	84.191	0.423	-0.587
-314.983	-200.000	-0.018	0.568
-313.968	9.647	0.282	-0.271
-312.953	-200.000	0.003	-0.189
-311.939	800.000	-0.071	0.322
-310.924	297.624	-0.014	0.033
-309.910	44.627	0.041	0.048
-308.895	-0.049	0.251	-0.226
-307.880	220.092	-0.099	-0.201
-306.866	710.596	0.078	-0.264
-305.851	404.036	-0.088	-0.237
-304.837	-64.934	0.189	-0.096
-303.822	-200.000	0.024	0.223
-302.807	49.188	-0.166	0.198
-301.793	-118.399	-0.635	0.142
-300.778	-93.596	-0.450	0.157
-299.764	-107.100	-0.143	-0.040
-298.749	-200.000	0.033	-0.289
-297.735	-114.356	0.389	-0.094
-296.720	58.033	0.244	-0.303
-295.705	-96.460	0.630	-0.210
-294.691	-120.676	0.311	-0.066
-293.676	-83.539	0.705	-0.285
-292.662	-105.072	0.175	-0.050
-291.647	-38.994	-0.217	-0.144
-290.632	-35.520	-0.230	0.158
-289.618	-131.788	0.295	0.049
-288.603	800.000	-0.048	-0.179
-287.589	-159.644	0.142	-0.010
-286.574	-105.578	-0.158	-0.045
-285.559	120.815	-0.235	-0.371
-284.545	800.000	0.154	0.603
-283.530	431.617	-0.216	0.595
-282.516	-36.850	-0.285	0.193
-281.501	120.454	-0.070	-0.111
-280.486	-16.072	0.360	0.289
-279.472	-200.000	-0.002	0.098
-278.457	-141.793	-0.318	-0.040
-277.443	-129.633	0.190	-0.033
-276.428	124.720	-0.083	0.133
-275.413	800.000	0.020	0.081
-274.399	273.831	0.189	0.424
-273.384	110.551	-0.148	0.225
-272.370	-89.296	-0.314	0.116
-271.355	-128.785	-0.337	0.060
-270.340	-6.000	-0.185	0.160
-269.326	-104.790	-0.339	-0.098
-268.311	-127.515	-0.027	-0.005
-267.297	-93.626	0.302	0.105
-266.282	52.750	0.067	-0.081
-265.267	-169.210	-0.255	-0.012
-264.253	-62.729	0.389	-0.203
-263.238	96.776	-0.140	0.204
-262.224	-64.021	0.368	0.190
-261.209	458.516	0.112	0.318
-260.195	-136.255	-0.263	0.039
-259.180	-136.338	0.118	0.017
-258.165	3.434	-0.272	-0.250
-257.151	136.606	-0.187	-0.310
-256.136	-93.879	-0.483	-0.167
-255.122	-143.147	-0.352	0.042
-254.107	25.937	0.203	-0.215
-253.092	-86.527	-0.122	0.047
-252.078	-131.995	-0.264	-0.043
-251.063	104.748	0.309	0.462
-250.049	164.478	-0.270	0.483
-249.034	-35.723	0.098	-0.067
-248.019	-200.000	0.042	-0.345
-247.005	-140.842	-0.358	0.046
-245.990	-31.863	0.113	0.080
-244.976	365.737	-0.087	0.222
-243.961	-130.883	0.589	-0.099
-242.946	-56.209	-0.126	-0.070
-241.932	-200.000	0.001	0.172
-240.917	-68.700	0.245	-0.119
-239.903	-200.000	0.040	0.281
-238.888	-123.339	0.151	0.030
-237.873	105.558	-0.153	-0.229
-236.859	129.040	-0.015	-0.024
-235.844	123.147	0.220	0.349
-234.830	-140.259	-0.354	0.046
-233.815	370.443	-0.061	-0.158
-232.800	-35.377	-0.339	0.233
-231.786	-138.810	0.249	-0.034
-230.771	-200.000	0.044	0.296
-229.757	689.359	0.144	-0.480
-228.742	-133.552	-0.427	-0.067
-227.727	-200.000	-0.047	-0.650
-226.713	-0.587	0.352	-0.316
-225.698	160.803	-0.126	0.223
-224.684	-200.000	0.021	-0.125
-223.669	119.655	0.210	0.329
-222.655	-13.118	0.229	-0.188
-221.640	-16.957	-0.405	-0.323
-220.625	285.845	-0.156	-0.356
-219.611	81.884	-0.146	-0.199
-218.596	143.246	0.197	0.332
-217.582	-200.000	-0.078	0.505
-216.567	205.840	-0.363	0.716
-215.552	415.816	0.332	0.899
-214.538	800.000	-0.079	0.340
-213.523	192.049	-0.231	0.441
-212.509	-200.000	-0.027	0.518
-211.494	56.408	0.207	-0.255
-210.479	8.400	-0.087	0.083
-209.465	58.157	0.174	0.215
-208.450	800.000	0.050	0.220
-207.436	-200.000	0.037	0.357
-206.421	800.000	-0.038	-0.135
-205.406	59.149	0.160	-0.199
-204.392	-55.273	-0.412	-0.233
-203.377	-28.055	-0.500	-0.365
-202.363	-26.390	-0.107	-0.079
-201.348	38.992	-0.138	0.156
-200.333	319.316	-0.086	0.206
-199.319	800.000	0.072	0.370
-198.304	320.636	-0.066	0.159
-197.290	62.094	0.175	0.221
-196.275	-95.419	-0.062	-0.021
-195.260	212.758	-0.120	0.239
-194.246	-77.074	0.249	0.109
-193.231	-177.060	-0.303	-0.009
-192.217	107.968	-0.132	0.198
-191.202	-72.955	0.551	0.254
-190.187	-110.114	-0.178	0.047
-189.173	-71.230	-0.225	0.106
-188.158	25.487	-0.064	0.067
-187.144	-61.766	0.253	0.133
-186.129	-106.639	0.388	-0.108
-185.114	-200.000	-0.005	0.349
-184.100	-147.879	-0.175	-0.018
-183.085	70.162	0.240	-0.313
-182.071	-142.780	-0.276	-0.034
-181.056	73.083	-0.232	0.306
-180.042	-149.844	0.137	0.013
-179.027	-138.422	-0.201	0.028
-178.012	388.482	-0.181	0.474
-176.998	163.074	-0.104	-0.184
-175.983	-117.802	0.296	0.066
-174.969	-129.301	0.281	-0.049
-173.954	-157.813	0.318	0.023
-172.939	-79.576	0.662	-0.281
-171.925	40.185	-0.217	0.246
-170.910	375.013	0.031	-0.080
-169.896	-106.921	-0.426	-0.118
-168.881	112.399	0.208	-0.318
-167.866	-85.549	-0.177	-0.069
-166.852	-85.104	0.120	-0.047
-165.837	224.347	0.048	-0.098
-164.823	-200.000	0.010	0.420
-163.808	174.837	-0.238	-0.435
-162.793	800.000	-0.088	0.366
-161.779	715.193	0.218	0.734
-160.764	36.649	-0.242	0.269
-159.750	-145.352	0.408	-0.046
-158.735	-107.948	0.283	-0.077
-157.720	69.743	-0.386	0.502
-156.706	101.886	-0.182	0.269
-155.691	-94.745	-0.251	0.085
-154.677	-111.310	0.499	-0.128
-153.662	637.008	-0.107	-0.344
-152.647	-87.147	0.324	0.124
-151.633	-105.252	0.239	-0.068
-150.618	-176.646	-0.243	0.008
-149.604	-125.399	0.300	0.057
-148.589	800.000	-0.040	0.184
-147.574	31.827	0.294	0.319
-146.560	14.991	0.047	-0.046
-145.545	-130.768	-0.481	0.081
-144.531	-199.657	0.425	-0.003
-143.516	800.000	0.033	0.147
-142.502	-200.000	-0.006	-0.078
-141.487	480.932	-0.102	-0.292
-140.472	429.870	0.163	-0.447
-139.458	50.627	-0.119	0.142
-138.443	-79.973	-0.087	-0.037
-137.429	-200.000	0.012	-0.247
-136.414	632.868	0.080	0.255
-135.399	113.242	-0.174	0.267
-134.385	25.150	-0.283	-0.296
-133.370	-96.429	0.373	0.123
-132.356	151.784	0.184	0.317
-131.341	43.189	-0.202	0.233
-130.326	-26.632	-0.160	0.118
-129.312	205.028	0.051	-0.099
-128.297	8.966	-0.229	0.218
-127.283	122.038	-0.194	0.305
-126.268	-75.201	-0.128	-0.058
-125.253	-200.000	0.006	0.117
-124.239	-45.390	0.200	0.124
-123.224	-100.031	-0.256	-0.080
-122.210	6.407	0.266	0.249
-121.195	-200.000	0.025	0.718
-120.180	49.862	0.103	0.123
-119.166	97.327	0.149	0.216
-118.151	334.165	-0.228	-0.558
-117.137	-112.425	-0.657	0.164
-116.122	-36.237	-0.275	-0.186
-115.107	-63.259	-0.277	-0.143
-114.093	239.912	-0.118	-0.249
-113.078	800.000	-0.009	-0.030
-112.064	-9.166	-0.156	-0.131
-111.049	800.000	-0.073	0.314
-110.034	144.250	-0.151	-0.253
-109.020	-52.650	-0.091	0.053
-108.005	-149.261	-0.713	0.071
-106.991	-120.631	-0.355	0.075
-105.976	95.663	-0.201	0.289
-104.962	201.574	-0.191	-0.372
-103.947	219.218	0.141	-0.284
-102.932	-123.245	-0.245	-0.049
-101.918	-98.475	-0.560	-0.179
-100.903	-120.557	0.454	-0.096
-99.889	-114.669	0.366	-0.087
-98.874	-10.133	0.199	0.166
-97.859	-164.120	-0.491	0.028
-96.845	-67.833	0.386	0.189
-95.830	800.000	-0.113	0.593
-94.816	800.000	-0.082	-0.425
-93.801	-73.404	-0.210	-0.096
-92.786	314.315	-0.166	0.394
-91.772	-200.000	0.036	0.295
-90.757	-106.841	0.394	0.109
-89.743	-24.916	-0.460	0.343
-88.728	-200.000	-0.014	0.348
-87.713	-114.216	0.234	0.056
-86.699	-200.000	-0.049	0.285
-85.684	-73.253	-0.694	-0.318
-84.670	-148.693	0.262	-0.026
-83.655	-108.359	-0.232	0.062
-82.640	-200.000	-0.009	-0.253
-81.626	-114.478	-0.188	0.045
-80.611	-200.000	0.088	0.599
-79.597	73.236	0.095	0.125
-78.582	-200.000	0.038	0.295
-77.567	-200.000	-0.002	0.535
-76.553	-200.000	-0.085	-0.491
-75.538	414.211	-0.114	0.306
-74.524	-148.229	0.245	-0.025
-73.509	728.079	0.066	-0.224
-72.494	-10.506	0.180	0.149
-71.480	483.554	-0.173	-0.497
-70.465	-200.000	0.059	0.405
-69.451	-200.000	0.021	0.144
-68.436	-62.765	-0.248	-0.129
-67.422	-119.618	-0.281	-0.060
-66.407	44.605	0.178	0.206
-65.392	-3.616	-0.081	0.071
-64.378	658.465	-0.249	0.808
-63.363	-107.897	0.371	0.101
-62.349	-80.573	-0.262	-0.109
-61.334	88.796	-0.996	-1.393
-60.319	-48.976	0.508	0.305
-59.305	410.668	-2.352	-6.294
-58.290	3.859	2.940	2.695
-57.276	432.316	3.885	10.631
-56.261	-200.000	14.415	229.536
-55.246	453.241	1181.426	3298.942
-54.232	61.194	2831.445	3534.103
-53.217	70.175	2721.025	3531.306
-52.203	48.071	2444.405	2870.390
-51.188	45.654	2090.225	2425.673
-50.173	38.480	1958.213	2191.988
-49.159	37.079	1947.753	2164.499
-48.144	36.621	1944.061	2155.171
-47.130	36.587	1941.529	2151.899
-46.115	36.541	1939.445	2148.998
-45.100	36.575	1937.889	2147.559
-44.086	36.525	1937.026	2145.971
-43.071	36.598	1934.844	2144.279
-42.057	36.528	1934.053	2142.530
-41.042	36.404	1932.533	2139.389
-40.027	36.456	1931.273	2138.482
-39.013	36.525	1929.735	2137.467
-37.998	36.319	1928.371	2133.575
-36.984	36.306	1927.605	2132.500
-35.969	36.299	1926.743	2131.389
-34.954	36.439	1924.655	2130.547
-33.940	36.462	1923.185	2129.090
-32.925	36.289	1922.280	2126.082
-31.911	36.287	1921.327	2124.922
-30.896	36.221	1919.446	2122.026
-29.881	36.239	1918.288	2120.860
-28.867	36.226	1916.367	2118.516
-27.852	36.190	1915.035	2116.559
-26.838	36.177	1913.060	2114.148
-25.823	36.256	1911.875	2113.622
-24.809	36.175	1910.979	2111.661
-23.794	36.101	1910.120	2109.814
-22.779	36.197	1908.056	2108.499
-21.765	36.038	1907.716	2106.293
-20.750	36.109	1906.228	2105.349
-19.736	36.092	1904.665	2103.358
-18.721	36.094	1903.765	2102.298
-17.706	36.076	1902.705	2100.851
-16.692	36.048	1901.397	2099.013
-15.677	36.137	1899.972	2098.326
-14.663	35.999	1899.097	2095.775
-13.648	36.042	1897.381	2094.259
-12.633	36.086	1895.897	2093.019
-11.619	36.104	1894.870	2092.002
-10.604	36.078	1893.226	2089.822
-9.590	35.988	1892.825	2088.313
-8.575	35.966	1891.645	2086.694
-7.560	35.963	1889.345	2084.043
-6.546	36.057	1888.169	2083.681
-5.531	35.956	1888.000	2082.311
-4.517	35.976	1886.320	2080.600
-3.502	35.937	1886.076	2079.819
-2.487	35.941	1885.149	2078.754
-1.473	36.055	1881.066	2075.408
-0.458	35.463	1860.183	2045.948
0.556	30.289	1989.355	2116.099
1.571	27.837	2202.077	2310.943
2.586	28.969	2247.839	2373.373
3.600	29.086	2251.332	2378.297
4.615	29.326	2250.195	2379.921
5.629	29.124	2248.377	2375.101
6.644	29.131	2246.267	2372.672
7.659	29.155	2244.853	2371.206
8.673	29.398	2243.512	2372.653
9.688	29.028	2247.504	2371.797
10.702	26.274	2317.896	2408.935
11.717	23.177	2382.083	2432.618
12.731	11.923	2353.375	2248.530
13.746	1.910	2325.592	2084.619
14.761	0.439	2320.934	2060.020
15.775	0.239	2319.502	2055.754
16.790	0.170	2317.854	2053.103
17.804	0.134	2316.410	2051.083
18.819	0.143	2315.667	2050.309
19.834	0.153	2313.576	2048.348
20.848	0.277	2311.446	2047.902
21.863	0.277	2309.060	2045.543
22.877	0.189	2308.618	2043.704
23.892	0.150	2305.392	2040.071
24.907	0.106	2303.861	2037.873
25.921	0.162	2302.428	2037.133
26.936	0.204	2299.540	2034.906
27.950	0.139	2297.144	2031.650
28.965	0.215	2294.957	2030.504
29.980	0.178	2294.693	2029.526
30.994	0.352	2292.317	2029.535
32.009	6.293	2311.679	2127.347
33.023	19.479	2350.379	2343.827
34.038	25.124	2361.003	2431.313
35.053	25.623	2360.494	2437.301
36.067	25.726	2358.198	2436.037
37.082	25.611	2356.109	2432.024
38.096	25.637	2352.918	2428.788
39.111	25.834	2351.712	2429.933
40.126	26.195	2350.558	2433.339
41.140	26.449	2350.188	2436.101
42.155	26.307	2347.280	2430.871
43.169	26.134	2345.187	2426.077
44.184	26.135	2341.917	2422.422
45.199	26.006	2339.381	2417.767
46.213	26.061	2338.885	2417.711
47.228	26.009	2338.380	2416.203
48.242	26.013	2336.023	2413.526
49.257	26.088	2334.085	2412.236
50.271	26.360	2332.383	2413.853
51.286	26.410	2329.713	2411.463
52.301	26.006	2327.774	2403.750
53.315	26.392	2330.284	2411.239
54.330	28.533	2335.218	2444.768
55.344	30.025	2334.778	2463.993
56.359	30.229	2332.040	2463.529
57.374	30.034	2331.051	2459.578
58.388	30.024	2327.084	2454.964
59.403	30.005	2323.115	2450.237
60.417	29.823	2320.388	2444.657
61.432	30.077	2317.940	2445.143
62.447	29.841	2317.352	2441.107
63.461	29.725	2315.348	2437.166
64.476	29.739	2312.851	2434.432
65.490	30.029	2312.026	2437.109
66.505	29.692	2310.443	2430.694
67.520	28.296	2303.120	2404.295
68.534	26.358	2295.912	2370.953
69.549	25.865	2291.106	2359.229
70.563	25.755	2288.250	2354.553
71.578	25.834	2286.887	2353.903
72.593	25.908	2285.872	2353.548
73.607	26.110	2284.900	2354.922
74.622	26.234	2282.462	2353.746
75.636	26.006	2280.338	2348.300
76.651	26.038	2278.226	2346.253
77.666	26.045	2275.593	2343.350
78.680	26.174	2273.161	2342.258
79.695	26.201	2271.397	2340.506
80.709	26.224	2270.899	2340.019
81.724	26.227	2269.955	2338.802
82.739	26.360	2266.813	2337.008
83.753	26.220	2264.861	2332.904
84.768	26.120	2262.517	2328.911
85.782	26.090	2261.185	2326.876
86.797	26.127	2260.317	2326.175
87.812	26.211	2257.276	2323.856
88.826	26.053	2256.110	2320.336
89.841	26.215	2253.110	2319.060
90.855	26.420	2250.906	2319.159
91.870	26.115	2250.316	2314.349
92.884	26.196	2248.363	2313.105
93.899	26.517	2247.207	2315.770
94.914	26.797	2248.723	2320.660
95.928	27.916	2251.889	2338.045
96.943	28.505	2250.601	2343.995
97.957	27.330	2243.916	2321.704
98.972	26.285	2239.380	2303.350
99.987	26.014	2236.657	2296.799
101.001	26.165	2233.639	2295.352
102.016	26.097	2232.031	2292.561
103.030	26.005	2229.867	2288.885
104.045	26.179	2228.025	2288.944
105.060	26.381	2225.352	2288.493
106.074	26.297	2223.576	2285.326
107.089	26.194	2222.100	2282.232
108.103	26.154	2220.224	2279.517
109.118	26.323	2219.506	2280.654
110.133	26.389	2217.774	2279.436
111.147	26.204	2214.905	2273.870
112.162	26.088	2213.610	2270.810
113.176	26.258	2211.442	2270.453
114.191	26.174	2210.025	2267.673
115.206	26.037	2208.645	2264.257
116.220	26.066	2205.923	2261.557
117.235	26.030	2203.412	2258.254
118.249	26.201	2201.550	2258.231
119.264	26.075	2201.029	2255.841
120.279	26.053	2198.955	2253.165
121.293	25.958	2196.150	2248.834
122.308	25.909	2195.441	2247.222
123.322	25.883	2193.678	2244.834
124.337	25.943	2193.045	2244.662
125.352	27.597	2199.421	2271.657
126.366	28.541	2199.169	2282.946
127.381	26.845	2189.756	2251.751
128.395	25.830	2185.198	2234.155
129.410	25.972	2183.179	2233.590
130.424	25.995	2181.836	2232.233
131.439	26.024	2180.740	2231.203
132.454	26.063	2178.907	2229.544
133.468	26.255	2176.492	2229.192
134.483	26.369	2174.072	2227.857
135.497	26.422	2173.740	2227.910
136.512	26.545	2172.383	2227.774
137.527	26.482	2169.804	2224.079
138.541	26.143	2168.731	2218.532
139.556	25.989	2168.302	2215.918
140.570	26.175	2166.322	2215.929
141.585	26.219	2164.349	2214.185
142.600	26.413	2162.860	2214.786
143.614	26.136	2161.392	2209.612
144.629	26.225	2159.474	2208.473
145.643	26.273	2157.871	2207.164
146.658	26.225	2156.434	2204.844
147.673	26.202	2153.650	2201.454
148.687	26.176	2152.700	2199.893
149.702	26.446	2151.290	2201.496
150.716	26.326	2150.950	2199.422
151.731	26.359	2149.669	2198.248
152.746	26.457	2148.185	2197.664
153.760	26.605	2149.085	2200.132
154.775	27.733	2152.429	2217.073
155.789	28.514	2150.749	2224.607
156.804	27.290	2143.001	2201.452
157.819	26.184	2138.148	2182.769
158.833	26.091	2134.572	2177.726
159.848	26.180	2134.659	2178.637
160.862	26.453	2132.460	2179.443
161.877	26.557	2131.613	2179.571
162.892	26.715	2131.588	2181.198
163.906	26.790	2131.036	2181.273
164.921	26.854	2128.241	2178.928
165.935	26.665	2126.240	2174.335
166.950	26.612	2124.887	2172.051
167.964	26.487	2122.277	2167.615
168.979	26.275	2120.189	2162.680
169.994	26.386	2117.484	2160.995
171.008	26.111	2115.933	2155.846
172.023	26.073	2114.620	2153.794
173.037	26.159	2113.708	2153.649
174.052	26.187	2112.751	2152.753
175.067	26.125	2110.491	2149.443
176.081	25.979	2108.487	2145.404
177.096	25.956	2108.443	2144.826
178.110	25.950	2106.423	2142.436
179.125	25.862	2104.706	2139.382
180.140	26.065	2102.430	2139.231
181.154	26.077	2102.464	2139.159
182.169	26.110	2101.152	2137.962
183.183	26.593	2100.906	2143.205
184.198	28.529	2105.929	2171.134
185.213	28.688	2103.051	2169.788
186.227	26.842	2096.054	2140.438
187.242	25.977	2092.257	2126.060
188.256	25.805	2091.105	2122.595
189.271	25.930	2089.511	2122.209
190.286	25.964	2088.004	2120.816
191.300	25.950	2085.336	2117.688
192.315	25.957	2083.350	2115.501
193.329	26.203	2082.967	2117.766
194.344	26.336	2083.390	2119.509
195.359	26.663	2081.621	2121.304
196.373	26.660	2079.408	2118.757
197.388	26.559	2077.026	2114.888
198.402	26.384	2074.793	2110.310
199.417	26.550	2072.172	2109.334
200.432	26.564	2071.430	2108.493
201.446	26.358	2070.125	2104.506
202.461	26.365	2067.091	2101.248
203.475	26.260	2065.519	2098.177
204.490	26.224	2063.250	2095.196
205.504	26.127	2062.873	2093.438
206.519	26.151	2060.135	2090.684
207.534	26.295	2058.273	2090.215
208.548	26.230	2057.968	2088.902
209.563	26.127	2056.093	2085.554
210.577	26.238	2055.053	2085.539
211.592	26.549	2054.466	2088.299
212.607	26.922	2055.760	2093.686
213.621	27.635	2057.522	2103.504
214.636	27.696	2054.271	2100.633
215.650	26.692	2049.614	2084.018
216.665	26.351	2046.780	2076.957
217.680	26.369	2044.937	2075.043
218.694	26.238	2043.904	2072.233
219.709	26.249	2042.645	2070.839
220.723	26.555	2041.350	2072.796
221.738	26.719	2039.928	2072.992
222.753	26.627	2037.514	2069.231
223.767	26.434	2035.262	2064.490
224.782	26.302	2033.955	2061.399
225.796	26.282	2032.572	2059.523
226.811	26.498	2031.347	2060.512
227.826	26.610	2030.125	2060.303
228.840	26.466	2028.449	2056.707
229.855	26.384	2026.269	2053.320
230.869	26.186	2025.309	2049.845
231.884	25.975	2022.972	2044.823
232.899	26.109	2021.064	2044.177
233.913	26.243	2020.409	2044.794
234.928	26.207	2019.966	2043.688
235.942	26.223	2017.836	2041.479
236.957	26.001	2015.686	2036.532
237.972	26.042	2015.192	2036.263
238.986	26.056	2013.389	2034.351
240.001	25.837	2011.452	2029.674
241.015	25.661	2010.641	2026.616
242.030	26.386	2010.941	2034.875
243.045	28.242	2015.853	2060.631
244.059	28.963	2014.092	2066.726
245.074	27.177	2006.156	2038.225
246.088	26.311	2001.197	2023.205
247.103	26.265	2000.799	2022.050
248.117	26.220	1998.786	2019.259
249.132	25.991	1997.921	2015.578
250.147	25.996	1995.487	2012.931
251.161	25.958	1994.687	2011.457
252.176	26.100	1993.864	2011.981
253.190	26.274	1990.502	2010.294
254.205	26.108	1988.269	2005.948
255.220	26.405	1986.920	2007.661
256.234	26.202	1986.604	2004.831
257.249	26.213	1985.191	2003.286
258.263	26.255	1985.021	2003.343
259.278	26.362	1983.866	2003.136
260.293	26.475	1982.014	2002.281
261.307	26.285	1981.037	1998.942
262.322	26.384	1978.698	1997.438
263.336	26.151	1976.444	1992.337
264.351	26.061	1974.648	1989.291
265.366	26.285	1973.120	1990.002
266.380	26.208	1973.321	1989.109
267.395	26.068	1971.053	1985.038
268.409	25.985	1969.621	1982.437
269.424	26.199	1968.854	1983.794
270.439	26.342	1968.425	1984.700
271.453	26.980	1968.997	1992.080
272.468	28.432	1971.186	2010.074
273.482	28.468	1968.568	2007.561
274.497	27.081	1961.841	1985.239
275.512	26.401	1957.558	1973.216
276.526	26.301	1955.605	1969.913
277.541	26.159	1953.565	1966.070
278.555	26.051	1952.642	1963.722
279.570	25.930	1950.527	1960.037
280.585	26.026	1949.098	1959.410
281.599	26.187	1947.698	1959.532
282.614	26.303	1946.684	1959.538
283.628	26.538	1946.330	1961.504
284.643	26.709	1946.166	1962.973
285.657	26.617	1944.611	1960.164
286.672	26.498	1942.310	1956.323
287.687	26.335	1940.804	1952.796
288.701	26.057	1939.036	1947.769
289.716	26.058	1936.973	1945.474
290.730	26.224	1935.901	1945.964
291.745	26.247	1934.673	1944.740
292.760	26.313	1933.911	1944.462
293.774	26.083	1933.047	1940.876
294.789	26.142	1931.434	1939.658
295.803	26.218	1929.303	1938.098
296.818	26.140	1927.700	1935.425
297.833	26.134	1927.144	1934.562
298.847	26.236	1924.896	1933.176
299.862	26.030	1924.163	1929.996
300.876	26.539	1924.156	1935.227
301.891	28.555	1927.469	1960.003
302.906	28.932	1926.031	1962.347
303.920	27.012	1919.630	1935.048
304.935	26.214	1916.567	1923.191
305.949	26.129	1914.052	1919.531
306.964	26.482	1912.701	1921.714
307.979	26.383	1910.558	1918.273
308.993	25.949	1908.650	1911.509
310.008	25.899	1907.944	1910.034
311.022	26.131	1906.931	1911.269
312.037	26.116	1905.901	1909.841
313.052	26.216	1903.152	1907.917
314.066	26.155	1901.540	1905.436
315.081	26.191	1901.113	1905.156
316.095	26.250	1900.622	1905.057
317.110	26.184	1899.116	1902.624
318.125	26.126	1896.890	1899.556
319.139	26.119	1895.131	1897.496
320.154	26.226	1894.631	1897.897
321.168	26.213	1892.225	1895.114
322.183	26.315	1891.069	1894.808
323.197	26.613	1891.008	1897.661
324.212	26.558	1888.815	1894.654
325.227	26.154	1886.805	1888.167
326.241	26.111	1885.044	1885.724
327.256	26.258	1883.642	1885.636
328.270	26.338	1883.345	1885.957
329.285	26.257	1883.281	1884.815
330.300	26.727	1885.159	1891.401
331.314	28.075	1887.650	1907.819
332.329	28.456	1883.881	1907.771
333.343	26.967	1878.997	1887.051
334.358	26.272	1876.254	1876.819
335.373	26.420	1873.590	1875.472
336.387	26.186	1871.343	1870.559
337.402	26.177	1869.957	1868.857
338.416	26.199	1869.072	1867.977
339.431	26.454	1868.041	1869.366
340.446	26.471	1866.712	1867.991
341.460	26.508	1864.476	1865.918
342.475	26.722	1862.637	1866.071
343.489	26.350	1860.759	1860.113
344.504	26.077	1859.826	1856.138
345.519	26.115	1858.331	1854.821
346.533	26.309	1856.427	1854.701
347.548	26.223	1855.288	1852.452
348.562	26.157	1853.770	1850.033
349.577	26.272	1852.799	1850.031
350.592	26.340	1851.993	1849.700
351.606	26.426	1851.544	1849.919
352.621	26.413	1849.512	1847.534
353.635	26.108	1847.743	1842.411
354.650	25.866	1846.212	1838.185
355.665	25.844	1844.198	1835.732
356.679	25.906	1842.916	1834.868
357.694	25.926	1842.530	1834.477
358.708	26.011	1841.205	1833.806
359.723	26.628	1842.729	1841.405
360.738	28.123	1845.516	1859.260
361.752	28.164	1841.958	1855.873
362.767	26.863	1835.845	1836.266
363.781	26.085	1833.034	1825.319
364.796	26.001	1832.420	1823.637
365.810	26.023	1830.326	1821.562
366.825	25.892	1829.281	1818.978
367.840	25.767	1828.113	1816.327
368.854	25.768	1827.193	1815.208
369.869	25.813	1825.383	1813.646
370.883	25.689	1823.629	1810.432
371.898	25.824	1821.889	1809.856
372.913	25.877	1821.200	1809.484
373.927	26.037	1819.612	1809.302
374.942	26.070	1818.599	1808.412
375.956	26.214	1817.648	1808.701
376.971	26.049	1816.254	1805.433
377.986	26.096	1814.724	1804.171
379.000	26.243	1813.767	1804.479
380.015	26.422	1812.272	1804.572
381.029	26.383	1811.061	1802.763
382.044	26.446	1809.493	1801.612
383.059	26.509	1807.828	1800.374
384.073	26.317	1806.902	1797.313
385.088	26.171	1805.985	1794.733
386.102	26.323	1804.686	1794.744
387.117	26.381	1803.757	1794.183
388.132	26.432	1802.403	1793.123
389.146	26.745	1804.077	1797.694
390.161	28.258	1804.482	1812.961
391.175	28.475	1800.824	1811.228
392.190	27.101	1795.299	1791.841
393.205	26.549	1793.040	1783.907
394.219	26.547	1790.714	1781.351
395.234	26.397	1789.212	1778.165
396.248	26.164	1787.282	1773.734
397.263	26.219	1784.948	1771.752
398.278	26.170	1783.332	1769.449
399.292	26.097	1781.849	1767.046
400.307	26.201	1782.561	1768.564
401.321	26.323	1781.117	1768.121
402.336	26.303	1779.636	1766.243
403.350	26.300	1778.108	1764.487
404.365	26.419	1776.301	1763.644
405.380	26.251	1775.265	1760.763
406.394	26.102	1773.673	1757.514
407.409	25.951	1772.470	1754.635
408.423	25.980	1771.379	1753.632
409.438	26.014	1769.630	1752.015
410.453	26.039	1768.159	1750.596
411.467	25.987	1767.037	1748.765
412.482	25.785	1765.815	1745.383
413.496	25.811	1765.126	1744.749
414.511	25.825	1763.666	1743.230
415.526	25.892	1761.254	1741.285
416.540	26.019	1760.203	1741.276
417.555	25.895	1759.013	1738.681
418.569	26.087	1758.580	1739.913
419.584	26.245	1758.143	1740.795
420.599	26.093	1757.110	1738.099
421.613	25.669	1755.622	1732.311
422.628	25.622	1753.848	1729.899
423.642	25.735	1752.725	1729.684
424.657	25.598	1751.220	1726.670
425.672	25.566	1748.972	1723.935
426.686	25.732	1747.902	1724.272
427.701	25.743	1747.393	1723.666
428.715	25.982	1746.024	1724.405
429.730	26.132	1745.083	1724.719
430.745	26.109	1743.150	1722.373
431.759	25.839	1742.290	1718.735
432.774	25.713	1741.455	1716.491
433.788	25.299	1738.873	1709.783
434.803	24.795	1738.431	1704.320
435.818	24.691	1737.717	1702.422
436.832	24.695	1737.286	1701.830
437.847	24.267	1731.322	1691.699
438.861	15.577	1705.630	1584.377
439.876	3.433	1682.333	1448.410
440.890	0.571	1676.373	1416.151
441.905	0.373	1675.419	1413.306
442.920	0.385	1673.712	1411.811
443.934	0.248	1672.579	1409.395
444.949	0.270	1671.464	1408.497
445.963	0.118	1671.384	1406.836
446.978	0.135	1671.533	1406.945
447.993	0.225	1668.559	1405.126
449.007	0.242	1666.611	1403.476
450.022	0.267	1664.321	1401.607
451.036	0.206	1663.371	1400.071
452.051	1.354	1669.750	1416.036
453.066	12.034	1694.257	1537.813
454.080	22.897	1711.344	1656.076
455.095	26.085	1718.544	1692.965
456.109	28.649	1722.134	1720.487
457.124	29.476	1722.722	1728.658
458.139	29.032	1720.625	1722.170
459.153	28.687	1719.033	1717.131
460.168	28.410	1716.777	1712.072
461.182	28.360	1715.106	1709.727
462.197	28.388	1713.151	1707.838
463.212	28.226	1710.642	1703.622
464.226	28.248	1710.582	1703.559
465.241	28.576	1709.771	1705.613
466.255	28.861	1709.407	1707.708
467.270	28.936	1707.528	1706.325
468.285	28.631	1705.929	1701.687
469.299	28.393	1705.432	1698.763
470.314	28.701	1703.467	1699.469
471.328	28.781	1701.980	1698.528
472.343	28.822	1700.644	1697.368
473.358	28.719	1699.817	1695.391
474.372	28.766	1698.534	1694.344
475.387	28.534	1697.652	1691.113
476.401	28.583	1695.669	1689.384
477.416	28.502	1694.663	1687.431
478.430	28.725	1693.927	1688.561
479.445	28.697	1691.941	1686.117
480.460	28.432	1690.066	1681.599
481.474	28.390	1689.493	1680.443
482.489	28.711	1688.486	1682.198
483.503	29.130	1686.944	1684.315
484.518	29.025	1686.002	1682.205
485.533	29.281	1685.444	1683.801
486.547	29.207	1683.936	1681.413
487.562	29.693	1683.624	1685.357
488.576	29.890	1681.634	1684.963
489.591	29.710	1680.937	1682.414
490.606	29.408	1679.270	1677.787
491.620	29.412	1678.028	1676.383
492.635	29.781	1675.698	1677.221
493.649	29.737	1674.458	1675.376
494.664	29.074	1672.151	1666.833
495.679	28.416	1670.128	1658.639
496.693	28.496	1669.807	1658.849
497.708	29.043	1668.709	1662.524
498.722	29.553	1669.054	1667.299
499.737	29.601	1667.970	1666.453
500.752	29.460	1664.998	1662.004
501.766	29.131	1663.635	1657.472
502.781	29.260	1662.188	1656.998
503.795	29.243	1660.982	1655.447
504.810	29.043	1660.539	1652.998
505.825	29.381	1659.370	1654.689
506.839	29.422	1658.294	1653.785
507.854	29.308	1656.791	1651.057
508.868	29.362	1654.630	1649.194
509.883	28.987	1653.745	1644.745
510.898	29.221	1652.667	1645.580
511.912	28.981	1650.080	1640.659
512.927	28.688	1649.043	1636.801
513.941	28.893	1647.393	1636.800
514.956	29.373	1646.910	1640.415
515.971	29.850	1647.789	1645.361
516.985	29.884	1645.865	1643.550
518.000	29.474	1645.485	1639.316
519.014	29.602	1643.886	1638.666
520.029	29.632	1642.126	1636.986
521.043	29.398	1640.039	1632.626
522.058	29.182	1638.038	1628.517
523.073	29.168	1637.955	1628.119
524.087	29.701	1637.499	1632.199
525.102	29.660	1636.770	1630.911
526.116	29.288	1634.610	1625.273
527.131	29.148	1633.716	1622.944
528.146	29.725	1633.254	1627.400
529.160	29.960	1632.256	1628.291
530.175	29.942	1631.822	1627.507
531.189	29.966	1631.588	1627.286
532.204	30.147	1630.077	1627.186
533.219	29.729	1627.124	1620.357
534.233	29.189	1625.233	1613.532
535.248	29.220	1625.161	1613.538
536.262	29.866	1624.935	1618.801
537.277	30.263	1624.355	1621.521
538.292	30.174	1623.189	1619.376
539.306	30.174	1621.071	1617.076
540.321	30.098	1619.108	1614.253
541.335	29.921	1617.653	1611.061
542.350	30.004	1616.830	1610.773
543.365	30.465	1615.851	1613.631
544.379	30.600	1615.036	1613.802
545.394	30.615	1613.387	1612.091
546.408	29.956	1610.049	1602.835
547.423	29.156	1607.994	1593.638
548.438	29.092	1606.424	1591.343
549.452	29.530	1605.901	1594.436
550.467	29.598	1605.775	1594.704
551.481	29.785	1604.998	1595.366
552.496	29.946	1605.269	1596.843
553.511	30.365	1604.730	1599.741
554.525	30.392	1602.589	1597.653
555.540	30.325	1602.165	1596.456
556.554	30.240	1601.483	1594.856
557.569	30.170	1598.951	1591.539
558.583	30.052	1596.982	1588.369
559.598	29.957	1596.205	1586.592
560.613	29.957	1595.372	1585.572
561.627	29.834	1593.695	1582.656
562.642	29.915	1592.645	1582.120
563.656	30.077	1591.709	1582.396
564.671	30.131	1589.354	1580.321
565.686	30.118	1588.564	1579.240
566.700	29.873	1586.953	1575.350
567.715	29.872	1585.492	1573.704
568.729	29.965	1584.551	1573.375
569.744	30.368	1584.201	1576.279
570.759	30.652	1582.915	1577.232
571.773	30.486	1582.414	1575.134
572.788	30.600	1580.700	1574.204
573.802	30.205	1578.893	1568.862
574.817	30.079	1577.009	1565.728
575.832	30.177	1575.759	1565.134
576.846	30.210	1575.111	1564.582
577.861	30.154	1573.880	1562.697
578.875	30.336	1573.012	1563.192
579.890	30.620	1572.175	1564.572
580.905	30.614	1571.573	1563.740
581.919	30.675	1571.249	1563.738
582.934	30.835	1570.451	1564.107
583.948	30.902	1569.342	1563.388
584.963	30.751	1567.030	1559.619
585.978	30.414	1564.584	1554.170
586.992	30.296	1564.347	1552.749
588.007	30.838	1564.502	1557.277
589.021	30.490	1562.122	1551.806
590.036	29.755	1560.317	1543.659
591.051	30.291	1560.387	1548.042
592.065	30.844	1559.805	1551.906
593.080	31.123	1558.416	1552.677
594.094	31.140	1556.295	1550.518
595.109	30.439	1553.033	1541.237
596.123	29.858	1551.575	1534.769
597.138	30.307	1551.066	1537.819
598.153	30.402	1549.869	1537.238
599.167	30.444	1548.957	1536.499
600.182	30.459	1548.344	1535.828
601.196	30.615	1547.403	1536.013
602.211	30.608	1546.137	1534.508
603.226	30.767	1545.659	1535.167
604.240	30.932	1544.163	1534.866
605.255	30.958	1543.471	1534.216
606.269	30.955	1542.209	1532.753
607.284	30.889	1540.968	1530.787
608.299	31.026	1539.085	1529.864
609.313	30.676	1537.390	1525.111
610.328	30.664	1537.025	1524.472
611.342	30.656	1535.546	1522.756
612.357	30.742	1534.734	1522.470
613.372	30.737	1533.566	1521.091
614.386	30.468	1532.797	1517.935
615.401	30.634	1532.012	1518.336
616.415	30.635	1530.717	1516.880
617.430	30.653	1529.641	1515.784
618.445	30.399	1528.852	1512.737
619.459	30.429	1527.508	1511.476
620.474	30.432	1525.953	1509.780
621.488	30.709	1525.092	1511.004
622.503	30.812	1524.801	1511.382
623.518	30.821	1523.270	1509.758
624.532	30.959	1521.498	1508.937
625.547	30.756	1519.922	1505.545
626.561	30.571	1520.353	1504.285
627.576	30.652	1518.419	1502.856
628.591	30.956	1517.883	1504.611
629.605	31.168	1517.090	1505.367
630.620	31.214	1516.160	1504.630
631.634	31.389	1515.309	1505.022
632.649	31.419	1514.285	1504.074
633.663	31.555	1513.209	1503.922
634.678	31.251	1511.701	1499.787
635.693	30.925	1509.679	1494.972
636.707	30.889	1507.142	1491.993
637.722	30.794	1506.222	1490.138
638.736	30.872	1505.816	1490.182
639.751	31.159	1504.981	1491.490
640.766	31.038	1503.550	1488.917
641.780	30.983	1501.986	1486.754
642.795	31.115	1501.207	1486.861
643.809	31.079	1500.736	1485.927
644.824	31.271	1500.041	1486.598
645.839	31.187	1498.871	1484.587
646.853	31.174	1497.376	1482.826
647.868	31.075	1495.856	1480.354
648.882	30.859	1494.840	1477.447
649.897	30.953	1493.195	1476.392
650.912	31.009	1492.083	1475.565
651.926	31.343	1491.082	1477.049
652.941	31.217	1489.730	1474.535
653.955	30.778	1487.365	1468.536
654.970	30.222	1485.518	1462.133
655.985	30.079	1483.328	1458.670
656.999	29.998	1482.824	1457.364
658.014	30.218	1482.824	1458.924
659.028	30.790	1482.356	1462.809
660.043	31.296	1481.963	1466.239
661.058	31.651	1480.527	1467.442
662.072	31.308	1479.971	1464.013
663.087	31.193	1477.890	1460.878
664.101	30.823	1477.307	1457.215
665.116	31.084	1476.464	1458.261
666.131	31.042	1475.478	1456.780
667.145	31.070	1473.982	1455.353
668.160	31.147	1472.953	1454.765
669.174	31.139	1471.247	1452.844
670.189	31.423	1469.651	1453.310
671.204	31.237	1469.377	1451.413
672.218	31.152	1469.429	1450.624
673.233	31.544	1467.553	1451.663
674.247	31.535	1466.245	1450.121
675.262	31.312	1465.920	1447.886
676.276	31.289	1464.562	1446.195
677.291	31.330	1463.271	1445.068
678.306	31.014	1462.387	1441.564
679.320	31.042	1461.142	1440.383
680.335	31.117	1460.095	1439.764
681.349	31.131	1459.301	1438.918
682.364	31.180	1457.581	1437.427
683.379	31.121	1456.502	1435.736
684.393	30.925	1455.021	1432.586
685.408	31.018	1453.646	1431.776
686.422	31.040	1452.475	1430.623
687.437	30.832	1451.755	1428.140
688.452	30.818	1450.997	1427.113
689.466	30.852	1449.558	1425.790
690.481	30.816	1448.679	1424.481
691.495	31.045	1448.653	1426.042
692.510	31.574	1447.779	1429.076
693.525	31.491	1446.655	1427.154
694.539	31.499	1445.703	1426.111
695.554	31.071	1444.561	1421.531
696.568	30.817	1442.503	1417.391
697.583	30.878	1440.572	1415.795
698.598	30.842	1440.512	1415.290
699.612	30.915	1439.522	1414.706
700.627	30.976	1438.269	1413.770
701.641	31.266	1436.700	1414.267
702.656	31.407	1436.536	1415.006
703.671	31.244	1436.783	1413.843
704.685	31.470	1435.965	1414.584
705.700	31.455	1434.450	1412.814
706.714	31.211	1432.224	1408.597
707.729	31.200	1430.830	1406.977
708.744	31.365	1429.641	1406.888
709.758	31.094	1428.795	1403.840
710.773	30.839	1426.651	1399.638
711.787	30.509	1425.048	1395.405
712.802	31.008	1424.540	1398.508
713.816	31.310	1424.599	1400.672
714.831	31.409	1423.879	1400.543
715.846	31.534	1422.266	1399.728
716.860	31.504	1420.885	1397.977
717.875	31.496	1419.753	1396.634
718.889	31.150	1418.620	1392.754
719.904	31.151	1417.941	1391.932
720.919	31.194	1416.127	1390.306
721.933	31.175	1415.455	1389.337
722.948	31.206	1414.718	1388.684
723.962	31.121	1413.299	1386.484
724.977	31.246	1412.351	1386.321
725.992	31.338	1410.828	1385.350
727.006	31.332	1410.076	1384.400
728.021	31.313	1409.291	1383.319
729.035	31.277	1408.316	1381.933
730.050	31.438	1406.939	1381.609
731.065	31.264	1405.937	1379.171
732.079	31.398	1405.328	1379.402
733.094	31.292	1404.313	1377.456
734.108	31.320	1402.522	1375.740
735.123	31.350	1400.776	1374.082
736.138	31.235	1400.017	1372.327
737.152	31.261	1398.810	1371.169
738.167	31.288	1397.913	1370.329
739.181	31.273	1396.623	1368.788
740.196	31.305	1395.868	1368.119
741.211	31.024	1395.287	1365.320
742.225	31.177	1394.154	1365.169
743.240	31.261	1391.794	1363.316
744.254	31.102	1390.698	1360.911
745.269	31.048	1389.852	1359.527
746.284	30.809	1389.335	1357.102
747.298	30.900	1387.683	1355.994
748.313	30.922	1387.650	1355.958
749.327	31.241	1387.681	1358.158
750.342	31.639	1387.377	1360.612
751.356	31.723	1385.680	1359.395
752.371	31.523	1384.236	1356.355
753.386	31.127	1383.238	1352.337
754.400	30.856	1382.151	1349.137
755.415	31.250	1380.515	1350.243
756.429	31.329	1379.360	1349.522
757.444	31.364	1378.965	1349.233
758.459	31.342	1377.519	1347.491
759.473	31.277	1376.374	1345.744
760.488	30.995	1374.897	1342.100
761.502	30.945	1374.004	1340.706
762.517	31.137	1372.579	1340.540
763.532	31.405	1371.757	1341.508
764.546	31.214	1370.988	1339.219
765.561	30.781	1368.724	1333.733
766.575	30.064	1366.793	1326.534
767.590	30.160	1366.310	1326.591
768.605	30.865	1365.985	1331.183
769.619	31.236	1365.267	1332.989
770.634	31.303	1364.021	1332.098
771.648	31.086	1363.224	1329.602
772.663	30.916	1362.461	1327.484
773.678	31.121	1361.755	1328.101
774.692	31.306	1360.890	1328.419
775.707	31.203	1360.895	1327.527
776.721	31.174	1360.011	1326.302
777.736	31.158	1358.163	1324.227
778.751	31.183	1356.791	1322.908
779.765	31.291	1355.470	1322.234
780.780	31.183	1354.962	1320.809
781.794	31.252	1354.158	1320.361
782.809	30.994	1352.721	1316.968
783.824	30.692	1351.132	1313.121
784.838	30.872	1350.851	1313.968
785.853	31.315	1350.789	1316.889
786.867	31.346	1349.860	1316.041
787.882	31.208	1349.197	1314.267
788.897	31.032	1347.829	1311.533
789.911	30.761	1346.861	1308.515
790.926	30.678	1345.353	1306.309
791.940	30.587	1343.493	1303.705
792.955	30.799	1342.149	1303.736
793.969	30.739	1341.093	1302.136
794.984	30.884	1340.643	1302.563
795.999	31.168	1339.846	1303.622
797.013	31.169	1337.879	1301.559
798.028	31.043	1336.530	1299.210
799.042	31.018	1336.095	1298.457
800.057	31.006	1335.456	1297.600
801.072	31.056	1333.771	1296.153
802.086	31.095	1332.562	1295.094
803.101	30.909	1331.521	1292.634
804.115	31.082	1330.551	1292.738
805.130	31.112	1330.063	1292.324
806.145	31.165	1328.085	1290.616
807.159	30.909	1326.986	1287.615
808.174	31.017	1326.392	1287.634
809.188	31.188	1325.238	1287.546
810.203	31.101	1323.858	1285.447
811.218	30.922	1321.897	1282.152
812.232	30.660	1320.154	1278.495
813.247	30.258	1319.215	1274.661
814.261	30.727	1319.668	1278.181
815.276	31.202	1318.823	1280.484
816.291	30.985	1317.525	1277.580
817.305	30.749	1316.546	1274.853
818.320	30.793	1315.371	1273.866
819.334	30.989	1313.740	1273.481
820.349	31.019	1312.469	1272.299
821.364	30.818	1311.673	1269.998
822.378	30.810	1310.503	1268.656
823.393	31.003	1308.717	1268.096
824.407	30.971	1307.375	1266.428
825.422	30.900	1307.076	1265.502
826.437	30.925	1306.364	1264.827
827.451	30.605	1305.043	1261.222
828.466	30.877	1303.757	1261.674
829.480	31.419	1302.306	1263.804
830.495	31.238	1299.618	1259.816
831.509	30.723	1299.030	1255.606
832.524	30.621	1297.878	1253.652
833.539	30.810	1296.705	1253.647
834.553	30.764	1296.089	1252.592
835.568	30.591	1295.153	1250.366
836.582	30.709	1294.373	1250.263
837.597	30.882	1292.682	1249.648
838.612	30.725	1290.727	1246.550
839.626	30.819	1289.621	1245.966
840.641	30.749	1289.372	1245.100
841.655	30.617	1288.830	1243.543
842.670	30.377	1286.284	1239.325
843.685	29.845	1284.749	1234.133
844.699	30.199	1284.811	1236.419
845.714	30.635	1283.389	1237.821
846.728	30.623	1282.888	1237.112
847.743	30.476	1282.099	1235.219
848.758	30.538	1281.200	1234.617
849.772	30.777	1279.970	1234.880
850.787	30.781	1278.342	1233.187
851.801	30.636	1277.407	1231.170
852.816	30.587	1276.479	1229.804
853.831	30.643	1275.108	1228.710
854.845	30.687	1273.291	1227.104
855.860	30.448	1271.729	1223.869
856.874	30.486	1270.960	1223.234
857.889	30.791	1270.021	1224.197
858.904	31.162	1269.617	1226.113
859.918	31.349	1268.723	1226.336
860.933	31.509	1267.112	1225.685
861.947	31.272	1265.713	1222.631
862.962	30.816	1264.381	1218.196
863.977	30.666	1263.182	1215.914
864.991	30.625	1261.902	1214.266
866.006	30.433	1261.156	1212.144
867.020	30.642	1259.835	1212.093
868.035	30.510	1258.629	1209.924
869.049	30.562	1257.825	1209.346
870.064	30.679	1256.867	1209.050
871.079	30.707	1255.942	1208.194
872.093	30.682	1255.247	1207.220
873.108	30.546	1254.010	1204.999
874.122	30.455	1252.461	1202.774
875.137	30.292	1252.425	1201.538
876.152	30.251	1251.510	1200.247
877.166	30.106	1249.922	1197.637
878.181	30.091	1248.451	1195.990
879.195	30.177	1247.868	1195.846
880.210	30.375	1247.236	1196.378
881.225	30.534	1246.025	1196.101
882.239	30.605	1245.241	1195.665
883.254	30.564	1244.826	1194.858
884.268	30.431	1244.448	1193.495
885.283	30.523	1242.901	1192.457
886.298	30.535	1240.860	1190.437
887.312	30.596	1239.398	1189.282
888.327	30.549	1238.625	1188.098
889.341	30.592	1237.299	1186.962
890.356	30.377	1236.659	1184.824
891.371	30.332	1236.637	1184.376
892.385	30.388	1236.393	1184.356
893.400	30.406	1235.077	1183.067
894.414	30.477	1233.590	1181.955
895.429	30.667	1232.497	1181.981
896.444	31.135	1231.405	1183.777
897.458	31.257	1230.466	1183.509
898.473	31.088	1229.757	1181.614
899.487	30.868	1228.396	1178.763
900.502	30.485	1226.659	1174.524
901.517	30.257	1225.420	1171.747
902.531	30.337	1224.377	1171.116
903.546	30.263	1224.072	1170.220
904.560	30.399	1222.646	1169.574
905.575	30.488	1221.593	1168.992
906.589	30.199	1221.374	1166.815
907.604	30.225	1220.642	1166.137
