DTS Sentinel unit serial number:	SN409020Multiplexer serial number:	ORYXHardware model number:	OX4-SRSoftware version number:	ORYX F/W v3.00 Oryx Data Collector v3.7.2.0data status	okinstallation	HaddamTimeLapsedifferential loss correction	single-endedforward channel	channel 3reverse channel	N/Adate	2011/06/21time	21:01:17forward acquisition time	30.00reverse acquisition time	0.00gamma	498.7831k internal	0.1767k external	0.1767temperature offset calibration	1.0074default loss term (dB/km)	0.3790temperature slope calibration	1.3530multiplexer offset coefficient	1.0000multiplexer slope coefficient	1.0000fibre end	0.00T internal ref (°C)	27.84T ext. ref 1 (°C)	20.67T ext. ref 2 (°C)	0.03length (m)	temperature (°C)	Stokes	anti-Stokes-747.200	-100.844	0.344	-0.111
-746.185	-200.000	0.093	0.605
-745.171	-91.899	-0.544	0.202
-744.156	-200.000	-0.086	0.613
-743.142	432.345	-0.124	-0.357
-742.127	59.798	-0.217	0.282
-741.112	-150.953	0.321	0.031
-740.098	-77.950	-0.081	0.036
-739.083	-150.338	0.383	0.038
-738.069	-93.756	0.086	0.031
-737.054	215.149	0.161	-0.337
-736.039	199.261	0.116	0.235
-735.025	108.346	0.244	-0.384
-734.010	109.804	-0.150	-0.237
-732.996	800.000	0.122	-0.457
-731.981	-171.508	-0.250	0.011
-730.966	128.984	0.133	0.223
-729.952	-200.000	0.027	0.372
-728.937	-82.415	0.068	-0.029
-727.923	-135.316	-0.411	-0.064
-726.908	-200.000	0.008	0.145
-725.894	-142.023	0.089	0.012
-724.879	-61.945	0.289	0.158
-723.864	-65.027	0.400	-0.212
-722.850	11.887	-0.202	0.204
-721.835	173.546	-0.271	-0.516
-720.821	800.000	-0.002	0.010
-719.806	-200.000	0.015	0.219
-718.791	800.000	0.101	-0.581
-717.777	3.495	0.313	-0.300
-716.762	-51.081	-0.387	-0.238
-715.748	-78.890	-0.611	-0.273
-714.733	115.975	0.074	-0.120
-713.718	-72.908	-0.201	-0.097
-712.704	-200.000	-0.003	-0.118
-711.689	-69.156	-0.375	-0.189
-710.675	-112.479	0.489	-0.127
-709.660	127.485	0.233	-0.390
-708.645	231.207	0.234	-0.506
-707.631	56.216	0.072	0.092
-706.616	-94.519	-0.048	-0.017
-705.602	379.579	-0.051	-0.137
-704.587	425.842	-0.089	-0.253
-703.572	-200.000	0.028	-0.906
-702.558	-69.530	0.221	-0.111
-701.543	61.701	0.320	-0.419
-700.529	-114.011	0.539	0.136
-699.514	275.204	0.140	-0.328
-698.499	-106.319	0.637	0.186
-697.485	-102.575	-0.371	0.116
-696.470	-91.631	-0.369	0.137
-695.456	-146.739	-0.361	0.041
-694.441	440.534	0.209	-0.603
-693.426	-91.579	-0.654	-0.243
-692.412	-99.454	0.157	-0.052
-691.397	65.776	-0.225	0.299
-690.383	-128.525	0.326	0.060
-689.368	1.110	0.187	0.176
-688.354	739.045	0.040	0.141
-687.339	50.034	-0.216	-0.268
-686.324	-2.492	0.204	-0.188
-685.310	54.159	-0.267	-0.337
-684.295	134.615	-0.115	0.197
-683.281	800.000	-0.023	0.111
-682.266	-153.414	-0.161	-0.014
-681.251	12.106	0.395	-0.399
-680.237	-14.684	-0.482	-0.406
-679.222	-10.304	-0.263	-0.229
-678.208	-84.217	-0.500	-0.207
-677.193	-200.000	-0.029	-0.321
-676.178	365.071	0.119	-0.315
-675.164	-147.815	0.302	0.033
-674.149	74.066	0.165	0.228
-673.135	122.109	0.011	0.018
-672.120	800.000	0.062	-0.298
-671.105	25.234	-0.072	-0.078
-670.091	122.660	-0.374	-0.615
-669.076	-49.963	-0.511	-0.317
-668.062	-105.061	-0.469	0.140
-667.047	-200.000	-0.044	-0.281
-666.032	800.000	-0.083	-0.474
-665.018	800.000	-0.063	-0.292
-664.003	-168.716	0.078	0.004
-662.989	-52.125	0.770	-0.468
-661.974	-44.916	-0.231	0.151
-660.959	-55.982	0.221	-0.129
-659.945	-98.864	0.192	0.064
-658.930	-200.000	-0.006	-0.566
-657.916	-154.079	0.082	-0.007
-656.901	-18.506	-0.433	0.354
-655.886	-78.961	-0.261	0.116
-654.872	800.000	-0.122	0.510
-653.857	-200.000	0.015	-0.105
-652.843	88.112	0.301	-0.439
-651.828	126.846	0.165	0.275
-650.814	-65.222	0.184	0.097
-649.799	15.245	0.170	-0.174
-648.784	558.779	0.149	0.475
-647.770	-200.000	-0.008	-0.164
-646.755	-148.346	0.312	-0.033
-645.741	-9.963	0.139	-0.121
-644.726	-121.458	0.302	0.065
-643.711	-54.706	0.190	-0.112
-642.697	479.169	-0.039	0.118
-641.682	-14.367	0.505	0.426
-640.668	-79.164	0.329	-0.146
-639.653	231.762	0.123	-0.266
-638.638	259.399	0.194	-0.440
-637.624	-197.158	0.043	0.000
-636.609	-51.616	0.385	-0.235
-635.595	-24.711	0.536	-0.417
-634.580	-200.000	-0.059	-0.587
-633.565	55.024	0.185	0.235
-632.551	37.574	0.089	0.103
-631.536	44.576	0.269	0.324
-630.522	-200.000	0.011	0.144
-629.507	-93.930	0.515	-0.184
-628.492	800.000	0.091	-0.346
-627.478	-92.146	-0.200	-0.074
-626.463	-49.766	-0.361	0.224
-625.449	241.145	-0.066	-0.145
-624.434	318.398	-0.115	-0.286
-623.419	-200.000	0.012	-0.278
-622.405	164.509	0.055	0.103
-621.390	-81.110	0.271	0.117
-620.376	-91.414	0.200	-0.074
-619.361	-97.993	-0.737	0.247
-618.346	520.468	-0.029	-0.089
-617.332	-200.000	0.017	0.244
-616.317	-89.668	-0.241	-0.092
-615.303	239.316	0.194	-0.424
-614.288	800.000	0.018	-0.084
-613.273	526.948	0.048	0.148
-612.259	-115.116	-0.082	-0.020
-611.244	-200.000	0.062	-0.536
-610.230	164.278	-0.202	-0.374
-609.215	90.526	0.322	-0.472
-608.201	-67.807	0.186	-0.095
-607.186	-124.898	-0.353	0.071
-606.171	-200.000	-0.025	-0.205
-605.157	-200.000	0.002	-0.035
-604.142	405.629	-0.079	-0.218
-603.128	331.509	-0.088	-0.222
-602.113	142.447	-0.139	0.242
-601.098	-153.840	0.409	-0.036
-600.084	103.700	0.085	0.131
-599.069	-81.964	0.081	0.034
-598.055	-178.288	0.406	0.012
-597.040	-200.000	0.060	-0.614
-596.025	727.929	0.069	-0.243
-595.011	-132.203	-0.312	0.052
-593.996	800.000	-0.089	0.373
-592.982	-51.159	-0.186	0.114
-591.967	-139.614	-0.274	-0.038
-590.952	266.012	0.088	0.202
-589.938	-179.592	0.154	0.004
-588.923	-119.761	0.254	-0.057
-587.909	-152.519	0.148	0.014
-586.894	65.020	-0.127	-0.167
-585.879	-200.000	-0.063	-0.420
-584.865	-58.796	0.184	0.104
-583.850	-200.000	0.003	0.144
-582.836	421.414	-0.135	-0.381
-581.821	-161.552	-0.482	-0.032
-580.806	509.673	0.090	0.274
-579.792	-82.486	-0.110	0.046
-578.777	252.474	-0.229	0.511
-577.763	800.000	0.093	0.367
-576.748	633.193	-0.089	-0.296
-575.733	518.375	0.042	0.130
-574.719	-151.116	-0.460	-0.045
-573.704	522.397	-0.077	-0.236
-572.690	-29.811	-0.062	0.046
-571.675	-54.134	-0.368	0.218
-570.661	20.938	0.273	-0.289
-569.646	-77.777	-0.128	0.058
-568.631	363.369	0.234	0.618
-567.617	-24.010	0.083	0.065
-566.602	32.699	0.136	0.154
-565.588	-111.472	0.181	0.048
-564.573	-52.248	-0.392	0.237
-563.558	800.000	-0.035	-0.185
-562.544	-32.304	-0.051	0.037
-561.529	-68.122	0.162	0.082
-560.515	-122.447	-0.168	0.035
-559.500	6.410	-0.237	0.229
-558.485	26.933	-0.404	0.442
-557.471	30.781	0.128	-0.143
-556.456	65.919	-0.090	-0.120
-555.442	397.763	-0.145	-0.397
-554.427	-107.596	0.370	-0.105
-553.412	-55.909	-0.230	-0.133
-552.398	366.496	0.081	0.214
-551.383	-169.470	-0.094	-0.004
-550.369	-200.000	0.050	0.514
-549.354	103.156	-0.020	-0.030
-548.339	404.436	0.049	-0.137
-547.325	-104.936	0.310	0.092
-546.310	-29.397	-0.196	-0.146
-545.296	800.000	0.085	0.359
-544.281	70.811	-0.139	-0.188
-543.266	461.268	-0.070	0.206
-542.252	-101.573	0.170	0.054
-541.237	99.029	0.061	0.091
-540.223	-69.980	0.125	0.062
-539.208	-200.000	-0.014	-0.373
-538.193	120.867	-0.345	0.561
-537.179	165.070	0.030	0.056
-536.164	800.000	0.084	0.324
-535.150	-93.660	0.268	0.096
-534.135	800.000	0.041	-0.215
-533.121	367.864	-0.070	0.185
-532.106	513.037	-0.102	-0.312
-531.091	-200.000	0.020	0.184
-530.077	592.194	-0.118	-0.384
-529.062	-200.000	-0.032	-0.458
-528.048	90.293	0.049	-0.072
-527.033	-139.626	0.495	-0.068
-526.018	-200.000	-0.053	0.510
-525.004	22.394	-0.236	-0.251
-523.989	-200.000	-0.027	-0.219
-522.975	77.983	-0.185	-0.258
-521.960	-187.207	-0.482	-0.008
-520.945	-142.994	-0.305	0.038
-519.931	-116.009	0.232	-0.056
-518.916	528.289	-0.167	0.517
-517.902	-46.810	-0.269	-0.171
-516.887	-176.777	0.500	-0.016
-515.872	131.833	-0.128	-0.215
-514.858	-154.124	0.493	0.043
-513.843	2.327	-0.209	0.197
-512.829	-25.493	0.208	0.160
-511.814	239.213	-0.066	0.144
-510.799	-51.106	-0.161	-0.098
-509.785	285.700	0.069	-0.162
-508.770	495.963	-0.132	0.397
-507.756	151.472	-0.020	0.035
-506.741	-133.708	0.051	-0.008
-505.726	-12.867	-0.249	0.211
-504.712	17.433	0.053	-0.055
-503.697	-23.130	0.282	0.221
-502.683	398.316	0.098	-0.268
-501.668	339.014	0.065	0.167
-500.653	28.447	0.183	0.202
-499.639	-68.247	0.344	0.174
-498.624	425.748	-0.185	0.521
-497.610	-94.225	-0.530	-0.188
-496.595	800.000	0.045	0.170
-495.581	-74.249	-0.195	-0.092
-494.566	411.877	-0.113	-0.315
-493.551	-91.319	0.454	0.168
-492.537	45.270	0.064	0.077
-491.522	34.602	-0.371	0.423
-490.508	-108.365	0.171	-0.048
-489.493	-93.187	0.082	0.030
-488.478	-105.832	-0.228	0.067
-487.464	150.054	-0.187	-0.331
-486.449	130.166	0.022	0.038
-485.435	-200.000	-0.006	0.719
-484.420	800.000	-0.063	0.289
-483.405	-47.608	0.338	0.213
-482.391	-30.492	-0.335	0.247
-481.376	215.178	-0.091	0.189
-480.362	-85.759	0.146	0.058
-479.347	-117.313	-0.115	-0.027
-478.332	-99.043	-0.073	-0.024
-477.318	-120.847	-0.403	-0.088
-476.303	169.470	0.232	-0.433
-475.289	-98.512	0.171	-0.057
-474.274	-92.351	-0.225	0.082
-473.259	412.031	0.156	0.434
-472.245	-136.089	0.477	0.072
-471.230	448.030	-0.169	0.487
-470.216	663.896	0.055	0.184
-469.201	-21.697	-0.232	-0.184
-468.186	-172.688	-0.501	0.020
-467.172	15.831	-0.186	0.191
-466.157	454.820	-0.008	-0.023
-465.143	7.578	-0.048	0.046
-464.128	-200.000	-0.020	0.256
-463.113	-200.000	0.081	0.529
-462.099	-132.843	0.266	0.044
-461.084	22.460	-0.180	0.192
-460.070	68.636	0.169	0.226
-459.055	-93.307	0.217	0.078
-458.040	-74.460	0.339	-0.158
-457.026	-71.727	-0.157	0.076
-456.011	293.839	-0.115	0.274
-454.997	800.000	-0.131	0.509
-453.982	-142.939	0.053	-0.007
-452.968	180.472	-0.362	-0.694
-451.953	-160.801	-0.344	-0.023
-450.938	101.199	0.212	-0.322
-449.924	4.711	-0.241	-0.230
-448.909	715.373	0.053	-0.185
-447.895	-143.259	0.225	-0.028
-446.880	8.100	-0.203	0.198
-445.865	184.307	0.119	-0.231
-444.851	-87.115	-0.295	-0.116
-443.836	-200.000	-0.038	0.255
-442.822	-95.359	0.281	0.098
-441.807	143.035	0.138	0.239
-440.792	660.702	0.060	0.204
-439.778	-53.126	0.098	-0.059
-438.763	464.904	0.123	-0.359
-437.749	475.036	-0.046	-0.136
-436.734	-123.254	0.411	0.085
-435.719	-77.439	-0.391	0.176
-434.705	-124.701	-0.362	0.072
-433.690	-27.397	-0.238	-0.180
-432.676	800.000	0.100	0.383
-431.661	-14.258	0.171	-0.143
-430.646	89.543	0.135	0.197
-429.632	-69.514	0.374	-0.186
-428.617	207.533	0.129	0.263
-427.603	-177.567	-0.232	-0.007
-426.588	1.954	-0.068	-0.064
-425.573	800.000	0.056	0.273
-424.559	-147.142	-0.150	0.016
-423.544	-68.948	0.152	0.076
-422.530	-200.000	-0.011	-0.173
-421.515	-200.000	-0.030	0.532
-420.500	-39.755	-0.277	0.188
-419.486	-91.665	-0.317	-0.117
-418.471	57.027	0.158	-0.201
-417.457	-51.359	-0.109	-0.066
-416.442	-77.928	-0.112	-0.050
-415.428	88.468	-0.143	0.207
-414.413	-101.430	0.037	0.012
-413.398	-45.025	-0.342	0.221
-412.384	-23.403	0.220	-0.171
-411.369	84.069	0.124	-0.176
-410.355	-200.000	-0.044	0.305
-409.340	800.000	0.047	-0.249
-408.325	550.097	-0.082	0.256
-407.311	383.663	-0.233	0.627
-406.296	-112.197	-0.375	-0.097
-405.282	-32.610	-0.360	-0.260
-404.267	-42.873	0.352	-0.231
-403.252	278.759	-0.015	0.035
-402.238	342.660	0.255	-0.651
-401.223	-84.328	0.376	0.154
-400.209	400.183	-0.119	0.327
-399.194	-165.246	0.271	-0.015
-398.179	-200.000	-0.107	-0.000
-397.165	251.199	0.053	0.118
-396.150	800.000	0.046	-0.195
-395.136	-79.803	-0.232	-0.101
-394.121	-200.000	0.042	-0.444
-393.106	-200.000	0.062	-0.538
-392.092	-142.400	0.111	-0.014
-391.077	4.691	0.528	0.504
-390.063	-73.627	0.326	0.153
-389.048	25.059	0.140	0.151
-388.033	-200.000	0.006	0.294
-387.019	-67.923	-0.203	0.102
-386.004	800.000	0.021	0.084
-384.990	-101.647	-0.439	-0.138
-383.975	-82.410	0.262	-0.110
-382.960	-200.000	0.040	-0.355
-381.946	-45.246	-0.307	-0.198
-380.931	-86.574	-0.152	0.060
-379.917	-98.959	0.277	-0.091
-378.902	-123.103	0.231	0.048
-377.888	-87.925	-0.378	-0.147
-376.873	-61.907	-0.215	-0.116
-375.858	-168.818	-0.366	-0.018
-374.844	-120.676	-0.284	-0.062
-373.829	-160.966	0.336	0.023
-372.815	220.221	-0.147	-0.307
-371.800	-126.966	-0.389	-0.073
-370.785	-75.051	0.350	-0.162
-369.771	-128.291	0.696	-0.127
-368.756	800.000	-0.009	0.047
-367.742	-25.094	-0.284	0.218
-366.727	-101.776	-0.153	0.048
-365.712	-32.406	0.256	-0.185
-364.698	-131.828	0.154	-0.026
-363.683	-134.686	0.229	-0.036
-362.669	48.109	0.130	0.158
-361.654	800.000	0.076	-0.346
-360.639	-200.000	-0.016	0.271
-359.625	-200.000	-0.018	0.110
-358.610	285.762	0.065	-0.152
-357.596	-57.761	0.526	0.297
-356.581	-110.558	-0.330	-0.088
-355.566	-200.000	0.012	0.316
-354.552	-12.603	0.221	0.186
-353.537	-47.084	-0.111	-0.070
-352.523	444.330	0.040	-0.115
-351.508	23.759	0.465	0.497
-350.493	588.160	0.065	0.209
-349.479	-164.767	0.410	0.024
-348.464	-200.000	0.023	-0.148
-347.450	-200.000	-0.015	0.276
-346.435	-68.154	0.040	-0.020
-345.420	-200.000	-0.026	-0.229
-344.406	800.000	0.029	-0.110
-343.391	-7.176	0.085	-0.075
-342.377	-200.000	-0.027	0.224
-341.362	-57.386	0.240	-0.136
-340.348	800.000	0.051	-0.217
-339.333	-6.845	0.298	-0.262
-338.318	104.900	0.243	-0.371
-337.304	176.595	-0.085	0.160
-336.289	-156.163	0.256	0.021
-335.275	-200.000	0.042	-0.519
-334.260	-200.000	0.008	0.124
-333.245	-200.000	0.017	0.285
-332.231	-66.411	-0.218	0.112
-331.216	-94.784	0.101	-0.035
-330.202	-155.267	0.456	0.038
-329.187	-97.287	0.440	-0.148
-328.172	-111.176	0.062	-0.016
-327.158	35.234	-0.254	-0.289
-326.143	735.381	0.044	-0.152
-325.129	-200.000	0.060	-0.386
-324.114	19.660	-0.068	-0.071
-323.099	-56.911	-0.240	-0.137
-322.085	124.847	-0.329	-0.537
-321.070	250.225	-0.097	0.214
-320.056	-119.283	-0.360	-0.081
-319.041	-62.257	-0.255	-0.137
-318.026	800.000	0.091	0.463
-317.012	-86.778	0.227	0.089
-315.997	800.000	-0.014	0.072
-314.983	-8.535	0.521	0.452
-313.968	240.020	-0.091	0.198
-312.953	-101.529	-0.326	0.102
-311.939	-93.037	0.022	-0.008
-310.924	-137.279	-0.168	-0.025
-309.910	-157.983	-0.432	0.032
-308.895	351.190	0.138	0.356
-307.880	800.000	0.056	0.225
-306.866	-29.656	-0.300	0.221
-305.851	800.000	-0.095	-0.341
-304.837	77.469	-0.275	0.379
-303.822	-70.001	-0.177	-0.087
-302.807	-26.055	-0.239	0.182
-301.793	45.216	-0.214	0.255
-300.778	-31.712	-0.098	0.071
-299.764	800.000	0.057	0.247
-298.749	122.753	-0.254	0.413
-297.735	-37.065	-0.282	0.195
-296.720	-200.000	0.000	0.061
-295.705	48.109	0.303	-0.367
-294.691	-82.331	0.075	0.031
-293.676	-55.213	0.330	-0.191
-292.662	506.742	-0.105	-0.317
-291.647	800.000	-0.053	-0.213
-290.632	-50.648	0.257	-0.156
-289.618	-148.545	0.262	-0.027
-288.603	278.278	0.136	-0.315
-287.589	334.860	0.029	-0.072
-286.574	99.637	-0.021	0.032
-285.559	-200.000	0.350	-0.001
-284.545	-84.541	-0.185	-0.075
-283.530	-25.170	0.567	-0.434
-282.516	152.400	-0.117	-0.207
-281.501	39.749	0.203	0.236
-280.486	-165.855	0.094	0.005
-279.472	52.995	-0.104	0.128
-278.457	62.686	-0.396	-0.512
-277.443	21.924	0.272	-0.287
-276.428	800.000	-0.104	0.388
-275.413	-13.559	0.260	-0.217
-274.399	-200.000	0.002	-0.187
-273.384	351.459	0.054	0.140
-272.370	-4.601	-0.231	0.206
-271.355	421.395	-0.127	0.354
-270.340	-87.746	0.534	0.207
-269.326	-200.000	0.036	0.493
-268.311	-43.944	-0.243	-0.157
-267.297	800.000	-0.082	0.409
-266.282	-158.553	-0.446	-0.033
-265.267	-113.481	0.223	-0.056
-264.253	218.054	0.084	-0.173
-263.238	-200.000	0.013	-0.552
-262.224	-111.181	0.328	-0.086
-261.209	-200.000	0.020	0.172
-260.195	-40.965	-0.341	-0.227
-259.180	-2.166	-0.160	-0.145
-258.165	24.380	-0.247	-0.263
-257.151	800.000	0.109	0.527
-256.136	-17.167	0.233	-0.189
-255.122	254.822	0.057	-0.127
-254.107	309.488	-0.086	0.208
-253.092	800.000	0.147	0.562
-252.078	-53.950	0.124	0.073
-251.063	-105.673	0.236	-0.068
-250.049	27.311	0.391	0.424
-249.034	295.135	-0.194	-0.460
-248.019	4.095	0.192	-0.181
-247.005	-172.306	0.036	-0.001
-245.990	-31.675	-0.483	-0.349
-244.976	-51.894	-0.117	0.070
-243.961	52.076	-0.184	0.226
-242.946	-104.449	0.540	0.160
-241.932	-142.267	0.493	-0.062
-240.917	215.139	0.112	0.229
-239.903	342.784	0.107	-0.273
-238.888	-0.915	0.141	-0.129
-237.873	-154.564	0.358	-0.030
-236.859	800.000	-0.076	0.407
-235.844	800.000	0.128	-0.484
-234.830	42.481	-0.133	0.156
-233.815	-200.000	0.040	0.330
-232.800	800.000	0.038	0.193
-231.786	-15.288	-0.573	-0.473
-230.771	-126.988	-0.334	0.063
-229.757	38.397	0.395	-0.455
-228.742	800.000	0.031	-0.165
-227.727	267.028	0.156	0.353
-226.713	108.441	-0.043	-0.066
-225.698	-118.355	-0.239	0.054
-224.684	-160.875	-0.316	-0.021
-223.669	-31.301	0.420	-0.304
-222.655	-43.161	-0.202	0.132
-221.640	-162.868	0.319	-0.020
-220.625	-101.333	-0.565	0.177
-219.611	-167.156	-0.429	0.022
-218.596	347.708	-0.116	0.295
-217.582	182.547	-0.111	0.211
-216.567	231.918	0.159	0.338
-215.552	-200.000	0.043	-0.328
-214.538	-98.255	0.225	0.074
-213.523	46.519	0.157	0.188
-212.509	39.689	-0.170	0.197
-211.494	39.824	0.321	0.372
-210.479	32.489	-0.145	-0.162
-209.465	-82.255	-0.170	0.071
-208.450	200.367	-0.064	-0.127
-207.436	-57.177	0.304	-0.172
-206.421	233.363	0.168	-0.357
-205.406	472.830	0.156	-0.457
-204.392	-200.000	-0.012	0.080
-203.377	-17.299	-0.584	0.474
-202.363	-72.358	-0.191	0.091
-201.348	117.942	-0.096	-0.152
-200.333	-84.654	-0.509	0.206
-199.319	-28.844	-0.410	0.303
-198.304	61.444	-0.252	-0.323
-197.290	-57.043	0.166	-0.094
-196.275	-30.560	-0.425	-0.310
-195.260	166.500	0.236	0.432
-194.246	-11.158	-0.161	-0.137
-193.231	-84.515	-0.462	-0.187
-192.217	-104.712	-0.275	-0.081
-191.202	-21.475	-0.198	0.156
-190.187	800.000	0.037	-0.148
-189.173	47.376	-0.122	-0.146
-188.158	330.031	0.136	-0.339
-187.144	-118.308	-0.294	0.067
-186.129	800.000	0.035	-0.172
-185.114	800.000	0.021	-0.117
-184.100	199.969	0.097	-0.192
-183.085	-98.539	-0.253	-0.083
-182.071	492.354	0.181	-0.536
-181.056	-200.000	-0.032	-0.355
-180.042	-84.120	-0.041	-0.017
-179.027	-200.000	0.020	-0.212
-178.012	27.383	-0.041	-0.044
-176.998	-106.997	-0.588	0.166
-175.983	-86.094	0.329	-0.130
-174.969	-8.265	-0.222	0.192
-173.954	-173.937	0.151	0.006
-172.939	4.390	0.136	-0.129
-171.925	-115.012	-0.890	0.216
-170.910	-200.000	0.025	-0.287
-169.896	-32.660	-0.638	-0.456
-168.881	800.000	-0.073	-0.323
-167.866	-200.000	0.086	-0.622
-166.852	-7.915	0.272	0.236
-165.837	-200.000	-0.038	0.561
-164.823	800.000	0.017	-0.093
-163.808	-127.068	0.297	0.056
-162.793	121.640	0.163	-0.262
-161.779	20.760	-0.191	-0.199
-160.764	259.990	0.124	-0.276
-159.750	800.000	0.071	0.284
-158.735	-52.642	0.357	-0.211
-157.720	-136.505	0.201	0.030
-156.706	-200.000	-0.059	0.398
-155.691	-179.523	0.550	0.015
-154.677	308.666	-0.117	0.281
-153.662	-5.823	-0.225	-0.198
-152.647	-30.244	-0.259	-0.189
-151.633	-128.329	-0.114	0.021
-150.618	-200.000	0.037	0.220
-149.604	-79.025	0.524	0.228
-148.589	12.821	0.227	-0.225
-147.574	151.594	-0.121	0.213
-146.560	-95.034	0.084	-0.029
-145.545	-127.013	-0.484	0.091
-144.531	-92.451	-0.335	-0.121
-143.516	-142.588	-0.619	-0.077
-142.502	-128.997	-0.138	0.025
-141.487	-200.000	-0.010	0.219
-140.472	-96.031	0.104	-0.035
-139.458	-68.833	-0.192	-0.095
-138.443	-61.798	0.202	0.108
-137.429	-96.196	-0.165	-0.056
-136.414	800.000	-0.082	0.462
-135.399	-55.946	0.065	-0.037
-134.385	170.351	0.155	0.286
-133.370	68.955	0.226	0.299
-132.356	-56.014	0.089	-0.051
-131.341	-63.925	0.572	-0.300
-130.326	-40.478	0.301	-0.200
-129.312	800.000	-0.052	-0.285
-128.297	249.947	-0.069	0.150
-127.283	-43.119	-0.297	-0.193
-126.268	-101.115	0.468	0.146
-125.253	-38.241	0.356	0.242
-124.239	-162.407	0.285	-0.018
-123.224	-41.449	0.478	0.315
-122.210	-117.406	-0.361	-0.083
-121.195	-117.862	0.092	0.021
-120.180	56.740	0.102	0.128
-119.166	-200.000	0.028	-0.671
-118.151	-49.738	-0.189	0.115
-117.137	-200.000	0.027	0.235
-116.122	350.994	0.061	-0.156
-115.107	-72.400	0.082	-0.039
-114.093	38.391	0.488	-0.559
-113.078	634.792	-0.102	-0.333
-112.064	-85.955	-0.487	0.193
-111.049	-102.029	0.512	-0.158
-110.034	152.462	0.034	0.060
-109.020	23.265	-0.101	-0.106
-108.005	-200.000	-0.078	-0.525
-106.991	-5.938	-0.123	-0.108
-105.976	582.460	0.177	-0.560
-104.962	101.280	-0.026	-0.039
-103.947	-105.505	-0.505	-0.146
-102.932	-90.149	-0.547	0.203
-101.918	30.333	-0.200	-0.219
-100.903	68.374	-0.104	0.137
-99.889	-26.982	0.384	0.287
-98.874	800.000	-0.022	0.113
-97.859	-153.045	-0.299	-0.027
-96.845	-55.032	-0.442	-0.255
-95.830	504.913	0.148	-0.441
-94.816	-200.000	0.003	-0.077
-93.801	-181.316	0.598	0.015
-92.786	-40.765	-0.138	-0.092
-91.772	-200.000	0.045	-0.325
-90.757	800.000	0.043	0.185
-89.743	-200.000	-0.056	-0.479
-88.728	101.151	-0.339	0.507
-87.713	-200.000	0.010	-0.214
-86.699	206.814	0.163	0.328
-85.684	-137.202	0.161	0.023
-84.670	-96.889	-0.436	0.146
-83.655	-194.255	-0.034	0.000
-82.640	20.524	-0.291	0.302
-81.626	229.298	0.124	-0.261
-80.611	793.567	0.112	0.398
-79.597	-127.268	-0.040	-0.007
-78.582	332.661	-0.036	0.090
-77.567	-47.842	0.382	0.237
-76.553	-71.696	-0.309	0.147
-75.538	-157.435	0.556	-0.042
-74.524	800.000	-0.058	-0.257
-73.509	-40.639	-0.377	-0.250
-72.494	800.000	0.103	-0.391
-71.480	-200.000	-0.035	-0.231
-70.465	368.710	-0.128	0.334
-69.451	163.345	0.191	-0.344
-68.436	-59.429	0.219	-0.120
-67.422	-200.000	-0.013	0.116
-66.407	-11.247	0.228	-0.192
-65.392	-139.401	0.159	0.022
-64.378	41.752	0.107	-0.124
-63.363	-143.035	0.160	0.020
-62.349	-107.213	0.170	0.048
-61.334	57.653	-1.707	-2.141
-60.319	-1.933	1.509	1.359
-59.305	266.614	-3.224	-7.246
-58.290	28.460	3.608	3.909
-57.276	423.659	3.775	10.447
-56.261	-200.000	20.216	285.343
-55.246	383.868	1262.236	3345.025
-54.232	55.660	2840.456	3528.038
-53.217	54.306	2694.770	3326.032
-52.203	37.946	2422.808	2760.058
-51.188	33.697	2080.205	2317.633
-50.173	29.759	1959.972	2137.929
-49.159	28.614	1948.015	2111.567
-48.144	28.244	1944.996	2103.948
-47.130	28.222	1942.443	2100.849
-46.115	28.265	1940.357	2098.997
-45.100	28.220	1939.329	2097.288
-44.086	28.097	1938.180	2094.550
-43.071	28.154	1936.857	2093.686
-42.057	28.066	1935.627	2091.265
-41.042	28.108	1933.830	2089.723
-40.027	28.084	1931.972	2087.356
-39.013	27.960	1930.104	2083.830
-37.998	28.005	1928.652	2082.698
-36.984	27.957	1928.010	2081.369
-35.969	28.065	1925.743	2080.075
-34.954	28.023	1924.584	2078.265
-33.940	27.987	1923.895	2077.028
-32.925	28.028	1922.142	2075.518
-31.911	27.935	1921.672	2073.873
-30.896	28.031	1920.383	2073.493
-29.881	27.912	1918.989	2070.547
-28.867	28.004	1917.091	2069.458
-27.852	28.007	1915.989	2068.231
-26.838	27.894	1914.910	2065.691
-25.823	27.806	1913.177	2062.747
-24.809	27.791	1912.056	2061.280
-23.794	27.869	1910.204	2060.086
-22.779	27.879	1908.563	2058.344
-21.765	27.866	1907.801	2057.301
-20.750	27.851	1906.764	2055.924
-19.736	27.725	1906.728	2054.377
-18.721	27.777	1904.787	2052.792
-17.706	27.832	1903.287	2051.722
-16.692	27.847	1901.418	2049.797
-15.677	27.758	1901.155	2048.429
-14.663	27.755	1899.919	2046.977
-13.648	27.722	1898.430	2044.927
-12.633	27.668	1897.729	2043.481
-11.619	27.745	1895.697	2042.069
-10.604	27.724	1894.113	2040.047
-9.590	27.661	1893.709	2038.829
-8.575	27.698	1892.975	2038.367
-7.560	27.682	1891.769	2036.813
-6.546	27.694	1889.986	2034.941
-5.531	27.747	1888.497	2033.854
-4.517	27.575	1888.134	2031.454
-3.502	27.581	1887.611	2030.884
-2.487	27.746	1885.561	2030.438
-1.473	27.766	1882.062	2026.810
-0.458	27.184	1862.684	1999.438
0.556	22.651	2003.318	2084.095
1.571	20.411	2210.698	2270.175
2.586	21.299	2251.630	2323.806
3.600	21.332	2254.088	2326.504
4.615	21.315	2254.486	2326.413
5.629	21.177	2252.637	2322.376
6.644	21.207	2249.183	2318.939
7.659	21.391	2246.942	2318.807
8.673	21.389	2246.152	2317.687
9.688	21.181	2253.658	2322.365
10.702	19.727	2331.702	2382.379
11.717	17.575	2395.441	2416.553
12.731	8.422	2373.160	2263.938
13.746	1.216	2354.682	2143.933
14.761	0.170	2351.355	2125.813
15.775	0.163	2349.211	2123.521
16.790	0.127	2346.608	2120.409
17.804	0.076	2345.168	2118.129
18.819	0.127	2344.876	2118.328
19.834	0.159	2342.127	2116.050
20.848	0.037	2341.782	2113.763
21.863	0.028	2340.222	2111.968
22.877	-0.010	2337.927	2109.104
23.892	0.053	2335.539	2107.587
24.907	0.113	2332.686	2105.610
25.921	0.110	2330.746	2103.564
26.936	0.012	2328.881	2100.248
27.950	0.043	2326.114	2097.943
28.965	-0.025	2324.241	2095.047
29.980	0.068	2323.280	2095.229
30.994	0.111	2321.342	2093.837
32.009	4.142	2332.857	2160.541
33.023	14.045	2362.250	2327.478
34.038	18.280	2369.861	2394.367
35.053	18.206	2366.462	2389.605
36.067	18.099	2362.789	2384.115
37.082	18.053	2361.334	2381.714
38.096	18.224	2359.687	2382.166
39.111	18.456	2357.528	2382.948
40.126	18.664	2356.214	2384.236
41.140	18.786	2354.627	2384.050
42.155	18.796	2353.713	2382.977
43.169	18.822	2350.414	2379.705
44.184	18.572	2347.444	2372.943
45.199	18.485	2345.752	2369.737
46.213	18.624	2345.371	2371.001
47.228	18.710	2345.032	2371.564
48.242	18.842	2342.011	2370.056
49.257	18.910	2341.113	2369.806
50.271	18.972	2338.782	2368.030
51.286	18.641	2336.190	2360.538
52.301	18.372	2333.959	2354.289
53.315	19.390	2336.410	2370.547
54.330	22.737	2346.208	2426.564
55.344	24.837	2348.321	2457.473
56.359	25.006	2345.547	2456.604
57.374	25.128	2344.940	2457.360
58.388	25.176	2341.685	2454.311
59.403	24.982	2337.093	2446.540
60.417	24.521	2333.982	2436.669
61.432	24.629	2331.943	2435.732
62.447	24.738	2330.735	2435.676
63.461	25.026	2329.009	2437.522
64.476	25.144	2327.303	2437.049
65.490	24.827	2324.643	2429.646
66.505	24.081	2320.226	2414.579
67.520	21.643	2311.479	2372.031
68.534	19.132	2302.923	2328.879
69.549	18.377	2297.391	2312.762
70.563	18.374	2294.827	2309.856
71.578	18.412	2292.300	2307.546
72.593	18.394	2290.937	2305.654
73.607	18.451	2291.032	2306.252
74.622	18.515	2288.723	2304.512
75.636	18.361	2285.325	2298.734
76.651	18.230	2283.424	2294.789
77.666	18.225	2281.577	2292.592
78.680	18.205	2278.867	2289.316
79.695	18.052	2275.605	2283.717
80.709	17.951	2275.323	2281.801
81.724	17.894	2273.276	2278.717
82.739	17.932	2270.247	2275.907
83.753	18.025	2268.155	2274.789
84.768	18.038	2266.882	2273.419
85.782	17.870	2265.938	2269.945
86.797	17.791	2263.510	2266.195
87.812	17.881	2261.038	2264.643
88.826	17.919	2260.637	2264.484
89.841	17.981	2258.260	2262.657
90.855	17.993	2255.298	2259.576
91.870	18.079	2253.742	2258.890
92.884	18.103	2251.711	2256.893
93.899	18.213	2250.891	2257.264
94.914	18.875	2254.864	2269.772
95.928	21.809	2262.517	2316.218
96.943	22.737	2261.328	2327.029
97.957	20.111	2249.458	2279.868
98.972	18.340	2242.841	2249.525
99.987	18.173	2239.377	2243.577
101.001	18.092	2236.666	2239.522
102.016	17.931	2235.398	2235.875
103.030	17.889	2232.458	2232.115
104.045	17.896	2230.501	2229.982
105.060	17.867	2228.971	2227.793
106.074	17.885	2227.139	2225.933
107.089	18.085	2225.381	2226.532
108.103	17.944	2224.464	2223.500
109.118	18.135	2222.503	2223.776
110.133	18.230	2221.420	2223.673
111.147	18.137	2218.346	2219.105
112.162	18.207	2217.197	2218.607
113.176	18.183	2216.766	2217.602
114.191	18.320	2213.731	2216.079
115.206	18.347	2212.246	2214.679
116.220	18.313	2210.273	2212.002
117.235	18.241	2208.609	2209.128
118.249	18.329	2206.583	2207.979
119.264	18.376	2205.314	2207.055
120.279	18.388	2203.414	2205.041
121.293	18.283	2201.669	2201.673
122.308	18.319	2200.411	2200.617
123.322	18.189	2198.916	2197.181
124.337	18.686	2200.474	2204.900
125.352	21.730	2208.951	2252.523
126.366	22.628	2207.434	2262.289
127.381	19.746	2195.540	2212.814
128.395	18.403	2190.440	2190.162
129.410	18.166	2188.070	2184.485
130.424	18.026	2185.571	2179.925
131.439	18.210	2184.180	2180.639
132.454	18.301	2183.024	2180.390
133.468	18.473	2180.201	2179.509
134.483	18.568	2179.441	2179.697
135.497	18.513	2177.909	2177.205
136.512	18.455	2175.989	2174.283
137.527	18.334	2173.795	2170.289
138.541	18.140	2171.493	2165.268
139.556	18.064	2171.293	2163.837
140.570	18.049	2169.756	2161.855
141.585	18.017	2166.895	2158.337
142.600	18.025	2165.259	2156.562
143.614	17.968	2163.307	2153.627
144.629	17.783	2162.704	2150.424
145.643	17.720	2160.788	2147.473
146.658	17.797	2158.681	2146.095
147.673	17.676	2156.110	2141.745
148.687	17.771	2155.538	2142.122
149.702	17.845	2154.658	2141.925
150.716	17.965	2154.598	2143.123
151.731	18.037	2152.800	2141.992
152.746	18.119	2151.713	2141.677
153.760	18.952	2154.715	2154.906
154.775	21.981	2163.125	2201.302
155.789	23.047	2161.669	2212.983
156.804	20.128	2150.142	2164.338
157.819	18.272	2142.136	2132.795
158.833	17.862	2138.969	2124.256
159.848	17.944	2136.387	2122.461
160.862	17.964	2136.181	2122.244
161.877	18.125	2135.153	2122.986
162.892	18.241	2134.178	2123.202
163.906	18.222	2132.287	2120.838
164.921	18.213	2130.143	2118.333
165.935	18.160	2127.787	2115.079
166.950	18.203	2127.317	2114.897
167.964	18.281	2125.082	2113.388
168.979	18.010	2122.330	2107.036
169.994	17.984	2120.692	2104.834
171.008	17.911	2118.899	2101.909
172.023	17.869	2117.584	2099.822
173.037	17.977	2117.365	2100.694
174.052	18.170	2115.999	2101.470
175.067	18.163	2114.978	2100.114
176.081	18.203	2112.438	2097.837
177.096	18.260	2111.942	2097.801
178.110	18.276	2110.488	2096.298
179.125	18.354	2109.062	2095.595
180.140	18.382	2107.568	2094.204
181.154	18.221	2106.364	2090.779
182.169	18.397	2106.242	2092.562
183.183	19.451	2108.550	2107.552
184.198	22.682	2117.414	2155.932
185.213	23.353	2113.345	2159.756
186.227	20.065	2103.415	2109.182
187.242	18.680	2098.427	2087.012
188.256	18.384	2095.692	2080.427
189.271	18.217	2093.389	2075.853
190.286	18.101	2092.077	2072.895
191.300	18.217	2089.806	2071.810
192.315	18.154	2088.694	2069.687
193.329	18.346	2088.337	2071.430
194.344	18.656	2087.401	2074.021
195.359	18.792	2085.860	2073.883
196.373	18.433	2083.521	2066.956
197.388	18.183	2080.557	2060.746
198.402	18.170	2078.199	2058.004
199.417	18.013	2076.016	2053.705
200.432	18.104	2074.189	2052.745
201.446	18.030	2072.517	2049.956
202.461	17.995	2071.160	2047.950
203.475	17.908	2069.443	2044.960
204.490	17.851	2067.659	2042.267
205.504	17.848	2064.739	2039.100
206.519	17.947	2063.197	2038.518
207.534	17.897	2061.425	2035.920
208.548	17.902	2061.053	2035.369
209.563	18.052	2059.962	2035.843
210.577	18.232	2059.160	2036.968
211.592	18.348	2058.606	2037.561
212.607	19.784	2063.959	2059.823
213.621	23.121	2071.780	2107.411
214.636	22.778	2066.033	2097.220
215.650	19.478	2055.265	2046.761
216.665	18.361	2050.636	2028.617
217.680	18.338	2048.518	2026.005
218.694	18.131	2046.402	2021.211
219.709	17.994	2044.888	2017.840
220.723	17.920	2044.681	2016.515
221.738	18.053	2042.976	2016.170
222.753	18.322	2039.977	2016.151
223.767	18.321	2038.480	2014.423
224.782	18.146	2037.388	2011.033
225.796	18.259	2035.404	2010.168
226.811	18.252	2034.261	2008.716
227.826	18.205	2033.000	2006.682
228.840	18.108	2031.643	2003.954
229.855	18.168	2029.924	2002.722
230.869	18.211	2028.723	2001.805
231.884	18.178	2027.071	1999.549
232.899	18.241	2026.437	1999.424
233.913	18.328	2025.306	1999.085
234.928	18.405	2023.354	1997.823
235.942	18.223	2021.894	1994.019
236.957	18.235	2020.677	1992.716
237.972	18.318	2019.642	1992.431
238.986	18.188	2018.188	1989.229
240.001	18.227	2015.880	1987.177
241.015	18.345	2015.357	1987.804
242.030	19.308	2017.789	2001.209
243.045	22.083	2025.931	2041.506
244.059	22.736	2021.945	2044.855
245.074	19.641	2011.756	1998.375
246.088	18.525	2007.570	1981.024
247.103	18.606	2005.792	1979.968
248.117	18.676	2004.044	1978.823
249.132	18.415	2001.713	1973.264
250.147	18.398	1999.681	1970.828
251.161	18.379	1998.523	1969.230
252.176	18.664	1997.771	1971.549
253.190	18.777	1996.617	1971.470
254.205	18.940	1994.916	1971.441
255.220	18.961	1993.523	1970.065
256.234	18.870	1991.919	1967.199
257.249	18.624	1989.921	1962.159
258.263	18.288	1988.734	1956.894
259.278	18.239	1987.328	1954.721
260.293	18.108	1984.942	1950.633
261.307	17.974	1982.629	1946.593
262.322	17.964	1981.189	1944.831
263.336	17.853	1979.518	1941.690
264.351	17.821	1977.595	1939.204
265.366	17.735	1976.507	1936.922
266.380	17.761	1975.135	1935.645
267.395	17.867	1974.211	1935.714
268.409	17.940	1972.467	1934.604
269.424	17.972	1971.578	1933.865
270.439	17.992	1971.233	1933.525
271.453	19.192	1974.005	1949.677
272.468	22.508	1980.939	1994.076
273.482	22.839	1976.941	1993.577
274.497	19.585	1966.351	1945.867
275.512	18.110	1961.436	1924.096
276.526	18.040	1958.857	1920.544
277.541	18.066	1956.616	1918.410
278.555	17.989	1954.925	1915.653
279.570	17.700	1953.378	1910.659
280.585	17.831	1952.552	1911.094
281.599	17.956	1951.047	1910.792
282.614	18.235	1951.006	1913.661
283.628	18.578	1950.765	1917.052
284.643	18.609	1949.878	1916.305
285.657	18.869	1948.248	1917.381
286.672	18.994	1947.497	1917.820
287.687	19.061	1946.637	1917.492
288.701	19.188	1945.972	1918.031
289.716	19.104	1943.398	1914.324
290.730	19.200	1941.809	1913.601
291.745	19.169	1940.511	1911.748
292.760	19.284	1939.454	1911.762
293.774	19.194	1939.876	1910.940
294.789	18.935	1936.699	1904.697
295.803	18.529	1933.131	1896.450
296.818	18.298	1932.053	1892.600
297.833	18.425	1931.100	1892.855
298.847	18.379	1929.268	1890.323
299.862	18.261	1928.782	1888.306
300.876	19.253	1930.692	1900.959
301.891	22.528	1938.088	1944.405
302.906	23.140	1935.551	1948.404
303.920	19.856	1925.254	1901.590
304.935	18.603	1920.708	1883.049
305.949	18.332	1919.078	1878.237
306.964	18.287	1917.527	1876.005
307.979	18.447	1915.680	1875.728
308.993	18.880	1914.455	1879.059
310.008	19.084	1914.426	1881.048
311.022	19.295	1913.085	1881.825
312.037	19.075	1910.589	1876.733
313.052	18.963	1908.449	1873.177
314.066	19.043	1907.924	1873.313
315.081	19.133	1906.482	1872.664
316.095	18.967	1904.928	1869.099
317.110	18.892	1902.183	1865.363
318.125	18.392	1900.746	1858.281
319.139	18.198	1900.220	1855.424
320.154	18.402	1898.240	1855.492
321.168	18.422	1896.127	1853.419
322.183	18.175	1895.277	1849.684
323.197	18.067	1893.458	1846.516
324.212	17.941	1891.296	1842.823
325.227	17.766	1889.605	1839.060
326.241	17.951	1886.937	1838.241
327.256	17.917	1886.253	1836.984
328.270	18.007	1885.119	1836.633
329.285	17.986	1884.726	1835.808
330.300	19.104	1890.203	1853.028
331.314	22.787	1896.723	1899.103
332.329	22.806	1891.841	1894.195
333.343	19.498	1881.256	1847.831
334.358	18.171	1877.241	1829.409
335.373	18.020	1874.917	1825.307
336.387	17.895	1873.099	1821.972
337.402	17.966	1871.121	1820.595
338.416	17.847	1870.357	1818.358
339.431	18.083	1869.001	1819.345
340.446	18.051	1868.117	1817.922
341.460	18.298	1866.750	1819.020
342.475	18.515	1866.251	1820.629
343.489	18.606	1865.112	1820.275
344.504	18.549	1863.747	1818.109
345.519	18.720	1862.937	1818.922
346.533	18.991	1861.759	1820.445
347.548	19.049	1861.745	1820.826
348.562	19.521	1860.897	1824.792
349.577	20.370	1862.700	1835.373
350.592	19.956	1860.171	1828.267
351.606	19.359	1857.191	1818.788
352.621	19.218	1854.938	1814.875
353.635	18.892	1853.228	1809.536
354.650	18.688	1850.648	1804.648
355.665	18.506	1848.419	1800.330
356.679	18.345	1847.195	1797.226
357.694	18.426	1845.471	1796.186
358.708	18.328	1844.051	1793.564
359.723	19.631	1849.171	1812.066
360.738	23.081	1855.737	1854.728
361.752	22.630	1850.443	1844.474
362.767	19.485	1841.107	1801.988
363.781	18.515	1836.767	1787.362
364.796	18.389	1835.372	1784.475
365.810	18.240	1833.316	1780.705
366.825	18.268	1832.516	1780.002
367.840	18.600	1833.686	1784.401
368.854	18.947	1832.611	1786.762
369.869	18.867	1830.512	1783.672
370.883	18.788	1829.321	1781.474
371.898	19.148	1829.713	1785.398
372.913	19.604	1829.621	1789.837
373.927	19.945	1826.976	1790.585
374.942	19.300	1824.412	1781.161
375.956	18.959	1822.671	1775.712
376.971	18.698	1819.916	1770.109
377.986	18.408	1818.261	1765.285
379.000	18.313	1816.964	1762.834
380.015	18.460	1815.081	1762.313
381.029	18.210	1813.514	1757.994
382.044	17.934	1812.356	1753.819
383.059	18.048	1810.936	1753.404
384.073	18.023	1808.919	1750.989
385.088	18.019	1807.923	1749.770
386.102	18.067	1806.733	1748.899
387.117	18.192	1804.884	1748.189
388.132	18.138	1804.690	1747.231
389.146	19.132	1808.819	1761.247
390.161	22.655	1815.131	1803.472
391.175	22.645	1807.669	1795.742
392.190	19.331	1798.558	1752.665
393.205	18.518	1795.100	1740.790
394.219	18.299	1793.425	1736.722
395.234	18.135	1793.207	1734.629
396.248	18.285	1790.250	1733.093
397.263	18.166	1787.811	1729.317
398.278	18.112	1786.172	1726.974
399.292	18.038	1785.549	1725.413
400.307	18.090	1785.177	1725.374
401.321	18.259	1784.169	1725.913
402.336	18.296	1782.972	1724.913
403.350	18.337	1781.599	1723.801
404.365	18.488	1780.104	1723.675
405.380	18.662	1779.757	1724.891
406.394	19.096	1779.432	1728.751
407.409	19.221	1778.362	1728.759
408.423	19.393	1776.966	1728.931
409.438	19.261	1775.237	1725.716
410.453	19.068	1774.493	1722.842
411.467	19.066	1772.879	1721.045
412.482	18.739	1769.982	1714.751
413.496	18.283	1768.512	1708.545
414.511	18.260	1766.683	1706.341
415.526	18.311	1764.585	1704.623
416.540	18.125	1762.891	1700.919
417.555	18.205	1762.475	1701.115
418.569	18.389	1763.110	1703.363
419.584	18.439	1762.481	1703.055
420.599	18.464	1761.933	1702.574
421.613	18.360	1760.454	1699.902
422.628	18.302	1758.668	1697.391
423.642	18.280	1756.515	1694.893
424.657	18.235	1755.389	1693.154
425.672	18.385	1754.264	1693.364
426.686	18.369	1753.089	1691.863
427.701	18.340	1751.742	1690.077
428.715	18.384	1750.052	1688.674
429.730	18.690	1749.700	1691.165
430.745	18.581	1748.557	1688.783
431.759	18.613	1747.245	1687.628
432.774	18.993	1747.783	1691.703
433.788	19.606	1748.194	1697.960
434.803	19.811	1747.680	1699.282
435.818	19.677	1747.682	1697.754
436.832	19.631	1746.191	1695.644
437.847	18.862	1738.867	1680.775
438.861	10.868	1716.864	1581.428
439.876	1.999	1700.856	1480.276
440.890	0.307	1697.689	1460.866
441.905	0.114	1696.680	1457.942
442.920	0.156	1695.039	1456.768
443.934	0.163	1693.431	1455.281
444.949	0.304	1691.611	1454.914
445.963	0.043	1691.900	1452.453
446.978	0.189	1691.178	1453.074
447.993	0.183	1689.471	1451.375
449.007	0.184	1687.348	1449.385
450.022	0.201	1684.751	1447.145
451.036	0.115	1684.059	1445.550
452.051	1.005	1688.156	1457.504
453.066	9.280	1706.992	1554.271
454.080	18.045	1721.420	1652.791
455.095	20.360	1726.107	1679.629
456.109	21.642	1728.255	1693.994
457.124	22.019	1727.222	1696.438
458.139	22.266	1726.434	1697.856
459.153	22.444	1725.956	1698.905
460.168	22.416	1723.260	1695.782
461.182	22.209	1721.719	1692.059
462.197	22.112	1719.334	1688.572
463.212	22.001	1717.260	1685.269
464.226	21.941	1716.848	1684.084
465.241	22.193	1717.401	1686.856
466.255	22.399	1716.385	1687.636
467.270	22.463	1714.448	1686.144
468.285	22.141	1712.089	1680.527
469.299	22.004	1710.403	1677.362
470.314	22.370	1708.907	1679.203
471.328	22.222	1708.196	1676.880
472.343	22.281	1707.472	1676.539
473.358	22.341	1706.770	1676.225
474.372	22.351	1705.052	1674.425
475.387	22.224	1703.676	1671.669
476.401	22.029	1702.023	1667.980
477.416	21.974	1699.916	1665.191
478.430	22.200	1699.850	1667.083
479.445	21.948	1698.023	1662.696
480.460	21.891	1695.484	1659.470
481.474	21.944	1695.443	1659.731
482.489	22.340	1694.573	1662.439
483.503	22.799	1693.404	1665.448
484.518	22.679	1693.684	1664.386
485.533	22.737	1691.152	1662.249
486.547	22.611	1690.246	1659.964
487.562	23.054	1689.717	1663.438
488.576	22.923	1688.398	1660.704
489.591	22.932	1686.220	1658.443
490.606	22.692	1684.762	1654.555
491.620	22.827	1682.886	1653.779
492.635	23.071	1681.925	1654.935
493.649	23.227	1680.993	1655.290
494.664	22.587	1678.156	1646.290
495.679	22.005	1676.072	1638.594
496.693	22.064	1675.646	1638.529
497.708	22.615	1674.772	1642.638
498.722	22.985	1674.879	1646.018
499.737	23.091	1673.256	1645.217
500.752	22.787	1671.590	1640.540
501.766	22.546	1669.515	1636.057
502.781	22.702	1667.903	1635.741
503.795	22.860	1667.004	1636.131
504.810	22.736	1666.081	1633.870
505.825	22.946	1665.655	1635.214
506.839	22.907	1664.051	1633.083
507.854	22.899	1663.223	1632.002
508.868	22.898	1662.054	1630.647
509.883	22.805	1660.682	1628.247
510.898	22.983	1660.083	1629.108
511.912	22.902	1657.765	1625.895
512.927	22.599	1655.869	1621.037
513.941	22.812	1653.569	1620.558
514.956	22.507	1652.683	1616.682
515.971	22.650	1651.253	1616.404
516.985	22.594	1650.968	1615.420
518.000	22.727	1651.115	1616.597
519.014	23.096	1650.898	1619.588
520.029	23.265	1648.481	1618.578
521.043	23.249	1646.764	1616.549
522.058	23.118	1644.967	1613.390
523.073	23.180	1645.122	1613.917
524.087	23.707	1644.603	1618.040
525.102	23.533	1643.511	1615.179
526.116	22.836	1641.332	1606.470
527.131	23.080	1639.630	1606.844
528.146	23.381	1640.257	1610.018
529.160	23.563	1639.126	1610.374
530.175	23.550	1637.972	1608.929
531.189	23.830	1637.148	1610.482
532.204	23.832	1634.891	1608.085
533.219	23.378	1632.914	1601.819
534.233	22.799	1632.384	1595.848
535.248	22.977	1632.065	1596.966
536.262	23.750	1632.091	1603.818
537.277	23.676	1630.927	1601.807
538.292	23.277	1627.999	1595.130
539.306	23.315	1625.838	1593.168
540.321	23.341	1624.374	1591.772
541.335	23.127	1623.607	1588.902
542.350	23.436	1621.846	1589.773
543.365	23.798	1620.708	1591.725
544.379	23.805	1620.169	1591.073
545.394	23.837	1618.827	1589.847
546.408	23.369	1615.564	1582.256
547.423	22.759	1613.745	1574.814
548.438	22.770	1613.338	1574.327
549.452	23.060	1613.650	1577.044
550.467	23.325	1612.072	1577.688
551.481	23.360	1610.999	1576.757
552.496	23.706	1611.450	1580.102
553.511	24.036	1610.356	1581.797
554.525	23.936	1609.614	1579.985
555.540	24.063	1608.795	1580.124
556.554	24.123	1607.623	1579.318
557.569	24.105	1605.260	1576.650
558.583	23.780	1603.124	1571.474
559.598	23.653	1602.301	1569.348
560.613	23.808	1601.851	1570.092
561.627	23.763	1600.945	1568.624
562.642	24.036	1599.351	1569.294
563.656	24.277	1598.465	1570.365
564.671	24.301	1596.621	1568.577
565.686	24.116	1595.730	1565.885
566.700	23.894	1593.973	1562.014
567.715	23.606	1592.171	1557.515
568.729	23.511	1589.644	1554.025
569.744	23.342	1587.300	1550.055
570.759	23.345	1587.343	1549.946
571.773	23.575	1586.830	1551.277
572.788	23.741	1585.998	1551.732
573.802	23.904	1584.244	1551.267
574.817	23.990	1583.689	1551.288
575.832	24.158	1583.321	1552.211
576.846	24.337	1581.408	1551.719
577.861	24.107	1579.826	1547.968
578.875	24.205	1579.556	1548.379
579.890	24.432	1579.402	1550.021
580.905	24.562	1578.269	1549.854
581.919	24.670	1577.384	1549.746
582.934	24.693	1577.007	1549.386
583.948	24.763	1575.854	1548.682
584.963	24.548	1574.373	1545.167
585.978	24.071	1572.317	1538.826
586.992	24.355	1571.376	1540.184
588.007	24.716	1570.959	1542.725
589.021	23.927	1567.786	1532.592
590.036	23.270	1566.424	1525.385
591.051	23.769	1566.235	1529.340
592.065	24.362	1565.055	1533.133
593.080	24.592	1563.870	1533.772
594.094	24.550	1562.278	1531.665
595.109	23.883	1559.752	1523.260
596.123	23.563	1558.121	1518.737
597.138	24.051	1558.105	1522.738
598.153	24.283	1556.692	1523.166
599.167	24.315	1554.790	1521.396
600.182	24.374	1554.530	1521.466
601.196	24.539	1553.862	1522.043
602.211	24.334	1553.311	1519.566
603.226	24.659	1552.574	1521.440
604.240	24.835	1550.970	1521.193
605.255	25.103	1550.191	1522.534
606.269	25.065	1548.831	1520.695
607.284	24.841	1547.015	1516.820
608.299	24.933	1545.473	1515.912
609.313	24.496	1544.693	1511.250
610.328	24.582	1543.699	1510.825
611.342	24.809	1542.225	1511.124
612.357	24.951	1541.371	1511.316
613.372	25.029	1540.331	1510.771
614.386	24.795	1539.489	1507.789
615.401	24.929	1539.081	1508.338
616.415	24.948	1538.535	1507.781
617.430	25.038	1536.986	1506.845
618.445	25.253	1535.491	1507.015
619.459	25.043	1534.117	1503.715
620.474	24.578	1532.638	1498.167
621.488	23.953	1530.133	1490.283
622.503	23.574	1529.189	1485.988
623.518	24.276	1528.766	1491.310
624.532	24.895	1528.911	1496.476
625.547	24.817	1528.866	1495.597
626.561	25.128	1528.452	1497.624
627.576	25.442	1527.066	1498.715
628.591	24.664	1524.663	1489.661
629.605	24.550	1522.062	1485.996
630.620	24.307	1520.635	1482.387
631.634	23.857	1519.332	1477.187
632.649	24.106	1519.055	1478.820
633.663	24.596	1518.112	1481.809
634.678	25.008	1518.526	1485.472
635.693	25.452	1516.305	1486.812
636.707	25.490	1515.471	1486.132
637.722	25.742	1514.530	1487.126
638.736	25.742	1513.484	1485.920
639.751	25.512	1513.102	1483.464
640.766	25.586	1510.919	1481.755
641.780	25.613	1509.288	1480.205
642.795	25.517	1508.708	1478.662
643.809	25.549	1508.101	1478.153
644.824	25.463	1507.655	1476.831
645.839	25.281	1506.139	1473.671
646.853	25.528	1504.384	1473.806
647.868	25.281	1503.354	1470.590
648.882	25.100	1501.792	1467.393
649.897	25.217	1500.670	1467.082
650.912	25.177	1499.425	1465.361
651.926	25.447	1497.836	1465.852
652.941	25.021	1495.844	1460.237
653.955	24.521	1492.767	1452.973
654.970	23.782	1490.600	1444.647
655.985	23.850	1489.933	1444.390
656.999	24.044	1488.906	1444.803
658.014	24.468	1488.028	1447.232
659.028	24.992	1487.992	1451.294
660.043	25.087	1488.515	1452.402
661.058	25.429	1486.738	1453.276
662.072	25.588	1485.724	1453.405
663.087	25.310	1484.858	1450.126
664.101	25.198	1484.554	1448.745
665.116	25.299	1483.609	1448.472
666.131	25.542	1482.190	1448.878
667.145	25.476	1481.405	1447.400
668.160	25.740	1480.985	1448.954
669.174	25.927	1479.443	1448.781
670.189	25.914	1477.811	1446.907
671.204	25.460	1476.855	1442.141
672.218	25.598	1476.191	1442.430
673.233	25.775	1475.462	1442.972
674.247	26.154	1474.489	1444.897
675.262	26.260	1473.277	1444.386
676.276	26.181	1472.239	1442.558
677.291	25.824	1470.893	1438.202
678.306	25.677	1469.077	1435.080
679.320	25.545	1468.518	1433.300
680.335	25.719	1468.270	1434.280
681.349	25.951	1467.471	1435.192
682.364	26.023	1466.548	1434.687
683.379	25.904	1464.466	1431.529
684.393	25.931	1462.823	1429.966
685.408	25.848	1462.448	1428.769
686.422	25.859	1460.792	1427.072
687.437	25.794	1461.180	1426.756
688.452	26.042	1460.558	1427.957
689.466	26.069	1457.773	1425.273
690.481	25.872	1455.847	1421.660
691.495	25.410	1455.130	1417.129
692.510	24.742	1453.196	1409.782
693.525	24.163	1451.241	1403.137
694.539	24.661	1451.464	1407.126
695.554	25.627	1451.855	1414.978
696.568	25.895	1451.600	1416.678
697.583	26.057	1450.803	1417.011
698.598	26.077	1450.050	1416.261
699.612	26.296	1448.298	1416.105
700.627	26.283	1447.027	1414.592
701.641	26.181	1445.618	1412.243
702.656	26.178	1444.908	1411.358
703.671	26.491	1444.772	1413.512
704.685	26.587	1443.815	1413.159
705.700	26.424	1442.305	1410.233
706.714	26.185	1439.606	1405.560
707.729	25.788	1438.105	1400.818
708.744	25.873	1436.920	1400.162
709.758	25.722	1435.475	1397.407
710.773	25.320	1433.009	1391.707
711.787	24.990	1432.445	1388.422
712.802	25.120	1432.121	1388.955
713.816	25.559	1432.469	1392.548
714.831	25.937	1430.747	1393.645
715.846	26.292	1429.565	1395.078
716.860	26.184	1428.848	1393.375
717.875	26.222	1427.810	1392.493
718.889	26.069	1426.684	1390.042
719.904	26.161	1426.059	1389.975
720.919	26.202	1425.348	1389.439
721.933	26.238	1424.928	1389.137
722.948	26.390	1424.255	1389.487
723.962	26.285	1422.654	1386.952
724.977	26.543	1421.178	1387.332
725.992	26.729	1420.084	1387.535
727.006	26.423	1418.889	1383.842
728.021	26.598	1417.374	1383.550
729.035	26.806	1416.001	1383.633
730.050	26.632	1415.453	1381.600
731.065	26.403	1415.063	1379.297
732.079	26.714	1414.042	1380.524
733.094	26.558	1411.707	1376.884
734.108	26.513	1410.101	1374.806
735.123	26.387	1408.918	1372.533
736.138	26.363	1408.301	1371.582
737.152	26.489	1408.036	1372.117
738.167	26.713	1407.139	1372.786
739.181	26.853	1405.617	1372.203
740.196	26.765	1405.063	1370.832
741.211	26.666	1404.249	1369.121
742.225	26.537	1403.411	1367.161
743.240	26.564	1401.731	1365.561
744.254	26.577	1400.082	1363.894
745.269	26.539	1399.458	1362.832
746.284	26.399	1398.389	1360.566
747.298	26.162	1397.208	1357.469
748.313	25.905	1395.560	1353.766
749.327	25.561	1392.621	1348.155
750.342	24.988	1391.211	1342.319
751.356	24.686	1389.307	1338.047
752.371	24.860	1389.413	1339.297
753.386	25.775	1390.435	1347.007
754.400	26.406	1390.454	1351.605
755.415	26.787	1390.158	1354.021
756.429	27.025	1388.264	1353.797
757.444	26.710	1387.320	1350.355
758.459	26.773	1386.710	1350.072
759.473	26.962	1385.420	1350.060
760.488	26.836	1384.026	1347.603
761.502	26.854	1382.481	1346.069
762.517	26.833	1380.850	1344.167
763.532	26.741	1379.529	1342.036
764.546	26.387	1377.938	1337.698
765.561	25.760	1375.904	1330.902
766.575	24.870	1374.218	1322.504
767.590	24.889	1372.926	1321.248
768.605	25.585	1373.208	1326.523
769.619	26.212	1372.671	1330.485
770.634	26.400	1372.489	1331.544
771.648	26.756	1371.932	1333.477
772.663	26.881	1371.178	1333.505
773.678	26.854	1370.908	1332.884
774.692	26.842	1370.456	1332.202
775.707	26.987	1369.806	1332.477
776.721	27.028	1368.733	1331.579
777.736	27.161	1366.683	1330.399
778.751	26.969	1367.157	1329.289
779.765	27.065	1365.496	1328.221
780.780	26.946	1364.754	1326.467
781.794	26.894	1363.229	1324.445
782.809	26.849	1361.816	1322.584
783.824	26.700	1360.026	1319.598
784.838	26.095	1357.577	1312.640
785.853	25.346	1356.462	1305.928
786.867	25.712	1355.903	1307.912
787.882	25.960	1356.533	1310.171
788.897	26.227	1356.253	1311.692
789.911	26.409	1355.246	1311.894
790.926	26.561	1353.750	1311.395
791.940	26.689	1353.194	1311.628
792.955	26.871	1351.824	1311.467
793.969	26.936	1350.451	1310.452
794.984	26.841	1350.129	1309.289
795.999	26.922	1349.416	1309.029
797.013	27.286	1347.042	1309.208
798.028	27.038	1346.271	1306.502
799.042	27.159	1345.092	1306.082
800.057	27.150	1344.713	1305.489
801.072	27.213	1343.124	1304.247
802.086	27.183	1341.723	1302.514
803.101	27.239	1341.182	1302.232
804.115	27.083	1341.080	1300.857
805.130	27.245	1339.271	1300.109
806.145	27.202	1337.385	1297.818
807.159	27.008	1336.772	1295.675
808.174	26.923	1335.261	1293.443
809.188	26.750	1333.535	1290.380
810.203	26.522	1332.110	1287.219
811.218	26.242	1329.484	1282.527
812.232	25.722	1327.253	1276.520
813.247	25.396	1326.724	1273.536
814.261	26.010	1328.102	1279.079
815.276	26.642	1327.478	1282.830
816.291	26.856	1326.594	1283.345
817.305	26.971	1325.992	1283.421
818.320	27.008	1324.966	1282.543
819.334	27.158	1323.991	1282.506
820.349	27.162	1322.857	1281.280
821.364	27.217	1321.674	1280.370
822.378	27.284	1319.606	1278.689
823.393	27.271	1317.885	1276.780
824.407	27.294	1317.301	1276.224
825.422	27.225	1316.792	1275.089
826.437	27.002	1314.923	1271.554
827.451	26.884	1312.288	1268.030
828.466	25.996	1310.424	1259.844
829.480	25.678	1308.458	1255.574
830.495	26.170	1307.119	1257.585
831.509	26.682	1307.394	1261.283
832.524	26.986	1307.208	1263.073
833.539	27.223	1306.354	1263.759
834.553	27.190	1305.529	1262.578
835.568	27.195	1304.274	1261.243
836.582	27.499	1303.253	1262.227
837.597	27.375	1302.069	1260.065
838.612	27.307	1299.955	1257.398
839.626	27.020	1298.945	1254.278
840.641	26.764	1297.600	1251.054
841.655	26.530	1295.614	1247.365
842.670	25.719	1293.446	1239.518
843.685	25.104	1292.676	1234.377
844.699	25.879	1292.654	1239.572
845.714	26.603	1292.075	1243.866
846.728	26.593	1292.339	1243.905
847.743	26.808	1291.584	1244.508
848.758	26.961	1291.352	1245.194
849.772	27.222	1289.405	1244.965
850.787	27.130	1287.863	1242.693
851.801	27.232	1286.407	1241.840
852.816	27.287	1285.149	1240.856
853.831	27.142	1283.833	1238.445
854.845	27.129	1281.993	1236.430
855.860	26.846	1280.337	1232.752
856.874	26.802	1279.078	1231.095
857.889	26.366	1277.612	1226.563
858.904	25.976	1275.697	1221.922
859.918	25.566	1273.522	1216.902
860.933	25.428	1272.168	1214.528
861.947	25.935	1272.050	1217.713
862.962	26.399	1271.181	1219.877
863.977	26.253	1270.742	1218.321
864.991	26.602	1270.931	1220.727
866.006	27.048	1270.087	1222.789
867.020	27.085	1268.780	1221.630
868.035	27.142	1268.238	1221.348
869.049	27.320	1267.072	1221.278
870.064	27.483	1266.196	1221.390
871.079	27.320	1265.789	1219.751
872.093	26.993	1264.599	1216.261
873.108	27.002	1263.268	1214.892
874.122	26.588	1261.567	1210.330
875.137	26.077	1260.309	1205.548
876.152	25.921	1259.148	1203.244
877.166	25.918	1258.055	1202.037
878.181	26.432	1257.526	1204.831
879.195	26.735	1256.475	1205.708
880.210	27.019	1256.023	1207.027
881.225	27.224	1255.600	1207.844
882.239	27.015	1255.060	1205.785
883.254	27.181	1253.996	1205.724
884.268	27.217	1252.914	1204.781
885.283	27.332	1251.192	1203.743
886.298	27.278	1250.149	1202.237
887.312	27.354	1248.782	1201.284
888.327	27.262	1247.255	1199.063
889.341	27.339	1245.823	1198.050
890.356	27.082	1245.539	1195.937
891.371	26.995	1245.672	1195.342
892.385	26.808	1244.938	1193.262
893.400	26.669	1243.753	1191.063
894.414	26.579	1241.850	1188.506
895.429	26.502	1239.199	1185.315
896.444	25.644	1236.225	1176.690
897.458	25.048	1234.555	1171.048
898.473	25.600	1235.135	1175.082
899.487	26.195	1236.050	1179.724
900.502	26.569	1234.741	1180.782
901.517	26.895	1234.024	1182.092
902.531	27.081	1233.003	1182.190
903.546	27.298	1232.532	1183.016
904.560	27.137	1232.426	1181.719
905.575	27.175	1231.181	1180.635
906.589	27.110	1230.020	1178.955
907.604	27.076	1228.773	1177.400
