DTS Sentinel unit serial number:	SN409020Multiplexer serial number:	ORYXHardware model number:	OX4-SRSoftware version number:	ORYX F/W v3.00 Oryx Data Collector v3.7.2.0data status	okinstallation	HaddamTimeLapsedifferential loss correction	single-endedforward channel	channel 3reverse channel	N/Adate	2011/06/21time	16:21:17forward acquisition time	30.00reverse acquisition time	0.00gamma	498.7831k internal	0.1789k external	0.1789temperature offset calibration	1.0074default loss term (dB/km)	0.3790temperature slope calibration	1.3530multiplexer offset coefficient	1.0000multiplexer slope coefficient	1.0000fibre end	0.00T internal ref (°C)	33.69T ext. ref 1 (°C)	26.40T ext. ref 2 (°C)	0.22length (m)	temperature (°C)	Stokes	anti-Stokes-747.200	-200.000	-0.041	-0.283
-746.185	800.000	-0.147	0.704
-745.171	-108.231	0.134	-0.037
-744.156	12.878	0.094	-0.095
-743.142	-130.040	0.192	-0.034
-742.127	-200.000	0.017	0.416
-741.112	-140.586	-0.314	-0.042
-740.098	-200.000	0.098	0.575
-739.083	-200.000	-0.026	0.392
-738.069	56.731	0.222	0.281
-737.054	140.307	0.030	-0.052
-736.039	318.440	-0.029	0.071
-735.025	-200.000	-0.041	0.488
-734.010	635.909	-0.079	0.261
-732.996	-200.000	0.009	-0.081
-731.981	195.973	-0.313	-0.620
-730.966	454.771	-0.210	0.608
-729.952	36.127	-0.386	-0.442
-728.937	362.758	-0.055	-0.145
-727.923	73.288	0.130	-0.177
-726.908	179.678	0.092	0.176
-725.894	34.513	-0.230	-0.261
-724.879	-200.000	-0.000	-0.024
-723.864	60.150	0.370	-0.476
-722.850	152.233	0.208	-0.370
-721.835	-128.227	0.536	-0.099
-720.821	-116.308	0.443	-0.106
-719.806	-57.608	0.219	-0.124
-718.791	118.643	-0.126	-0.202
-717.777	68.039	-0.094	0.126
-716.762	-13.209	-0.183	-0.154
-715.748	149.696	-0.120	-0.212
-714.733	359.221	0.101	-0.264
-713.718	736.301	-0.058	0.201
-712.704	167.752	-0.139	-0.258
-711.689	277.869	0.164	-0.381
-710.675	103.287	-0.102	-0.155
-709.660	89.634	-0.249	0.361
-708.645	-88.855	0.207	-0.079
-707.631	365.179	0.195	-0.512
-706.616	-43.156	0.061	0.040
-705.602	45.668	0.092	-0.110
-704.587	47.604	-0.229	-0.277
-703.572	616.974	-0.072	-0.235
-702.558	-162.520	-0.450	0.028
-701.543	-159.764	0.510	-0.036
-700.529	-51.394	-0.255	0.154
-699.514	800.000	0.050	0.241
-698.499	-200.000	0.014	0.294
-697.485	201.210	-0.093	0.186
-696.470	-86.446	-0.123	0.049
-695.456	263.503	-0.081	-0.182
-694.441	-130.380	-0.165	-0.029
-693.426	-4.388	0.063	-0.056
-692.412	-200.000	-0.036	0.354
-691.397	-16.281	0.145	-0.119
-690.383	-200.000	-0.007	-0.416
-689.368	160.270	0.019	-0.034
-688.354	-200.000	-0.025	-0.165
-687.339	103.384	0.283	-0.432
-686.324	-120.458	0.399	-0.087
-685.310	-116.379	0.331	0.079
-684.295	51.060	-0.265	-0.327
-683.281	56.560	-0.173	0.219
-682.266	-157.898	0.343	-0.026
-681.251	260.757	-0.048	-0.108
-680.237	157.153	0.129	-0.233
-679.222	10.401	-0.221	0.218
-678.208	-200.000	-0.049	0.642
-677.193	-200.000	0.013	0.419
-676.178	565.221	-0.084	-0.265
-675.164	625.940	0.112	0.370
-674.149	233.141	-0.085	0.181
-673.135	76.400	0.224	-0.308
-672.120	-200.000	-0.076	-0.641
-671.105	255.984	-0.234	0.523
-670.091	139.700	-0.319	0.546
-669.076	-106.272	0.497	-0.143
-668.062	-78.506	0.294	0.130
-667.047	17.070	-0.039	0.040
-666.032	-65.500	0.445	-0.231
-665.018	148.493	0.276	-0.483
-664.003	-83.736	-0.483	0.199
-662.989	462.711	0.103	0.301
-661.974	525.857	-0.058	0.179
-660.959	78.040	-0.136	0.188
-659.945	800.000	0.083	-0.445
-658.930	-51.060	-0.453	0.275
-657.916	-130.471	0.388	0.067
-656.901	-98.250	-0.513	0.170
-655.886	15.609	-0.360	-0.366
-654.872	-80.393	0.245	0.106
-653.857	65.728	-0.164	-0.216
-652.843	-104.477	-0.153	0.045
-651.828	-57.013	-0.407	0.232
-650.814	238.685	-0.064	-0.138
-649.799	-31.058	-0.249	0.182
-648.784	-171.820	-0.168	-0.007
-647.770	419.499	0.098	-0.274
-646.755	-117.476	-0.080	-0.019
-645.741	344.304	0.174	-0.445
-644.726	-110.860	-0.099	-0.026
-643.711	745.350	0.025	0.087
-642.697	800.000	-0.025	0.118
-641.682	-200.000	0.050	0.517
-640.668	-95.469	-0.038	0.013
-639.653	-168.584	-0.626	-0.030
-638.638	-104.424	-0.090	0.027
-637.624	13.255	-0.294	-0.295
-636.609	151.889	-0.048	0.086
-635.595	-144.408	0.208	-0.025
-634.580	-43.100	-0.425	-0.278
-633.565	-97.618	-0.369	-0.123
-632.551	-200.000	0.003	0.470
-631.536	-153.016	-0.290	0.026
-630.522	158.754	0.201	0.362
-629.507	645.992	-0.118	0.393
-628.492	-200.000	0.071	0.445
-627.478	-162.514	0.360	0.023
-626.463	-83.379	0.289	0.119
-625.449	643.030	-0.108	-0.359
-624.434	-96.003	0.271	-0.093
-623.419	-200.000	0.013	-0.083
-622.405	83.470	0.043	-0.060
-621.390	-200.000	-0.004	-0.038
-620.376	-121.953	-0.352	0.074
-619.361	767.870	0.059	0.207
-618.346	-107.077	0.479	-0.136
-617.332	-145.624	-0.307	-0.035
-616.317	-145.838	0.215	-0.024
-615.303	-46.734	0.292	0.185
-614.288	-22.107	0.070	0.055
-613.273	645.316	-0.117	0.387
-612.259	-200.000	0.055	0.343
-611.244	-104.398	0.192	-0.057
-610.230	-200.000	-0.007	-0.102
-609.215	-78.761	0.199	0.088
-608.201	-139.971	0.268	0.036
-607.186	28.661	-0.430	0.471
-606.171	-200.000	-0.025	-0.239
-605.157	-200.000	-0.004	0.146
-604.142	30.459	-0.212	0.234
-603.128	20.692	-0.201	-0.211
-602.113	-91.504	0.142	-0.052
-601.098	-52.243	-0.406	0.243
-600.084	22.369	0.235	0.249
-599.069	-144.597	0.203	0.024
-598.055	-20.999	0.281	0.222
-597.040	228.915	-0.174	0.367
-596.025	-178.698	-0.100	0.003
-595.011	20.872	-0.373	0.391
-593.996	338.537	0.209	0.529
-592.982	800.000	-0.053	0.264
-591.967	-76.988	-0.224	0.101
-590.952	1.981	0.259	-0.242
-589.938	-142.059	-0.157	-0.020
-588.923	800.000	-0.033	-0.158
-587.909	86.629	-0.039	-0.056
-586.894	94.492	-0.193	0.284
-585.879	-85.673	-0.270	0.108
-584.865	718.982	-0.045	-0.154
-583.850	-48.388	0.492	-0.305
-582.836	-54.753	-0.446	0.260
-581.821	109.804	-0.082	0.127
-580.806	-52.564	-0.281	0.167
-579.792	358.519	-0.059	0.152
-578.777	14.983	-0.122	0.124
-577.763	689.792	-0.001	-0.004
-576.748	800.000	0.033	0.149
-575.733	-53.428	-0.433	-0.256
-574.719	412.989	-0.128	0.352
-573.704	-30.719	0.264	-0.192
-572.690	-40.543	-0.343	0.230
-571.675	253.439	-0.107	-0.238
-570.661	23.867	0.156	-0.166
-569.646	22.979	-0.306	0.324
-568.631	179.401	0.137	0.260
-567.617	-200.000	0.078	0.448
-566.602	244.524	0.043	-0.094
-565.588	738.019	0.040	-0.139
-564.573	190.241	-0.121	-0.235
-563.558	-29.680	-0.124	-0.091
-562.544	-38.622	0.209	-0.142
-561.529	-58.696	0.368	0.205
-560.515	-83.213	0.197	0.081
-559.500	-131.266	-0.237	-0.040
-558.485	30.117	0.141	-0.156
-557.471	800.000	-0.087	0.388
-556.456	-152.047	-0.631	0.059
-555.442	-56.807	0.273	0.155
-554.427	-200.000	-0.354	0.001
-553.412	-28.513	-0.206	0.153
-552.398	-200.000	0.055	0.334
-551.383	116.668	-0.238	0.377
-550.369	278.977	-0.153	0.354
-549.354	-45.183	-0.276	-0.177
-548.339	363.788	0.089	-0.231
-547.325	-38.765	-0.299	0.203
-546.310	240.329	-0.185	-0.398
-545.296	-90.001	0.255	0.095
-544.281	114.276	0.083	0.131
-543.266	39.399	0.063	0.073
-542.252	-111.484	-0.229	0.060
-541.237	-101.057	0.081	0.025
-540.223	-22.109	-0.253	-0.198
-539.208	-112.055	-0.370	-0.095
-538.193	5.330	-0.110	-0.105
-537.179	-90.802	0.404	0.149
-536.164	-47.255	0.083	-0.052
-535.150	-133.906	-0.387	0.061
-534.135	800.000	-0.025	0.110
-533.121	800.000	-0.107	-0.385
-532.106	785.047	-0.050	0.179
-531.091	461.492	0.048	-0.138
-530.077	-152.489	0.656	-0.060
-529.062	-200.000	0.018	0.143
-528.048	-161.566	-0.401	0.026
-527.033	-164.656	-0.486	0.028
-526.018	104.205	0.179	-0.272
-525.004	30.888	0.186	-0.205
-523.989	-118.600	0.251	0.057
-522.975	490.660	0.042	-0.124
-521.960	168.783	0.152	-0.280
-520.945	-0.399	-0.241	-0.221
-519.931	-200.000	0.020	-0.257
-518.916	103.268	0.238	-0.361
-517.902	-147.064	0.315	-0.034
-516.887	145.302	0.103	0.178
-515.872	661.475	0.139	0.464
-514.858	-72.139	0.469	0.223
-513.843	-58.089	0.089	0.050
-512.829	103.466	-0.113	0.170
-511.814	-169.710	-0.242	-0.011
-510.799	89.834	-0.302	0.435
-509.785	22.002	0.079	0.083
-508.770	-48.856	0.256	-0.158
-507.756	-105.809	0.404	0.117
-506.741	-5.918	0.620	0.546
-505.726	800.000	-0.079	0.425
-504.712	-200.000	0.027	-0.180
-503.697	-41.668	0.272	-0.180
-502.683	-106.208	-0.286	-0.082
-501.668	-64.872	-0.187	-0.097
-500.653	-3.836	0.319	-0.285
-499.639	278.876	-0.057	0.131
-498.624	800.000	-0.029	0.123
-497.610	-200.000	0.077	0.723
-496.595	-175.256	0.428	0.015
-495.581	103.367	0.238	0.360
-494.566	269.920	0.157	0.357
-493.551	800.000	-0.106	-0.412
-492.537	-94.518	-0.056	0.019
-491.522	47.539	-0.095	0.114
-490.508	-43.807	0.179	-0.116
-489.493	67.074	0.046	0.060
-488.478	800.000	-0.078	-0.393
-487.464	-200.000	-0.009	0.075
-486.449	55.437	0.246	0.306
-485.435	499.806	0.205	-0.612
-484.420	581.149	0.122	0.386
-483.405	-28.554	0.260	0.193
-482.391	-11.498	0.482	0.408
-481.376	-38.472	-0.170	0.115
-480.362	-200.000	-0.019	-0.122
-479.347	-173.062	0.311	0.012
-478.332	-119.446	0.235	0.052
-477.318	-200.000	0.017	0.581
-476.303	-7.529	-0.248	-0.216
-475.289	20.198	-0.310	0.322
-474.274	-62.075	-0.145	0.078
-473.259	31.688	0.182	0.202
-472.245	-134.951	-0.070	-0.011
-471.230	-197.386	0.265	0.002
-470.216	-7.057	-0.042	0.037
-469.201	6.457	0.150	-0.143
-468.186	6.420	-0.318	0.303
-467.172	-164.682	0.298	-0.017
-466.157	-166.270	-0.088	-0.005
-465.143	-183.603	-0.330	-0.007
-464.128	5.328	-0.504	-0.477
-463.113	598.782	-0.028	-0.091
-462.099	-15.035	0.262	0.216
-461.084	45.882	0.257	0.306
-460.070	-200.000	0.050	-0.345
-459.055	-36.627	0.469	-0.323
-458.040	-200.000	0.003	-0.295
-457.026	-200.000	0.034	0.207
-456.011	40.373	-0.107	0.124
-454.997	-112.242	-0.220	-0.056
-453.982	800.000	0.061	0.268
-452.968	-83.909	0.162	-0.066
-451.953	197.988	0.291	-0.574
-450.938	-61.470	-0.413	-0.223
-449.924	294.408	-0.065	-0.154
-448.909	-135.007	-0.242	0.037
-447.895	17.419	0.095	0.097
-446.880	-25.434	-0.300	0.227
-445.865	-89.553	0.339	0.127
-444.851	66.614	-0.346	0.452
-443.836	-92.781	0.243	0.087
-442.822	-161.375	0.308	0.020
-441.807	88.617	0.114	-0.163
-440.792	-200.000	0.039	0.289
-439.778	-23.144	-0.399	0.308
-438.763	-114.060	-0.319	0.079
-437.749	-159.968	-0.066	0.005
-436.734	-24.608	0.156	0.119
-435.719	143.548	-0.194	-0.333
-434.705	792.386	0.091	0.323
-433.690	-45.830	-0.113	-0.071
-432.676	-61.084	-0.312	-0.168
-431.661	790.828	0.127	0.451
-430.646	800.000	-0.024	0.104
-429.632	-156.562	-0.200	0.016
-428.617	-107.988	0.119	-0.033
-427.603	165.069	-0.146	0.265
-426.588	-142.006	0.168	-0.021
-425.573	-98.776	-0.590	0.192
-424.559	126.825	-0.207	-0.338
-423.544	800.000	0.087	0.396
-422.530	-78.784	0.335	0.146
-421.515	-95.272	-0.265	0.091
-420.500	37.965	-0.445	0.508
-419.486	-200.000	-0.012	0.310
-418.471	-6.544	-0.164	0.143
-417.457	27.810	0.181	0.196
-416.442	11.150	0.415	-0.408
-415.428	150.131	-0.120	-0.210
-414.413	-71.376	0.181	-0.087
-413.398	-6.967	0.409	0.357
-412.384	120.576	0.070	-0.112
-411.369	40.897	-0.107	0.124
-410.355	-128.592	0.224	0.040
-409.340	-126.309	-0.464	-0.088
-408.325	-200.000	0.034	0.284
-407.311	-200.000	0.065	-0.448
-406.296	-96.117	0.365	0.124
-405.282	-65.708	-0.116	0.059
-404.267	-79.060	0.375	-0.163
-403.252	-9.078	-0.198	0.170
-402.238	-131.218	-0.243	-0.041
-401.223	104.161	-0.371	-0.560
-400.209	-182.909	0.499	-0.011
-399.194	-200.000	0.012	0.215
-398.179	-103.442	0.418	-0.125
-397.165	-10.166	0.136	-0.116
-396.150	125.767	-0.141	0.230
-395.136	-200.000	0.009	-0.091
-394.121	-112.155	0.520	-0.133
-393.106	39.025	0.131	0.150
-392.092	-161.031	0.028	-0.002
-391.077	800.000	-0.067	-0.380
-390.063	80.844	-0.171	-0.236
-389.048	8.688	-0.374	0.361
-388.033	-133.806	-0.518	-0.082
-387.019	-75.529	-0.375	-0.170
-386.004	129.755	0.171	0.281
-384.990	-149.712	0.148	-0.015
-383.975	115.918	-0.211	-0.331
-382.960	-4.346	-0.167	0.148
-381.946	45.266	-0.140	-0.165
-380.931	-126.432	0.054	0.010
-379.917	-153.569	0.423	0.037
-378.902	-68.271	0.243	0.120
-377.888	800.000	0.055	0.280
-376.873	-25.640	0.057	0.043
-375.858	131.416	0.358	-0.591
-374.844	528.169	-0.131	0.399
-373.829	73.420	0.282	-0.379
-372.815	316.818	-0.155	-0.376
-371.800	338.061	-0.045	-0.112
-370.785	130.175	0.119	0.196
-369.771	396.379	-0.141	0.379
-368.756	-53.108	0.113	-0.066
-367.742	-17.458	0.276	-0.222
-366.727	82.147	-0.369	0.513
-365.712	558.472	-0.131	-0.408
-364.698	81.902	-0.299	-0.416
-363.683	-200.000	-0.000	-0.200
-362.669	-176.663	-0.729	0.023
-361.654	-35.420	0.265	0.184
-360.639	800.000	0.031	0.152
-359.625	250.672	0.132	-0.288
-358.610	79.344	-0.052	-0.072
-357.596	-5.984	0.180	0.158
-356.581	800.000	0.044	-0.234
-355.566	16.919	-0.142	-0.144
-354.552	73.201	-0.326	-0.437
-353.537	-122.176	-0.136	0.028
-352.523	-156.460	0.365	-0.029
-351.508	35.584	-0.223	-0.251
-350.493	-200.000	-0.037	-0.308
-349.479	-90.431	0.579	0.214
-348.464	95.361	0.114	0.166
-347.450	-75.558	0.225	-0.102
-346.435	-153.872	0.390	0.034
-345.420	-55.166	0.093	0.054
-344.406	29.042	-0.222	-0.241
-343.391	1.146	-0.301	-0.276
-342.377	-21.151	0.367	-0.287
-341.362	-3.571	-0.100	-0.089
-340.348	124.053	0.121	0.194
-339.333	-113.048	-0.526	0.132
-338.318	-122.114	0.118	0.025
-337.304	172.932	-0.188	-0.347
-336.289	800.000	0.059	0.299
-335.275	650.607	-0.090	0.296
-334.260	-49.968	0.137	-0.083
-333.245	-200.000	-0.035	0.425
-332.231	-6.591	0.202	-0.176
-331.216	-35.317	0.173	0.120
-330.202	-14.236	-0.266	0.219
-329.187	-116.529	0.368	-0.086
-328.172	93.483	0.212	-0.308
-327.158	284.989	-0.124	-0.288
-326.143	30.053	-0.247	-0.269
-325.129	-49.079	-0.405	-0.247
-324.114	-72.677	0.475	-0.223
-323.099	64.983	-0.344	-0.445
-322.085	-200.000	0.075	-0.432
-321.070	124.913	-0.059	-0.096
-320.056	-77.478	0.425	-0.188
-319.041	48.666	0.211	0.253
-318.026	-154.028	-0.248	-0.021
-317.012	-110.534	-0.224	-0.059
-315.997	5.054	-0.110	0.103
-314.983	800.000	-0.039	0.182
-313.968	-174.788	-0.206	-0.007
-312.953	800.000	0.061	0.322
-311.939	800.000	0.081	-0.344
-310.924	253.210	-0.071	0.155
-309.910	-61.158	-0.261	-0.140
-308.895	-97.748	-0.527	-0.173
-307.880	800.000	-0.041	-0.207
-306.866	52.940	-0.033	-0.040
-305.851	-29.803	0.304	-0.221
-304.837	-106.307	-0.083	0.024
-303.822	744.570	-0.128	-0.444
-302.807	-172.953	0.557	0.022
-301.793	31.088	-0.275	0.302
-300.778	-179.697	-0.386	0.010
-299.764	-124.120	0.412	0.082
-298.749	794.145	0.097	0.344
-297.735	70.814	-0.039	-0.051
-296.720	800.000	-0.081	-0.318
-295.705	-88.971	0.296	-0.111
-294.691	215.949	0.258	-0.525
-293.676	552.043	-0.019	-0.060
-292.662	423.577	0.062	-0.172
-291.647	180.782	0.165	-0.311
-290.632	85.481	0.387	-0.544
-289.618	103.122	-0.083	-0.125
-288.603	-172.650	-0.494	-0.019
-287.589	-78.258	-0.265	0.116
-286.574	-1.453	-0.198	0.178
-285.559	800.000	0.056	0.220
-284.545	138.046	0.184	-0.308
-283.530	-200.000	0.049	-0.374
-282.516	136.176	0.022	0.037
-281.501	61.188	0.342	0.435
-280.486	-0.399	0.217	0.197
-279.472	617.034	-0.109	0.352
-278.457	84.027	-0.159	0.222
-277.443	800.000	-0.020	-0.078
-276.428	-145.539	0.247	0.028
-275.413	473.878	0.102	0.294
-274.399	51.606	-0.189	0.230
-273.384	-16.063	-0.098	0.079
-272.370	-199.530	0.144	0.001
-271.355	-200.000	0.002	-0.095
-270.340	12.572	-0.072	0.071
-269.326	-20.200	-0.037	0.029
-268.311	281.447	-0.060	-0.138
-267.297	68.682	0.210	0.276
-266.282	-200.000	0.015	0.085
-265.267	-113.956	0.270	-0.066
-264.253	223.736	0.215	-0.443
-263.238	567.872	0.112	-0.350
-262.224	-71.852	-0.216	0.102
-261.209	-128.813	-0.331	0.059
-260.195	-200.000	0.023	-0.327
-259.180	-66.300	0.263	-0.133
-258.165	-11.537	-0.187	0.156
-257.151	-161.604	0.305	-0.020
-256.136	21.767	0.127	-0.132
-255.122	47.873	-0.090	0.108
-254.107	-62.536	-0.234	-0.124
-253.092	-200.000	-0.014	-0.249
-252.078	349.274	0.088	0.223
-251.063	-79.708	-0.545	-0.233
-250.049	-200.000	-0.011	-0.264
-249.034	-19.755	-0.244	-0.192
-248.019	-128.445	-0.353	0.063
-247.005	388.027	-0.066	-0.176
-245.990	431.543	-0.070	0.194
-244.976	-114.435	-0.413	0.100
-243.961	-65.943	-0.079	-0.040
-242.946	-33.416	-0.216	-0.152
-241.932	-24.536	0.259	0.196
-240.917	428.165	-0.269	0.745
-239.903	-200.000	0.031	-0.310
-238.888	-28.163	0.072	-0.053
-237.873	-200.000	-0.012	-0.288
-236.859	-38.757	0.042	0.028
-235.844	-200.000	0.022	-0.175
-234.830	37.798	-0.033	-0.037
-233.815	28.328	-0.242	-0.261
-232.800	-200.000	-0.021	-0.227
-231.786	-25.303	0.155	-0.117
-230.771	-124.229	-0.258	-0.051
-229.757	-200.000	-0.004	0.160
-228.742	41.231	-0.334	0.385
-227.727	-139.119	0.171	-0.023
-226.713	46.287	0.492	-0.581
-225.698	-192.969	0.506	-0.006
-224.684	-55.901	0.132	0.075
-223.669	-104.071	-0.209	-0.062
-222.655	-141.286	-0.349	-0.045
-221.640	160.041	-0.252	-0.448
-220.625	-200.000	0.016	0.507
-219.611	95.549	0.108	0.158
-218.596	-32.006	0.299	0.212
-217.582	-13.805	0.241	0.198
-216.567	-125.864	-0.520	-0.099
-215.552	165.984	-0.140	0.253
-214.538	-87.497	0.341	0.131
-213.523	24.764	0.190	0.200
-212.509	-151.912	0.617	-0.057
-211.494	190.479	0.171	0.328
-210.479	126.733	-0.119	0.193
-209.465	-54.695	0.412	0.237
-208.450	-200.000	-0.002	0.161
-207.436	85.880	0.099	0.138
-206.421	170.634	-0.102	-0.186
-205.406	195.061	0.230	-0.446
-204.392	-118.767	0.220	0.049
-203.377	-65.335	-0.154	-0.079
-202.363	195.267	0.125	0.243
-201.348	-200.000	-0.056	0.377
-200.333	-12.672	0.349	-0.289
-199.319	70.466	-0.232	0.306
-198.304	42.458	0.274	-0.317
-197.290	-107.649	-0.555	-0.153
-196.275	47.193	0.155	-0.184
-195.260	-200.000	0.162	-0.996
-194.246	800.000	-0.039	0.148
-193.231	77.733	-0.203	-0.276
-192.217	-98.313	0.539	-0.175
-191.202	-200.000	-0.001	-0.215
-190.187	-200.000	-0.036	0.291
-189.173	291.044	-0.175	-0.406
-188.158	-68.251	-0.358	-0.176
-187.144	800.000	0.086	0.316
-186.129	-200.000	0.004	-0.403
-185.114	-200.000	0.005	-0.579
-184.100	-200.000	-0.005	-0.030
-183.085	752.661	-0.053	-0.183
-182.071	-101.538	0.308	-0.095
-181.056	-83.816	0.347	-0.140
-180.042	-165.374	-0.136	-0.007
-179.027	12.901	0.189	0.186
-178.012	800.000	-0.058	-0.272
-176.998	39.601	0.126	0.143
-175.983	-26.746	0.194	-0.144
-174.969	791.844	0.099	0.347
-173.954	-151.306	0.177	-0.017
-172.939	800.000	0.091	-0.476
-171.925	-113.447	-0.197	0.049
-170.910	-115.844	0.098	0.023
-169.896	-53.867	-0.222	-0.128
-168.881	-200.000	-0.042	-0.710
-167.866	451.574	0.273	-0.770
-166.852	-101.810	-0.384	-0.117
-165.837	-200.000	-0.046	-0.353
-164.823	116.475	-0.230	0.360
-163.808	637.089	0.045	0.145
-162.793	-200.000	0.032	0.188
-161.779	232.377	-0.088	-0.184
-160.764	-12.909	-0.214	-0.177
-159.750	3.880	-0.115	0.107
-158.735	-121.955	0.381	0.079
-157.720	-104.226	0.110	-0.032
-156.706	-95.717	0.259	0.088
-155.691	-139.173	-0.344	-0.047
-154.677	800.000	-0.023	-0.124
-153.662	209.511	-0.126	-0.252
-152.647	-200.000	-0.001	0.020
-151.633	65.997	0.129	0.167
-150.618	53.745	-0.195	0.238
-149.604	189.536	0.245	0.469
-148.589	96.069	0.046	-0.066
-147.574	-147.518	0.228	0.024
-146.560	321.384	0.173	-0.420
-145.545	299.030	0.109	-0.256
-144.531	-49.832	0.328	-0.198
-143.516	800.000	-0.102	-0.392
-142.502	-200.000	0.023	-0.414
-141.487	-71.264	-0.312	0.148
-140.472	-200.000	0.005	-0.268
-139.458	339.938	-0.226	-0.563
-138.443	55.549	0.208	0.256
-137.429	133.397	-0.057	0.093
-136.414	-99.437	0.485	-0.154
-135.399	42.326	0.108	0.124
-134.385	60.494	0.073	0.092
-133.370	800.000	-0.128	0.523
-132.356	800.000	0.122	-0.433
-131.341	16.897	0.164	0.165
-130.326	-71.201	-0.495	0.235
-129.312	-53.120	-0.278	-0.162
-128.297	-76.004	0.528	0.236
-127.283	-88.885	0.182	0.068
-126.268	-184.260	0.680	0.014
-125.253	-200.000	-0.010	0.503
-124.239	-123.379	-0.234	0.047
-123.224	-144.077	-0.384	0.045
-122.210	68.083	0.228	-0.297
-121.195	-175.852	-0.151	-0.005
-120.180	-200.000	-0.103	0.751
-119.166	27.733	-0.627	0.669
-118.151	-0.879	-0.188	0.169
-117.137	-69.135	0.502	0.244
-116.122	-103.016	-0.126	-0.038
-115.107	-80.721	0.279	-0.117
-114.093	264.257	0.132	0.292
-113.078	800.000	0.078	-0.332
-112.064	529.515	0.110	0.330
-111.049	116.210	-0.286	-0.446
-110.034	800.000	-0.045	-0.162
-109.020	349.054	0.164	0.413
-108.005	161.830	-0.312	0.555
-106.991	-38.049	0.235	0.158
-105.976	-200.000	-0.009	-0.282
-104.962	-174.466	-0.749	0.027
-103.947	-72.643	-0.368	0.171
-102.932	800.000	0.058	0.262
-101.918	525.348	0.061	-0.182
-100.903	345.237	0.102	0.254
-99.889	-115.475	0.336	0.079
-98.874	-164.746	0.253	-0.014
-97.859	-101.946	0.618	0.188
-96.845	306.536	-0.048	0.113
-95.830	263.126	0.123	-0.271
-94.816	22.353	0.220	0.228
-93.801	49.695	-0.159	0.190
-92.786	800.000	-0.156	-0.560
-91.772	-200.000	-0.069	-0.688
-90.757	251.000	0.181	0.392
-89.743	615.497	-0.056	-0.178
-88.728	800.000	0.042	0.236
-87.713	322.753	-0.106	0.258
-86.699	475.560	0.166	0.478
-85.684	-65.651	0.318	-0.161
-84.670	644.784	-0.167	-0.544
-83.655	115.370	0.176	-0.273
-82.640	177.956	-0.145	0.270
-81.626	-84.212	0.121	0.048
-80.611	-54.034	-0.282	0.162
-79.597	-156.620	0.403	-0.031
-78.582	-48.191	0.237	0.144
-77.567	-92.478	-0.187	-0.066
-76.553	-106.672	0.263	0.074
-75.538	97.600	-0.240	-0.349
-74.524	-3.827	0.251	-0.220
-73.509	530.671	-0.050	-0.149
-72.494	-58.083	-0.256	-0.141
-71.480	408.826	-0.026	-0.071
-70.465	-200.000	-0.008	0.422
-69.451	294.564	0.220	0.511
-68.436	-153.568	0.302	0.026
-67.422	13.807	0.072	-0.071
-66.407	-167.317	-0.126	-0.006
-65.392	-46.466	0.414	-0.256
-64.378	-78.949	0.193	0.083
-63.363	-55.318	0.331	-0.188
-62.349	-123.743	-0.440	0.087
-61.334	33.015	-1.512	-1.658
-60.319	-81.452	0.982	0.407
-59.305	433.898	-2.397	-6.620
-58.290	2.312	3.503	3.204
-57.276	395.558	4.126	10.945
-56.261	-200.000	16.006	239.151
-55.246	414.833	1217.670	3298.209
-54.232	57.599	2851.130	3529.196
-53.217	60.485	2727.231	3420.019
-52.203	40.077	2455.249	2793.075
-51.188	40.018	2104.579	2393.337
-50.173	35.933	1975.952	2200.170
-49.159	34.516	1963.940	2170.511
-48.144	34.232	1959.775	2162.588
-47.130	34.072	1957.714	2158.403
-46.115	33.971	1957.065	2156.449
-45.100	33.931	1955.837	2154.555
-44.086	34.005	1954.472	2153.809
-43.071	33.992	1952.510	2151.408
-42.057	33.983	1951.606	2150.230
-41.042	33.853	1950.217	2147.127
-40.027	33.885	1949.017	2146.086
-39.013	33.868	1946.566	2143.119
-37.998	33.790	1945.304	2140.757
-36.984	33.936	1943.628	2140.479
-35.969	33.896	1942.222	2138.388
-34.954	33.895	1941.840	2137.881
-33.940	33.844	1940.579	2135.827
-32.925	33.781	1939.481	2133.823
-31.911	33.820	1937.384	2131.870
-30.896	33.884	1936.604	2131.653
-29.881	33.929	1934.307	2129.546
-28.867	33.860	1933.390	2127.670
-27.852	33.759	1932.157	2125.089
-26.838	33.646	1931.841	2123.394
-25.823	33.670	1930.499	2122.096
-24.809	33.728	1928.180	2120.117
-23.794	33.761	1927.129	2119.250
-22.779	33.842	1924.669	2117.370
-21.765	33.755	1923.805	2115.363
-20.750	33.723	1921.897	2112.822
-19.736	33.745	1921.282	2112.306
-18.721	33.544	1920.937	2109.591
-17.706	33.603	1919.281	2108.349
-16.692	33.566	1918.515	2107.011
-15.677	33.586	1917.342	2105.867
-14.663	33.564	1915.207	2103.189
-13.648	33.518	1913.338	2100.536
-12.633	33.478	1912.759	2099.377
-11.619	33.434	1912.563	2098.592
-10.604	33.544	1910.680	2097.660
-9.590	33.543	1908.505	2095.180
-8.575	33.573	1907.897	2094.758
-7.560	33.428	1907.604	2092.743
-6.546	33.550	1905.700	2091.929
-5.531	33.525	1904.200	2089.925
-4.517	33.468	1903.863	2088.835
-3.502	33.568	1901.486	2087.254
-2.487	33.742	1899.814	2087.255
-1.473	33.615	1897.074	2082.762
-0.458	33.130	1876.470	2054.759
0.556	28.517	2010.174	2134.478
1.571	26.382	2223.189	2332.729
2.586	27.488	2267.396	2393.457
3.600	27.569	2270.492	2397.497
4.615	27.574	2269.326	2396.055
5.629	27.401	2268.518	2392.627
6.644	27.483	2265.083	2389.796
7.659	27.478	2264.255	2388.576
8.673	27.622	2262.116	2387.931
9.688	27.219	2268.061	2388.599
10.702	25.224	2343.730	2440.736
11.717	22.569	2410.036	2472.105
12.731	11.468	2380.898	2286.450
13.746	1.707	2355.083	2124.935
14.761	0.360	2349.356	2100.658
15.775	0.166	2347.932	2096.419
16.790	0.198	2345.868	2094.776
17.804	0.154	2345.157	2093.270
18.819	0.151	2343.165	2091.206
19.834	0.200	2341.878	2090.484
20.848	0.154	2340.818	2088.647
21.863	0.062	2339.344	2085.807
22.877	0.102	2337.442	2084.416
23.892	0.166	2334.286	2082.239
24.907	0.157	2331.716	2079.579
25.921	0.007	2330.850	2076.472
26.936	0.033	2328.976	2074.919
27.950	0.083	2326.465	2073.120
28.965	0.006	2324.601	2070.148
29.980	0.112	2322.534	2069.530
30.994	0.231	2320.877	2069.447
32.009	5.944	2340.387	2165.996
33.023	18.800	2377.562	2380.274
34.038	24.340	2389.221	2468.967
35.053	25.104	2387.317	2477.327
36.067	25.278	2385.418	2477.472
37.082	25.213	2383.325	2474.097
38.096	25.170	2380.988	2470.780
39.111	25.312	2379.463	2470.876
40.126	25.590	2377.343	2472.215
41.140	25.617	2376.636	2471.559
42.155	25.543	2373.444	2466.928
43.169	25.389	2372.017	2463.021
44.184	25.312	2368.617	2458.132
45.199	25.172	2366.872	2454.103
46.213	25.117	2366.232	2452.395
47.228	25.153	2364.046	2450.328
48.242	25.131	2361.958	2447.566
49.257	25.230	2360.334	2446.950
50.271	25.390	2359.052	2447.523
51.286	25.380	2356.760	2444.713
52.301	25.329	2353.839	2440.692
53.315	25.718	2355.127	2447.052
54.330	27.449	2360.606	2476.129
55.344	28.784	2360.629	2494.089
56.359	29.066	2357.456	2494.276
57.374	28.943	2355.584	2490.329
58.388	28.853	2353.125	2486.214
59.403	28.740	2348.592	2479.594
60.417	28.467	2345.100	2471.904
61.432	28.440	2344.245	2470.348
62.447	28.537	2342.245	2469.256
63.461	28.673	2339.637	2468.042
64.476	28.653	2337.090	2464.791
65.490	28.656	2336.653	2464.074
66.505	28.385	2334.468	2457.821
67.520	26.989	2328.445	2432.405
68.534	25.430	2320.928	2403.313
69.549	24.949	2317.027	2392.535
70.563	24.873	2314.816	2388.941
71.578	24.820	2313.733	2386.828
72.593	24.971	2311.878	2386.656
73.607	25.052	2310.223	2385.742
74.622	25.123	2307.788	2383.895
75.636	25.142	2304.513	2380.476
76.651	25.035	2303.652	2377.878
77.666	25.089	2301.133	2375.706
78.680	25.058	2298.188	2371.977
79.695	25.058	2296.814	2370.271
80.709	24.968	2296.442	2368.407
81.724	25.083	2294.650	2367.805
82.739	25.117	2291.238	2364.442
83.753	25.176	2288.639	2362.266
84.768	24.907	2287.991	2357.755
85.782	24.935	2286.763	2356.579
86.797	25.003	2284.419	2354.772
87.812	24.857	2282.975	2351.073
88.826	24.939	2280.425	2349.249
89.841	25.004	2277.928	2347.250
90.855	25.051	2275.250	2344.829
91.870	24.913	2273.946	2341.390
92.884	24.976	2273.031	2340.994
93.899	25.095	2271.534	2340.733
94.914	25.429	2272.435	2345.765
95.928	26.550	2276.878	2364.803
96.943	27.260	2274.419	2371.280
97.957	26.017	2267.497	2347.532
98.972	25.078	2263.632	2330.977
99.987	25.008	2259.868	2325.904
101.001	25.033	2257.580	2323.598
102.016	24.952	2255.249	2319.863
103.030	25.012	2252.813	2317.867
104.045	25.098	2251.056	2316.903
105.060	25.085	2248.698	2314.026
106.074	25.098	2247.601	2312.794
107.089	25.087	2245.696	2310.407
108.103	25.045	2244.845	2308.717
109.118	25.029	2243.508	2306.855
110.133	25.179	2240.838	2305.770
111.147	24.988	2239.428	2301.579
112.162	24.973	2236.891	2298.506
113.176	25.007	2234.675	2296.387
114.191	24.965	2233.888	2294.768
115.206	24.993	2231.762	2292.665
116.220	24.944	2230.124	2290.080
117.235	24.921	2228.100	2287.428
118.249	25.104	2225.815	2287.155
119.264	25.016	2225.031	2284.947
120.279	24.934	2223.582	2282.133
121.293	24.879	2222.229	2279.774
122.308	24.955	2220.031	2278.210
123.322	24.957	2219.020	2276.925
124.337	25.125	2218.065	2277.825
125.352	26.608	2223.292	2301.889
126.366	27.353	2221.835	2309.607
127.381	25.769	2214.442	2281.495
128.395	25.042	2210.422	2267.827
129.410	25.026	2208.135	2265.011
130.424	25.026	2205.932	2262.475
131.439	25.037	2204.338	2260.714
132.454	25.115	2202.453	2259.499
133.468	25.201	2200.011	2257.810
134.483	25.309	2198.683	2257.544
135.497	25.456	2197.093	2257.495
136.512	25.484	2194.255	2254.662
137.527	25.321	2193.119	2251.174
138.541	25.186	2190.672	2246.685
139.556	25.163	2190.554	2246.014
140.570	25.110	2190.258	2244.773
141.585	25.185	2187.490	2242.605
142.600	25.200	2186.844	2241.869
143.614	25.095	2184.720	2238.101
144.629	25.119	2182.639	2236.001
145.643	25.049	2181.701	2233.895
146.658	25.053	2179.991	2231.927
147.673	25.006	2176.492	2227.492
148.687	25.054	2174.958	2226.262
149.702	25.023	2175.413	2226.074
150.716	25.148	2173.670	2225.576
151.731	25.156	2172.212	2223.919
152.746	25.179	2171.537	2223.244
153.760	25.297	2172.402	2225.343
154.775	26.701	2175.822	2246.077
155.789	27.369	2174.045	2252.292
156.804	25.926	2166.974	2226.796
157.819	24.962	2161.146	2208.596
158.833	24.881	2158.855	2204.985
159.848	25.103	2157.049	2205.625
160.862	25.172	2155.907	2205.045
161.877	25.228	2155.213	2204.765
162.892	25.270	2155.612	2205.425
163.906	25.479	2153.991	2206.079
164.921	25.565	2151.549	2204.372
165.935	25.473	2149.423	2200.800
166.950	25.435	2147.397	2197.998
167.964	25.415	2144.562	2194.583
168.979	25.256	2142.604	2190.375
169.994	25.137	2141.016	2187.022
171.008	25.036	2139.824	2184.303
172.023	24.891	2138.159	2180.573
173.037	25.118	2136.634	2181.538
174.052	25.053	2136.271	2180.110
175.067	24.987	2134.344	2177.077
176.081	24.893	2132.757	2174.050
177.096	25.034	2131.661	2174.383
178.110	24.940	2129.649	2170.932
179.125	25.020	2127.895	2169.853
180.140	25.081	2127.171	2169.598
181.154	25.179	2126.154	2169.500
182.169	25.240	2124.330	2168.111
183.183	25.632	2125.145	2173.449
184.198	27.209	2128.886	2196.181
185.213	27.564	2126.010	2197.256
186.227	25.825	2119.686	2169.429
187.242	24.957	2116.225	2155.123
188.256	24.910	2114.300	2152.345
189.271	25.058	2112.406	2151.945
190.286	25.047	2110.928	2150.045
191.300	25.047	2108.411	2147.224
192.315	25.087	2106.713	2145.714
193.329	25.227	2105.392	2145.797
194.344	25.282	2105.349	2146.161
195.359	25.553	2103.848	2147.623
196.373	25.430	2102.033	2144.040
197.388	25.290	2099.351	2139.368
198.402	25.175	2097.364	2135.714
199.417	25.323	2095.332	2135.156
200.432	25.347	2093.443	2133.269
201.446	25.195	2092.027	2129.755
202.461	25.137	2090.123	2126.874
203.475	24.893	2089.543	2123.122
204.490	25.020	2086.665	2121.455
205.504	25.110	2084.308	2119.866
206.519	25.120	2082.488	2117.889
207.534	25.179	2080.603	2116.410
208.548	25.141	2079.566	2114.653
209.563	25.014	2077.259	2110.548
210.577	25.020	2076.425	2109.522
211.592	25.248	2075.948	2111.477
212.607	25.593	2078.038	2117.443
213.621	26.722	2080.779	2133.342
214.636	26.707	2076.612	2128.640
215.650	25.630	2071.578	2110.532
216.665	25.022	2069.382	2100.878
217.680	25.244	2067.447	2101.278
218.694	25.129	2065.847	2098.044
219.709	25.275	2063.077	2096.699
220.723	25.329	2063.290	2097.300
221.738	25.493	2061.007	2096.647
222.753	25.459	2059.221	2094.189
223.767	25.301	2056.799	2089.622
224.782	25.148	2055.545	2086.314
225.796	25.197	2054.098	2085.157
226.811	25.210	2053.519	2084.476
227.826	25.511	2051.464	2085.652
228.840	25.218	2049.279	2079.765
229.855	25.105	2048.587	2077.497
230.869	25.136	2046.652	2075.649
231.884	25.088	2044.121	2072.279
232.899	25.139	2043.425	2071.914
233.913	25.129	2043.086	2071.210
234.928	25.305	2040.795	2070.674
235.942	25.046	2039.959	2066.578
236.957	25.009	2037.854	2063.773
237.972	25.088	2036.494	2063.066
238.986	24.990	2034.967	2060.136
240.001	24.806	2033.327	2056.098
241.015	24.754	2032.175	2054.092
242.030	25.277	2034.005	2061.740
243.045	26.913	2037.264	2083.694
244.059	27.642	2035.063	2089.591
245.074	26.048	2028.066	2063.844
246.088	25.191	2024.033	2049.654
247.103	25.300	2022.136	2048.740
248.117	25.371	2020.607	2047.761
249.132	25.160	2019.593	2044.067
250.147	25.085	2017.965	2041.317
251.161	25.109	2016.269	2039.634
252.176	25.206	2014.829	2039.043
253.190	25.188	2011.704	2035.431
254.205	25.158	2010.075	2033.196
255.220	25.126	2008.826	2031.321
256.234	25.017	2008.382	2029.391
257.249	25.103	2006.405	2028.133
258.263	25.054	2006.338	2027.264
259.278	25.176	2005.575	2027.634
260.293	25.244	2003.217	2025.776
261.307	25.184	2001.333	2022.946
262.322	25.111	1999.571	2020.097
263.336	24.945	1998.027	2016.418
264.351	24.894	1996.027	2013.590
265.366	24.976	1994.758	2012.993
266.380	25.013	1993.952	2012.352
267.395	24.907	1991.913	2008.862
268.409	24.967	1990.438	2007.808
269.424	25.148	1988.710	2007.856
270.439	25.103	1988.487	2006.892
271.453	25.682	1989.624	2014.313
272.468	27.194	1992.149	2033.648
273.482	27.441	1989.038	2032.993
274.497	25.812	1982.082	2007.414
275.512	25.000	1979.177	1995.145
276.526	24.922	1977.068	1991.906
277.541	25.068	1973.973	1990.179
278.555	25.046	1972.898	1988.611
279.570	24.778	1971.816	1984.293
280.585	24.931	1970.068	1984.006
281.599	24.991	1968.102	1982.452
282.614	24.979	1966.665	1980.632
283.628	25.168	1967.225	1983.063
284.643	25.357	1966.146	1983.837
285.657	25.235	1964.629	1980.713
286.672	25.211	1963.441	1979.014
287.687	25.217	1960.772	1976.156
288.701	24.881	1959.688	1971.105
289.716	24.870	1958.446	1969.502
290.730	25.076	1956.532	1969.617
291.745	25.204	1955.226	1969.472
292.760	25.285	1953.850	1968.753
293.774	25.164	1953.946	1967.280
294.789	25.174	1952.279	1965.473
295.803	25.182	1950.525	1963.556
296.818	25.137	1948.908	1961.201
297.833	25.082	1947.602	1959.049
298.847	25.139	1946.677	1958.507
299.862	25.200	1944.738	1956.992
300.876	25.505	1944.132	1959.495
301.891	27.272	1948.760	1983.304
302.906	27.811	1946.597	1986.766
303.920	26.084	1939.734	1960.685
304.935	25.248	1937.490	1949.053
305.949	25.203	1935.779	1946.612
306.964	25.484	1933.692	1947.338
307.979	25.474	1931.498	1944.785
308.993	25.122	1929.830	1939.045
310.008	25.097	1928.263	1936.976
311.022	25.177	1927.641	1936.982
312.037	25.105	1926.585	1934.908
313.052	25.068	1924.191	1931.877
314.066	25.242	1921.482	1930.807
315.081	25.061	1922.038	1929.175
316.095	25.218	1920.369	1928.959
317.110	25.100	1918.965	1926.048
318.125	24.930	1917.336	1922.349
319.139	24.997	1916.049	1921.547
320.154	25.076	1914.407	1920.524
321.168	24.973	1912.360	1917.134
322.183	24.985	1911.546	1916.216
323.197	25.152	1911.374	1917.609
324.212	25.151	1909.264	1915.258
325.227	25.093	1906.986	1912.115
326.241	25.037	1905.689	1909.988
327.256	24.978	1904.512	1907.950
328.270	24.995	1904.007	1907.400
329.285	25.042	1902.664	1906.324
330.300	25.438	1904.646	1912.314
331.314	27.028	1907.251	1931.722
332.329	27.344	1903.951	1931.524
333.343	25.739	1897.940	1908.106
334.358	25.078	1894.652	1897.546
335.373	25.076	1893.021	1895.663
336.387	25.134	1890.630	1893.657
337.402	25.045	1889.343	1891.194
338.416	25.104	1888.098	1890.350
339.431	25.240	1886.533	1890.001
340.446	25.123	1885.689	1887.685
341.460	25.212	1883.672	1886.378
342.475	25.400	1881.930	1886.398
343.489	25.204	1880.236	1882.403
344.504	24.916	1879.573	1878.482
345.519	25.029	1878.441	1878.311
346.533	25.142	1875.842	1876.683
347.548	25.162	1874.966	1875.789
348.562	25.016	1874.073	1873.133
349.577	25.118	1873.146	1873.055
350.592	25.200	1872.721	1873.265
351.606	25.397	1871.013	1873.395
352.621	25.383	1869.373	1871.383
353.635	25.146	1867.762	1867.069
354.650	25.094	1865.909	1864.455
355.665	25.088	1864.199	1862.455
356.679	25.103	1863.243	1861.440
357.694	25.250	1861.648	1861.149
358.708	25.222	1861.272	1860.266
359.723	25.713	1862.994	1866.877
360.738	27.211	1865.150	1884.434
361.752	27.083	1862.204	1879.900
362.767	25.875	1856.422	1861.311
363.781	25.249	1853.547	1851.712
364.796	25.306	1851.200	1849.731
365.810	25.115	1851.678	1848.012
366.825	25.218	1848.388	1845.571
367.840	24.988	1848.109	1842.693
368.854	24.951	1847.291	1841.279
369.869	25.055	1845.316	1840.159
370.883	24.965	1843.453	1837.159
371.898	25.099	1841.786	1836.652
372.913	25.170	1840.330	1835.710
373.927	25.068	1839.651	1833.766
374.942	25.261	1838.136	1834.021
375.956	25.281	1836.775	1832.653
376.971	25.050	1835.162	1828.452
377.986	25.204	1833.833	1828.488
379.000	25.321	1832.673	1828.308
380.015	25.197	1832.026	1826.175
381.029	25.245	1829.292	1823.726
382.044	25.176	1828.259	1821.770
383.059	25.259	1826.588	1820.733
384.073	25.025	1825.786	1817.327
385.088	25.019	1824.831	1816.098
386.102	25.148	1823.046	1815.418
387.117	25.179	1822.028	1814.505
388.132	25.115	1821.303	1812.917
389.146	25.508	1822.847	1818.231
390.161	27.030	1824.661	1835.296
391.175	27.266	1820.016	1832.799
392.190	25.740	1813.314	1810.421
393.205	25.325	1811.188	1803.885
394.219	25.248	1809.807	1801.518
395.234	24.999	1809.033	1798.020
396.248	25.079	1806.490	1796.080
397.263	24.960	1803.978	1792.173
398.278	24.964	1802.864	1790.897
399.292	24.913	1801.531	1788.841
400.307	25.051	1801.220	1789.708
401.321	25.040	1800.499	1788.667
402.336	25.093	1798.688	1787.181
403.350	25.189	1797.205	1786.458
404.365	25.222	1795.714	1785.092
405.380	25.212	1794.454	1783.527
406.394	24.937	1794.029	1780.144
407.409	25.086	1792.304	1779.700
408.423	25.042	1790.056	1776.816
409.438	25.251	1789.077	1777.716
410.453	25.047	1787.834	1774.238
411.467	25.133	1786.803	1773.861
412.482	25.184	1785.113	1772.472
413.496	25.208	1783.308	1770.704
414.511	25.171	1782.038	1768.866
415.526	25.196	1780.645	1767.518
416.540	25.285	1778.747	1766.308
417.555	25.280	1777.938	1765.237
418.569	25.135	1778.687	1764.337
419.584	25.487	1777.143	1766.074
420.599	25.284	1776.883	1763.604
421.613	25.222	1775.407	1761.317
422.628	25.018	1774.012	1757.710
423.642	25.171	1772.232	1757.237
424.657	25.007	1770.671	1753.867
425.672	25.005	1768.948	1751.933
426.686	25.089	1767.969	1751.578
427.701	25.299	1767.415	1752.876
428.715	25.427	1765.919	1752.442
429.730	25.556	1764.336	1751.929
430.745	25.603	1763.178	1751.023
431.759	25.359	1762.597	1747.849
432.774	25.138	1762.369	1745.254
433.788	24.622	1759.614	1737.277
434.803	24.205	1757.979	1731.380
435.818	24.218	1756.977	1730.312
436.832	24.185	1756.575	1729.388
437.847	23.721	1750.333	1718.527
438.861	14.823	1724.241	1607.072
439.876	3.152	1702.344	1474.544
440.890	0.500	1696.798	1444.081
441.905	0.167	1695.942	1439.981
442.920	0.133	1694.598	1438.343
443.934	0.180	1692.803	1437.092
444.949	0.189	1691.454	1435.865
445.963	0.199	1691.068	1435.462
446.978	0.074	1690.520	1433.628
447.993	0.121	1689.128	1432.721
449.007	0.225	1686.785	1431.555
450.022	0.202	1684.427	1429.168
451.036	0.125	1684.334	1428.181
452.051	1.491	1689.558	1445.501
453.066	11.910	1713.935	1566.814
454.080	22.336	1730.618	1682.612
455.095	25.232	1736.003	1715.520
456.109	26.808	1738.137	1732.577
457.124	27.488	1737.801	1738.559
458.139	27.302	1737.099	1735.861
459.153	27.192	1736.072	1733.577
460.168	27.114	1733.642	1730.199
461.182	26.944	1731.807	1726.535
462.197	26.956	1730.252	1724.888
463.212	26.877	1727.926	1721.616
464.226	26.735	1727.764	1719.889
465.241	27.145	1726.606	1722.434
466.255	27.352	1725.577	1723.181
467.270	27.494	1724.069	1722.812
468.285	27.202	1722.576	1718.343
469.299	27.016	1721.445	1715.245
470.314	27.158	1720.110	1715.050
471.328	27.302	1718.701	1714.805
472.343	27.287	1718.773	1714.537
473.358	27.236	1716.716	1711.789
474.372	27.251	1715.132	1710.147
475.387	27.224	1713.133	1707.696
476.401	27.102	1711.582	1704.796
477.416	26.924	1710.788	1702.123
478.430	27.086	1710.209	1702.872
479.445	27.013	1708.730	1700.502
480.460	26.980	1706.625	1697.898
481.474	27.086	1706.145	1698.211
482.489	27.275	1705.104	1698.752
483.503	27.388	1703.687	1698.196
484.518	27.445	1701.964	1696.807
485.533	27.451	1701.374	1696.067
486.547	27.472	1700.328	1695.024
487.562	27.764	1699.390	1696.611
488.576	27.764	1698.343	1695.368
489.591	27.809	1696.214	1693.453
490.606	27.793	1694.729	1691.622
491.620	27.747	1692.897	1689.167
492.635	27.814	1692.587	1689.276
493.649	27.741	1691.142	1686.948
494.664	27.378	1688.067	1680.312
495.679	26.781	1686.825	1673.339
496.693	27.030	1686.248	1674.874
497.708	27.438	1685.302	1677.512
498.722	27.721	1684.972	1679.607
499.737	27.842	1684.055	1679.614
500.752	27.720	1681.398	1675.630
501.766	27.633	1679.733	1672.968
502.781	27.604	1678.496	1671.273
503.795	27.516	1677.265	1669.037
504.810	27.581	1675.523	1667.696
505.825	27.764	1675.563	1669.221
506.839	27.674	1674.306	1666.942
507.854	27.623	1673.090	1665.068
508.868	27.570	1671.571	1662.869
509.883	27.458	1670.062	1660.137
510.898	27.669	1669.631	1661.448
511.912	27.545	1667.570	1658.063
512.927	27.448	1664.951	1654.373
513.941	27.468	1664.163	1653.578
514.956	27.415	1663.525	1652.261
515.971	27.960	1662.429	1655.944
516.985	27.945	1661.280	1654.458
518.000	27.847	1660.370	1652.463
519.014	28.107	1659.607	1653.872
520.029	28.023	1658.283	1651.593
521.043	27.700	1656.363	1646.553
522.058	27.608	1654.695	1643.865
523.073	27.569	1655.090	1643.709
524.087	28.082	1653.742	1646.811
525.102	28.031	1652.555	1644.978
526.116	27.643	1650.140	1638.870
527.131	27.481	1649.834	1636.901
528.146	27.796	1650.085	1639.799
529.160	28.295	1648.322	1642.353
530.175	28.094	1647.528	1639.556
531.189	28.330	1646.028	1639.992
532.204	28.477	1644.412	1639.510
533.219	28.136	1641.911	1633.756
534.233	27.467	1641.207	1626.853
535.248	27.730	1640.414	1628.236
536.262	28.088	1639.775	1630.614
537.277	28.277	1639.337	1631.672
538.292	28.164	1637.329	1628.467
539.306	28.087	1635.374	1625.643
540.321	28.112	1633.607	1623.920
541.335	27.849	1632.166	1619.948
542.350	28.018	1631.462	1620.557
543.365	28.385	1630.230	1622.412
544.379	28.487	1629.246	1622.138
545.394	28.574	1627.582	1621.061
546.408	28.100	1625.485	1614.573
547.423	27.476	1623.777	1607.156
548.438	27.409	1622.634	1605.233
549.452	27.839	1621.418	1607.643
550.467	27.860	1621.056	1607.281
551.481	28.080	1620.108	1608.092
552.496	28.207	1620.239	1609.154
553.511	28.619	1619.110	1611.480
554.525	28.467	1618.232	1609.069
555.540	28.472	1618.121	1608.814
556.554	28.576	1616.225	1607.647
557.569	28.429	1614.122	1604.071
558.583	28.176	1612.463	1600.010
559.598	28.219	1611.137	1598.880
560.613	28.173	1610.093	1597.244
561.627	28.313	1608.871	1597.067
562.642	28.248	1608.238	1595.680
563.656	28.615	1606.935	1597.411
564.671	28.635	1605.409	1595.874
565.686	28.642	1604.159	1594.503
566.700	28.295	1602.936	1590.070
567.715	28.266	1601.086	1587.793
568.729	28.371	1599.537	1586.978
569.744	28.293	1598.946	1585.521
570.759	28.459	1597.526	1585.373
571.773	28.614	1596.990	1585.998
572.788	28.683	1595.750	1585.170
573.802	28.598	1593.983	1582.490
574.817	28.617	1592.429	1580.924
575.832	28.631	1591.997	1580.422
576.846	28.745	1589.950	1579.188
577.861	28.445	1587.923	1574.398
578.875	28.589	1588.397	1575.918
579.890	28.645	1588.230	1576.052
580.905	28.931	1586.152	1576.264
581.919	28.917	1586.596	1576.397
582.934	29.187	1585.039	1576.986
583.948	29.221	1583.521	1575.579
584.963	28.784	1582.760	1570.877
585.978	28.481	1580.483	1565.833
586.992	28.461	1579.592	1564.583
588.007	28.817	1579.618	1567.478
589.021	28.409	1576.595	1560.800
590.036	27.838	1574.069	1553.234
591.051	28.376	1574.399	1557.970
592.065	28.836	1573.154	1560.476
593.080	29.177	1571.895	1561.948
594.094	29.085	1570.931	1560.022
595.109	28.558	1567.875	1552.315
596.123	28.044	1566.299	1546.205
597.138	28.382	1566.464	1549.059
598.153	28.631	1564.901	1549.433
599.167	28.420	1563.613	1546.190
600.182	28.555	1563.081	1546.622
601.196	28.659	1562.256	1546.502
602.211	28.695	1561.352	1545.724
603.226	29.093	1560.300	1547.863
604.240	29.143	1558.929	1546.743
605.255	29.291	1557.781	1546.666
606.269	29.321	1556.610	1545.570
607.284	29.073	1555.699	1542.391
608.299	29.102	1554.288	1541.050
609.313	28.907	1552.815	1537.766
610.328	28.906	1551.567	1536.337
611.342	28.939	1550.442	1535.319
612.357	29.185	1549.473	1536.236
613.372	29.230	1547.845	1534.814
614.386	28.995	1546.950	1531.776
615.401	29.073	1546.911	1532.209
616.415	28.993	1546.122	1530.574
617.430	29.052	1545.779	1530.543
618.445	29.169	1544.031	1529.611
619.459	29.135	1542.750	1527.872
620.474	29.064	1541.491	1525.853
621.488	28.878	1539.374	1522.021
622.503	28.641	1538.678	1519.181
623.518	28.972	1538.414	1521.494
624.532	29.359	1536.934	1523.064
625.547	29.383	1536.145	1522.297
626.561	29.382	1535.166	1521.135
627.576	29.591	1534.439	1521.967
628.591	29.420	1532.861	1518.804
629.605	29.458	1531.866	1517.944
630.620	29.412	1530.069	1515.602
631.634	29.032	1529.356	1511.582
632.649	29.405	1528.239	1513.370
633.663	29.443	1527.184	1512.460
634.678	29.588	1526.653	1512.944
635.693	29.614	1524.985	1511.327
636.707	29.631	1523.375	1509.692
637.722	29.626	1521.937	1508.043
638.736	29.513	1520.307	1505.324
639.751	29.704	1519.777	1506.181
640.766	29.566	1518.310	1503.416
641.780	29.375	1517.020	1500.398
642.795	29.363	1516.048	1499.164
643.809	29.551	1515.638	1500.108
644.824	29.569	1514.767	1499.212
645.839	29.614	1513.172	1497.823
646.853	29.527	1512.465	1496.239
647.868	29.284	1511.245	1492.875
648.882	29.343	1508.047	1490.014
649.897	29.365	1506.930	1488.908
650.912	29.436	1505.798	1488.189
651.926	29.542	1505.636	1488.707
652.941	29.285	1504.284	1485.118
653.955	28.998	1500.912	1479.286
654.970	28.533	1498.484	1472.967
655.985	28.482	1497.178	1471.097
656.999	28.378	1497.191	1470.088
658.014	28.610	1496.649	1471.251
659.028	29.102	1496.476	1474.872
660.043	29.439	1496.053	1476.992
661.058	29.574	1495.127	1476.981
662.072	29.615	1493.263	1475.293
663.087	29.264	1492.189	1471.242
664.101	29.130	1490.810	1468.635
665.116	29.290	1490.869	1469.799
666.131	29.363	1489.901	1469.246
667.145	29.517	1488.571	1468.995
668.160	29.641	1487.580	1468.834
669.174	29.687	1486.271	1467.733
670.189	29.738	1485.057	1466.763
671.204	29.635	1484.099	1464.820
672.218	29.587	1483.081	1463.256
673.233	29.805	1482.549	1464.295
674.247	30.021	1481.145	1464.448
675.262	30.055	1480.105	1463.518
676.276	30.067	1478.376	1461.728
677.291	29.808	1477.679	1458.806
678.306	29.494	1476.602	1455.086
679.320	29.556	1474.823	1453.649
680.335	29.683	1474.404	1454.062
681.349	29.826	1473.750	1454.376
682.364	29.969	1472.387	1453.985
683.379	29.714	1471.354	1450.777
684.393	29.552	1470.359	1448.343
685.408	29.796	1469.477	1449.224
686.422	29.564	1468.306	1446.076
687.437	29.648	1467.482	1445.750
688.452	29.791	1466.945	1446.171
689.466	29.780	1465.254	1444.245
690.481	29.859	1463.717	1443.172
691.495	29.899	1463.419	1443.025
692.510	29.658	1462.093	1439.652
693.525	29.470	1459.635	1435.591
694.539	29.639	1458.568	1435.690
695.554	29.834	1459.415	1437.875
696.568	29.846	1458.719	1437.109
697.583	29.879	1457.058	1435.564
698.598	29.748	1456.304	1433.623
699.612	29.970	1454.580	1433.485
700.627	29.971	1453.639	1432.397
701.641	29.950	1452.382	1430.822
702.656	29.917	1451.804	1429.825
703.671	30.076	1451.244	1430.331
704.685	30.291	1449.580	1430.189
705.700	30.238	1448.451	1428.496
706.714	29.745	1446.897	1422.980
707.729	29.508	1445.227	1419.334
708.744	29.693	1444.102	1419.484
709.758	29.774	1442.744	1418.603
710.773	29.259	1441.484	1413.227
711.787	29.089	1439.558	1409.862
712.802	29.439	1438.868	1411.715
713.816	29.661	1438.458	1412.845
714.831	29.852	1438.365	1414.050
715.846	30.124	1436.758	1414.392
716.860	30.159	1435.136	1412.890
717.875	29.971	1434.005	1410.176
718.889	29.690	1433.162	1407.026
719.904	29.810	1431.718	1406.354
720.919	29.906	1430.891	1406.107
721.933	29.925	1430.061	1405.270
722.948	30.006	1429.710	1405.377
723.962	30.030	1428.080	1403.788
724.977	30.094	1426.639	1402.684
725.992	30.099	1426.121	1402.048
727.006	30.078	1424.877	1400.500
728.021	30.226	1423.490	1400.092
729.035	30.163	1422.499	1398.474
730.050	30.199	1421.980	1398.065
731.065	30.182	1420.200	1396.023
732.079	30.105	1419.584	1394.665
733.094	30.123	1418.139	1393.212
734.108	30.091	1416.654	1391.344
735.123	30.161	1414.647	1389.734
736.138	30.006	1414.525	1388.285
737.152	29.958	1413.529	1386.775
738.167	30.113	1412.875	1387.134
739.181	30.356	1411.097	1387.052
740.196	30.331	1410.062	1385.678
741.211	30.268	1410.084	1385.058
742.225	30.177	1408.603	1382.761
743.240	30.218	1407.106	1381.430
744.254	30.120	1406.035	1379.482
745.269	30.092	1405.340	1378.425
746.284	29.974	1404.614	1376.667
747.298	30.113	1403.292	1376.241
748.313	30.035	1402.109	1374.338
749.327	29.967	1401.927	1373.483
750.342	29.721	1401.485	1371.056
751.356	29.484	1399.002	1366.695
752.371	29.703	1397.309	1366.511
753.386	30.052	1396.776	1368.417
754.400	30.069	1396.500	1368.110
755.415	30.170	1395.690	1367.898
756.429	30.397	1393.993	1367.751
757.444	30.409	1392.919	1366.626
758.459	30.334	1392.011	1365.014
759.473	30.189	1390.963	1362.755
760.488	30.173	1389.348	1360.893
761.502	30.089	1387.749	1358.540
762.517	29.971	1387.342	1357.114
763.532	30.133	1385.560	1356.396
764.546	30.050	1384.365	1354.457
765.561	29.623	1382.899	1349.723
766.575	28.933	1380.913	1342.562
767.590	28.724	1380.111	1340.093
768.605	29.576	1379.849	1345.921
769.619	29.933	1379.441	1347.971
770.634	30.023	1378.020	1347.085
771.648	30.123	1377.105	1346.759
772.663	30.119	1376.588	1346.061
773.678	30.259	1375.865	1346.211
774.692	30.343	1375.397	1346.206
775.707	30.369	1374.465	1345.326
776.721	30.406	1374.119	1345.089
777.736	30.370	1372.070	1342.663
778.751	30.333	1371.694	1341.865
779.765	30.228	1370.674	1339.945
780.780	30.243	1370.264	1339.491
781.794	30.273	1369.284	1338.594
782.809	30.157	1367.788	1336.128
783.824	29.986	1366.430	1333.409
784.838	29.882	1364.422	1330.536
785.853	29.708	1363.953	1328.660
786.867	29.929	1363.486	1329.647
787.882	30.080	1363.481	1330.569
788.897	30.162	1362.157	1329.709
789.911	30.004	1360.698	1326.992
790.926	29.982	1359.428	1325.435
791.940	29.964	1358.343	1324.085
792.955	30.089	1356.931	1323.453
793.969	30.100	1355.577	1322.047
794.984	30.168	1355.228	1322.037
795.999	30.238	1354.545	1321.715
797.013	30.252	1353.109	1320.254
798.028	30.463	1350.947	1319.492
799.042	30.403	1350.780	1318.746
800.057	30.341	1349.970	1317.353
801.072	30.279	1348.114	1314.946
802.086	30.367	1346.755	1314.088
803.101	30.256	1346.132	1312.533
804.115	30.277	1345.230	1311.646
805.130	30.207	1344.538	1310.315
806.145	30.297	1343.189	1309.480
807.159	30.204	1341.663	1307.182
808.174	30.192	1340.788	1306.088
809.188	30.113	1339.756	1304.368
810.203	30.220	1337.799	1303.058
811.218	30.027	1335.983	1299.775
812.232	29.538	1333.533	1293.791
813.247	29.173	1333.170	1290.716
814.261	29.746	1333.927	1295.331
815.276	30.107	1333.350	1297.155
816.291	30.011	1332.235	1295.238
817.305	30.020	1331.328	1294.264
818.320	30.205	1329.316	1293.455
819.334	30.201	1328.385	1292.365
820.349	30.328	1327.527	1292.264
821.364	30.415	1325.969	1291.197
822.378	30.384	1324.883	1289.771
823.393	30.264	1323.391	1287.331
824.407	30.203	1321.805	1285.205
825.422	30.287	1321.098	1284.953
826.437	30.325	1320.053	1284.042
827.451	30.128	1318.308	1280.826
828.466	29.802	1317.262	1277.392
829.480	30.059	1315.856	1277.659
830.495	30.033	1314.278	1275.795
831.509	30.028	1313.319	1274.677
832.524	30.020	1312.814	1273.974
833.539	30.156	1311.763	1273.742
834.553	30.074	1310.150	1271.460
835.568	30.183	1309.252	1271.186
836.582	30.052	1308.442	1269.346
837.597	30.378	1306.849	1269.888
838.612	30.277	1304.834	1267.086
839.626	30.159	1303.725	1265.051
840.641	30.187	1302.986	1264.370
841.655	29.750	1302.785	1261.030
842.670	29.430	1300.516	1256.492
843.685	28.762	1298.550	1249.878
844.699	29.441	1298.315	1254.144
845.714	29.895	1297.776	1256.570
846.728	29.900	1297.551	1256.237
847.743	29.946	1296.032	1254.926
848.758	29.997	1295.247	1254.367
849.772	30.235	1293.915	1254.546
850.787	30.166	1292.671	1252.717
851.801	29.977	1292.106	1250.740
852.816	30.201	1290.367	1250.425
853.831	30.157	1289.082	1248.728
854.845	30.102	1287.090	1246.281
855.860	29.941	1285.431	1243.435
856.874	29.922	1284.593	1242.352
857.889	30.118	1283.203	1242.175
858.904	29.962	1282.699	1240.490
859.918	30.091	1280.773	1239.349
860.933	29.833	1279.476	1236.210
861.947	29.926	1278.882	1236.116
862.962	29.806	1278.071	1234.378
863.977	29.931	1276.312	1233.364
864.991	29.932	1275.449	1232.395
866.006	29.877	1275.358	1231.791
867.020	29.915	1273.800	1230.390
868.035	30.206	1271.781	1230.231
869.049	30.059	1271.735	1229.059
870.064	30.100	1271.503	1228.961
871.079	29.854	1270.756	1226.452
872.093	29.993	1269.413	1225.938
873.108	29.991	1268.331	1224.734
874.122	29.787	1266.864	1221.815
875.137	29.467	1266.183	1218.889
876.152	29.307	1265.027	1216.565
877.166	29.474	1262.352	1214.957
878.181	29.788	1261.311	1215.881
879.195	29.679	1261.457	1215.155
880.210	29.794	1261.406	1215.724
881.225	29.907	1260.123	1215.087
882.239	30.033	1258.381	1214.091
883.254	30.132	1257.338	1213.590
884.268	30.127	1256.961	1213.047
885.283	30.018	1256.494	1211.739
886.298	30.001	1254.698	1209.745
887.312	29.904	1253.679	1207.984
888.327	29.928	1252.538	1206.897
889.341	29.808	1251.467	1204.934
890.356	29.731	1250.218	1203.085
891.371	29.949	1249.810	1203.974
892.385	29.838	1249.387	1202.696
893.400	29.828	1247.772	1200.933
894.414	29.872	1246.531	1199.885
895.429	29.847	1245.258	1198.350
896.444	29.734	1243.483	1195.765
897.458	29.389	1242.378	1192.318
898.473	29.541	1242.238	1193.024
899.487	29.872	1241.133	1193.969
900.502	29.843	1239.827	1192.383
901.517	29.755	1238.652	1190.544
902.531	29.625	1237.658	1188.602
903.546	29.871	1237.067	1189.483
904.560	29.849	1236.784	1188.924
905.575	29.784	1235.357	1186.992
906.589	29.770	1234.039	1185.492
907.604	29.731	1233.856	1184.927
