DTS Sentinel unit serial number:	SN409020Multiplexer serial number:	ORYXHardware model number:	OX4-SRSoftware version number:	ORYX F/W v3.00 Oryx Data Collector v3.7.2.0data status	okinstallation	HaddamTimeLapsedifferential loss correction	single-endedforward channel	channel 3reverse channel	N/Adate	2011/06/21time	19:51:17forward acquisition time	30.00reverse acquisition time	0.00gamma	498.7831k internal	0.1791k external	0.1791temperature offset calibration	1.0074default loss term (dB/km)	0.3790temperature slope calibration	1.3530multiplexer offset coefficient	1.0000multiplexer slope coefficient	1.0000fibre end	0.00T internal ref (°C)	33.03T ext. ref 1 (°C)	24.48T ext. ref 2 (°C)	0.24length (m)	temperature (°C)	Stokes	anti-Stokes-747.200	-14.792	-0.166	-0.138
-746.185	18.236	0.271	0.281
-745.171	-102.853	0.117	0.036
-744.156	-43.815	0.157	-0.103
-743.142	9.227	0.295	-0.289
-742.127	-143.700	-0.042	-0.005
-741.112	-115.089	-0.239	-0.058
-740.098	-164.911	-0.295	-0.017
-739.083	-105.202	-0.173	0.051
-738.069	95.297	0.308	0.457
-737.054	-200.000	0.030	0.174
-736.039	-200.000	0.037	0.446
-735.025	2.930	-0.414	0.390
-734.010	-197.672	0.355	0.003
-732.996	-200.000	0.039	-0.250
-731.981	-200.000	-0.034	-0.382
-730.966	5.371	-0.297	0.284
-729.952	-200.000	-0.034	-0.229
-728.937	-52.059	-0.090	0.054
-727.923	-52.229	-0.188	0.113
-726.908	13.412	-0.068	0.068
-725.894	-130.936	-0.612	0.105
-724.879	800.000	0.056	0.265
-723.864	187.937	-0.076	0.148
-722.850	-145.283	0.285	-0.033
-721.835	75.942	0.135	0.185
-720.821	18.624	0.512	0.532
-719.806	-8.127	0.140	0.123
-718.791	-65.258	-0.190	-0.099
-717.777	-6.199	0.303	-0.268
-716.762	74.450	-0.344	-0.470
-715.748	-112.204	-0.405	-0.105
-714.733	-6.879	-0.331	-0.292
-713.718	-200.000	0.048	-0.669
-712.704	800.000	0.170	-0.763
-711.689	92.844	0.244	0.357
-710.675	800.000	0.025	0.140
-709.660	-114.493	0.044	0.011
-708.645	-32.729	0.092	-0.066
-707.631	-26.452	-0.531	-0.403
-706.616	-200.000	-0.005	-0.147
-705.602	-111.792	0.298	0.078
-704.587	-200.000	-0.013	-0.139
-703.572	235.321	0.074	-0.159
-702.558	800.000	-0.034	0.132
-701.543	158.295	0.073	-0.132
-700.529	229.420	0.089	-0.189
-699.514	-200.000	-0.009	-0.406
-698.499	-112.439	-0.443	-0.114
-697.485	135.263	0.254	-0.429
-696.470	440.093	0.023	-0.066
-695.456	-200.000	0.025	-0.406
-694.441	-128.418	-0.262	-0.048
-693.426	800.000	-0.018	-0.090
-692.412	-95.043	0.305	-0.106
-691.397	264.072	0.086	-0.195
-690.383	450.183	-0.189	-0.544
-689.368	-120.035	-0.226	0.050
-688.354	107.588	0.059	-0.091
-687.339	74.857	-0.306	-0.419
-686.324	40.407	-0.265	-0.309
-685.310	243.078	-0.206	0.449
-684.295	8.280	0.402	0.391
-683.281	322.536	0.070	-0.175
-682.266	202.573	0.190	-0.381
-681.251	-28.112	-0.182	-0.136
-680.237	-200.000	-0.061	-0.515
-679.222	-70.059	-0.240	0.118
-678.208	48.819	-0.078	0.095
-677.193	-25.566	0.267	-0.204
-676.178	-36.941	-0.332	-0.230
-675.164	-79.618	-0.453	0.197
-674.149	261.751	0.098	-0.220
-673.135	-200.000	0.024	-0.236
-672.120	34.332	0.325	-0.368
-671.105	-200.000	-0.054	-0.353
-670.091	-33.919	0.047	0.033
-669.076	-62.088	-0.279	0.150
-668.062	-112.906	0.446	0.114
-667.047	-102.789	-0.098	0.030
-666.032	-104.233	0.425	0.127
-665.018	43.720	0.128	-0.152
-664.003	-112.056	0.464	0.120
-662.989	-82.911	-0.327	0.136
-661.974	-150.296	-0.621	0.061
-660.959	14.764	0.327	-0.331
-659.945	12.733	-0.450	-0.450
-658.930	-200.000	0.011	-0.450
-657.916	-131.755	-0.213	0.036
-656.901	12.655	-0.277	-0.277
-655.886	8.141	-0.112	-0.108
-654.872	-86.704	-0.304	-0.120
-653.857	195.458	0.202	-0.398
-652.843	-163.224	-0.066	0.004
-651.828	-80.662	0.237	0.101
-650.814	107.251	0.130	-0.201
-649.799	-38.132	0.356	-0.244
-648.784	-80.708	-0.294	-0.126
-647.770	3.914	-0.139	-0.132
-646.755	53.878	-0.133	-0.165
-645.741	-200.000	0.051	-0.404
-644.726	-73.838	-0.185	-0.087
-643.711	-93.389	0.258	-0.092
-642.697	238.868	0.108	0.234
-641.682	-191.999	-0.309	-0.004
-640.668	-51.946	0.149	-0.089
-639.653	-19.294	-0.049	-0.040
-638.638	-87.394	0.173	-0.067
-637.624	520.655	-0.132	0.403
-636.609	90.192	0.124	0.180
-635.595	-20.500	-0.316	-0.251
-634.580	-93.806	-0.323	-0.115
-633.565	-109.345	0.277	-0.075
-632.551	-83.953	0.063	0.026
-631.536	152.694	-0.092	0.163
-630.522	-51.343	-0.243	0.147
-629.507	-148.700	-0.313	0.032
-628.492	800.000	0.029	-0.156
-627.478	689.126	0.049	0.166
-626.463	-200.000	0.009	0.085
-625.449	45.779	-0.205	0.245
-624.434	267.298	-0.061	-0.140
-623.419	-200.000	-0.043	-0.288
-622.405	60.458	-0.326	0.417
-621.390	-141.414	0.247	0.032
-620.376	269.419	-0.120	0.273
-619.361	800.000	0.081	-0.357
-618.346	17.341	-0.224	-0.229
-617.332	407.209	0.054	-0.149
-616.317	-200.000	-0.055	0.360
-615.303	-156.717	-0.299	-0.024
-614.288	-140.903	-0.519	-0.068
-613.273	-200.000	-0.015	-0.131
-612.259	-73.495	0.101	0.048
-611.244	-99.536	0.384	-0.124
-610.230	-200.000	-0.055	0.357
-609.215	31.957	0.265	0.295
-608.201	-158.151	0.579	-0.043
-607.186	150.741	-0.071	-0.126
-606.171	-121.980	0.629	-0.132
-605.157	-122.036	-0.331	0.070
-604.142	-71.692	-0.173	0.083
-603.128	177.217	-0.013	-0.024
-602.113	10.418	-0.087	-0.085
-601.098	-111.810	-0.399	-0.103
-600.084	134.621	0.097	-0.163
-599.069	-50.650	-0.293	-0.178
-598.055	-96.258	-0.504	0.171
-597.040	-4.447	-0.138	0.123
-596.025	-111.872	-0.200	0.052
-595.011	-124.941	0.526	0.104
-593.996	-151.826	-0.225	0.021
-592.982	244.678	-0.155	-0.337
-591.967	-51.533	0.370	-0.222
-590.952	120.491	-0.095	-0.153
-589.938	-200.000	-0.381	-0.000
-588.923	545.615	0.097	0.301
-587.909	25.215	0.157	0.169
-586.894	-131.478	-0.150	-0.025
-585.879	-47.332	0.235	-0.147
-584.865	-52.943	0.384	0.228
-583.850	-108.516	-0.316	0.087
-582.836	-70.024	-0.216	-0.106
-581.821	-200.000	0.039	-0.247
-580.806	-115.474	-0.435	0.105
-579.792	-173.906	0.340	-0.013
-578.777	-116.585	0.708	0.167
-577.763	-180.820	0.335	-0.009
-576.748	800.000	0.085	0.391
-575.733	30.440	-0.101	-0.111
-574.719	7.583	0.091	0.088
-573.704	24.029	0.334	-0.355
-572.690	15.201	0.350	-0.354
-571.675	296.032	0.028	-0.067
-570.661	159.603	-0.061	0.110
-569.646	589.058	0.029	0.092
-568.631	-44.509	-0.146	0.094
-567.617	15.264	0.258	-0.261
-566.602	-143.028	-0.529	0.065
-565.588	-26.531	0.101	0.076
-564.573	-102.187	-0.278	-0.086
-563.558	242.451	0.132	0.286
-562.544	-200.000	-0.019	-0.265
-561.529	350.106	-0.120	-0.307
-560.515	-200.000	0.047	0.316
-559.500	-12.313	0.277	-0.233
-558.485	-35.906	-0.339	-0.236
-557.471	-150.702	0.436	0.042
-556.456	-128.650	0.367	0.066
-555.442	-109.965	0.247	-0.066
-554.427	22.509	0.376	-0.397
-553.412	103.710	-0.223	-0.338
-552.398	-200.000	0.008	-0.183
-551.383	-80.712	0.053	0.023
-550.369	298.512	-0.158	-0.375
-549.354	-54.024	0.206	0.121
-548.339	-28.778	0.384	0.284
-547.325	-200.000	0.002	-0.108
-546.310	800.000	-0.010	-0.045
-545.296	800.000	-0.065	-0.289
-544.281	-158.146	-0.248	0.018
-543.266	61.748	-0.228	0.293
-542.252	53.891	-0.042	0.053
-541.237	161.719	-0.228	-0.413
-540.223	-12.197	0.214	-0.181
-539.208	-200.000	0.059	-0.453
-538.193	192.722	0.339	-0.661
-537.179	800.000	0.060	0.304
-536.164	444.350	0.075	0.214
-535.150	517.687	-0.082	0.249
-534.135	-55.193	0.211	-0.122
-533.121	-200.000	-0.022	0.489
-532.106	-200.000	0.025	-0.313
-531.091	-32.839	-0.108	-0.077
-530.077	-200.000	0.001	-0.508
-529.062	-73.365	0.151	-0.071
-528.048	-115.120	-0.603	-0.146
-527.033	-40.425	0.236	-0.158
-526.018	334.972	-0.227	0.569
-525.004	414.187	0.049	0.136
-523.989	800.000	0.060	0.227
-522.975	-59.994	0.094	-0.051
-521.960	-94.309	0.267	-0.093
-520.945	-108.616	-0.276	-0.076
-519.931	-81.224	-0.478	0.202
-518.916	556.853	-0.040	0.124
-517.902	800.000	-0.089	-0.419
-516.887	-200.000	-0.538	0.003
-515.872	-9.127	-0.222	0.191
-514.858	-160.262	-0.275	-0.019
-513.843	69.107	0.089	0.117
-512.829	125.348	0.149	-0.243
-511.814	3.526	-0.215	-0.202
-510.799	111.544	0.248	0.386
-509.785	-200.000	-0.005	0.376
-508.770	-200.000	-0.002	0.185
-507.756	31.964	-0.090	0.100
-506.741	26.118	0.092	-0.099
-505.726	-116.178	0.515	-0.122
-504.712	-200.000	0.022	0.152
-503.697	-88.143	0.323	-0.124
-502.683	-157.748	0.378	-0.029
-501.668	127.061	-0.113	0.185
-500.653	800.000	0.077	-0.399
-499.639	-74.301	-0.320	-0.148
-498.624	-160.400	-0.125	0.009
-497.610	-41.624	-0.112	-0.074
-496.595	800.000	-0.123	-0.488
-495.581	-200.000	0.049	0.464
-494.566	-121.270	0.379	-0.081
-493.551	-129.973	-0.140	0.024
-492.537	-200.000	-0.002	0.059
-491.522	800.000	-0.081	0.436
-490.508	-132.317	0.319	-0.053
-489.493	114.262	-0.185	-0.290
-488.478	-42.414	0.330	0.216
-487.464	-200.000	-0.026	-0.180
-486.449	307.316	-0.176	-0.424
-485.435	601.635	0.073	0.235
-484.420	-200.000	-0.023	-0.384
-483.405	745.826	0.037	-0.129
-482.391	130.786	-0.091	0.150
-481.376	-102.433	0.475	-0.145
-480.362	-183.137	0.375	0.008
-479.347	-140.304	-0.365	0.049
-478.332	373.211	-0.174	-0.458
-477.318	-105.554	0.124	-0.036
-476.303	36.382	0.212	-0.241
-475.289	-84.615	-0.578	-0.233
-474.274	-191.289	-0.248	-0.003
-473.259	-200.000	0.045	-0.271
-472.245	-115.732	0.388	-0.093
-471.230	54.193	0.113	0.140
-470.216	-150.422	0.081	0.008
-469.201	217.449	-0.055	0.113
-468.186	-200.000	-0.078	0.551
-467.172	75.203	0.408	0.553
-466.157	9.686	-0.198	-0.193
-465.143	125.749	0.035	-0.057
-464.128	11.875	-0.319	-0.315
-463.113	-200.000	0.008	-0.284
-462.099	-178.844	0.527	0.015
-461.084	-71.814	-0.104	0.049
-460.070	-89.958	0.236	0.088
-459.055	-120.588	-0.202	-0.044
-458.040	-5.952	-0.129	-0.113
-457.026	157.636	-0.087	-0.154
-456.011	800.000	-0.065	0.305
-454.997	-36.493	0.221	-0.153
-453.982	-2.299	-0.224	-0.201
-452.968	222.666	0.265	-0.549
-451.953	-200.000	0.050	-0.298
-450.938	-200.000	0.021	0.359
-449.924	-185.794	0.082	-0.002
-448.909	-102.523	0.375	0.114
-447.895	-200.000	-0.016	0.410
-446.880	-6.388	-0.057	0.050
-445.865	22.006	0.066	0.069
-444.851	800.000	0.062	-0.284
-443.836	-89.513	0.318	-0.119
-442.822	258.041	0.048	0.105
-441.807	800.000	0.108	-0.435
-440.792	3.790	0.113	-0.106
-439.778	-53.005	-0.178	-0.105
-438.763	-200.000	0.038	-0.367
-437.749	165.677	-0.252	0.459
-436.734	73.341	-0.211	0.283
-435.719	-200.000	-0.154	0.000
-434.705	92.704	-0.054	0.078
-433.690	-143.262	-0.223	0.027
-432.676	-100.827	0.257	-0.081
-431.661	215.238	-0.152	-0.311
-430.646	-200.000	0.048	0.585
-429.632	-75.675	0.487	0.221
-428.617	-101.180	-0.491	0.153
-427.603	203.711	-0.125	-0.250
-426.588	-91.271	0.306	-0.112
-425.573	-200.000	-0.027	-0.349
-424.559	260.406	-0.087	0.193
-423.544	-101.186	-0.217	-0.068
-422.530	-77.854	0.275	-0.121
-421.515	-61.370	0.313	0.168
-420.500	198.817	0.077	-0.152
-419.486	-13.130	-0.316	-0.263
-418.471	-77.488	-0.423	0.187
-417.457	-96.085	-0.168	0.057
-416.442	-95.250	0.381	-0.131
-415.428	-137.927	-0.122	-0.017
-414.413	-40.476	-0.445	0.296
-413.398	-116.720	-0.392	-0.092
-412.384	-200.000	-0.020	-0.116
-411.369	43.192	0.400	0.468
-410.355	-200.000	0.014	0.128
-409.340	46.359	-0.168	0.199
-408.325	-159.319	0.195	-0.014
-407.311	-51.072	0.305	0.183
-406.296	-56.939	0.120	0.068
-405.282	-15.640	0.426	0.348
-404.267	-136.220	-0.316	-0.047
-403.252	54.415	-0.387	-0.478
-402.238	621.697	0.188	-0.608
-401.223	-101.073	-0.186	-0.058
-400.209	435.495	-0.099	-0.278
-399.194	339.380	-0.141	-0.354
-398.179	-28.862	-0.375	-0.276
-397.165	445.194	-0.045	0.127
-396.150	678.691	-0.122	0.409
-395.136	573.476	0.127	0.400
-394.121	-13.897	0.118	-0.097
-393.106	800.000	0.154	-0.658
-392.092	466.759	-0.035	-0.101
-391.077	133.950	-0.181	0.301
-390.063	-200.000	-0.002	-0.057
-389.048	-167.837	-0.475	-0.024
-388.033	800.000	0.136	0.569
-387.019	-97.294	0.576	0.191
-386.004	-41.313	-0.006	0.004
-384.990	-11.105	0.264	-0.223
-383.975	-136.257	-0.362	0.054
-382.960	-118.661	0.322	0.072
-381.946	-74.707	0.086	0.039
-380.931	-200.000	-0.007	-0.419
-379.917	-28.371	-0.054	0.040
-378.902	-200.000	-0.055	0.408
-377.888	-71.644	0.157	-0.075
-376.873	-146.301	-0.679	-0.075
-375.858	-74.265	-0.238	0.110
-374.844	154.467	0.452	0.797
-373.829	-149.600	0.770	0.077
-372.815	276.567	0.268	0.611
-371.800	623.117	0.116	0.377
-370.785	-126.086	-0.451	0.086
-369.771	240.695	-0.050	-0.106
-368.756	-0.332	0.100	-0.091
-367.742	-72.409	0.197	0.093
-366.727	800.000	-0.037	-0.165
-365.712	32.038	-0.181	0.200
-364.698	209.933	-0.104	-0.210
-363.683	-33.359	0.327	-0.231
-362.669	182.154	0.055	-0.103
-361.654	-123.487	-0.083	0.017
-360.639	-100.404	0.165	-0.052
-359.625	-119.219	0.255	0.056
-358.610	-200.000	0.043	-0.297
-357.596	-24.429	0.028	0.021
-356.581	98.868	-0.139	-0.206
-355.566	-4.483	-0.056	0.049
-354.552	800.000	0.094	-0.380
-353.537	800.000	-0.135	-0.539
-352.523	-144.584	0.236	-0.028
-351.508	36.855	0.180	-0.204
-350.493	-125.511	0.264	-0.051
-349.479	18.268	0.315	-0.321
-348.464	-200.000	-0.052	-0.445
-347.450	204.271	-0.152	-0.302
-346.435	-109.036	-0.350	0.095
-345.420	-200.000	-0.019	0.280
-344.406	96.204	-0.185	-0.271
-343.391	-20.300	0.188	-0.148
-342.377	644.732	-0.098	-0.322
-341.362	54.202	0.140	-0.172
-340.348	-200.000	-0.012	-0.148
-339.333	109.077	0.178	0.272
-338.318	9.333	-0.103	-0.099
-337.304	-52.440	0.182	-0.108
-336.289	800.000	0.056	-0.285
-335.275	-64.442	-0.310	0.161
-334.260	-17.785	-0.326	-0.261
-333.245	556.306	0.047	-0.146
-332.231	-81.364	0.320	0.134
-331.216	-59.871	0.356	-0.194
-330.202	-84.621	-0.170	0.068
-329.187	-80.124	0.294	0.125
-328.172	-10.414	-0.143	0.121
-327.158	-181.805	-0.281	-0.007
-326.143	-95.889	-0.398	-0.135
-325.129	-200.000	0.040	-0.274
-324.114	-200.000	0.011	0.397
-323.099	-83.529	0.373	0.152
-322.085	19.395	-0.141	0.144
-321.070	-200.000	0.016	0.152
-320.056	-48.407	-0.250	0.153
-319.041	-34.939	0.350	0.243
-318.026	-200.000	-0.030	0.437
-317.012	-200.000	-0.028	0.187
-315.997	-139.569	-0.475	0.064
-314.983	-111.004	0.263	0.069
-313.968	800.000	-0.090	0.386
-312.953	-17.073	0.143	-0.115
-311.939	800.000	-0.067	0.246
-310.924	-140.009	-0.611	0.081
-309.910	18.181	-0.324	0.330
-308.895	-200.000	0.054	0.332
-307.880	280.148	0.060	-0.137
-306.866	-200.000	0.031	-0.271
-305.851	-200.000	-0.031	-0.368
-304.837	-12.786	0.515	-0.428
-303.822	-121.551	0.330	0.069
-302.807	320.263	-0.146	0.355
-301.793	140.302	0.185	-0.313
-300.778	-200.000	0.042	0.337
-299.764	200.953	0.133	-0.261
-298.749	21.585	-0.187	0.194
-297.735	118.693	-0.193	-0.304
-296.720	76.346	-0.082	0.111
-295.705	94.703	0.111	-0.161
-294.691	205.709	0.120	-0.239
-293.676	-186.060	0.356	0.007
-292.662	-42.419	0.243	-0.158
-291.647	-65.225	0.480	-0.246
-290.632	232.622	0.118	0.248
-289.618	101.786	-0.066	0.099
-288.603	-105.391	-0.243	0.070
-287.589	91.767	0.342	-0.492
-286.574	800.000	-0.032	0.151
-285.559	-171.837	-0.509	0.021
-284.545	-121.668	-0.312	0.065
-283.530	27.603	0.138	-0.148
-282.516	-73.223	0.318	0.148
-281.501	-188.056	0.613	0.010
-280.486	153.095	0.190	-0.333
-279.472	-180.354	-0.122	-0.003
-278.457	-200.000	0.002	-0.189
-277.443	-103.529	-0.212	-0.063
-276.428	800.000	-0.102	0.401
-275.413	-200.000	0.071	0.513
-274.399	-115.241	0.484	0.116
-273.384	-200.000	0.001	-0.334
-272.370	314.336	0.114	0.275
-271.355	-6.853	-0.272	0.235
-270.340	1.570	-0.294	0.270
-269.326	-171.136	-0.339	-0.014
-268.311	-79.643	0.540	0.231
-267.297	-60.715	0.359	0.193
-266.282	63.363	0.141	0.181
-265.267	-62.962	0.171	-0.090
-264.253	-200.000	0.003	-0.170
-263.238	-77.968	0.355	0.155
-262.224	-100.448	-0.427	0.134
-261.209	94.698	-0.086	0.124
-260.195	-145.129	-0.809	0.093
-259.180	-200.000	0.021	0.557
-258.165	-157.260	0.156	-0.012
-257.151	800.000	0.102	-0.402
-256.136	-31.820	0.232	-0.165
-255.122	467.039	-0.148	-0.425
-254.107	-118.711	0.233	-0.052
-253.092	-96.160	0.551	0.185
-252.078	-50.834	-0.309	-0.184
-251.063	-38.066	-0.148	-0.100
-250.049	137.668	0.127	-0.212
-249.034	258.851	-0.122	0.268
-248.019	375.674	-0.044	0.115
-247.005	-103.156	0.207	-0.062
-245.990	-135.632	-0.334	-0.050
-244.976	-70.620	-0.282	0.135
-243.961	-158.386	-0.307	-0.022
-242.946	-87.154	-0.072	0.028
-241.932	-153.248	0.171	-0.015
-240.917	-108.163	-0.223	-0.061
-239.903	-184.765	-0.363	-0.007
-238.888	34.286	0.124	0.138
-237.873	-60.753	-0.210	0.113
-236.859	-89.761	0.537	-0.199
-235.844	-21.115	-0.404	-0.314
-234.830	-14.068	-0.197	-0.162
-233.815	562.673	0.127	-0.393
-232.800	315.769	0.063	0.152
-231.786	173.741	0.206	0.380
-230.771	242.815	-0.103	0.220
-229.757	172.383	-0.177	-0.325
-228.742	-106.412	-0.155	-0.044
-227.727	-200.000	0.018	0.182
-226.713	90.072	-0.163	0.233
-225.698	-60.928	0.139	-0.075
-224.684	-82.008	-0.232	-0.096
-223.669	800.000	0.028	-0.146
-222.655	-90.133	0.170	-0.063
-221.640	-200.000	0.015	0.084
-220.625	-1.520	0.299	0.268
-219.611	-58.972	0.035	-0.019
-218.596	150.106	-0.100	-0.174
-217.582	-111.698	0.271	0.069
-216.567	-94.331	0.467	-0.161
-215.552	800.000	0.035	-0.130
-214.538	800.000	0.034	0.160
-213.523	-182.980	-0.584	-0.013
-212.509	-181.843	-0.527	-0.013
-211.494	29.908	0.234	-0.253
-210.479	-200.000	-0.026	0.183
-209.465	26.465	0.128	-0.136
-208.450	-55.680	0.348	-0.197
-207.436	-45.279	-0.403	0.254
-206.421	201.314	0.101	0.198
-205.406	97.058	-0.043	-0.063
-204.392	-200.000	0.035	0.226
-203.377	146.292	0.098	0.168
-202.363	9.627	-0.172	0.166
-201.348	800.000	-0.062	-0.261
-200.333	-52.509	-0.229	0.134
-199.319	145.676	-0.085	0.145
-198.304	665.274	-0.018	-0.061
-197.290	-44.388	-0.345	0.219
-196.275	800.000	-0.051	-0.264
-195.260	-200.000	-0.001	0.061
-194.246	-100.127	-0.394	-0.124
-193.231	-52.731	0.135	0.079
-192.217	-61.550	0.199	-0.106
-191.202	-132.985	0.412	0.066
-190.187	800.000	-0.089	0.464
-189.173	281.825	0.183	0.419
-188.158	-200.000	0.055	0.571
-187.144	-200.000	0.001	-0.401
-186.129	499.828	-0.152	0.447
-185.114	215.162	0.149	0.301
-184.100	-90.835	-0.488	0.178
-183.085	800.000	-0.111	0.431
-182.071	-125.234	-0.072	0.014
-181.056	-91.555	-0.212	0.076
-180.042	-36.544	0.309	0.211
-179.027	-23.949	-0.079	0.060
-178.012	4.232	-0.437	0.406
-176.998	-35.729	-0.351	0.241
-175.983	-200.000	-0.025	0.299
-174.969	77.638	0.277	0.376
-173.954	485.530	-0.042	0.121
-172.939	-64.126	0.220	-0.113
-171.925	-104.892	-0.401	-0.116
-170.910	435.930	-0.226	-0.628
-169.896	-200.000	-0.007	-0.271
-168.881	-200.000	-0.008	0.274
-167.866	8.480	0.040	0.039
-166.852	170.623	-0.173	-0.315
-165.837	-128.566	-0.243	0.043
-164.823	-130.361	0.088	0.015
-163.808	568.261	-0.221	-0.686
-162.793	246.516	0.138	-0.297
-161.779	-72.593	0.275	0.128
-160.764	-151.671	-0.317	-0.029
-159.750	77.987	0.239	0.323
-158.735	-44.838	-0.430	0.272
-157.720	-200.000	-0.043	0.667
-156.706	-40.873	-0.138	-0.091
-155.691	-200.000	-0.039	0.269
-154.677	49.182	0.335	0.400
-153.662	-154.111	0.307	-0.026
-152.647	-26.622	-0.311	0.230
-151.633	-10.627	0.412	0.346
-150.618	-9.172	-0.221	-0.187
-149.604	800.000	-0.109	-0.530
-148.589	-200.000	0.058	-0.584
-147.574	43.190	-0.065	0.075
-146.560	-8.606	0.206	0.175
-145.545	114.864	0.211	0.327
-144.531	85.207	-0.125	0.175
-143.516	196.840	-0.183	0.356
-142.502	-88.257	-0.162	0.061
-141.487	800.000	-0.076	-0.354
-140.472	81.959	0.073	-0.100
-139.458	79.414	-0.292	-0.397
-138.443	-200.000	0.051	-0.306
-137.429	536.751	-0.041	0.125
-136.414	-200.000	-0.001	0.110
-135.399	-200.000	-0.014	0.664
-134.385	48.914	0.360	0.429
-133.370	-111.634	-0.296	0.076
-132.356	800.000	-0.038	0.138
-131.341	-109.092	-0.099	-0.026
-130.326	173.296	0.195	-0.357
-129.312	-140.005	0.228	-0.030
-128.297	-200.000	0.075	0.573
-127.283	-200.000	0.044	0.310
-126.268	-37.907	-0.196	0.132
-125.253	68.296	-0.289	0.376
-124.239	-200.000	-0.040	-0.302
-123.224	-200.000	0.063	0.387
-122.210	703.961	0.056	0.189
-121.195	-97.062	-0.217	-0.072
-120.180	800.000	-0.032	-0.125
-119.166	113.717	0.250	-0.385
-118.151	-200.000	-0.019	-0.480
-117.137	102.666	0.151	-0.224
-116.122	45.276	0.445	-0.520
-115.107	-108.376	-0.247	-0.067
-114.093	-125.557	-0.333	0.064
-113.078	-68.735	0.477	-0.233
-112.064	-28.177	-0.129	-0.094
-111.049	-65.984	-0.249	-0.125
-110.034	7.020	-0.125	0.118
-109.020	-86.886	-0.453	-0.174
-108.005	-97.505	0.273	0.089
-106.991	-200.000	-0.048	0.285
-105.976	-86.350	-0.322	0.125
-104.962	-99.835	-0.230	-0.073
-103.947	-134.792	-0.448	0.068
-102.932	-115.938	0.190	-0.045
-101.918	-74.612	-0.320	-0.145
-100.903	19.713	0.365	0.373
-99.889	-200.000	-0.072	0.465
-98.874	39.971	0.446	0.508
-97.859	-143.596	0.123	0.015
-96.845	-115.790	-0.285	-0.067
-95.830	-140.081	-0.406	0.054
-94.816	-76.840	-0.191	-0.084
-93.801	800.000	-0.063	-0.280
-92.786	131.853	0.112	0.183
-91.772	283.041	-0.088	0.201
-90.757	-63.550	-0.469	-0.243
-89.743	-116.090	0.176	-0.041
-88.728	49.321	0.307	-0.366
-87.713	127.253	-0.072	-0.115
-86.699	-14.557	-0.193	-0.157
-85.684	17.545	0.182	0.183
-84.670	93.588	0.141	0.202
-83.655	45.520	-0.177	0.207
-82.640	800.000	0.139	0.637
-81.626	-30.292	0.121	0.087
-80.611	-48.873	0.198	-0.120
-79.597	800.000	0.175	-0.643
-78.582	-55.389	-0.309	-0.175
-77.567	-200.000	-0.009	0.274
-76.553	-160.352	-0.364	-0.024
-75.538	-135.781	0.405	0.060
-74.524	-54.238	0.260	-0.149
-73.509	210.904	-0.138	-0.275
-72.494	-110.970	-0.453	0.117
-71.480	-44.825	-0.445	-0.280
-70.465	-40.525	0.205	0.135
-69.451	41.081	0.287	0.328
-68.436	-200.000	0.001	0.346
-67.422	370.918	0.024	0.062
-66.407	308.212	0.159	-0.376
-65.392	254.573	-0.150	0.326
-64.378	-61.943	0.226	-0.119
-63.363	-103.240	0.399	-0.118
-62.349	-200.000	0.014	0.342
-61.334	55.481	-1.504	-1.842
-60.319	28.152	0.847	0.904
-59.305	302.919	-2.839	-6.675
-58.290	26.281	2.915	3.080
-57.276	281.062	4.675	10.620
-56.261	-200.000	16.533	247.569
-55.246	424.636	1211.792	3312.781
-54.232	58.570	2844.097	3532.741
-53.217	66.575	2726.931	3509.236
-52.203	39.395	2456.959	2782.707
-51.188	39.358	2108.226	2387.197
-50.173	35.320	1980.934	2196.591
-49.159	33.735	1971.148	2167.480
-48.144	33.529	1965.610	2158.943
-47.130	33.450	1962.930	2155.014
-46.115	33.413	1961.265	2152.680
-45.100	33.433	1959.766	2151.170
-44.086	33.299	1959.073	2148.803
-43.071	33.314	1958.038	2147.747
-42.057	33.354	1956.098	2145.996
-41.042	33.263	1954.342	2142.943
-40.027	33.339	1952.755	2141.985
-39.013	33.225	1951.096	2138.786
-37.998	33.312	1948.927	2137.310
-36.984	33.262	1948.432	2136.107
-35.969	33.161	1947.602	2133.969
-34.954	33.206	1946.637	2133.340
-33.940	33.182	1945.335	2131.558
-32.925	33.214	1943.550	2129.875
-31.911	33.142	1942.453	2127.777
-30.896	33.057	1941.782	2126.003
-29.881	33.119	1939.446	2124.058
-28.867	33.090	1938.409	2122.508
-27.852	33.131	1937.196	2121.554
-26.838	33.062	1935.840	2119.216
-25.823	33.065	1934.414	2117.597
-24.809	32.963	1933.217	2115.058
-23.794	33.097	1931.701	2114.819
-22.779	33.057	1930.020	2112.449
-21.765	33.075	1928.705	2111.127
-20.750	33.073	1927.160	2109.331
-19.736	33.020	1926.410	2107.831
-18.721	32.990	1925.187	2106.075
-17.706	32.922	1924.405	2104.372
-16.692	32.892	1922.793	2102.191
-15.677	32.860	1922.177	2101.069
-14.663	32.967	1920.551	2100.407
-13.648	32.755	1919.614	2096.934
-12.633	32.907	1917.343	2096.070
-11.619	32.956	1916.036	2095.099
-10.604	32.989	1914.550	2093.763
-9.590	32.915	1913.367	2091.559
-8.575	32.929	1912.535	2090.721
-7.560	32.943	1910.802	2088.901
-6.546	32.856	1910.049	2087.024
-5.531	32.893	1909.029	2086.238
-4.517	32.814	1907.932	2084.084
-3.502	32.819	1907.098	2083.142
-2.487	32.922	1905.446	2082.402
-1.473	33.094	1901.674	2080.095
-0.458	32.381	1881.652	2050.309
0.556	27.413	2014.670	2124.315
1.571	25.110	2226.466	2317.464
2.586	26.324	2270.833	2379.440
3.600	26.362	2274.271	2383.257
4.615	26.404	2273.641	2382.873
5.629	26.211	2271.532	2377.825
6.644	26.277	2269.736	2376.536
7.659	26.302	2267.801	2374.545
8.673	26.609	2265.650	2376.063
9.688	26.091	2271.701	2375.275
10.702	23.472	2346.549	2417.392
11.717	20.743	2410.969	2444.991
12.731	10.589	2386.180	2276.981
13.746	1.662	2361.774	2128.348
14.761	0.353	2356.824	2105.266
15.775	0.149	2354.510	2100.085
16.790	0.144	2352.555	2098.028
17.804	0.146	2350.943	2096.362
18.819	0.158	2350.702	2096.061
19.834	0.168	2348.488	2093.980
20.848	0.075	2347.874	2091.874
21.863	0.166	2346.150	2091.361
22.877	0.089	2343.350	2087.549
23.892	0.081	2341.821	2085.823
24.907	0.071	2339.270	2083.166
25.921	0.035	2338.755	2081.956
26.936	0.047	2335.897	2079.326
27.950	0.090	2332.977	2077.079
28.965	0.104	2331.170	2075.411
29.980	0.142	2329.661	2074.346
30.994	0.330	2328.130	2075.337
32.009	5.921	2346.754	2169.532
33.023	17.562	2380.994	2364.205
34.038	22.009	2388.302	2433.279
35.053	22.148	2385.644	2432.218
36.067	22.121	2382.707	2428.558
37.082	22.106	2380.286	2425.582
38.096	21.943	2378.817	2421.537
39.111	22.101	2376.778	2421.363
40.126	22.232	2374.223	2420.282
41.140	22.293	2373.377	2419.970
42.155	22.432	2371.822	2420.021
43.169	22.416	2369.148	2416.772
44.184	22.314	2366.797	2412.685
45.199	22.250	2364.819	2409.494
46.213	22.293	2363.423	2408.384
47.228	22.289	2361.986	2406.575
48.242	22.221	2360.877	2404.218
49.257	22.337	2358.576	2403.179
50.271	22.654	2357.093	2405.736
51.286	22.549	2354.795	2401.652
52.301	22.345	2352.935	2396.686
53.315	23.106	2354.696	2408.610
54.330	25.016	2359.668	2439.572
55.344	26.265	2360.209	2456.927
56.359	26.495	2357.529	2456.977
57.374	26.479	2356.629	2455.538
58.388	26.613	2352.525	2452.789
59.403	26.305	2348.895	2444.524
60.417	26.045	2345.349	2437.002
61.432	26.118	2343.896	2436.193
62.447	26.192	2342.105	2435.046
63.461	26.337	2340.791	2435.360
64.476	26.291	2340.016	2433.636
65.490	26.320	2337.135	2430.733
66.505	25.777	2334.525	2420.398
67.520	24.187	2328.512	2392.431
68.534	23.197	2322.626	2372.765
69.549	22.675	2318.586	2361.326
70.563	22.497	2314.837	2354.834
71.578	22.621	2313.836	2355.198
72.593	22.677	2311.713	2353.507
73.607	22.420	2310.378	2348.432
74.622	22.602	2308.146	2348.320
75.636	22.769	2306.526	2348.615
76.651	22.759	2304.310	2345.949
77.666	22.714	2302.824	2343.546
78.680	22.615	2299.762	2338.831
79.695	22.356	2297.213	2332.516
80.709	22.132	2294.899	2326.907
81.724	21.980	2292.581	2322.253
82.739	22.127	2290.377	2321.702
83.753	22.603	2288.896	2326.227
84.768	22.431	2287.840	2322.604
85.782	22.570	2287.263	2323.579
86.797	22.587	2284.941	2321.162
87.812	22.393	2282.636	2315.977
88.826	22.602	2281.761	2317.572
89.841	22.629	2279.745	2315.611
90.855	22.621	2276.250	2311.684
91.870	22.598	2274.857	2309.677
92.884	22.510	2273.129	2306.495
93.899	22.530	2270.871	2304.187
94.914	22.587	2273.395	2307.226
95.928	24.117	2277.955	2331.731
96.943	24.980	2276.017	2340.814
97.957	23.709	2268.737	2316.391
98.972	22.753	2265.090	2299.866
99.987	22.604	2262.076	2294.589
101.001	22.612	2259.182	2291.482
102.016	22.634	2257.412	2289.701
103.030	22.434	2254.602	2283.969
104.045	22.202	2251.387	2277.410
105.060	22.336	2249.571	2277.050
106.074	22.479	2248.160	2277.201
107.089	22.434	2245.884	2274.049
108.103	22.179	2244.078	2268.635
109.118	22.276	2242.993	2268.531
110.133	22.360	2242.016	2268.348
111.147	22.625	2239.479	2268.947
112.162	22.606	2239.007	2267.953
113.176	22.582	2235.880	2264.197
114.191	22.382	2233.106	2258.536
115.206	22.319	2232.019	2256.356
116.220	22.517	2230.811	2257.414
117.235	22.480	2228.932	2254.770
118.249	22.537	2225.942	2252.204
119.264	22.254	2224.975	2247.328
120.279	22.173	2223.968	2245.001
121.293	22.426	2222.014	2245.998
122.308	22.413	2221.256	2244.805
123.322	22.371	2218.527	2241.230
124.337	22.494	2217.697	2241.699
125.352	24.103	2223.524	2267.943
126.366	25.098	2222.870	2279.723
127.381	23.825	2215.650	2255.818
128.395	22.936	2212.101	2240.617
129.410	22.732	2208.215	2233.817
130.424	22.655	2208.044	2232.397
131.439	23.030	2206.327	2235.157
132.454	22.972	2204.023	2231.815
133.468	23.011	2201.589	2229.575
134.483	22.894	2199.757	2225.970
135.497	22.722	2198.783	2222.544
136.512	22.641	2195.954	2218.402
137.527	22.773	2194.124	2217.944
138.541	22.758	2193.267	2216.628
139.556	22.719	2193.737	2216.340
140.570	22.818	2191.494	2215.057
141.585	22.570	2187.556	2207.693
142.600	22.236	2185.802	2201.456
143.614	22.236	2184.527	2199.910
144.629	22.311	2182.155	2198.201
145.643	22.107	2180.945	2194.155
146.658	22.254	2178.778	2193.563
147.673	22.138	2176.426	2189.478
148.687	22.031	2175.310	2186.756
149.702	22.169	2174.742	2187.648
150.716	22.566	2174.471	2192.078
151.731	22.768	2174.156	2194.022
152.746	22.487	2171.944	2188.016
153.760	22.926	2173.179	2194.478
154.775	24.402	2177.439	2216.962
155.789	25.189	2176.121	2225.185
156.804	23.995	2168.958	2202.740
157.819	22.736	2162.090	2179.877
158.833	22.306	2159.722	2171.890
159.848	22.288	2157.519	2169.196
160.862	22.418	2155.539	2168.550
161.877	22.591	2154.042	2168.933
162.892	22.530	2154.265	2168.137
163.906	22.536	2152.534	2166.212
164.921	22.544	2149.572	2163.070
165.935	22.247	2147.351	2156.921
166.950	22.270	2146.538	2156.119
167.964	22.502	2143.623	2155.798
168.979	22.270	2142.773	2151.822
169.994	22.196	2141.792	2149.679
171.008	22.304	2139.023	2147.962
172.023	22.169	2138.055	2145.084
173.037	22.305	2137.346	2145.780
174.052	22.483	2134.740	2145.080
175.067	22.414	2133.359	2142.596
176.081	22.462	2132.394	2141.952
177.096	22.672	2132.175	2144.044
178.110	22.796	2130.988	2144.112
179.125	22.952	2129.093	2143.851
180.140	22.850	2127.425	2140.677
181.154	22.863	2126.451	2139.597
182.169	22.817	2125.923	2138.247
183.183	23.294	2127.254	2145.136
184.198	25.041	2130.762	2169.703
185.213	25.339	2128.673	2170.936
186.227	23.763	2122.145	2144.906
187.242	22.778	2117.818	2128.346
188.256	22.572	2115.395	2123.164
189.271	22.898	2113.511	2124.957
190.286	22.491	2111.706	2117.972
191.300	22.487	2109.889	2115.842
192.315	22.688	2107.717	2115.844
193.329	22.727	2107.572	2115.915
194.344	22.781	2105.880	2114.606
195.359	22.789	2103.788	2112.347
196.373	22.706	2102.616	2109.920
197.388	22.706	2099.260	2106.302
198.402	22.630	2096.996	2102.874
199.417	22.693	2095.096	2101.463
200.432	22.519	2094.099	2098.134
201.446	22.255	2092.940	2093.565
202.461	22.469	2090.971	2093.896
203.475	22.339	2089.023	2090.144
204.490	22.331	2086.943	2087.719
205.504	22.278	2084.650	2084.549
206.519	22.348	2081.996	2082.473
207.534	22.354	2081.268	2081.567
208.548	22.374	2080.789	2081.081
209.563	22.467	2079.035	2080.176
210.577	22.673	2077.929	2081.266
211.592	22.759	2076.666	2080.769
212.607	23.357	2078.736	2089.686
213.621	24.949	2083.290	2112.914
214.636	24.980	2079.439	2109.125
215.650	23.688	2074.176	2088.270
216.665	23.139	2070.187	2077.524
217.680	22.731	2068.266	2070.531
218.694	22.414	2065.457	2063.739
219.709	22.258	2063.650	2059.854
220.723	22.261	2062.204	2058.199
221.738	22.402	2061.713	2059.122
222.753	22.582	2058.685	2057.959
223.767	22.476	2057.838	2055.630
224.782	22.624	2056.054	2055.330
225.796	22.494	2053.706	2051.211
226.811	22.466	2052.276	2049.212
227.826	22.325	2050.719	2045.763
228.840	22.155	2049.191	2042.013
229.855	22.349	2048.553	2043.395
230.869	22.514	2047.714	2044.247
231.884	22.778	2046.467	2045.823
232.899	22.736	2044.780	2043.403
233.913	22.648	2043.585	2040.946
234.928	22.492	2042.098	2037.408
235.942	22.355	2039.649	2033.121
236.957	22.444	2038.173	2032.448
237.972	22.561	2038.101	2033.481
238.986	22.507	2036.184	2030.705
240.001	22.325	2033.494	2025.675
241.015	22.387	2032.920	2025.573
242.030	23.166	2036.051	2037.471
243.045	24.742	2038.105	2057.525
244.059	25.246	2036.760	2061.745
245.074	23.838	2029.344	2037.778
246.088	22.984	2025.048	2023.391
247.103	22.874	2024.857	2021.694
248.117	23.459	2024.139	2027.463
249.132	23.421	2021.901	2024.539
250.147	23.106	2018.949	2017.736
251.161	22.713	2016.610	2010.655
252.176	22.783	2015.250	2009.861
253.190	22.722	2013.212	2006.886
254.205	22.662	2010.660	2003.415
255.220	22.492	2009.051	1999.634
256.234	22.062	2007.834	1993.284
257.249	22.135	2006.696	1992.741
258.263	22.164	2005.140	1991.287
259.278	22.130	2003.960	1989.496
260.293	22.225	2003.498	1989.873
261.307	22.360	2001.783	1989.475
262.322	22.546	2000.441	1990.013
263.336	22.269	1998.591	1984.789
264.351	22.374	1995.893	1983.065
265.366	22.361	1995.909	1982.688
266.380	22.405	1994.927	1981.974
267.395	22.517	1993.962	1982.044
268.409	22.759	1991.630	1982.226
269.424	22.636	1989.590	1978.569
270.439	22.368	1989.755	1975.473
271.453	23.422	1990.941	1988.302
272.468	24.981	1993.620	2008.331
273.482	24.966	1991.168	2005.445
274.497	23.656	1982.988	1982.282
275.512	22.796	1979.911	1969.322
276.526	22.633	1976.486	1963.860
277.541	22.332	1975.210	1958.985
278.555	22.091	1973.808	1954.667
279.570	22.340	1971.509	1954.939
280.585	22.379	1970.267	1953.903
281.599	22.293	1969.148	1951.608
282.614	22.323	1968.398	1950.957
283.628	22.682	1967.988	1954.324
284.643	22.669	1966.180	1952.146
285.657	22.469	1963.660	1947.195
286.672	22.450	1962.331	1945.426
287.687	22.344	1961.058	1942.758
288.701	22.341	1959.785	1941.225
289.716	22.217	1957.351	1937.217
290.730	22.021	1956.237	1933.713
291.745	22.534	1956.070	1938.990
292.760	22.577	1955.960	1939.126
293.774	22.444	1954.553	1936.024
294.789	22.459	1952.658	1934.078
295.803	22.574	1950.642	1933.127
296.818	22.514	1949.217	1930.820
297.833	22.810	1948.847	1933.482
298.847	22.588	1947.090	1929.058
299.862	22.446	1944.633	1924.833
300.876	23.156	1945.443	1933.212
301.891	24.903	1950.411	1957.126
302.906	25.311	1948.384	1959.335
303.920	23.440	1942.366	1932.575
304.935	22.631	1938.259	1919.405
305.949	22.525	1935.669	1915.448
306.964	22.505	1933.443	1912.801
307.979	22.224	1931.556	1907.647
308.993	21.996	1929.654	1903.051
310.008	21.811	1926.932	1898.131
311.022	21.606	1925.328	1894.093
312.037	21.558	1924.000	1892.036
313.052	21.529	1921.475	1889.011
314.066	21.410	1920.619	1886.656
315.081	21.458	1919.988	1886.324
316.095	21.426	1918.624	1884.419
317.110	21.260	1916.133	1879.943
318.125	21.150	1914.035	1876.479
319.139	21.130	1913.076	1875.091
320.154	21.396	1911.704	1876.389
321.168	21.438	1910.564	1875.506
322.183	21.919	1910.532	1880.433
323.197	22.305	1910.345	1884.179
324.212	22.460	1908.379	1883.680
325.227	22.195	1907.005	1879.251
326.241	22.529	1906.188	1881.806
327.256	22.753	1904.314	1882.137
328.270	22.362	1903.584	1876.992
329.285	22.343	1903.071	1876.068
330.300	22.832	1905.192	1883.172
331.314	24.779	1908.681	1907.282
332.329	25.034	1905.397	1906.505
333.343	23.408	1898.877	1882.405
334.358	22.419	1894.969	1867.767
335.373	22.278	1892.400	1863.512
336.387	22.407	1891.961	1864.232
337.402	22.592	1890.196	1864.230
338.416	22.619	1888.571	1862.697
339.431	22.555	1887.585	1860.817
340.446	22.373	1885.176	1856.296
341.460	22.394	1883.315	1854.456
342.475	22.170	1880.867	1849.457
343.489	21.592	1878.954	1841.244
344.504	21.392	1877.711	1837.698
345.519	21.482	1875.344	1836.106
346.533	21.430	1873.032	1833.077
347.548	21.497	1872.401	1832.948
348.562	21.596	1871.534	1832.920
349.577	21.579	1870.901	1831.904
350.592	21.695	1871.006	1833.002
351.606	21.768	1869.192	1831.772
352.621	21.558	1866.817	1827.031
353.635	21.517	1866.385	1825.957
354.650	21.900	1866.866	1830.222
355.665	22.260	1865.442	1832.376
356.679	22.260	1863.222	1829.980
357.694	22.539	1862.573	1832.037
358.708	22.546	1861.492	1830.829
359.723	23.241	1863.480	1839.832
360.738	24.990	1866.745	1861.116
361.752	25.134	1864.050	1859.704
362.767	24.056	1858.606	1842.840
363.781	23.173	1854.747	1829.618
364.796	22.701	1852.516	1822.301
365.810	22.691	1851.638	1821.113
366.825	22.722	1849.592	1819.206
367.840	21.911	1847.389	1808.427
368.854	21.331	1845.382	1800.240
369.869	21.245	1844.380	1798.156
370.883	21.533	1842.928	1799.500
371.898	21.789	1841.694	1800.730
372.913	21.648	1839.700	1797.106
373.927	21.462	1837.648	1792.970
374.942	21.402	1837.140	1791.643
375.956	21.683	1836.078	1793.282
376.971	22.035	1834.557	1795.198
377.986	21.921	1833.600	1792.881
379.000	21.872	1832.034	1790.635
380.015	21.825	1830.434	1788.370
381.029	22.201	1829.344	1790.946
382.044	22.295	1827.491	1789.875
383.059	22.417	1826.298	1789.736
384.073	22.414	1826.507	1789.695
385.088	22.621	1825.636	1790.751
386.102	22.544	1824.280	1788.416
387.117	22.244	1821.434	1782.360
388.132	22.259	1821.203	1782.067
389.146	22.993	1824.077	1792.150
390.161	24.927	1826.203	1813.740
391.175	24.997	1821.359	1809.420
392.190	23.202	1814.948	1784.665
393.205	22.616	1811.934	1775.551
394.219	22.260	1809.680	1769.533
395.234	22.123	1808.008	1766.297
396.248	22.250	1806.413	1765.815
397.263	22.127	1804.706	1762.698
398.278	22.396	1802.699	1763.228
399.292	22.318	1801.984	1761.534
400.307	22.141	1800.853	1758.438
401.321	22.158	1799.339	1756.924
402.336	22.469	1798.436	1758.948
403.350	22.431	1797.277	1757.222
404.365	22.390	1795.149	1754.526
405.380	22.009	1792.684	1748.094
406.394	21.351	1791.130	1739.789
407.409	21.315	1789.326	1737.467
408.423	21.391	1788.024	1736.756
409.438	21.447	1786.324	1735.456
410.453	21.465	1785.908	1735.022
411.467	21.606	1785.239	1735.567
412.482	21.709	1783.983	1735.165
413.496	22.164	1783.772	1739.283
414.511	22.710	1782.718	1743.471
415.526	22.743	1780.486	1741.406
416.540	22.499	1778.021	1736.371
417.555	22.349	1778.164	1734.812
418.569	22.710	1778.974	1738.972
419.584	22.698	1778.359	1738.046
420.599	22.810	1778.298	1738.883
421.613	23.095	1777.154	1740.377
422.628	22.923	1775.497	1736.852
423.642	22.527	1772.077	1729.392
424.657	22.365	1770.713	1726.254
425.672	22.746	1769.722	1728.830
426.686	22.596	1767.761	1725.235
427.701	22.109	1766.509	1719.018
428.715	22.172	1764.552	1717.528
429.730	22.165	1763.665	1716.395
430.745	22.252	1762.263	1715.672
431.759	22.387	1762.567	1717.086
432.774	22.605	1762.583	1719.034
433.788	22.485	1761.254	1716.354
434.803	22.356	1760.324	1713.979
435.818	22.354	1759.208	1712.675
436.832	22.380	1758.398	1711.931
437.847	21.707	1752.583	1699.511
438.861	13.704	1728.331	1598.535
439.876	2.892	1708.766	1476.210
440.890	0.541	1702.698	1448.141
441.905	0.281	1701.590	1444.515
442.920	0.228	1700.463	1442.884
443.934	0.118	1699.834	1441.113
444.949	0.232	1697.497	1440.054
445.963	0.094	1697.463	1438.527
446.978	0.110	1697.075	1438.181
447.993	0.120	1694.963	1436.315
449.007	0.132	1693.520	1435.036
450.022	0.175	1691.133	1433.250
451.036	0.103	1690.223	1431.621
452.051	1.598	1697.059	1451.585
453.066	11.738	1719.663	1568.916
454.080	21.062	1733.797	1671.859
455.095	23.426	1738.650	1699.140
456.109	24.967	1741.995	1717.070
457.124	25.771	1741.532	1724.155
458.139	25.453	1740.815	1720.172
459.153	25.467	1739.125	1718.438
460.168	25.473	1736.627	1715.818
461.182	25.650	1735.018	1715.720
462.197	25.723	1733.985	1715.191
463.212	25.585	1731.785	1711.491
464.226	25.394	1731.819	1709.495
465.241	26.075	1730.205	1714.204
466.255	26.192	1729.629	1714.542
467.270	26.330	1728.398	1714.435
468.285	25.841	1726.828	1708.007
469.299	25.863	1724.971	1706.181
470.314	26.225	1723.076	1707.544
471.328	26.218	1722.745	1706.946
472.343	26.198	1721.681	1705.495
473.358	26.239	1720.747	1704.747
474.372	26.289	1719.906	1704.188
475.387	26.323	1717.614	1702.038
476.401	26.069	1716.657	1698.480
477.416	25.746	1715.631	1694.211
478.430	26.114	1714.107	1695.981
479.445	26.045	1712.681	1693.709
480.460	25.712	1710.827	1688.533
481.474	25.848	1710.296	1689.087
482.489	26.291	1709.954	1692.726
483.503	26.730	1707.989	1694.702
484.518	26.657	1706.385	1692.223
485.533	26.678	1705.924	1691.759
486.547	26.495	1704.772	1688.703
487.562	27.024	1704.034	1692.725
488.576	26.981	1702.588	1690.682
489.591	26.800	1701.309	1687.521
490.606	26.614	1699.570	1683.857
491.620	26.796	1697.807	1683.604
492.635	27.170	1696.739	1685.828
493.649	27.145	1695.694	1684.361
494.664	26.515	1693.161	1675.779
495.679	25.743	1690.710	1665.969
496.693	26.040	1689.751	1667.589
497.708	26.401	1689.945	1670.936
498.722	26.821	1690.337	1675.020
499.737	26.989	1688.712	1674.769
500.752	26.688	1685.703	1668.802
501.766	26.395	1684.434	1664.630
502.781	26.766	1682.744	1666.190
503.795	26.779	1680.920	1664.307
504.810	26.589	1680.640	1662.077
505.825	26.704	1679.781	1662.087
506.839	26.682	1678.214	1660.140
507.854	26.664	1676.509	1658.087
508.868	26.468	1675.288	1654.877
509.883	26.388	1674.154	1652.823
510.898	26.552	1672.917	1652.910
511.912	26.250	1671.212	1648.261
512.927	25.814	1668.258	1641.159
513.941	25.838	1667.171	1640.113
514.956	25.789	1666.324	1638.628
515.971	26.082	1665.365	1640.170
516.985	26.189	1663.764	1639.371
518.000	25.995	1663.781	1637.424
519.014	26.152	1663.402	1638.287
520.029	26.324	1661.190	1637.481
521.043	26.348	1659.450	1635.784
522.058	26.206	1658.247	1633.116
523.073	26.377	1657.781	1634.010
524.087	26.839	1657.719	1637.949
525.102	26.987	1655.891	1637.290
526.116	26.601	1654.360	1632.084
527.131	26.441	1653.394	1629.487
528.146	27.017	1653.495	1634.605
529.160	27.368	1652.779	1636.877
530.175	27.381	1652.101	1636.125
531.189	27.672	1650.775	1637.245
532.204	27.524	1649.604	1634.550
533.219	27.102	1647.354	1628.323
534.233	26.719	1645.486	1622.842
535.248	26.806	1644.902	1622.853
536.262	27.506	1644.988	1629.032
537.277	27.502	1644.284	1628.108
538.292	27.371	1642.003	1624.479
539.306	27.307	1639.728	1621.463
540.321	27.197	1638.342	1618.913
541.335	27.018	1636.640	1615.432
542.350	27.250	1636.384	1617.059
543.365	27.525	1635.571	1618.518
544.379	27.772	1634.060	1619.039
545.394	27.757	1632.674	1617.337
546.408	27.182	1629.617	1609.001
547.423	26.773	1628.036	1603.611
548.438	26.553	1626.861	1600.308
549.452	26.978	1626.308	1603.345
550.467	27.210	1625.320	1604.238
551.481	27.219	1625.586	1604.388
552.496	27.374	1625.561	1605.543
553.511	27.841	1624.327	1608.271
554.525	27.717	1622.787	1605.458
555.540	27.729	1621.966	1604.558
556.554	27.791	1620.371	1603.335
557.569	27.701	1618.253	1600.254
558.583	27.264	1616.686	1594.662
559.598	27.256	1615.634	1593.366
560.613	27.294	1613.845	1591.737
561.627	27.292	1612.632	1590.341
562.642	27.257	1611.788	1589.008
563.656	27.414	1610.674	1589.100
564.671	27.347	1608.993	1586.664
565.686	27.217	1607.499	1583.861
566.700	26.846	1605.958	1578.905
567.715	26.655	1604.136	1575.257
568.729	26.703	1602.033	1573.424
569.744	26.744	1600.382	1571.970
570.759	26.960	1599.483	1572.780
571.773	26.869	1598.841	1571.172
572.788	27.035	1597.787	1571.387
573.802	27.009	1596.293	1569.507
574.817	27.005	1595.105	1568.113
575.832	27.223	1594.937	1569.657
576.846	27.579	1594.076	1571.703
577.861	27.454	1593.246	1569.613
578.875	27.632	1592.989	1570.717
579.890	27.972	1591.954	1572.449
580.905	28.117	1591.535	1573.097
581.919	28.191	1590.779	1572.805
582.934	28.419	1590.387	1574.196
583.948	28.396	1588.892	1572.329
584.963	28.209	1586.836	1568.495
585.978	27.806	1584.718	1562.746
586.992	27.735	1584.171	1561.410
588.007	28.140	1583.996	1564.537
589.021	27.408	1580.806	1554.915
590.036	26.668	1578.689	1546.298
591.051	27.466	1578.558	1552.827
592.065	27.959	1578.437	1556.743
593.080	28.118	1577.506	1557.002
594.094	28.362	1575.075	1556.503
595.109	27.738	1572.535	1548.484
596.123	27.394	1570.954	1543.811
597.138	27.680	1570.744	1545.851
598.153	28.014	1569.786	1547.566
599.167	27.955	1568.145	1545.263
600.182	27.933	1567.056	1543.820
601.196	28.106	1566.728	1544.783
602.211	28.112	1565.468	1543.403
603.226	28.277	1564.610	1543.774
604.240	28.328	1564.036	1543.453
605.255	28.621	1562.281	1544.018
606.269	28.446	1561.777	1541.855
607.284	28.357	1560.435	1539.590
608.299	28.343	1558.483	1537.360
609.313	28.219	1556.111	1533.794
610.328	28.080	1555.170	1531.512
611.342	28.203	1554.269	1531.481
612.357	28.273	1553.872	1531.488
613.372	28.234	1552.860	1529.983
614.386	28.018	1551.464	1526.613
615.401	28.069	1550.977	1526.378
616.415	28.024	1549.537	1524.396
617.430	27.959	1548.818	1522.962
618.445	27.797	1547.626	1520.253
619.459	27.669	1545.096	1516.519
620.474	27.378	1543.779	1512.612
621.488	27.062	1542.374	1508.414
622.503	26.997	1541.349	1506.695
623.518	27.164	1540.487	1507.063
624.532	27.605	1539.426	1509.520
625.547	27.507	1539.231	1508.327
626.561	27.696	1538.457	1508.964
627.576	28.055	1537.046	1510.374
628.591	27.639	1535.360	1505.087
629.605	27.506	1533.922	1502.401
630.620	27.440	1533.040	1500.806
631.634	27.478	1531.643	1499.575
632.649	27.634	1530.751	1499.814
633.663	27.812	1529.652	1500.021
634.678	27.890	1528.554	1499.413
635.693	27.882	1527.286	1497.925
636.707	27.996	1525.996	1497.420
637.722	28.090	1525.087	1497.118
638.736	28.337	1525.285	1499.168
639.751	28.620	1523.537	1499.597
640.766	28.535	1521.800	1497.006
641.780	28.563	1521.138	1496.412
642.795	28.553	1519.880	1494.905
643.809	28.669	1519.634	1495.439
644.824	28.972	1519.043	1497.154
645.839	28.964	1518.262	1496.144
646.853	28.960	1516.506	1494.197
647.868	28.730	1515.228	1490.886
648.882	28.621	1513.546	1488.165
649.897	28.513	1512.014	1485.600
650.912	28.473	1510.130	1483.247
651.926	28.566	1510.229	1483.921
652.941	28.412	1508.623	1480.916
653.955	27.870	1505.567	1473.345
654.970	27.123	1502.532	1464.153
655.985	27.099	1501.069	1462.357
656.999	27.109	1500.503	1461.707
658.014	27.588	1499.716	1464.634
659.028	28.064	1500.565	1469.138
660.043	28.465	1499.930	1471.577
661.058	28.682	1498.542	1471.787
662.072	28.777	1497.756	1471.604
663.087	28.552	1496.847	1468.725
664.101	28.304	1496.066	1465.789
665.116	28.597	1494.850	1466.771
666.131	28.712	1493.825	1466.516
667.145	28.724	1492.728	1465.356
668.160	28.845	1491.465	1464.911
669.174	28.933	1490.061	1464.064
670.189	28.909	1489.524	1463.169
671.204	28.854	1488.638	1461.684
672.218	28.908	1487.311	1460.640
673.233	29.202	1486.317	1461.829
674.247	29.295	1485.183	1461.279
675.262	29.078	1485.190	1459.385
676.276	29.118	1483.646	1458.013
677.291	29.015	1481.844	1455.245
678.306	28.828	1480.414	1452.186
679.320	28.527	1479.502	1448.722
680.335	28.609	1478.713	1448.428
681.349	28.894	1477.963	1449.782
682.364	28.961	1476.467	1448.670
683.379	28.784	1475.044	1445.698
684.393	28.657	1474.289	1443.781
685.408	28.627	1473.230	1442.337
686.422	28.572	1471.572	1440.111
687.437	28.367	1470.331	1437.103
688.452	28.347	1469.459	1435.927
689.466	28.510	1467.594	1435.208
690.481	28.216	1465.877	1431.053
691.495	28.180	1465.127	1429.862
692.510	27.928	1464.085	1426.695
693.525	27.846	1461.945	1423.797
694.539	27.890	1461.230	1423.275
695.554	28.195	1460.674	1424.953
696.568	28.325	1460.079	1425.222
697.583	28.203	1459.637	1423.666
698.598	28.593	1459.180	1426.091
699.612	28.712	1457.724	1425.427
700.627	28.903	1456.929	1425.971
701.641	29.123	1455.451	1426.068
702.656	29.033	1455.121	1424.870
703.671	29.338	1454.921	1426.875
704.685	29.301	1454.874	1426.371
705.700	29.189	1452.520	1423.027
706.714	28.993	1449.600	1418.471
707.729	28.754	1448.484	1415.359
708.744	28.741	1447.731	1414.358
709.758	28.646	1445.813	1411.580
710.773	28.036	1444.297	1405.221
711.787	27.889	1442.446	1402.119
712.802	28.368	1441.921	1405.127
713.816	28.729	1441.957	1407.782
714.831	28.866	1441.337	1408.061
715.846	28.998	1439.859	1407.459
716.860	29.119	1438.847	1407.236
717.875	28.885	1438.234	1404.668
718.889	28.862	1436.296	1402.435
719.904	28.866	1435.609	1401.628
720.919	29.135	1434.371	1402.305
721.933	29.036	1433.627	1400.651
722.948	28.940	1432.462	1398.613
723.962	28.933	1431.488	1397.446
724.977	29.026	1430.629	1397.151
725.992	29.131	1429.945	1397.110
727.006	29.158	1428.630	1395.869
728.021	29.108	1427.912	1394.614
729.035	29.291	1426.577	1394.536
730.050	29.214	1425.178	1392.422
731.065	29.272	1424.136	1391.671
732.079	29.180	1423.107	1389.806
733.094	29.245	1421.930	1388.979
734.108	29.104	1420.100	1385.958
735.123	29.073	1418.926	1384.411
736.138	28.986	1418.219	1382.905
737.152	29.020	1417.248	1382.050
738.167	29.147	1415.642	1381.269
739.181	29.277	1415.158	1381.615
740.196	29.366	1414.486	1381.464
741.211	29.164	1413.597	1378.913
742.225	29.058	1412.468	1376.847
743.240	29.123	1410.285	1375.042
744.254	28.983	1409.046	1372.617
745.269	28.822	1407.072	1369.324
746.284	28.562	1406.830	1366.980
747.298	28.295	1405.800	1363.820
748.313	28.219	1403.854	1361.195
749.327	28.047	1403.603	1359.505
750.342	27.937	1402.696	1357.645
751.356	27.903	1401.191	1355.772
752.371	28.036	1400.168	1355.606
753.386	28.197	1399.747	1356.239
754.400	28.619	1399.619	1359.093
755.415	28.975	1399.351	1361.318
756.429	29.507	1397.345	1363.153
757.444	29.521	1395.779	1361.567
758.459	29.325	1395.632	1359.812
759.473	29.241	1394.211	1357.638
760.488	29.074	1392.159	1354.248
761.502	29.077	1390.946	1352.920
762.517	28.984	1390.561	1351.701
763.532	29.226	1389.205	1352.009
764.546	28.779	1387.377	1346.772
765.561	28.241	1385.486	1340.813
766.575	27.546	1383.910	1334.015
767.590	27.399	1382.841	1331.746
768.605	28.265	1382.691	1337.805
769.619	28.876	1381.868	1341.332
770.634	28.926	1381.474	1341.155
771.648	28.918	1380.728	1340.211
772.663	28.776	1380.144	1338.444
773.678	29.013	1379.239	1339.144
774.692	29.311	1378.837	1340.770
775.707	29.265	1378.267	1339.716
776.721	29.357	1377.595	1339.575
777.736	29.192	1376.003	1336.664
778.751	29.256	1375.478	1336.460
779.765	29.230	1374.477	1335.141
780.780	29.268	1373.388	1334.199
781.794	29.244	1372.291	1332.797
782.809	28.805	1370.417	1327.631
783.824	28.546	1368.891	1324.120
784.838	28.322	1367.108	1320.611
785.853	28.018	1366.204	1317.374
786.867	28.195	1365.908	1318.217
787.882	28.278	1365.180	1317.953
788.897	28.376	1364.508	1317.859
789.911	28.342	1362.906	1315.905
790.926	28.433	1361.651	1315.195
791.940	28.508	1360.840	1314.793
792.955	28.934	1359.460	1316.373
793.969	28.846	1358.545	1314.694
794.984	28.879	1358.645	1314.871
795.999	29.119	1357.368	1315.201
797.013	29.314	1355.373	1314.506
798.028	29.173	1354.690	1312.677
799.042	29.242	1353.694	1312.052
800.057	29.376	1352.326	1311.526
801.072	29.309	1351.512	1310.098
802.086	29.327	1350.234	1308.828
803.101	29.286	1349.350	1307.528
804.115	29.280	1348.355	1306.361
805.130	29.315	1347.486	1305.614
806.145	29.244	1345.557	1303.080
807.159	28.959	1343.948	1299.345
808.174	29.145	1343.156	1299.742
809.188	29.217	1341.605	1298.598
810.203	28.936	1340.278	1295.170
811.218	28.514	1338.316	1290.135
812.232	28.208	1335.965	1285.551
813.247	27.710	1335.368	1281.307
814.261	28.368	1336.107	1286.511
815.276	28.788	1336.009	1289.227
816.291	28.870	1334.700	1288.384
817.305	28.855	1333.632	1287.093
818.320	29.136	1332.111	1287.450
819.334	29.028	1331.993	1286.423
820.349	29.273	1330.603	1286.647
821.364	29.388	1328.546	1285.306
822.378	29.324	1327.905	1284.083
823.393	29.229	1326.031	1281.454
824.407	29.278	1324.675	1280.337
825.422	28.985	1324.772	1278.225
826.437	28.944	1323.477	1276.537
827.451	28.671	1320.592	1271.706
828.466	28.275	1319.194	1267.452
829.480	28.320	1317.463	1265.951
830.495	28.218	1315.871	1263.561
831.509	28.486	1315.565	1264.974
832.524	28.685	1314.755	1265.419
833.539	28.807	1314.292	1265.667
834.553	28.967	1312.992	1265.376
835.568	29.107	1312.193	1265.421
836.582	29.142	1311.503	1264.844
837.597	29.135	1310.277	1263.460
838.612	28.927	1308.218	1259.892
839.626	28.942	1306.576	1258.263
840.641	28.810	1305.650	1256.311
841.655	28.446	1304.796	1252.844
842.670	27.823	1302.348	1246.067
843.685	27.300	1300.712	1240.770
844.699	28.020	1300.584	1245.430
845.714	28.682	1299.405	1248.684
846.728	28.651	1299.261	1248.185
847.743	28.665	1298.747	1247.632
848.758	28.840	1297.791	1247.760
849.772	29.037	1296.557	1247.768
850.787	29.019	1295.548	1246.522
851.801	29.099	1294.361	1245.776
852.816	29.164	1292.663	1244.434
853.831	29.092	1291.303	1242.492
854.845	28.915	1289.463	1239.370
855.860	28.595	1287.505	1235.173
856.874	28.394	1286.328	1232.541
857.889	28.247	1285.495	1230.602
858.904	28.301	1284.546	1229.908
859.918	28.423	1282.728	1228.843
860.933	28.148	1281.629	1225.796
861.947	28.190	1280.536	1224.883
862.962	28.480	1278.995	1225.214
863.977	28.245	1278.390	1222.908
864.991	28.409	1278.057	1223.545
866.006	28.434	1277.430	1222.963
867.020	28.687	1276.492	1223.613
868.035	29.000	1275.236	1224.361
869.049	29.027	1274.913	1224.081
870.064	28.924	1274.612	1222.958
871.079	29.054	1273.197	1222.320
872.093	28.930	1271.676	1219.885
873.108	28.827	1271.125	1218.524
874.122	28.637	1269.179	1215.254
875.137	28.179	1268.300	1211.218
876.152	27.983	1267.094	1208.617
877.166	28.157	1265.090	1207.716
878.181	28.394	1264.323	1208.414
879.195	28.577	1264.386	1209.540
880.210	28.605	1264.151	1209.357
881.225	28.947	1262.622	1210.013
882.239	28.909	1261.892	1208.918
883.254	28.886	1261.089	1207.850
884.268	29.157	1259.930	1208.383
885.283	28.969	1259.035	1206.138
886.298	28.874	1257.179	1203.591
887.312	28.882	1256.152	1202.515
888.327	28.963	1255.184	1201.979
889.341	28.827	1254.120	1199.921
890.356	28.685	1253.130	1197.900
891.371	28.696	1252.714	1197.436
892.385	28.600	1251.440	1195.445
893.400	28.172	1251.427	1192.483
894.414	28.398	1249.468	1191.954
895.429	28.333	1247.004	1189.033
896.444	28.110	1245.175	1185.697
897.458	28.034	1243.595	1183.559
898.473	27.884	1244.139	1182.957
899.487	28.146	1243.382	1183.798
900.502	28.381	1242.141	1184.004
901.517	28.547	1241.092	1183.935
902.531	28.651	1240.306	1183.716
903.546	28.742	1240.209	1184.076
904.560	28.835	1239.595	1183.952
905.575	28.897	1238.263	1182.933
906.589	28.840	1237.116	1181.332
907.604	28.604	1236.429	1179.010
