DTS Sentinel unit serial number:	SN409020Multiplexer serial number:	ORYXHardware model number:	OX4-SRSoftware version number:	ORYX F/W v3.00 Oryx Data Collector v3.7.2.0data status	okinstallation	HaddamTimeLapsedifferential loss correction	single-endedforward channel	channel 3reverse channel	N/Adate	2011/06/22time	05:31:17forward acquisition time	30.00reverse acquisition time	0.00gamma	498.7831k internal	0.1751k external	0.1751temperature offset calibration	1.0074default loss term (dB/km)	0.3790temperature slope calibration	1.3530multiplexer offset coefficient	1.0000multiplexer slope coefficient	1.0000fibre end	0.00T internal ref (°C)	22.56T ext. ref 1 (°C)	17.82T ext. ref 2 (°C)	0.16length (m)	temperature (°C)	Stokes	anti-Stokes-747.200	-79.105	-0.368	-0.165
-746.185	-59.604	-0.278	0.158
-745.171	315.423	-0.219	-0.551
-744.156	-90.660	-0.472	0.180
-743.142	-132.036	0.075	-0.013
-742.127	-29.932	0.339	0.256
-741.112	-200.000	0.009	0.112
-740.098	-200.000	0.026	0.230
-739.083	800.000	0.004	-0.025
-738.069	-200.000	-0.087	0.722
-737.054	-114.201	-0.509	0.130
-736.039	168.851	-0.114	-0.216
-735.025	29.032	0.178	0.200
-734.010	-114.308	0.445	-0.113
-732.996	-83.134	-0.689	0.293
-731.981	124.094	0.321	0.536
-730.966	800.000	-0.045	-0.171
-729.952	-37.562	-0.062	-0.044
-728.937	-67.898	-0.268	-0.138
-727.923	-200.000	0.029	-0.243
-726.908	-29.453	-0.602	-0.456
-725.894	-200.000	0.069	-0.564
-724.879	-29.954	0.194	-0.146
-723.864	28.311	-0.355	-0.399
-722.850	80.152	-0.367	-0.524
-721.835	17.140	0.340	-0.358
-720.821	729.166	0.153	-0.544
-719.806	-3.044	0.118	-0.109
-718.791	-15.546	0.189	-0.160
-717.777	-108.737	0.214	0.060
-716.762	-200.000	-0.016	0.206
-715.748	584.855	0.110	-0.361
-714.733	-18.635	0.097	-0.080
-713.718	-200.000	0.018	-0.503
-712.704	-8.515	-0.017	0.015
-711.689	-37.941	-0.266	-0.187
-710.675	-200.000	0.005	-0.337
-709.660	-39.869	0.441	0.305
-708.645	151.131	0.189	-0.342
-707.631	-200.000	-0.030	-0.243
-706.616	-61.700	-0.203	0.112
-705.602	46.031	0.205	0.252
-704.587	-16.482	-0.265	0.223
-703.572	-77.545	0.069	0.032
-702.558	398.908	0.097	-0.272
-701.543	-48.926	0.438	-0.277
-700.529	33.315	0.530	0.610
-699.514	35.747	-0.180	-0.209
-698.499	256.907	0.039	-0.088
-697.485	800.000	0.026	-0.153
-696.470	312.656	-0.155	-0.388
-695.456	-154.858	-0.372	0.032
-694.441	-166.711	-0.703	-0.038
-693.426	-171.691	0.076	-0.003
-692.412	445.161	-0.071	0.207
-691.397	-134.906	0.271	-0.043
-690.383	-109.704	-0.291	-0.081
-689.368	28.864	-0.268	-0.302
-688.354	-200.000	-0.006	-0.613
-687.339	-127.123	0.290	-0.056
-686.324	-200.000	0.008	0.060
-685.310	120.002	0.105	-0.173
-684.295	81.161	0.211	-0.302
-683.281	-88.660	0.159	0.062
-682.266	251.005	0.053	-0.120
-681.251	13.865	0.171	0.176
-680.237	800.000	0.057	-0.225
-679.222	18.479	0.240	-0.254
-678.208	-119.207	0.256	-0.059
-677.193	-13.395	0.182	0.156
-676.178	257.327	0.090	-0.205
-675.164	188.667	-0.261	-0.519
-674.149	-91.072	-0.413	0.156
-673.135	-45.371	-0.032	-0.021
-672.120	-200.000	0.058	-0.386
-671.105	800.000	0.156	-0.807
-670.091	-153.434	0.063	-0.006
-669.076	-58.402	0.213	-0.122
-668.062	-174.202	-0.168	-0.006
-667.047	-75.695	0.355	-0.166
-666.032	-144.011	-0.443	-0.054
-665.018	-66.190	0.107	-0.056
-664.003	-93.391	0.213	-0.078
-662.989	-113.024	-0.390	-0.101
-661.974	-106.259	0.346	0.102
-660.959	-52.304	0.508	0.311
-659.945	80.371	0.319	-0.456
-658.930	-108.722	0.431	-0.121
-657.916	-59.087	-0.208	-0.118
-656.901	-70.868	-0.333	-0.165
-655.886	-149.120	0.351	-0.037
-654.872	129.699	0.073	0.124
-653.857	-59.466	-0.278	0.157
-652.843	-20.042	-0.185	-0.150
-651.828	800.000	0.117	-0.451
-650.814	27.608	-0.102	0.114
-649.799	10.866	-0.010	0.010
-648.784	-134.673	-0.293	-0.047
-647.770	148.283	0.279	0.499
-646.755	-200.000	-0.098	0.594
-645.741	100.229	-0.103	-0.158
-644.726	-14.413	-0.326	0.277
-643.711	-200.000	0.028	0.216
-642.697	-74.955	0.058	0.027
-641.682	-19.756	0.605	-0.494
-640.668	800.000	-0.092	-0.354
-639.653	-57.735	-0.371	-0.214
-638.638	-138.100	-0.277	-0.040
-637.624	-200.000	0.045	0.309
-636.609	211.606	0.058	-0.121
-635.595	-156.764	-0.151	-0.012
-634.580	-106.138	-0.146	0.043
-633.565	-37.526	-0.487	-0.343
-632.551	-120.360	0.198	0.044
-631.536	-200.000	0.015	-0.236
-630.522	-84.301	-0.328	-0.137
-629.507	-115.970	0.198	0.048
-628.492	-58.235	0.271	-0.156
-627.478	7.580	-0.252	0.249
-626.463	-132.719	-0.091	0.015
-625.449	62.118	-0.130	0.172
-624.434	-200.000	-0.021	-0.525
-623.419	800.000	-0.211	-0.905
-622.405	35.280	-0.161	0.186
-621.390	-81.304	-0.177	0.077
-620.376	511.611	-0.041	-0.126
-619.361	-200.000	-0.017	-0.350
-618.346	-104.176	-0.368	-0.112
-617.332	153.749	0.166	0.302
-616.317	795.951	-0.085	0.312
-615.303	-83.703	0.457	-0.192
-614.288	1.508	-0.327	-0.311
-613.273	-93.354	0.238	-0.087
-612.259	-147.329	0.257	0.029
-611.244	-95.249	-0.470	-0.166
-610.230	207.888	-0.063	-0.131
-609.215	105.163	0.225	-0.352
-608.201	304.366	0.094	-0.230
-607.186	-200.000	-0.014	-0.270
-606.171	-33.873	0.337	0.244
-605.157	118.087	0.184	-0.300
-604.142	2.258	0.285	0.272
-603.128	28.644	0.207	-0.231
-602.113	-103.325	-0.334	0.103
-601.098	-200.000	0.028	-0.194
-600.084	800.000	0.078	0.384
-599.069	-27.923	-0.134	-0.102
-598.055	208.723	0.049	0.102
-597.040	309.363	0.139	0.344
-596.025	157.643	0.107	0.196
-595.011	-151.013	0.361	0.035
-593.996	109.577	0.170	-0.269
-592.982	-200.000	-0.047	-0.365
-591.967	86.044	-0.337	-0.490
-590.952	-10.105	0.062	-0.054
-589.938	-200.000	0.052	0.318
-588.923	-54.150	0.222	0.133
-587.909	-159.520	-0.272	-0.020
-586.894	543.679	-0.158	0.500
-585.879	24.238	0.150	0.163
-584.865	800.000	-0.006	0.026
-583.850	-200.000	0.022	-0.275
-582.836	30.720	-0.164	0.186
-581.821	296.756	0.162	-0.393
-580.806	-92.134	0.300	0.111
-579.792	-102.398	0.385	-0.121
-578.777	134.198	0.160	-0.275
-577.763	21.153	-0.307	0.329
-576.748	12.286	0.148	-0.150
-575.733	-103.062	0.209	0.065
-574.719	84.651	0.173	0.250
-573.704	126.280	0.135	0.227
-572.690	122.159	-0.164	0.271
-571.675	-153.724	-0.150	-0.013
-570.661	800.000	-0.059	0.239
-569.646	-107.440	-0.229	0.066
-568.631	-200.000	0.001	0.184
-567.617	-149.199	0.422	0.044
-566.602	-87.252	-0.524	0.209
-565.588	-107.182	0.132	-0.038
-564.573	-136.911	-0.071	0.011
-563.558	11.117	-0.309	0.312
-562.544	-143.442	-0.289	0.036
-561.529	-200.000	-0.008	0.201
-560.515	29.647	0.486	0.546
-559.500	90.672	0.366	-0.542
-558.485	-119.107	0.576	-0.132
-557.471	-74.874	-0.446	-0.210
-556.456	-107.129	-0.722	-0.209
-555.442	-200.000	-0.008	-0.153
-554.427	769.317	0.116	0.418
-553.412	350.313	-0.096	-0.253
-552.398	-200.000	-0.046	-0.291
-551.383	800.000	0.089	0.419
-550.369	94.358	-0.080	0.120
-549.354	35.314	0.102	0.118
-548.339	214.985	0.199	-0.418
-547.325	-32.490	-0.126	0.092
-546.310	3.080	0.197	0.188
-545.296	87.348	0.052	-0.076
-544.281	239.453	0.145	-0.319
-543.266	37.884	0.169	0.198
-542.252	-57.001	0.525	0.304
-541.237	-4.941	0.302	0.274
-540.223	-200.000	0.023	0.315
-539.208	-200.000	0.005	0.418
-538.193	69.257	-0.077	-0.104
-537.179	19.789	-0.165	-0.175
-536.164	-200.000	-0.039	0.449
-535.150	-57.295	0.226	0.130
-534.135	119.575	-0.186	0.305
-533.121	800.000	0.017	-0.075
-532.106	65.212	0.147	0.196
-531.091	-76.352	0.530	0.244
-530.077	265.306	0.222	0.511
-529.062	-159.893	-0.423	-0.030
-528.048	140.087	0.055	-0.096
-527.033	-200.000	-0.048	-0.519
-526.018	137.723	-0.153	-0.264
-525.004	-98.820	0.275	-0.092
-523.989	-174.004	0.275	0.010
-522.975	646.123	-0.121	0.409
-521.960	100.979	0.135	0.207
-520.945	-129.641	-0.339	-0.061
-519.931	800.000	0.084	-0.342
-518.916	-69.663	-0.140	-0.070
-517.902	800.000	-0.144	-0.613
-516.887	-7.789	-0.122	0.108
-515.872	-200.000	-0.090	-0.543
-514.858	-67.129	0.325	-0.168
-513.843	-135.702	0.404	0.062
-512.829	-58.378	0.420	0.239
-511.814	102.447	0.305	0.470
-510.799	800.000	0.016	0.061
-509.785	-200.000	0.015	0.426
-508.770	-173.584	0.470	-0.018
-507.756	-71.512	-0.038	-0.019
-506.741	-127.550	0.106	0.020
-505.726	153.438	0.191	-0.345
-504.712	216.899	-0.130	-0.273
-503.697	-66.955	-0.220	0.114
-502.683	-57.889	-0.288	0.165
-501.668	-84.056	-0.395	-0.164
-500.653	-181.596	-0.351	0.009
-499.639	34.447	-0.157	-0.180
-498.624	-102.366	0.383	-0.120
-497.610	-86.426	0.381	-0.153
-496.595	576.133	0.128	0.414
-495.581	36.238	0.308	0.357
-494.566	200.955	-0.099	-0.201
-493.551	800.000	-0.077	-0.297
-492.537	-5.729	0.181	0.163
-491.522	-200.000	-0.062	0.377
-490.508	63.328	0.080	-0.106
-489.493	-152.042	0.358	0.034
-488.478	-200.000	-0.022	-0.431
-487.464	-119.643	-0.769	-0.173
-486.449	-200.000	0.045	-0.298
-485.435	-118.337	0.505	-0.117
-484.420	800.000	0.033	0.185
-483.405	535.602	-0.162	0.509
-482.391	-13.424	0.262	0.223
-481.376	-18.275	0.352	-0.289
-480.362	48.509	-0.238	0.293
-479.347	-54.785	0.251	0.148
-478.332	-48.293	0.234	0.148
-477.318	-100.719	0.155	0.050
-476.303	-37.018	-0.261	0.184
-475.289	-80.164	-0.141	0.062
-474.274	-146.788	-0.437	0.049
-473.259	-129.418	-0.283	0.051
-472.245	-163.434	-0.455	0.028
-471.230	-104.410	0.478	-0.145
-470.216	152.117	0.062	0.111
-469.201	-200.000	-0.037	0.394
-468.186	-3.331	-0.186	0.170
-467.172	282.480	0.101	0.238
-466.157	800.000	0.078	-0.306
-465.143	640.913	0.114	0.384
-464.128	216.912	0.081	-0.170
-463.113	315.516	0.224	-0.557
-462.099	310.432	-0.122	0.301
-461.084	201.540	-0.033	-0.067
-460.070	266.243	-0.054	0.124
-459.055	800.000	0.115	0.473
-458.040	-75.591	-0.177	-0.082
-457.026	687.015	0.129	0.444
-456.011	-83.134	0.365	0.154
-454.997	-91.410	0.417	0.156
-453.982	643.798	-0.038	0.128
-452.968	-27.429	0.123	0.094
-451.953	436.864	-0.042	-0.120
-450.938	800.000	-0.039	0.199
-449.924	-200.000	-0.035	0.354
-448.909	187.220	0.146	0.287
-447.895	-186.472	-0.194	-0.004
-446.880	-200.000	-0.039	-0.337
-445.865	-38.473	0.572	-0.396
-444.851	-55.095	0.441	-0.260
-443.836	-200.000	0.054	0.479
-442.822	800.000	0.049	-0.242
-441.807	-59.021	-0.239	0.135
-440.792	-21.434	0.215	0.172
-439.778	-173.916	-0.038	-0.001
-438.763	117.582	-0.055	0.090
-437.749	-67.960	0.278	0.142
-436.734	151.667	0.082	-0.147
-435.719	73.245	0.242	-0.333
-434.705	76.888	0.185	-0.259
-433.690	-129.550	0.085	0.015
-432.676	-117.097	0.090	-0.021
-431.661	-19.067	-0.152	0.124
-430.646	-200.000	0.051	-0.311
-429.632	-92.906	-0.571	-0.208
-428.617	-200.000	0.004	0.188
-427.603	-77.053	0.096	-0.044
-426.588	-38.191	0.118	0.082
-425.573	13.363	-0.097	-0.099
-424.559	-76.444	0.185	0.085
-423.544	-200.000	0.007	0.309
-422.530	-147.853	-0.383	0.041
-421.515	-86.454	-0.333	0.133
-420.500	349.455	-0.063	0.164
-419.486	-113.747	0.454	0.115
-418.471	-79.019	0.280	-0.124
-417.457	-80.621	-0.332	0.144
-416.442	396.829	-0.138	0.379
-415.428	-30.342	0.096	-0.072
-414.413	-98.636	0.591	0.196
-413.398	13.552	0.181	0.185
-412.384	4.978	0.077	0.075
-411.369	-200.000	0.027	0.159
-410.355	-75.762	-0.349	0.162
-409.340	218.979	0.074	0.155
-408.325	41.573	0.330	-0.391
-407.311	-88.903	-0.295	0.114
-406.296	117.281	-0.094	0.151
-405.282	-60.782	0.335	0.185
-404.267	-24.191	-0.181	0.141
-403.252	48.576	-0.095	-0.117
-402.238	-66.835	-0.465	0.240
-401.223	133.988	0.278	-0.473
-400.209	800.000	0.089	-0.462
-399.194	23.079	0.071	-0.077
-398.179	-118.858	-0.513	0.117
-397.165	-60.491	0.131	-0.073
-396.150	-200.000	-0.003	-0.182
-395.136	-136.094	-0.475	-0.072
-394.121	218.909	0.109	0.229
-393.106	-200.000	0.073	-0.472
-392.092	-200.000	-0.019	0.210
-391.077	102.057	0.158	-0.243
-390.063	800.000	-0.046	-0.245
-389.048	-124.833	-0.438	0.088
-388.033	-73.658	-0.256	-0.122
-387.019	193.412	-0.157	-0.312
-386.004	-30.566	0.216	0.160
-384.990	-83.515	-0.319	-0.133
-383.975	-185.901	-0.479	0.009
-382.960	-172.289	0.175	-0.007
-381.946	78.573	0.175	0.245
-380.931	-200.000	-0.067	0.596
-379.917	28.074	-0.510	0.563
-378.902	382.490	0.141	-0.382
-377.888	116.630	-0.125	-0.201
-376.873	-23.942	-0.182	-0.142
-375.858	-100.362	-0.164	-0.053
-374.844	-107.698	0.284	0.081
-373.829	-149.525	-0.093	-0.009
-372.815	-131.310	0.665	0.114
-371.800	-44.220	0.547	0.358
-370.785	123.479	-0.211	0.347
-369.771	-43.030	-0.569	-0.377
-368.756	124.038	-0.108	-0.177
-367.742	-166.216	-0.210	-0.011
-366.727	-82.968	-0.349	0.147
-365.712	27.930	-0.213	0.235
-364.698	107.676	0.123	0.192
-363.683	800.000	0.095	-0.346
-362.669	800.000	-0.073	-0.280
-361.654	734.840	-0.063	-0.223
-360.639	109.349	0.064	0.100
-359.625	418.257	-0.031	0.088
-358.610	93.025	0.125	0.185
-357.596	-119.675	-0.497	0.111
-356.581	-200.000	-0.052	-0.365
-355.566	-124.347	0.523	-0.106
-354.552	-65.043	-0.112	-0.059
-353.537	52.164	-0.323	-0.403
-352.523	-142.955	0.120	0.015
-351.508	-1.666	0.097	-0.089
-350.493	88.926	-0.253	0.369
-349.479	41.917	0.197	-0.234
-348.464	-128.664	0.344	-0.063
-347.450	7.633	-0.275	0.269
-346.435	-124.884	0.344	0.069
-345.420	-181.908	-0.139	-0.003
-344.406	-200.000	0.008	-0.522
-343.391	-200.000	-0.029	-0.395
-342.377	-163.845	0.375	0.023
-341.362	-109.047	0.234	-0.065
-340.348	-96.941	-0.165	-0.056
-339.333	-200.000	0.020	0.212
-338.318	177.157	-0.050	-0.096
-337.304	-113.188	0.113	0.029
-336.289	-26.891	-0.359	0.274
-335.275	-13.362	-0.102	0.086
-334.260	539.280	0.143	0.447
-333.245	-32.210	0.142	0.104
-332.231	-10.598	0.415	-0.359
-331.216	-3.398	-0.276	-0.251
-330.202	800.000	0.014	-0.052
-329.187	-200.000	0.002	0.364
-328.172	-4.164	-0.182	-0.165
-327.158	-16.104	0.606	-0.502
-326.143	-47.350	-0.326	0.207
-325.129	-200.000	-0.007	0.327
-324.114	83.859	0.125	0.178
-323.099	497.008	0.166	0.501
-322.085	-200.000	0.028	0.393
-321.070	-200.000	-0.023	0.262
-320.056	390.197	-0.140	-0.382
-319.041	135.847	0.241	-0.412
-318.026	264.525	0.178	-0.407
-317.012	800.000	0.101	0.472
-315.997	-5.615	0.311	-0.278
-314.983	586.338	-0.059	0.191
-313.968	-200.000	0.005	0.073
-312.953	-28.350	-0.277	-0.209
-311.939	-65.544	0.289	-0.151
-310.924	-17.856	-0.071	0.058
-309.910	-128.501	-0.257	0.047
-308.895	55.487	0.242	0.306
-307.880	-66.818	-0.310	-0.160
-306.866	-117.446	0.203	0.048
-305.851	-200.000	-0.017	0.553
-304.837	-114.658	-0.253	-0.063
-303.822	199.475	-0.139	-0.279
-302.807	171.460	-0.280	-0.527
-301.793	-168.408	0.193	-0.010
-300.778	316.140	0.032	-0.080
-299.764	-200.000	-0.024	-0.369
-298.749	-34.127	0.434	0.311
-297.735	-24.623	0.099	0.077
-296.720	161.239	0.241	0.441
-295.705	313.713	0.187	0.461
-294.691	-56.891	-0.113	-0.065
-293.676	800.000	0.059	0.251
-292.662	-112.731	0.129	0.033
-291.647	800.000	-0.097	-0.413
-290.632	11.413	0.401	-0.401
-289.618	-200.000	0.018	-0.192
-288.603	122.214	0.094	-0.153
-287.589	69.323	0.132	-0.177
-286.574	-134.915	-0.613	0.096
-285.559	518.334	0.059	-0.182
-284.545	633.245	-0.046	0.152
-283.530	-98.108	0.121	0.040
-282.516	-200.000	-0.020	0.295
-281.501	-98.013	0.201	-0.067
-280.486	23.510	-0.069	0.074
-279.472	-105.130	-0.186	-0.055
-278.457	-200.000	-0.081	-0.503
-277.443	-128.591	0.364	-0.066
-276.428	-200.000	-0.026	-0.539
-275.413	-200.000	-0.013	-0.583
-274.399	-23.913	-0.165	-0.128
-273.384	55.161	0.175	0.220
-272.370	-67.523	-0.263	-0.134
-271.355	-57.610	-0.124	0.071
-270.340	-141.252	-0.013	-0.002
-269.326	-30.707	0.180	-0.133
-268.311	800.000	-0.041	0.160
-267.297	91.826	0.101	0.148
-266.282	-149.652	-0.155	0.016
-265.267	-6.358	0.160	-0.142
-264.253	-99.766	0.260	0.084
-263.238	17.354	0.178	-0.184
-262.224	-56.687	0.246	-0.141
-261.209	-88.541	0.271	-0.105
-260.195	-68.487	-0.315	-0.159
-259.180	-32.919	0.130	-0.094
-258.165	-105.071	0.451	0.134
-257.151	-72.837	-0.477	0.228
-256.136	150.467	-0.276	-0.489
-255.122	-73.407	-0.109	-0.052
-254.107	56.111	-0.171	-0.217
-253.092	-170.740	-0.245	-0.011
-252.078	-200.000	0.053	-0.310
-251.063	800.000	0.084	-0.467
-250.049	-200.000	0.023	0.195
-249.034	174.750	0.220	0.416
-248.019	81.947	-0.109	-0.154
-247.005	-200.000	-0.046	-0.339
-245.990	34.167	-0.192	0.218
-244.976	-38.553	0.464	-0.319
-243.961	17.977	-0.365	0.379
-242.946	-117.905	-0.538	-0.125
-241.932	-128.243	-0.177	0.033
-240.917	-95.201	0.263	-0.092
-239.903	-56.870	0.090	0.052
-238.888	121.116	0.245	-0.398
-237.873	75.056	0.134	0.185
-236.859	-63.170	0.132	0.071
-235.844	800.000	-0.040	-0.154
-234.830	-200.000	-0.019	-0.302
-233.815	-96.933	0.317	0.107
-232.800	170.880	0.329	0.615
-231.786	93.831	0.260	-0.384
-230.771	-81.819	-0.205	0.087
-229.757	-107.542	-0.087	0.025
-228.742	-76.367	0.474	0.216
-227.727	800.000	0.044	-0.249
-226.713	481.473	-0.199	-0.590
-225.698	800.000	0.026	-0.112
-224.684	308.802	-0.061	-0.150
-223.669	-91.203	-0.313	-0.116
-222.655	-3.911	0.318	0.286
-221.640	800.000	0.031	0.146
-220.625	800.000	0.124	0.490
-219.611	-156.915	-0.416	-0.033
-218.596	-200.000	-0.025	-0.188
-217.582	14.682	0.103	-0.105
-216.567	-6.399	-0.331	-0.293
-215.552	196.658	-0.105	0.209
-214.538	64.996	0.151	-0.199
-213.523	-115.544	-0.526	-0.128
-212.509	-48.432	0.161	0.101
-211.494	-115.206	-0.209	-0.051
-210.479	25.092	0.315	0.340
-209.465	-200.000	0.032	0.189
-208.450	8.398	0.109	0.107
-207.436	-200.000	0.014	0.251
-206.421	-28.443	-0.270	-0.202
-205.406	-135.143	-0.413	-0.064
-204.392	-69.729	0.489	-0.242
-203.377	-80.080	-0.264	-0.115
-202.363	-76.437	-0.225	-0.103
-201.348	-200.000	0.025	0.309
-200.333	90.766	-0.091	-0.133
-199.319	9.201	-0.235	0.230
-198.304	-118.691	-0.678	-0.154
-197.290	800.000	0.052	0.191
-196.275	-18.573	0.239	-0.193
-195.260	56.518	-0.213	0.269
-194.246	800.000	0.069	-0.288
-193.231	-124.847	-0.084	0.017
-192.217	-38.056	-0.270	0.186
-191.202	800.000	-0.036	-0.166
-190.187	-4.146	0.106	0.096
-189.173	3.416	-0.193	-0.183
-188.158	-200.000	0.038	0.268
-187.144	-14.800	-0.306	-0.255
-186.129	800.000	0.016	0.086
-185.114	89.227	0.290	0.420
-184.100	-97.606	-0.221	0.074
-183.085	-138.594	-0.235	-0.033
-182.071	-91.414	-0.371	0.137
-181.056	570.521	-0.159	-0.506
-180.042	127.876	-0.080	0.132
-179.027	800.000	0.114	-0.529
-178.012	800.000	-0.043	-0.178
-176.998	-55.984	0.206	0.119
-175.983	-74.437	-0.363	-0.169
-174.969	-30.391	-0.409	-0.301
-173.954	137.920	-0.235	0.401
-172.939	-105.395	-0.474	-0.139
-171.925	-111.409	-0.238	-0.063
-170.910	111.083	-0.148	-0.232
-169.896	800.000	-0.055	-0.271
-168.881	462.732	-0.174	0.508
-167.866	82.459	-0.272	-0.384
-166.852	139.668	0.124	-0.212
-165.837	-200.000	0.022	-0.367
-164.823	-65.451	0.071	-0.037
-163.808	133.095	0.314	0.529
-162.793	-140.903	0.608	-0.080
-161.779	-38.133	-0.127	0.087
-160.764	-106.684	-0.413	-0.119
-159.750	-90.298	-0.198	-0.074
-158.735	56.019	0.089	-0.113
-157.720	-200.000	0.034	0.488
-156.706	-94.182	-0.298	-0.105
-155.691	-15.209	-0.397	0.329
-154.677	800.000	0.022	-0.087
-153.662	512.190	-0.212	0.645
-152.647	-109.782	0.266	0.072
-151.633	-112.335	-0.100	0.026
-150.618	-111.514	0.100	-0.026
-149.604	-200.000	0.009	-0.055
-148.589	800.000	-0.048	-0.190
-147.574	-34.622	-0.161	-0.114
-146.560	-200.000	0.075	-0.598
-145.545	397.782	-0.111	-0.304
-144.531	-200.000	0.059	-0.350
-143.516	-124.664	-0.420	0.084
-142.502	-200.000	-0.019	-0.519
-141.487	-200.000	0.003	0.061
-140.472	15.202	-0.305	-0.311
-139.458	-200.000	0.014	0.312
-138.443	-63.560	-0.227	-0.120
-137.429	63.609	0.090	0.117
-136.414	-57.690	-0.330	-0.187
-135.399	-118.295	-0.311	-0.071
-134.385	-200.000	0.059	-0.365
-133.370	800.000	0.023	0.084
-132.356	-102.507	-0.347	-0.107
-131.341	-100.203	0.171	0.055
-130.326	80.733	0.202	-0.283
-129.312	-10.391	-0.175	0.151
-128.297	460.964	0.164	-0.478
-127.283	193.102	0.177	-0.348
-126.268	-102.883	-0.391	0.120
-125.253	-200.000	0.015	-0.401
-124.239	800.000	0.156	-0.572
-123.224	238.133	-0.264	-0.570
-122.210	-0.736	-0.055	-0.050
-121.195	-200.000	-0.056	0.371
-120.180	345.401	0.177	0.452
-119.166	-81.913	0.435	0.183
-118.151	403.414	-0.087	-0.240
-117.137	-61.156	-0.579	-0.316
-116.122	-86.939	0.154	-0.060
-115.107	-102.850	0.388	-0.119
-114.093	-10.940	0.334	0.286
-113.078	800.000	-0.028	0.137
-112.064	25.725	0.254	0.274
-111.049	36.706	0.197	0.225
-110.034	529.422	-0.094	0.288
-109.020	48.825	-0.065	-0.080
-108.005	-200.000	-0.108	0.734
-106.991	-132.873	-0.106	0.017
-105.976	-15.403	0.277	-0.229
-104.962	-108.576	0.479	0.132
-103.947	252.457	-0.128	-0.284
-102.932	-45.057	-0.355	-0.228
-101.918	-78.486	-0.279	0.123
-100.903	-21.692	0.254	-0.200
-99.889	-189.458	-0.673	0.010
-98.874	-76.898	-0.336	0.152
-97.859	76.449	-0.136	0.187
-96.845	-44.571	-0.390	-0.252
-95.830	-200.000	-0.049	0.330
-94.816	-11.052	0.062	-0.053
-93.801	192.864	-0.161	-0.317
-92.786	-138.794	0.295	0.041
-91.772	-102.500	-0.265	0.082
-90.757	157.270	-0.160	0.287
-89.743	-123.419	0.157	0.032
-88.728	105.915	0.229	-0.352
-87.713	-74.349	-0.147	-0.068
-86.699	-42.464	-0.144	0.095
-85.684	-200.000	0.055	-0.619
-84.670	800.000	-0.054	0.219
-83.655	170.409	-0.172	0.319
-82.640	800.000	-0.110	0.454
-81.626	168.797	0.145	0.269
-80.611	-8.205	0.591	0.515
-79.597	288.905	-0.225	0.529
-78.582	-107.554	-0.197	-0.055
-77.567	-37.801	-0.538	0.370
-76.553	-31.539	-0.099	0.072
-75.538	28.834	0.250	0.274
-74.524	-136.275	-0.248	0.037
-73.509	-97.954	-0.311	-0.103
-72.494	-200.000	0.023	0.156
-71.480	800.000	-0.069	0.299
-70.465	-79.274	0.263	-0.115
-69.451	408.336	0.048	-0.132
-68.436	-93.612	0.466	0.166
-67.422	800.000	-0.004	0.015
-66.407	-138.995	-0.180	0.025
-65.392	118.035	0.400	-0.639
-64.378	84.893	0.193	-0.274
-63.363	-146.554	0.104	0.012
-62.349	-108.590	0.144	-0.040
-61.334	28.196	-2.342	-2.558
-60.319	30.337	1.412	1.560
-59.305	196.932	-3.671	-7.262
-58.290	84.733	3.624	5.139
-57.276	420.603	3.638	10.129
-56.261	-200.000	24.462	318.088
-55.246	354.875	1302.340	3363.148
-54.232	53.157	2841.755	3520.965
-53.217	51.485	2659.052	3268.631
-52.203	31.604	2390.251	2657.883
-51.188	27.740	2055.485	2238.003
-50.173	24.446	1940.905	2074.747
-49.159	23.312	1928.947	2048.703
-48.144	22.754	1925.316	2038.289
-47.130	22.849	1922.119	2035.922
-46.115	22.707	1921.275	2033.309
-45.100	22.727	1919.233	2031.292
-44.086	22.724	1918.341	2030.238
-43.071	22.735	1915.983	2027.787
-42.057	22.723	1914.781	2026.301
-41.042	22.723	1913.426	2024.779
-40.027	22.645	1912.471	2022.790
-39.013	22.706	1910.918	2021.776
-37.998	22.791	1909.369	2021.029
-36.984	22.717	1907.914	2018.564
-35.969	22.738	1906.357	2017.074
-34.954	22.592	1905.859	2014.788
-33.940	22.574	1905.090	2013.688
-32.925	22.629	1903.314	2012.368
-31.911	22.634	1902.146	2011.108
-30.896	22.575	1900.927	2009.057
-29.881	22.519	1899.396	2006.726
-28.867	22.619	1897.174	2005.435
-27.852	22.594	1897.095	2004.989
-26.838	22.626	1894.527	2002.558
-25.823	22.497	1894.230	2000.696
-24.809	22.581	1892.659	1999.913
-23.794	22.649	1890.604	1998.437
-22.779	22.584	1889.284	1996.229
-21.765	22.556	1888.050	1994.524
-20.750	22.514	1887.579	1993.469
-19.736	22.601	1885.763	1992.466
-18.721	22.576	1884.893	1991.183
-17.706	22.567	1883.127	1989.130
-16.692	22.514	1882.346	1987.622
-15.677	22.498	1881.692	1986.678
-14.663	22.445	1880.518	1984.756
-13.648	22.381	1879.470	1982.846
-12.633	22.582	1877.211	1982.655
-11.619	22.490	1876.387	1980.666
-10.604	22.491	1875.099	1979.248
-9.590	22.427	1874.661	1977.977
-8.575	22.467	1872.600	1976.175
-7.560	22.553	1870.946	1975.319
-6.546	22.540	1869.980	1974.078
-5.531	22.503	1869.736	1973.328
-4.517	22.493	1867.899	1971.197
-3.502	22.468	1866.482	1969.336
-2.487	22.383	1866.832	1968.678
-1.473	22.462	1862.411	1964.822
-0.458	22.346	1844.127	1944.170
0.556	18.998	1989.978	2045.708
1.571	17.546	2193.004	2235.014
2.586	18.247	2232.839	2284.748
3.600	18.243	2235.248	2286.879
4.615	18.321	2234.781	2287.181
5.629	18.323	2232.378	2284.478
6.644	18.277	2230.634	2281.794
7.659	18.276	2228.344	2279.170
8.673	18.263	2227.126	2277.473
9.688	18.008	2235.322	2282.165
10.702	17.115	2314.764	2350.567
11.717	15.670	2379.244	2395.065
12.731	7.401	2361.227	2258.705
13.746	0.932	2344.055	2149.875
14.761	0.037	2340.781	2133.860
15.775	0.126	2337.711	2132.066
16.790	0.070	2336.151	2129.598
17.804	-0.040	2335.855	2127.507
18.819	0.024	2334.048	2126.511
19.834	-0.010	2333.381	2125.173
20.848	-0.076	2331.422	2122.192
21.863	0.022	2329.444	2121.523
22.877	-0.012	2327.578	2119.093
23.892	0.008	2324.783	2116.582
24.907	-0.001	2322.816	2114.408
25.921	0.063	2320.913	2113.325
26.936	-0.007	2318.857	2110.216
27.950	-0.023	2316.570	2107.654
28.965	0.026	2314.250	2105.980
29.980	0.092	2312.676	2105.218
30.994	0.188	2310.582	2104.412
32.009	4.142	2322.298	2170.585
33.023	13.377	2350.426	2327.725
34.038	17.316	2356.194	2388.889
35.053	17.443	2354.007	2388.180
36.067	17.597	2352.450	2388.477
37.082	17.592	2350.233	2385.879
38.096	17.628	2347.117	2382.928
39.111	17.679	2345.267	2381.491
40.126	17.763	2344.029	2381.116
41.140	17.962	2342.264	2381.840
42.155	17.823	2340.442	2377.747
43.169	17.755	2339.032	2375.078
44.184	17.723	2335.262	2370.519
45.199	17.719	2332.766	2367.648
46.213	17.714	2331.831	2366.349
47.228	17.787	2330.851	2366.092
48.242	17.673	2329.486	2362.835
49.257	17.768	2328.164	2362.532
50.271	17.830	2325.652	2360.562
51.286	17.694	2323.112	2355.809
52.301	17.676	2320.792	2352.929
53.315	18.007	2322.600	2359.070
54.330	19.849	2326.929	2388.776
55.344	20.795	2327.204	2401.891
56.359	20.947	2323.230	2399.607
57.374	21.080	2322.860	2400.772
58.388	21.411	2319.572	2401.656
59.403	21.208	2316.316	2395.203
60.417	21.090	2312.933	2389.795
61.432	21.130	2311.969	2389.061
62.447	21.335	2311.426	2391.037
63.461	21.453	2309.038	2389.895
64.476	21.575	2306.796	2388.966
65.490	21.377	2305.359	2384.483
66.505	20.809	2302.647	2373.614
67.520	19.365	2297.076	2347.840
68.534	18.055	2289.707	2322.148
69.549	17.686	2286.723	2313.810
70.563	17.746	2284.160	2311.756
71.578	17.861	2281.645	2310.490
72.593	17.764	2281.013	2308.254
73.607	17.928	2279.058	2308.230
74.622	17.785	2277.464	2304.397
75.636	17.706	2274.698	2300.248
76.651	17.710	2272.701	2298.009
77.666	17.926	2269.743	2297.669
78.680	17.782	2268.113	2293.801
79.695	17.775	2266.312	2291.603
80.709	17.850	2265.564	2291.591
81.724	17.818	2263.500	2288.797
82.739	17.765	2260.589	2284.864
83.753	17.743	2258.620	2282.310
84.768	17.648	2256.714	2278.825
85.782	17.603	2255.579	2276.806
86.797	17.679	2253.575	2275.529
87.812	17.674	2251.026	2272.621
88.826	17.794	2249.808	2272.721
89.841	17.827	2247.399	2270.458
90.855	17.764	2245.580	2267.507
91.870	17.850	2243.426	2266.202
92.884	17.794	2241.979	2263.725
93.899	17.647	2241.009	2260.523
94.914	17.977	2242.518	2266.176
95.928	19.589	2246.800	2291.743
96.943	20.258	2243.839	2297.363
97.957	18.655	2237.579	2269.379
98.972	17.822	2233.502	2253.918
99.987	17.726	2229.451	2248.290
101.001	17.655	2227.551	2245.161
102.016	17.613	2225.937	2242.714
103.030	17.606	2223.545	2239.937
104.045	17.800	2221.042	2239.721
105.060	17.837	2219.728	2238.608
106.074	17.801	2217.892	2236.020
107.089	17.603	2216.356	2231.597
108.103	17.677	2214.909	2230.846
109.118	17.692	2213.115	2228.966
110.133	17.838	2211.902	2229.395
111.147	17.816	2209.976	2226.901
112.162	17.798	2208.687	2225.101
113.176	17.766	2205.471	2221.173
114.191	17.777	2204.386	2219.962
115.206	17.703	2203.477	2217.814
116.220	17.718	2201.290	2215.538
117.235	17.726	2198.658	2212.727
118.249	17.568	2196.681	2208.408
119.264	17.774	2194.474	2208.605
120.279	17.783	2193.580	2207.561
121.293	17.855	2191.166	2205.810
122.308	17.681	2190.157	2202.271
123.322	17.694	2189.174	2201.178
124.337	18.097	2189.213	2206.191
125.352	19.832	2194.376	2233.664
126.366	20.138	2192.842	2235.803
127.381	18.364	2183.669	2203.261
128.395	17.748	2180.080	2191.422
129.410	17.749	2177.624	2188.712
130.424	17.703	2176.319	2186.545
131.439	17.545	2174.984	2182.902
132.454	17.657	2172.613	2181.699
133.468	17.708	2170.551	2180.020
134.483	17.710	2169.712	2178.945
135.497	17.734	2167.681	2176.950
136.512	17.711	2165.330	2174.045
137.527	17.730	2163.332	2172.011
138.541	17.688	2162.464	2170.345
139.556	17.591	2161.787	2168.173
140.570	17.677	2159.694	2166.903
141.585	17.579	2157.476	2163.169
142.600	17.748	2155.867	2163.456
143.614	17.628	2154.818	2160.618
144.629	17.699	2153.170	2159.601
145.643	17.510	2152.509	2156.285
146.658	17.510	2150.538	2154.043
147.673	17.601	2147.408	2151.807
148.687	17.629	2147.078	2151.578
149.702	17.691	2146.143	2151.165
150.716	17.752	2144.443	2149.975
151.731	17.763	2143.163	2148.583
152.746	17.694	2143.285	2147.571
153.760	18.077	2144.257	2153.133
154.775	19.877	2147.883	2179.332
155.789	20.289	2145.128	2181.482
156.804	18.629	2137.621	2152.671
157.819	17.833	2131.682	2136.420
158.833	17.791	2129.540	2133.485
159.848	17.794	2127.351	2131.077
160.862	17.787	2126.405	2129.784
161.877	17.837	2125.046	2128.795
162.892	17.814	2124.907	2128.112
163.906	17.683	2124.309	2125.612
164.921	17.687	2121.650	2122.755
165.935	17.805	2118.461	2120.774
166.950	17.887	2117.212	2120.299
167.964	17.656	2115.379	2115.323
168.979	17.663	2113.501	2113.282
169.994	17.591	2112.862	2111.498
171.008	17.604	2111.592	2110.141
172.023	17.592	2109.466	2107.612
173.037	17.693	2108.083	2107.233
174.052	17.750	2106.243	2105.852
175.067	17.630	2104.307	2102.166
176.081	17.681	2103.313	2101.553
177.096	17.703	2101.776	2100.045
178.110	17.586	2099.642	2096.210
179.125	17.676	2099.204	2096.635
180.140	17.717	2097.568	2095.260
181.154	17.804	2095.998	2094.513
182.169	17.743	2094.429	2091.937
183.183	18.028	2096.864	2097.637
184.198	19.949	2100.119	2124.365
185.213	20.325	2098.129	2126.729
186.227	18.651	2090.700	2098.378
187.242	17.852	2088.904	2086.514
188.256	17.670	2086.542	2081.669
189.271	17.715	2084.458	2079.896
190.286	17.786	2082.924	2078.986
191.300	17.669	2080.795	2075.183
192.315	17.548	2079.228	2071.885
193.329	17.787	2077.495	2072.839
194.344	17.804	2077.606	2072.898
195.359	17.949	2075.205	2072.028
196.373	17.692	2073.882	2067.325
197.388	17.819	2070.102	2064.854
198.402	17.607	2068.997	2060.926
199.417	17.670	2066.605	2059.064
200.432	17.653	2065.788	2057.799
201.446	17.711	2064.526	2057.001
202.461	17.622	2063.292	2054.447
203.475	17.682	2060.669	2052.307
204.490	17.606	2059.156	2049.643
205.504	17.652	2056.903	2047.707
206.519	17.637	2054.593	2044.981
207.534	17.648	2052.803	2043.088
208.548	17.651	2051.758	2041.840
209.563	17.819	2049.855	2041.724
210.577	17.698	2049.615	2039.788
211.592	17.732	2049.043	2039.378
212.607	18.715	2051.329	2053.236
213.621	20.621	2056.432	2081.045
214.636	20.143	2051.038	2069.600
215.650	18.231	2044.735	2040.098
216.665	17.863	2041.612	2032.335
217.680	17.796	2039.795	2029.481
218.694	17.707	2038.664	2027.057
219.709	17.781	2036.338	2025.382
220.723	17.770	2035.773	2024.438
221.738	17.788	2034.332	2022.983
222.753	17.739	2031.626	2019.464
223.767	17.714	2030.352	2017.664
224.782	17.852	2027.946	2016.671
225.796	17.723	2027.408	2014.354
226.811	17.813	2025.303	2013.089
227.826	17.789	2024.365	2011.631
228.840	17.809	2022.441	2009.722
229.855	17.797	2021.810	2008.716
230.869	17.695	2019.295	2004.762
231.884	17.580	2018.332	2002.216
232.899	17.667	2016.523	2001.203
233.913	17.632	2015.730	1999.762
234.928	17.706	2014.632	1999.305
235.942	17.747	2012.443	1997.381
236.957	17.760	2010.188	1995.054
237.972	17.641	2009.495	1992.728
238.986	17.794	2008.569	1993.374
240.001	17.806	2006.364	1991.082
241.015	17.646	2006.258	1988.860
242.030	18.086	2006.852	1994.379
243.045	19.648	2010.331	2015.932
244.059	19.961	2007.009	2016.014
245.074	18.363	2000.441	1990.522
246.088	17.764	1996.725	1979.605
247.103	17.735	1995.128	1977.448
248.117	17.738	1993.876	1976.002
249.132	17.836	1992.015	1975.058
250.147	17.710	1990.503	1971.864
251.161	17.681	1989.452	1970.243
252.176	17.719	1988.396	1969.404
253.190	17.876	1986.583	1969.201
254.205	17.822	1984.329	1966.100
255.220	17.942	1982.434	1965.382
256.234	17.885	1981.631	1963.682
257.249	17.818	1980.913	1961.969
258.263	17.799	1979.017	1959.633
259.278	17.892	1977.954	1959.416
260.293	17.807	1976.488	1956.758
261.307	17.626	1975.077	1953.035
262.322	17.739	1973.066	1952.112
263.336	17.566	1971.355	1948.205
264.351	17.607	1969.429	1946.535
265.366	17.687	1968.189	1945.990
266.380	17.768	1967.361	1945.876
267.395	17.746	1966.049	1944.085
268.409	17.698	1963.595	1940.877
269.424	17.602	1963.345	1939.306
270.439	17.747	1962.405	1939.796
271.453	18.288	1962.650	1945.994
272.468	20.044	1965.168	1968.328
273.482	20.090	1962.401	1965.848
274.497	18.465	1956.125	1940.837
275.512	17.738	1953.195	1929.432
276.526	17.882	1950.127	1927.806
277.541	17.729	1947.978	1923.724
278.555	17.767	1946.299	1922.261
279.570	17.729	1944.828	1920.150
280.585	17.627	1944.021	1917.974
281.599	17.694	1942.434	1916.926
282.614	17.795	1941.899	1917.316
283.628	17.856	1940.974	1916.865
284.643	17.856	1940.039	1915.703
285.657	17.843	1939.123	1914.428
286.672	17.911	1938.213	1914.060
287.687	17.889	1935.631	1911.037
288.701	17.999	1934.077	1910.512
289.716	17.866	1932.482	1907.213
290.730	17.923	1930.742	1905.908
291.745	17.859	1930.040	1904.271
292.760	17.812	1928.171	1901.667
293.774	17.807	1928.194	1901.410
294.789	17.862	1926.297	1899.924
295.803	17.754	1923.733	1895.968
296.818	17.796	1923.001	1895.491
297.833	17.819	1922.007	1894.536
298.847	17.668	1921.082	1891.711
299.862	17.688	1919.167	1889.822
300.876	18.142	1919.670	1895.149
301.891	20.056	1921.940	1918.490
302.906	20.413	1920.999	1921.286
303.920	18.643	1914.493	1894.920
304.935	17.961	1911.480	1884.150
305.949	17.669	1909.327	1878.568
306.964	17.695	1908.396	1877.717
307.979	17.962	1906.379	1878.460
308.993	17.971	1905.230	1877.205
310.008	17.929	1903.195	1874.516
311.022	17.997	1901.711	1873.576
312.037	18.021	1900.626	1872.548
313.052	17.999	1898.548	1870.034
314.066	18.062	1897.678	1869.643
315.081	17.845	1896.646	1866.023
316.095	17.890	1895.393	1865.057
317.110	17.793	1894.086	1862.486
318.125	17.898	1891.989	1861.348
319.139	17.877	1891.141	1860.057
320.154	17.833	1889.883	1858.115
321.168	17.971	1887.030	1856.603
322.183	17.892	1886.455	1854.945
323.197	17.816	1884.779	1852.255
324.212	17.729	1882.936	1849.267
325.227	17.585	1881.422	1845.994
326.241	17.767	1879.481	1845.845
327.256	17.690	1878.828	1844.150
328.270	17.654	1877.992	1842.715
329.285	17.777	1877.886	1843.728
330.300	18.404	1880.246	1852.644
331.314	20.329	1883.582	1876.647
332.329	20.144	1878.882	1869.730
333.343	18.396	1871.623	1843.400
334.358	17.833	1869.528	1835.029
335.373	17.818	1867.583	1832.737
336.387	17.672	1866.040	1829.423
337.402	17.769	1864.380	1828.626
338.416	17.669	1863.719	1826.685
339.431	17.622	1863.033	1825.290
340.446	17.723	1860.921	1824.088
341.460	17.941	1859.077	1824.403
342.475	18.027	1857.010	1823.071
343.489	17.958	1856.319	1821.438
344.504	17.917	1855.842	1820.313
345.519	18.081	1853.327	1819.382
346.533	18.004	1852.252	1817.284
347.548	18.060	1851.504	1816.932
348.562	18.038	1849.667	1814.678
349.577	17.998	1849.052	1813.428
350.592	18.057	1846.880	1811.718
351.606	18.056	1845.262	1809.902
352.621	17.911	1843.672	1806.580
353.635	17.828	1842.768	1804.592
354.650	17.770	1841.530	1802.548
355.665	17.740	1839.945	1800.468
356.679	17.763	1838.705	1799.282
357.694	17.665	1837.353	1796.704
358.708	17.814	1835.656	1796.401
359.723	18.612	1838.156	1807.089
360.738	20.497	1840.224	1828.866
361.752	19.973	1835.737	1818.654
362.767	18.212	1830.882	1795.074
363.781	17.770	1828.457	1787.825
364.796	17.762	1827.264	1786.364
365.810	17.704	1826.078	1784.376
366.825	17.696	1824.958	1782.982
367.840	17.897	1824.541	1784.478
368.854	17.763	1823.311	1781.650
369.869	17.809	1820.719	1779.395
370.883	17.559	1819.982	1775.832
371.898	17.551	1819.105	1774.680
372.913	17.785	1816.609	1774.480
373.927	17.842	1815.694	1773.973
374.942	17.862	1814.748	1773.051
375.956	17.832	1814.261	1772.041
376.971	17.866	1811.471	1769.463
377.986	17.590	1809.890	1764.829
379.000	17.741	1808.479	1764.816
380.015	17.862	1807.440	1764.850
381.029	17.898	1805.499	1763.119
382.044	17.847	1803.693	1760.610
383.059	17.846	1801.995	1758.737
384.073	17.803	1801.371	1757.471
385.088	17.684	1800.438	1755.117
386.102	17.712	1798.593	1753.400
387.117	17.601	1797.046	1750.538
388.132	17.670	1795.906	1749.921
389.146	18.294	1798.813	1758.991
390.161	20.268	1801.405	1781.714
391.175	20.198	1795.174	1774.617
392.190	18.182	1788.939	1747.562
393.205	17.648	1786.008	1739.017
394.219	17.661	1784.904	1737.864
395.234	17.670	1784.056	1736.918
396.248	17.751	1782.386	1735.913
397.263	17.799	1779.980	1733.858
398.278	17.670	1778.393	1730.790
399.292	17.739	1777.698	1730.602
400.307	17.692	1777.766	1729.989
401.321	17.884	1775.853	1729.876
402.336	17.780	1774.474	1727.262
403.350	17.814	1772.886	1725.860
404.365	17.950	1772.258	1726.424
405.380	18.143	1771.366	1727.301
406.394	18.161	1769.870	1725.825
407.409	18.141	1768.841	1724.406
408.423	18.113	1767.114	1722.237
409.438	17.992	1765.101	1718.841
410.453	18.026	1764.122	1718.027
411.467	18.042	1763.876	1717.750
412.482	17.973	1761.976	1714.994
413.496	17.832	1761.165	1712.572
414.511	17.755	1758.683	1709.178
415.526	17.883	1755.878	1707.539
416.540	17.746	1754.426	1704.543
417.555	17.702	1754.427	1703.906
418.569	17.560	1754.449	1702.289
419.584	17.774	1753.841	1703.645
420.599	17.825	1753.860	1703.971
421.613	17.782	1752.179	1701.705
422.628	17.950	1750.977	1702.017
423.642	17.858	1748.948	1698.924
424.657	17.878	1747.628	1697.636
425.672	17.742	1746.259	1694.747
426.686	17.709	1745.012	1692.998
427.701	17.810	1743.393	1692.235
428.715	17.784	1741.873	1690.302
429.730	17.921	1739.477	1689.133
430.745	17.700	1739.956	1687.202
431.759	17.734	1739.026	1686.428
432.774	17.781	1737.851	1685.562
433.788	17.869	1737.710	1686.088
434.803	17.867	1736.351	1684.556
435.818	17.849	1736.763	1684.576
436.832	17.827	1735.815	1683.237
437.847	16.984	1728.545	1667.653
438.861	9.545	1707.520	1574.322
439.876	1.735	1693.376	1484.758
440.890	0.270	1689.727	1467.055
441.905	0.350	1687.856	1466.037
442.920	0.246	1687.377	1464.425
443.934	0.127	1686.310	1462.164
444.949	0.243	1685.435	1462.357
445.963	0.166	1684.786	1460.876
446.978	0.105	1684.144	1459.544
447.993	0.217	1682.460	1459.005
449.007	0.183	1680.032	1456.393
450.022	0.158	1677.928	1454.150
451.036	0.236	1676.534	1453.527
452.051	1.143	1681.827	1466.759
453.066	8.796	1698.338	1555.914
454.080	16.127	1709.858	1638.101
455.095	17.440	1711.668	1652.467
456.109	17.840	1710.420	1654.959
457.124	17.871	1709.192	1653.881
458.139	17.689	1709.270	1651.982
459.153	17.701	1708.239	1650.902
460.168	17.696	1705.757	1648.256
461.182	17.758	1704.316	1647.269
462.197	17.706	1702.713	1645.021
463.212	17.702	1701.286	1643.410
464.226	17.719	1699.923	1642.060
465.241	17.687	1698.971	1640.629
466.255	17.647	1698.348	1639.445
467.270	17.712	1697.370	1638.934
468.285	17.594	1695.577	1635.866
469.299	17.619	1694.394	1634.777
470.314	17.691	1691.585	1632.563
471.328	17.712	1690.464	1631.487
472.343	17.689	1690.123	1630.744
473.358	17.738	1689.608	1630.517
474.372	17.775	1687.523	1628.665
475.387	17.688	1686.847	1626.982
476.401	17.787	1684.378	1625.360
477.416	17.728	1683.715	1623.962
478.430	17.899	1682.128	1623.871
479.445	17.638	1681.752	1620.820
480.460	17.605	1680.542	1619.140
481.474	17.750	1679.337	1619.172
482.489	17.786	1678.091	1618.115
483.503	17.720	1675.895	1615.182
484.518	17.680	1675.068	1613.806
485.533	17.685	1673.208	1611.865
486.547	17.793	1672.695	1612.210
487.562	17.785	1671.849	1611.127
488.576	17.965	1669.752	1610.621
489.591	17.837	1668.694	1608.190
490.606	17.746	1667.945	1606.418
491.620	17.779	1666.255	1604.907
492.635	17.842	1663.861	1603.005
493.649	17.812	1662.973	1601.678
494.664	17.792	1661.528	1599.901
495.679	17.607	1660.093	1596.586
496.693	17.773	1658.486	1596.412
497.708	17.850	1657.518	1596.007
498.722	17.746	1656.753	1594.110
499.737	17.762	1655.369	1592.737
500.752	17.870	1653.619	1591.869
501.766	17.739	1652.225	1589.113
502.781	17.734	1650.546	1587.263
503.795	17.827	1649.279	1586.719
504.810	17.705	1649.065	1585.181
505.825	17.841	1647.464	1584.726
506.839	17.880	1647.233	1584.675
507.854	17.917	1645.172	1582.848
508.868	17.781	1643.730	1580.007
509.883	17.818	1642.994	1579.453
510.898	17.927	1641.335	1578.690
511.912	17.876	1639.510	1576.266
512.927	17.898	1637.777	1574.619
513.941	17.748	1637.534	1572.808
514.956	17.879	1635.349	1571.729
515.971	17.784	1634.723	1570.058
516.985	17.889	1633.717	1569.874
518.000	17.842	1633.173	1568.736
519.014	17.816	1632.547	1567.708
520.029	17.818	1630.285	1565.365
521.043	17.892	1628.992	1564.612
522.058	17.802	1627.671	1562.332
523.073	17.762	1627.220	1561.340
524.087	17.981	1625.647	1561.661
525.102	17.903	1624.279	1559.440
526.116	18.024	1623.259	1559.386
527.131	17.874	1621.758	1556.385
528.146	17.922	1621.632	1556.513
529.160	17.938	1620.072	1554.978
530.175	17.986	1618.731	1553.947
531.189	17.943	1617.590	1552.269
532.204	17.918	1616.420	1550.734
533.219	17.952	1614.307	1548.831
534.233	17.882	1613.425	1547.163
535.248	17.903	1613.182	1546.932
536.262	17.984	1612.379	1546.715
537.277	17.876	1611.784	1544.975
538.292	17.816	1610.276	1542.801
539.306	17.933	1607.944	1541.448
540.321	18.023	1606.177	1540.381
541.335	18.003	1605.096	1538.977
542.350	18.108	1603.567	1538.281
543.365	17.999	1601.665	1535.288
544.379	17.870	1601.226	1533.518
545.394	18.182	1599.958	1534.932
546.408	17.974	1597.993	1530.993
547.423	17.865	1597.313	1529.172
548.438	17.780	1596.518	1527.469
549.452	17.842	1595.620	1526.981
550.467	17.832	1594.677	1525.804
551.481	17.895	1593.027	1524.608
552.496	17.967	1591.812	1523.908
553.511	17.971	1590.793	1522.785
554.525	17.894	1590.157	1521.305
555.540	17.952	1589.512	1521.030
556.554	18.091	1588.091	1520.733
557.569	18.030	1585.653	1517.665
558.583	17.905	1584.069	1514.853
559.598	18.008	1583.733	1515.267
560.613	17.949	1583.115	1513.968
561.627	17.947	1581.012	1511.767
562.642	18.157	1579.592	1512.093
563.656	17.980	1578.897	1509.671
564.671	17.994	1577.632	1508.402
565.686	18.037	1576.545	1507.562
566.700	17.875	1575.715	1505.159
567.715	18.013	1573.130	1503.726
568.729	17.945	1571.975	1501.841
569.744	18.049	1570.099	1500.792
570.759	18.035	1569.254	1499.678
571.773	18.088	1568.910	1499.637
572.788	17.977	1567.549	1497.177
573.802	17.961	1566.321	1495.688
574.817	18.056	1563.921	1494.049
575.832	18.152	1563.403	1494.221
576.846	17.928	1562.791	1491.487
577.861	18.023	1561.407	1490.826
578.875	17.997	1560.856	1489.888
579.890	18.170	1559.321	1489.762
580.905	18.037	1558.409	1487.547
581.919	18.077	1558.486	1487.794
582.934	18.107	1557.379	1486.820
583.948	18.314	1555.138	1486.315
584.963	18.165	1553.089	1482.873
585.978	17.860	1552.862	1479.823
586.992	17.960	1553.386	1481.020
588.007	18.112	1551.755	1480.609
589.021	18.145	1550.042	1479.083
590.036	18.147	1548.274	1477.236
591.051	18.136	1547.564	1476.287
592.065	18.248	1545.845	1475.439
593.080	18.272	1544.404	1474.098
594.094	18.011	1543.648	1470.942
595.109	17.975	1541.067	1467.997
596.123	17.919	1539.972	1466.290
597.138	17.968	1539.064	1465.679
598.153	18.111	1537.478	1465.218
599.167	18.109	1536.374	1463.979
600.182	18.125	1535.688	1463.289
601.196	18.016	1534.719	1461.249
602.211	18.012	1533.371	1459.759
603.226	18.200	1531.942	1459.838
604.240	18.042	1530.555	1456.985
605.255	18.227	1529.246	1457.145
606.269	18.256	1528.714	1456.715
607.284	18.034	1527.643	1453.623
608.299	18.041	1526.535	1452.450
609.313	18.090	1525.193	1451.422
610.328	18.188	1524.118	1451.058
611.342	18.222	1522.054	1449.211
612.357	18.191	1521.802	1448.535
613.372	18.353	1520.349	1448.352
614.386	18.166	1519.217	1445.516
615.401	18.152	1518.990	1445.005
616.415	18.173	1517.814	1443.890
617.430	18.134	1517.579	1443.169
618.445	18.191	1516.506	1442.457
619.459	18.094	1514.642	1439.688
620.474	18.085	1513.862	1438.701
621.488	18.140	1512.571	1437.761
622.503	18.007	1511.209	1435.174
623.518	18.066	1510.865	1435.177
624.532	18.050	1509.950	1433.996
625.547	18.105	1508.472	1432.885
626.561	18.181	1507.939	1432.852
627.576	18.340	1506.397	1432.549
628.591	18.145	1504.385	1428.829
629.605	18.184	1503.930	1428.551
630.620	18.171	1502.183	1426.611
631.634	17.963	1501.835	1424.366
632.649	18.148	1500.290	1424.280
633.663	18.197	1499.379	1423.653
634.678	18.123	1498.409	1421.947
635.693	18.300	1496.432	1421.376
636.707	18.140	1495.225	1418.722
637.722	18.291	1493.989	1418.638
638.736	18.326	1492.827	1417.661
639.751	18.372	1492.208	1417.281
640.766	18.239	1490.509	1414.391
641.780	18.374	1489.189	1414.091
642.795	18.263	1488.776	1412.609
643.809	18.133	1487.797	1410.437
644.824	18.281	1487.494	1411.208
645.839	18.269	1486.002	1409.523
646.853	18.200	1484.858	1407.700
647.868	18.267	1483.328	1406.629
648.882	18.257	1481.820	1404.948
649.897	18.294	1480.646	1403.979
650.912	18.349	1479.057	1402.753
651.926	18.210	1478.816	1401.212
652.941	18.220	1477.826	1400.188
653.955	18.202	1475.910	1398.057
654.970	18.243	1473.800	1396.230
655.985	18.273	1472.260	1394.849
656.999	18.342	1471.545	1394.566
658.014	18.269	1471.483	1393.749
659.028	18.267	1470.070	1392.220
660.043	18.375	1469.384	1392.292
661.058	18.220	1467.804	1389.360
662.072	18.364	1466.564	1389.192
663.087	18.460	1465.046	1388.375
664.101	18.180	1464.161	1385.093
665.116	18.356	1463.263	1385.507
666.131	18.287	1461.969	1383.556
667.145	18.358	1461.588	1383.601
668.160	18.465	1460.214	1383.009
669.174	18.371	1458.495	1380.448
670.189	18.438	1457.543	1379.924
671.204	18.396	1456.690	1378.616
672.218	18.277	1456.148	1376.976
673.233	18.473	1454.665	1376.989
674.247	18.529	1453.184	1375.871
675.262	18.353	1452.990	1374.106
676.276	18.439	1451.568	1373.291
677.291	18.412	1450.320	1371.732
678.306	18.353	1449.037	1369.875
679.320	18.241	1448.057	1367.889
680.335	18.308	1447.467	1367.705
681.349	18.353	1447.128	1367.581
682.364	18.253	1445.567	1365.136
683.379	18.361	1444.089	1364.443
684.393	18.226	1442.863	1362.046
685.408	18.335	1442.267	1362.192
686.422	18.339	1440.844	1360.710
687.437	18.373	1440.934	1360.907
688.452	18.255	1440.137	1359.050
689.466	18.309	1438.001	1357.299
690.481	18.289	1436.699	1355.750
691.495	18.228	1436.285	1354.716
692.510	18.345	1434.237	1353.552
693.525	18.122	1433.086	1350.528
694.539	18.177	1432.744	1350.485
695.554	18.239	1432.353	1350.445
696.568	18.241	1431.289	1349.292
697.583	18.369	1429.826	1348.769
698.598	18.226	1429.357	1347.029
699.612	18.362	1427.617	1346.306
700.627	18.472	1426.353	1345.819
701.641	18.354	1425.222	1343.662
702.656	18.220	1424.666	1341.924
703.671	18.582	1423.666	1343.671
704.685	18.498	1422.530	1341.775
705.700	18.519	1421.203	1340.526
706.714	18.293	1420.112	1337.561
707.729	18.223	1418.811	1335.634
708.744	18.264	1418.135	1335.154
709.758	18.349	1416.752	1334.358
710.773	18.555	1416.112	1335.211
711.787	18.373	1414.319	1331.937
712.802	18.299	1412.954	1329.916
713.816	18.467	1412.286	1330.435
714.831	18.488	1411.839	1330.023
715.846	18.521	1410.406	1328.770
716.860	18.568	1408.955	1327.605
717.875	18.403	1408.363	1325.604
718.889	18.385	1406.986	1324.011
719.904	18.406	1405.846	1322.945
720.919	18.474	1404.959	1322.482
721.933	18.438	1404.347	1321.469
722.948	18.447	1403.392	1320.481
723.962	18.482	1401.889	1319.177
724.977	18.460	1400.988	1318.004
725.992	18.631	1398.996	1317.290
727.006	18.476	1397.915	1314.917
728.021	18.538	1396.684	1314.077
729.035	18.422	1395.797	1312.193
730.050	18.524	1395.322	1312.380
731.065	18.397	1394.250	1310.235
732.079	18.456	1393.428	1309.757
733.094	18.506	1391.791	1308.449
734.108	18.496	1390.045	1306.574
735.123	18.519	1388.710	1305.339
736.138	18.437	1388.851	1304.687
737.152	18.292	1387.603	1302.251
738.167	18.497	1386.210	1302.350
739.181	18.633	1385.333	1302.409
740.196	18.590	1384.821	1301.442
741.211	18.331	1384.113	1298.647
742.225	18.397	1382.719	1297.690
743.240	18.438	1381.321	1296.529
744.254	18.430	1379.041	1294.178
745.269	18.495	1378.719	1294.211
746.284	18.367	1378.275	1292.670
747.298	18.274	1377.380	1290.970
748.313	18.213	1376.598	1289.625
749.327	18.142	1375.542	1287.943
750.342	18.228	1374.493	1287.453
751.356	18.100	1373.509	1285.413
752.371	18.204	1372.040	1284.666
753.386	18.433	1370.655	1284.942
754.400	18.627	1369.796	1285.448
755.415	18.646	1369.011	1284.698
756.429	18.778	1367.184	1283.823
757.444	18.476	1366.222	1280.494
758.459	18.583	1365.777	1280.728
759.473	18.721	1365.161	1281.033
760.488	18.575	1363.947	1278.649
761.502	18.740	1362.277	1278.162
762.517	18.697	1361.431	1276.898
763.532	18.616	1360.347	1275.117
764.546	18.673	1359.522	1274.623
765.561	18.397	1358.508	1271.456
766.575	18.396	1357.721	1270.562
767.590	18.527	1355.886	1269.667
768.605	18.671	1354.811	1269.576
769.619	18.515	1354.056	1267.561
770.634	18.773	1352.748	1268.100
771.648	18.520	1352.944	1266.256
772.663	18.607	1351.646	1265.534
773.678	18.570	1351.060	1264.560
774.692	18.449	1350.064	1262.582
775.707	18.532	1349.231	1262.264
776.721	18.738	1347.876	1262.369
777.736	18.595	1346.972	1260.314
778.751	18.664	1345.938	1259.705
779.765	18.687	1344.799	1258.660
780.780	18.567	1344.720	1257.550
781.794	18.359	1343.714	1254.923
782.809	18.470	1342.401	1254.361
783.824	18.502	1340.941	1253.085
784.838	18.245	1339.837	1250.018
785.853	18.240	1338.969	1249.023
786.867	18.248	1338.852	1248.821
787.882	18.226	1337.801	1247.530
788.897	18.434	1336.923	1248.084
789.911	18.575	1335.759	1247.882
790.926	18.512	1334.442	1246.040
791.940	18.299	1333.122	1243.099
792.955	18.541	1332.122	1243.784
793.969	18.467	1330.796	1241.863
794.984	18.512	1329.965	1241.263
795.999	18.651	1329.241	1241.450
797.013	18.761	1327.170	1240.170
798.028	18.610	1326.096	1237.919
799.042	18.654	1325.326	1237.372
800.057	18.688	1324.632	1236.820
801.072	18.687	1323.150	1235.284
802.086	18.696	1321.627	1233.779
803.101	18.633	1320.565	1232.184
804.115	18.757	1319.617	1232.044
805.130	18.743	1319.147	1231.358
806.145	18.642	1318.638	1230.012
807.159	18.702	1317.077	1228.837
808.174	18.627	1316.100	1227.240
809.188	18.571	1314.670	1225.356
810.203	18.866	1312.276	1225.092
811.218	18.665	1311.257	1222.559
812.232	18.465	1310.312	1220.096
813.247	18.442	1309.452	1218.988
814.261	18.485	1308.998	1218.728
815.276	18.729	1307.850	1219.249
816.291	18.666	1306.825	1217.705
817.305	18.653	1306.039	1216.730
818.320	18.834	1304.185	1216.145
819.334	18.787	1302.573	1214.165
820.349	18.600	1302.054	1212.208
821.364	18.619	1300.429	1210.679
822.378	18.645	1298.790	1209.197
823.393	18.657	1297.184	1207.641
824.407	18.659	1296.327	1206.715
825.422	18.597	1296.381	1206.179
826.437	18.421	1295.039	1203.548
827.451	18.410	1293.467	1201.863
828.466	18.359	1291.800	1199.809
829.480	18.428	1289.615	1198.120
830.495	18.452	1288.169	1196.802
831.509	18.459	1287.986	1196.537
832.524	18.477	1287.345	1195.930
833.539	18.455	1286.581	1194.921
834.553	18.563	1285.363	1194.399
835.568	18.528	1283.590	1192.367
836.582	18.728	1282.703	1192.800
837.597	18.802	1281.396	1191.956
838.612	18.772	1280.036	1190.337
839.626	18.868	1278.814	1189.730
840.641	18.618	1278.735	1187.769
841.655	18.580	1278.036	1186.719
842.670	18.543	1276.465	1184.861
843.685	18.460	1274.795	1182.590
844.699	18.717	1273.450	1182.985
845.714	18.755	1272.323	1182.057
846.728	18.588	1272.329	1180.764
847.743	18.724	1271.183	1180.498
848.758	18.861	1269.287	1179.545
849.772	18.780	1268.423	1178.042
850.787	18.953	1266.356	1177.174
851.801	18.731	1265.738	1174.932
852.816	18.539	1264.533	1172.350
853.831	18.633	1263.043	1171.471
854.845	18.607	1261.880	1170.077
855.860	18.610	1260.209	1168.410
856.874	18.565	1258.599	1166.470
857.889	18.587	1257.230	1165.213
858.904	18.501	1256.154	1163.489
859.918	18.385	1254.920	1161.411
860.933	18.313	1253.617	1159.579
861.947	18.524	1252.680	1160.005
862.962	18.448	1251.998	1158.719
863.977	18.576	1250.836	1158.374
864.991	18.462	1250.246	1156.919
866.006	18.691	1250.120	1158.214
867.020	18.691	1248.106	1156.211
868.035	18.729	1247.053	1155.352
869.049	18.692	1246.383	1154.346
870.064	18.701	1245.485	1153.436
871.079	18.891	1244.667	1153.822
872.093	18.671	1243.967	1151.550
873.108	18.673	1243.422	1150.926
874.122	18.808	1242.241	1150.599
875.137	18.632	1241.585	1148.671
876.152	18.825	1240.118	1148.470
877.166	18.838	1238.889	1147.288
878.181	18.839	1237.648	1146.007
879.195	18.673	1237.023	1144.175
880.210	18.871	1235.495	1143.952
881.225	18.784	1234.484	1142.297
882.239	18.805	1233.875	1141.736
883.254	18.904	1232.988	1141.438
884.268	18.913	1232.357	1140.780
885.283	18.845	1231.171	1139.093
886.298	18.885	1229.397	1137.584
887.312	18.944	1227.906	1136.458
888.327	18.869	1227.721	1135.655
889.341	18.747	1226.890	1133.934
890.356	18.584	1226.188	1132.071
891.371	18.578	1225.406	1131.177
892.385	18.524	1224.693	1130.021
893.400	18.491	1223.840	1128.879
894.414	18.646	1221.922	1128.005
895.429	18.619	1220.606	1126.476
896.444	18.498	1218.892	1123.961
897.458	18.299	1217.901	1121.599
898.473	18.495	1217.273	1122.179
899.487	18.705	1216.259	1122.488
900.502	18.480	1216.384	1120.990
901.517	18.538	1214.520	1119.518
902.531	18.656	1213.999	1119.682
903.546	18.791	1213.177	1119.671
904.560	18.810	1212.229	1118.790
905.575	18.945	1211.481	1118.845
906.589	18.965	1210.123	1117.588
907.604	18.848	1209.685	1116.290
