DTS Sentinel unit serial number:	SN409020Multiplexer serial number:	ORYXHardware model number:	OX4-SRSoftware version number:	ORYX F/W v3.00 Oryx Data Collector v3.7.2.0data status	okinstallation	HaddamTimeLapsedifferential loss correction	single-endedforward channel	channel 3reverse channel	N/Adate	2011/06/21time	23:51:18forward acquisition time	30.00reverse acquisition time	0.00gamma	498.7831k internal	0.1752k external	0.1752temperature offset calibration	1.0074default loss term (dB/km)	0.3790temperature slope calibration	1.3530multiplexer offset coefficient	1.0000multiplexer slope coefficient	1.0000fibre end	0.00T internal ref (°C)	23.00T ext. ref 1 (°C)	18.30T ext. ref 2 (°C)	0.05length (m)	temperature (°C)	Stokes	anti-Stokes-747.200	800.000	0.035	0.140
-746.185	-156.494	0.314	-0.026
-745.171	25.271	0.203	0.224
-744.156	-200.000	-0.024	0.375
-743.142	-200.000	0.040	0.339
-742.127	-45.136	-0.277	0.182
-741.112	104.268	-0.262	-0.410
-740.098	-77.533	0.310	0.142
-739.083	-57.091	-0.352	-0.205
-738.069	67.924	-0.177	0.240
-737.054	-106.445	0.407	-0.120
-736.039	-26.240	0.104	0.081
-735.025	-53.378	0.211	0.128
-734.010	63.845	0.328	0.437
-732.996	-141.194	-0.168	0.022
-731.981	46.774	-0.552	-0.681
-730.966	-88.050	-0.347	-0.137
-729.952	-91.190	-0.096	-0.036
-728.937	24.729	-0.266	-0.292
-727.923	374.090	0.035	0.094
-726.908	439.025	-0.146	-0.425
-725.894	-3.657	0.316	-0.291
-724.879	-200.000	-0.001	0.257
-723.864	-17.273	-0.230	-0.192
-722.850	183.913	-0.091	0.180
-721.835	-200.000	0.019	-0.353
-720.821	90.023	-0.116	0.172
-719.806	-7.476	-0.146	0.131
-718.791	800.000	0.022	0.090
-717.777	800.000	0.042	-0.170
-716.762	-78.635	0.432	0.195
-715.748	-154.620	0.371	-0.032
-714.733	-145.596	0.248	0.029
-713.718	133.599	0.334	-0.574
-712.704	-19.841	0.198	0.162
-711.689	800.000	0.055	-0.266
-710.675	-200.000	-0.090	-0.593
-709.660	112.788	-0.082	0.132
-708.645	-9.049	0.365	0.324
-707.631	800.000	-0.010	-0.036
-706.616	22.861	-0.192	0.208
-705.602	-200.000	-0.045	0.303
-704.587	370.171	0.047	0.128
-703.572	-21.091	0.027	0.022
-702.558	185.898	0.206	-0.407
-701.543	-127.644	-0.443	-0.084
-700.529	-64.509	-0.418	-0.224
-699.514	-200.000	0.001	-0.764
-698.499	-173.059	0.679	-0.027
-697.485	-5.405	-0.438	-0.398
-696.470	800.000	0.055	-0.205
-695.456	209.386	-0.199	0.414
-694.441	30.464	-0.163	0.185
-693.426	800.000	-0.031	-0.152
-692.412	-200.000	-0.033	-0.215
-691.397	-200.000	-0.072	-0.697
-690.383	-25.290	0.134	-0.105
-689.368	-200.000	0.046	-0.284
-688.354	-10.562	-0.047	-0.041
-687.339	-200.000	0.055	0.417
-686.324	800.000	0.102	-0.460
-685.310	-186.231	0.328	0.006
-684.295	800.000	-0.070	0.299
-683.281	-200.000	0.048	-0.485
-682.266	53.482	0.325	-0.413
-681.251	-191.000	-0.359	-0.005
-680.237	-112.706	0.368	-0.096
-679.222	382.637	0.137	-0.374
-678.208	-11.481	0.268	0.233
-677.193	58.834	0.182	0.237
-676.178	311.298	0.107	-0.266
-675.164	-200.000	-0.306	-0.001
-674.149	-67.844	0.087	0.045
-673.135	-41.210	0.494	-0.336
-672.120	-67.420	0.292	-0.151
-671.105	43.448	-0.039	-0.047
-670.091	-40.775	0.269	-0.184
-669.076	-25.150	-0.152	-0.119
-668.062	800.000	0.144	0.566
-667.047	-82.763	-0.225	0.096
-666.032	-8.475	0.344	-0.306
-665.018	-57.630	0.062	-0.036
-664.003	87.822	0.138	-0.202
-662.989	39.338	0.259	-0.307
-661.974	-81.985	-0.162	-0.070
-660.959	-200.000	-0.346	0.001
-659.945	-195.018	-0.208	-0.002
-658.930	-59.193	0.299	0.170
-657.916	800.000	0.053	0.232
-656.901	-86.195	0.394	0.160
-655.886	-131.447	0.086	-0.015
-654.872	4.553	0.124	-0.120
-653.857	23.391	-0.261	0.284
-652.843	30.617	0.326	0.369
-651.828	-200.000	0.032	0.200
-650.814	159.853	-0.089	-0.164
-649.799	-200.000	0.051	0.438
-648.784	-172.391	-0.237	0.010
-647.770	-30.748	-0.194	0.145
-646.755	-3.447	0.109	-0.101
-645.741	119.998	0.278	-0.456
-644.726	-200.000	0.026	-0.451
-643.711	-120.416	0.227	0.051
-642.697	-102.048	0.288	-0.091
-641.682	-119.344	-0.078	-0.018
-640.668	-75.929	0.169	-0.079
-639.653	-18.872	0.146	-0.120
-638.638	-200.000	-0.026	-0.271
-637.624	-81.503	0.407	0.176
-636.609	562.671	0.058	0.185
-635.595	13.512	-0.126	-0.130
-634.580	-111.451	0.343	0.092
-633.565	-11.932	-0.387	0.335
-632.551	-126.490	0.182	0.036
-631.536	-77.815	-0.100	0.045
-630.522	-86.227	-0.267	-0.108
-629.507	212.427	-0.179	-0.373
-628.492	-136.121	-0.678	-0.104
-627.478	-172.366	-0.531	-0.022
-626.463	574.656	0.158	0.513
-625.449	-200.000	-0.001	0.005
-624.434	123.180	-0.220	0.365
-623.419	-200.000	-0.013	-0.135
-622.405	-125.243	0.298	0.060
-621.390	-0.317	-0.122	-0.114
-620.376	152.147	0.189	-0.341
-619.361	-69.044	-0.262	0.133
-618.346	146.888	-0.175	-0.312
-617.332	375.325	0.100	-0.270
-616.317	800.000	-0.059	-0.327
-615.303	800.000	-0.035	-0.159
-614.288	-1.273	-0.113	-0.105
-613.273	-58.158	0.205	0.118
-612.259	-104.132	0.427	-0.130
-611.244	800.000	-0.093	-0.506
-610.230	-54.958	0.190	-0.113
-609.215	83.551	-0.396	-0.571
-608.201	501.335	0.091	-0.279
-607.186	-200.000	0.004	0.051
-606.171	-90.966	0.183	-0.069
-605.157	-114.923	0.340	0.085
-604.142	-155.487	0.340	0.029
-603.128	-170.699	0.255	-0.011
-602.113	430.713	0.076	-0.219
-601.098	788.331	0.078	0.283
-600.084	-10.404	-0.101	-0.089
-599.069	-105.424	-0.308	-0.092
-598.055	14.850	0.105	-0.109
-597.040	152.386	-0.244	-0.440
-596.025	-11.779	-0.200	-0.173
-595.011	-200.000	-0.008	-0.422
-593.996	-106.668	-0.231	0.067
-592.982	-116.817	0.044	0.011
-591.967	320.150	0.074	-0.187
-590.952	24.251	-0.303	-0.330
-589.938	-200.000	-0.005	-0.161
-588.923	-75.667	-0.569	0.266
-587.909	-148.238	0.240	0.026
-586.894	436.883	-0.084	-0.241
-585.879	-62.720	0.085	0.046
-584.865	-200.000	-0.015	0.185
-583.850	-87.139	0.185	0.074
-582.836	-29.239	-0.674	-0.508
-581.821	316.369	0.178	0.445
-580.806	-86.494	-0.389	0.157
-579.792	185.695	0.149	0.293
-578.777	-55.984	0.346	0.203
-577.763	-7.320	0.358	0.319
-576.748	-103.617	0.859	0.264
-575.733	-33.985	0.424	0.307
-574.719	-112.869	-0.688	0.178
-573.704	-3.092	-0.420	0.386
-572.690	381.459	0.142	0.385
-571.675	-87.532	-0.237	0.094
-570.661	121.307	0.199	0.328
-569.646	-24.707	-0.191	-0.150
-568.631	65.506	-0.306	0.409
-567.617	800.000	-0.102	0.468
-566.602	146.871	0.221	-0.393
-565.588	-200.000	0.010	0.307
-564.573	-82.490	0.273	0.116
-563.558	11.754	-0.080	0.080
-562.544	221.397	-0.296	-0.628
-561.529	-27.102	0.275	-0.211
-560.515	-200.000	0.048	0.286
-559.500	-79.787	0.210	-0.093
-558.485	-45.735	-0.102	-0.066
-557.471	-147.472	-0.206	0.023
-556.456	198.821	0.206	0.416
-555.442	-105.281	0.174	-0.052
-554.427	222.850	-0.227	-0.484
-553.412	-172.383	0.485	0.020
-552.398	-200.000	-0.031	0.217
-551.383	-146.028	-0.359	0.041
-550.369	51.084	0.307	0.384
-549.354	66.676	-0.362	0.485
-548.339	-30.969	-0.204	-0.152
-547.325	31.943	-0.400	0.454
-546.310	68.376	0.164	0.221
-545.296	-200.000	0.004	-0.239
-544.281	30.162	0.221	-0.249
-543.266	20.447	-0.188	-0.200
-542.252	-7.981	-0.309	-0.274
-541.237	-200.000	0.020	0.346
-540.223	-131.000	0.067	0.012
-539.208	-98.069	-0.502	-0.169
-538.193	-60.422	-0.080	0.044
-537.179	-145.955	0.452	-0.052
-536.164	-78.695	0.191	0.086
-535.150	-174.150	-0.360	-0.014
-534.135	-94.656	-0.453	-0.161
-533.121	241.064	0.123	0.272
-532.106	1.385	-0.168	0.159
-531.091	-200.000	0.013	0.342
-530.077	318.758	-0.245	0.614
-529.062	-8.958	0.155	0.136
-528.048	-171.236	0.580	-0.025
-527.033	-61.628	0.013	0.007
-526.018	-12.654	0.117	-0.100
-525.004	-94.796	-0.379	0.134
-523.989	33.044	-0.277	-0.316
-522.975	102.774	-0.103	-0.159
-521.960	800.000	0.013	-0.069
-520.945	-50.231	-0.400	0.248
-519.931	-31.161	0.369	-0.273
-518.916	-82.433	-0.244	-0.104
-517.902	194.454	-0.050	0.101
-516.887	148.230	0.029	0.052
-515.872	-2.993	0.175	-0.160
-514.858	74.980	-0.369	0.512
-513.843	800.000	-0.034	-0.187
-512.829	-79.664	0.409	-0.181
-511.814	-7.888	0.168	0.149
-510.799	13.274	0.470	0.479
-509.785	-172.853	-0.281	0.011
-508.770	212.315	0.089	-0.186
-507.756	-90.332	0.310	0.118
-506.741	-200.000	-0.080	-0.538
-505.726	-26.439	0.602	-0.463
-504.712	-85.852	-0.614	0.249
-503.697	-171.484	0.105	0.005
-502.683	-15.302	-0.705	-0.592
-501.668	-46.309	-0.313	-0.202
-500.653	-1.176	0.286	0.266
-499.639	37.822	-0.128	-0.150
-498.624	118.729	0.287	0.467
-497.610	-200.000	0.015	0.460
-496.595	-52.413	0.468	-0.284
-495.581	800.000	0.044	-0.183
-494.566	158.268	-0.155	0.283
-493.551	101.161	0.146	-0.224
-492.537	-74.227	-0.579	-0.274
-491.522	157.231	0.136	0.248
-490.508	77.707	0.311	0.436
-489.493	-71.605	0.110	0.054
-488.478	-200.000	0.061	0.576
-487.464	72.407	0.270	-0.370
-486.449	177.087	0.200	-0.383
-485.435	800.000	-0.092	0.443
-484.420	178.130	-0.342	-0.658
-483.405	101.121	0.176	-0.269
-482.391	299.967	0.144	0.351
-481.376	-200.000	-0.045	0.306
-480.362	-200.000	0.000	0.024
-479.347	-101.988	0.255	0.080
-478.332	-65.763	-0.323	-0.169
-477.318	115.298	-0.096	0.154
-476.303	22.824	-0.178	0.192
-475.289	283.139	-0.212	-0.503
-474.274	-200.000	-0.017	0.221
-473.259	-18.428	0.161	-0.132
-472.245	800.000	0.088	-0.480
-471.230	385.798	-0.071	0.192
-470.216	-180.852	0.205	0.005
-469.201	-159.308	-0.423	-0.031
-468.186	-87.813	-0.450	-0.177
-467.172	-101.091	-0.371	0.119
-466.157	-151.639	-0.488	0.047
-465.143	-147.116	-0.063	-0.007
-464.128	-157.985	-0.416	0.032
-463.113	161.090	-0.104	-0.192
-462.099	-57.974	0.550	0.314
-461.084	-79.742	0.254	0.112
-460.070	-101.290	0.239	-0.076
-459.055	19.043	0.279	-0.294
-458.040	-127.328	0.397	-0.075
-457.026	-200.000	-0.043	-0.253
-456.011	25.003	-0.075	0.082
-454.997	246.166	-0.293	0.651
-453.982	-52.608	0.343	0.207
-452.968	-200.000	-0.019	-0.251
-451.953	29.734	-0.173	-0.194
-450.938	82.899	-0.177	-0.253
-449.924	-56.744	0.314	-0.182
-448.909	36.062	0.101	-0.117
-447.895	-85.127	-0.446	-0.182
-446.880	30.259	-0.132	-0.148
-445.865	-71.181	0.237	-0.116
-444.851	-107.618	0.284	-0.081
-443.836	-165.116	-0.131	0.008
-442.822	-109.063	-0.180	-0.050
-441.807	708.957	0.099	-0.344
-440.792	273.643	-0.193	0.450
-439.778	-154.757	0.147	-0.013
-438.763	-99.659	0.202	0.066
-437.749	-142.128	0.281	0.036
-436.734	800.000	-0.091	0.380
-435.719	-200.000	-0.005	-0.154
-434.705	779.136	-0.037	0.133
-433.690	602.795	-0.023	-0.076
-432.676	5.378	0.220	-0.213
-431.661	426.669	0.134	0.381
-430.646	-53.298	0.323	0.194
-429.632	-9.740	0.127	-0.111
-428.617	-200.000	-0.050	0.343
-427.603	800.000	-0.010	-0.051
-426.588	-102.626	0.398	-0.124
-425.573	518.870	0.032	-0.098
-424.559	14.562	0.075	0.077
-423.544	25.160	-0.339	0.369
-422.530	-200.000	-0.065	-0.481
-421.515	800.000	0.059	-0.220
-420.500	154.845	-0.225	0.406
-419.486	7.318	-0.224	0.219
-418.471	-200.000	-0.000	0.262
-417.457	34.401	0.260	0.298
-416.442	-105.298	0.611	-0.181
-415.428	800.000	0.055	0.310
-414.413	-108.800	-0.461	-0.128
-413.398	251.453	-0.147	0.328
-412.384	-199.462	0.309	-0.002
-411.369	-79.830	0.140	0.061
-410.355	-29.623	0.347	-0.259
-409.340	-115.159	0.273	-0.067
-408.325	-200.000	-0.041	0.353
-407.311	-26.620	-0.191	-0.146
-406.296	-200.000	0.046	-0.579
-405.282	164.546	0.063	-0.117
-404.267	-120.336	-0.323	-0.072
-403.252	-188.563	0.160	-0.003
-402.238	40.162	-0.141	-0.166
-401.223	92.243	-0.198	0.293
-400.209	-104.737	-0.427	-0.128
-399.194	36.954	-0.073	-0.085
-398.179	-75.013	-0.122	0.057
-397.165	21.236	0.317	0.337
-396.150	-62.038	0.349	0.190
-395.136	-40.254	-0.320	0.217
-394.121	-62.540	-0.277	-0.150
-393.106	-200.000	-0.059	-0.425
-392.092	269.758	0.179	-0.414
-391.077	28.327	-0.140	-0.155
-390.063	-12.093	-0.192	-0.164
-389.048	-1.345	-0.119	0.110
-388.033	-200.000	-0.008	0.229
-387.019	765.610	-0.014	-0.051
-386.004	-29.965	-0.103	-0.077
-384.990	-150.249	0.111	-0.011
-383.975	-84.966	0.441	0.180
-382.960	24.978	-0.319	0.346
-381.946	-82.512	-0.586	0.248
-380.931	-131.615	0.070	-0.012
-379.917	-15.066	0.235	0.197
-378.902	-67.925	-0.149	0.076
-377.888	-200.000	0.030	-0.221
-376.873	619.033	0.085	-0.280
-375.858	-200.000	-0.011	-0.109
-374.844	-181.312	0.367	-0.009
-373.829	343.154	-0.141	0.364
-372.815	-143.558	-0.510	0.063
-371.800	800.000	0.095	-0.451
-370.785	79.393	-0.109	-0.153
-369.771	-200.000	0.008	0.198
-368.756	133.196	0.218	-0.369
-367.742	-200.000	0.063	-0.368
-366.727	101.376	-0.073	0.112
-365.712	-57.987	0.530	-0.301
-364.698	117.726	-0.267	-0.430
-363.683	-41.303	0.409	0.275
-362.669	-200.000	-0.032	0.411
-361.654	-13.230	0.297	-0.252
-360.639	-31.118	0.300	0.220
-359.625	68.038	-0.118	-0.158
-358.610	-83.758	0.368	-0.153
-357.596	-200.000	-0.025	-0.260
-356.581	-81.023	-0.560	0.241
-355.566	-19.284	-0.315	-0.255
-354.552	-180.607	-0.090	-0.002
-353.537	212.796	-0.119	-0.245
-352.523	-175.868	0.598	-0.020
-351.508	-135.522	0.427	-0.066
-350.493	-58.245	-0.310	-0.176
-349.479	-26.597	-0.266	-0.203
-348.464	-56.048	-0.083	-0.048
-347.450	-58.976	0.123	-0.069
-346.435	33.159	-0.359	0.407
-345.420	-200.000	0.017	0.574
-344.406	-28.349	0.183	0.138
-343.391	411.270	0.165	-0.460
-342.377	-200.000	0.020	0.150
-341.362	-55.706	-0.240	-0.140
-340.348	-148.508	-0.268	0.028
-339.333	24.050	-0.161	-0.174
-338.318	-177.293	0.511	0.016
-337.304	-90.958	0.392	-0.146
-336.289	-200.000	-0.028	-0.212
-335.275	166.735	0.255	0.473
-334.260	-168.783	0.083	-0.004
-333.245	200.832	0.116	0.234
-332.231	6.337	0.447	-0.433
-331.216	261.490	0.172	0.391
-330.202	47.143	0.206	0.251
-329.187	-54.984	0.319	-0.187
-328.172	5.380	-0.175	-0.169
-327.158	-108.131	0.225	0.063
-326.143	-50.981	0.027	-0.017
-325.129	59.921	0.302	-0.389
-324.114	-14.772	0.479	-0.401
-323.099	451.537	0.131	0.379
-322.085	66.132	-0.036	0.047
-321.070	800.000	-0.089	0.376
-320.056	273.146	-0.060	-0.140
-319.041	-78.142	0.352	-0.158
-318.026	-135.731	-0.166	0.025
-317.012	800.000	-0.077	-0.394
-315.997	-57.906	0.217	-0.123
-314.983	-89.998	-0.269	-0.102
-313.968	-200.000	-0.027	0.265
-312.953	-104.475	-0.104	-0.031
-311.939	-200.000	-0.013	-0.196
-310.924	-23.426	0.286	-0.224
-309.910	-41.363	0.197	0.132
-308.895	70.417	0.184	-0.249
-307.880	-56.036	-0.331	-0.192
-306.866	800.000	-0.047	-0.191
-305.851	-85.897	-0.415	-0.167
-304.837	137.212	-0.070	0.119
-303.822	-200.000	-0.001	0.137
-302.807	147.183	0.082	-0.145
-301.793	-198.746	-0.313	-0.002
-300.778	-177.749	-0.131	0.004
-299.764	32.243	0.170	0.191
-298.749	-101.528	-0.371	-0.117
-297.735	-69.219	-0.182	-0.091
-296.720	-200.000	-0.006	-0.101
-295.705	-200.000	0.001	0.110
-294.691	425.849	0.196	-0.554
-293.676	800.000	0.053	0.198
-292.662	-57.503	-0.222	-0.127
-291.647	49.180	0.150	-0.183
-290.632	800.000	-0.144	0.542
-289.618	-200.000	-0.011	-0.105
-288.603	-41.803	0.401	0.267
-287.589	-31.668	0.512	-0.374
-286.574	-200.000	-0.042	-0.605
-285.559	33.765	0.057	-0.065
-284.545	146.997	-0.312	0.549
-283.530	-74.475	-0.218	0.102
-282.516	498.002	-0.060	0.180
-281.501	-157.576	-0.089	0.007
-280.486	-121.252	0.092	-0.020
-279.472	95.292	-0.281	-0.418
-278.457	-150.873	-0.572	0.056
-277.443	800.000	0.132	-0.496
-276.428	-182.514	-0.102	-0.002
-275.413	800.000	-0.045	0.182
-274.399	-117.327	-0.344	-0.081
-273.384	-143.352	-0.558	-0.069
-272.370	134.247	0.318	0.538
-271.355	-14.223	0.241	0.202
-270.340	-200.000	0.051	0.490
-269.326	-40.063	0.551	0.373
-268.311	716.174	0.111	0.386
-267.297	-153.554	-0.279	-0.025
-266.282	800.000	0.098	0.391
-265.267	48.029	-0.172	0.210
-264.253	-110.443	0.195	0.052
-263.238	-112.323	-0.239	0.062
-262.224	800.000	0.077	-0.430
-261.209	-200.000	0.140	-0.942
-260.195	-200.000	0.017	-0.103
-259.180	-87.734	0.145	0.057
-258.165	140.177	0.260	0.448
-257.151	-148.194	-0.577	0.061
-256.136	408.836	0.087	0.242
-255.122	-133.813	0.423	0.068
-254.107	-110.344	-0.253	-0.068
-253.092	-84.571	0.407	-0.166
-252.078	-96.522	-0.572	-0.195
-251.063	-200.000	-0.023	-0.178
-250.049	103.630	0.221	0.338
-249.034	32.173	-0.354	-0.397
-248.019	1.764	0.098	-0.092
-247.005	-200.000	0.004	-0.554
-245.990	526.100	-0.006	-0.019
-244.976	-12.169	0.119	0.101
-243.961	-152.142	0.098	-0.009
-242.946	181.869	-0.124	-0.238
-241.932	196.495	0.207	-0.411
-240.917	-179.826	-0.255	-0.007
-239.903	-45.749	-0.108	0.069
-238.888	-200.000	0.014	-0.169
-237.873	-85.008	-0.514	0.209
-236.859	-42.629	-0.274	-0.181
-235.844	50.649	-0.085	0.104
-234.830	-200.000	0.017	0.149
-233.815	378.496	0.081	0.217
-232.800	-12.386	-0.116	-0.099
-231.786	800.000	-0.076	0.310
-230.771	-175.840	0.301	-0.010
-229.757	87.175	0.136	0.195
-228.742	-31.003	0.325	0.238
-227.727	800.000	-0.101	0.372
-226.713	33.584	-0.019	-0.022
-225.698	34.331	0.119	0.135
-224.684	-100.193	0.365	0.117
-223.669	-43.989	-0.122	0.079
-222.655	239.904	0.195	0.423
-221.640	68.041	-0.043	0.057
-220.625	-87.592	-0.615	0.240
-219.611	396.487	0.087	0.239
-218.596	493.062	0.128	0.385
-217.582	135.637	-0.167	0.284
-216.567	21.036	-0.322	0.340
-215.552	-69.868	0.122	0.060
-214.538	-172.727	-0.385	-0.015
-213.523	-56.989	-0.147	-0.084
-212.509	544.350	0.116	-0.363
-211.494	-132.664	0.316	0.052
-210.479	-200.000	0.030	0.202
-209.465	31.392	0.335	0.374
-208.450	-14.047	-0.200	0.167
-207.436	-68.038	0.294	-0.148
-206.421	-4.383	0.033	-0.030
-205.406	-200.000	0.017	0.453
-204.392	-200.000	0.008	0.150
-203.377	7.086	-0.113	0.110
-202.363	-127.051	-0.393	0.074
-201.348	98.484	-0.111	-0.167
-200.333	-87.893	-0.059	-0.023
-199.319	-200.000	-0.086	0.526
-198.304	52.381	-0.292	0.362
-197.290	75.481	0.191	-0.262
-196.275	-18.492	-0.133	0.108
-195.260	217.372	-0.084	-0.175
-194.246	-84.125	-0.252	-0.104
-193.231	2.239	-0.173	0.162
-192.217	-120.178	0.469	0.103
-191.202	309.697	-0.143	0.350
-190.187	-119.148	0.264	0.059
-189.173	-67.576	-0.137	0.069
-188.158	-105.278	0.297	0.087
-187.144	-111.086	-0.321	0.085
-186.129	-26.781	0.491	-0.372
-185.114	165.205	-0.126	-0.231
-184.100	39.915	0.074	0.086
-183.085	388.377	0.111	-0.301
-182.071	600.091	-0.073	-0.238
-181.056	-197.782	0.162	0.001
-180.042	-163.200	0.414	-0.025
-179.027	711.940	0.098	-0.341
-178.012	-163.225	0.425	-0.026
-176.998	69.264	0.062	-0.083
-175.983	-200.000	0.030	0.215
-174.969	-69.167	0.347	-0.172
-173.954	-84.794	0.089	-0.036
-172.939	15.196	-0.485	0.493
-171.925	800.000	-0.084	-0.414
-170.910	-4.489	0.322	0.288
-169.896	25.711	-0.113	0.122
-168.881	28.142	-0.090	0.099
-167.866	-22.446	-0.422	-0.331
-166.852	-16.863	-0.519	-0.425
-165.837	-200.000	0.019	-0.366
-164.823	-84.217	0.228	-0.093
-163.808	800.000	0.055	0.246
-162.793	-200.000	0.009	-0.071
-161.779	-19.144	-0.304	-0.245
-160.764	-119.060	0.186	-0.042
-159.750	16.626	0.250	-0.257
-158.735	-22.767	0.174	0.136
-157.720	137.745	0.238	0.405
-156.706	-131.440	-0.467	0.079
-155.691	382.327	-0.067	-0.179
-154.677	20.759	-0.185	-0.194
-153.662	12.207	0.297	0.297
-152.647	21.618	-0.126	0.133
-151.633	185.654	-0.199	-0.385
-150.618	51.894	0.052	-0.064
-149.604	-200.000	0.034	0.265
-148.589	-200.000	0.004	0.034
-147.574	-200.000	0.018	-0.313
-146.560	800.000	0.111	-0.440
-145.545	-200.000	-0.026	-0.154
-144.531	150.209	-0.169	-0.299
-143.516	800.000	-0.063	-0.236
-142.502	650.766	0.082	0.272
-141.487	-89.636	0.178	0.067
-140.472	-32.091	0.377	0.273
-139.458	-93.113	-0.223	0.080
-138.443	-29.178	0.106	-0.079
-137.429	-153.164	0.277	0.025
-136.414	226.413	0.061	0.128
-135.399	78.957	0.260	0.361
-134.385	-113.325	0.579	-0.146
-133.370	-200.000	-0.044	-0.464
-132.356	-180.819	-0.360	-0.009
-131.341	-102.767	-0.056	0.017
-130.326	-6.638	0.213	-0.188
-129.312	-200.000	-0.026	-0.636
-128.297	-48.006	-0.225	0.141
-127.283	124.097	-0.192	-0.314
-126.268	-1.266	0.527	0.482
-125.253	-128.824	0.208	0.038
-124.239	-42.274	-0.180	-0.119
-123.224	-149.715	-0.786	0.079
-122.210	800.000	0.105	-0.418
-121.195	30.824	-0.317	0.351
-120.180	77.240	0.250	-0.344
-119.166	-200.000	-0.027	-0.403
-118.151	18.043	0.156	0.161
-117.137	284.218	-0.157	-0.368
-116.122	-53.230	-0.524	-0.311
-115.107	-200.000	-0.030	0.392
-114.093	-200.000	0.012	-0.448
-113.078	-200.000	-0.033	-0.241
-112.064	-12.737	-0.358	-0.302
-111.049	12.644	-0.293	-0.292
-110.034	160.131	-0.188	-0.341
-109.020	-64.836	-0.505	-0.264
-108.005	-99.334	0.620	-0.201
-106.991	-63.915	0.384	0.203
-105.976	749.316	-0.106	0.374
-104.962	348.061	0.060	-0.154
-103.947	-111.668	-0.306	-0.080
-102.932	-41.675	-0.230	-0.152
-101.918	25.878	0.068	-0.073
-100.903	-158.089	-0.608	0.046
-99.889	-46.667	-0.466	0.295
-98.874	800.000	0.033	-0.119
-97.859	173.373	0.118	-0.222
-96.845	159.103	0.209	0.376
-95.830	51.502	0.015	0.019
-94.816	-76.950	0.231	-0.104
-93.801	-200.000	0.034	0.244
-92.786	800.000	0.073	0.343
-91.772	-176.248	-0.364	0.012
-90.757	-184.346	-0.574	-0.012
-89.743	-102.945	-0.402	0.123
-88.728	800.000	0.162	0.603
-87.713	-152.982	0.321	0.029
-86.699	-31.507	-0.392	0.284
-85.684	3.845	-0.215	0.203
-84.670	-84.371	0.284	0.116
-83.655	-107.993	-0.284	-0.079
-82.640	-0.517	0.190	-0.175
-81.626	-130.806	-0.357	0.061
-80.611	115.415	-0.105	-0.166
-79.597	38.651	0.080	0.092
-78.582	-200.000	0.019	-0.506
-77.567	117.353	0.179	-0.285
-76.553	-200.000	-0.017	-0.153
-75.538	-200.000	-0.013	0.234
-74.524	800.000	0.051	0.208
-73.509	20.145	-0.310	0.324
-72.494	-124.228	-0.645	0.129
-71.480	72.861	0.322	0.435
-70.465	224.412	-0.282	0.592
-69.451	529.972	0.035	-0.107
-68.436	6.365	-0.159	0.152
-67.422	-200.000	-0.022	-0.248
-66.407	-25.528	-0.200	-0.152
-65.392	-135.982	-0.133	-0.020
-64.378	41.708	0.336	0.393
-63.363	10.561	0.260	0.256
-62.349	-21.242	0.243	-0.192
-61.334	-34.599	-2.791	-1.970
-60.319	78.351	1.361	1.881
-59.305	205.131	-3.702	-7.451
-58.290	26.652	4.423	4.785
-57.276	388.823	3.857	10.368
-56.261	-200.000	22.617	317.933
-55.246	357.553	1298.885	3363.054
-54.232	53.014	2844.380	3519.234
-53.217	51.430	2662.468	3269.548
-52.203	32.090	2391.870	2664.629
-51.188	28.230	2057.008	2244.039
-50.173	24.927	1944.155	2082.297
-49.159	23.709	1932.498	2055.574
-48.144	23.449	1927.784	2047.455
-47.130	23.229	1925.346	2042.233
-46.115	23.170	1924.460	2040.524
-45.100	23.177	1922.377	2038.324
-44.086	23.209	1921.064	2037.223
-43.071	23.158	1919.504	2034.896
-42.057	23.178	1917.696	2033.130
-41.042	23.233	1916.411	2032.314
-40.027	23.164	1915.024	2029.975
-39.013	23.117	1913.461	2027.687
-37.998	23.054	1912.010	2025.354
-36.984	23.253	1911.011	2026.501
-35.969	23.250	1909.482	2024.762
-34.954	23.135	1908.644	2022.477
-33.940	23.179	1906.505	2020.634
-32.925	23.129	1905.544	2018.956
-31.911	23.099	1904.255	2017.172
-30.896	23.127	1902.911	2015.982
-29.881	23.213	1901.176	2015.055
-28.867	23.181	1899.975	2013.332
-27.852	23.072	1898.459	2010.405
-26.838	22.900	1897.727	2007.578
-25.823	23.126	1895.729	2007.966
-24.809	22.911	1895.159	2004.828
-23.794	23.024	1894.186	2005.011
-22.779	22.992	1892.007	2002.264
-21.765	22.888	1891.515	2000.476
-20.750	22.893	1890.385	1999.259
-19.736	22.973	1888.898	1998.514
-18.721	22.957	1887.596	1996.876
-17.706	22.991	1886.331	1995.850
-16.692	22.970	1884.794	1993.903
-15.677	22.879	1884.578	1992.561
-14.663	22.888	1883.067	1990.984
-13.648	22.996	1881.077	1990.025
-12.633	22.852	1880.557	1987.765
-11.619	23.042	1879.189	1988.391
-10.604	22.996	1877.139	1985.627
-9.590	22.837	1876.203	1982.756
-8.575	22.787	1875.118	1980.970
-7.560	22.895	1873.261	1980.151
-6.546	22.839	1872.818	1978.974
-5.531	22.773	1872.683	1978.011
-4.517	22.916	1870.301	1977.025
-3.502	22.839	1870.010	1975.769
-2.487	22.971	1868.168	1975.224
-1.473	23.029	1864.883	1972.326
-0.458	22.752	1846.038	1949.245
0.556	19.236	1992.620	2049.741
1.571	17.778	2195.381	2238.823
2.586	18.646	2233.512	2289.089
3.600	18.565	2236.882	2291.175
4.615	18.456	2237.058	2289.623
5.629	18.536	2234.856	2288.166
6.644	18.549	2232.043	2285.183
7.659	18.524	2229.969	2282.456
8.673	18.595	2228.417	2281.535
9.688	18.522	2236.383	2288.440
10.702	17.470	2318.124	2357.164
11.717	15.790	2381.345	2397.118
12.731	7.142	2361.566	2253.644
13.746	0.929	2344.348	2148.500
14.761	0.135	2340.783	2133.671
15.775	-0.031	2340.040	2130.362
16.790	-0.008	2338.120	2128.693
17.804	0.108	2336.045	2128.201
18.819	0.022	2335.082	2125.849
19.834	-0.023	2334.047	2124.014
20.848	-0.101	2333.220	2121.894
21.863	-0.012	2330.803	2120.709
22.877	0.087	2328.582	2119.830
23.892	-0.003	2326.369	2116.292
24.907	-0.053	2323.857	2113.041
25.921	-0.005	2322.189	2111.946
26.936	-0.002	2320.472	2110.181
27.950	-0.070	2317.349	2106.128
28.965	-0.012	2315.079	2104.633
29.980	-0.010	2314.153	2103.571
30.994	0.092	2311.985	2102.780
32.009	3.688	2323.613	2163.808
33.023	12.945	2349.903	2319.365
34.038	16.685	2356.066	2378.080
35.053	16.633	2352.272	2373.233
36.067	16.690	2348.455	2369.895
37.082	16.596	2347.902	2367.728
38.096	16.747	2346.526	2368.183
39.111	16.907	2344.004	2367.603
40.126	17.206	2341.885	2369.367
41.140	17.323	2339.993	2368.815
42.155	17.252	2339.176	2366.705
43.169	17.159	2337.532	2363.454
44.184	16.987	2333.434	2356.624
45.199	17.009	2331.546	2354.749
46.213	16.989	2331.068	2353.709
47.228	17.193	2330.024	2355.214
48.242	17.258	2328.773	2354.568
49.257	17.339	2326.933	2353.556
50.271	17.503	2324.980	2353.583
51.286	17.216	2321.704	2345.991
52.301	17.023	2319.657	2340.971
53.315	17.859	2323.241	2355.910
54.330	20.817	2330.037	2403.614
55.344	22.537	2331.695	2428.898
56.359	22.789	2328.517	2428.787
57.374	22.792	2328.914	2428.946
58.388	22.989	2326.099	2428.436
59.403	22.781	2321.795	2420.786
60.417	22.435	2317.199	2410.944
61.432	22.513	2316.411	2410.907
62.447	22.700	2316.240	2413.011
63.461	22.941	2313.962	2413.667
64.476	23.107	2311.333	2412.914
65.490	22.786	2309.946	2406.774
66.505	21.886	2305.680	2389.717
67.520	19.792	2297.857	2352.726
68.534	17.433	2289.685	2311.902
69.549	16.915	2283.936	2298.764
70.563	16.918	2281.917	2296.490
71.578	16.818	2280.718	2293.649
72.593	16.967	2279.267	2293.939
73.607	17.082	2277.517	2293.468
74.622	17.094	2276.049	2291.886
75.636	17.050	2272.558	2287.494
76.651	16.963	2270.213	2283.676
77.666	16.974	2267.424	2280.755
78.680	16.742	2265.564	2275.479
79.695	16.652	2262.970	2271.390
80.709	16.456	2261.783	2267.274
81.724	16.525	2259.369	2265.515
82.739	16.606	2256.903	2263.863
83.753	16.483	2255.552	2260.581
84.768	16.391	2253.759	2257.285
85.782	16.442	2251.785	2255.710
86.797	16.357	2250.281	2252.797
87.812	16.409	2248.236	2251.185
88.826	16.568	2246.414	2251.215
89.841	16.653	2243.279	2248.931
90.855	16.540	2241.481	2245.355
91.870	16.777	2240.158	2246.919
92.884	16.729	2238.747	2244.603
93.899	16.704	2238.321	2243.567
94.914	17.485	2242.058	2257.460
95.928	20.057	2249.085	2298.614
96.943	20.948	2247.209	2308.286
97.957	18.386	2236.074	2262.595
98.972	16.885	2229.189	2235.483
99.987	16.512	2226.333	2227.410
101.001	16.474	2223.983	2224.286
102.016	16.512	2222.528	2223.068
103.030	16.598	2219.327	2220.742
104.045	16.544	2217.749	2218.181
105.060	16.498	2215.192	2214.754
106.074	16.424	2213.994	2212.311
107.089	16.460	2212.125	2210.658
108.103	16.459	2211.299	2209.553
109.118	16.648	2208.997	2209.470
110.133	16.774	2207.104	2208.958
111.147	16.604	2205.606	2204.968
112.162	16.623	2204.131	2203.488
113.176	16.747	2202.861	2203.571
114.191	16.821	2200.633	2202.046
115.206	16.862	2198.641	2200.319
116.220	16.854	2196.798	2198.116
117.235	16.890	2195.255	2196.772
118.249	16.885	2193.161	2194.349
119.264	16.861	2191.496	2192.111
120.279	16.808	2190.271	2189.936
121.293	16.902	2188.568	2189.185
122.308	16.856	2187.369	2187.133
123.322	16.812	2185.463	2184.397
124.337	17.323	2186.271	2191.561
125.352	20.048	2195.067	2235.511
126.366	20.785	2191.950	2241.612
127.381	18.120	2181.576	2196.369
128.395	16.899	2177.236	2175.986
129.410	16.872	2174.786	2172.935
130.424	16.810	2173.159	2170.254
131.439	16.826	2171.186	2168.219
132.454	16.741	2170.614	2166.302
133.468	16.932	2167.518	2165.406
134.483	17.072	2166.362	2165.786
135.497	17.057	2165.262	2164.238
136.512	17.020	2162.328	2160.561
137.527	16.895	2160.948	2157.332
138.541	16.654	2158.861	2151.911
139.556	16.558	2158.218	2149.785
140.570	16.625	2156.749	2148.921
141.585	16.488	2153.708	2143.886
142.600	16.460	2152.708	2142.279
143.614	16.502	2150.937	2140.793
144.629	16.299	2148.854	2135.877
145.643	16.351	2146.169	2133.617
146.658	16.391	2144.789	2132.499
147.673	16.305	2143.193	2129.572
148.687	16.507	2142.139	2130.823
149.702	16.696	2141.704	2132.527
150.716	16.708	2141.728	2132.451
151.731	16.769	2139.799	2131.048
152.746	16.815	2138.671	2130.246
153.760	17.448	2141.928	2141.241
154.775	20.335	2149.365	2184.999
155.789	21.215	2147.463	2193.924
156.804	18.522	2136.300	2148.389
157.819	16.747	2129.763	2119.253
158.833	16.496	2126.378	2112.476
159.848	16.577	2125.151	2112.026
160.862	16.768	2122.641	2111.668
161.877	16.875	2121.885	2111.997
162.892	16.784	2121.480	2110.209
163.906	16.861	2120.106	2109.547
164.921	16.878	2116.924	2106.339
165.935	16.824	2115.969	2104.464
166.950	16.900	2114.518	2103.724
167.964	16.691	2112.692	2099.052
168.979	16.448	2111.007	2094.101
169.994	16.540	2108.125	2092.134
171.008	16.621	2106.560	2091.338
172.023	16.560	2105.011	2088.790
173.037	16.650	2103.943	2088.590
174.052	16.770	2102.871	2088.763
175.067	16.645	2101.477	2085.582
176.081	16.618	2099.274	2082.813
177.096	16.663	2098.067	2081.930
178.110	16.793	2096.842	2082.067
179.125	16.891	2096.099	2082.285
180.140	16.961	2094.828	2081.640
181.154	16.885	2093.340	2078.972
182.169	17.041	2092.231	2079.544
183.183	17.885	2094.595	2092.051
184.198	20.853	2102.039	2135.864
185.213	21.378	2099.395	2139.384
186.227	18.453	2090.055	2093.747
187.242	17.082	2085.832	2072.449
188.256	16.825	2083.203	2066.435
189.271	16.770	2081.170	2063.498
190.286	16.527	2080.442	2059.563
191.300	16.615	2077.491	2057.472
192.315	16.774	2076.272	2057.961
193.329	16.960	2075.273	2058.986
194.344	17.092	2073.897	2058.984
195.359	17.185	2072.721	2058.699
196.373	16.966	2070.166	2053.254
197.388	16.707	2066.576	2046.299
198.402	16.562	2065.182	2042.922
199.417	16.526	2063.614	2040.684
200.432	16.688	2062.187	2040.991
201.446	16.669	2061.206	2039.549
202.461	16.545	2059.531	2036.143
203.475	16.586	2057.796	2034.686
204.490	16.656	2054.476	2032.005
205.504	16.698	2052.430	2030.236
206.519	16.627	2051.153	2027.877
207.534	16.741	2049.635	2027.508
208.548	16.740	2048.518	2026.153
209.563	16.688	2047.452	2024.229
210.577	16.795	2046.698	2024.520
211.592	16.755	2046.412	2023.518
212.607	18.276	2050.733	2045.835
213.621	21.585	2058.751	2093.435
214.636	21.050	2052.006	2079.912
215.650	17.766	2042.397	2030.684
216.665	16.811	2039.079	2015.732
217.680	16.798	2036.423	2012.703
218.694	16.624	2035.067	2009.054
219.709	16.574	2033.367	2006.532
220.723	16.693	2031.391	2005.761
221.738	16.786	2030.779	2006.023
222.753	16.918	2028.768	2005.372
223.767	16.983	2027.235	2004.389
224.782	16.799	2025.808	2000.551
225.796	16.795	2023.572	1998.052
226.811	16.779	2022.453	1996.516
227.826	16.748	2021.039	1994.522
228.840	16.746	2019.283	1992.523
229.855	16.515	2018.454	1988.739
230.869	16.818	2015.777	1989.438
231.884	16.843	2013.736	1987.485
232.899	16.743	2013.309	1985.640
233.913	16.724	2012.646	1984.525
234.928	16.670	2011.380	1982.407
235.942	16.687	2009.112	1980.134
236.957	16.570	2007.623	1977.052
237.972	16.778	2005.861	1977.521
238.986	16.647	2005.380	1975.281
240.001	16.665	2003.311	1973.214
241.015	16.740	2002.788	1973.336
242.030	17.463	2005.962	1984.709
243.045	20.459	2011.150	2024.748
244.059	20.678	2008.453	2024.359
245.074	18.018	1998.543	1983.134
246.088	17.082	1994.333	1967.815
247.103	17.124	1993.158	1966.910
248.117	17.063	1991.929	1964.758
249.132	16.865	1989.670	1959.983
250.147	16.729	1988.441	1956.968
251.161	16.821	1987.015	1956.397
252.176	17.098	1986.087	1958.456
253.190	17.382	1983.674	1959.132
254.205	17.359	1981.982	1956.960
255.220	17.509	1980.025	1956.527
256.234	17.129	1980.030	1951.905
257.249	16.848	1978.343	1946.764
258.263	16.804	1976.906	1944.618
259.278	17.065	1975.725	1946.228
260.293	16.847	1972.999	1940.796
261.307	16.629	1971.385	1936.468
262.322	16.721	1969.639	1935.583
263.336	16.683	1968.566	1933.861
264.351	16.596	1966.024	1930.134
265.366	16.396	1965.258	1926.854
266.380	16.679	1963.530	1928.178
267.395	16.602	1962.703	1926.249
268.409	16.705	1960.735	1925.269
269.424	16.667	1959.540	1923.433
270.439	16.657	1959.467	1923.009
271.453	17.752	1961.848	1937.626
272.468	20.788	1967.628	1977.818
273.482	20.937	1963.395	1975.032
274.497	17.881	1954.146	1930.795
275.512	16.705	1950.293	1913.409
276.526	16.701	1947.330	1910.221
277.541	16.652	1945.231	1907.380
278.555	16.574	1943.711	1904.784
279.570	16.378	1942.082	1900.746
280.585	16.510	1941.054	1900.996
281.599	16.614	1939.795	1900.718
282.614	16.826	1939.119	1902.221
283.628	17.073	1939.157	1904.808
284.643	17.269	1937.759	1905.418
285.657	17.419	1936.943	1906.078
286.672	17.496	1935.077	1904.878
287.687	17.318	1933.714	1901.305
288.701	17.245	1931.673	1898.249
289.716	17.221	1929.842	1895.963
290.730	17.207	1929.111	1894.861
291.745	17.283	1927.501	1893.902
292.760	17.324	1926.967	1893.603
293.774	17.062	1925.593	1889.098
294.789	17.078	1924.085	1887.572
295.803	16.938	1921.195	1882.946
296.818	16.901	1920.122	1881.260
297.833	17.065	1918.535	1881.305
298.847	16.947	1918.072	1879.312
299.862	16.891	1916.575	1876.993
300.876	17.665	1917.840	1886.633
301.891	20.807	1925.248	1928.726
302.906	21.266	1921.594	1929.926
303.920	18.088	1913.683	1886.554
304.935	17.115	1909.700	1871.633
305.949	16.999	1906.889	1867.365
306.964	16.938	1905.574	1865.183
307.979	16.980	1904.012	1863.897
308.993	17.225	1902.849	1865.236
310.008	17.490	1901.845	1866.948
311.022	17.650	1900.817	1867.480
312.037	17.452	1898.259	1862.563
313.052	17.297	1896.799	1859.200
314.066	17.397	1895.659	1858.959
315.081	17.469	1894.991	1858.874
316.095	17.343	1893.074	1855.394
317.110	17.172	1891.331	1851.588
318.125	16.946	1889.980	1847.572
319.139	16.979	1887.856	1845.634
320.154	17.120	1886.324	1845.457
321.168	17.112	1884.406	1843.271
322.183	16.916	1882.566	1839.107
323.197	16.774	1881.358	1836.161
324.212	16.615	1879.061	1831.976
325.227	16.377	1877.575	1827.720
326.241	16.424	1876.507	1826.967
327.256	16.524	1875.085	1826.449
328.270	16.655	1873.835	1826.437
329.285	16.725	1872.847	1826.019
330.300	17.763	1877.292	1841.397
331.314	21.005	1884.205	1883.213
332.329	21.003	1879.440	1878.203
333.343	17.909	1869.146	1834.328
334.358	16.697	1865.975	1817.918
335.373	16.505	1863.939	1813.651
336.387	16.402	1862.123	1810.560
337.402	16.308	1861.072	1808.303
338.416	16.405	1859.985	1808.078
339.431	16.555	1859.097	1808.610
340.446	16.623	1856.983	1807.064
341.460	16.922	1855.874	1808.980
342.475	17.176	1855.565	1811.182
343.489	17.295	1854.055	1810.763
344.504	17.213	1853.283	1808.922
345.519	17.287	1851.912	1808.153
346.533	17.269	1850.554	1806.418
347.548	17.622	1849.579	1809.025
348.562	17.514	1846.972	1805.102
349.577	17.428	1846.319	1803.338
350.592	17.539	1846.140	1804.121
351.606	17.629	1845.449	1804.189
352.621	17.641	1843.092	1801.793
353.635	17.332	1842.169	1797.402
354.650	17.357	1840.008	1795.337
355.665	17.152	1837.994	1790.987
356.679	17.061	1836.273	1788.135
357.694	16.930	1835.060	1785.354
358.708	16.961	1834.326	1784.754
359.723	18.177	1838.675	1801.654
360.738	21.343	1843.003	1839.219
361.752	20.835	1837.939	1828.583
362.767	17.996	1829.776	1790.380
363.781	17.214	1826.398	1778.634
364.796	17.009	1825.124	1775.026
365.810	17.029	1823.749	1773.681
366.825	16.966	1822.675	1771.770
367.840	17.099	1821.731	1772.030
368.854	16.947	1821.312	1769.824
369.869	16.997	1819.008	1767.895
370.883	16.931	1818.047	1766.059
371.898	17.207	1816.639	1767.366
372.913	17.134	1815.348	1765.127
373.927	17.155	1815.062	1764.865
374.942	17.284	1813.725	1764.695
375.956	17.204	1812.056	1762.031
376.971	17.212	1809.554	1759.467
377.986	17.108	1807.733	1756.403
379.000	17.090	1806.427	1754.740
380.015	17.055	1804.601	1752.388
381.029	16.961	1801.617	1748.314
382.044	16.573	1800.396	1742.901
383.059	16.501	1799.612	1741.182
384.073	16.513	1799.554	1741.047
385.088	16.648	1798.133	1740.859
386.102	16.625	1796.002	1738.352
387.117	16.506	1793.719	1734.707
388.132	16.405	1794.303	1734.019
389.146	17.690	1798.148	1750.804
390.161	20.969	1803.411	1789.605
391.175	20.757	1796.349	1780.203
392.190	17.779	1787.310	1740.541
393.205	16.841	1783.767	1727.269
394.219	16.698	1782.070	1723.957
395.234	16.495	1780.971	1720.612
396.248	16.634	1778.988	1719.915
397.263	16.631	1776.297	1717.076
398.278	16.551	1775.919	1715.685
399.292	16.670	1774.793	1715.603
400.307	16.640	1774.384	1714.704
401.321	16.897	1772.791	1715.570
402.336	16.931	1771.745	1714.699
403.350	17.005	1770.485	1714.030
404.365	17.031	1769.791	1713.413
405.380	17.130	1768.827	1713.272
406.394	17.491	1769.286	1717.173
407.409	18.275	1768.393	1724.050
408.423	17.830	1766.402	1717.401
409.438	17.359	1764.608	1710.687
410.453	17.315	1762.882	1708.363
411.467	17.429	1762.389	1708.831
412.482	17.413	1760.616	1706.749
413.496	17.140	1759.106	1702.327
414.511	17.160	1756.531	1699.834
415.526	17.211	1754.728	1698.403
416.540	17.006	1753.113	1694.578
417.555	17.048	1752.523	1694.221
418.569	17.327	1752.490	1696.787
419.584	17.384	1752.217	1696.895
420.599	17.222	1752.205	1695.057
421.613	17.046	1750.845	1691.768
422.628	17.089	1748.830	1690.055
423.642	16.974	1746.764	1686.705
424.657	17.096	1745.147	1686.158
425.672	17.147	1744.187	1685.539
426.686	17.074	1742.604	1683.075
427.701	16.951	1741.907	1680.977
428.715	17.176	1740.394	1681.559
429.730	17.257	1738.925	1680.744
430.745	17.273	1737.296	1679.126
431.759	17.318	1736.806	1678.894
432.774	17.534	1737.934	1681.928
433.788	18.020	1737.967	1686.588
434.803	18.253	1737.048	1687.802
435.818	18.273	1735.395	1686.190
436.832	18.076	1735.484	1684.120
437.847	17.177	1728.071	1667.860
438.861	9.469	1707.613	1572.483
439.876	1.714	1693.552	1483.601
440.890	0.355	1690.076	1467.099
441.905	0.242	1688.845	1464.747
442.920	0.174	1687.564	1462.795
443.934	0.068	1686.554	1460.714
444.949	0.246	1684.874	1460.818
445.963	0.090	1684.144	1458.493
446.978	0.043	1684.118	1457.831
447.993	0.002	1682.301	1455.683
449.007	0.134	1679.694	1454.543
450.022	0.205	1677.940	1453.537
451.036	0.169	1676.633	1451.877
452.051	1.176	1680.729	1465.033
453.066	8.881	1699.080	1556.267
454.080	16.495	1711.000	1641.570
455.095	18.033	1713.531	1658.824
456.109	18.572	1713.707	1664.045
457.124	18.860	1712.931	1665.903
458.139	19.020	1711.849	1666.207
459.153	19.054	1710.951	1665.470
460.168	19.122	1709.238	1664.261
461.182	19.128	1707.138	1662.076
462.197	18.942	1706.265	1659.226
463.212	18.841	1703.668	1655.517
464.226	18.903	1703.091	1655.358
465.241	19.085	1701.057	1654.948
466.255	19.352	1700.488	1656.775
467.270	19.239	1699.319	1654.345
468.285	19.021	1697.506	1650.286
469.299	18.930	1696.681	1648.403
470.314	18.951	1695.284	1647.048
471.328	19.028	1693.844	1646.201
472.343	18.923	1693.219	1644.387
473.358	19.068	1691.707	1644.111
474.372	19.043	1690.576	1642.570
475.387	18.883	1688.865	1639.183
476.401	18.884	1687.226	1637.407
477.416	18.824	1686.215	1635.652
478.430	18.956	1685.572	1636.092
479.445	18.788	1683.960	1632.734
480.460	18.747	1682.215	1630.452
481.474	18.853	1681.355	1630.434
482.489	19.055	1680.885	1631.708
483.503	19.338	1678.777	1632.156
484.518	19.274	1678.435	1631.023
485.533	19.174	1676.211	1627.713
486.547	19.241	1674.576	1626.570
487.562	19.425	1674.546	1628.092
488.576	19.396	1672.434	1625.567
489.591	19.225	1671.520	1622.864
490.606	19.180	1670.490	1621.246
491.620	19.232	1668.810	1619.915
492.635	19.443	1667.222	1620.173
493.649	19.466	1666.299	1619.299
494.664	19.180	1664.510	1614.671
495.679	18.732	1662.459	1608.273
496.693	18.932	1661.680	1609.202
497.708	19.168	1660.620	1610.205
498.722	19.419	1659.848	1611.624
499.737	19.503	1657.928	1610.351
500.752	19.253	1656.591	1606.520
501.766	19.155	1655.100	1603.962
502.781	19.279	1653.779	1603.646
503.795	19.287	1652.047	1601.850
504.810	19.298	1651.759	1601.486
505.825	19.452	1651.250	1602.236
506.839	19.387	1650.483	1600.690
507.854	19.319	1649.578	1598.993
508.868	19.306	1648.078	1597.224
509.883	19.389	1646.690	1596.457
510.898	19.669	1645.000	1597.233
511.912	19.484	1643.611	1593.974
512.927	19.354	1640.954	1590.001
513.941	19.265	1640.459	1588.512
514.956	19.216	1638.707	1586.166
515.971	19.234	1636.859	1584.354
516.985	19.318	1635.843	1583.955
518.000	19.308	1635.808	1583.646
519.014	19.424	1635.460	1584.183
520.029	19.506	1634.581	1583.901
521.043	19.467	1632.305	1581.147
522.058	19.598	1630.833	1580.740
523.073	19.503	1631.188	1580.017
524.087	19.880	1630.142	1582.282
525.102	19.682	1628.641	1578.815
526.116	19.382	1626.149	1573.464
527.131	19.193	1625.734	1571.141
528.146	19.573	1624.995	1573.722
529.160	19.761	1624.018	1574.309
530.175	19.770	1622.594	1572.823
531.189	19.894	1621.445	1572.651
532.204	19.854	1619.882	1570.585
533.219	19.638	1618.408	1566.993
534.233	19.412	1617.399	1563.771
535.248	19.494	1617.302	1564.235
536.262	19.891	1616.882	1567.259
537.277	19.662	1615.287	1563.441
538.292	19.565	1613.182	1560.336
539.306	19.496	1610.887	1557.302
540.321	19.432	1609.971	1555.650
541.335	19.441	1608.496	1554.126
542.350	19.669	1607.127	1554.672
543.365	19.787	1605.143	1553.634
544.379	19.886	1604.191	1553.423
545.394	19.755	1603.652	1551.529
546.408	19.597	1601.614	1547.948
547.423	19.400	1600.291	1544.718
548.438	19.434	1598.888	1543.478
549.452	19.557	1598.471	1543.995
550.467	19.662	1597.016	1543.349
551.481	19.711	1596.484	1543.088
552.496	19.845	1596.456	1544.085
553.511	20.137	1595.402	1545.493
554.525	19.915	1593.772	1541.741
555.540	20.040	1593.178	1542.108
556.554	20.114	1591.821	1541.265
557.569	19.978	1590.513	1538.605
558.583	19.951	1588.426	1536.155
559.598	19.988	1586.838	1534.767
560.613	19.928	1587.284	1534.484
561.627	19.988	1585.784	1533.385
562.642	20.043	1584.029	1531.985
563.656	20.285	1583.362	1533.313
564.671	20.064	1582.352	1530.191
565.686	20.038	1581.430	1528.883
566.700	19.901	1579.411	1525.531
567.715	19.739	1577.678	1522.242
568.729	19.695	1575.039	1519.122
569.744	19.501	1573.539	1515.789
570.759	19.585	1572.629	1515.472
571.773	19.604	1572.204	1515.047
572.788	19.701	1571.423	1514.966
573.802	19.775	1570.214	1514.266
574.817	20.070	1568.890	1515.409
575.832	20.235	1567.695	1515.517
576.846	20.213	1566.495	1513.982
577.861	20.012	1564.542	1510.154
578.875	20.102	1564.675	1510.891
579.890	20.389	1563.501	1512.089
580.905	20.301	1562.900	1510.553
581.919	20.324	1562.436	1510.130
582.934	20.483	1561.595	1510.528
583.948	20.456	1560.491	1509.037
584.963	20.299	1558.415	1505.486
585.978	20.282	1556.458	1503.263
586.992	20.277	1556.143	1502.735
588.007	20.398	1555.524	1503.012
589.021	19.900	1553.830	1496.870
590.036	19.658	1551.529	1492.373
591.051	19.822	1551.109	1493.211
592.065	19.994	1550.395	1493.839
593.080	20.209	1548.693	1493.881
594.094	20.309	1546.808	1492.743
595.109	19.987	1545.158	1488.195
596.123	19.800	1543.334	1484.643
597.138	20.134	1542.518	1486.558
598.153	20.221	1541.665	1486.314
599.167	20.227	1540.625	1485.182
600.182	20.371	1539.789	1485.441
601.196	20.384	1539.394	1484.987
602.211	20.384	1537.782	1483.258
603.226	20.507	1536.646	1483.037
604.240	20.607	1535.262	1482.379
605.255	20.709	1534.297	1482.151
606.269	20.527	1534.229	1480.350
607.284	20.445	1532.615	1477.913
608.299	20.531	1530.466	1476.400
609.313	20.496	1528.787	1474.303
610.328	20.464	1528.170	1473.260
611.342	20.578	1526.536	1472.479
612.357	20.638	1527.023	1473.279
613.372	20.596	1525.628	1471.398
614.386	20.564	1524.600	1469.959
615.401	20.588	1524.119	1469.520
616.415	20.663	1522.863	1468.777
617.430	20.676	1522.068	1467.945
618.445	20.814	1520.626	1467.545
619.459	20.568	1519.480	1464.182
620.474	20.269	1517.902	1459.953
621.488	19.993	1515.663	1455.298
622.503	19.696	1514.661	1451.651
623.518	20.009	1514.852	1454.302
624.532	20.427	1514.141	1456.971
625.547	20.584	1513.159	1457.180
626.561	20.730	1512.603	1457.695
627.576	20.824	1511.068	1456.833
628.591	20.466	1508.836	1451.505
629.605	20.215	1506.932	1447.394
630.620	20.039	1505.222	1444.103
631.634	19.808	1504.506	1441.310
632.649	19.963	1503.894	1441.844
633.663	20.246	1502.915	1443.097
634.678	20.404	1502.656	1444.003
635.693	20.725	1501.048	1444.960
636.707	20.743	1500.410	1444.322
637.722	20.998	1499.732	1445.621
638.736	21.057	1498.525	1444.774
639.751	20.965	1496.925	1442.301
640.766	21.022	1494.911	1440.659
641.780	20.985	1493.805	1439.113
642.795	20.869	1493.598	1437.778
643.809	20.939	1493.188	1437.793
644.824	20.980	1491.412	1436.251
645.839	20.868	1490.665	1434.433
646.853	20.975	1489.625	1434.140
647.868	20.765	1488.264	1430.926
648.882	20.840	1486.555	1429.732
649.897	20.902	1484.977	1428.557
650.912	20.793	1483.701	1426.258
651.926	20.712	1483.208	1424.947
652.941	20.450	1481.507	1420.987
653.955	20.145	1479.367	1416.258
654.970	19.825	1477.778	1411.946
655.985	20.097	1476.139	1412.436
656.999	20.014	1475.379	1410.862
658.014	20.322	1474.369	1412.244
659.028	20.442	1473.946	1412.656
660.043	20.675	1473.616	1414.073
661.058	20.900	1471.726	1413.927
662.072	20.844	1470.797	1412.405
663.087	20.793	1470.271	1411.320
664.101	20.821	1469.004	1410.160
665.116	20.839	1468.075	1409.242
666.131	20.968	1467.816	1409.876
667.145	20.868	1466.755	1407.873
668.160	21.052	1465.237	1407.747
669.174	21.323	1463.819	1408.411
670.189	21.195	1462.661	1406.094
671.204	20.983	1461.797	1403.379
672.218	20.944	1461.219	1402.341
673.233	21.077	1460.148	1402.217
674.247	21.282	1458.653	1402.264
675.262	21.422	1457.890	1402.493
676.276	21.414	1456.798	1401.213
677.291	21.177	1456.110	1398.473
678.306	20.979	1454.360	1395.032
679.320	20.994	1453.414	1394.079
680.335	21.195	1452.605	1394.754
681.349	21.266	1452.208	1394.772
682.364	21.195	1451.212	1393.082
683.379	21.244	1449.671	1391.828
684.393	21.227	1447.698	1389.633
685.408	21.380	1446.416	1389.454
686.422	21.233	1445.916	1387.633
687.437	21.217	1445.463	1386.908
688.452	21.258	1445.214	1386.830
689.466	21.274	1443.184	1384.838
690.481	21.059	1441.507	1381.358
691.495	20.852	1440.324	1378.410
692.510	20.377	1437.938	1372.189
693.525	19.990	1436.870	1367.936
694.539	20.323	1435.903	1369.491
695.554	20.815	1437.003	1374.279
696.568	21.290	1436.012	1376.934
697.583	21.472	1434.607	1376.856
698.598	21.363	1434.424	1375.658
699.612	21.411	1433.679	1375.156
700.627	21.443	1432.722	1374.327
701.641	21.417	1430.699	1372.018
702.656	21.429	1429.860	1371.141
703.671	21.610	1429.333	1371.895
704.685	21.533	1428.688	1370.506
705.700	21.588	1426.803	1368.970
706.714	21.338	1424.868	1364.986
707.729	21.200	1423.862	1362.778
708.744	21.293	1422.189	1361.744
709.758	21.102	1420.706	1358.662
710.773	20.682	1419.700	1354.253
711.787	20.524	1418.475	1351.690
712.802	20.716	1416.324	1350.976
713.816	20.904	1416.329	1352.285
714.831	21.048	1416.243	1353.162
715.846	21.382	1414.914	1354.332
716.860	21.463	1413.790	1353.723
717.875	21.364	1412.892	1351.932
718.889	21.338	1412.121	1350.830
719.904	21.368	1411.518	1350.326
720.919	21.476	1410.594	1350.122
721.933	21.581	1409.794	1350.003
722.948	21.587	1408.372	1348.530
723.962	21.739	1406.856	1348.094
724.977	21.749	1405.770	1346.966
725.992	21.806	1404.909	1346.419
727.006	21.684	1403.311	1343.785
728.021	21.637	1402.504	1342.489
729.035	21.748	1402.179	1342.877
730.050	21.601	1400.244	1339.729
731.065	21.571	1399.334	1338.467
732.079	21.721	1398.464	1338.628
733.094	21.702	1397.118	1337.034
734.108	21.544	1395.866	1334.464
735.123	21.727	1393.183	1333.143
736.138	21.368	1394.056	1331.070
737.152	21.596	1392.868	1331.520
738.167	21.776	1392.027	1331.926
739.181	21.928	1390.672	1331.636
740.196	21.672	1390.529	1329.383
741.211	21.681	1389.881	1328.677
742.225	21.662	1388.352	1326.909
743.240	21.621	1386.978	1325.124
744.254	21.663	1385.091	1323.486
745.269	21.657	1384.369	1322.587
746.284	21.489	1383.799	1320.614
747.298	21.396	1382.052	1318.080
748.313	21.067	1380.534	1313.984
749.327	20.540	1379.624	1308.973
750.342	20.397	1378.321	1306.501
751.356	20.151	1376.585	1302.839
752.371	20.385	1376.247	1304.134
753.386	21.151	1375.964	1309.484
754.400	21.506	1375.803	1311.851
755.415	21.821	1374.996	1313.296
756.429	21.748	1374.036	1311.677
757.444	21.692	1372.599	1309.721
758.459	21.628	1371.778	1308.300
759.473	21.876	1370.444	1308.734
760.488	21.923	1369.507	1308.032
761.502	21.864	1368.269	1306.252
762.517	21.687	1366.719	1303.291
763.532	21.596	1365.487	1301.282
764.546	21.269	1364.070	1297.333
765.561	20.883	1362.869	1293.160
766.575	20.568	1361.628	1289.481
767.590	20.620	1360.040	1288.209
768.605	20.943	1359.740	1290.175
769.619	21.238	1358.746	1291.267
770.634	21.480	1358.148	1292.340
771.648	21.633	1357.952	1293.139
772.663	21.921	1356.972	1294.184
773.678	21.821	1356.967	1293.282
774.692	21.758	1355.892	1291.637
775.707	21.942	1354.803	1291.804
776.721	21.960	1353.676	1290.715
777.736	22.123	1352.268	1290.422
778.751	21.960	1352.256	1289.052
779.765	21.968	1350.985	1287.744
780.780	21.820	1350.619	1286.149
781.794	21.850	1349.641	1285.284
782.809	21.794	1347.420	1282.603
783.824	21.843	1345.949	1281.409
784.838	21.214	1344.359	1275.129
785.853	20.711	1342.898	1269.898
786.867	20.838	1342.675	1270.465
787.882	21.200	1342.364	1272.674
788.897	21.421	1341.135	1272.976
789.911	21.502	1340.723	1273.021
790.926	21.474	1340.379	1272.342
791.940	21.563	1339.009	1271.541
792.955	21.924	1337.547	1272.630
793.969	21.839	1336.616	1270.974
794.984	21.796	1335.880	1269.805
795.999	21.916	1334.699	1269.403
797.013	22.079	1333.008	1268.825
798.028	21.970	1331.786	1266.726
799.042	22.032	1331.099	1266.364
800.057	22.120	1330.244	1266.040
801.072	22.101	1328.905	1264.476
802.086	22.177	1327.954	1263.970
803.101	22.167	1327.079	1262.912
804.115	21.995	1326.533	1260.997
805.130	21.973	1325.109	1259.339
806.145	21.912	1324.097	1257.784
807.159	22.174	1321.716	1257.253
808.174	22.043	1320.178	1254.702
809.188	21.787	1319.908	1252.458
810.203	21.657	1317.504	1249.097
811.218	21.478	1315.460	1245.728
812.232	21.129	1313.838	1241.546
813.247	20.875	1313.377	1239.145
814.261	21.295	1314.059	1242.642
815.276	21.619	1313.427	1244.210
816.291	21.859	1312.944	1245.315
817.305	21.959	1311.685	1244.689
818.320	22.217	1309.987	1244.763
819.334	22.175	1308.617	1243.012
820.349	22.167	1307.669	1241.907
821.364	22.091	1306.277	1239.900
822.378	22.122	1305.335	1239.078
823.393	22.203	1303.537	1237.799
824.407	22.103	1302.709	1236.151
825.422	22.051	1302.212	1235.165
826.437	22.191	1300.319	1234.214
827.451	21.928	1298.059	1230.068
828.466	21.212	1296.240	1223.153
829.480	20.851	1294.803	1219.115
830.495	21.146	1293.822	1220.116
831.509	21.513	1293.419	1222.167
832.524	21.663	1292.883	1222.567
833.539	22.012	1291.825	1223.864
834.553	22.308	1290.723	1224.752
835.568	22.239	1289.635	1223.090
836.582	22.269	1288.981	1222.530
837.597	22.280	1288.471	1221.978
838.612	22.246	1286.443	1219.667
839.626	22.003	1284.741	1216.220
840.641	21.977	1283.938	1215.134
841.655	21.459	1282.763	1210.273
842.670	21.131	1280.273	1205.499
843.685	21.034	1278.850	1203.348
844.699	21.292	1278.599	1204.752
845.714	21.720	1278.271	1207.262
846.728	21.816	1277.679	1207.226
847.743	22.109	1276.918	1208.387
848.758	22.316	1275.991	1208.798
849.772	22.127	1274.218	1205.669
850.787	22.300	1272.813	1205.382
851.801	22.275	1271.959	1204.264
852.816	22.120	1270.989	1202.132
853.831	22.048	1269.106	1199.710
854.845	22.013	1267.520	1197.829
855.860	21.802	1265.531	1194.364
856.874	21.689	1264.277	1192.260
857.889	21.413	1263.045	1189.071
858.904	21.115	1261.004	1184.974
859.918	20.854	1259.342	1181.490
860.933	20.825	1257.949	1179.844
861.947	21.060	1258.282	1181.615
862.962	21.380	1257.742	1183.143
863.977	21.317	1257.077	1181.949
864.991	21.655	1256.924	1183.962
866.006	21.801	1256.109	1184.046
867.020	22.155	1254.972	1185.230
868.035	22.091	1253.931	1183.673
869.049	22.229	1253.030	1183.617
870.064	22.209	1251.854	1182.228
871.079	22.237	1250.993	1181.462
872.093	22.130	1250.766	1180.386
873.108	22.169	1249.198	1179.023
874.122	21.871	1247.872	1175.627
875.137	21.429	1246.924	1171.616
876.152	21.470	1245.670	1170.570
877.166	21.616	1244.293	1170.119
878.181	21.807	1243.612	1170.620
879.195	21.995	1243.291	1171.440
880.210	22.177	1242.065	1171.364
881.225	22.172	1241.237	1170.411
882.239	22.285	1240.314	1170.155
883.254	22.165	1239.826	1168.749
884.268	22.134	1238.984	1167.611
885.283	22.395	1237.190	1167.520
886.298	22.276	1235.459	1164.953
887.312	22.213	1234.585	1163.571
888.327	22.287	1233.728	1163.120
889.341	22.179	1232.929	1161.510
890.356	22.242	1231.179	1160.138
891.371	22.098	1231.255	1159.117
892.385	21.911	1230.301	1156.842
893.400	21.773	1229.819	1155.333
894.414	21.550	1228.322	1152.314
895.429	21.537	1225.464	1149.407
896.444	20.870	1222.987	1142.551
897.458	20.537	1222.151	1139.443
898.473	20.843	1222.381	1141.536
899.487	21.451	1221.684	1144.752
900.502	21.991	1220.343	1146.900
901.517	21.940	1220.085	1146.191
902.531	22.058	1219.386	1146.169
903.546	22.157	1218.406	1145.761
904.560	22.098	1218.738	1145.548
905.575	22.217	1217.835	1145.343
906.589	22.285	1216.428	1144.323
907.604	22.203	1216.013	1143.261
