DTS Sentinel unit serial number:	SN409020Multiplexer serial number:	ORYXHardware model number:	OX4-SRSoftware version number:	ORYX F/W v3.00 Oryx Data Collector v3.7.2.0data status	okinstallation	HaddamTimeLapsedifferential loss correction	single-endedforward channel	channel 3reverse channel	N/Adate	2011/06/21time	18:21:17forward acquisition time	30.00reverse acquisition time	0.00gamma	498.7831k internal	0.1823k external	0.1823temperature offset calibration	1.0074default loss term (dB/km)	0.3790temperature slope calibration	1.3530multiplexer offset coefficient	1.0000multiplexer slope coefficient	1.0000fibre end	0.00T internal ref (°C)	36.31T ext. ref 1 (°C)	28.17T ext. ref 2 (°C)	0.25length (m)	temperature (°C)	Stokes	anti-Stokes-747.200	-112.676	-0.041	-0.010
-746.185	216.897	0.325	0.662
-745.171	-120.952	-0.223	-0.047
-744.156	800.000	0.165	0.626
-743.142	-200.000	0.005	-0.028
-742.127	800.000	-0.076	0.325
-741.112	-91.820	-0.059	-0.021
-740.098	92.578	0.220	0.317
-739.083	-25.194	0.214	0.161
-738.069	-162.581	-0.154	-0.010
-737.054	278.937	-0.070	0.159
-736.039	153.629	-0.095	0.167
-735.025	-70.748	0.233	0.112
-734.010	33.122	0.382	0.423
-732.996	246.518	-0.203	0.439
-731.981	60.395	-0.198	0.250
-730.966	-155.073	0.421	0.035
-729.952	2.782	0.258	0.238
-728.937	-20.451	-0.158	-0.123
-727.923	65.442	-0.142	-0.183
-726.908	-87.971	0.341	0.130
-725.894	43.748	-0.140	-0.164
-724.879	-15.160	0.190	0.154
-723.864	-70.258	0.164	0.079
-722.850	800.000	-0.120	0.559
-721.835	800.000	0.044	-0.225
-720.821	143.808	0.045	0.077
-719.806	9.624	-0.200	-0.193
-718.791	221.650	0.149	-0.307
-717.777	256.566	0.188	0.412
-716.762	207.145	-0.276	0.549
-715.748	-173.960	0.201	-0.007
-714.733	-58.002	-0.270	0.150
-713.718	-134.416	-0.631	0.097
-712.704	24.628	0.302	0.318
-711.689	-42.958	0.358	-0.231
-710.675	-65.850	0.202	0.102
-709.660	-200.000	-0.000	-0.517
-708.645	-25.471	-0.270	-0.203
-707.631	-100.446	-0.595	0.187
-706.616	34.346	-0.413	0.460
-705.602	-8.404	-0.085	-0.072
-704.587	47.482	-0.409	-0.486
-703.572	800.000	0.114	-0.485
-702.558	-59.925	0.303	0.164
-701.543	-16.517	-0.320	0.258
-700.529	20.149	-0.266	0.273
-699.514	323.224	0.042	0.101
-698.499	319.953	0.165	-0.402
-697.485	-6.546	0.366	-0.317
-696.470	-200.000	0.045	0.393
-695.456	631.086	0.038	0.122
-694.441	-9.551	0.205	-0.174
-693.426	16.151	-0.077	0.078
-692.412	517.541	-0.171	0.512
-691.397	-47.728	0.459	0.282
-690.383	-17.172	-0.365	0.292
-689.368	-108.331	0.288	-0.079
-688.354	-144.447	-0.173	0.020
-687.339	-35.647	-0.603	-0.416
-686.324	-20.207	0.470	-0.368
-685.310	-89.356	0.480	0.179
-684.295	-18.351	-0.455	-0.362
-683.281	9.600	-0.179	0.172
-682.266	-78.924	-0.572	-0.247
-681.251	-200.000	-0.065	-0.378
-680.237	30.199	0.276	-0.300
-679.222	-200.000	-0.049	0.568
-678.208	-4.922	-0.316	0.277
-677.193	800.000	-0.100	0.354
-676.178	-36.442	0.272	0.186
-675.164	800.000	0.030	0.120
-674.149	149.888	0.080	-0.138
-673.135	10.275	0.200	-0.193
-672.120	46.885	0.185	0.219
-671.105	-200.000	0.011	0.087
-670.091	-36.886	-0.205	0.139
-669.076	-107.652	0.113	0.031
-668.062	415.406	0.120	-0.326
-667.047	800.000	0.011	0.048
-666.032	60.380	-0.091	-0.115
-665.018	-149.343	-0.054	-0.005
-664.003	16.549	0.673	-0.676
-662.989	246.805	0.032	-0.069
-661.974	-200.000	0.019	0.429
-660.959	525.793	0.103	0.311
-659.945	-22.079	-0.181	0.139
-658.930	196.896	0.211	0.410
-657.916	29.950	-0.204	-0.222
-656.901	-80.159	0.703	-0.298
-655.886	-127.879	0.205	-0.037
-654.872	-130.299	-0.661	-0.113
-653.857	-39.237	-0.301	0.200
-652.843	-200.000	-0.083	-0.661
-651.828	109.720	-0.088	0.134
-650.814	-121.781	-0.304	0.063
-649.799	53.610	0.144	-0.176
-648.784	-15.554	-0.117	-0.094
-647.770	-144.524	-0.634	-0.074
-646.755	-87.167	0.237	-0.091
-645.741	-22.438	-0.113	0.087
-644.726	-77.674	-0.082	-0.036
-643.711	-100.611	0.185	0.058
-642.697	-108.304	0.338	0.092
-641.682	-183.862	0.334	0.007
-640.668	-115.774	0.286	-0.068
-639.653	21.262	-0.421	-0.435
-638.638	-2.414	0.184	0.164
-637.624	-88.323	-0.173	0.065
-636.609	-73.406	0.338	-0.156
-635.595	60.701	-0.306	-0.385
-634.580	-172.542	0.188	-0.007
-633.565	237.587	0.117	-0.248
-632.551	172.699	0.078	0.142
-631.536	-79.636	0.507	-0.216
-630.522	639.956	0.157	0.512
-629.507	580.365	-0.094	0.295
-628.492	40.979	0.074	0.085
-627.478	-200.000	-0.017	-0.497
-626.463	379.836	-0.082	-0.213
-625.449	264.530	0.231	0.513
-624.434	-9.583	-0.200	-0.169
-623.419	123.954	-0.171	0.274
-622.405	144.643	-0.277	0.472
-621.390	309.444	0.174	0.415
-620.376	69.386	0.128	-0.168
-619.361	-104.309	-0.187	0.055
-618.346	-200.000	-0.055	-0.510
-617.332	-145.080	0.585	0.067
-616.317	-142.052	0.196	0.025
-615.303	196.286	0.123	-0.238
-614.288	-200.000	-0.033	0.451
-613.273	37.492	0.203	0.228
-612.259	-123.337	0.137	-0.028
-611.244	800.000	0.094	-0.389
-610.230	-200.000	-0.029	-0.215
-609.215	92.931	0.171	-0.245
-608.201	-93.821	0.529	-0.184
-607.186	-51.512	0.326	0.192
-606.171	-36.363	0.176	-0.120
-605.157	164.382	0.046	0.082
-604.142	225.686	0.081	0.166
-603.128	-52.530	0.483	0.282
-602.113	-175.675	0.569	-0.019
-601.098	-44.024	0.305	-0.194
-600.084	-122.790	0.360	0.073
-599.069	-102.658	0.149	0.045
-598.055	-200.000	0.002	-0.104
-597.040	-61.372	0.126	0.067
-596.025	-103.972	0.162	-0.048
-595.011	-40.474	-0.282	-0.185
-593.996	-164.672	0.242	0.014
-592.982	200.519	-0.312	0.611
-591.967	-6.039	-0.195	0.169
-590.952	146.424	-0.181	0.309
-589.938	-49.394	-0.314	-0.189
-588.923	101.595	0.154	0.228
-587.909	-102.812	-0.397	-0.119
-586.894	2.598	-0.025	0.023
-585.879	-132.688	0.321	0.052
-584.865	384.524	-0.017	-0.043
-583.850	228.036	0.160	0.331
-582.836	-140.311	0.471	0.062
-581.821	21.825	0.118	-0.122
-580.806	-200.000	-0.008	0.148
-579.792	345.960	-0.099	-0.248
-578.777	-5.441	0.219	-0.191
-577.763	334.887	0.102	0.252
-576.748	-200.000	-0.105	-0.681
-575.733	111.129	-0.067	-0.103
-574.719	-118.818	0.299	0.066
-573.704	-17.878	0.076	0.060
-572.690	-76.226	0.336	-0.149
-571.675	529.005	0.078	-0.235
-570.661	-159.630	0.772	-0.053
-569.646	-56.340	0.255	0.143
-568.631	24.043	0.072	-0.075
-567.617	18.938	0.159	-0.161
-566.602	-128.510	0.074	0.013
-565.588	-129.307	0.278	-0.049
-564.573	10.512	-0.203	0.196
-563.558	435.237	-0.088	-0.242
-562.544	-64.888	-0.241	-0.123
-561.529	-200.000	-0.106	0.620
-560.515	-200.000	0.061	0.583
-559.500	-114.099	0.375	0.091
-558.485	800.000	0.020	-0.096
-557.471	17.322	0.014	-0.014
-556.456	-200.000	0.021	-0.228
-555.442	165.364	0.312	-0.559
-554.427	157.697	0.243	-0.428
-553.412	119.146	-0.111	-0.174
-552.398	146.369	0.151	0.258
-551.383	440.432	-0.122	0.340
-550.369	-63.504	-0.408	-0.211
-549.354	-166.153	0.452	0.024
-548.339	794.476	0.052	-0.184
-547.325	-98.439	0.299	0.096
-546.310	-87.879	-0.373	-0.141
-545.296	49.464	-0.333	0.396
-544.281	800.000	-0.078	-0.338
-543.266	-137.319	-0.467	-0.066
-542.252	-27.831	-0.166	-0.122
-541.237	99.216	-0.164	0.240
-540.223	-100.816	0.434	-0.134
-539.208	175.788	-0.032	-0.059
-538.193	-190.108	-0.207	-0.003
-537.179	-157.340	0.258	-0.019
-536.164	501.645	-0.081	-0.237
-535.150	192.837	-0.176	-0.338
-534.135	-114.110	-0.178	0.043
-533.121	414.449	-0.075	-0.204
-532.106	91.032	0.160	0.227
-531.091	481.096	0.118	0.341
-530.077	-102.858	0.122	-0.036
-529.062	-122.557	0.416	-0.085
-528.048	-45.931	0.258	0.161
-527.033	82.783	0.185	0.254
-526.018	-30.797	-0.201	-0.143
-525.004	-200.000	0.023	-0.155
-523.989	589.038	-0.057	0.180
-522.975	-9.750	0.191	-0.161
-521.960	800.000	0.103	-0.362
-520.945	-188.056	-0.684	-0.011
-519.931	-46.384	-0.168	0.104
-518.916	-190.387	-0.587	-0.008
-517.902	-92.499	0.240	0.085
-516.887	-159.787	0.072	0.005
-515.872	70.255	0.052	0.068
-514.858	19.309	-0.095	-0.096
-513.843	-60.197	-0.394	0.212
-512.829	-105.929	-0.344	0.097
-511.814	-111.646	0.447	0.114
-510.799	-200.000	0.017	0.237
-509.785	0.686	0.098	-0.089
-508.770	800.000	-0.104	-0.485
-507.756	-114.481	-0.301	0.073
-506.741	-151.373	-0.119	0.011
-505.726	-119.236	-0.300	0.065
-504.712	208.079	0.141	0.279
-503.697	-105.682	0.546	-0.155
-502.683	542.121	0.133	-0.402
-501.668	-100.056	-0.335	-0.105
-500.653	-200.000	0.034	0.217
-499.639	-200.000	-0.313	-0.001
-498.624	-125.529	-0.297	-0.057
-497.610	682.306	-0.104	-0.346
-496.595	-138.305	-0.473	-0.065
-495.581	-76.980	0.483	-0.212
-494.566	-200.000	-0.010	-0.199
-493.551	-26.121	0.260	-0.193
-492.537	800.000	0.037	-0.137
-491.522	-200.000	-0.014	-0.478
-490.508	-200.000	0.025	0.213
-489.493	-171.632	0.138	-0.006
-488.478	-90.896	0.180	-0.065
-487.464	-128.464	0.458	-0.081
-486.449	-52.728	0.254	0.148
-485.435	126.973	-0.066	0.106
-484.420	320.884	0.155	-0.375
-483.405	-32.271	-0.391	-0.275
-482.391	90.547	-0.158	0.223
-481.376	-65.545	-0.140	-0.071
-480.362	42.176	0.210	-0.241
-479.347	48.715	-0.244	-0.290
-478.332	-127.803	-0.254	-0.046
-477.318	-125.233	0.479	-0.092
-476.303	543.907	0.129	-0.390
-475.289	-200.000	-0.001	-0.068
-474.274	44.660	-0.129	0.150
-473.259	-143.866	0.304	-0.036
-472.245	168.591	-0.387	0.698
-471.230	-76.821	-0.442	0.194
-470.216	-40.639	0.151	-0.098
-469.201	31.525	0.211	-0.228
-468.186	-200.000	0.117	0.738
-467.172	279.347	-0.062	0.141
-466.157	70.858	-0.273	-0.358
-465.143	-17.339	0.214	0.170
-464.128	-54.625	-0.105	-0.060
-463.113	-200.000	-0.056	-0.412
-462.099	-130.468	0.195	0.033
-461.084	147.617	0.067	-0.115
-460.070	-27.652	0.198	-0.145
-459.055	800.000	0.010	-0.035
-458.040	-83.606	0.423	0.170
-457.026	-69.933	-0.222	0.107
-456.011	-65.184	-0.260	0.132
-454.997	-51.881	0.472	-0.276
-453.982	29.290	0.153	0.164
-452.968	-111.499	0.371	-0.094
-451.953	-68.359	0.351	-0.171
-450.938	-115.659	-0.598	-0.140
-449.924	-116.485	-0.145	0.034
-448.909	180.857	0.141	0.261
-447.895	104.538	-0.222	0.330
-446.880	-109.193	-0.418	-0.111
-445.865	-200.000	-0.022	0.169
-444.851	-186.576	-0.401	0.007
-443.836	80.086	-0.117	-0.159
-442.822	-12.192	0.038	0.032
-441.807	52.978	0.122	0.147
-440.792	-139.531	-0.563	-0.075
-439.778	-94.826	0.447	0.152
-438.763	660.229	0.022	-0.072
-437.749	-30.255	-0.031	-0.022
-436.734	-148.511	-0.436	0.044
-435.719	-73.160	0.238	0.109
-434.705	54.813	-0.167	-0.203
-433.690	-200.000	0.025	0.140
-432.676	-91.344	-0.155	0.056
-431.661	-168.209	0.288	-0.014
-430.646	-200.000	0.044	-0.616
-429.632	-63.233	-0.065	-0.034
-428.617	-5.741	0.020	-0.017
-427.603	-88.556	-0.177	0.066
-426.588	-200.000	0.043	0.255
-425.573	-82.142	-0.150	-0.061
-424.559	800.000	-0.064	0.234
-423.544	52.396	-0.587	0.706
-422.530	800.000	-0.015	-0.069
-421.515	-61.192	-0.303	0.161
-420.500	-137.528	0.291	-0.041
-419.486	-200.000	0.010	-0.275
-418.471	76.557	-0.192	-0.256
-417.457	-174.665	-0.524	0.018
-416.442	-172.442	-0.137	0.005
-415.428	82.053	0.243	0.332
-414.413	-76.128	-0.318	0.141
-413.398	16.595	0.052	-0.052
-412.384	-119.416	-0.208	-0.045
-411.369	168.115	0.134	0.241
-410.355	-200.000	0.026	-0.187
-409.340	114.381	0.254	-0.390
-408.325	-121.260	0.823	0.172
-407.311	-19.467	0.223	-0.174
-406.296	218.669	0.123	0.249
-405.282	-200.000	-0.007	-0.338
-404.267	55.706	0.283	0.345
-403.252	-13.558	-0.243	0.198
-402.238	-52.332	-0.104	-0.060
-401.223	36.689	0.109	0.122
-400.209	164.736	0.083	-0.148
-399.194	-34.529	-0.360	0.248
-398.179	27.849	-0.041	-0.043
-397.165	800.000	0.081	-0.286
-396.150	678.149	-0.186	-0.613
-395.136	-56.900	0.241	-0.133
-394.121	-175.122	-0.210	0.007
-393.106	153.793	-0.051	-0.089
-392.092	-77.782	0.482	-0.209
-391.077	296.306	0.094	-0.217
-390.063	197.005	-0.074	0.143
-389.048	700.926	0.138	0.459
-388.033	279.807	-0.135	0.305
-387.019	-182.238	-0.515	-0.012
-386.004	134.108	-0.145	0.236
-384.990	68.877	0.539	0.696
-383.975	-200.000	0.045	0.353
-382.960	-2.211	0.098	-0.087
-381.946	93.934	-0.336	-0.480
-380.931	-129.051	-0.416	-0.073
-379.917	520.049	-0.129	-0.383
-378.902	387.287	0.183	-0.477
-377.888	-78.777	0.291	-0.124
-376.873	331.361	-0.187	0.457
-375.858	102.480	-0.205	0.301
-374.844	-166.957	-0.032	0.002
-373.829	-200.000	-0.010	0.270
-372.815	800.000	0.050	-0.236
-371.800	159.425	-0.085	-0.149
-370.785	-200.000	0.025	-0.260
-369.771	800.000	0.054	0.272
-368.756	-200.000	0.028	-0.350
-367.742	24.050	0.142	0.148
-366.727	473.161	-0.118	0.335
-365.712	-48.380	-0.540	-0.326
-364.698	-99.620	0.119	0.037
-363.683	780.180	0.045	0.155
-362.669	569.155	0.149	0.458
-361.654	-200.000	-0.012	-0.155
-360.639	-57.109	-0.114	-0.063
-359.625	-126.350	-0.224	-0.042
-358.610	-200.000	0.004	0.560
-357.596	-171.919	0.723	0.029
-356.581	-152.293	0.480	0.043
-355.566	399.832	0.086	-0.227
-354.552	-200.000	-0.048	0.299
-353.537	386.822	0.288	0.750
-352.523	112.960	0.084	0.129
-351.508	-23.300	-0.165	-0.124
-350.493	282.062	-0.154	-0.348
-349.479	800.000	0.062	0.284
-348.464	-51.283	-0.262	0.154
-347.450	-114.719	0.793	0.189
-346.435	-12.847	-0.200	0.163
-345.420	669.469	0.101	0.331
-344.406	-54.402	0.354	-0.201
-343.391	-200.000	0.080	0.453
-342.377	-19.127	-0.222	0.173
-341.362	270.761	0.179	0.398
-340.348	332.739	-0.096	-0.235
-339.333	3.527	-0.075	-0.069
-338.318	-62.448	-0.231	0.120
-337.304	-68.824	0.278	0.135
-336.289	-8.076	-0.280	0.237
-335.275	-157.884	-0.568	0.042
-334.260	179.729	-0.180	-0.333
-333.245	125.364	-0.113	0.180
-332.231	-135.974	0.015	0.002
-331.216	-200.000	0.043	-0.452
-330.202	-200.000	0.005	0.083
-329.187	-146.638	-0.496	-0.053
-328.172	0.973	-0.360	0.323
-327.158	-141.137	-0.393	-0.050
-326.143	-200.000	-0.001	-0.420
-325.129	-41.846	0.373	0.239
-324.114	-16.118	-0.445	0.355
-323.099	342.345	0.241	-0.594
-322.085	-200.000	0.063	-0.868
-321.070	711.341	-0.143	-0.478
-320.056	-106.721	0.136	-0.038
-319.041	-166.400	-0.266	0.014
-318.026	-39.041	-0.185	-0.122
-317.012	-111.302	-0.175	0.044
-315.997	-24.947	-0.525	-0.390
-314.983	-25.347	-0.440	-0.326
-313.968	114.366	0.109	-0.168
-312.953	77.922	-0.197	0.263
-311.939	-47.975	-0.146	-0.089
-310.924	372.642	-0.142	0.363
-309.910	242.881	0.057	0.121
-308.895	-200.000	-0.042	0.275
-307.880	-121.730	0.241	0.050
-306.866	-29.036	0.207	-0.149
-305.851	409.437	0.173	0.461
-304.837	-103.063	0.126	0.037
-303.822	385.100	0.062	0.160
-302.807	40.459	-0.279	-0.315
-301.793	-200.000	-0.058	-0.513
-300.778	45.144	-0.332	-0.384
-299.764	-134.151	-0.581	-0.089
-298.749	-52.402	-0.299	0.173
-297.735	-14.772	0.183	-0.147
-296.720	-134.708	-0.499	0.075
-295.705	-200.000	-0.031	0.401
-294.691	3.361	-0.145	0.133
-293.676	-73.158	0.208	-0.095
-292.662	-81.761	-0.167	-0.068
-291.647	128.157	-0.049	-0.079
-290.632	527.621	0.041	0.122
-289.618	793.659	0.131	-0.455
-288.603	-37.022	-0.059	0.039
-287.589	800.000	-0.053	0.266
-286.574	78.235	-0.214	0.287
-285.559	-168.760	-0.463	-0.022
-284.545	-136.244	-0.121	0.018
-283.530	85.192	0.053	-0.073
-282.516	-156.993	-0.424	-0.032
-281.501	-50.567	0.478	-0.281
-280.486	160.583	0.107	-0.188
-279.472	351.938	0.132	-0.328
-278.457	-81.779	0.445	-0.182
-277.443	-122.139	0.533	-0.109
-276.428	-200.000	-0.033	-0.526
-275.413	242.159	0.186	-0.391
-274.399	-81.048	-0.635	-0.262
-273.384	193.665	-0.028	-0.053
-272.370	13.440	0.189	-0.184
-271.355	-200.000	-0.001	-0.201
-270.340	-100.022	0.343	0.106
-269.326	190.420	-0.225	0.425
-268.311	-1.979	0.326	0.287
-267.297	-121.372	-0.575	0.119
-266.282	49.871	0.277	-0.327
-265.267	-200.000	-0.006	-0.393
-264.253	-60.674	-0.225	0.119
-263.238	797.967	-0.092	-0.321
-262.224	-200.000	-0.030	0.174
-261.209	95.418	0.261	0.373
-260.195	-7.868	-0.438	0.369
-259.180	85.479	-0.205	-0.282
-258.165	-6.036	0.496	-0.424
-257.151	-66.717	-0.359	0.177
-256.136	-200.000	0.017	0.336
-255.122	-88.070	-0.083	-0.031
-254.107	800.000	-0.032	-0.138
-253.092	-123.459	-0.274	0.054
-252.078	-200.000	-0.021	0.517
-251.063	800.000	-0.086	0.461
-250.049	328.516	0.131	-0.316
-249.034	-200.000	-0.025	-0.512
-248.019	505.645	0.101	-0.294
-247.005	-7.341	-0.230	-0.195
-245.990	-18.562	0.094	-0.074
-244.976	77.044	0.285	0.379
-243.961	109.469	0.170	0.255
-242.946	-200.000	-0.025	0.204
-241.932	-200.000	-0.019	0.257
-240.917	-141.827	-0.290	0.036
-239.903	-200.000	-0.033	0.330
-238.888	92.189	-0.285	0.402
-237.873	359.669	-0.088	0.220
-236.859	-80.137	-0.220	-0.092
-235.844	-97.538	0.280	-0.090
-234.830	-200.000	-0.038	-0.293
-233.815	78.569	-0.076	0.101
-232.800	-200.000	0.000	-0.104
-231.786	-166.904	0.229	-0.012
-230.771	-200.000	0.014	-0.295
-229.757	-185.822	0.156	-0.003
-228.742	-169.870	0.324	0.014
-227.727	-200.000	0.003	0.169
-226.713	-71.895	-0.214	-0.099
-225.698	61.972	0.271	0.338
-224.684	-142.545	0.159	0.019
-223.669	-70.058	-0.235	-0.111
-222.655	800.000	0.042	-0.183
-221.640	800.000	0.055	-0.204
-220.625	65.960	-0.167	-0.212
-219.611	-53.443	0.154	-0.088
-218.596	59.662	0.235	0.291
-217.582	117.098	0.350	-0.538
-216.567	-107.951	-0.205	-0.055
-215.552	-105.253	-0.338	0.096
-214.538	-136.344	-0.225	-0.032
-213.523	800.000	-0.123	0.442
-212.509	117.513	0.165	-0.254
-211.494	800.000	-0.219	-1.037
-210.479	-16.591	-0.102	0.081
-209.465	46.306	-0.119	0.138
-208.450	-80.949	0.200	-0.082
-207.436	-108.557	-0.368	0.098
-206.421	-34.709	-0.287	-0.195
-205.406	-108.610	0.331	0.088
-204.392	-82.984	0.171	0.069
-203.377	-60.735	0.306	0.162
-202.363	49.995	-0.255	-0.300
-201.348	-200.000	0.017	0.426
-200.333	-60.744	-0.504	-0.266
-199.319	-129.648	-0.295	-0.050
-198.304	375.050	-0.091	0.232
-197.290	-85.007	-0.427	-0.166
-196.275	-200.000	-0.015	-0.092
-195.260	-200.000	-0.054	-0.349
-194.246	-135.189	0.148	0.022
-193.231	17.565	0.315	0.313
-192.217	285.563	0.151	0.341
-191.202	-23.087	-0.246	0.185
-190.187	-79.698	0.266	-0.111
-189.173	800.000	0.049	0.202
-188.158	-31.941	-0.250	-0.174
-187.144	513.201	0.089	0.259
-186.129	-73.196	0.073	-0.033
-185.114	-93.731	0.033	-0.011
-184.100	-192.251	-0.326	0.004
-183.085	708.263	-0.130	-0.432
-182.071	100.594	-0.200	-0.291
-181.056	238.344	0.120	-0.249
-180.042	-80.787	0.123	0.051
-179.027	340.380	-0.113	0.276
-178.012	-200.000	-0.043	0.410
-176.998	-200.000	0.040	0.408
-175.983	75.031	0.316	0.417
-174.969	-200.000	-0.016	0.384
-173.954	-54.220	-0.379	0.214
-172.939	-83.698	-0.089	-0.035
-171.925	47.754	0.304	0.354
-170.910	35.116	0.259	0.283
-169.896	-200.000	0.068	0.483
-168.881	-59.421	-0.418	0.223
-167.866	-200.000	-0.016	-0.168
-166.852	800.000	-0.021	0.095
-165.837	56.060	0.158	0.191
-164.823	-200.000	-0.018	0.303
-163.808	75.331	0.065	-0.086
-162.793	0.833	-0.231	0.206
-161.779	-90.098	0.156	-0.057
-160.764	800.000	0.044	0.156
-159.750	83.818	-0.041	-0.056
-158.735	-45.694	-0.187	0.115
-157.720	30.384	0.428	-0.456
-156.706	-200.000	0.041	0.271
-155.691	-139.429	0.194	-0.026
-154.677	34.362	0.131	0.143
-153.662	-38.702	-0.061	-0.040
-152.647	-40.498	0.172	0.111
-151.633	-87.077	-0.221	-0.084
-150.618	-19.932	0.238	0.183
-149.604	232.585	-0.253	0.519
-148.589	565.552	-0.080	0.242
-147.574	-101.350	-0.529	0.160
-146.560	70.646	-0.193	-0.249
-145.545	-88.196	-0.298	-0.111
-144.531	-200.000	0.310	-0.001
-143.516	153.683	0.291	-0.497
-142.502	-74.132	-0.226	-0.102
-141.487	-21.230	-0.020	-0.015
-140.472	-105.468	0.120	-0.034
-139.458	-104.124	0.271	-0.078
-138.443	-103.659	0.446	0.130
-137.429	-43.891	0.215	-0.134
-136.414	102.264	0.324	0.472
-135.399	111.980	0.110	0.166
-134.385	-174.581	0.228	-0.008
-133.370	35.836	0.356	0.390
-132.356	-88.969	-0.174	-0.064
-131.341	-120.929	-0.296	-0.061
-130.326	176.507	0.328	0.596
-129.312	-114.182	0.493	-0.118
-128.297	-200.000	0.011	0.284
-127.283	98.232	-0.133	0.191
-126.268	-77.370	0.160	-0.069
-125.253	-27.230	-0.228	-0.165
-124.239	-61.589	-0.144	-0.075
-123.224	-200.000	0.027	0.462
-122.210	-4.004	-0.269	-0.232
-121.195	-94.616	0.357	-0.120
-120.180	-191.388	-0.271	-0.003
-119.166	-200.000	0.001	-0.175
-118.151	-200.000	0.065	-0.471
-117.137	-6.806	-0.129	-0.109
-116.122	-96.236	-0.076	0.025
-115.107	37.337	-0.109	-0.121
-114.093	-138.177	0.220	-0.030
-113.078	102.655	0.113	0.165
-112.064	148.663	0.278	-0.469
-111.049	31.868	-0.194	-0.208
-110.034	-19.243	-0.193	-0.149
-109.020	41.838	0.127	-0.144
-108.005	-70.501	0.264	-0.124
-106.991	4.888	0.203	-0.186
-105.976	-71.667	-0.173	-0.080
-104.962	-80.824	-0.253	0.104
-103.947	62.289	0.219	-0.272
-102.932	70.737	-0.198	-0.255
-101.918	-200.000	-0.017	0.143
-100.903	-53.602	0.269	-0.153
-99.889	45.452	0.322	0.370
-98.874	28.014	-0.290	0.304
-97.859	-200.000	-0.017	-0.452
-96.845	-71.638	-0.574	-0.265
-95.830	-200.000	0.049	0.353
-94.816	-150.100	0.787	0.075
-93.801	800.000	0.103	0.401
-92.786	-200.000	-0.058	0.338
-91.772	-176.404	0.064	-0.002
-90.757	800.000	0.095	-0.330
-89.743	645.618	0.102	0.326
-88.728	162.374	-0.169	0.295
-87.713	-200.000	-0.004	-0.276
-86.699	-0.022	-0.295	0.261
-85.684	-200.000	0.023	0.158
-84.670	-25.951	-0.606	0.443
-83.655	-125.663	0.191	0.036
-82.640	-67.795	0.398	-0.193
-81.626	-82.898	0.462	-0.184
-80.611	76.373	-0.179	0.236
-79.597	61.573	-0.129	-0.159
-78.582	-106.830	0.113	0.031
-77.567	302.037	-0.147	0.340
-76.553	800.000	-0.030	0.150
-75.538	123.287	0.375	0.586
-74.524	-54.984	-0.130	0.072
-73.509	800.000	-0.102	-0.393
-72.494	-24.462	-0.337	0.249
-71.480	-153.682	0.305	-0.026
-70.465	53.688	0.282	0.336
-69.451	495.663	0.232	0.665
-68.436	179.665	-0.213	0.389
-67.422	179.291	-0.141	-0.257
-66.407	-49.437	-0.476	0.281
-65.392	-24.597	-0.168	0.124
-64.378	-149.472	0.164	0.016
-63.363	-65.861	-0.160	0.079
-62.349	-142.149	-0.150	0.018
-61.334	28.364	-1.577	-1.655
-60.319	-12.653	0.453	0.366
-59.305	260.270	-2.624	-5.653
-58.290	-15.810	3.240	2.560
-57.276	350.257	4.188	10.327
-56.261	-200.000	13.409	213.549
-55.246	488.867	1146.613	3269.735
-54.232	66.315	2798.857	3533.557
-53.217	74.337	2705.131	3532.907
-52.203	78.791	2435.762	3239.303
-51.188	38.080	2089.801	2308.841
-50.173	39.765	1959.537	2183.596
-49.159	37.279	1948.955	2144.169
-48.144	36.920	1945.583	2136.394
-47.130	36.816	1943.474	2132.842
-46.115	36.665	1942.127	2129.610
-45.100	36.562	1940.455	2126.560
-44.086	36.532	1938.814	2124.339
-43.071	36.707	1936.199	2123.326
-42.057	36.659	1935.049	2121.454
-41.042	36.619	1933.835	2119.596
-40.027	36.666	1932.520	2118.586
-39.013	36.589	1930.644	2115.603
-37.998	36.550	1929.528	2113.858
-36.984	36.436	1929.202	2112.164
-35.969	36.504	1927.497	2110.963
-34.954	36.462	1926.206	2109.005
-33.940	36.477	1925.538	2108.357
-32.925	36.437	1923.626	2105.742
-31.911	36.398	1922.149	2103.610
-30.896	36.493	1920.691	2102.969
-29.881	36.368	1920.607	2101.429
-28.867	36.497	1918.060	2099.965
-27.852	36.454	1916.782	2098.016
-26.838	36.321	1915.484	2095.062
-25.823	36.394	1913.406	2093.501
-24.809	36.297	1912.880	2091.786
-23.794	36.367	1912.075	2091.579
-22.779	36.200	1910.635	2088.110
-21.765	36.272	1909.460	2087.524
-20.750	36.339	1907.511	2086.038
-19.736	36.228	1907.117	2084.319
-18.721	36.250	1905.993	2083.244
-17.706	36.345	1903.678	2081.662
-16.692	36.268	1902.901	2079.901
-15.677	36.099	1902.461	2077.508
-14.663	36.096	1900.821	2075.603
-13.648	36.199	1899.798	2075.509
-12.633	36.308	1897.475	2074.075
-11.619	36.149	1896.483	2071.189
-10.604	36.172	1895.686	2070.487
-9.590	36.168	1894.510	2069.068
-8.575	36.282	1892.695	2068.238
-7.560	36.193	1892.095	2066.538
-6.546	36.135	1890.710	2064.318
-5.531	36.100	1890.169	2063.271
-4.517	36.046	1889.019	2061.350
-3.502	36.231	1887.790	2061.922
-2.487	36.105	1887.381	2060.039
-1.473	36.364	1882.885	2057.827
-0.458	36.560	1863.343	2038.465
0.556	32.428	1995.258	2123.270
1.571	31.064	2211.391	2335.828
2.586	32.655	2259.325	2406.621
3.600	32.425	2262.021	2406.242
4.615	32.544	2261.978	2407.438
5.629	32.557	2259.489	2404.675
6.644	32.705	2258.062	2404.758
7.659	32.788	2256.748	2404.133
8.673	32.963	2254.903	2404.125
9.688	32.089	2258.843	2396.825
10.702	28.592	2326.665	2422.188
11.717	24.678	2388.209	2432.538
12.731	12.708	2356.731	2237.642
13.746	2.059	2329.121	2066.792
14.761	0.351	2323.973	2038.770
15.775	0.228	2321.210	2034.440
16.790	0.151	2319.643	2031.774
17.804	0.118	2318.762	2030.317
18.819	0.097	2317.644	2028.807
19.834	0.199	2315.001	2027.631
20.848	0.190	2314.142	2026.514
21.863	0.216	2312.484	2025.175
22.877	0.202	2310.540	2023.042
23.892	0.129	2308.389	2019.925
24.907	0.023	2306.143	2016.293
25.921	0.105	2305.243	2016.365
26.936	0.133	2301.886	2013.569
27.950	0.108	2299.099	2010.546
28.965	0.222	2297.067	2010.068
29.980	0.135	2295.909	2007.645
30.994	0.331	2294.686	2008.962
32.009	6.505	2317.376	2111.930
33.023	22.080	2363.867	2366.559
34.038	30.158	2380.593	2492.701
35.053	31.245	2381.222	2507.740
36.067	30.889	2376.415	2497.582
37.082	30.466	2374.211	2489.262
38.096	30.659	2372.884	2490.171
39.111	31.170	2370.523	2494.270
40.126	30.810	2369.005	2487.542
41.140	30.952	2367.193	2487.236
42.155	30.975	2366.126	2486.138
43.169	30.705	2362.683	2478.602
44.184	30.851	2361.105	2478.607
45.199	30.881	2358.371	2475.833
46.213	30.638	2355.536	2469.316
47.228	30.522	2354.671	2466.575
48.242	30.970	2354.260	2471.826
49.257	31.213	2353.024	2473.460
50.271	31.520	2352.111	2476.295
51.286	31.681	2349.630	2475.526
52.301	30.898	2345.722	2460.719
53.315	30.151	2343.288	2447.961
54.330	28.976	2337.718	2426.287
55.344	28.231	2333.026	2411.263
56.359	28.421	2329.410	2409.752
57.374	28.236	2327.542	2405.091
58.388	28.046	2324.980	2399.636
59.403	27.996	2321.001	2394.597
60.417	27.805	2318.962	2389.692
61.432	28.246	2316.888	2393.063
62.447	28.095	2315.533	2389.389
63.461	28.068	2312.856	2385.990
64.476	27.962	2311.654	2383.074
65.490	28.305	2310.587	2386.187
66.505	28.361	2309.328	2385.324
67.520	28.997	2311.909	2396.042
68.534	30.375	2313.066	2414.985
69.549	30.540	2309.295	2412.904
70.563	30.609	2306.973	2411.093
71.578	30.644	2305.884	2410.124
72.593	31.122	2306.349	2416.545
73.607	31.304	2304.389	2416.567
74.622	31.348	2302.132	2414.489
75.636	31.367	2299.704	2411.895
76.651	31.154	2296.944	2405.949
77.666	31.242	2295.738	2405.535
78.680	31.172	2292.851	2401.322
79.695	30.651	2289.302	2390.585
80.709	29.525	2284.752	2371.022
81.724	29.201	2282.423	2364.141
82.739	30.320	2282.877	2378.753
83.753	31.540	2284.485	2395.867
84.768	31.597	2282.961	2394.717
85.782	31.387	2281.854	2390.559
86.797	31.422	2279.261	2388.010
87.812	30.936	2275.295	2377.337
88.826	30.715	2274.045	2372.922
89.841	31.158	2273.571	2377.819
90.855	31.632	2270.741	2380.633
91.870	30.928	2267.208	2367.660
92.884	30.513	2265.109	2359.879
93.899	30.724	2265.096	2362.278
94.914	29.963	2261.037	2348.065
95.928	28.151	2255.708	2319.185
96.943	27.870	2254.032	2313.605
97.957	29.699	2257.425	2340.122
98.972	31.022	2256.435	2355.625
99.987	30.534	2252.195	2344.723
101.001	30.372	2249.870	2339.972
102.016	30.634	2249.012	2342.115
103.030	30.680	2246.679	2339.987
104.045	30.524	2244.356	2335.320
105.060	31.171	2244.316	2343.173
106.074	31.482	2243.626	2346.093
107.089	30.957	2239.638	2335.027
108.103	30.549	2237.543	2327.432
109.118	31.013	2236.983	2332.408
110.133	30.987	2235.622	2330.381
111.147	31.141	2233.128	2329.437
112.162	31.263	2231.743	2329.239
113.176	31.308	2229.910	2327.613
114.191	30.825	2226.414	2317.640
115.206	30.625	2226.237	2314.677
116.220	31.051	2224.615	2318.036
117.235	30.822	2222.714	2312.929
118.249	30.742	2220.242	2309.082
119.264	30.777	2219.448	2308.408
120.279	30.646	2216.331	2303.263
121.293	30.626	2214.239	2300.560
122.308	30.744	2212.928	2300.392
123.322	30.460	2211.142	2294.733
124.337	29.386	2205.567	2275.369
125.352	28.231	2202.279	2257.401
126.366	28.719	2204.380	2265.330
127.381	30.594	2206.241	2290.208
128.395	31.545	2205.110	2300.529
129.410	31.214	2202.733	2293.683
130.424	31.024	2199.625	2287.823
131.439	31.165	2198.375	2287.994
132.454	30.894	2196.063	2281.975
133.468	31.255	2195.015	2285.055
134.483	31.169	2193.530	2282.181
135.497	30.953	2191.325	2276.956
136.512	31.463	2189.890	2281.448
137.527	31.629	2188.601	2281.870
138.541	31.471	2187.853	2278.878
139.556	31.421	2186.718	2276.810
140.570	31.177	2184.851	2271.615
141.585	30.904	2181.233	2264.244
142.600	30.785	2180.363	2261.623
143.614	30.949	2179.280	2262.223
144.629	31.358	2178.219	2265.842
145.643	30.970	2175.128	2257.628
146.658	30.542	2172.632	2249.566
147.673	30.101	2168.605	2239.766
148.687	30.162	2167.084	2238.670
149.702	30.142	2167.112	2238.191
150.716	30.389	2166.984	2240.783
151.731	31.326	2168.863	2253.832
152.746	31.775	2168.194	2258.307
153.760	30.499	2163.714	2237.928
154.775	28.404	2156.095	2204.478
155.789	27.864	2153.468	2195.010
156.804	29.337	2155.118	2214.221
157.819	30.333	2153.840	2224.656
158.833	30.473	2152.162	2224.338
159.848	30.712	2151.346	2226.107
160.862	30.979	2150.185	2227.839
161.877	31.309	2149.761	2231.097
162.892	31.546	2149.484	2233.391
163.906	31.771	2148.968	2235.280
164.921	31.750	2146.289	2231.974
165.935	31.586	2142.461	2225.766
166.950	30.895	2140.215	2214.913
167.964	30.700	2137.361	2209.371
168.979	30.654	2134.543	2205.648
169.994	30.855	2134.692	2207.935
171.008	30.693	2132.053	2203.012
172.023	30.687	2130.488	2201.053
173.037	30.994	2130.901	2204.873
174.052	31.126	2128.800	2204.000
175.067	30.645	2126.926	2196.093
176.081	30.543	2125.572	2193.213
177.096	31.043	2124.672	2197.948
178.110	31.099	2123.435	2197.078
179.125	30.918	2121.194	2192.354
180.140	31.041	2121.743	2194.111
181.154	31.292	2120.584	2195.612
182.169	31.290	2119.386	2194.090
183.183	30.840	2115.858	2184.865
184.198	29.235	2109.417	2159.064
185.213	28.619	2108.425	2150.547
186.227	30.552	2111.243	2175.935
187.242	31.124	2110.474	2181.598
188.256	30.817	2108.441	2175.633
189.271	31.215	2108.576	2180.183
190.286	31.264	2105.654	2177.472
191.300	30.715	2101.711	2166.721
192.315	30.881	2100.798	2167.454
193.329	31.332	2100.683	2172.351
194.344	31.532	2100.012	2173.732
195.359	31.187	2097.245	2166.584
196.373	31.411	2095.892	2167.536
197.388	31.335	2093.325	2163.746
198.402	31.125	2091.126	2158.762
199.417	31.167	2089.591	2157.413
200.432	31.050	2088.000	2154.148
201.446	31.047	2086.683	2152.501
202.461	30.887	2085.574	2149.239
203.475	30.741	2082.939	2144.584
204.490	30.807	2080.990	2143.081
205.504	30.838	2078.485	2140.605
206.519	30.619	2075.355	2134.592
207.534	30.795	2074.975	2135.982
208.548	31.525	2073.884	2143.010
209.563	30.700	2071.739	2131.050
210.577	30.775	2071.697	2131.612
211.592	31.510	2072.212	2140.337
212.607	30.540	2067.008	2123.577
213.621	27.909	2060.487	2086.456
214.636	27.983	2059.610	2086.167
215.650	30.520	2064.608	2120.116
216.665	31.694	2065.192	2133.925
217.680	31.575	2062.914	2129.953
218.694	31.599	2060.613	2127.597
219.709	30.863	2057.481	2115.705
220.723	30.832	2057.007	2114.606
221.738	31.685	2056.365	2123.428
222.753	32.020	2054.820	2125.389
223.767	31.665	2053.218	2119.435
224.782	31.029	2049.591	2108.217
225.796	30.995	2048.800	2106.769
226.811	31.393	2048.288	2110.509
227.826	31.325	2045.333	2106.441
228.840	31.308	2043.689	2104.299
229.855	31.281	2042.881	2102.907
230.869	30.794	2040.511	2094.707
231.884	30.834	2038.611	2092.958
232.899	31.150	2038.463	2096.130
233.913	31.434	2038.453	2099.074
234.928	31.576	2037.578	2099.521
235.942	31.333	2034.885	2093.755
236.957	30.877	2032.416	2085.841
237.972	31.110	2031.341	2087.104
238.986	30.992	2031.499	2085.691
240.001	30.749	2027.801	2078.912
241.015	30.470	2026.274	2073.970
242.030	30.850	2025.787	2077.489
243.045	29.315	2019.828	2053.954
244.059	28.936	2019.721	2049.359
245.074	30.967	2021.497	2073.654
246.088	31.202	2018.963	2073.425
247.103	31.192	2017.959	2072.035
248.117	31.707	2016.765	2076.301
249.132	31.606	2016.117	2074.262
250.147	31.258	2012.147	2066.058
251.161	30.716	2009.641	2057.224
252.176	30.924	2008.970	2058.598
253.190	30.769	2005.411	2052.981
254.205	30.602	2002.983	2048.408
255.220	30.846	2001.519	2049.359
256.234	30.395	2001.307	2043.910
257.249	30.352	2000.521	2042.382
258.263	30.596	2001.018	2045.352
259.278	30.965	1999.116	2047.235
260.293	31.001	1998.322	2046.570
261.307	30.844	1995.925	2042.140
262.322	30.948	1994.356	2041.434
263.336	30.389	1990.992	2031.600
264.351	30.471	1989.175	2030.408
265.366	30.884	1990.247	2035.794
266.380	31.267	1989.389	2038.883
267.395	31.009	1987.469	2033.842
268.409	30.982	1985.522	2031.306
269.424	31.137	1984.032	2031.238
270.439	31.097	1983.492	2030.006
271.453	30.935	1980.706	2025.144
272.468	28.885	1973.341	1995.028
273.482	28.048	1972.067	1984.381
274.497	29.856	1973.155	2004.951
275.512	30.962	1973.444	2017.045
276.526	30.938	1972.148	2015.219
277.541	30.842	1969.296	2011.015
278.555	30.607	1966.653	2005.531
279.570	30.599	1965.151	2003.669
280.585	30.260	1964.431	1999.027
281.599	30.681	1963.877	2002.784
282.614	31.024	1961.184	2003.500
283.628	30.154	1958.298	1990.923
284.643	29.238	1956.108	1978.583
285.657	28.973	1953.265	1972.609
286.672	28.794	1951.887	1969.053
287.687	28.268	1949.035	1960.287
288.701	28.363	1946.804	1958.822
289.716	27.837	1943.856	1949.985
290.730	26.769	1940.274	1934.708
291.745	27.537	1941.143	1943.572
292.760	28.300	1941.119	1951.491
293.774	29.332	1944.935	1966.161
294.789	31.114	1947.587	1987.713
295.803	31.361	1945.284	1987.765
296.818	31.002	1943.852	1982.233
297.833	31.462	1943.280	1986.323
298.847	31.281	1941.693	1982.533
299.862	31.084	1938.923	1977.367
300.876	30.778	1935.419	1970.306
301.891	29.214	1931.986	1949.946
302.906	28.693	1931.403	1943.589
303.920	30.331	1934.518	1963.922
304.935	31.617	1933.995	1976.818
305.949	31.613	1931.700	1974.194
306.964	31.758	1929.391	1973.131
307.979	31.030	1924.661	1960.370
308.993	28.163	1916.654	1921.767
310.008	25.785	1909.736	1889.547
311.022	25.401	1908.097	1883.662
312.037	25.958	1907.866	1889.071
313.052	25.952	1905.283	1886.227
314.066	25.377	1902.334	1877.039
315.081	25.204	1901.494	1874.168
316.095	25.159	1899.708	1871.718
317.110	25.082	1898.143	1869.145
318.125	24.962	1897.083	1866.621
319.139	24.874	1895.429	1863.843
320.154	24.927	1894.093	1862.859
321.168	25.002	1893.365	1862.709
322.183	26.789	1897.604	1885.355
323.197	29.937	1903.582	1924.007
324.212	31.185	1903.088	1936.301
325.227	30.912	1902.130	1932.251
326.241	31.009	1900.090	1930.961
327.256	31.095	1899.548	1931.070
328.270	30.844	1897.617	1926.265
329.285	30.889	1897.871	1926.766
330.300	30.445	1895.074	1919.078
331.314	28.363	1889.495	1891.623
332.329	28.066	1888.692	1887.510
333.343	30.087	1890.224	1909.773
334.358	30.974	1889.519	1918.014
335.373	31.350	1888.631	1920.774
336.387	31.735	1887.616	1923.477
337.402	31.648	1886.351	1921.061
338.416	31.275	1884.550	1915.160
339.431	31.105	1883.423	1912.031
340.446	31.320	1880.143	1910.688
341.460	30.004	1875.907	1892.640
342.475	29.286	1872.381	1881.495
343.489	28.008	1867.035	1862.814
344.504	26.468	1863.136	1842.952
345.519	25.956	1860.025	1834.410
346.533	25.547	1857.347	1827.373
347.548	25.520	1856.267	1825.822
348.562	25.766	1855.572	1827.432
349.577	25.848	1853.999	1826.497
350.592	26.027	1853.852	1827.958
351.606	25.866	1852.722	1824.981
352.621	25.422	1849.488	1817.068
353.635	25.411	1847.688	1814.970
354.650	26.393	1851.248	1828.231
355.665	28.880	1855.667	1857.675
356.679	30.345	1857.289	1873.953
357.694	31.031	1856.810	1880.202
358.708	31.368	1857.353	1883.946
359.723	30.671	1854.098	1873.361
360.738	28.629	1848.083	1846.440
361.752	28.681	1847.702	1846.366
362.767	30.692	1849.554	1868.315
363.781	31.464	1848.542	1874.856
364.796	31.544	1849.038	1875.941
365.810	31.564	1847.225	1874.070
366.825	30.950	1842.178	1862.562
367.840	28.208	1833.690	1826.298
368.854	25.705	1828.150	1795.506
369.869	25.503	1826.322	1791.464
370.883	25.684	1825.631	1792.387
371.898	25.825	1825.380	1793.338
372.913	26.044	1823.389	1793.356
373.927	25.425	1822.240	1785.833
374.942	25.405	1822.207	1785.379
375.956	26.809	1823.090	1800.053
376.971	27.565	1822.219	1806.520
377.986	27.497	1820.469	1803.888
379.000	27.430	1819.342	1801.892
380.015	27.686	1818.657	1803.537
381.029	29.603	1821.967	1825.675
382.044	30.975	1823.864	1840.987
383.059	31.076	1821.715	1839.600
384.073	30.839	1820.424	1835.723
385.088	31.217	1820.840	1839.670
386.102	31.115	1819.169	1836.751
387.117	30.857	1817.085	1831.873
388.132	30.940	1817.016	1832.409
389.146	30.538	1814.391	1825.575
390.161	28.435	1809.164	1799.368
391.175	28.113	1805.390	1792.234
392.190	29.424	1804.161	1803.687
393.205	30.263	1804.768	1812.321
394.219	30.710	1803.579	1815.296
395.234	30.519	1803.756	1813.381
396.248	30.693	1801.561	1812.667
397.263	30.575	1798.793	1808.504
398.278	30.683	1797.234	1807.780
399.292	30.547	1795.160	1804.146
400.307	30.137	1794.357	1799.123
401.321	29.116	1790.544	1785.150
402.336	28.584	1788.625	1777.837
403.350	28.535	1785.416	1773.964
404.365	28.594	1785.232	1774.143
405.380	28.381	1781.841	1768.487
406.394	26.268	1775.995	1742.026
407.409	25.349	1774.322	1731.266
408.423	25.613	1772.216	1731.567
409.438	25.543	1770.511	1729.016
410.453	25.358	1769.983	1726.501
411.467	25.744	1769.416	1729.469
412.482	26.117	1770.445	1733.870
413.496	28.880	1776.428	1766.250
414.511	31.007	1777.439	1787.566
415.526	31.073	1775.999	1786.545
416.540	31.038	1773.956	1783.933
417.555	30.808	1773.166	1780.718
418.569	30.468	1772.110	1776.177
419.584	30.356	1771.473	1774.249
420.599	30.276	1771.111	1772.906
421.613	30.721	1770.065	1775.919
422.628	30.682	1768.728	1773.985
423.642	30.883	1766.755	1773.724
424.657	30.163	1762.941	1762.799
425.672	29.811	1762.666	1758.950
426.686	30.509	1762.817	1765.561
427.701	30.129	1761.196	1760.095
428.715	29.929	1758.393	1755.181
429.730	30.184	1757.323	1756.334
430.745	30.820	1758.523	1763.377
431.759	31.407	1758.801	1769.026
432.774	31.584	1758.643	1770.344
433.788	29.391	1750.581	1741.231
434.803	26.593	1744.912	1708.882
435.818	26.077	1743.671	1702.573
436.832	26.021	1742.844	1701.031
437.847	25.472	1736.284	1689.242
438.861	16.491	1709.119	1578.692
439.876	3.648	1685.005	1436.724
440.890	0.516	1678.902	1402.138
441.905	0.226	1677.671	1398.234
442.920	0.265	1676.242	1397.243
443.934	0.154	1674.959	1394.967
444.949	0.182	1674.161	1394.395
445.963	0.166	1673.198	1393.281
446.978	0.061	1672.790	1391.796
447.993	0.183	1670.746	1391.059
449.007	0.152	1669.033	1389.183
450.022	0.243	1666.314	1387.598
451.036	0.186	1666.275	1386.870
452.051	1.402	1673.093	1403.675
453.066	13.164	1699.871	1536.463
454.080	24.606	1717.318	1659.508
455.095	27.009	1722.293	1686.582
456.109	29.100	1726.102	1709.655
457.124	29.901	1726.320	1717.136
458.139	29.323	1724.151	1709.389
459.153	28.936	1722.027	1703.476
460.168	29.025	1719.712	1701.807
461.182	29.454	1719.547	1705.425
462.197	30.195	1719.107	1711.666
463.212	30.486	1719.158	1714.209
464.226	31.013	1719.341	1719.071
465.241	31.327	1718.358	1720.791
466.255	31.276	1716.494	1718.246
467.270	31.057	1715.272	1714.792
468.285	31.551	1715.880	1719.761
469.299	32.300	1715.635	1726.226
470.314	32.283	1714.064	1724.287
471.328	32.349	1712.819	1723.437
472.343	32.422	1711.599	1722.672
473.358	32.389	1710.216	1720.775
474.372	32.500	1709.656	1721.023
475.387	32.820	1709.409	1723.505
476.401	32.796	1706.412	1720.060
477.416	32.031	1705.217	1711.634
478.430	31.828	1703.935	1708.284
479.445	32.403	1703.881	1713.295
480.460	32.689	1702.143	1713.949
481.474	32.571	1701.286	1711.809
482.489	32.565	1699.255	1709.509
483.503	31.911	1696.474	1700.541
484.518	31.622	1694.311	1695.545
485.533	32.016	1694.553	1699.170
486.547	31.882	1692.217	1695.408
487.562	31.067	1689.262	1684.839
488.576	31.468	1689.928	1688.952
489.591	32.212	1689.118	1694.683
490.606	32.404	1689.385	1696.489
491.620	32.361	1687.054	1693.559
492.635	32.140	1683.797	1688.088
493.649	31.365	1681.506	1678.598
494.664	31.463	1681.659	1679.426
495.679	31.992	1681.184	1683.529
496.693	32.165	1679.711	1683.407
497.708	32.076	1678.593	1681.289
498.722	31.746	1677.031	1676.549
499.737	31.905	1675.954	1676.701
500.752	32.172	1674.012	1676.955
501.766	32.175	1672.979	1675.751
502.781	32.215	1671.565	1674.490
503.795	32.304	1669.251	1672.763
504.810	32.275	1669.062	1672.116
505.825	31.928	1667.898	1667.652
506.839	31.475	1665.986	1661.499
507.854	31.435	1664.225	1659.187
508.868	31.230	1661.960	1654.901
509.883	30.417	1659.091	1644.613
510.898	29.857	1656.426	1636.800
511.912	29.500	1653.719	1630.756
512.927	29.173	1651.663	1625.632
513.941	28.967	1650.424	1622.391
514.956	29.249	1650.774	1625.042
515.971	30.067	1650.223	1631.548
516.985	29.856	1647.554	1626.854
518.000	29.355	1647.051	1621.728
519.014	29.097	1645.584	1617.812
520.029	29.211	1643.880	1616.953
521.043	29.107	1642.703	1614.685
522.058	29.285	1641.204	1614.587
523.073	29.238	1640.619	1613.398
524.087	29.576	1639.553	1615.128
525.102	30.048	1639.980	1619.509
526.116	30.994	1639.826	1627.469
527.131	31.450	1640.024	1631.469
528.146	31.503	1639.774	1631.493
529.160	31.487	1638.983	1630.370
530.175	31.814	1638.179	1632.237
531.189	31.797	1636.483	1630.206
532.204	31.777	1635.391	1628.746
533.219	31.740	1634.635	1627.475
534.233	31.933	1634.224	1628.556
535.248	31.734	1630.960	1623.374
536.262	31.179	1629.374	1616.766
537.277	31.448	1629.745	1619.288
538.292	31.973	1629.094	1623.010
539.306	32.009	1626.971	1621.015
540.321	31.495	1624.093	1613.494
541.335	30.897	1622.565	1606.601
542.350	31.237	1622.324	1609.116
543.365	31.802	1621.116	1612.615
544.379	31.990	1620.042	1612.982
545.394	31.988	1617.646	1610.389
546.408	31.568	1616.421	1605.350
547.423	31.723	1616.216	1606.294
548.438	32.486	1615.984	1612.440
549.452	32.416	1614.052	1609.721
550.467	31.752	1611.403	1601.180
551.481	31.634	1610.837	1599.412
552.496	31.414	1610.428	1596.926
553.511	31.561	1608.838	1596.423
554.525	31.613	1608.081	1595.922
555.540	31.681	1607.490	1595.731
556.554	31.885	1605.597	1595.401
557.569	31.561	1603.293	1590.156
558.583	31.101	1601.436	1584.201
559.598	31.194	1600.349	1583.729
560.613	30.965	1600.277	1581.514
561.627	30.828	1597.737	1577.650
562.642	30.324	1595.308	1570.773
563.656	29.660	1592.997	1562.668
564.671	29.471	1590.367	1558.298
565.686	29.327	1589.633	1556.170
566.700	29.255	1587.952	1553.726
567.715	29.254	1586.338	1551.954
568.729	29.600	1585.422	1553.800
569.744	29.974	1585.830	1557.176
570.759	30.162	1584.690	1557.457
571.773	29.876	1583.078	1553.278
572.788	29.732	1581.234	1550.069
573.802	29.591	1579.190	1546.688
574.817	29.307	1577.304	1542.273
575.832	29.283	1577.388	1541.961
576.846	29.939	1577.113	1547.028
577.861	30.696	1576.607	1552.699
578.875	30.991	1576.640	1555.018
579.890	31.326	1576.155	1557.161
580.905	31.357	1575.986	1557.065
581.919	31.315	1574.913	1555.470
582.934	31.536	1574.606	1556.828
583.948	31.245	1573.021	1552.640
584.963	31.373	1570.941	1551.474
585.978	31.482	1569.874	1551.142
586.992	31.000	1568.463	1545.545
588.007	30.927	1567.794	1544.092
589.021	30.678	1565.561	1539.636
590.036	29.650	1563.009	1528.402
591.051	30.353	1562.668	1533.728
592.065	30.970	1561.543	1537.557
593.080	31.066	1560.678	1537.315
594.094	31.306	1558.894	1537.360
595.109	31.220	1558.223	1535.800
596.123	31.760	1557.361	1539.228
597.138	31.946	1556.697	1539.925
598.153	31.408	1554.904	1533.534
599.167	30.931	1552.348	1526.903
600.182	30.914	1551.325	1525.570
601.196	30.987	1550.822	1525.495
602.211	31.317	1550.074	1527.286
603.226	31.211	1549.048	1525.220
604.240	31.277	1548.317	1524.859
605.255	31.427	1546.488	1524.108
606.269	31.355	1545.630	1522.487
607.284	31.245	1544.240	1520.041
608.299	30.937	1543.080	1516.195
609.313	30.745	1541.226	1512.626
610.328	30.651	1539.541	1510.023
611.342	30.807	1537.469	1509.084
612.357	30.752	1537.557	1508.536
613.372	30.546	1535.534	1504.699
614.386	30.255	1534.313	1500.951
615.401	30.333	1533.106	1500.230
616.415	30.189	1531.438	1497.250
617.430	29.752	1530.025	1492.140
618.445	29.616	1527.774	1488.671
619.459	29.483	1527.765	1487.404
620.474	29.349	1526.897	1485.293
621.488	29.699	1527.088	1488.136
622.503	30.367	1525.721	1492.025
623.518	29.996	1523.587	1486.766
624.532	29.633	1521.624	1481.744
625.547	29.536	1520.142	1479.347
626.561	29.482	1519.575	1478.182
627.576	29.535	1518.902	1477.779
628.591	29.774	1518.218	1478.853
629.605	30.060	1517.943	1480.709
630.620	30.422	1517.607	1483.107
631.634	30.801	1517.354	1485.726
632.649	31.037	1515.981	1486.091
633.663	30.661	1513.112	1480.094
634.678	30.058	1510.156	1472.214
635.693	29.637	1508.909	1467.464
636.707	29.524	1506.980	1464.509
637.722	29.581	1506.662	1464.484
638.736	30.037	1506.620	1467.897
639.751	30.620	1505.641	1471.402
640.766	30.673	1504.971	1470.992
641.780	30.593	1504.139	1469.374
642.795	30.970	1503.679	1471.736
643.809	31.081	1503.111	1471.888
644.824	31.191	1502.447	1471.934
645.839	31.383	1501.644	1472.492
646.853	31.340	1500.862	1471.206
647.868	31.004	1498.486	1466.042
648.882	30.928	1496.430	1463.258
649.897	30.905	1494.799	1461.304
650.912	30.737	1493.599	1458.639
651.926	30.769	1492.014	1457.169
652.941	30.817	1491.300	1456.670
653.955	30.742	1489.458	1454.110
654.970	29.934	1486.519	1444.729
655.985	29.618	1485.012	1440.617
656.999	29.384	1484.170	1437.796
658.014	29.614	1483.522	1438.797
659.028	30.059	1483.212	1441.802
660.043	30.641	1482.698	1445.680
661.058	30.837	1481.276	1445.648
662.072	30.936	1480.901	1445.885
663.087	30.829	1479.628	1443.635
664.101	30.628	1478.584	1440.875
665.116	30.680	1477.585	1440.139
666.131	30.715	1476.983	1439.652
667.145	30.866	1476.038	1439.728
668.160	30.946	1474.680	1438.851
669.174	30.811	1472.511	1435.518
670.189	30.968	1472.135	1436.199
671.204	31.285	1471.570	1437.923
672.218	31.173	1470.906	1436.239
673.233	31.179	1470.342	1435.566
674.247	31.199	1468.590	1433.838
675.262	30.940	1467.805	1430.898
676.276	30.808	1466.221	1428.162
677.291	30.866	1465.651	1427.886
678.306	31.144	1464.670	1428.899
679.320	30.881	1463.130	1425.204
680.335	30.685	1461.509	1421.950
681.349	30.789	1460.920	1422.005
682.364	30.904	1459.709	1421.535
683.379	30.577	1457.543	1416.750
684.393	30.335	1456.274	1413.496
685.408	30.152	1454.707	1410.409
686.422	30.112	1453.328	1408.598
687.437	29.722	1452.965	1405.101
688.452	29.389	1452.138	1401.586
689.466	29.478	1449.378	1399.434
690.481	29.494	1447.924	1397.984
691.495	29.609	1448.411	1399.159
692.510	30.443	1448.228	1405.165
693.525	31.206	1447.331	1409.920
694.539	30.787	1445.625	1404.910
695.554	29.943	1444.226	1396.988
696.568	29.629	1442.209	1392.487
697.583	29.557	1441.220	1390.821
698.598	29.816	1440.629	1392.044
699.612	30.015	1439.899	1392.677
700.627	30.200	1438.944	1392.983
701.641	30.548	1438.610	1395.117
702.656	30.849	1437.478	1396.125
703.671	30.809	1436.637	1394.841
704.685	30.842	1437.181	1395.445
705.700	30.870	1435.309	1393.671
706.714	30.501	1433.753	1389.223
707.729	30.422	1431.753	1386.527
708.744	30.397	1430.224	1384.690
709.758	30.257	1428.905	1382.198
710.773	29.852	1427.204	1377.360
711.787	29.601	1426.246	1374.394
712.802	30.182	1425.537	1377.885
713.816	30.418	1425.089	1379.052
714.831	30.548	1424.280	1379.071
715.846	30.408	1423.164	1376.786
716.860	30.409	1421.890	1375.398
717.875	30.418	1421.445	1374.863
718.889	30.263	1419.834	1371.991
719.904	30.325	1418.211	1370.719
720.919	30.156	1416.956	1368.086
721.933	30.102	1415.930	1366.534
722.948	30.061	1415.014	1365.184
723.962	30.238	1414.112	1365.460
724.977	30.320	1412.627	1364.465
725.992	30.390	1412.160	1364.374
727.006	30.887	1411.321	1367.066
728.021	30.769	1409.662	1364.425
729.035	30.712	1408.583	1362.795
730.050	30.671	1408.305	1362.060
731.065	30.565	1407.281	1360.128
732.079	30.508	1405.555	1357.883
733.094	30.689	1404.725	1358.247
734.108	30.926	1403.378	1358.516
735.123	30.827	1402.104	1356.392
736.138	30.468	1400.479	1352.036
737.152	30.538	1400.268	1352.180
738.167	30.439	1398.859	1349.938
739.181	30.546	1398.136	1349.861
740.196	30.605	1396.980	1349.014
741.211	30.409	1395.700	1346.185
742.225	30.386	1394.794	1344.985
743.240	30.239	1393.307	1342.317
744.254	29.928	1391.725	1338.371
745.269	29.723	1390.086	1335.150
746.284	29.471	1388.901	1332.023
747.298	29.454	1387.796	1330.680
748.313	29.670	1387.209	1331.523
749.327	30.055	1386.629	1333.591
750.342	30.543	1387.986	1338.270
751.356	30.953	1387.196	1340.316
752.371	30.838	1385.241	1337.436
753.386	29.885	1382.905	1328.150
754.400	30.010	1381.948	1327.975
755.415	30.323	1381.313	1329.460
756.429	30.571	1379.978	1329.795
757.444	30.828	1379.225	1330.756
758.459	30.506	1378.036	1327.141
759.473	30.358	1376.367	1324.313
760.488	30.126	1375.068	1321.244
761.502	29.868	1373.693	1317.915
762.517	29.953	1373.089	1317.785
763.532	30.253	1372.227	1318.948
764.546	30.131	1370.468	1316.227
765.561	29.651	1368.966	1311.201
766.575	29.101	1367.472	1305.693
767.590	29.176	1366.537	1305.180
768.605	29.758	1365.627	1308.295
769.619	30.054	1365.434	1310.061
770.634	30.032	1364.396	1308.752
771.648	29.943	1363.411	1307.015
772.663	29.803	1362.679	1305.165
773.678	30.101	1361.451	1305.943
774.692	30.382	1361.395	1307.723
775.707	30.535	1360.657	1307.941
776.721	30.541	1359.643	1306.852
777.736	30.307	1358.412	1303.863
778.751	30.272	1357.584	1302.665
779.765	30.376	1356.705	1302.395
780.780	30.299	1356.462	1301.467
781.794	30.395	1354.811	1300.400
782.809	30.002	1353.093	1295.837
783.824	29.446	1351.329	1290.085
784.838	29.535	1351.048	1290.282
785.853	30.302	1351.063	1295.527
786.867	30.128	1349.781	1292.926
787.882	29.745	1348.591	1288.949
788.897	29.580	1346.892	1286.014
789.911	29.364	1345.911	1283.411
790.926	29.282	1344.443	1281.287
791.940	29.441	1343.087	1280.951
792.955	29.741	1341.109	1281.001
793.969	29.683	1340.877	1280.220
794.984	29.647	1340.625	1279.576
795.999	29.904	1340.231	1280.838
797.013	30.162	1338.679	1280.990
798.028	30.260	1337.085	1279.992
799.042	30.119	1336.596	1278.392
800.057	30.222	1335.183	1277.607
801.072	30.025	1334.262	1275.208
802.086	30.068	1333.113	1274.251
803.101	29.925	1332.109	1272.149
804.115	30.100	1331.089	1272.238
805.130	30.056	1330.253	1270.977
806.145	30.024	1328.749	1269.171
807.159	29.940	1326.726	1266.509
808.174	29.869	1326.185	1265.355
809.188	30.179	1324.569	1265.785
810.203	29.774	1323.715	1262.042
811.218	29.554	1322.250	1258.986
812.232	29.311	1320.158	1255.179
813.247	29.098	1319.225	1252.688
814.261	29.443	1319.581	1255.237
815.276	29.847	1318.573	1256.883
816.291	29.741	1316.964	1254.475
817.305	29.500	1316.459	1252.201
818.320	29.477	1315.987	1251.446
819.334	30.074	1314.477	1253.925
820.349	30.026	1313.183	1252.214
821.364	30.102	1312.198	1251.638
822.378	30.077	1310.971	1250.154
823.393	29.983	1309.013	1247.496
824.407	29.960	1307.596	1245.846
825.422	29.831	1307.685	1244.906
826.437	29.688	1306.666	1242.823
827.451	29.486	1304.761	1239.493
828.466	29.669	1303.585	1239.466
829.480	30.089	1302.468	1241.085
830.495	29.788	1300.033	1236.593
831.509	29.446	1298.563	1232.746
832.524	29.365	1298.263	1231.770
833.539	29.666	1297.204	1232.638
834.553	29.781	1296.203	1232.307
835.568	29.826	1295.171	1231.482
836.582	29.777	1294.311	1230.188
837.597	29.894	1293.080	1229.653
838.612	29.708	1290.905	1226.197
839.626	29.626	1289.925	1224.572
840.641	29.366	1289.201	1222.012
841.655	29.270	1288.170	1220.248
842.670	29.163	1286.423	1217.735
843.685	28.776	1285.027	1213.700
844.699	29.136	1284.730	1215.664
845.714	29.313	1283.259	1215.299
846.728	29.332	1282.652	1214.704
847.743	29.375	1281.323	1213.585
848.758	29.528	1280.577	1213.743
849.772	29.690	1280.128	1214.245
850.787	29.750	1278.029	1212.502
851.801	29.702	1277.079	1211.137
852.816	29.617	1276.543	1209.923
853.831	29.529	1275.076	1207.813
854.845	29.555	1273.086	1205.955
855.860	29.231	1271.074	1201.777
856.874	29.396	1269.939	1201.643
857.889	29.513	1269.313	1201.672
858.904	29.898	1268.411	1203.188
859.918	30.263	1268.212	1205.240
860.933	30.510	1266.712	1205.283
861.947	30.067	1264.836	1200.471
862.962	29.568	1262.955	1195.297
863.977	29.396	1262.131	1193.255
864.991	29.260	1262.087	1192.183
866.006	29.341	1261.699	1192.201
867.020	29.279	1260.272	1190.308
868.035	29.402	1258.899	1189.664
869.049	29.652	1257.961	1190.259
870.064	29.803	1256.993	1190.174
871.079	29.820	1255.611	1188.833
872.093	29.451	1255.142	1185.866
873.108	29.497	1254.218	1185.145
874.122	29.326	1252.357	1182.146
875.137	29.074	1251.854	1179.907
876.152	28.876	1251.572	1178.224
877.166	28.967	1249.280	1176.506
878.181	29.047	1248.114	1175.780
879.195	29.101	1248.801	1176.637
880.210	29.274	1247.324	1176.212
881.225	29.447	1246.125	1176.050
882.239	29.687	1244.900	1176.288
883.254	29.593	1244.485	1175.154
884.268	29.743	1243.912	1175.432
885.283	29.644	1242.685	1173.502
886.298	29.528	1240.894	1170.929
887.312	29.649	1239.590	1170.331
888.327	29.489	1238.839	1168.464
889.341	29.464	1237.047	1166.473
890.356	29.367	1236.398	1165.107
891.371	29.225	1236.548	1164.206
892.385	29.304	1235.490	1163.574
893.400	29.147	1234.469	1161.477
894.414	29.119	1233.692	1160.425
895.429	29.439	1232.839	1161.509
896.444	30.046	1231.788	1164.219
897.458	30.702	1231.109	1167.577
898.473	30.217	1230.159	1163.476
899.487	29.670	1228.554	1158.376
900.502	29.323	1226.626	1154.237
901.517	29.234	1225.433	1152.413
902.531	29.183	1224.662	1151.233
903.546	29.499	1223.613	1152.089
904.560	29.480	1222.782	1151.054
905.575	29.647	1221.521	1150.771
906.589	29.480	1220.665	1148.784
907.604	29.079	1220.363	1145.857
