DTS Sentinel unit serial number:	SN409020Multiplexer serial number:	ORYXHardware model number:	OX4-SRSoftware version number:	ORYX F/W v3.00 Oryx Data Collector v3.7.2.0data status	okinstallation	HaddamTimeLapsedifferential loss correction	single-endedforward channel	channel 3reverse channel	N/Adate	2011/06/22time	05:41:17forward acquisition time	30.00reverse acquisition time	0.00gamma	498.7831k internal	0.1751k external	0.1751temperature offset calibration	1.0074default loss term (dB/km)	0.3790temperature slope calibration	1.3530multiplexer offset coefficient	1.0000multiplexer slope coefficient	1.0000fibre end	0.00T internal ref (°C)	22.56T ext. ref 1 (°C)	17.86T ext. ref 2 (°C)	0.16length (m)	temperature (°C)	Stokes	anti-Stokes-747.200	60.139	-0.242	-0.319
-746.185	-200.000	0.021	0.628
-745.171	32.248	-0.405	0.464
-744.156	-5.374	-0.079	0.072
-743.142	-63.516	-0.129	-0.070
-742.127	31.093	0.423	0.482
-741.112	-16.548	-0.304	-0.256
-740.098	-29.019	0.117	-0.089
-739.083	-81.089	-0.069	-0.030
-738.069	800.000	-0.056	-0.242
-737.054	23.553	0.179	0.195
-736.039	-200.000	0.038	0.298
-735.025	106.634	0.139	-0.219
-734.010	-4.309	-0.414	0.380
-732.996	171.146	-0.180	0.344
-731.981	259.135	0.068	0.156
-730.966	800.000	0.032	-0.135
-729.952	-120.144	-0.452	-0.102
-728.937	-48.542	-0.330	-0.210
-727.923	-12.020	0.080	-0.070
-726.908	-91.218	-0.309	0.117
-725.894	83.733	-0.283	0.410
-724.879	-67.141	0.373	-0.194
-723.864	-200.000	-0.087	-0.597
-722.850	212.166	-0.247	-0.519
-721.835	-98.673	0.244	0.082
-720.821	-79.818	-0.161	-0.072
-719.806	368.183	0.132	-0.357
-718.791	-188.808	-0.130	-0.002
-717.777	-99.547	-0.436	0.144
-716.762	-118.659	-0.485	0.113
-715.748	73.049	-0.143	-0.199
-714.733	-200.000	-0.058	-0.442
-713.718	47.559	0.180	-0.223
-712.704	-200.000	0.032	0.472
-711.689	-76.295	-0.451	-0.210
-710.675	21.877	-0.512	-0.553
-709.660	-156.295	0.148	0.012
-708.645	64.483	0.176	-0.236
-707.631	-47.809	-0.341	-0.218
-706.616	-52.645	0.199	0.121
-705.602	-120.126	-0.141	0.032
-704.587	177.985	0.205	0.398
-703.572	202.650	0.144	-0.296
-702.558	-128.955	-0.494	0.091
-701.543	-200.000	0.016	-0.384
-700.529	313.812	0.240	0.602
-699.514	652.660	-0.037	-0.125
-698.499	-200.000	-0.009	-0.166
-697.485	-63.458	0.251	-0.136
-696.470	-47.897	0.127	-0.081
-695.456	-104.151	-0.245	0.075
-694.441	800.000	-0.128	-0.544
-693.426	-153.670	0.381	-0.034
-692.412	577.882	-0.112	-0.364
-691.397	-108.111	-0.343	-0.098
-690.383	-56.988	-0.194	-0.113
-689.368	194.003	-0.228	-0.459
-688.354	-17.679	-0.238	-0.198
-687.339	-134.997	0.273	-0.043
-686.324	800.000	-0.052	-0.301
-685.310	141.203	0.260	0.458
-684.295	-31.027	0.354	-0.264
-683.281	-200.000	-0.017	0.173
-682.266	-42.540	0.289	-0.195
-681.251	92.141	-0.210	-0.314
-680.237	-113.998	0.382	-0.097
-679.222	-17.190	0.332	-0.277
-678.208	-141.721	-0.215	0.028
-677.193	-78.534	-0.352	-0.159
-676.178	-126.044	-0.111	0.022
-675.164	254.600	0.193	-0.439
-674.149	-141.788	-0.219	-0.029
-673.135	768.731	-0.101	-0.365
-672.120	-172.145	-0.524	-0.022
-671.105	-200.000	-0.034	-0.438
-670.091	208.639	-0.117	-0.244
-669.076	219.340	-0.166	-0.353
-668.062	-163.547	0.156	-0.010
-667.047	200.536	0.104	-0.213
-666.032	-55.029	-0.360	-0.214
-665.018	-156.892	-0.619	-0.050
-664.003	45.466	-0.182	0.223
-662.989	29.237	-0.270	-0.303
-661.974	60.099	-0.305	-0.399
-660.959	-41.751	0.088	-0.060
-659.945	333.362	-0.139	0.357
-658.930	663.733	0.005	-0.018
-657.916	171.884	0.204	0.389
-656.901	-145.301	-0.138	-0.016
-655.886	634.943	0.037	0.124
-654.872	82.633	-0.341	0.491
-653.857	-200.000	0.060	0.358
-652.843	800.000	0.033	0.130
-651.828	800.000	-0.025	-0.124
-650.814	-200.000	-0.009	0.259
-649.799	-90.802	0.621	0.236
-648.784	-27.881	-0.256	-0.196
-647.770	-200.000	-0.018	-0.243
-646.755	8.372	-0.013	-0.013
-645.741	267.287	0.204	-0.473
-644.726	230.057	0.153	-0.331
-643.711	-104.497	-0.373	-0.113
-642.697	24.453	0.372	0.407
-641.682	-136.701	-0.492	-0.074
-640.668	-97.415	-0.441	0.151
-639.653	76.101	-0.195	-0.273
-638.638	-69.501	-0.234	-0.118
-637.624	800.000	0.129	0.580
-636.609	115.590	0.172	-0.278
-635.595	36.343	-0.200	0.233
-634.580	-42.469	-0.358	0.240
-633.565	319.457	0.057	-0.143
-632.551	3.373	0.172	-0.165
-631.536	-126.436	0.359	-0.070
-630.522	470.302	-0.089	-0.267
-629.507	-131.556	-0.282	0.049
-628.492	-67.807	0.055	-0.028
-627.478	-99.786	-0.241	-0.079
-626.463	-35.186	-0.383	0.275
-625.449	406.691	-0.058	0.163
-624.434	-1.717	0.114	-0.106
-623.419	-61.235	-0.210	-0.116
-622.405	-68.642	0.220	-0.112
-621.390	-200.000	0.015	-0.243
-620.376	103.197	-0.179	-0.278
-619.361	56.483	-0.416	-0.536
-618.346	-200.000	-0.012	-0.366
-617.332	340.464	-0.097	0.251
-616.317	91.194	0.071	0.106
-615.303	89.022	0.082	-0.121
-614.288	-108.180	-0.379	0.108
-613.273	-47.160	0.198	0.127
-612.259	-26.869	0.381	-0.294
-611.244	571.019	0.101	0.325
-610.230	21.966	0.215	-0.231
-609.215	-70.535	0.372	-0.185
-608.201	-92.234	-0.328	0.122
-607.186	-104.461	0.511	-0.155
-606.171	800.000	0.012	0.052
-605.157	280.184	-0.141	0.335
-604.142	125.927	0.186	0.311
-603.128	693.449	0.087	0.302
-602.113	-133.870	-0.442	-0.072
-601.098	17.760	0.166	-0.175
-600.084	-200.000	-0.005	-0.093
-599.069	450.027	0.090	-0.263
-598.055	-110.836	-0.156	-0.042
-597.040	-179.926	-0.104	-0.003
-596.025	-20.771	0.430	0.348
-595.011	800.000	0.092	-0.384
-593.996	-52.090	-0.169	0.103
-592.982	-200.000	0.001	-0.156
-591.967	-21.138	0.146	0.118
-590.952	444.954	0.175	-0.509
-589.938	-31.839	0.402	0.297
-588.923	-148.122	0.379	-0.041
-587.909	151.355	0.090	-0.162
-586.894	-174.150	-0.581	0.022
-585.879	269.428	-0.103	-0.239
-584.865	-45.209	0.226	0.147
-583.850	-92.747	0.126	0.046
-582.836	40.734	0.254	-0.302
-581.821	-85.988	-0.341	-0.138
-580.806	-93.793	-0.216	0.078
-579.792	-40.816	0.240	0.163
-578.777	-150.165	-0.589	0.060
-577.763	-140.832	0.035	0.005
-576.748	-200.000	-0.111	0.719
-575.733	-76.576	0.291	0.134
-574.719	309.311	-0.284	0.703
-573.704	267.041	-0.060	0.138
-572.690	-21.064	-0.227	0.183
-571.675	800.000	-0.039	0.171
-570.661	-3.625	0.210	-0.192
-569.646	-19.131	-0.029	-0.024
-568.631	-88.307	0.610	-0.239
-567.617	800.000	-0.034	0.131
-566.602	168.916	0.097	0.183
-565.588	-159.434	0.138	0.010
-564.573	-200.000	-0.010	-0.325
-563.558	407.942	0.016	0.045
-562.544	-96.864	0.271	-0.093
-561.529	444.602	-0.065	0.190
-560.515	-200.000	-0.009	0.082
-559.500	-13.046	-0.142	-0.121
-558.485	-70.984	0.218	-0.108
-557.471	-96.091	0.355	-0.124
-556.456	102.571	-0.082	0.126
-555.442	168.084	-0.052	0.098
-554.427	346.317	-0.062	-0.162
-553.412	-188.745	0.259	0.004
-552.398	554.974	-0.072	-0.230
-551.383	-67.559	-0.100	0.051
-550.369	40.247	0.137	0.163
-549.354	-200.000	-0.039	0.371
-548.339	-25.865	-0.358	0.278
-547.325	541.897	0.184	-0.581
-546.310	-21.920	-0.220	0.176
-545.296	-171.770	0.433	0.018
-544.281	-10.844	0.413	-0.359
-543.266	49.044	0.087	0.108
-542.252	59.958	0.038	-0.050
-541.237	140.177	0.132	0.230
-540.223	-154.118	0.341	-0.030
-539.208	22.986	0.479	0.518
-538.193	-200.000	0.051	0.300
-537.179	-16.576	0.429	-0.358
-536.164	-72.251	0.570	0.277
-535.150	-188.681	-0.382	0.006
-534.135	125.882	0.058	0.097
-533.121	143.132	-0.102	-0.178
-532.106	-89.584	0.426	-0.164
-531.091	-46.562	0.227	-0.146
-530.077	89.462	0.214	-0.315
-529.062	-200.000	-0.054	-0.693
-528.048	53.470	0.498	0.630
-527.033	-200.000	0.019	0.205
-526.018	-200.000	0.007	0.322
-525.004	-200.000	-0.029	0.316
-523.989	72.535	-0.154	-0.212
-522.975	-50.535	0.057	0.035
-521.960	-104.645	0.127	-0.038
-520.945	441.236	-0.133	-0.384
-519.931	-87.505	0.404	0.160
-518.916	-50.292	0.344	0.214
-517.902	-78.270	-0.224	0.101
-516.887	-119.398	-0.231	0.052
-515.872	-114.273	0.354	0.089
-514.858	20.286	-0.211	-0.224
-513.843	-160.258	-0.483	-0.034
-512.829	-27.295	0.070	0.053
-511.814	-121.034	0.428	0.094
-510.799	382.744	-0.189	0.513
-509.785	800.000	-0.084	0.380
-508.770	-117.013	0.307	-0.073
-507.756	-149.712	0.273	0.028
-506.741	-200.000	0.003	-0.265
-505.726	-200.000	0.005	0.421
-504.712	-98.602	0.236	0.079
-503.697	-65.304	0.232	0.122
-502.683	62.663	0.039	0.052
-501.668	-16.070	0.163	-0.136
-500.653	-118.118	0.429	-0.100
-499.639	-168.551	-0.452	-0.022
-498.624	181.234	0.098	0.190
-497.610	-126.530	0.117	-0.023
-496.595	437.944	-0.108	-0.310
-495.581	-162.194	-0.527	-0.034
-494.566	-147.264	-0.338	-0.037
-493.551	800.000	0.025	0.144
-492.537	55.297	-0.201	0.256
-491.522	530.143	0.142	0.445
-490.508	252.993	0.193	0.436
-489.493	41.253	-0.255	0.303
-488.478	-63.649	-0.349	-0.188
-487.464	-60.370	0.238	-0.133
-486.449	61.095	-0.128	-0.167
-485.435	14.543	-0.149	-0.153
-484.420	198.717	0.053	0.107
-483.405	79.793	0.133	-0.188
-482.391	-200.000	-0.014	-0.118
-481.376	228.626	-0.091	-0.196
-480.362	-5.221	0.171	0.154
-479.347	25.176	-0.091	-0.100
-478.332	-145.157	0.397	-0.047
-477.318	-139.470	0.302	0.042
-476.303	-143.200	0.340	-0.043
-475.289	-90.954	-0.129	-0.048
-474.274	14.707	-0.150	-0.155
-473.259	-88.473	-0.316	-0.123
-472.245	-110.529	0.329	0.089
-471.230	-82.516	-0.391	0.166
-470.216	-59.589	0.549	0.308
-469.201	-200.000	0.010	0.294
-468.186	800.000	0.045	-0.236
-467.172	17.466	0.194	-0.202
-466.157	19.209	0.194	-0.204
-465.143	-139.282	0.598	0.084
-464.128	800.000	-0.047	0.204
-463.113	-116.915	0.353	0.084
-462.099	-75.508	0.205	-0.095
-461.084	-114.661	-0.290	-0.072
-460.070	-34.797	-0.181	-0.130
-459.055	55.699	-0.139	-0.178
-458.040	-66.277	-0.558	-0.291
-457.026	43.338	-0.065	0.078
-456.011	131.893	-0.043	0.072
-454.997	-55.279	-0.354	-0.208
-453.982	-108.408	0.227	0.064
-452.968	-130.753	-0.093	-0.016
-451.953	232.366	-0.130	0.280
-450.938	-65.643	0.066	0.035
-449.924	648.877	0.130	0.438
-448.909	-125.013	-0.218	-0.044
-447.895	193.537	-0.114	-0.226
-446.880	-177.766	0.352	-0.011
-445.865	-87.941	-0.122	-0.048
-444.851	31.271	0.435	0.490
-443.836	139.049	-0.059	0.103
-442.822	-130.990	-0.178	-0.031
-441.807	-200.000	-0.034	0.588
-440.792	554.165	0.089	-0.282
-439.778	800.000	0.096	-0.497
-438.763	29.632	-0.136	-0.152
-437.749	-40.256	0.041	0.028
-436.734	251.264	0.137	0.307
-435.719	-13.831	0.201	-0.170
-434.705	-85.080	0.559	-0.229
-433.690	-40.403	0.137	-0.093
-432.676	-6.623	-0.262	0.234
-431.661	51.206	-0.088	0.109
-430.646	95.909	0.222	0.334
-429.632	-70.944	0.317	0.156
-428.617	366.193	-0.239	-0.635
-427.603	800.000	-0.136	-0.560
-426.588	-142.024	0.221	-0.029
-425.573	-70.806	0.327	0.161
-424.559	-78.595	0.426	-0.190
-423.544	-59.455	-0.530	0.298
-422.530	-200.000	-0.048	-0.310
-421.515	-81.938	0.093	-0.040
-420.500	-18.506	0.276	-0.225
-419.486	168.172	-0.123	-0.231
-418.471	-117.697	0.564	-0.132
-417.457	-4.437	0.289	0.262
-416.442	725.924	0.149	0.523
-415.428	-156.215	0.743	-0.060
-414.413	74.035	-0.137	-0.189
-413.398	38.585	0.232	-0.271
-412.384	-88.320	-0.412	-0.161
-411.369	-167.901	0.100	0.005
-410.355	277.666	-0.006	-0.015
-409.340	158.168	0.113	-0.206
-408.325	800.000	-0.036	0.188
-407.311	-110.912	-0.050	0.013
-406.296	-104.884	0.252	0.075
-405.282	-28.764	-0.500	-0.376
-404.267	-1.658	-0.264	0.244
-403.252	-118.734	0.221	0.051
-402.238	-126.663	0.183	-0.035
-401.223	-21.069	-0.109	-0.087
-400.209	61.388	-0.278	0.362
-399.194	37.365	-0.213	0.247
-398.179	800.000	-0.059	-0.341
-397.165	212.193	-0.097	0.202
-396.150	-129.160	-0.074	-0.013
-395.136	79.826	0.065	-0.092
-394.121	-200.000	-0.011	-0.219
-393.106	-117.430	-0.239	0.056
-392.092	-200.000	-0.039	0.457
-391.077	-38.819	0.285	-0.196
-390.063	40.288	-0.032	0.038
-389.048	-93.111	0.235	-0.085
-388.033	-29.899	-0.185	-0.138
-387.019	-177.324	-0.644	-0.020
-386.004	-141.423	-0.193	-0.025
-384.990	-136.538	0.165	-0.025
-383.975	13.828	-0.192	-0.195
-382.960	13.993	0.109	0.111
-381.946	83.459	0.217	-0.311
-380.931	-1.241	-0.328	0.303
-379.917	98.024	-0.057	0.086
-378.902	-160.693	-0.224	-0.015
-377.888	-178.117	0.106	-0.003
-376.873	-200.000	-0.001	-0.207
-375.858	800.000	0.104	-0.382
-374.844	-40.547	-0.319	-0.216
-373.829	152.206	-0.032	0.057
-372.815	33.630	-0.275	-0.313
-371.800	-87.022	-0.403	0.160
-370.785	-157.669	-0.530	0.041
-369.771	-107.526	0.071	0.020
-368.756	-139.200	-0.497	-0.069
-367.742	-200.000	0.022	-0.132
-366.727	10.405	0.187	0.186
-365.712	103.922	-0.110	0.170
-364.698	461.583	0.029	-0.086
-363.683	10.692	0.193	0.192
-362.669	81.922	0.327	-0.464
-361.654	-74.243	0.359	-0.169
-360.639	191.908	0.121	0.240
-359.625	-154.627	-0.123	0.011
-358.610	-130.694	-0.497	0.087
-357.596	215.140	-0.089	-0.184
-356.581	259.284	0.070	-0.158
-355.566	462.691	0.036	0.105
-354.552	70.355	0.077	-0.105
-353.537	453.512	-0.071	0.207
-352.523	-132.769	-0.160	-0.027
-351.508	800.000	-0.071	0.377
-350.493	-151.312	0.101	0.010
-349.479	-200.000	0.037	-0.232
-348.464	2.665	-0.399	-0.378
-347.450	209.118	0.212	0.435
-346.435	-9.867	0.233	-0.203
-345.420	-27.505	0.140	0.106
-344.406	-200.000	0.039	-0.483
-343.391	596.025	-0.061	-0.200
-342.377	-157.895	0.280	0.021
-341.362	159.509	-0.127	-0.231
-340.348	-200.000	-0.070	0.415
-339.333	333.929	0.069	-0.176
-338.318	-11.026	-0.416	-0.358
-337.304	-87.525	-0.261	-0.103
-336.289	-101.978	-0.506	0.159
-335.275	257.812	0.148	-0.335
-334.260	75.218	0.365	-0.503
-333.245	-200.000	0.009	-0.248
-332.231	-200.000	0.008	-0.073
-331.216	-149.442	-0.308	0.032
-330.202	-27.571	0.252	0.191
-329.187	-65.124	-0.348	0.183
-328.172	-126.005	-0.458	0.089
-327.158	-130.215	-0.493	-0.087
-326.143	181.655	-0.175	-0.338
-325.129	-200.000	0.013	-0.302
-324.114	-129.980	-0.056	0.010
-323.099	789.367	0.020	0.074
-322.085	352.009	0.149	-0.387
-321.070	-27.734	0.112	-0.085
-320.056	-200.000	0.011	0.323
-319.041	-200.000	0.001	-0.292
-318.026	-200.000	-0.021	0.230
-317.012	-109.222	-0.200	-0.055
-315.997	-95.407	0.333	-0.116
-314.983	29.113	-0.250	-0.278
-313.968	-55.539	0.120	0.070
-312.953	-125.992	-0.377	-0.073
-311.939	-106.381	0.152	-0.044
-310.924	335.365	0.135	-0.344
-309.910	-91.174	-0.148	-0.055
-308.895	207.895	-0.118	-0.241
-307.880	-147.843	0.377	0.041
-306.866	-200.000	0.062	0.406
-305.851	-101.731	0.081	-0.025
-304.837	-200.000	0.044	0.309
-303.822	-158.882	-0.133	-0.010
-302.807	-32.930	-0.097	0.070
-301.793	-45.471	-0.339	0.219
-300.778	-95.910	-0.117	-0.041
-299.764	494.723	-0.115	0.347
-298.749	-94.741	-0.199	0.070
-297.735	408.426	0.132	0.368
-296.720	-18.054	0.132	0.108
-295.705	-132.905	-0.221	0.036
-294.691	-78.821	0.123	0.054
-293.676	491.957	0.091	0.274
-292.662	-79.729	-0.613	-0.268
-291.647	-103.994	0.056	-0.017
-290.632	76.282	0.655	0.906
-289.618	-120.098	-0.430	-0.095
-288.603	-200.000	0.035	0.312
-287.589	-140.008	0.245	-0.033
-286.574	-200.000	-0.037	0.369
-285.559	-85.914	0.223	0.089
-284.545	-86.252	-0.420	0.168
-283.530	29.522	-0.162	-0.180
-282.516	-41.258	-0.118	-0.079
-281.501	-32.304	-0.485	0.352
-280.486	-130.627	0.625	0.109
-279.472	14.236	-0.094	0.095
-278.457	-200.000	0.014	0.551
-277.443	-35.509	-0.193	0.136
-276.428	-157.213	-0.162	-0.013
-275.413	800.000	0.019	0.080
-274.399	-133.055	-0.300	0.049
-273.384	439.172	0.037	-0.105
-272.370	-200.000	0.012	-0.102
-271.355	-200.000	0.018	0.299
-270.340	-106.874	-0.174	-0.050
-269.326	-88.210	0.118	0.046
-268.311	-200.000	0.000	0.141
-267.297	-66.088	0.312	0.162
-266.282	-200.000	0.020	0.256
-265.267	196.968	-0.336	0.670
-264.253	8.920	-0.195	0.192
-263.238	-70.798	-0.144	0.070
-262.224	800.000	0.111	0.501
-261.209	-86.157	-0.475	0.190
-260.195	1.817	0.341	0.320
-259.180	-178.986	-0.024	-0.001
-258.165	-143.830	0.262	-0.032
-257.151	-165.112	-0.203	-0.012
-256.136	-125.804	-0.230	0.045
-255.122	-120.214	0.352	0.078
-254.107	46.272	0.117	0.142
-253.092	-75.188	-0.533	-0.247
-252.078	23.130	-0.310	-0.332
-251.063	355.161	-0.020	0.053
-250.049	-57.611	0.298	-0.169
-249.034	-22.156	0.311	0.245
-248.019	109.820	-0.259	-0.405
-247.005	419.252	0.122	-0.343
-245.990	13.415	0.157	-0.158
-244.976	212.436	0.104	-0.215
-243.961	-183.272	-0.335	-0.007
-242.946	-95.752	-0.435	0.150
-241.932	-191.427	-1.185	-0.015
-240.917	11.967	-0.274	0.274
-239.903	15.928	0.187	-0.192
-238.888	800.000	-0.048	0.201
-237.873	-9.338	-0.024	-0.021
-236.859	-194.520	0.361	-0.004
-235.844	-186.406	-0.212	-0.004
-234.830	-59.181	0.254	0.142
-233.815	519.325	-0.035	-0.108
-232.800	800.000	0.036	0.132
-231.786	156.229	0.154	-0.278
-230.771	800.000	-0.091	-0.385
-229.757	-200.000	0.083	-0.591
-228.742	-200.000	0.241	-0.001
-227.727	800.000	-0.044	-0.210
-226.713	-200.000	-0.004	-0.183
-225.698	244.491	-0.157	0.345
-224.684	238.805	-0.161	0.350
-223.669	-200.000	-0.018	0.503
-222.655	117.255	-0.288	0.462
-221.640	-200.000	-0.012	-0.373
-220.625	-86.307	-0.108	0.043
-219.611	-102.897	-0.198	-0.061
-218.596	-92.406	-0.380	-0.138
-217.582	-107.264	-0.142	0.040
-216.567	-37.610	0.325	-0.225
-215.552	-49.104	-0.467	-0.290
-214.538	434.992	-0.107	0.304
-213.523	-106.223	-0.310	-0.090
-212.509	126.361	-0.166	-0.274
-211.494	126.959	-0.122	-0.202
-210.479	-68.916	-0.345	-0.173
-209.465	-11.819	-0.066	0.056
-208.450	66.329	0.199	0.263
-207.436	-58.955	0.329	-0.184
-206.421	-200.000	-0.007	0.049
-205.406	-200.000	0.007	-0.040
-204.392	-50.152	0.242	-0.149
-203.377	-200.000	0.001	-0.028
-202.363	77.288	-0.086	-0.119
-201.348	6.104	-0.426	-0.410
-200.333	34.363	0.229	-0.260
-199.319	282.380	-0.140	0.328
-198.304	-181.837	-0.343	0.008
-197.290	11.215	-0.272	-0.271
-196.275	554.849	0.097	0.305
-195.260	-118.943	0.321	-0.073
-194.246	-183.873	0.636	-0.014
-193.231	14.810	0.611	0.621
-192.217	-200.000	-0.044	0.489
-191.202	-200.000	-0.057	0.329
-190.187	-143.450	-0.193	0.024
-189.173	-54.115	0.236	-0.139
-188.158	-118.996	0.241	0.054
-187.144	-87.180	0.149	-0.058
-186.129	48.889	-0.024	-0.030
-185.114	187.466	0.119	-0.231
-184.100	-66.094	0.101	-0.052
-183.085	464.605	0.174	-0.509
-182.071	-31.562	-0.282	-0.205
-181.056	-14.090	-0.138	0.116
-180.042	-165.337	0.206	-0.012
-179.027	385.711	0.054	0.145
-178.012	75.214	-0.135	0.186
-176.998	-200.000	0.055	-0.521
-175.983	124.340	-0.119	-0.195
-174.969	117.551	-0.116	0.185
-173.954	800.000	-0.105	-0.446
-172.939	136.143	0.241	-0.408
-171.925	800.000	0.059	0.260
-170.910	127.094	-0.231	-0.381
-169.896	-101.576	-0.703	0.220
-168.881	111.709	0.485	0.762
-167.866	-27.551	0.279	-0.210
-166.852	-180.758	0.568	-0.015
-165.837	76.833	-0.112	0.154
-164.823	102.166	-0.213	-0.324
-163.808	3.666	0.569	-0.539
-162.793	136.236	-0.091	-0.154
-161.779	69.663	-0.056	0.075
-160.764	-44.573	-0.198	0.128
-159.750	44.004	0.232	0.277
-158.735	-85.179	-0.145	-0.058
-157.720	800.000	0.127	-0.469
-156.706	193.453	0.233	0.459
-155.691	-109.029	-0.175	0.048
-154.677	25.082	-0.147	0.158
-153.662	5.800	0.148	0.142
-152.647	-83.562	-0.164	0.068
-151.633	-200.000	0.003	-0.350
-150.618	-53.587	0.317	-0.187
-149.604	396.164	-0.217	-0.591
-148.589	-99.656	-0.091	-0.029
-147.574	-144.673	0.255	-0.030
-146.560	-200.000	0.007	-0.055
-145.545	172.409	-0.093	-0.173
-144.531	88.158	-0.176	0.254
-143.516	-200.000	0.027	0.155
-142.502	-19.010	0.227	0.183
-141.487	32.730	-0.432	0.485
-140.472	-99.295	-0.374	-0.122
-139.458	-138.380	0.077	-0.011
-138.443	-101.391	-0.258	-0.081
-137.429	123.593	0.222	0.362
-136.414	-30.487	0.476	0.350
-135.399	-46.114	-0.124	-0.079
-134.385	60.625	0.388	0.499
-133.370	489.874	0.191	0.571
-132.356	-167.107	0.201	-0.010
-131.341	-200.000	-0.005	-0.134
-130.326	-64.650	-0.293	0.154
-129.312	27.505	-0.415	-0.453
-128.297	16.040	-0.231	-0.236
-127.283	-49.754	-0.494	0.303
-126.268	209.844	0.161	0.328
-125.253	-113.657	0.262	-0.066
-124.239	-72.228	-0.092	0.044
-123.224	187.741	-0.188	-0.365
-122.210	-52.428	-0.311	-0.186
-121.195	-8.107	-0.370	-0.323
-120.180	-197.846	0.488	-0.004
-119.166	-72.149	-0.372	0.178
-118.151	-95.314	-0.148	-0.051
-117.137	-38.760	-0.470	0.321
-116.122	-200.000	0.041	-0.416
-115.107	4.232	-0.407	-0.386
-114.093	-103.113	0.249	0.076
-113.078	-21.488	-0.199	-0.157
-112.064	-97.207	-0.161	0.054
-111.049	176.337	0.086	-0.162
-110.034	-52.140	-0.148	-0.089
-109.020	800.000	-0.052	0.287
-108.005	-200.000	-0.012	0.160
-106.991	-22.582	-0.097	-0.076
-105.976	-96.321	-0.248	0.085
-104.962	334.245	-0.180	-0.454
-103.947	316.693	-0.151	-0.371
-102.932	59.345	-0.075	-0.096
-101.918	-200.000	-0.048	-0.331
-100.903	-198.240	-0.475	-0.003
-99.889	92.292	-0.260	-0.380
-98.874	73.899	0.216	0.293
-97.859	-54.689	-0.488	0.285
-96.845	43.738	0.224	0.265
-95.830	32.439	0.164	-0.184
-94.816	-122.314	0.682	-0.143
-93.801	50.048	0.109	0.133
-92.786	4.941	-0.187	-0.178
-91.772	800.000	-0.080	0.363
-90.757	146.331	0.374	0.651
-89.743	-200.000	-0.043	0.582
-88.728	-4.146	0.399	-0.357
-87.713	685.813	-0.145	-0.492
-86.699	-200.000	0.018	0.164
-85.684	-10.202	-0.160	0.137
-84.670	-200.000	0.007	-0.067
-83.655	-107.599	-0.334	-0.094
-82.640	-110.752	-0.196	-0.052
-81.626	151.962	-0.136	-0.240
-80.611	336.826	0.082	-0.206
-79.597	82.837	-0.212	-0.299
-78.582	800.000	0.110	-0.468
-77.567	102.329	-0.036	0.055
-76.553	-8.574	-0.333	0.289
-75.538	-65.956	0.098	0.050
-74.524	-95.352	0.465	-0.161
-73.509	22.375	-0.246	0.260
-72.494	-15.761	0.267	-0.220
-71.480	266.537	-0.107	0.242
-70.465	114.925	0.234	0.370
-69.451	-139.729	0.338	-0.046
-68.436	-165.488	0.501	-0.028
-67.422	-86.482	-0.535	0.211
-66.407	124.590	-0.095	-0.155
-65.392	263.035	-0.157	0.354
-64.378	543.256	0.172	-0.533
-63.363	163.612	-0.075	0.137
-62.349	-200.000	-0.023	0.350
-61.334	58.604	-1.873	-2.381
-60.319	29.497	1.193	1.312
-59.305	235.512	-3.635	-7.791
-58.290	82.490	4.047	5.688
-57.276	401.597	3.894	10.623
-56.261	-200.000	24.777	322.752
-55.246	353.731	1305.129	3365.200
-54.232	53.122	2843.278	3521.993
-53.217	51.381	2659.965	3267.885
-52.203	31.723	2388.415	2657.318
-51.188	27.780	2054.179	2236.896
-50.173	24.409	1941.775	2075.075
-49.159	23.352	1929.776	2049.891
-48.144	22.878	1925.045	2039.274
-47.130	22.894	1922.498	2036.681
-46.115	22.978	1920.374	2035.332
-45.100	22.776	1919.737	2032.237
-44.086	22.749	1918.635	2030.670
-43.071	22.651	1917.199	2027.935
-42.057	22.740	1914.728	2026.268
-41.042	22.742	1913.691	2025.117
-40.027	22.660	1912.772	2023.122
-39.013	22.626	1911.624	2021.432
-37.998	22.697	1909.708	2020.146
-36.984	22.673	1908.420	2018.430
-35.969	22.809	1906.477	2017.851
-34.954	22.755	1905.367	2015.982
-33.940	22.557	1905.458	2013.723
-32.925	22.698	1903.521	2013.209
-31.911	22.591	1902.699	2011.039
-30.896	22.559	1901.122	2008.924
-29.881	22.661	1899.661	2008.467
-28.867	22.636	1897.825	2006.155
-27.852	22.535	1896.109	2003.111
-26.838	22.621	1894.033	2001.823
-25.823	22.518	1893.690	2000.202
-24.809	22.658	1892.495	2000.455
-23.794	22.556	1890.897	1997.529
-22.779	22.536	1889.480	1995.725
-21.765	22.695	1888.198	1996.097
-20.750	22.746	1886.535	1994.840
-19.736	22.630	1886.450	1993.350
-18.721	22.577	1885.630	1991.809
-17.706	22.603	1883.986	1990.291
-16.692	22.389	1883.390	1987.153
-15.677	22.528	1881.579	1986.733
-14.663	22.405	1880.730	1984.362
-13.648	22.465	1879.686	1983.864
-12.633	22.513	1877.641	1982.174
-11.619	22.397	1876.822	1979.922
-10.604	22.471	1875.644	1979.430
-9.590	22.357	1875.158	1977.548
-8.575	22.492	1872.923	1976.643
-7.560	22.368	1872.239	1974.441
-6.546	22.451	1870.808	1973.786
-5.531	22.558	1869.090	1973.097
-4.517	22.420	1867.780	1970.095
-3.502	22.421	1866.711	1968.900
-2.487	22.530	1865.700	1968.981
-1.473	22.554	1862.307	1965.582
-0.458	22.434	1844.079	1944.935
0.556	18.902	1990.758	2045.196
1.571	17.521	2193.813	2235.329
2.586	18.395	2232.488	2286.190
3.600	18.357	2235.783	2288.776
4.615	18.362	2235.013	2287.782
5.629	18.449	2231.863	2285.456
6.644	18.372	2230.256	2282.506
7.659	18.319	2228.555	2279.779
8.673	18.343	2227.395	2278.645
9.688	18.091	2235.848	2283.634
10.702	17.092	2316.518	2351.835
11.717	15.755	2379.123	2395.972
12.731	7.550	2360.885	2260.328
13.746	1.152	2343.411	2152.252
14.761	0.239	2339.908	2135.770
15.775	0.113	2338.350	2132.296
16.790	0.023	2337.285	2129.790
17.804	0.013	2335.992	2128.212
18.819	0.089	2333.878	2127.109
19.834	0.041	2332.593	2125.010
20.848	0.038	2331.467	2123.675
21.863	0.120	2329.039	2122.376
22.877	-0.038	2326.936	2117.971
23.892	0.032	2325.550	2117.439
24.907	0.096	2322.346	2115.178
25.921	-0.006	2321.524	2112.733
26.936	0.029	2319.211	2110.867
27.950	-0.008	2316.073	2107.246
28.965	0.107	2313.270	2106.057
29.980	0.081	2312.307	2104.568
30.994	0.148	2310.698	2103.784
32.009	4.113	2322.965	2170.621
33.023	13.354	2350.612	2327.402
34.038	17.319	2356.368	2388.913
35.053	17.555	2353.909	2389.460
36.067	17.642	2352.171	2388.642
37.082	17.534	2350.674	2385.314
38.096	17.525	2348.527	2382.722
39.111	17.622	2345.457	2380.682
40.126	17.716	2344.672	2380.923
41.140	17.931	2341.470	2380.395
42.155	17.642	2340.335	2374.916
43.169	17.651	2338.262	2372.647
44.184	17.648	2335.549	2369.580
45.199	17.642	2334.045	2367.680
46.213	17.662	2332.529	2366.138
47.228	17.703	2331.552	2365.437
48.242	17.689	2329.628	2363.010
49.257	17.685	2327.398	2360.410
50.271	17.820	2324.045	2358.596
51.286	17.537	2323.074	2353.397
52.301	17.528	2321.032	2350.918
53.315	18.043	2321.468	2358.234
54.330	19.791	2326.480	2387.318
55.344	20.980	2326.430	2403.466
56.359	21.042	2322.654	2400.134
57.374	21.072	2323.024	2400.646
58.388	21.253	2320.593	2400.347
59.403	21.196	2317.307	2395.871
60.417	21.086	2313.246	2389.875
61.432	21.213	2312.227	2390.281
62.447	21.416	2310.791	2391.303
63.461	21.563	2308.786	2390.965
64.476	21.616	2307.173	2389.727
65.490	21.512	2304.895	2385.652
66.505	20.802	2302.772	2373.450
67.520	19.503	2296.449	2348.895
68.534	17.962	2290.291	2321.271
69.549	17.650	2286.316	2312.714
70.563	17.789	2283.466	2311.454
71.578	17.708	2282.953	2309.554
72.593	17.782	2280.680	2307.983
73.607	17.871	2278.805	2307.017
74.622	17.726	2277.316	2303.261
75.636	17.671	2273.574	2298.458
76.651	17.662	2272.635	2297.114
77.666	17.783	2270.362	2296.174
78.680	17.823	2268.203	2294.258
79.695	17.592	2266.950	2289.597
80.709	17.688	2265.482	2289.131
81.724	17.721	2263.434	2287.239
82.739	17.602	2260.975	2282.869
83.753	17.646	2257.710	2279.901
84.768	17.653	2256.853	2278.850
85.782	17.676	2254.792	2276.806
86.797	17.679	2253.753	2275.529
87.812	17.551	2252.937	2272.707
88.826	17.622	2250.198	2270.630
89.841	17.674	2248.025	2268.861
90.855	17.653	2245.912	2266.176
91.870	17.715	2243.755	2264.560
92.884	17.600	2242.433	2261.421
93.899	17.708	2241.132	2261.275
94.914	17.942	2243.073	2266.082
95.928	19.653	2246.727	2292.346
96.943	20.206	2244.929	2297.598
97.957	18.623	2238.188	2269.391
98.972	17.750	2233.807	2253.087
99.987	17.633	2230.438	2247.873
101.001	17.590	2227.977	2244.557
102.016	17.561	2225.773	2241.687
103.030	17.582	2223.519	2239.421
104.045	17.738	2220.861	2238.530
105.060	17.699	2218.711	2235.579
106.074	17.596	2218.583	2233.829
107.089	17.551	2215.916	2230.290
108.103	17.597	2215.136	2229.832
109.118	17.624	2214.131	2228.915
110.133	17.814	2211.154	2228.142
111.147	17.701	2209.603	2224.839
112.162	17.703	2208.700	2223.682
113.176	17.792	2204.911	2220.767
114.191	17.752	2203.627	2218.686
115.206	17.662	2202.746	2216.363
116.220	17.652	2200.400	2213.603
117.235	17.810	2197.904	2212.881
118.249	17.644	2196.621	2209.162
119.264	17.755	2194.993	2208.706
120.279	17.767	2193.982	2207.580
121.293	17.714	2191.379	2204.011
122.308	17.824	2189.809	2203.594
123.322	17.662	2189.338	2200.753
124.337	17.978	2189.389	2204.645
125.352	19.718	2194.613	2232.242
126.366	20.065	2193.178	2235.022
127.381	18.435	2184.530	2204.870
128.395	17.643	2180.523	2190.340
129.410	17.723	2177.655	2188.222
130.424	17.667	2176.379	2185.962
131.439	17.735	2173.855	2184.040
132.454	17.631	2172.878	2181.454
133.468	17.797	2169.044	2179.476
134.483	17.696	2168.324	2177.195
135.497	17.781	2166.814	2176.511
136.512	17.676	2165.382	2173.468
137.527	17.627	2163.721	2170.918
138.541	17.602	2161.939	2168.545
139.556	17.524	2161.806	2167.154
140.570	17.590	2160.167	2166.098
141.585	17.587	2157.632	2163.256
142.600	17.590	2156.530	2161.934
143.614	17.643	2154.527	2160.333
144.629	17.581	2152.798	2157.561
145.643	17.536	2151.661	2155.592
146.658	17.544	2149.700	2153.469
147.673	17.551	2146.806	2150.400
148.687	17.533	2147.374	2150.478
149.702	17.653	2145.006	2149.375
150.716	17.596	2144.004	2147.394
151.731	17.683	2142.994	2147.229
152.746	17.679	2142.440	2146.356
153.760	18.127	2143.757	2153.098
154.775	19.783	2148.144	2178.226
155.789	20.308	2145.175	2181.590
156.804	18.630	2137.193	2152.078
157.819	17.762	2131.401	2135.072
158.833	17.627	2129.807	2131.514
159.848	17.752	2128.179	2131.208
160.862	17.735	2126.447	2129.003
161.877	17.766	2125.338	2128.024
162.892	17.707	2124.553	2126.248
163.906	17.762	2122.673	2124.795
164.921	17.700	2120.970	2122.063
165.935	17.737	2119.497	2120.799
166.950	17.691	2117.349	2117.824
167.964	17.779	2114.701	2116.016
168.979	17.539	2113.642	2111.711
169.994	17.724	2112.223	2112.341
171.008	17.678	2110.382	2109.680
172.023	17.614	2108.957	2107.208
173.037	17.595	2107.795	2105.555
174.052	17.622	2106.468	2104.307
175.067	17.583	2105.450	2102.559
176.081	17.659	2102.966	2100.769
177.096	17.630	2101.875	2099.071
178.110	17.679	2099.587	2097.138
179.125	17.684	2098.615	2095.975
180.140	17.650	2096.980	2093.671
181.154	17.566	2096.357	2091.769
182.169	17.594	2095.143	2090.648
183.183	18.186	2095.047	2097.607
184.198	19.989	2099.853	2124.414
185.213	20.406	2097.856	2127.280
186.227	18.526	2091.021	2097.002
187.242	17.778	2088.307	2084.841
188.256	17.604	2085.587	2079.742
189.271	17.612	2084.987	2078.991
190.286	17.604	2083.410	2077.070
191.300	17.532	2080.929	2073.473
192.315	17.681	2078.480	2072.602
193.329	17.650	2077.473	2070.972
194.344	17.749	2077.214	2071.669
195.359	17.795	2075.831	2070.611
196.373	17.791	2072.473	2066.960
197.388	17.639	2070.850	2063.242
198.402	17.699	2069.026	2061.915
199.417	17.608	2066.537	2058.080
200.432	17.609	2065.356	2056.670
201.446	17.622	2064.203	2055.437
202.461	17.592	2062.663	2053.290
203.475	17.536	2061.417	2051.126
204.490	17.763	2058.406	2050.625
205.504	17.731	2056.417	2048.016
206.519	17.632	2054.384	2044.555
207.534	17.577	2053.034	2042.294
208.548	17.579	2052.003	2041.049
209.563	17.542	2050.849	2039.214
210.577	17.766	2048.550	2039.373
211.592	17.648	2048.816	2037.984
212.607	18.527	2051.925	2051.410
213.621	20.687	2055.778	2081.007
214.636	20.113	2050.851	2068.880
215.650	18.213	2043.783	2038.774
216.665	17.767	2041.375	2030.789
217.680	17.678	2040.355	2028.467
218.694	17.654	2038.977	2026.565
219.709	17.551	2036.754	2022.878
220.723	17.743	2035.562	2023.744
221.738	17.751	2033.242	2021.292
222.753	17.753	2030.765	2018.619
223.767	17.746	2030.399	2017.928
224.782	17.696	2027.810	2014.522
225.796	17.694	2027.199	2013.640
226.811	17.773	2025.811	2012.968
227.826	17.761	2024.668	2011.440
228.840	17.814	2022.238	2009.411
229.855	17.714	2021.378	2007.138
230.869	17.769	2019.743	2005.926
231.884	17.726	2018.643	2004.080
232.899	17.672	2016.485	2001.059
233.913	17.560	2015.659	1998.687
234.928	17.733	2013.643	1998.485
235.942	17.746	2012.240	1997.003
236.957	17.592	2010.804	1993.535
237.972	17.569	2009.799	1992.029
238.986	17.776	2008.650	1993.077
240.001	17.662	2007.075	1989.938
241.015	17.733	2004.989	1988.468
242.030	18.034	2006.740	1993.499
243.045	19.782	2009.739	2016.746
244.059	19.862	2007.170	2014.858
245.074	18.279	2000.292	1989.243
246.088	17.733	1996.857	1979.218
247.103	17.742	1994.398	1976.641
248.117	17.703	1993.552	1975.115
249.132	17.732	1992.051	1973.735
250.147	17.655	1990.811	1971.366
251.161	17.582	1989.489	1968.982
252.176	17.706	1987.995	1968.702
253.190	17.942	1986.063	1969.293
254.205	17.966	1983.079	1966.367
255.220	17.831	1982.396	1963.894
256.234	17.828	1981.050	1962.295
257.249	17.845	1980.773	1961.976
258.263	17.680	1980.228	1959.302
259.278	17.721	1978.249	1957.587
260.293	17.786	1975.871	1955.743
261.307	17.718	1973.829	1952.700
262.322	17.607	1972.735	1950.114
263.336	17.606	1971.050	1948.196
264.351	17.612	1969.304	1946.311
265.366	17.491	1968.084	1943.489
266.380	17.654	1966.971	1944.016
267.395	17.668	1966.323	1943.312
268.409	17.500	1964.597	1939.445
269.424	17.676	1962.295	1938.960
270.439	17.683	1962.063	1938.571
271.453	18.261	1962.833	1945.706
272.468	19.931	1966.198	1967.908
273.482	20.032	1962.450	1965.073
274.497	18.330	1955.493	1938.519
275.512	17.674	1953.272	1928.630
276.526	17.738	1950.883	1926.765
277.541	17.632	1948.252	1922.733
278.555	17.538	1947.020	1920.228
279.570	17.553	1944.347	1917.530
280.585	17.520	1944.269	1916.847
281.599	17.612	1942.340	1915.760
282.614	17.735	1941.973	1916.554
283.628	17.806	1940.965	1916.130
284.643	17.832	1940.056	1915.294
285.657	17.857	1938.123	1913.446
286.672	18.068	1936.381	1913.866
287.687	17.888	1935.208	1910.459
288.701	17.864	1934.399	1909.157
289.716	17.818	1932.828	1906.866
290.730	17.825	1930.331	1904.252
291.745	17.873	1929.791	1904.033
292.760	17.810	1928.797	1902.118
293.774	17.784	1927.737	1900.552
294.789	17.870	1926.024	1899.590
295.803	17.729	1923.695	1895.490
296.818	17.769	1922.398	1894.436
297.833	17.795	1921.619	1893.727
298.847	17.719	1920.390	1891.449
299.862	17.761	1918.358	1889.684
300.876	18.242	1918.309	1894.771
301.891	19.972	1922.854	1918.310
302.906	20.371	1921.340	1921.011
303.920	18.521	1915.185	1894.096
304.935	17.970	1910.295	1882.929
305.949	17.855	1908.495	1879.662
306.964	17.769	1907.228	1877.240
307.979	17.879	1905.886	1876.906
308.993	17.814	1905.190	1875.274
310.008	17.966	1902.979	1874.552
311.022	18.017	1901.411	1873.348
312.037	17.944	1899.996	1870.926
313.052	17.949	1898.051	1868.842
314.066	17.891	1898.302	1868.228
315.081	17.980	1897.042	1867.739
316.095	17.877	1895.449	1864.822
317.110	17.878	1893.344	1862.535
318.125	17.691	1891.919	1858.865
319.139	17.769	1890.705	1858.306
320.154	17.884	1888.807	1857.467
321.168	17.894	1887.695	1856.266
322.183	18.000	1885.703	1855.243
323.197	17.618	1885.125	1850.280
324.212	17.687	1882.204	1847.945
325.227	17.494	1881.298	1844.728
326.241	17.517	1880.632	1844.111
327.256	17.582	1879.063	1843.060
328.270	17.683	1877.880	1842.776
329.285	17.702	1876.749	1841.650
330.300	18.362	1879.699	1851.491
331.314	20.401	1882.818	1876.518
332.329	19.984	1879.627	1868.593
333.343	18.174	1872.525	1841.734
334.358	17.801	1869.364	1834.378
335.373	17.716	1867.771	1831.672
336.387	17.718	1866.046	1829.788
337.402	17.663	1863.776	1826.749
338.416	17.671	1862.436	1825.299
339.431	17.777	1861.504	1825.302
340.446	17.955	1859.154	1824.698
341.460	17.866	1859.066	1823.440
342.475	17.876	1857.536	1821.822
343.489	18.020	1856.162	1821.806
344.504	17.932	1855.147	1819.648
345.519	18.008	1853.978	1819.094
346.533	18.046	1852.060	1817.401
347.548	18.065	1850.971	1816.321
348.562	17.928	1850.137	1813.818
349.577	18.023	1848.190	1812.711
350.592	18.059	1847.666	1812.363
351.606	17.904	1846.933	1809.773
352.621	17.898	1844.295	1806.903
353.635	17.795	1842.798	1804.128
354.650	17.834	1841.899	1803.444
355.665	17.810	1840.156	1801.270
356.679	17.826	1838.206	1799.312
357.694	17.724	1836.564	1796.413
358.708	17.712	1836.354	1795.864
359.723	18.595	1838.491	1807.090
360.738	20.432	1841.088	1828.896
361.752	19.906	1836.150	1818.214
362.767	18.068	1831.188	1793.706
363.781	17.782	1828.579	1787.930
364.796	17.688	1826.889	1785.070
365.810	17.549	1826.373	1782.895
366.825	17.579	1824.792	1781.448
367.840	17.702	1824.351	1782.101
368.854	17.680	1823.079	1780.412
369.869	17.614	1820.954	1777.436
370.883	17.508	1819.923	1775.105
371.898	17.687	1817.905	1774.796
372.913	17.655	1817.836	1774.176
373.927	17.670	1816.203	1772.533
374.942	17.633	1815.726	1771.465
375.956	17.818	1813.717	1771.224
376.971	17.668	1811.320	1767.107
377.986	17.659	1809.427	1764.959
379.000	17.579	1809.185	1763.679
380.015	17.909	1807.301	1765.057
381.029	17.897	1805.375	1762.846
382.044	17.927	1803.251	1760.871
383.059	17.756	1802.336	1757.987
384.073	17.728	1801.839	1757.007
385.088	17.649	1800.514	1754.686
386.102	17.603	1798.336	1751.875
387.117	17.571	1796.355	1749.407
388.132	17.575	1796.592	1749.477
389.146	18.217	1798.905	1758.151
390.161	20.235	1801.650	1781.469
391.175	20.027	1796.322	1773.847
392.190	18.190	1788.841	1747.406
393.205	17.620	1786.695	1739.255
394.219	17.694	1785.729	1738.870
395.234	17.647	1784.233	1736.721
396.248	17.714	1781.826	1734.850
397.263	17.638	1780.358	1732.444
398.278	17.716	1777.700	1730.438
399.292	17.777	1776.913	1730.085
400.307	17.742	1776.958	1729.568
401.321	17.935	1775.503	1729.912
402.336	17.749	1774.406	1726.744
403.350	17.723	1773.618	1725.502
404.365	17.856	1772.439	1725.500
405.380	18.084	1771.634	1726.825
406.394	18.099	1770.223	1725.400
407.409	18.194	1768.046	1724.031
408.423	18.081	1766.927	1721.592
409.438	18.103	1764.994	1719.727
410.453	17.985	1764.733	1718.073
411.467	18.001	1763.805	1717.121
412.482	17.839	1762.345	1713.860
413.496	17.815	1760.720	1711.839
414.511	17.876	1758.349	1709.943
415.526	17.711	1755.989	1705.775
416.540	17.734	1754.538	1704.395
417.555	17.678	1754.328	1703.427
418.569	17.635	1754.857	1703.301
419.584	17.773	1754.355	1704.002
420.599	17.694	1753.981	1702.637
421.613	17.770	1752.732	1701.985
422.628	17.756	1751.512	1700.452
423.642	17.799	1749.456	1698.683
424.657	17.807	1747.176	1696.347
425.672	17.772	1745.793	1694.452
426.686	17.706	1745.328	1693.144
427.701	17.761	1743.118	1691.342
428.715	17.811	1741.723	1690.286
429.730	17.898	1740.086	1689.355
430.745	17.925	1739.130	1688.496
431.759	17.760	1738.728	1686.261
432.774	17.786	1738.080	1685.696
433.788	17.859	1737.676	1685.823
434.803	18.190	1736.354	1687.623
435.818	18.042	1736.184	1685.787
436.832	17.838	1735.530	1682.928
437.847	17.056	1728.135	1667.835
438.861	9.504	1708.547	1574.736
439.876	1.682	1695.110	1485.640
440.890	0.277	1691.117	1468.209
441.905	0.235	1689.112	1465.885
442.920	0.247	1687.956	1464.820
443.934	0.141	1687.179	1462.940
444.949	0.073	1686.207	1461.258
445.963	0.142	1684.293	1460.090
446.978	-0.036	1684.781	1458.609
447.993	0.206	1682.635	1458.930
449.007	0.084	1680.627	1455.833
450.022	0.212	1677.846	1454.489
451.036	0.204	1677.282	1453.750
452.051	1.100	1681.912	1466.302
453.066	8.847	1698.393	1556.337
454.080	16.242	1710.076	1639.307
455.095	17.588	1711.359	1653.473
456.109	17.734	1711.308	1654.654
457.124	17.939	1710.582	1655.752
458.139	17.862	1709.567	1653.820
459.153	17.738	1708.522	1651.406
460.168	17.762	1706.411	1649.402
461.182	17.717	1704.844	1647.253
462.197	17.736	1703.544	1645.984
463.212	17.666	1701.724	1643.350
464.226	17.748	1700.750	1643.003
465.241	17.741	1699.637	1641.662
466.255	17.799	1698.346	1640.782
467.270	17.801	1696.789	1639.100
468.285	17.723	1695.638	1637.040
469.299	17.708	1694.346	1635.450
470.314	17.687	1692.887	1633.649
471.328	17.777	1690.988	1632.482
472.343	17.723	1690.547	1631.348
473.358	17.866	1688.848	1630.885
474.372	17.815	1687.419	1628.816
475.387	17.862	1685.874	1627.582
476.401	17.867	1684.276	1625.893
477.416	17.810	1683.416	1624.322
478.430	17.866	1682.410	1623.692
479.445	17.768	1681.640	1621.821
480.460	17.634	1680.051	1618.817
481.474	17.719	1679.167	1618.584
482.489	17.811	1677.348	1617.513
483.503	17.823	1675.934	1616.071
484.518	17.849	1674.702	1614.937
485.533	17.857	1673.588	1613.745
486.547	17.848	1672.539	1612.449
487.562	17.980	1671.404	1612.414
488.576	18.004	1669.984	1611.079
489.591	18.058	1668.933	1610.385
490.606	17.881	1667.958	1607.581
491.620	17.902	1666.269	1605.958
492.635	17.878	1664.086	1603.432
493.649	17.884	1663.101	1602.345
494.664	17.815	1661.444	1599.912
495.679	17.776	1660.102	1598.057
496.693	17.636	1659.180	1595.660
497.708	17.677	1657.936	1594.660
498.722	17.784	1657.441	1594.997
499.737	17.889	1655.463	1593.884
500.752	17.893	1652.737	1591.115
501.766	17.748	1652.181	1589.026
502.781	17.829	1650.971	1588.429
503.795	17.707	1649.941	1586.108
504.810	17.742	1649.484	1585.811
505.825	17.792	1648.901	1585.520
506.839	17.881	1647.033	1584.365
507.854	17.751	1646.115	1582.080
508.868	17.934	1643.985	1581.556
509.883	17.993	1642.843	1580.817
510.898	17.994	1641.846	1579.677
511.912	17.941	1639.936	1577.151
512.927	17.757	1637.981	1573.376
513.941	17.856	1637.363	1573.513
514.956	17.832	1636.110	1571.901
515.971	17.907	1635.593	1571.907
516.985	17.898	1634.083	1570.184
518.000	17.859	1632.698	1568.306
519.014	17.988	1632.125	1568.758
520.029	17.886	1630.980	1566.533
521.043	17.918	1628.576	1564.329
522.058	17.955	1627.062	1563.026
523.073	17.883	1626.739	1561.866
524.087	18.107	1625.890	1562.926
525.102	18.082	1623.833	1560.531
526.116	18.074	1622.979	1559.446
527.131	18.009	1622.508	1558.216
528.146	18.079	1621.269	1557.479
529.160	18.016	1620.058	1555.550
530.175	17.840	1619.058	1552.797
531.189	17.843	1618.245	1551.864
532.204	17.902	1616.830	1550.854
533.219	17.935	1615.302	1549.506
534.233	17.984	1614.020	1548.541
535.248	18.043	1613.303	1548.196
536.262	18.055	1612.676	1547.524
537.277	18.094	1611.562	1546.621
538.292	18.025	1609.778	1544.095
539.306	18.001	1608.088	1542.074
540.321	17.999	1606.912	1540.747
541.335	18.123	1605.515	1540.346
542.350	18.204	1603.668	1539.118
543.365	18.141	1602.040	1536.807
544.379	18.110	1600.698	1535.055
545.394	18.148	1599.615	1534.178
546.408	17.937	1598.724	1531.235
547.423	17.907	1597.716	1529.816
548.438	17.809	1596.261	1527.356
549.452	17.881	1595.561	1527.151
550.467	17.961	1594.201	1526.384
551.481	17.911	1593.589	1525.170
552.496	17.952	1592.629	1524.433
553.511	17.936	1591.266	1522.807
554.525	18.071	1590.218	1522.833
555.540	18.093	1589.954	1522.593
556.554	18.061	1588.443	1520.675
557.569	17.967	1586.492	1517.785
558.583	18.048	1584.461	1516.382
559.598	18.064	1583.596	1515.518
560.613	18.003	1582.824	1514.055
561.627	18.042	1581.022	1512.495
562.642	17.932	1579.931	1510.292
563.656	18.152	1578.781	1510.965
564.671	18.123	1576.787	1508.623
565.686	18.046	1576.373	1507.363
566.700	18.050	1574.944	1505.851
567.715	18.169	1572.876	1504.747
568.729	18.032	1571.980	1502.497
569.744	17.957	1570.754	1500.483
570.759	17.919	1569.938	1499.187
571.773	17.997	1568.853	1498.657
572.788	18.053	1567.696	1497.870
573.802	18.067	1565.694	1495.900
574.817	18.023	1565.361	1495.014
575.832	18.110	1563.924	1494.227
576.846	18.120	1562.135	1492.427
577.861	17.949	1561.381	1490.028
578.875	18.106	1560.710	1490.584
579.890	18.170	1559.417	1489.732
580.905	18.163	1557.992	1488.137
581.919	18.135	1557.397	1487.144
582.934	18.082	1557.352	1486.456
583.948	18.070	1556.328	1485.198
584.963	18.051	1554.771	1483.367
585.978	18.105	1552.336	1481.342
586.992	18.084	1552.138	1480.786
588.007	18.082	1551.143	1479.642
589.021	18.101	1550.467	1478.988
590.036	18.134	1548.945	1477.645
591.051	18.156	1547.828	1476.592
592.065	18.156	1546.505	1475.152
593.080	18.224	1544.629	1473.778
594.094	18.324	1542.735	1472.661
595.109	18.028	1541.237	1468.498
596.123	17.885	1540.693	1466.568
597.138	18.104	1539.588	1467.232
598.153	18.050	1538.511	1465.559
599.167	18.045	1536.813	1463.727
600.182	18.098	1535.882	1463.122
601.196	18.100	1534.979	1462.100
602.211	18.000	1533.610	1459.768
603.226	18.222	1532.067	1460.023
604.240	18.156	1530.966	1458.234
605.255	18.172	1530.040	1457.319
606.269	18.158	1529.027	1456.055
607.284	18.148	1527.800	1454.628
608.299	18.157	1526.532	1453.321
609.313	18.104	1525.010	1451.250
610.328	18.227	1524.641	1451.770
611.342	18.230	1522.838	1449.906
612.357	18.106	1522.145	1448.024
613.372	18.115	1521.002	1446.833
614.386	18.094	1519.788	1445.328
615.401	18.156	1519.045	1444.978
616.415	18.174	1518.450	1444.386
617.430	18.292	1517.684	1444.488
618.445	18.215	1516.495	1442.531
619.459	18.189	1515.210	1440.915
620.474	18.234	1514.654	1440.592
621.488	18.053	1512.554	1436.897
622.503	18.089	1511.482	1436.009
623.518	18.130	1509.952	1434.730
624.532	18.235	1509.032	1434.570
625.547	18.143	1508.395	1433.019
626.561	18.335	1507.450	1433.565
627.576	18.264	1506.940	1432.309
628.591	18.173	1505.078	1429.608
629.605	18.226	1503.192	1428.087
630.620	18.144	1502.556	1426.625
631.634	18.154	1501.848	1425.867
632.649	18.145	1500.480	1424.317
633.663	18.141	1499.467	1423.156
634.678	18.241	1498.014	1422.443
635.693	18.310	1497.074	1421.953
636.707	18.175	1495.211	1418.887
637.722	18.200	1493.937	1417.719
638.736	18.332	1492.771	1417.539
639.751	18.406	1491.960	1417.214
640.766	18.194	1490.833	1414.214
641.780	18.183	1489.766	1412.943
642.795	18.274	1488.689	1412.508
643.809	18.307	1488.126	1412.075
644.824	18.221	1487.306	1410.420
645.839	18.368	1485.980	1410.204
646.853	18.395	1485.069	1409.395
647.868	18.218	1483.384	1406.168
648.882	18.225	1482.051	1404.793
649.897	18.285	1481.431	1404.529
650.912	18.433	1479.830	1404.063
651.926	18.376	1478.415	1402.088
652.941	18.357	1476.689	1400.121
653.955	18.415	1474.976	1398.813
654.970	18.305	1473.946	1396.764
655.985	18.287	1472.464	1395.043
656.999	18.317	1472.225	1394.898
658.014	18.354	1470.838	1393.719
659.028	18.467	1469.002	1392.731
660.043	18.382	1468.682	1391.568
661.058	18.456	1467.243	1390.645
662.072	18.359	1466.251	1388.745
663.087	18.240	1466.013	1387.386
664.101	18.245	1464.879	1386.184
665.116	18.230	1463.642	1384.725
666.131	18.333	1462.466	1384.290
667.145	18.358	1461.034	1382.968
668.160	18.416	1459.672	1381.982
669.174	18.455	1458.429	1380.956
670.189	18.587	1456.529	1380.064
671.204	18.428	1456.746	1378.817
672.218	18.285	1456.492	1377.256
673.233	18.259	1455.107	1375.570
674.247	18.425	1453.514	1375.239
675.262	18.460	1452.602	1374.493
676.276	18.401	1451.528	1372.833
677.291	18.311	1451.378	1371.807
678.306	18.234	1449.875	1369.602
679.320	18.343	1448.283	1368.813
680.335	18.308	1448.426	1368.501
681.349	18.384	1447.638	1368.197
682.364	18.261	1446.089	1365.587
683.379	18.269	1444.446	1363.936
684.393	18.360	1442.879	1363.024
685.408	18.280	1441.995	1361.380
686.422	18.323	1440.890	1360.524
687.437	18.352	1440.451	1360.178
688.452	18.448	1439.426	1359.812
689.466	18.445	1437.709	1358.002
690.481	18.289	1437.042	1355.963
691.495	18.233	1435.951	1354.326
692.510	18.250	1434.690	1353.113
693.525	18.123	1433.422	1350.750
694.539	18.308	1432.737	1351.408
695.554	18.222	1432.202	1350.058
696.568	18.328	1431.368	1349.953
697.583	18.309	1430.475	1348.799
698.598	18.378	1428.819	1347.616
699.612	18.414	1427.278	1346.287
700.627	18.533	1425.460	1345.348
701.641	18.449	1424.978	1344.074
702.656	18.520	1423.884	1343.437
703.671	18.454	1424.113	1342.972
704.685	18.566	1423.191	1342.830
705.700	18.484	1421.372	1340.309
706.714	18.475	1419.795	1338.586
707.729	18.508	1418.376	1337.347
708.744	18.479	1417.232	1335.881
709.758	18.345	1417.172	1334.615
710.773	18.361	1415.771	1333.263
711.787	18.525	1414.540	1333.228
712.802	18.491	1413.209	1331.542
713.816	18.466	1412.464	1330.486
714.831	18.622	1411.047	1330.213
715.846	18.524	1410.496	1328.771
716.860	18.500	1408.891	1326.913
717.875	18.585	1408.093	1326.665
718.889	18.403	1406.740	1323.817
719.904	18.510	1405.925	1323.722
720.919	18.627	1404.276	1322.912
721.933	18.502	1404.142	1321.662
722.948	18.576	1402.667	1320.685
723.962	18.519	1402.042	1319.500
724.977	18.533	1400.815	1318.297
725.992	18.536	1399.649	1317.063
727.006	18.509	1398.243	1315.374
728.021	18.624	1396.915	1314.857
729.035	18.664	1395.644	1313.811
730.050	18.500	1394.745	1311.541
731.065	18.449	1393.931	1310.229
732.079	18.604	1392.594	1310.004
733.094	18.469	1391.527	1307.812
734.108	18.439	1390.219	1306.194
735.123	18.409	1388.839	1304.512
736.138	18.578	1387.813	1304.682
737.152	18.435	1386.913	1302.589
738.167	18.576	1385.589	1302.268
739.181	18.449	1385.182	1300.759
740.196	18.529	1384.267	1300.355
741.211	18.502	1383.573	1299.341
742.225	18.523	1382.455	1298.292
743.240	18.546	1381.027	1296.969
744.254	18.612	1379.793	1296.161
745.269	18.337	1379.173	1293.336
746.284	18.280	1378.746	1292.350
747.298	18.359	1377.581	1291.703
748.313	18.295	1376.228	1289.791
749.327	18.186	1375.484	1288.116
750.342	18.251	1374.462	1287.492
751.356	18.313	1372.637	1286.103
752.371	18.437	1371.390	1285.714
753.386	18.300	1371.321	1284.465
754.400	18.517	1370.582	1285.250
755.415	18.679	1369.407	1285.218
756.429	18.496	1368.311	1282.656
757.444	18.569	1366.972	1281.798
758.459	18.437	1366.528	1280.238
759.473	18.673	1365.253	1280.659
760.488	18.629	1363.843	1278.849
761.502	18.711	1362.342	1277.905
762.517	18.729	1361.458	1277.056
763.532	18.605	1359.777	1274.405
764.546	18.598	1359.138	1273.598
765.561	18.562	1358.786	1272.844
766.575	18.547	1357.268	1271.161
767.590	18.467	1356.259	1269.470
768.605	18.410	1355.374	1268.063
769.619	18.653	1353.647	1268.102
770.634	18.663	1352.489	1266.940
771.648	18.671	1351.865	1266.265
772.663	18.638	1351.360	1265.396
773.678	18.788	1350.662	1265.700
774.692	18.575	1349.614	1262.989
775.707	18.726	1348.783	1263.178
776.721	18.844	1347.362	1262.566
777.736	18.655	1346.677	1260.376
778.751	18.609	1345.927	1259.185
779.765	18.684	1344.614	1258.360
780.780	18.513	1344.187	1256.551
781.794	18.502	1343.446	1255.628
782.809	18.599	1341.636	1254.500
783.824	18.557	1340.483	1252.957
784.838	18.355	1339.724	1250.617
785.853	18.263	1338.615	1248.758
786.867	18.330	1338.195	1248.704
787.882	18.463	1337.545	1248.923
788.897	18.498	1336.863	1248.395
789.911	18.489	1335.673	1247.068
790.926	18.403	1334.406	1245.107
791.940	18.545	1333.151	1244.824
792.955	18.499	1331.829	1243.110
793.969	18.491	1330.859	1241.997
794.984	18.489	1329.862	1240.903
795.999	18.597	1328.848	1240.592
797.013	18.646	1327.055	1239.122
798.028	18.704	1325.320	1237.774
799.042	18.484	1325.747	1236.432
800.057	18.507	1324.699	1235.473
801.072	18.658	1322.814	1234.656
802.086	18.683	1321.192	1233.177
803.101	18.812	1320.433	1233.255
804.115	18.654	1319.961	1231.525
805.130	18.583	1319.358	1230.301
806.145	18.826	1317.775	1230.430
807.159	18.720	1316.347	1228.189
808.174	18.658	1315.382	1226.694
809.188	18.731	1314.280	1226.042
810.203	18.700	1312.623	1224.131
811.218	18.621	1311.191	1222.080
812.232	18.628	1309.416	1220.332
813.247	18.726	1308.591	1220.117
814.261	18.469	1308.821	1218.345
815.276	18.634	1307.612	1218.257
816.291	18.589	1306.338	1216.600
817.305	18.879	1305.679	1217.907
818.320	18.618	1304.676	1214.965
819.334	18.726	1302.778	1213.826
820.349	18.549	1301.873	1211.579
821.364	18.564	1300.378	1210.150
822.378	18.693	1298.701	1209.358
823.393	18.749	1297.308	1208.308
824.407	18.650	1296.338	1206.565
825.422	18.668	1296.079	1206.303
826.437	18.580	1295.008	1204.541
827.451	18.563	1292.726	1202.154
828.466	18.378	1291.319	1199.402
829.480	18.456	1290.130	1198.704
830.495	18.538	1288.003	1197.160
831.509	18.453	1287.882	1196.308
832.524	18.536	1287.415	1196.310
833.539	18.630	1286.143	1195.643
834.553	18.549	1285.142	1194.006
835.568	18.666	1283.732	1193.371
836.582	18.708	1282.677	1192.540
837.597	18.764	1281.626	1191.806
838.612	18.772	1280.054	1190.264
839.626	18.794	1279.278	1189.551
840.641	18.880	1278.202	1189.001
841.655	18.660	1277.578	1186.749
842.670	18.524	1276.280	1184.457
843.685	18.350	1275.362	1182.261
844.699	18.572	1274.452	1182.814
845.714	18.727	1273.085	1182.474
846.728	18.757	1272.185	1181.707
847.743	18.625	1271.158	1179.694
848.758	18.734	1269.842	1179.088
849.772	18.719	1268.393	1177.499
850.787	18.773	1266.793	1176.243
851.801	18.776	1265.637	1175.051
852.816	18.587	1265.230	1173.231
853.831	18.590	1263.272	1171.299
854.845	18.542	1261.309	1169.005
855.860	18.562	1259.818	1167.626
856.874	18.523	1259.176	1166.618
857.889	18.561	1257.960	1165.612
858.904	18.491	1256.020	1163.199
859.918	18.455	1254.232	1161.163
860.933	18.297	1252.952	1158.761
861.947	18.434	1253.019	1159.614
862.962	18.560	1251.541	1158.967
863.977	18.520	1250.405	1157.506
864.991	18.524	1249.795	1156.829
866.006	18.562	1249.808	1156.961
867.020	18.648	1248.926	1156.589
868.035	18.671	1247.583	1155.360
869.049	18.638	1246.536	1154.029
870.064	18.933	1244.995	1154.456
871.079	18.667	1244.769	1152.314
872.093	18.738	1244.286	1152.204
873.108	18.784	1242.932	1151.124
874.122	18.750	1242.167	1150.047
875.137	18.680	1241.579	1148.895
876.152	18.846	1240.026	1148.435
877.166	18.777	1238.548	1146.469
878.181	18.935	1237.005	1145.964
879.195	18.967	1236.787	1145.834
880.210	18.919	1236.257	1144.886
881.225	18.802	1234.816	1142.634
882.239	18.831	1234.063	1141.995
883.254	18.861	1232.935	1141.014
884.268	19.003	1231.705	1140.683
885.283	18.842	1230.673	1138.522
886.298	18.810	1229.564	1137.142
887.312	18.811	1228.979	1136.477
888.327	18.885	1226.774	1134.794
889.341	18.843	1225.444	1133.148
890.356	18.732	1225.073	1131.933
891.371	18.698	1225.105	1131.601
892.385	18.653	1224.782	1130.871
893.400	18.716	1223.406	1129.878
894.414	18.745	1222.261	1128.882
895.429	18.713	1220.388	1126.803
896.444	18.406	1218.818	1123.193
897.458	18.357	1217.597	1121.614
898.473	18.463	1217.167	1121.783
899.487	18.685	1216.343	1122.343
900.502	18.677	1215.871	1121.722
901.517	18.838	1213.769	1120.703
902.531	18.799	1213.552	1120.117
903.546	18.608	1213.446	1118.629
904.560	18.863	1211.881	1118.722
905.575	18.795	1211.405	1117.706
906.589	18.863	1210.354	1117.048
907.604	18.967	1209.314	1116.631
