DTS Sentinel unit serial number:	SN409020Multiplexer serial number:	ORYXHardware model number:	OX4-SRSoftware version number:	ORYX F/W v3.00 Oryx Data Collector v3.7.2.0data status	okinstallation	HaddamTimeLapsedifferential loss correction	single-endedforward channel	channel 3reverse channel	N/Adate	2011/06/22time	00:21:17forward acquisition time	30.00reverse acquisition time	0.00gamma	498.7831k internal	0.1752k external	0.1752temperature offset calibration	1.0074default loss term (dB/km)	0.3790temperature slope calibration	1.3530multiplexer offset coefficient	1.0000multiplexer slope coefficient	1.0000fibre end	0.00T internal ref (°C)	22.75T ext. ref 1 (°C)	18.03T ext. ref 2 (°C)	0.05length (m)	temperature (°C)	Stokes	anti-Stokes-747.200	202.917	0.073	0.149
-746.185	-98.389	-0.606	0.205
-745.171	-128.475	0.555	0.104
-744.156	233.614	-0.106	0.232
-743.142	-82.228	-0.240	-0.103
-742.127	800.000	0.104	0.526
-741.112	-36.589	-0.108	0.077
-740.098	535.424	0.065	-0.207
-739.083	532.733	-0.021	0.067
-738.069	-124.837	0.054	0.011
-737.054	-66.504	-0.064	0.033
-736.039	-170.297	-0.467	-0.021
-735.025	-200.000	-0.168	0.000
-734.010	83.623	0.173	-0.251
-732.996	-200.000	-0.014	0.141
-731.981	-151.648	-0.206	0.020
-730.966	-200.000	-0.054	-0.350
-729.952	800.000	0.090	-0.340
-728.937	122.077	-0.101	0.168
-727.923	-132.148	-0.374	-0.064
-726.908	310.044	-0.213	0.530
-725.894	800.000	-0.083	-0.334
-724.879	-200.000	-0.004	0.176
-723.864	162.768	-0.209	-0.390
-722.850	-163.860	0.184	-0.011
-721.835	-13.803	0.290	0.249
-720.821	-75.851	0.562	-0.263
-719.806	64.039	-0.095	-0.126
-718.791	-138.236	-0.437	0.064
-717.777	483.993	-0.123	-0.372
-716.762	-150.072	0.562	0.057
-715.748	-130.509	0.357	-0.063
-714.733	-119.954	0.350	0.079
-713.718	-67.967	0.295	-0.152
-712.704	800.000	0.087	-0.381
-711.689	-78.467	0.101	0.046
-710.675	-114.980	0.086	-0.021
-709.660	-200.000	0.032	-0.275
-708.645	-80.473	0.176	0.077
-707.631	244.928	-0.153	-0.343
-706.616	222.112	0.035	-0.074
-705.602	18.303	0.111	-0.117
-704.587	132.993	-0.174	-0.298
-703.572	164.173	-0.060	-0.112
-702.558	61.980	0.110	-0.145
-701.543	-88.297	-0.555	-0.219
-700.529	-200.000	0.025	0.410
-699.514	-58.649	0.241	-0.138
-698.499	9.994	-0.279	-0.281
-697.485	-200.000	-0.021	-0.366
-696.470	-0.393	0.296	-0.279
-695.456	244.552	-0.006	-0.014
-694.441	-84.255	-0.194	0.081
-693.426	-143.905	-0.156	0.019
-692.412	-200.000	-0.006	0.192
-691.397	-25.395	-0.137	-0.107
-690.383	129.496	-0.175	-0.296
-689.368	-117.027	-0.180	0.043
-688.354	22.193	-0.340	-0.368
-687.339	-25.617	-0.087	-0.068
-686.324	250.290	-0.050	-0.113
-685.310	507.547	0.197	-0.608
-684.295	103.410	0.231	-0.359
-683.281	61.655	0.070	-0.093
-682.266	121.050	0.076	0.126
-681.251	-77.896	0.506	-0.230
-680.237	-127.612	0.468	0.089
-679.222	-200.000	0.058	-0.431
-678.208	-111.666	-0.570	-0.152
-677.193	-62.924	0.177	0.097
-676.178	4.651	0.171	0.166
-675.164	-170.567	-0.463	-0.021
-674.149	-105.864	0.238	-0.071
-673.135	-118.873	0.149	-0.034
-672.120	356.250	-0.100	0.265
-671.105	-99.479	-0.288	-0.095
-670.091	-107.030	0.256	-0.075
-669.076	192.579	-0.102	0.205
-668.062	26.561	0.215	-0.238
-667.047	778.998	-0.044	-0.161
-666.032	165.195	0.074	-0.140
-665.018	-58.611	-0.243	0.139
-664.003	-71.883	0.263	0.129
-662.989	-0.838	0.204	0.191
-661.974	62.844	0.132	0.175
-660.959	-189.014	0.437	-0.007
-659.945	-200.000	0.015	0.441
-658.930	25.226	-0.292	0.321
-657.916	634.791	0.090	0.304
-656.901	-132.664	0.373	0.063
-655.886	8.466	-0.173	0.172
-654.872	126.439	-0.223	-0.374
-653.857	-29.257	-0.420	0.318
-652.843	180.219	0.093	0.181
-651.828	-112.159	-0.210	0.055
-650.814	-200.000	-0.046	0.289
-649.799	-171.718	-0.190	-0.008
-648.784	-31.897	0.231	0.171
-647.770	-14.865	0.245	-0.207
-646.755	-102.742	-0.428	0.134
-645.741	-163.774	-0.233	0.014
-644.726	-94.791	-0.805	-0.287
-643.711	11.954	0.045	-0.046
-642.697	-63.861	-0.504	0.272
-641.682	34.858	-0.188	0.218
-640.668	-129.219	-0.244	-0.045
-639.653	800.000	-0.084	0.313
-638.638	1.332	-0.428	0.406
-637.624	35.794	0.131	-0.152
-636.609	800.000	-0.036	0.153
-635.595	800.000	-0.012	-0.046
-634.580	-200.000	-0.017	0.191
-633.565	800.000	0.040	0.172
-632.551	800.000	0.043	0.160
-631.536	800.000	-0.089	-0.492
-630.522	370.437	-0.050	-0.134
-629.507	-151.824	-0.316	0.030
-628.492	419.769	0.057	0.161
-627.478	36.470	0.279	-0.326
-626.463	704.450	-0.093	0.326
-625.449	-200.000	0.015	-0.120
-624.434	-116.358	0.458	0.111
-623.419	-116.952	0.551	-0.132
-622.405	192.448	0.109	0.219
-621.390	-24.387	0.108	-0.085
-620.376	-70.321	-0.302	0.151
-619.361	11.010	0.171	0.172
-618.346	69.485	-0.231	0.314
-617.332	110.117	0.302	-0.479
-616.317	719.367	-0.053	-0.188
-615.303	-57.230	-0.241	-0.140
-614.288	-200.000	-0.036	-0.362
-613.273	80.129	0.440	0.626
-612.259	95.408	-0.128	0.192
-611.244	4.605	0.092	0.089
-610.230	115.097	0.219	-0.353
-609.215	334.806	0.063	-0.161
-608.201	9.701	0.042	-0.042
-607.186	-13.516	-0.121	-0.103
-606.171	-46.357	-0.168	0.108
-605.157	102.649	-0.043	0.067
-604.142	58.457	-0.138	-0.180
-603.128	-157.521	-0.206	0.016
-602.113	9.833	-0.356	0.357
-601.098	-71.742	0.535	0.262
-600.084	-191.707	0.559	-0.007
-599.069	202.811	0.164	0.336
-598.055	1.469	0.106	-0.100
-597.040	-144.010	-0.208	0.025
-596.025	-126.818	-0.322	-0.062
-595.011	-174.776	-0.047	-0.002
-593.996	-113.825	0.572	0.146
-592.982	14.529	-0.260	0.268
-591.967	147.625	0.283	0.505
-590.952	-40.440	0.347	-0.238
-589.938	762.937	0.085	-0.305
-588.923	-117.604	0.370	0.087
-587.909	-114.470	-0.073	0.018
-586.894	-13.766	0.111	-0.095
-585.879	-133.496	0.193	0.032
-584.865	-100.035	-0.334	-0.109
-583.850	3.064	0.066	-0.064
-582.836	5.535	-0.411	-0.401
-581.821	45.473	-0.256	0.312
-580.806	-135.680	-0.323	-0.050
-579.792	-188.913	-0.133	0.002
-578.777	-75.274	-0.267	-0.125
-577.763	-133.359	-0.209	-0.034
-576.748	-138.769	0.136	-0.019
-575.733	-47.606	-0.218	0.139
-574.719	-21.473	-0.286	-0.230
-573.704	109.027	0.023	-0.036
-572.690	149.979	0.347	0.621
-571.675	-14.342	-0.304	0.258
-570.661	53.181	-0.259	0.327
-569.646	-200.000	0.065	0.541
-568.631	-39.014	-0.169	0.117
-567.617	35.665	-0.143	0.166
-566.602	-127.107	-0.020	-0.004
-565.588	4.215	-0.255	-0.246
-564.573	105.570	-0.146	0.228
-563.558	35.844	0.359	-0.416
-562.544	-200.000	-0.038	-0.294
-561.529	248.178	0.156	0.349
-560.515	58.054	0.216	-0.279
-559.500	-45.941	0.210	-0.136
-558.485	800.000	-0.125	0.550
-557.471	-60.359	-0.210	-0.117
-556.456	115.918	-0.090	-0.146
-555.442	81.077	-0.231	0.329
-554.427	60.753	-0.186	-0.243
-553.412	-117.450	0.293	0.069
-552.398	-142.825	-0.299	-0.038
-551.383	81.254	0.022	0.032
-550.369	-116.700	0.271	-0.065
-549.354	800.000	-0.085	-0.469
-548.339	93.420	0.413	0.616
-547.325	-134.945	0.110	0.017
-546.310	-131.932	0.131	-0.022
-545.296	539.668	0.046	-0.146
-544.281	-72.668	0.377	0.183
-543.266	30.904	0.415	-0.468
-542.252	-126.129	-0.330	0.065
-541.237	114.774	-0.050	-0.080
-540.223	115.263	-0.109	0.176
-539.208	-91.960	-0.189	0.070
-538.193	-200.000	-0.038	0.310
-537.179	800.000	-0.080	-0.396
-536.164	-43.478	0.031	-0.020
-535.150	800.000	0.077	0.331
-534.135	-200.000	-0.039	-0.376
-533.121	-39.440	-0.038	0.026
-532.106	-89.372	-0.463	-0.179
-531.091	163.093	-0.193	-0.358
-530.077	-115.339	0.456	-0.113
-529.062	-55.980	0.256	-0.150
-528.048	98.510	-0.227	0.345
-527.033	60.387	-0.243	0.317
-526.018	-35.002	-0.294	-0.210
-525.004	428.946	-0.075	0.213
-523.989	728.731	0.079	0.279
-522.975	800.000	-0.062	-0.342
-521.960	-109.942	-0.420	-0.115
-520.945	-85.818	-0.417	0.169
-519.931	63.982	-0.369	-0.489
-518.916	-69.365	0.190	0.096
-517.902	-183.645	-0.415	0.009
-516.887	-169.193	0.276	-0.013
-515.872	-95.494	-0.105	0.037
-514.858	-121.280	0.693	0.151
-513.843	-148.892	-0.209	-0.022
-512.829	619.104	-0.086	-0.285
-511.814	268.224	-0.152	-0.351
-510.799	53.117	0.302	-0.381
-509.785	-113.698	-0.631	-0.161
-508.770	-1.189	-0.209	0.194
-507.756	-146.160	0.701	-0.080
-506.741	210.561	0.181	-0.374
-505.726	-63.208	-0.428	0.231
-504.712	-144.565	0.170	0.020
-503.697	102.018	0.113	0.174
-502.683	800.000	0.105	0.475
-501.668	-43.156	0.046	-0.031
-500.653	-200.000	-0.044	-0.324
-499.639	-34.755	0.190	-0.136
-498.624	-126.703	-0.386	-0.074
-497.610	113.730	-0.098	-0.156
-496.595	-130.496	-0.600	-0.106
-495.581	-74.663	0.054	-0.026
-494.566	-173.967	-0.202	0.008
-493.551	-92.094	0.157	0.058
-492.537	22.842	-0.144	-0.155
-491.522	30.757	-0.161	0.181
-490.508	43.112	0.127	0.153
-489.493	-90.469	0.056	0.021
-488.478	83.860	0.252	-0.362
-487.464	-142.408	-0.342	0.044
-486.449	-200.000	0.008	0.051
-485.435	100.063	-0.082	0.125
-484.420	-155.527	-0.639	-0.053
-483.405	43.107	0.122	-0.147
-482.391	77.313	0.168	-0.234
-481.376	10.193	0.048	0.048
-480.362	-200.000	-0.018	-0.218
-479.347	-200.000	0.031	0.429
-478.332	28.564	-0.143	0.159
-477.318	59.823	0.209	-0.272
-476.303	-200.000	0.024	0.289
-475.289	-200.000	0.009	-0.420
-474.274	-200.000	-0.066	-0.395
-473.259	-30.745	0.092	-0.068
-472.245	-162.638	-0.677	0.043
-471.230	-141.933	-0.214	0.028
-470.216	2.947	-0.086	-0.082
-469.201	241.742	-0.242	-0.532
-468.186	31.143	-0.129	-0.145
-467.172	124.319	0.255	0.423
-466.157	-200.000	-0.051	0.332
-465.143	-26.824	-0.225	-0.173
-464.128	-133.668	-0.219	-0.036
-463.113	17.664	-0.348	0.364
-462.099	774.598	0.068	0.244
-461.084	-76.572	0.301	-0.138
-460.070	57.523	-0.241	0.309
-459.055	706.210	-0.131	0.457
-458.040	-21.244	-0.300	0.240
-457.026	-33.359	-0.480	0.348
-456.011	6.015	0.155	0.151
-454.997	800.000	0.066	0.330
-453.982	-83.181	0.219	0.092
-452.968	27.178	-0.018	-0.020
-451.953	800.000	-0.062	0.333
-450.938	-44.724	0.397	0.259
-449.924	64.420	0.309	0.409
-448.909	-112.573	0.436	0.113
-447.895	800.000	0.067	-0.287
-446.880	125.468	-0.125	0.207
-445.865	294.928	-0.120	-0.289
-444.851	-3.423	0.122	-0.111
-443.836	92.244	-0.143	0.212
-442.822	-30.182	-0.531	-0.395
-441.807	28.827	0.167	0.186
-440.792	330.374	0.119	-0.301
-439.778	349.329	-0.210	0.547
-438.763	-2.392	-0.187	0.172
-437.749	-200.000	0.004	0.338
-436.734	166.071	0.145	0.270
-435.719	-16.626	-0.227	0.188
-434.705	64.427	0.068	0.090
-433.690	413.396	0.032	0.089
-432.676	-134.768	-0.343	0.054
-431.661	-74.569	-0.250	-0.117
-430.646	386.299	-0.128	0.349
-429.632	36.016	0.126	0.146
-428.617	444.153	0.098	0.282
-427.603	-87.047	0.239	-0.095
-426.588	-146.755	0.171	-0.019
-425.573	-57.115	0.151	-0.087
-424.559	175.507	-0.282	0.538
-423.544	740.776	-0.178	-0.630
-422.530	-181.140	-0.176	-0.005
-421.515	-200.000	0.013	0.124
-420.500	211.238	-0.092	0.191
-419.486	-109.670	-0.199	-0.055
-418.471	-68.608	-0.307	0.155
-417.457	-49.212	-0.399	0.249
-416.442	123.993	0.154	0.253
-415.428	18.220	0.382	-0.400
-414.413	134.979	-0.141	-0.240
-413.398	-200.000	0.004	-0.176
-412.384	266.919	-0.153	-0.353
-411.369	-111.970	0.442	0.116
-410.355	-136.411	0.318	0.048
-409.340	-200.000	-0.021	0.258
-408.325	-57.936	-0.066	0.037
-407.311	-114.895	-0.327	0.081
-406.296	-134.018	-0.614	0.099
-405.282	-129.347	-0.026	0.005
-404.267	-189.926	0.574	-0.008
-403.252	20.791	0.057	-0.061
-402.238	800.000	0.103	0.381
-401.223	-35.584	-0.373	0.264
-400.209	370.375	0.030	0.081
-399.194	225.008	0.248	0.528
-398.179	-200.000	-0.006	0.100
-397.165	-89.216	0.387	-0.149
-396.150	800.000	0.159	-0.705
-395.136	-14.701	0.205	-0.172
-394.121	-50.093	-0.294	-0.182
-393.106	-123.820	0.140	-0.029
-392.092	376.550	-0.054	0.144
-391.077	-153.935	0.520	-0.046
-390.063	-51.950	0.469	-0.285
-389.048	-116.629	-0.190	-0.045
-388.033	-185.645	0.337	0.007
-387.019	-98.864	0.449	-0.149
-386.004	-80.598	-0.160	0.070
-384.990	125.801	0.191	0.317
-383.975	-68.136	-0.081	-0.041
-382.960	-82.061	-0.444	-0.189
-381.946	-54.216	0.087	-0.051
-380.931	-200.000	-0.008	-0.109
-379.917	-200.000	-0.016	-0.234
-378.902	-71.517	-0.397	0.194
-377.888	91.517	0.237	0.350
-376.873	-50.131	0.309	0.191
-375.858	-88.907	0.295	-0.114
-374.844	-200.000	-0.070	-0.500
-373.829	-71.521	-0.246	0.120
-372.815	-31.105	0.282	-0.208
-371.800	81.321	0.249	-0.352
-370.785	-85.441	0.206	0.083
-369.771	-12.828	0.068	0.058
-368.756	-165.012	0.119	-0.007
-367.742	-28.298	0.119	0.090
-366.727	279.386	-0.182	-0.426
-365.712	153.987	0.164	-0.295
-364.698	44.053	-0.066	-0.079
-363.683	-8.474	-0.202	0.177
-362.669	-96.644	0.208	0.071
-361.654	-44.488	-0.234	0.153
-360.639	-200.000	0.031	0.384
-359.625	-36.479	0.305	0.214
-358.610	133.780	-0.135	0.229
-357.596	526.639	0.050	0.155
-356.581	-55.737	-0.158	0.092
-355.566	-87.129	-0.298	0.118
-354.552	-182.800	-0.268	0.006
-353.537	141.037	-0.107	-0.185
-352.523	-66.387	0.623	-0.323
-351.508	-200.000	-0.049	-0.666
-350.493	-68.094	0.434	0.220
-349.479	-193.952	-0.211	0.002
-348.464	258.093	0.159	-0.359
-347.450	10.495	0.131	-0.130
-346.435	-138.413	-0.116	-0.017
-345.420	-67.093	-0.316	0.162
-344.406	96.369	-0.305	0.457
-343.391	-140.479	-0.175	0.023
-342.377	171.680	-0.108	0.203
-341.362	38.755	0.087	-0.102
-340.348	-5.366	0.526	-0.472
-339.333	157.727	-0.241	0.438
-338.318	-154.228	-0.317	0.028
-337.304	183.530	0.099	-0.191
-336.289	-40.127	-0.165	0.112
-335.275	32.487	0.051	0.057
-334.260	-143.190	-0.050	0.006
-333.245	602.631	-0.008	-0.025
-332.231	-27.116	-0.342	0.260
-331.216	-28.997	0.294	0.220
-330.202	207.641	0.097	-0.199
-329.187	-74.324	0.261	0.123
-328.172	-200.000	-0.001	0.485
-327.158	-101.634	0.385	0.121
-326.143	41.932	-0.032	-0.038
-325.129	-32.199	0.202	0.147
-324.114	-54.372	0.394	0.233
-323.099	305.664	0.064	-0.156
-322.085	-200.000	-0.014	-0.133
-321.070	-60.758	-0.367	-0.202
-320.056	6.850	0.222	-0.215
-319.041	-130.082	0.348	0.062
-318.026	-12.004	0.272	0.233
-317.012	28.352	-0.345	-0.380
-315.997	800.000	0.101	-0.466
-314.983	-100.262	0.264	0.085
-313.968	-58.988	-0.562	-0.316
-312.953	-200.000	0.010	-0.504
-311.939	5.425	0.188	0.181
-310.924	-116.967	0.147	0.035
-309.910	165.344	0.139	-0.257
-308.895	145.700	0.188	-0.330
-307.880	800.000	0.043	-0.232
-306.866	-38.761	-0.736	-0.505
-305.851	75.680	-0.152	-0.210
-304.837	-50.915	0.117	0.072
-303.822	-94.720	-0.229	-0.081
-302.807	800.000	-0.034	-0.172
-301.793	508.817	0.121	-0.369
-300.778	800.000	-0.096	0.424
-299.764	-25.361	-0.212	0.164
-298.749	498.359	0.101	0.304
-297.735	800.000	0.060	0.347
-296.720	-108.692	0.437	-0.121
-295.705	-40.187	0.249	-0.169
-294.691	800.000	0.097	-0.463
-293.676	-165.350	-0.247	0.014
-292.662	105.991	-0.210	-0.325
-291.647	-78.397	0.247	-0.110
-290.632	11.260	-0.134	-0.133
-289.618	14.556	0.518	-0.528
-288.603	147.824	-0.154	-0.272
-287.589	-162.506	0.366	-0.023
-286.574	-119.531	0.417	-0.093
-285.559	-98.050	0.089	0.030
-284.545	-99.485	0.159	0.052
-283.530	242.875	-0.290	0.635
-282.516	-200.000	-0.058	0.397
-281.501	-200.000	0.007	0.402
-280.486	156.481	-0.318	-0.575
-279.472	167.874	-0.024	-0.044
-278.457	-132.832	0.067	-0.011
-277.443	37.452	0.405	-0.468
-276.428	-144.210	0.640	0.077
-275.413	-123.493	0.505	0.104
-274.399	800.000	0.066	0.292
-273.384	-69.043	-0.182	0.091
-272.370	-93.731	-0.198	0.071
-271.355	147.937	-0.312	0.550
-270.340	-108.158	0.396	-0.111
-269.326	-43.629	-0.063	0.041
-268.311	569.713	0.097	0.308
-267.297	-3.535	0.178	-0.161
-266.282	-37.752	-0.106	-0.074
-265.267	-200.000	-0.013	-0.531
-264.253	269.133	-0.076	0.174
-263.238	-200.000	0.007	-0.434
-262.224	-200.000	-0.046	0.393
-261.209	-200.000	0.013	0.116
-260.195	30.713	0.298	-0.332
-259.180	800.000	-0.020	-0.087
-258.165	-6.306	0.233	0.207
-257.151	42.195	0.169	-0.200
-256.136	186.999	-0.102	-0.199
-255.122	486.862	0.182	-0.542
-254.107	60.445	-0.354	-0.457
-253.092	-19.856	0.380	0.305
-252.078	-99.577	0.296	0.096
-251.063	136.193	0.085	0.144
-250.049	-115.576	-0.320	-0.078
-249.034	-10.618	-0.255	-0.220
-248.019	-94.758	-0.360	-0.126
-247.005	-135.950	-0.202	-0.031
-245.990	-51.397	0.409	0.248
-244.976	-100.379	-0.292	0.094
-243.961	247.739	-0.184	-0.407
-242.946	800.000	0.053	0.226
-241.932	-95.147	0.477	-0.166
-240.917	-200.000	-0.025	0.192
-239.903	71.807	0.371	-0.503
-238.888	-200.000	-0.030	-0.181
-237.873	-200.000	-0.434	0.001
-236.859	-124.674	-0.082	-0.016
-235.844	-176.608	0.254	0.008
-234.830	-200.000	-0.003	-0.332
-233.815	289.573	-0.053	-0.126
-232.800	23.085	-0.181	0.194
-231.786	800.000	0.097	0.413
-230.771	-59.138	-0.478	0.267
-229.757	140.785	0.092	-0.159
-228.742	-92.631	0.500	0.181
-227.727	-200.000	-0.004	-0.262
-226.713	-105.495	-0.411	0.121
-225.698	88.889	0.247	-0.357
-224.684	224.132	-0.195	-0.411
-223.669	-200.000	0.004	-0.383
-222.655	70.235	-0.166	-0.223
-221.640	-51.203	-0.566	-0.344
-220.625	304.984	-0.122	0.296
-219.611	-6.857	-0.499	0.440
-218.596	56.754	0.165	-0.209
-217.582	40.015	-0.209	0.245
-216.567	-72.346	-0.221	-0.106
-215.552	-147.070	0.464	0.051
-214.538	21.968	-0.192	-0.204
-213.523	173.364	-0.064	0.121
-212.509	4.010	0.241	-0.229
-211.494	-82.715	0.481	0.201
-210.479	-25.684	0.542	0.415
-209.465	800.000	-0.105	0.413
-208.450	-69.349	-0.492	-0.244
-207.436	60.885	0.246	-0.318
-206.421	800.000	0.055	-0.287
-205.406	-152.929	-0.250	-0.023
-204.392	-200.000	-0.048	0.352
-203.377	-93.353	0.122	0.044
-202.363	54.353	-0.189	-0.236
-201.348	47.937	0.220	0.267
-200.333	800.000	0.052	-0.226
-199.319	-68.365	0.314	-0.158
-198.304	373.585	-0.128	-0.341
-197.290	-200.000	0.001	0.098
-196.275	-159.290	0.271	-0.019
-195.260	-121.682	0.194	0.041
-194.246	-95.419	0.265	0.092
-193.231	436.606	0.070	-0.200
-192.217	149.070	0.127	-0.223
-191.202	329.115	-0.100	0.250
-190.187	79.695	0.141	0.196
-189.173	-141.745	-0.315	0.041
-188.158	3.668	0.448	0.425
-187.144	68.836	0.307	0.410
-186.129	428.510	-0.098	0.276
-185.114	-200.000	0.002	0.133
-184.100	271.194	-0.059	0.135
-183.085	155.807	0.140	0.252
-182.071	-200.000	0.013	0.604
-181.056	-200.000	-0.024	-0.155
-180.042	800.000	0.051	-0.221
-179.027	552.264	0.147	-0.460
-178.012	-188.825	0.145	0.002
-176.998	-200.000	0.083	-0.786
-175.983	198.239	-0.231	-0.461
-174.969	-116.899	-0.285	-0.067
-173.954	-60.103	0.199	0.110
-172.939	467.427	0.068	-0.199
-171.925	-77.050	-0.180	-0.081
-170.910	-200.000	0.011	0.338
-169.896	-36.518	-0.082	-0.057
-168.881	-200.000	0.092	0.538
-167.866	-200.000	0.065	-0.371
-166.852	-185.411	-0.157	0.003
-165.837	-89.908	0.691	-0.260
-164.823	53.702	0.239	0.298
-163.808	40.970	0.324	-0.379
-162.793	30.416	-0.265	-0.293
-161.779	-59.190	0.326	0.182
-160.764	-129.795	-0.242	-0.043
-159.750	39.146	-0.040	0.046
-158.735	45.497	-0.400	0.480
-157.720	437.986	0.099	0.281
-156.706	36.212	0.347	0.397
-155.691	-65.197	-0.570	-0.297
-154.677	315.995	0.070	0.171
-153.662	-89.293	0.562	-0.214
-152.647	800.000	0.066	-0.290
-151.633	-125.671	-0.172	-0.033
-150.618	44.127	-0.111	0.133
-149.604	46.935	-0.370	0.446
-148.589	-200.000	0.047	0.329
-147.574	-154.865	-0.439	-0.037
-146.560	95.871	-0.089	0.132
-145.545	800.000	-0.092	-0.466
-144.531	14.861	-0.108	-0.109
-143.516	80.437	-0.166	-0.232
-142.502	157.759	-0.140	-0.252
-141.487	-61.026	0.211	-0.115
-140.472	-114.712	-0.130	-0.032
-139.458	-128.994	-0.344	0.062
-138.443	158.238	-0.091	-0.164
-137.429	-200.000	0.052	-0.361
-136.414	-200.000	-0.017	-0.175
-135.399	-200.000	0.018	0.367
-134.385	-106.594	-0.591	0.169
-133.370	66.925	-0.161	0.213
-132.356	-90.137	-0.056	0.021
-131.341	-200.000	0.008	0.060
-130.326	62.833	0.093	-0.121
-129.312	127.011	-0.377	-0.620
-128.297	-50.160	0.360	0.220
-127.283	-200.000	-0.009	0.057
-126.268	-32.351	-0.163	-0.117
-125.253	52.803	-0.223	-0.276
-124.239	-114.718	-0.144	0.035
-123.224	261.839	-0.046	-0.103
-122.210	-50.524	0.183	-0.111
-121.195	800.000	-0.042	-0.155
-120.180	520.452	-0.013	-0.040
-119.166	-155.826	0.157	0.013
-118.151	-181.803	-0.383	0.009
-117.137	-129.673	-0.101	0.018
-116.122	-126.052	-0.116	-0.022
-115.107	800.000	0.070	0.289
-114.093	800.000	0.093	0.515
-113.078	-118.914	-0.401	0.091
-112.064	3.724	0.120	0.114
-111.049	800.000	0.090	0.447
-110.034	54.736	0.198	0.247
-109.020	-200.000	0.070	-0.464
-108.005	-33.298	0.350	-0.250
-106.991	171.150	0.099	-0.185
-105.976	-118.172	0.378	-0.087
-104.962	111.540	0.113	0.176
-103.947	336.974	-0.189	0.478
-102.932	-26.442	-0.424	-0.321
-101.918	-85.223	0.379	-0.153
-100.903	-200.000	0.048	-0.372
-99.889	-57.693	-0.332	-0.188
-98.874	-162.528	-0.032	-0.002
-97.859	307.903	-0.218	0.528
-96.845	-100.301	-0.325	0.104
-95.830	-127.088	-0.238	-0.045
-94.816	-200.000	-0.006	-0.245
-93.801	-44.114	-0.546	-0.354
-92.786	-118.281	-0.176	-0.040
-91.772	-94.324	0.190	-0.067
-90.757	-149.717	0.510	-0.051
-89.743	205.352	0.313	0.631
-88.728	-200.000	0.006	0.619
-87.713	63.634	-0.166	0.216
-86.699	-200.000	-0.002	0.097
-85.684	-92.878	-0.431	0.155
-84.670	-71.092	-0.061	0.029
-83.655	-11.233	0.318	-0.271
-82.640	-200.000	0.027	0.373
-81.626	-121.079	0.235	-0.050
-80.611	752.756	0.008	-0.029
-79.597	800.000	0.079	-0.330
-78.582	248.626	0.142	0.312
-77.567	-106.282	-0.541	0.156
-76.553	800.000	-0.089	-0.341
-75.538	-200.000	-0.004	-0.157
-74.524	-104.304	0.368	0.110
-73.509	22.542	-0.379	0.401
-72.494	19.667	0.286	0.298
-71.480	-200.000	-0.003	-0.400
-70.465	61.913	-0.163	0.210
-69.451	348.047	-0.105	0.270
-68.436	800.000	-0.152	0.604
-67.422	-200.000	-0.000	-0.351
-66.407	-128.136	0.313	0.057
-65.392	141.665	-0.274	-0.470
-64.378	0.595	0.380	-0.351
-63.363	176.391	-0.206	0.388
-62.349	-76.912	-0.194	-0.087
-61.334	39.614	-2.274	-2.636
-60.319	87.371	1.210	1.733
-59.305	216.972	-3.543	-7.315
-58.290	96.479	3.700	5.482
-57.276	395.385	3.701	10.026
-56.261	-200.000	22.958	320.400
-55.246	354.795	1304.476	3366.853
-54.232	52.931	2847.229	3522.478
-53.217	51.366	2662.340	3269.400
-52.203	31.744	2391.972	2660.635
-51.188	27.838	2058.203	2241.194
-50.173	24.629	1944.115	2079.407
-49.159	23.636	1932.140	2054.968
-48.144	23.108	1928.061	2044.416
-47.130	23.089	1925.913	2041.843
-46.115	23.044	1923.361	2038.529
-45.100	23.056	1921.796	2036.932
-44.086	23.051	1920.579	2035.504
-43.071	22.953	1918.806	2032.413
-42.057	22.866	1917.892	2030.356
-41.042	22.949	1916.379	2029.635
-40.027	22.911	1914.721	2027.356
-39.013	22.984	1913.475	2026.797
-37.998	22.951	1911.681	2024.437
-36.984	22.924	1911.207	2023.547
-35.969	22.863	1910.176	2021.672
-34.954	22.818	1909.769	2020.635
-33.940	22.769	1907.880	2018.001
-32.925	22.829	1906.098	2016.720
-31.911	22.864	1904.389	2015.234
-30.896	22.829	1903.202	2013.497
-29.881	22.840	1902.209	2012.492
-28.867	22.859	1900.260	2010.567
-27.852	22.761	1898.652	2007.667
-26.838	22.821	1897.210	2006.747
-25.823	22.773	1896.913	2005.803
-24.809	22.821	1895.293	2004.556
-23.794	22.775	1894.058	2002.654
-22.779	22.830	1892.377	2001.425
-21.765	22.825	1890.565	1999.365
-20.750	22.689	1891.133	1998.342
-19.736	22.658	1889.476	1996.155
-18.721	22.816	1887.376	1995.655
-17.706	22.616	1887.506	1993.446
-16.692	22.689	1885.723	1992.302
-15.677	22.705	1884.410	1991.018
-14.663	22.602	1883.659	1988.978
-13.648	22.621	1881.645	1986.987
-12.633	22.727	1879.967	1986.335
-11.619	22.685	1879.089	1984.856
-10.604	22.617	1877.193	1982.007
-9.590	22.723	1876.645	1982.553
-8.575	22.492	1876.029	1979.208
-7.560	22.623	1874.178	1978.655
-6.546	22.655	1872.250	1976.899
-5.531	22.668	1871.971	1976.675
-4.517	22.580	1870.949	1974.525
-3.502	22.627	1869.598	1973.554
-2.487	22.622	1868.758	1972.538
-1.473	22.631	1865.511	1969.131
-0.458	22.402	1847.946	1947.958
0.556	19.041	1994.123	2049.582
1.571	17.666	2196.952	2239.634
2.586	18.445	2235.756	2289.393
3.600	18.560	2238.188	2293.143
4.615	18.331	2237.839	2289.435
5.629	18.400	2235.617	2287.813
6.644	18.333	2233.498	2284.480
7.659	18.454	2230.663	2282.929
8.673	18.387	2229.360	2280.416
9.688	18.188	2239.064	2287.397
10.702	17.256	2318.983	2355.786
11.717	15.435	2382.983	2394.418
12.731	7.231	2362.549	2256.551
13.746	0.928	2346.174	2150.825
14.761	0.212	2342.848	2137.307
15.775	0.051	2341.202	2133.250
16.790	0.132	2339.653	2132.729
17.804	-0.074	2339.027	2128.980
18.819	0.037	2337.480	2128.893
19.834	0.100	2335.493	2127.718
20.848	0.046	2334.761	2126.036
21.863	0.086	2332.150	2123.967
22.877	0.071	2330.435	2121.941
23.892	0.018	2328.256	2118.954
24.907	0.009	2326.412	2116.900
25.921	0.006	2323.971	2114.373
26.936	0.046	2321.573	2112.505
27.950	0.043	2319.091	2109.961
28.965	0.053	2316.923	2107.873
29.980	0.049	2315.713	2106.463
30.994	0.221	2313.114	2106.259
32.009	3.816	2324.799	2167.372
33.023	12.846	2351.066	2319.832
34.038	16.609	2357.526	2379.208
35.053	16.620	2353.868	2375.382
36.067	16.527	2350.945	2370.846
37.082	16.527	2349.715	2369.315
38.096	16.668	2348.384	2369.668
39.111	16.910	2346.090	2370.477
40.126	16.966	2343.698	2368.569
41.140	17.204	2342.762	2370.669
42.155	17.194	2341.784	2369.260
43.169	17.247	2338.568	2366.458
44.184	16.968	2334.897	2358.562
45.199	16.959	2332.403	2355.640
46.213	17.059	2333.200	2357.552
47.228	17.159	2331.639	2357.088
48.242	17.276	2329.298	2356.067
49.257	17.254	2327.790	2353.965
50.271	17.344	2325.927	2353.050
51.286	17.057	2322.847	2345.668
52.301	16.847	2321.115	2340.712
53.315	17.745	2323.720	2355.538
54.330	20.622	2331.224	2402.881
55.344	22.349	2332.084	2427.440
56.359	22.506	2329.779	2426.919
57.374	22.748	2328.532	2428.679
58.388	22.903	2326.581	2428.496
59.403	22.657	2322.638	2420.697
60.417	22.312	2318.850	2411.715
61.432	22.289	2318.208	2410.439
62.447	22.548	2316.379	2411.811
63.461	22.731	2314.479	2412.062
64.476	22.810	2313.067	2411.384
65.490	22.560	2310.225	2404.699
66.505	21.668	2306.560	2388.382
67.520	19.672	2298.410	2352.376
68.534	17.340	2290.513	2312.173
69.549	16.887	2285.538	2300.693
70.563	16.744	2283.277	2296.191
71.578	16.700	2281.831	2293.868
72.593	16.813	2279.998	2293.286
73.607	17.006	2278.633	2294.263
74.622	16.943	2276.259	2290.738
75.636	16.800	2273.062	2285.307
76.651	16.726	2270.516	2281.476
77.666	16.664	2269.188	2279.027
78.680	16.571	2266.672	2274.970
79.695	16.303	2264.692	2269.100
80.709	16.229	2263.646	2266.772
81.724	16.266	2260.291	2263.640
82.739	16.357	2257.996	2262.298
83.753	16.346	2256.116	2259.995
84.768	16.249	2254.049	2256.350
85.782	16.173	2252.532	2253.549
86.797	16.103	2250.468	2250.271
87.812	16.187	2249.280	2249.939
88.826	16.359	2247.369	2250.062
89.841	16.348	2244.914	2247.185
90.855	16.340	2242.945	2244.838
91.870	16.392	2241.452	2243.774
92.884	16.480	2239.943	2243.163
93.899	16.450	2239.587	2242.144
94.914	17.176	2241.939	2253.913
95.928	19.804	2250.116	2296.989
96.943	20.581	2248.307	2305.231
97.957	18.056	2236.376	2259.210
98.972	16.465	2230.669	2232.075
99.987	16.288	2226.990	2225.786
101.001	16.410	2224.614	2224.750
102.016	16.372	2221.924	2221.301
103.030	16.242	2220.882	2218.267
104.045	16.264	2218.794	2216.208
105.060	16.369	2215.883	2214.427
106.074	16.332	2214.772	2212.557
107.089	16.363	2213.283	2211.220
108.103	16.409	2212.395	2210.673
109.118	16.521	2209.743	2209.225
110.133	16.615	2209.164	2209.617
111.147	16.420	2206.340	2203.974
112.162	16.404	2205.619	2202.777
113.176	16.643	2203.138	2203.166
114.191	16.637	2202.255	2201.934
115.206	16.727	2200.658	2201.258
116.220	16.666	2198.427	2197.966
117.235	16.689	2195.938	2195.507
118.249	16.757	2194.948	2195.138
119.264	16.756	2193.119	2193.044
120.279	16.621	2191.529	2189.438
121.293	16.676	2189.899	2188.259
122.308	16.748	2188.220	2187.252
123.322	16.667	2187.255	2184.978
124.337	17.119	2188.892	2192.218
125.352	19.933	2196.455	2236.117
126.366	20.605	2194.073	2242.132
127.381	17.794	2183.018	2194.273
128.395	16.732	2178.290	2175.549
129.410	16.643	2175.933	2171.793
130.424	16.551	2174.152	2168.571
131.439	16.554	2173.123	2167.326
132.454	16.638	2172.732	2167.756
133.468	16.807	2169.562	2166.507
134.483	16.971	2168.054	2166.840
135.497	17.026	2166.644	2165.877
136.512	16.868	2163.264	2160.216
137.527	16.822	2160.941	2157.050
138.541	16.447	2160.913	2151.969
139.556	16.430	2158.787	2149.376
140.570	16.419	2157.104	2147.306
141.585	16.354	2154.701	2143.818
142.600	16.326	2154.090	2142.608
143.614	16.346	2152.159	2140.673
144.629	16.165	2150.650	2136.617
145.643	16.118	2148.802	2133.934
146.658	16.177	2146.501	2132.140
147.673	16.141	2144.354	2129.294
148.687	16.157	2143.319	2128.207
149.702	16.331	2143.321	2130.163
150.716	16.285	2142.410	2128.421
151.731	16.385	2141.062	2128.101
152.746	16.299	2140.176	2125.866
153.760	17.210	2143.025	2139.983
154.775	20.080	2149.917	2183.013
155.789	20.989	2148.652	2192.954
156.804	18.111	2137.355	2144.929
157.819	16.443	2129.764	2116.073
158.833	16.265	2126.256	2110.095
159.848	16.207	2125.633	2108.496
160.862	16.411	2123.891	2109.082
161.877	16.624	2122.419	2110.034
162.892	16.620	2121.894	2109.208
163.906	16.653	2121.224	2108.711
164.921	16.680	2119.534	2107.112
165.935	16.648	2116.392	2103.337
166.950	16.742	2114.795	2102.665
167.964	16.737	2113.508	2101.078
168.979	16.366	2111.845	2094.546
169.994	16.441	2110.092	2093.492
171.008	16.410	2107.917	2090.703
172.023	16.325	2106.284	2087.774
173.037	16.523	2106.120	2089.814
174.052	16.679	2104.381	2089.777
175.067	16.699	2102.026	2087.434
176.081	16.600	2100.040	2083.995
177.096	16.560	2100.048	2083.254
178.110	16.655	2098.013	2082.159
179.125	16.801	2096.619	2082.327
180.140	16.749	2095.919	2080.747
181.154	16.847	2094.013	2079.814
182.169	16.940	2094.248	2080.949
183.183	17.825	2096.378	2093.735
184.198	20.606	2104.079	2135.551
185.213	21.247	2100.866	2139.926
186.227	18.282	2090.205	2092.432
187.242	17.101	2085.843	2073.326
188.256	16.857	2084.710	2068.961
189.271	16.703	2082.992	2065.121
190.286	16.733	2080.728	2062.999
191.300	16.651	2079.385	2060.409
192.315	16.747	2077.795	2059.766
193.329	16.896	2076.939	2060.491
194.344	17.108	2075.384	2061.283
195.359	17.221	2073.496	2060.543
196.373	16.918	2071.920	2055.045
197.388	16.634	2069.012	2048.459
198.402	16.436	2066.753	2043.568
199.417	16.514	2065.009	2042.542
200.432	16.721	2063.309	2043.131
201.446	16.686	2061.054	2040.226
202.461	16.545	2059.973	2037.212
203.475	16.447	2058.426	2034.247
204.490	16.468	2056.382	2032.243
205.504	16.394	2054.007	2028.751
206.519	16.448	2052.686	2027.865
207.534	16.389	2050.787	2025.027
208.548	16.355	2050.289	2023.885
209.563	16.466	2048.676	2023.386
210.577	16.626	2046.575	2022.992
211.592	16.699	2046.068	2023.126
212.607	17.858	2052.678	2043.370
213.621	21.295	2059.899	2091.755
214.636	20.678	2053.365	2077.468
215.650	17.648	2043.657	2031.145
216.665	16.725	2040.351	2016.580
217.680	16.712	2037.615	2013.472
218.694	16.601	2035.763	2010.082
219.709	16.528	2034.830	2008.047
220.723	16.566	2033.490	2006.931
221.738	16.804	2031.615	2007.681
222.753	16.845	2029.941	2006.269
223.767	16.864	2028.293	2004.628
224.782	16.797	2026.436	2001.757
225.796	16.745	2025.772	2000.251
226.811	16.633	2025.033	1997.947
227.826	16.759	2022.862	1997.062
228.840	16.676	2020.865	1993.869
229.855	16.782	2019.164	1993.206
230.869	16.803	2017.985	1992.047
231.884	16.794	2016.016	1989.766
232.899	16.803	2015.284	1988.908
233.913	16.958	2013.444	1988.684
234.928	16.820	2012.403	1985.790
235.942	16.740	2010.568	1982.799
236.957	16.782	2008.910	1981.419
237.972	16.816	2008.071	1980.760
238.986	16.632	2007.639	1977.924
240.001	16.622	2005.728	1975.693
241.015	16.810	2004.977	1976.923
242.030	17.680	2007.082	1988.975
243.045	20.268	2012.747	2024.744
244.059	20.661	2008.871	2025.202
245.074	17.968	1999.519	1984.123
246.088	17.091	1996.021	1970.188
247.103	17.267	1994.448	1970.454
248.117	17.213	1992.321	1967.487
249.132	16.861	1991.512	1962.360
250.147	16.879	1988.454	1959.320
251.161	16.810	1987.989	1957.829
252.176	17.022	1986.981	1959.056
253.190	17.239	1985.655	1960.032
254.205	17.274	1983.630	1958.204
255.220	17.325	1981.921	1956.873
256.234	17.099	1981.423	1953.534
257.249	16.977	1979.034	1949.540
258.263	16.864	1978.475	1947.448
259.278	16.903	1977.368	1946.568
260.293	16.718	1974.926	1941.799
261.307	16.603	1972.399	1937.760
262.322	16.508	1970.779	1934.850
263.336	16.534	1968.557	1932.729
264.351	16.462	1966.734	1929.886
265.366	16.393	1966.258	1928.397
266.380	16.288	1965.403	1926.126
267.395	16.337	1963.666	1924.752
268.409	16.409	1961.644	1923.362
269.424	16.406	1959.888	1921.375
270.439	16.411	1959.805	1921.120
271.453	17.556	1962.842	1936.968
272.468	20.563	1968.096	1976.334
273.482	20.623	1964.196	1972.863
274.497	17.691	1954.414	1929.488
275.512	16.519	1950.150	1911.744
276.526	16.409	1947.867	1908.021
277.541	16.480	1946.065	1906.831
278.555	16.210	1944.597	1902.111
279.570	16.301	1942.632	1900.991
280.585	16.280	1941.906	1899.815
281.599	16.374	1941.223	1899.977
282.614	16.675	1939.525	1901.491
283.628	16.891	1939.913	1904.085
284.643	16.959	1938.925	1903.650
285.657	17.208	1938.092	1905.410
286.672	17.334	1935.617	1904.173
287.687	17.295	1933.439	1901.367
288.701	17.093	1933.154	1898.580
289.716	17.063	1931.058	1895.962
290.730	17.166	1929.877	1895.736
291.745	17.277	1928.760	1895.648
292.760	17.397	1927.572	1895.597
293.774	17.084	1927.005	1891.309
294.789	16.992	1925.367	1888.452
295.803	16.877	1922.812	1884.434
296.818	16.826	1921.336	1882.193
297.833	16.896	1920.864	1882.280
298.847	16.933	1918.982	1880.627
299.862	16.819	1917.624	1877.801
300.876	17.760	1919.083	1889.484
301.891	20.696	1925.921	1928.758
302.906	20.787	1922.578	1926.192
303.920	18.020	1913.834	1886.526
304.935	17.152	1909.658	1872.571
305.949	16.903	1907.176	1867.163
306.964	16.811	1906.540	1865.294
307.979	16.853	1905.482	1864.499
308.993	17.128	1903.972	1865.833
310.008	17.407	1902.767	1867.515
311.022	17.317	1901.692	1865.244
312.037	17.159	1899.444	1861.071
313.052	17.178	1897.251	1858.905
314.066	17.159	1896.523	1857.760
315.081	17.086	1896.061	1856.285
316.095	17.100	1894.277	1854.472
317.110	16.949	1891.914	1850.277
318.125	16.717	1890.597	1846.233
319.139	16.700	1889.238	1844.492
320.154	16.884	1887.727	1844.815
321.168	16.795	1885.874	1841.804
322.183	16.570	1884.742	1838.029
323.197	16.397	1882.141	1833.383
324.212	16.271	1880.536	1830.230
325.227	16.177	1878.687	1827.187
326.241	16.114	1877.620	1825.243
327.256	16.251	1876.324	1825.247
328.270	16.290	1874.733	1823.914
329.285	16.411	1874.851	1825.117
330.300	17.454	1879.803	1841.072
331.314	20.812	1885.647	1883.137
332.329	20.675	1880.064	1875.847
333.343	17.539	1870.664	1832.383
334.358	16.366	1867.206	1816.105
335.373	16.184	1865.422	1812.186
336.387	15.963	1863.816	1808.019
337.402	15.935	1862.503	1806.229
338.416	16.207	1860.411	1806.912
339.431	16.349	1859.482	1807.325
340.446	16.454	1857.601	1806.408
341.460	16.527	1857.046	1806.436
342.475	16.894	1855.621	1808.774
343.489	17.131	1854.004	1809.512
344.504	16.982	1854.093	1807.787
345.519	17.097	1852.106	1806.864
346.533	17.213	1851.278	1807.080
347.548	17.246	1850.437	1806.398
348.562	17.086	1848.796	1802.876
349.577	17.032	1848.527	1801.815
350.592	17.244	1847.526	1802.887
351.606	17.552	1845.569	1804.042
352.621	17.476	1843.220	1800.717
353.635	17.103	1842.337	1795.682
354.650	17.127	1840.361	1793.788
355.665	16.955	1838.103	1789.551
356.679	16.843	1837.374	1787.441
357.694	16.813	1836.041	1785.617
358.708	16.718	1834.771	1783.157
359.723	18.139	1838.718	1801.838
360.738	20.997	1843.828	1836.940
361.752	20.314	1838.106	1823.809
362.767	17.589	1830.887	1787.725
363.781	16.830	1827.280	1775.992
364.796	16.609	1825.879	1772.097
365.810	16.592	1823.621	1769.517
366.825	16.651	1823.321	1769.632
367.840	17.019	1822.795	1772.767
368.854	16.843	1822.427	1770.359
369.869	16.790	1819.179	1766.432
370.883	16.677	1818.089	1763.977
371.898	16.611	1816.210	1761.257
372.913	16.543	1815.339	1759.488
373.927	16.647	1814.104	1759.167
374.942	16.844	1813.865	1760.777
375.956	16.913	1812.004	1759.484
376.971	16.866	1808.946	1755.819
377.986	16.804	1807.212	1753.280
379.000	16.653	1806.557	1750.864
380.015	16.781	1804.254	1749.753
381.029	16.458	1802.802	1744.785
382.044	16.283	1801.242	1741.245
383.059	16.257	1799.869	1739.442
384.073	16.407	1798.672	1739.630
385.088	16.457	1797.762	1739.064
386.102	16.445	1795.596	1736.629
387.117	16.376	1793.892	1734.060
388.132	16.385	1793.844	1733.906
389.146	17.542	1797.972	1749.637
390.161	20.843	1803.524	1788.964
391.175	20.512	1796.720	1778.598
392.190	17.398	1788.072	1737.898
393.205	16.518	1785.324	1725.994
394.219	16.526	1783.075	1723.701
395.234	16.382	1782.595	1721.559
396.248	16.480	1780.458	1720.291
397.263	16.327	1777.604	1715.762
398.278	16.465	1775.918	1715.332
399.292	16.367	1775.105	1713.351
400.307	16.453	1774.843	1713.764
401.321	16.540	1773.726	1713.366
402.336	16.620	1773.210	1713.478
403.350	16.765	1770.923	1712.535
404.365	16.855	1770.148	1712.501
405.380	17.145	1769.595	1714.697
406.394	17.096	1769.161	1713.574
407.409	16.969	1767.542	1710.518
408.423	17.104	1765.898	1710.091
409.438	17.175	1764.194	1708.955
410.453	17.071	1763.316	1706.843
411.467	17.108	1761.923	1705.670
412.482	17.069	1760.475	1703.669
413.496	16.752	1759.249	1699.083
414.511	16.784	1756.814	1696.850
415.526	16.669	1755.078	1693.806
416.540	16.615	1753.935	1691.958
417.555	16.783	1752.649	1692.203
418.569	17.039	1752.127	1694.066
419.584	17.082	1752.672	1694.826
420.599	16.994	1752.796	1693.855
421.613	16.802	1751.124	1690.112
422.628	16.819	1749.303	1688.329
423.642	16.663	1747.265	1684.590
424.657	16.681	1745.456	1682.833
425.672	16.875	1744.183	1683.334
426.686	16.746	1742.878	1680.591
427.701	16.748	1741.856	1679.425
428.715	16.785	1740.779	1678.553
429.730	17.103	1739.362	1680.150
430.745	17.045	1737.770	1677.831
431.759	16.902	1738.486	1676.897
432.774	17.324	1738.500	1680.904
433.788	17.773	1738.076	1684.751
434.803	18.141	1737.680	1687.820
435.818	17.999	1737.795	1686.320
436.832	17.983	1736.558	1684.764
437.847	17.000	1729.657	1668.155
438.861	9.437	1708.973	1573.906
439.876	1.756	1695.199	1485.913
440.890	0.337	1691.789	1468.857
441.905	0.235	1690.978	1466.975
442.920	0.203	1689.409	1465.124
443.934	0.217	1687.283	1463.241
444.949	0.224	1685.905	1461.947
445.963	0.088	1685.645	1460.214
446.978	0.020	1685.557	1459.305
447.993	0.115	1683.653	1458.401
449.007	0.093	1681.381	1456.053
450.022	0.178	1679.155	1454.772
451.036	0.153	1678.425	1453.726
452.051	1.109	1682.270	1466.178
453.066	8.611	1698.693	1553.760
454.080	16.213	1710.742	1639.076
455.095	17.807	1713.931	1657.513
456.109	18.332	1714.018	1662.524
457.124	18.551	1713.008	1663.480
458.139	18.704	1712.188	1663.969
459.153	18.707	1711.764	1663.390
460.168	18.892	1709.250	1662.550
461.182	18.700	1707.353	1658.637
462.197	18.732	1705.958	1657.393
463.212	18.601	1704.272	1654.294
464.226	18.504	1703.542	1652.440
465.241	18.806	1702.350	1654.009
466.255	18.871	1701.699	1653.809
467.270	18.944	1699.538	1652.217
468.285	18.661	1698.234	1648.019
469.299	18.572	1697.226	1645.989
470.314	18.718	1695.061	1645.092
471.328	18.727	1693.872	1643.831
472.343	18.611	1693.761	1642.414
473.358	18.803	1692.387	1642.724
474.372	18.858	1691.016	1641.730
475.387	18.661	1689.395	1638.070
476.401	18.698	1687.240	1636.142
477.416	18.678	1686.184	1634.732
478.430	18.772	1685.233	1634.507
479.445	18.461	1684.723	1630.845
480.460	18.495	1682.531	1628.851
481.474	18.650	1681.657	1629.288
482.489	18.800	1681.380	1630.261
483.503	18.949	1679.812	1629.967
484.518	18.866	1678.640	1627.835
485.533	19.005	1676.683	1627.069
486.547	18.884	1675.896	1624.962
487.562	19.043	1674.617	1625.030
488.576	19.098	1672.843	1623.644
489.591	18.957	1671.796	1621.092
490.606	18.811	1670.115	1617.890
491.620	18.958	1668.490	1617.508
492.635	19.134	1667.889	1618.397
493.649	19.328	1666.400	1618.586
494.664	18.969	1664.965	1613.614
495.679	18.523	1662.919	1607.236
496.693	18.582	1661.819	1606.541
497.708	18.906	1660.684	1608.299
498.722	19.109	1660.263	1609.609
499.737	19.041	1659.495	1608.027
500.752	18.922	1657.595	1604.880
501.766	18.814	1655.889	1602.021
502.781	18.799	1654.464	1600.312
503.795	18.850	1652.557	1598.754
504.810	18.997	1651.391	1598.806
505.825	19.039	1651.528	1599.144
506.839	19.219	1649.706	1598.868
507.854	19.097	1648.782	1596.643
508.868	18.917	1647.679	1593.701
509.883	19.009	1647.284	1593.988
510.898	19.277	1645.187	1594.261
511.912	19.046	1643.401	1590.197
512.927	18.855	1641.415	1586.313
513.941	18.894	1640.175	1585.279
514.956	18.820	1638.888	1583.161
515.971	18.791	1637.108	1580.990
516.985	18.926	1635.896	1580.872
518.000	18.916	1636.848	1581.508
519.014	19.186	1635.200	1582.224
520.029	19.378	1633.586	1582.245
521.043	19.285	1632.525	1580.169
522.058	19.052	1631.561	1576.904
523.073	19.282	1630.543	1577.844
524.087	19.503	1629.726	1578.903
525.102	19.386	1628.147	1576.105
526.116	19.063	1627.214	1572.052
527.131	19.002	1626.732	1570.838
528.146	19.461	1624.386	1572.590
529.160	19.467	1623.278	1571.382
530.175	19.562	1622.529	1571.340
531.189	19.361	1621.944	1568.740
532.204	19.374	1620.578	1567.352
533.219	19.185	1618.493	1563.428
534.233	19.017	1618.151	1561.372
535.248	19.117	1617.851	1561.811
536.262	19.556	1616.123	1563.955
537.277	19.471	1615.424	1562.317
538.292	19.136	1613.183	1556.916
539.306	19.231	1611.259	1555.732
540.321	19.186	1610.337	1554.248
541.335	19.189	1608.741	1552.549
542.350	19.338	1607.072	1552.103
543.365	19.458	1606.274	1552.229
544.379	19.482	1604.891	1550.931
545.394	19.459	1603.988	1549.659
546.408	19.221	1602.381	1545.776
547.423	18.872	1601.292	1541.397
548.438	18.914	1600.390	1540.723
549.452	19.245	1598.943	1542.118
550.467	19.292	1597.794	1541.252
551.481	19.353	1596.075	1539.960
552.496	19.492	1596.165	1541.107
553.511	19.632	1595.453	1541.487
554.525	19.476	1594.438	1538.927
555.540	19.663	1593.069	1539.096
556.554	19.705	1592.347	1538.586
557.569	19.661	1589.815	1535.563
558.583	19.465	1588.478	1532.340
559.598	19.448	1587.697	1531.258
560.613	19.445	1586.323	1529.718
561.627	19.420	1585.734	1528.746
562.642	19.598	1585.001	1529.439
563.656	19.839	1583.742	1530.183
564.671	19.791	1581.991	1527.888
565.686	19.789	1580.575	1526.318
566.700	19.524	1578.759	1522.029
567.715	19.481	1577.074	1519.844
568.729	19.242	1575.901	1516.418
569.744	19.027	1574.624	1513.103
570.759	19.147	1573.546	1512.947
571.773	19.321	1572.548	1513.342
572.788	19.485	1571.668	1513.767
573.802	19.629	1570.011	1513.256
574.817	19.763	1568.693	1512.982
575.832	19.816	1568.436	1513.021
576.846	19.940	1566.441	1511.998
577.861	19.692	1565.422	1508.663
578.875	19.706	1564.809	1508.007
579.890	19.859	1564.372	1508.754
580.905	19.941	1562.983	1507.947
581.919	19.831	1562.918	1506.739
582.934	20.106	1561.775	1507.870
583.948	19.998	1560.461	1505.475
584.963	19.942	1558.484	1502.894
585.978	19.749	1557.005	1499.607
586.992	19.804	1556.767	1499.678
588.007	19.972	1555.637	1499.872
589.021	19.502	1553.755	1493.787
590.036	19.250	1552.150	1489.877
591.051	19.463	1551.352	1490.782
592.065	19.801	1549.068	1491.343
593.080	19.958	1548.321	1491.801
594.094	19.932	1546.645	1489.787
595.109	19.603	1544.979	1485.160
596.123	19.406	1543.700	1482.049
597.138	19.693	1543.060	1483.733
598.153	19.801	1542.064	1483.529
599.167	19.731	1541.372	1482.084
600.182	19.932	1540.383	1482.692
601.196	19.971	1538.654	1481.178
602.211	19.976	1538.411	1480.818
603.226	20.027	1537.253	1479.963
604.240	20.137	1535.976	1479.493
605.255	20.150	1535.521	1478.993
606.269	20.097	1534.192	1477.082
607.284	20.142	1532.427	1475.589
608.299	20.128	1530.287	1473.232
609.313	19.990	1529.543	1471.166
610.328	19.986	1528.928	1470.364
611.342	19.995	1527.713	1469.092
612.357	20.105	1527.467	1469.620
613.372	20.079	1526.333	1468.130
614.386	20.182	1524.593	1467.153
615.401	20.025	1524.610	1465.664
616.415	20.204	1523.363	1465.807
617.430	20.297	1521.616	1464.742
618.445	20.483	1520.497	1465.062
619.459	20.111	1519.401	1460.683
620.474	19.768	1517.970	1456.228
621.488	19.567	1516.135	1452.593
622.503	19.444	1513.916	1449.259
623.518	19.775	1513.781	1451.747
624.532	20.155	1512.933	1453.967
625.547	20.069	1513.416	1453.529
626.561	20.233	1512.812	1454.160
627.576	20.448	1511.490	1454.520
628.591	20.096	1508.428	1448.446
629.605	19.713	1507.130	1443.808
630.620	19.517	1506.200	1441.105
631.634	19.469	1504.730	1439.119
632.649	19.514	1504.065	1438.689
633.663	19.734	1503.286	1439.613
634.678	20.104	1503.100	1442.363
635.693	20.212	1501.840	1441.885
636.707	20.336	1501.074	1442.004
637.722	20.503	1500.071	1442.262
638.736	20.588	1498.483	1441.277
639.751	20.520	1497.214	1439.317
640.766	20.428	1495.788	1437.008
641.780	20.505	1494.530	1436.269
642.795	20.366	1493.797	1434.232
643.809	20.426	1493.169	1433.958
644.824	20.474	1492.280	1433.329
645.839	20.380	1490.859	1431.015
646.853	20.412	1490.251	1430.524
647.868	20.458	1487.826	1428.407
648.882	20.262	1487.007	1425.835
649.897	20.402	1484.874	1424.768
650.912	20.394	1484.274	1423.960
651.926	20.277	1482.850	1421.462
652.941	20.120	1481.284	1418.494
653.955	19.708	1479.646	1413.373
654.970	19.476	1477.839	1409.572
655.985	19.633	1476.517	1409.430
656.999	19.757	1475.720	1409.518
658.014	20.029	1473.767	1409.710
659.028	20.202	1473.159	1410.372
660.043	20.173	1473.380	1410.179
661.058	20.344	1472.159	1410.238
662.072	20.287	1471.950	1409.399
663.087	20.259	1470.701	1407.812
664.101	20.352	1469.110	1406.873
665.116	20.426	1468.254	1406.489
666.131	20.435	1467.961	1406.110
667.145	20.584	1466.024	1405.299
668.160	20.655	1464.870	1404.602
669.174	20.895	1463.191	1404.773
670.189	20.678	1462.774	1402.442
671.204	20.490	1462.569	1400.554
672.218	20.494	1461.318	1399.221
673.233	20.765	1459.807	1399.795
674.247	20.750	1458.910	1398.652
675.262	20.737	1458.413	1397.897
676.276	20.682	1457.406	1396.326
677.291	20.764	1455.798	1395.274
678.306	20.491	1454.287	1391.462
679.320	20.460	1453.177	1389.985
680.335	20.701	1453.317	1391.896
681.349	20.764	1452.265	1391.228
682.364	20.857	1450.688	1390.292
683.379	20.699	1449.627	1387.846
684.393	20.611	1448.251	1385.657
685.408	20.596	1446.973	1384.147
686.422	20.730	1445.909	1384.036
687.437	20.770	1446.091	1384.361
688.452	20.819	1444.917	1383.467
689.466	20.780	1442.969	1381.123
690.481	20.558	1441.290	1377.584
691.495	20.336	1440.433	1374.833
692.510	19.998	1438.344	1369.988
693.525	19.588	1436.453	1364.763
694.539	19.794	1436.693	1366.463
695.554	20.433	1436.653	1371.338
696.568	20.761	1436.187	1373.328
697.583	20.955	1434.789	1373.366
698.598	20.896	1434.616	1372.567
699.612	20.895	1433.100	1370.946
700.627	20.884	1431.574	1369.233
701.641	20.870	1430.285	1367.725
702.656	20.854	1429.498	1366.681
703.671	20.862	1430.123	1367.182
704.685	21.092	1428.721	1367.491
705.700	20.999	1426.533	1364.498
706.714	20.798	1425.306	1361.587
707.729	20.641	1423.856	1358.800
708.744	20.665	1421.941	1357.000
709.758	20.623	1420.624	1355.255
710.773	20.418	1419.191	1352.118
711.787	20.220	1418.007	1349.278
712.802	20.275	1417.374	1348.947
713.816	20.466	1416.966	1349.887
714.831	20.675	1416.268	1350.697
715.846	20.976	1414.724	1351.406
716.860	21.034	1413.599	1350.619
717.875	20.950	1412.937	1349.172
718.889	20.782	1412.246	1347.046
719.904	20.923	1411.001	1346.795
720.919	20.849	1410.238	1345.329
721.933	20.972	1409.248	1345.179
722.948	21.118	1408.439	1345.370
723.962	21.009	1407.391	1343.369
724.977	21.250	1406.302	1344.032
725.992	21.124	1404.891	1341.548
727.006	21.063	1403.691	1339.771
728.021	21.288	1402.230	1339.953
729.035	21.374	1400.929	1339.211
730.050	21.322	1399.727	1337.501
731.065	21.149	1399.477	1335.769
732.079	21.087	1398.585	1334.282
733.094	21.023	1397.546	1332.639
734.108	21.000	1395.787	1330.626
735.123	21.102	1393.976	1329.520
736.138	21.201	1392.762	1328.963
737.152	21.169	1392.183	1328.004
738.167	21.201	1391.846	1327.773
739.181	21.329	1390.493	1327.300
740.196	21.265	1390.091	1326.264
741.211	21.155	1389.320	1324.535
742.225	21.166	1388.135	1323.329
743.240	21.212	1386.768	1322.221
744.254	21.058	1385.590	1319.765
745.269	21.140	1384.951	1319.624
746.284	21.185	1383.322	1318.251
747.298	20.973	1382.074	1315.299
748.313	20.576	1380.825	1310.948
749.327	20.315	1379.609	1307.654
750.342	19.997	1377.563	1303.159
751.356	19.846	1376.568	1300.918
752.371	20.011	1375.482	1300.984
753.386	20.507	1376.214	1305.266
754.400	20.956	1376.520	1308.784
755.415	21.216	1375.230	1309.366
756.429	21.348	1373.207	1308.276
757.444	21.227	1372.071	1306.128
758.459	21.322	1371.425	1306.067
759.473	21.264	1371.065	1305.131
760.488	21.490	1368.953	1304.662
761.502	21.393	1368.027	1302.896
762.517	21.269	1367.246	1301.065
763.532	21.098	1365.624	1298.088
764.546	20.811	1363.516	1293.787
765.561	20.563	1362.911	1291.210
766.575	20.270	1361.169	1287.216
767.590	20.140	1360.211	1285.190
768.605	20.526	1359.323	1287.070
769.619	20.812	1358.714	1288.469
770.634	20.821	1358.024	1287.724
771.648	21.064	1357.841	1289.206
772.663	21.282	1356.742	1289.621
773.678	21.391	1356.076	1289.641
774.692	21.445	1355.253	1289.106
775.707	21.339	1354.670	1287.615
776.721	21.586	1353.523	1288.199
777.736	21.428	1352.275	1285.686
778.751	21.338	1351.709	1284.328
779.765	21.333	1350.475	1282.970
780.780	21.264	1349.554	1281.433
781.794	21.291	1348.315	1280.298
782.809	21.243	1347.466	1278.984
783.824	21.098	1346.401	1276.756
784.838	20.823	1344.019	1272.327
785.853	20.241	1343.183	1267.110
786.867	20.341	1342.904	1267.426
787.882	20.703	1342.548	1269.593
788.897	20.850	1341.904	1269.915
789.911	21.191	1340.428	1270.860
790.926	21.151	1339.719	1269.740
791.940	21.261	1337.996	1268.762
792.955	21.360	1336.430	1267.845
793.969	21.340	1336.561	1267.675
794.984	21.266	1335.640	1266.105
795.999	21.448	1334.325	1266.035
797.013	21.681	1332.270	1265.622
798.028	21.511	1331.462	1263.474
799.042	21.478	1331.076	1262.717
800.057	21.537	1330.616	1262.552
801.072	21.619	1328.544	1261.033
802.086	21.598	1327.136	1259.393
803.101	21.504	1326.722	1258.173
804.115	21.537	1325.727	1257.315
805.130	21.472	1324.736	1255.752
806.145	21.559	1323.634	1255.187
807.159	21.648	1321.084	1253.255
808.174	21.596	1319.936	1251.646
809.188	21.376	1319.501	1249.505
810.203	21.117	1317.980	1246.055
811.218	20.904	1315.818	1242.335
812.232	20.716	1313.851	1238.983
813.247	20.432	1313.249	1236.235
814.261	20.873	1313.371	1239.361
815.276	21.050	1313.280	1240.390
816.291	21.294	1312.427	1241.177
817.305	21.435	1311.594	1241.250
818.320	21.690	1309.591	1241.016
819.334	21.533	1308.962	1239.153
820.349	21.636	1307.432	1238.294
821.364	21.588	1305.850	1236.301
822.378	21.694	1304.733	1235.850
823.393	21.607	1303.736	1234.145
824.407	21.607	1302.167	1232.511
825.422	21.538	1302.157	1231.866
826.437	21.449	1301.252	1230.228
827.451	21.123	1298.826	1225.488
828.466	20.902	1295.612	1220.752
829.480	20.634	1294.540	1217.711
830.495	20.721	1293.711	1217.398
831.509	20.959	1293.803	1219.012
832.524	21.361	1292.779	1220.723
833.539	21.631	1291.194	1220.972
834.553	21.588	1290.458	1219.828
835.568	21.617	1289.414	1218.904
836.582	21.502	1289.094	1217.647
837.597	21.764	1287.409	1217.739
838.612	21.644	1285.122	1214.599
839.626	21.655	1284.288	1213.736
840.641	21.263	1283.775	1210.376
841.655	21.112	1282.537	1208.018
842.670	20.665	1280.021	1202.397
843.685	20.489	1279.387	1200.438
844.699	20.852	1279.187	1202.625
845.714	21.213	1278.044	1203.908
846.728	21.266	1277.953	1204.046
847.743	21.443	1277.304	1204.516
848.758	21.604	1275.869	1204.133
849.772	21.668	1274.582	1203.211
850.787	21.702	1273.599	1202.377
851.801	21.653	1272.471	1200.833
852.816	21.567	1270.800	1198.518
853.831	21.722	1268.618	1197.383
854.845	21.491	1267.243	1194.357
855.860	21.344	1265.431	1191.496
856.874	21.265	1264.470	1189.908
857.889	21.051	1263.412	1187.309
858.904	20.665	1261.495	1182.722
859.918	20.421	1259.689	1179.224
860.933	20.262	1258.809	1177.179
861.947	20.530	1258.872	1178.921
862.962	20.784	1257.953	1179.652
863.977	20.883	1256.608	1178.922
864.991	21.161	1256.113	1180.204
866.006	21.341	1255.455	1180.665
867.020	21.612	1253.846	1180.848
868.035	21.730	1252.892	1180.613
869.049	21.701	1252.139	1179.561
870.064	21.770	1251.472	1179.260
871.079	21.597	1250.964	1177.472
872.093	21.505	1250.351	1176.135
873.108	21.647	1249.161	1175.832
874.122	21.458	1247.268	1172.635
875.137	21.087	1246.609	1169.377
876.152	21.039	1245.383	1167.760
877.166	21.338	1243.852	1168.195
878.181	21.392	1242.830	1167.460
879.195	21.566	1242.878	1168.530
880.210	21.677	1242.391	1168.675
881.225	21.832	1240.699	1167.986
882.239	21.831	1239.533	1166.743
883.254	21.744	1239.347	1165.843
884.268	21.712	1238.565	1164.754
885.283	21.922	1236.802	1164.361
886.298	21.819	1235.125	1161.956
887.312	21.832	1234.976	1161.764
888.327	21.720	1233.697	1159.675
889.341	21.621	1232.540	1157.792
890.356	21.588	1232.047	1156.969
891.371	21.547	1231.563	1156.101
892.385	21.370	1230.976	1154.239
893.400	21.337	1229.565	1152.563
894.414	21.436	1227.239	1150.894
895.429	21.166	1225.130	1147.001
896.444	20.515	1222.985	1140.563
897.458	20.213	1221.731	1137.265
898.473	20.420	1222.524	1139.231
899.487	20.992	1222.383	1142.731
900.502	21.303	1221.394	1143.717
901.517	21.547	1219.649	1143.551
902.531	21.626	1218.963	1143.291
903.546	21.669	1218.789	1143.266
904.560	21.761	1218.115	1143.103
905.575	21.648	1217.427	1141.580
906.589	21.833	1216.440	1141.732
907.604	21.664	1215.874	1139.957
