DTS Sentinel unit serial number:	SN409020Multiplexer serial number:	ORYXHardware model number:	OX4-SRSoftware version number:	ORYX F/W v3.00 Oryx Data Collector v3.7.2.0data status	okinstallation	HaddamTimeLapsedifferential loss correction	single-endedforward channel	channel 3reverse channel	N/Adate	2011/06/22time	00:51:17forward acquisition time	30.00reverse acquisition time	0.00gamma	498.7831k internal	0.1751k external	0.1751temperature offset calibration	1.0074default loss term (dB/km)	0.3790temperature slope calibration	1.3530multiplexer offset coefficient	1.0000multiplexer slope coefficient	1.0000fibre end	0.00T internal ref (°C)	22.56T ext. ref 1 (°C)	17.95T ext. ref 2 (°C)	0.06length (m)	temperature (°C)	Stokes	anti-Stokes-747.200	-7.959	0.163	-0.146
-746.185	397.865	-0.162	0.453
-745.171	-39.240	-0.513	0.357
-744.156	-200.000	-0.103	0.676
-743.142	233.389	-0.075	-0.166
-742.127	-72.555	-0.240	0.117
-741.112	-59.032	-0.153	-0.087
-740.098	-154.350	0.623	0.055
-739.083	28.726	-0.342	-0.385
-738.069	-200.000	0.016	0.123
-737.054	-200.000	-0.030	0.796
-736.039	-191.817	-0.511	0.007
-735.025	-85.864	-0.226	0.092
-734.010	65.883	-0.114	0.154
-732.996	-23.172	0.243	0.194
-731.981	-106.441	-0.316	-0.093
-730.966	-153.311	0.153	0.014
-729.952	-40.948	0.645	0.442
-728.937	11.359	0.197	0.200
-727.923	-59.138	0.118	0.067
-726.908	-79.944	-0.392	-0.174
-725.894	115.228	0.083	-0.134
-724.879	49.059	-0.249	-0.311
-723.864	800.000	-0.111	0.428
-722.850	47.064	-0.081	-0.100
-721.835	-198.967	-0.058	-0.000
-720.821	-108.737	0.289	0.082
-719.806	-77.652	0.626	0.286
-718.791	320.151	-0.205	-0.519
-717.777	-49.001	0.481	0.305
-716.762	-9.113	0.321	-0.284
-715.748	41.751	-0.295	0.355
-714.733	-118.431	0.554	-0.129
-713.718	152.478	0.163	0.295
-712.704	136.519	0.110	-0.190
-711.689	-111.050	-0.136	-0.037
-710.675	280.648	0.043	-0.103
-709.660	-21.146	-0.167	-0.135
-708.645	379.029	-0.173	-0.473
-707.631	-149.981	-0.525	-0.054
-706.616	-63.729	0.165	0.090
-705.602	28.704	0.113	-0.127
-704.587	123.930	0.217	-0.361
-703.572	49.957	0.294	0.368
-702.558	-200.000	0.019	0.185
-701.543	-200.000	0.010	0.192
-700.529	164.004	0.156	-0.293
-699.514	-94.105	0.494	-0.178
-698.499	-5.604	0.089	0.081
-697.485	-77.147	0.339	-0.156
-696.470	-4.208	-0.380	-0.348
-695.456	-113.730	-0.140	0.036
-694.441	-153.249	-0.456	0.042
-693.426	202.435	-0.073	-0.151
-692.412	559.944	0.087	-0.281
-691.397	38.505	0.198	-0.234
-690.383	-200.000	-0.055	-0.350
-689.368	222.945	-0.181	-0.388
-688.354	15.474	0.243	-0.252
-687.339	-48.386	-0.226	-0.144
-686.324	57.959	-0.043	0.056
-685.310	163.048	0.056	0.105
-684.295	-51.025	-0.241	0.149
-683.281	-26.845	0.094	0.073
-682.266	303.066	-0.034	-0.083
-681.251	-141.483	0.560	-0.074
-680.237	-200.000	0.013	-0.388
-679.222	-148.318	0.244	0.026
-678.208	-200.000	0.197	-0.001
-677.193	-140.727	0.093	0.013
-676.178	13.046	0.063	0.064
-675.164	800.000	-0.161	-0.599
-674.149	-109.034	-0.532	-0.149
-673.135	-10.044	0.455	-0.400
-672.120	-53.462	0.149	0.090
-671.105	-42.151	0.302	0.204
-670.091	-200.000	0.044	0.473
-669.076	1.905	0.223	0.213
-668.062	374.832	0.055	0.149
-667.047	256.746	-0.046	0.104
-666.032	-24.002	0.359	0.284
-665.018	252.285	-0.083	0.188
-664.003	290.073	-0.107	0.259
-662.989	-92.985	-0.396	-0.146
-661.974	73.100	-0.217	-0.301
-660.959	-129.783	-0.294	0.053
-659.945	-48.851	-0.346	-0.219
-658.930	342.904	0.173	-0.450
-657.916	-200.000	-0.009	-0.578
-656.901	382.667	-0.207	-0.567
-655.886	45.393	0.201	0.245
-654.872	-82.343	-0.200	-0.086
-653.857	-70.682	-0.300	-0.149
-652.843	184.543	0.012	-0.024
-651.828	-200.000	-0.022	0.312
-650.814	-200.000	0.011	0.407
-649.799	-0.686	-0.212	0.198
-648.784	99.353	0.320	-0.490
-647.770	365.961	-0.014	0.039
-646.755	181.846	-0.291	-0.568
-645.741	-5.424	-0.122	0.110
-644.726	-200.000	0.028	-0.177
-643.711	-5.400	-0.254	-0.230
-642.697	67.008	0.276	0.372
-641.682	31.687	0.339	0.385
-640.668	-17.558	0.250	0.208
-639.653	-68.855	-0.607	-0.309
-638.638	124.270	-0.288	-0.479
-637.624	37.743	0.172	-0.202
-636.609	187.821	0.159	0.315
-635.595	-116.827	0.253	0.061
-634.580	65.063	-0.245	0.327
-633.565	-92.424	0.482	-0.178
-632.551	-142.496	0.131	0.017
-631.536	-200.000	-0.009	-0.307
-630.522	-200.000	-0.039	-0.504
-629.507	-169.596	0.376	-0.018
-628.492	-200.000	0.001	0.026
-627.478	273.763	-0.086	0.201
-626.463	-200.000	0.009	-0.269
-625.449	-62.253	-0.121	-0.066
-624.434	-160.914	-0.772	-0.053
-623.419	-28.939	-0.328	0.249
-622.405	-30.306	0.317	-0.237
-621.390	-161.378	-0.235	-0.016
-620.376	400.534	-0.115	-0.321
-619.361	-112.279	0.282	-0.074
-618.346	291.731	-0.072	0.175
-617.332	-3.845	-0.541	-0.496
-616.317	106.374	0.181	-0.284
-615.303	278.512	-0.039	-0.093
-614.288	200.191	-0.144	0.293
-613.273	192.145	0.052	0.104
-612.259	134.505	-0.032	0.056
-611.244	-190.534	0.083	0.001
-610.230	-11.470	-0.119	0.104
-609.215	-90.061	-0.104	0.040
-608.201	623.066	-0.071	-0.236
-607.186	-96.106	0.649	0.226
-606.171	-32.873	-0.563	-0.413
-605.157	-141.698	0.327	0.043
-604.142	-137.111	-0.134	-0.020
-603.128	-159.360	0.194	-0.014
-602.113	87.861	-0.110	0.161
-601.098	59.972	-0.419	0.548
-600.084	126.908	-0.166	0.279
-599.069	378.427	-0.100	-0.271
-598.055	-36.580	-0.075	-0.053
-597.040	105.667	-0.127	-0.198
-596.025	55.431	0.087	-0.111
-595.011	63.924	0.152	-0.202
-593.996	134.783	-0.319	-0.549
-592.982	-40.724	-0.098	-0.067
-591.967	-200.000	0.003	-0.062
-590.952	-111.525	0.185	-0.049
-589.938	-116.067	0.344	0.084
-588.923	-177.854	-0.307	-0.010
-587.909	-31.908	-0.295	0.217
-586.894	485.037	-0.099	0.299
-585.879	-98.066	-0.360	0.121
-584.865	-65.334	-0.149	0.079
-583.850	800.000	0.067	-0.332
-582.836	-71.078	-0.275	-0.136
-581.821	-72.664	0.246	-0.119
-580.806	-118.604	-0.316	-0.073
-579.792	168.551	0.130	0.245
-578.777	-101.003	0.267	0.086
-577.763	-106.829	0.284	-0.082
-576.748	-165.390	0.260	0.015
-575.733	69.257	0.030	0.040
-574.719	-200.000	-0.060	-0.490
-573.704	-36.684	0.536	-0.379
-572.690	-200.000	0.029	-0.224
-571.675	158.385	-0.254	-0.466
-570.661	646.022	-0.080	-0.271
-569.646	158.779	0.337	0.619
-568.631	25.462	0.354	0.388
-567.617	9.002	0.117	-0.117
-566.602	-7.929	0.133	0.118
-565.588	-87.955	-0.302	0.119
-564.573	242.454	-0.120	-0.266
-563.558	-200.000	-0.060	0.370
-562.544	-21.368	-0.233	-0.187
-561.529	-200.000	-0.047	-0.418
-560.515	800.000	0.089	0.338
-559.500	-25.445	0.071	0.055
-558.485	-83.133	0.091	0.038
-557.471	-86.591	0.547	0.220
-556.456	286.683	0.048	0.114
-555.442	15.196	-0.320	-0.331
-554.427	92.504	0.207	0.308
-553.412	-175.006	0.266	0.010
-552.398	-200.000	-0.054	-0.535
-551.383	-200.000	-0.006	0.182
-550.369	-200.000	0.002	-0.034
-549.354	-200.000	-0.021	0.386
-548.339	-200.000	-0.056	0.504
-547.325	-200.000	-0.000	0.410
-546.310	660.568	-0.090	0.308
-545.296	-52.284	-0.444	0.270
-544.281	227.247	-0.122	0.261
-543.266	8.556	-0.259	0.257
-542.252	-96.246	0.336	0.117
-541.237	-107.886	0.058	-0.017
-540.223	-84.992	0.256	0.105
-539.208	-73.989	0.423	0.201
-538.193	-200.000	-0.009	-0.283
-537.179	800.000	0.060	-0.248
-536.164	148.690	0.324	-0.578
-535.150	302.235	-0.051	-0.126
-534.135	-200.000	-0.040	-0.284
-533.121	194.903	0.287	-0.575
-532.106	50.181	-0.463	-0.576
-531.091	-53.904	-0.237	0.142
-530.077	-80.983	-0.196	0.085
-529.062	-36.825	-0.109	0.077
-528.048	704.301	0.106	-0.370
-527.033	-63.110	-0.159	-0.086
-526.018	800.000	0.032	0.144
-525.004	-200.000	-0.001	0.062
-523.989	185.471	-0.229	0.448
-522.975	18.083	0.158	0.165
-521.960	-200.000	-0.045	-0.430
-520.945	-150.297	0.224	-0.022
-519.931	33.227	0.392	-0.447
-518.916	35.354	-0.127	0.147
-517.902	135.399	-0.215	0.368
-516.887	5.878	-0.210	0.204
-515.872	800.000	-0.041	-0.163
-514.858	-102.971	-0.567	-0.176
-513.843	-82.545	0.250	0.106
-512.829	-113.480	0.078	0.020
-511.814	344.826	-0.110	-0.286
-510.799	-200.000	0.033	0.288
-509.785	-200.000	0.012	-0.257
-508.770	800.000	0.037	-0.150
-507.756	261.876	0.103	-0.237
-506.741	56.028	-0.140	0.178
-505.726	-60.593	-0.097	-0.054
-504.712	280.582	-0.068	-0.161
-503.697	412.160	0.034	-0.097
-502.683	545.587	0.177	-0.559
-501.668	632.450	0.046	0.154
-500.653	-112.707	0.197	0.051
-499.639	710.634	-0.082	0.289
-498.624	-200.000	-0.040	0.356
-497.610	163.007	-0.099	0.183
-496.595	100.826	0.091	0.140
-495.581	-31.337	-0.572	-0.422
-494.566	-51.721	-0.474	0.289
-493.551	370.373	0.145	0.388
-492.537	-100.609	-0.216	0.070
-491.522	8.837	0.086	0.085
-490.508	-11.564	-0.091	-0.079
-489.493	-200.000	0.023	-0.246
-488.478	-200.000	-0.054	0.412
-487.464	103.577	-0.139	0.215
-486.449	800.000	-0.090	0.397
-485.435	-56.227	0.320	0.187
-484.420	187.223	0.159	0.313
-483.405	-27.400	0.229	0.175
-482.391	800.000	-0.038	-0.209
-481.376	-18.089	0.258	-0.212
-480.362	-67.155	0.270	-0.139
-479.347	62.676	-0.066	-0.087
-478.332	159.267	-0.328	-0.601
-477.318	356.378	-0.115	0.303
-476.303	800.000	0.153	0.610
-475.289	800.000	-0.070	-0.406
-474.274	31.408	0.154	0.174
-473.259	-128.915	-0.097	-0.018
-472.245	300.360	-0.196	-0.476
-471.230	-48.494	0.262	-0.166
-470.216	26.664	-0.496	-0.545
-469.201	180.797	-0.101	-0.196
-468.186	-77.111	0.393	0.179
-467.172	-105.270	-0.226	-0.067
-466.157	800.000	-0.090	0.400
-465.143	231.305	0.090	-0.195
-464.128	-200.000	-0.007	0.054
-463.113	-134.879	0.213	0.034
-462.099	325.456	0.182	0.459
-461.084	328.455	-0.219	0.555
-460.070	582.080	0.141	0.458
-459.055	-137.648	-0.386	0.057
-458.040	165.568	-0.052	0.097
-457.026	-200.000	-0.027	0.462
-456.011	-71.936	0.135	-0.066
-454.997	58.146	0.420	0.541
-453.982	83.410	0.385	0.552
-452.968	166.575	0.097	0.180
-451.953	-55.773	-0.232	0.135
-450.938	-29.277	0.282	-0.211
-449.924	-108.279	-0.359	0.101
-448.909	11.537	0.169	0.170
-447.895	-200.000	0.001	-0.013
-446.880	-200.000	0.075	0.537
-445.865	-200.000	-0.031	0.254
-444.851	-200.000	0.020	0.516
-443.836	-41.180	-0.359	-0.242
-442.822	-200.000	0.014	0.148
-441.807	-101.593	-0.254	0.081
-440.792	-58.677	0.153	-0.087
-439.778	128.977	-0.129	0.216
-438.763	-1.718	-0.244	-0.225
-437.749	-35.034	-0.220	-0.157
-436.734	-59.883	0.082	0.046
-435.719	-200.000	-0.041	-0.363
-434.705	-31.666	0.110	0.081
-433.690	133.043	-0.040	-0.068
-432.676	-3.672	0.097	0.089
-431.661	-110.269	-0.099	-0.027
-430.646	-64.144	-0.227	-0.121
-429.632	117.515	-0.258	-0.417
-428.617	-79.339	-0.398	-0.176
-427.603	-73.791	0.108	0.051
-426.588	-181.763	0.626	-0.015
-425.573	135.241	-0.184	0.314
-424.559	-151.212	-0.323	0.031
-423.544	-121.469	0.341	0.074
-422.530	-156.290	-0.095	0.008
-421.515	-141.291	-0.270	-0.036
-420.500	-51.891	0.147	-0.089
-419.486	800.000	0.073	0.364
-418.471	-64.243	-0.165	-0.088
-417.457	800.000	-0.031	-0.167
-416.442	62.160	-0.021	0.028
-415.428	-20.575	0.254	0.204
-414.413	-82.282	0.154	-0.065
-413.398	90.011	0.362	-0.531
-412.384	800.000	0.014	0.050
-411.369	399.151	-0.066	-0.182
-410.355	-62.066	0.122	-0.067
-409.340	-92.095	-0.342	0.126
-408.325	-65.891	-0.316	0.165
-407.311	-53.754	0.390	0.232
-406.296	-182.599	0.203	-0.005
-405.282	98.346	-0.135	0.204
-404.267	-102.714	0.516	-0.160
-403.252	-106.514	0.345	-0.100
-402.238	447.301	0.154	-0.446
-401.223	-22.893	-0.363	-0.287
-400.209	800.000	0.043	-0.213
-399.194	369.208	-0.120	-0.319
-398.179	-48.945	0.461	-0.289
-397.165	-4.140	0.273	-0.247
-396.150	-146.261	-0.441	0.050
-395.136	-94.426	0.124	-0.044
-394.121	130.415	-0.152	0.256
-393.106	-200.000	-0.022	0.414
-392.092	-200.000	0.019	-0.212
-391.077	-59.806	-0.300	0.167
-390.063	-141.049	-0.240	-0.032
-389.048	231.931	-0.012	0.026
-388.033	-63.777	-0.192	-0.103
-387.019	-5.689	-0.106	0.095
-386.004	28.339	0.209	0.231
-384.990	-185.701	0.738	-0.014
-383.975	-200.000	-0.008	0.484
-382.960	800.000	0.005	-0.029
-381.946	-3.028	0.119	-0.109
-380.931	501.938	0.209	0.636
-379.917	-84.122	0.206	-0.085
-378.902	55.938	-0.201	-0.255
-377.888	-200.000	-0.012	0.346
-376.873	332.599	0.032	-0.080
-375.858	-114.861	0.343	0.085
-374.844	15.459	0.249	-0.256
-373.829	185.289	0.198	-0.386
-372.815	28.164	-0.118	-0.131
-371.800	-43.241	0.256	0.169
-370.785	185.664	0.095	-0.184
-369.771	78.101	-0.222	-0.311
-368.756	-67.489	0.333	-0.170
-367.742	800.000	0.065	-0.254
-366.727	6.642	-0.160	0.156
-365.712	800.000	0.076	-0.338
-364.698	-84.341	-0.229	-0.094
-363.683	-89.904	-0.214	0.081
-362.669	-200.000	0.061	-0.428
-361.654	216.383	0.288	-0.600
-360.639	-200.000	0.009	-0.149
-359.625	44.323	0.121	-0.146
-358.610	-134.795	-0.397	-0.062
-357.596	127.854	-0.272	-0.453
-356.581	329.491	-0.150	0.378
-355.566	800.000	0.018	0.100
-354.552	-133.054	0.569	0.093
-353.537	-137.785	-0.353	0.051
-352.523	-140.314	0.471	-0.064
-351.508	-119.164	0.101	0.023
-350.493	-15.482	-0.094	-0.078
-349.479	-81.840	-0.242	-0.103
-348.464	428.338	0.073	0.207
-347.450	-200.000	0.023	0.182
-346.435	-112.875	-0.365	0.094
-345.420	-200.000	0.023	-0.181
-344.406	-138.896	0.443	0.062
-343.391	726.229	0.014	-0.049
-342.377	-24.570	-0.164	-0.127
-341.362	245.904	0.200	0.441
-340.348	-12.850	-0.322	0.274
-339.333	800.000	-0.091	-0.392
-338.318	343.890	0.060	0.155
-337.304	22.526	-0.539	0.576
-336.289	-200.000	0.067	-0.631
-335.275	38.798	0.233	-0.272
-334.260	10.499	-0.160	-0.160
-333.245	-158.800	0.577	-0.042
-332.231	-104.750	-0.379	-0.113
-331.216	-57.958	-0.213	-0.121
-330.202	-200.000	0.020	-0.145
-329.187	-139.037	-0.314	0.044
-328.172	-193.047	-0.469	-0.005
-327.158	-10.863	-0.342	-0.295
-326.143	534.265	0.122	0.378
-325.129	547.992	0.029	-0.093
-324.114	168.214	-0.098	0.183
-323.099	-36.302	-0.178	0.125
-322.085	-60.410	-0.470	0.260
-321.070	-200.000	0.030	-0.297
-320.056	175.754	-0.110	-0.209
-319.041	800.000	-0.038	-0.192
-318.026	-21.269	0.295	-0.235
-317.012	-124.139	-0.449	0.091
-315.997	102.358	-0.090	-0.137
-314.983	-25.331	-0.245	-0.189
-313.968	243.186	-0.181	-0.398
-312.953	-148.574	-0.665	0.070
-311.939	-132.481	-0.296	-0.049
-310.924	-22.646	0.079	-0.062
-309.910	-157.910	0.484	-0.037
-308.895	-21.465	0.217	-0.173
-307.880	-58.936	0.140	0.079
-306.866	-80.117	-0.289	0.126
-305.851	-90.560	0.190	0.071
-304.837	123.405	0.251	0.412
-303.822	-25.703	0.299	-0.230
-302.807	76.156	0.364	0.504
-301.793	-39.094	0.352	0.241
-300.778	5.569	0.039	-0.038
-299.764	-126.091	0.053	-0.010
-298.749	-200.000	-0.042	0.345
-297.735	-45.520	0.034	0.022
-296.720	-98.664	0.227	0.075
-295.705	32.318	0.207	0.233
-294.691	-72.840	0.308	-0.147
-293.676	14.741	0.254	-0.259
-292.662	166.504	-0.125	-0.233
-291.647	800.000	-0.081	-0.322
-290.632	800.000	-0.061	0.320
-289.618	21.945	0.193	0.205
-288.603	338.232	0.106	-0.271
-287.589	431.230	0.068	-0.194
-286.574	4.470	0.093	0.089
-285.559	172.799	0.208	-0.392
-284.545	105.165	-0.122	-0.188
-283.530	800.000	-0.093	-0.489
-282.516	-31.257	0.246	0.180
-281.501	-200.000	-0.290	-0.001
-280.486	210.384	0.083	-0.171
-279.472	21.927	0.072	0.076
-278.457	-74.370	-0.235	0.110
-277.443	32.231	-0.270	-0.303
-276.428	-200.000	0.006	0.216
-275.413	213.704	0.186	-0.384
-274.399	41.518	0.070	0.083
-273.384	455.922	-0.191	-0.556
-272.370	-125.069	-0.297	-0.059
-271.355	15.931	0.179	-0.184
-270.340	-77.013	-0.262	0.119
-269.326	-58.010	0.373	-0.212
-268.311	-1.962	0.124	0.114
-267.297	269.918	-0.230	0.529
-266.282	-80.395	-0.151	-0.065
-265.267	-102.481	-0.093	-0.029
-264.253	-98.720	-0.394	-0.130
-263.238	-2.178	-0.162	0.148
-262.224	-200.000	0.019	0.338
-261.209	-1.965	-0.071	0.065
-260.195	194.364	0.156	0.309
-259.180	-73.224	0.382	0.181
-258.165	-29.300	-0.394	0.293
-257.151	-76.995	-0.117	-0.053
-256.136	800.000	-0.033	-0.142
-255.122	516.984	0.080	-0.245
-254.107	-200.000	-0.219	0.001
-253.092	800.000	-0.046	-0.193
-252.078	-200.000	0.026	0.231
-251.063	-55.438	-0.440	-0.257
-250.049	394.456	0.091	0.249
-249.034	-200.000	-0.004	0.152
-248.019	800.000	-0.077	0.347
-247.005	-29.617	-0.247	-0.184
-245.990	-31.457	-0.210	-0.154
-244.976	800.000	0.027	0.121
-243.961	76.311	-0.143	-0.197
-242.946	258.324	-0.323	0.727
-241.932	239.896	-0.212	0.461
-240.917	70.306	0.095	-0.128
-239.903	43.468	0.220	0.262
-238.888	175.945	-0.366	0.694
-237.873	627.926	0.045	-0.150
-236.859	-200.000	-0.069	-0.777
-235.844	800.000	-0.034	0.166
-234.830	-139.110	0.404	0.056
-233.815	-200.000	0.015	0.251
-232.800	-35.475	0.358	0.253
-231.786	7.301	0.434	-0.422
-230.771	-96.673	0.367	0.125
-229.757	-108.076	-0.474	-0.133
-228.742	-165.520	-0.111	-0.006
-227.727	-118.154	0.509	0.117
-226.713	800.000	-0.101	-0.415
-225.698	-153.356	0.442	0.040
-224.684	-200.000	0.006	0.279
-223.669	-76.353	0.294	-0.134
-222.655	-30.904	0.136	0.100
-221.640	-103.758	-0.108	0.033
-220.625	-58.637	-0.339	0.190
-219.611	-200.000	0.017	0.136
-218.596	-154.422	-0.225	-0.019
-217.582	-170.069	-0.202	-0.009
-216.567	-200.000	-0.047	0.320
-215.552	-129.984	-0.381	-0.067
-214.538	630.237	0.177	0.585
-213.523	55.442	0.266	-0.336
-212.509	15.261	0.188	-0.191
-211.494	-96.896	0.640	-0.217
-210.479	-160.967	-0.265	0.018
-209.465	345.774	0.059	0.153
-208.450	-162.001	0.473	-0.031
-207.436	-149.592	-0.161	-0.016
-206.421	-186.201	0.493	-0.009
-205.406	-134.816	0.023	-0.004
-204.392	-88.157	0.341	0.132
-203.377	-24.390	-0.125	0.097
-202.363	-200.000	-0.019	0.298
-201.348	800.000	-0.025	0.121
-200.333	180.340	0.126	-0.240
-199.319	-167.789	-0.176	-0.009
-198.304	593.062	0.108	-0.350
-197.290	403.229	0.128	-0.351
-196.275	-38.167	0.191	-0.132
-195.260	-37.004	0.159	0.110
-194.246	800.000	-0.043	-0.193
-193.231	-200.000	0.008	0.066
-192.217	-200.000	-0.003	-0.288
-191.202	289.707	-0.037	-0.088
-190.187	-14.911	-0.390	0.325
-189.173	-158.292	-0.254	0.019
-188.158	-112.974	0.137	0.035
-187.144	74.510	-0.088	-0.120
-186.129	-14.187	-0.084	0.071
-185.114	-200.000	-0.015	-0.226
-184.100	-138.924	0.408	0.057
-183.085	255.510	0.106	0.236
-182.071	-172.125	0.362	0.015
-181.056	-25.897	0.401	-0.307
-180.042	7.605	0.066	-0.064
-179.027	-137.499	0.227	-0.033
-178.012	-53.071	0.602	0.358
-176.998	-94.484	-0.223	0.078
-175.983	-136.583	0.433	0.064
-174.969	630.699	-0.037	0.121
-173.954	58.129	-0.064	-0.082
-172.939	800.000	-0.085	0.436
-171.925	290.932	0.091	0.216
-170.910	27.030	-0.380	0.414
-169.896	-98.213	-0.205	0.068
-168.881	-117.507	0.277	0.065
-167.866	-126.166	-0.331	-0.064
-166.852	-12.120	-0.099	0.084
-165.837	-59.105	-0.177	-0.099
-164.823	2.837	-0.018	-0.017
-163.808	-148.018	0.216	-0.023
-162.793	800.000	-0.044	-0.191
-161.779	-35.712	-0.108	0.076
-160.764	-10.085	-0.230	-0.198
-159.750	-91.576	-0.211	0.077
-158.735	-99.355	-0.274	0.089
-157.720	-124.566	-0.150	-0.030
-156.706	800.000	0.147	0.654
-155.691	-17.429	-0.179	0.146
-154.677	-72.210	0.436	-0.209
-153.662	-200.000	0.021	0.475
-152.647	-200.000	-0.045	-0.315
-151.633	69.272	0.102	0.136
-150.618	668.456	0.092	-0.310
-149.604	62.974	0.185	0.241
-148.589	233.618	-0.243	-0.521
-147.574	-120.119	-0.249	-0.055
-146.560	-200.000	-0.061	-0.396
-145.545	-200.000	-0.042	-0.245
-144.531	-53.620	-0.357	-0.211
-143.516	-55.606	-0.023	0.013
-142.502	107.359	0.041	-0.064
-141.487	49.697	0.274	-0.335
-140.472	-200.000	0.002	-0.188
-139.458	800.000	0.070	0.296
-138.443	-54.059	0.482	-0.284
-137.429	112.106	0.149	0.233
-136.414	-134.503	-0.228	0.036
-135.399	84.535	0.045	0.064
-134.385	13.768	-0.384	-0.387
-133.370	536.556	-0.128	0.398
-132.356	-72.460	0.112	-0.053
-131.341	800.000	-0.162	-0.701
-130.326	800.000	0.087	0.339
-129.312	800.000	-0.017	0.066
-128.297	-155.972	-0.173	0.014
-127.283	10.240	0.259	0.255
-126.268	-145.316	-0.181	0.021
-125.253	8.219	-0.225	0.219
-124.239	-148.176	-0.037	-0.004
-123.224	800.000	-0.017	0.066
-122.210	800.000	-0.029	0.159
-121.195	-87.500	-0.115	0.045
-120.180	-74.587	-0.159	0.074
-119.166	-89.569	-0.136	-0.051
-118.151	-5.172	0.138	0.123
-117.137	27.238	-0.094	-0.102
-116.122	79.235	-0.231	-0.322
-115.107	-49.225	-0.141	0.087
-114.093	126.416	0.062	0.102
-113.078	-96.266	-0.282	0.096
-112.064	-26.498	-0.191	-0.145
-111.049	800.000	0.051	-0.259
-110.034	34.385	-0.248	-0.281
-109.020	-14.133	0.067	0.056
-108.005	154.050	0.146	-0.261
-106.991	104.491	0.240	0.367
-105.976	-48.627	0.284	-0.177
-104.962	800.000	0.042	0.158
-103.947	151.106	0.253	-0.447
-102.932	55.865	0.231	0.290
-101.918	-59.809	0.496	-0.274
-100.903	-200.000	-0.040	0.500
-99.889	-200.000	-0.161	-0.000
-98.874	-28.696	-0.177	-0.131
-97.859	-200.000	0.031	0.183
-96.845	-99.547	-0.304	-0.098
-95.830	800.000	0.087	-0.381
-94.816	21.443	0.158	0.167
-93.801	125.001	-0.164	-0.268
-92.786	97.963	-0.065	-0.098
-91.772	-153.101	-0.418	0.038
-90.757	382.671	-0.188	-0.503
-89.743	-200.000	0.028	-0.215
-88.728	226.512	-0.122	0.258
-87.713	21.902	-0.155	0.163
-86.699	-86.678	0.352	-0.139
-85.684	-71.162	-0.090	0.043
-84.670	35.678	0.171	-0.194
-83.655	-115.941	0.149	0.036
-82.640	64.055	-0.401	0.522
-81.626	39.263	-0.322	0.374
-80.611	-152.355	0.280	-0.026
-79.597	-200.000	-0.047	-0.333
-78.582	-169.839	0.196	0.009
-77.567	-83.223	-0.356	0.147
-76.553	169.717	-0.134	-0.248
-75.538	582.996	0.155	-0.495
-74.524	560.047	-0.154	-0.485
-73.509	-61.997	0.341	-0.184
-72.494	200.625	0.185	-0.369
-71.480	-145.629	0.039	-0.004
-70.465	-13.946	0.004	-0.004
-69.451	-182.205	-0.527	-0.013
-68.436	-200.000	-0.412	0.003
-67.422	238.190	-0.131	-0.282
-66.407	451.403	-0.171	-0.492
-65.392	-11.346	-0.274	-0.233
-64.378	-131.656	0.883	0.149
-63.363	-72.003	0.347	0.166
-62.349	800.000	0.174	0.634
-61.334	28.759	-2.190	-2.399
-60.319	-18.525	1.371	1.104
-59.305	232.960	-3.591	-7.659
-58.290	54.280	3.996	4.978
-57.276	391.341	3.906	10.537
-56.261	-200.000	23.631	321.034
-55.246	352.830	1304.731	3360.327
-54.232	52.631	2846.024	3517.279
-53.217	51.153	2661.082	3265.721
-52.203	31.462	2392.323	2657.943
-51.188	27.857	2056.782	2240.677
-50.173	24.539	1943.666	2078.623
-49.159	23.443	1931.534	2052.821
-48.144	22.898	1927.422	2042.034
-47.130	22.906	1924.569	2039.022
-46.115	22.716	1923.221	2035.308
-45.100	22.796	1921.527	2034.365
-44.086	22.720	1921.067	2032.914
-43.071	22.732	1919.120	2030.916
-42.057	22.864	1916.534	2029.615
-41.042	22.750	1915.950	2027.603
-40.027	22.718	1914.740	2025.873
-39.013	22.767	1912.798	2024.307
-37.998	22.673	1912.048	2022.341
-36.984	22.838	1910.177	2022.182
-35.969	22.674	1909.892	2019.920
-34.954	22.617	1908.623	2017.838
-33.940	22.794	1906.438	2017.487
-32.925	22.547	1905.933	2014.029
-31.911	22.656	1903.823	2012.976
-30.896	22.483	1903.653	2010.727
-29.881	22.630	1902.115	2010.704
-28.867	22.507	1900.740	2007.767
-27.852	22.638	1898.548	2006.868
-26.838	22.664	1896.802	2005.240
-25.823	22.652	1895.849	2004.013
-24.809	22.556	1894.554	2001.472
-23.794	22.603	1893.751	2001.085
-22.779	22.542	1892.026	1998.485
-21.765	22.614	1890.486	1997.599
-20.750	22.592	1889.868	1996.612
-19.736	22.481	1888.811	1994.161
-18.721	22.465	1887.555	1992.564
-17.706	22.579	1886.337	1992.498
-16.692	22.627	1884.379	1990.898
-15.677	22.496	1883.546	1988.456
-14.663	22.477	1882.991	1987.576
-13.648	22.498	1880.861	1985.484
-12.633	22.494	1880.258	1984.726
-11.619	22.482	1878.285	1982.425
-10.604	22.553	1876.743	1981.519
-9.590	22.441	1876.045	1979.440
-8.575	22.426	1875.424	1978.533
-7.560	22.363	1873.868	1976.110
-6.546	22.433	1872.662	1975.550
-5.531	22.464	1871.328	1974.409
-4.517	22.363	1870.496	1972.318
-3.502	22.427	1869.681	1972.093
-2.487	22.361	1869.173	1970.741
-1.473	22.608	1863.794	1967.762
-0.458	22.243	1846.533	1945.401
0.556	18.896	1994.208	2048.667
1.571	17.448	2197.077	2237.692
2.586	18.312	2236.422	2289.098
3.600	18.272	2239.181	2291.111
4.615	18.373	2238.125	2291.119
5.629	18.269	2235.431	2286.695
6.644	18.283	2234.238	2285.380
7.659	18.358	2232.325	2284.157
8.673	18.262	2230.633	2280.864
9.688	18.103	2239.726	2287.751
10.702	17.260	2320.868	2358.590
11.717	15.729	2385.828	2402.356
12.731	7.446	2365.803	2263.545
13.746	1.057	2349.154	2156.167
14.761	0.261	2344.584	2140.351
15.775	0.179	2343.075	2137.548
16.790	0.183	2341.631	2136.033
17.804	0.069	2341.331	2133.873
18.819	0.097	2339.465	2132.316
19.834	0.037	2338.147	2130.012
20.848	0.128	2336.541	2129.590
21.863	-0.013	2335.286	2126.183
22.877	0.040	2332.730	2124.348
23.892	0.128	2330.175	2123.026
24.907	0.042	2327.728	2119.315
25.921	-0.037	2326.628	2116.941
26.936	0.030	2324.216	2115.448
27.950	0.044	2321.758	2113.146
28.965	0.112	2319.517	2111.814
29.980	0.039	2318.923	2109.997
30.994	0.101	2316.636	2108.532
32.009	3.893	2328.679	2172.855
33.023	13.108	2353.715	2326.988
34.038	16.699	2360.322	2384.161
35.053	16.679	2357.145	2380.371
36.067	16.636	2354.377	2376.695
37.082	16.590	2352.127	2373.481
38.096	16.709	2350.321	2373.058
39.111	16.802	2347.400	2371.130
40.126	16.971	2346.476	2372.283
41.140	17.018	2344.501	2370.672
42.155	17.169	2342.466	2370.449
43.169	17.113	2340.908	2367.798
44.184	17.012	2337.232	2362.386
45.199	17.011	2334.845	2359.678
46.213	17.081	2334.769	2360.298
47.228	17.160	2333.362	2359.696
48.242	17.145	2332.362	2358.186
49.257	17.211	2329.864	2356.308
50.271	17.407	2327.517	2356.371
51.286	17.150	2324.861	2349.833
52.301	16.927	2323.186	2344.761
53.315	17.753	2325.893	2358.703
54.330	20.332	2333.147	2401.681
55.344	22.057	2334.739	2427.018
56.359	22.307	2331.348	2426.676
57.374	22.514	2330.409	2428.273
58.388	22.502	2328.018	2425.322
59.403	22.262	2323.901	2417.424
60.417	21.992	2320.219	2409.578
61.432	22.118	2319.318	2410.091
62.447	22.318	2317.494	2410.667
63.461	22.472	2316.180	2411.135
64.476	22.624	2314.064	2410.726
65.490	22.298	2312.174	2403.994
66.505	21.453	2308.554	2388.352
67.520	19.322	2299.982	2350.026
68.534	17.358	2291.347	2314.083
69.549	16.715	2287.222	2300.863
70.563	16.711	2284.093	2297.397
71.578	16.809	2283.271	2297.624
72.593	16.916	2281.698	2297.229
73.607	17.006	2280.374	2296.837
74.622	16.894	2278.503	2293.152
75.636	16.868	2274.773	2288.773
76.651	16.703	2273.641	2285.130
77.666	16.869	2271.088	2284.537
78.680	16.763	2268.485	2280.211
79.695	16.583	2267.016	2276.023
80.709	16.595	2264.826	2273.719
81.724	16.423	2263.420	2269.707
82.739	16.436	2260.920	2267.112
83.753	16.553	2258.633	2266.114
84.768	16.539	2256.916	2263.932
85.782	16.409	2255.724	2260.724
86.797	16.375	2254.174	2258.434
87.812	16.555	2251.591	2257.997
88.826	16.644	2249.621	2256.947
89.841	16.716	2247.529	2255.543
90.855	16.678	2245.392	2252.612
91.870	16.675	2244.627	2251.543
92.884	16.631	2242.747	2248.795
93.899	16.751	2241.813	2249.194
94.914	17.272	2244.354	2258.437
95.928	19.796	2250.854	2298.463
96.943	20.629	2249.086	2307.498
97.957	18.363	2238.853	2266.612
98.972	16.864	2233.854	2241.366
99.987	16.767	2230.124	2236.071
101.001	16.635	2228.435	2232.362
102.016	16.620	2226.063	2229.521
103.030	16.678	2222.625	2226.572
104.045	16.571	2220.572	2222.838
105.060	16.613	2217.683	2220.237
106.074	16.592	2217.133	2219.144
107.089	16.560	2215.652	2216.969
108.103	16.628	2214.918	2216.866
109.118	16.650	2212.749	2214.722
110.133	16.785	2211.340	2214.823
111.147	16.602	2208.851	2209.653
112.162	16.557	2207.906	2207.861
113.176	16.693	2205.640	2207.114
114.191	16.786	2204.293	2206.720
115.206	16.729	2203.502	2204.908
116.220	16.791	2200.580	2202.533
117.235	16.712	2198.540	2199.205
118.249	16.712	2197.252	2197.653
119.264	16.777	2194.677	2195.654
120.279	16.605	2193.302	2191.776
121.293	16.653	2191.393	2190.238
122.308	16.642	2190.069	2188.510
123.322	16.503	2188.516	2184.881
124.337	17.033	2190.080	2193.067
125.352	19.739	2198.571	2236.544
126.366	20.501	2195.408	2242.954
127.381	17.707	2186.073	2197.002
128.395	16.649	2179.979	2176.952
129.410	16.451	2177.437	2171.596
130.424	16.395	2177.004	2170.175
131.439	16.570	2175.143	2170.325
132.454	16.720	2172.648	2169.508
133.468	16.834	2170.982	2169.044
134.483	16.968	2169.812	2169.344
135.497	16.936	2168.392	2167.244
136.512	16.851	2165.819	2163.324
137.527	16.754	2163.883	2159.892
138.541	16.660	2161.534	2156.091
139.556	16.511	2160.648	2153.033
140.570	16.551	2159.795	2152.446
141.585	16.563	2156.970	2149.519
142.600	16.563	2156.364	2148.657
143.614	16.604	2153.731	2146.299
144.629	16.494	2152.448	2143.365
145.643	16.450	2151.728	2141.835
146.658	16.533	2149.091	2140.003
147.673	16.569	2146.470	2137.592
148.687	16.533	2145.995	2136.412
149.702	16.630	2146.052	2137.446
150.716	16.767	2144.256	2137.131
151.731	16.736	2143.486	2135.721
152.746	16.645	2142.782	2133.615
153.760	17.484	2145.031	2146.232
154.775	20.028	2152.499	2185.752
155.789	20.813	2150.689	2193.595
156.804	18.476	2139.155	2152.106
157.819	16.899	2133.167	2125.961
158.833	16.763	2129.971	2120.811
159.848	16.808	2127.475	2118.643
160.862	16.765	2126.801	2117.172
161.877	16.866	2125.669	2117.064
162.892	16.838	2125.301	2116.093
163.906	16.831	2122.905	2113.369
164.921	16.726	2121.332	2110.237
165.935	16.769	2118.886	2108.080
166.950	16.894	2117.318	2107.838
167.964	16.849	2114.309	2104.020
168.979	16.608	2113.167	2099.636
169.994	16.561	2111.993	2097.631
171.008	16.595	2109.788	2095.608
172.023	16.470	2108.606	2092.631
173.037	16.664	2106.678	2092.880
174.052	16.704	2105.522	2091.978
175.067	16.686	2104.760	2090.738
176.081	16.729	2103.111	2089.388
177.096	16.781	2101.928	2088.611
178.110	16.644	2100.295	2085.041
179.125	16.634	2099.141	2083.524
180.140	16.618	2097.575	2081.511
181.154	16.698	2096.085	2080.779
182.169	16.822	2095.898	2081.880
183.183	17.598	2098.308	2093.613
184.198	20.503	2105.171	2136.147
185.213	20.991	2102.828	2139.538
186.227	18.129	2093.502	2094.603
187.242	16.910	2088.788	2074.657
188.256	16.774	2085.888	2069.851
189.271	16.508	2083.771	2064.237
190.286	16.480	2082.004	2061.894
191.300	16.589	2080.351	2061.345
192.315	16.501	2079.235	2058.920
193.329	16.911	2077.573	2062.040
194.344	17.040	2076.644	2062.450
195.359	17.043	2076.598	2062.191
196.373	16.823	2073.820	2056.502
197.388	16.693	2071.102	2051.982
198.402	16.740	2068.291	2049.524
199.417	16.580	2066.543	2045.596
200.432	16.724	2065.053	2045.625
201.446	16.620	2064.126	2043.198
202.461	16.653	2062.055	2041.306
203.475	16.574	2060.529	2038.599
204.490	16.598	2057.814	2035.958
205.504	16.662	2055.772	2034.468
206.519	16.628	2055.147	2033.187
207.534	16.644	2052.469	2030.488
208.548	16.756	2051.468	2030.609
209.563	16.773	2050.671	2029.777
210.577	16.797	2050.266	2029.428
211.592	16.865	2049.584	2029.326
212.607	18.130	2055.086	2049.789
213.621	21.285	2061.701	2094.207
214.636	20.775	2054.821	2080.850
215.650	17.694	2046.799	2035.554
216.665	16.955	2043.044	2022.725
217.680	16.727	2040.492	2017.221
218.694	16.603	2038.702	2013.730
219.709	16.595	2037.594	2012.292
220.723	16.703	2036.210	2011.982
221.738	16.850	2033.835	2011.141
222.753	16.894	2031.704	2009.315
223.767	16.884	2030.447	2007.721
224.782	16.859	2028.275	2005.034
225.796	16.719	2027.471	2002.336
226.811	16.848	2026.055	2002.221
227.826	16.909	2024.169	2000.849
228.840	16.696	2023.275	1997.205
229.855	16.734	2020.289	1994.461
230.869	16.707	2019.600	1993.227
231.884	16.662	2018.956	1991.818
232.899	16.647	2017.235	1989.706
233.913	16.550	2016.180	1987.278
234.928	16.658	2014.134	1986.299
235.942	16.634	2011.818	1983.499
236.957	16.669	2009.953	1981.825
237.972	16.719	2009.171	1981.405
238.986	16.508	2008.292	1977.828
240.001	16.531	2006.882	1976.469
241.015	16.682	2005.849	1976.985
242.030	17.425	2008.749	1988.339
243.045	19.904	2014.670	2023.127
244.059	20.268	2010.654	2023.122
245.074	17.739	2001.626	1984.251
246.088	16.937	1997.866	1970.915
247.103	16.975	1995.823	1969.113
248.117	16.914	1994.273	1966.633
249.132	16.693	1992.040	1961.624
250.147	16.752	1990.101	1960.172
251.161	16.840	1988.596	1959.474
252.176	16.911	1988.858	1960.317
253.190	17.242	1987.042	1962.138
254.205	17.103	1985.159	1958.433
255.220	17.111	1983.106	1956.265
256.234	17.177	1981.542	1955.257
257.249	16.922	1981.260	1951.789
258.263	16.812	1980.130	1949.171
259.278	16.936	1979.172	1949.434
260.293	16.961	1977.098	1947.447
261.307	16.720	1974.581	1941.949
262.322	16.608	1972.872	1938.754
263.336	16.581	1971.268	1936.631
264.351	16.595	1968.896	1934.228
265.366	16.502	1968.632	1932.674
266.380	16.627	1967.182	1932.451
267.395	16.694	1965.245	1931.081
268.409	16.588	1963.778	1928.195
269.424	16.772	1962.236	1928.553
270.439	16.777	1962.426	1928.567
271.453	17.495	1965.661	1939.743
272.468	20.400	1970.040	1977.132
273.482	20.614	1965.950	1975.230
274.497	17.802	1957.792	1934.781
275.512	16.829	1952.257	1918.019
276.526	16.706	1950.296	1914.470
277.541	16.673	1948.207	1911.811
278.555	16.645	1947.189	1910.270
279.570	16.571	1945.537	1907.582
280.585	16.750	1943.942	1907.815
281.599	16.712	1943.114	1906.342
282.614	16.761	1942.127	1905.699
283.628	16.983	1941.089	1906.961
284.643	17.037	1940.644	1906.902
285.657	17.267	1938.560	1907.219
286.672	17.288	1938.119	1906.800
287.687	17.160	1935.859	1902.907
288.701	16.959	1934.278	1898.865
289.716	17.121	1932.562	1898.775
290.730	17.087	1931.379	1896.994
291.745	17.194	1930.292	1896.906
292.760	17.113	1929.672	1895.157
293.774	16.872	1928.190	1890.777
294.789	16.907	1926.480	1889.265
295.803	16.821	1924.125	1885.769
296.818	16.759	1923.448	1884.188
297.833	16.856	1921.933	1883.559
298.847	16.809	1921.163	1882.051
299.862	16.858	1919.177	1880.433
300.876	17.546	1921.202	1889.869
301.891	20.402	1927.258	1927.501
302.906	20.911	1924.791	1930.476
303.920	17.989	1915.596	1888.602
304.935	17.028	1911.838	1874.000
305.949	16.826	1909.733	1869.480
306.964	16.843	1907.519	1867.270
307.979	16.797	1906.449	1865.489
308.993	16.967	1905.614	1866.331
310.008	17.267	1904.606	1868.442
311.022	17.313	1902.490	1866.651
312.037	17.120	1900.845	1862.685
313.052	17.123	1899.746	1861.420
314.066	17.213	1898.088	1860.558
315.081	17.043	1897.543	1857.926
316.095	17.043	1895.652	1855.859
317.110	17.007	1893.342	1852.973
318.125	16.969	1891.703	1850.740
319.139	17.004	1891.142	1850.346
320.154	17.061	1889.956	1849.593
321.168	16.894	1888.348	1845.974
322.183	16.915	1886.257	1843.936
323.197	16.856	1884.652	1841.502
324.212	16.654	1883.066	1837.527
325.227	16.586	1881.450	1834.983
326.241	16.583	1879.838	1833.163
327.256	16.677	1878.341	1832.505
328.270	16.576	1877.842	1830.701
329.285	16.705	1877.395	1831.443
330.300	17.650	1882.045	1846.060
331.314	20.686	1887.204	1883.988
332.329	20.600	1882.175	1877.816
333.343	17.816	1872.882	1838.206
334.358	16.871	1869.256	1824.208
335.373	16.748	1867.104	1820.564
336.387	16.569	1865.585	1816.939
337.402	16.568	1863.629	1814.802
338.416	16.698	1861.930	1814.330
339.431	16.663	1862.287	1814.085
340.446	16.664	1859.942	1811.590
341.460	16.868	1858.109	1811.777
342.475	17.010	1857.685	1812.675
343.489	17.086	1856.811	1812.423
344.504	17.076	1855.312	1810.633
345.519	17.056	1854.448	1809.357
346.533	17.180	1852.736	1808.798
347.548	17.136	1852.209	1807.595
348.562	17.008	1850.280	1804.127
349.577	17.043	1849.777	1803.799
350.592	17.404	1848.427	1806.119
351.606	17.412	1847.271	1804.865
352.621	17.309	1844.831	1801.166
353.635	17.057	1843.978	1797.430
354.650	16.915	1841.796	1793.583
355.665	16.846	1839.214	1790.119
356.679	16.787	1838.349	1788.442
357.694	16.797	1837.085	1787.104
358.708	16.870	1835.923	1786.526
359.723	18.052	1839.726	1802.555
360.738	20.953	1844.781	1838.085
361.752	20.189	1839.581	1824.603
362.767	17.690	1832.087	1790.601
363.781	17.020	1828.920	1780.229
364.796	16.680	1827.571	1775.123
365.810	16.653	1826.405	1773.492
366.825	16.632	1825.072	1771.759
367.840	16.960	1824.752	1774.690
368.854	16.866	1824.408	1773.160
369.869	16.922	1820.974	1770.192
370.883	16.849	1819.325	1767.615
371.898	16.670	1817.837	1764.081
372.913	16.546	1817.320	1762.071
373.927	16.667	1816.106	1761.950
374.942	16.845	1815.553	1763.058
375.956	16.970	1813.677	1762.330
376.971	16.832	1812.199	1759.253
377.986	16.803	1811.031	1757.601
379.000	16.770	1809.425	1755.488
380.015	16.886	1807.694	1754.810
381.029	16.790	1805.721	1751.679
382.044	16.753	1803.461	1748.896
383.059	16.756	1801.032	1746.360
384.073	16.755	1800.809	1745.924
385.088	16.666	1800.407	1744.404
386.102	16.701	1798.533	1742.742
387.117	16.800	1796.502	1741.591
388.132	16.756	1796.102	1740.538
389.146	17.564	1801.388	1753.823
390.161	20.612	1805.885	1789.561
391.175	20.497	1797.912	1780.267
392.190	17.839	1789.400	1744.344
393.205	16.948	1786.635	1732.304
394.219	16.828	1785.332	1729.598
395.234	16.664	1784.225	1726.634
396.248	16.745	1782.087	1725.194
397.263	16.695	1780.297	1722.738
398.278	16.805	1778.276	1721.705
399.292	16.701	1777.715	1719.896
400.307	16.738	1777.087	1719.453
401.321	16.834	1775.926	1719.106
402.336	16.803	1774.396	1717.100
403.350	16.832	1773.282	1716.114
404.365	16.950	1772.398	1716.249
405.380	17.126	1771.829	1717.285
406.394	17.117	1771.515	1716.683
407.409	17.089	1769.347	1714.091
408.423	17.339	1767.266	1714.403
409.438	17.229	1765.515	1711.394
410.453	17.194	1765.481	1710.796
411.467	17.245	1764.151	1709.819
412.482	17.058	1762.343	1705.976
413.496	16.779	1760.788	1701.451
414.511	16.835	1758.776	1699.860
415.526	16.830	1756.779	1697.679
416.540	16.751	1755.271	1695.230
417.555	16.815	1754.605	1695.020
418.569	16.827	1755.351	1695.660
419.584	16.865	1754.405	1694.927
420.599	16.997	1753.957	1695.619
421.613	16.775	1753.669	1692.901
422.628	16.999	1750.709	1692.094
423.642	16.882	1748.923	1688.989
424.657	16.779	1748.122	1686.982
425.672	17.036	1745.893	1687.199
426.686	16.886	1744.781	1684.425
427.701	16.890	1743.628	1683.147
428.715	17.060	1742.030	1683.104
429.730	17.193	1741.128	1683.352
430.745	17.229	1739.463	1681.904
431.759	17.249	1739.610	1682.040
432.774	17.440	1740.416	1684.522
433.788	17.834	1740.651	1688.461
434.803	18.251	1739.807	1691.591
435.818	18.112	1738.886	1689.110
436.832	17.903	1738.211	1686.172
437.847	17.097	1730.751	1670.772
438.861	9.382	1711.213	1575.989
439.876	1.703	1696.921	1487.441
440.890	0.310	1692.754	1469.956
441.905	0.243	1691.790	1468.288
442.920	0.214	1690.605	1466.798
443.934	0.108	1689.659	1464.763
444.949	0.235	1687.975	1464.371
445.963	0.194	1687.316	1463.222
446.978	0.194	1685.896	1461.817
447.993	0.081	1685.036	1459.797
449.007	0.267	1682.549	1459.277
450.022	0.272	1680.576	1457.439
451.036	0.296	1678.795	1455.958
452.051	1.144	1683.822	1468.399
453.066	8.875	1700.687	1558.722
454.080	16.550	1712.345	1644.492
455.095	17.877	1714.305	1659.151
456.109	18.306	1714.725	1663.545
457.124	18.384	1714.226	1663.626
458.139	18.352	1713.517	1662.429
459.153	18.473	1712.608	1662.526
460.168	18.507	1710.621	1660.734
461.182	18.571	1708.100	1658.703
462.197	18.488	1706.081	1655.740
463.212	18.417	1704.363	1653.185
464.226	18.322	1704.176	1651.887
465.241	18.504	1703.080	1652.387
466.255	18.580	1702.332	1652.198
467.270	18.693	1700.190	1651.021
468.285	18.475	1699.218	1647.767
469.299	18.316	1697.953	1644.806
470.314	18.475	1696.068	1644.322
471.328	18.485	1694.907	1643.098
472.343	18.476	1694.379	1642.296
473.358	18.562	1693.099	1641.692
474.372	18.599	1691.007	1639.825
475.387	18.468	1689.799	1637.196
476.401	18.298	1688.293	1633.910
477.416	18.506	1687.644	1635.077
478.430	18.557	1685.932	1633.715
479.445	18.335	1684.946	1630.443
480.460	18.263	1683.871	1628.517
481.474	18.331	1681.980	1627.142
482.489	18.547	1681.579	1628.621
483.503	18.653	1680.190	1628.091
484.518	18.621	1678.926	1626.362
485.533	18.604	1678.125	1625.236
486.547	18.615	1676.346	1623.422
487.562	18.804	1675.298	1624.006
488.576	18.619	1674.815	1621.590
489.591	18.601	1672.673	1619.146
490.606	18.562	1670.930	1616.899
491.620	18.589	1669.720	1615.788
492.635	18.882	1668.036	1616.740
493.649	18.957	1667.457	1616.694
494.664	18.605	1665.795	1611.565
495.679	18.150	1664.575	1605.899
496.693	18.455	1662.612	1606.682
497.708	18.593	1661.987	1607.191
498.722	18.726	1662.167	1608.422
499.737	18.732	1660.317	1606.492
500.752	18.664	1658.226	1603.642
501.766	18.570	1656.269	1600.675
502.781	18.639	1654.898	1599.803
503.795	18.655	1653.311	1598.228
504.810	18.756	1652.672	1598.363
505.825	18.798	1652.734	1598.629
506.839	18.760	1651.413	1596.799
507.854	18.678	1649.743	1594.228
508.868	18.849	1647.979	1593.934
509.883	18.821	1647.137	1592.663
510.898	18.850	1646.313	1591.951
511.912	18.847	1643.188	1588.712
512.927	18.676	1641.882	1585.671
513.941	18.582	1641.126	1583.870
514.956	18.502	1640.036	1581.890
515.971	18.502	1638.440	1580.162
516.985	18.534	1637.659	1579.515
518.000	18.736	1636.465	1580.040
519.014	18.801	1636.604	1580.592
520.029	18.903	1635.463	1580.238
521.043	18.865	1633.196	1577.510
522.058	18.939	1631.717	1576.577
523.073	18.992	1631.665	1576.823
524.087	19.089	1631.260	1577.139
525.102	19.139	1628.929	1575.157
526.116	18.782	1627.549	1570.350
527.131	18.749	1625.913	1568.286
528.146	19.004	1625.542	1570.080
529.160	19.134	1623.983	1569.571
530.175	18.996	1623.750	1567.898
531.189	19.155	1622.173	1567.642
532.204	19.159	1620.561	1565.932
533.219	18.842	1619.392	1561.723
534.233	18.831	1618.721	1560.784
535.248	18.875	1618.247	1560.542
536.262	19.224	1617.567	1562.885
537.277	19.113	1615.978	1560.148
538.292	19.008	1613.505	1556.625
539.306	18.896	1611.931	1553.897
540.321	18.877	1610.886	1552.537
541.335	18.788	1609.816	1550.505
542.350	18.956	1608.240	1550.332
543.365	19.039	1606.621	1549.334
544.379	19.047	1605.167	1547.814
545.394	19.199	1604.262	1548.135
546.408	18.839	1602.513	1543.013
547.423	18.710	1600.800	1540.015
548.438	18.758	1599.970	1539.467
549.452	18.905	1598.929	1539.597
550.467	19.084	1597.600	1539.744
551.481	18.960	1596.934	1537.807
552.496	19.084	1596.842	1538.651
553.511	19.309	1596.118	1539.784
554.525	19.270	1593.909	1537.122
555.540	19.305	1593.811	1537.152
556.554	19.362	1592.692	1536.400
557.569	19.258	1591.307	1533.952
558.583	19.152	1588.882	1530.482
559.598	19.120	1588.920	1530.054
560.613	19.112	1587.588	1528.516
561.627	19.282	1586.205	1528.517
562.642	19.262	1584.847	1526.851
563.656	19.392	1584.021	1527.026
564.671	19.434	1582.673	1525.915
565.686	19.353	1581.241	1523.630
566.700	19.177	1579.970	1520.665
567.715	19.120	1577.686	1517.779
568.729	19.053	1576.540	1515.901
569.744	18.714	1574.556	1510.816
570.759	18.902	1573.733	1511.505
571.773	18.921	1572.455	1510.266
572.788	19.097	1571.861	1511.069
573.802	19.367	1570.668	1512.116
574.817	19.289	1569.415	1510.043
575.832	19.488	1568.457	1510.693
576.846	19.376	1567.417	1508.531
577.861	19.241	1566.306	1506.090
578.875	19.448	1564.866	1506.342
579.890	19.578	1564.046	1506.516
580.905	19.533	1563.335	1505.257
581.919	19.535	1563.190	1504.948
582.934	19.612	1562.617	1504.892
583.948	19.558	1560.700	1502.391
584.963	19.415	1559.667	1499.971
585.978	19.261	1558.009	1496.849
586.992	19.473	1557.438	1497.976
588.007	19.637	1555.708	1497.559
589.021	19.228	1554.122	1492.293
590.036	19.006	1552.799	1488.918
591.051	19.213	1551.888	1489.666
592.065	19.442	1550.355	1490.003
593.080	19.467	1548.827	1488.571
594.094	19.526	1547.404	1487.536
595.109	19.221	1545.672	1483.054
596.123	19.138	1544.111	1480.657
597.138	19.337	1543.768	1481.870
598.153	19.510	1542.845	1482.301
599.167	19.449	1541.388	1480.198
600.182	19.613	1540.683	1480.759
601.196	19.416	1539.990	1478.223
602.211	19.511	1538.463	1477.397
603.226	19.634	1537.366	1477.219
604.240	19.755	1536.077	1476.845
605.255	19.763	1535.354	1476.040
606.269	19.812	1533.897	1474.885
607.284	19.736	1532.917	1473.112
608.299	19.591	1531.749	1470.576
609.313	19.550	1530.618	1468.959
610.328	19.572	1529.229	1467.644
611.342	19.660	1528.148	1467.180
612.357	19.756	1527.077	1466.796
613.372	19.706	1526.248	1465.396
614.386	19.690	1525.183	1464.061
615.401	19.610	1524.670	1462.712
616.415	19.733	1523.203	1462.178
617.430	19.779	1523.123	1462.316
618.445	19.794	1521.672	1460.877
619.459	19.718	1519.914	1458.368
620.474	19.399	1518.966	1454.583
621.488	19.048	1516.849	1449.407
622.503	19.090	1515.381	1448.184
623.518	19.349	1515.040	1449.881
624.532	19.556	1514.784	1451.208
625.547	19.668	1513.662	1450.906
626.561	19.929	1513.312	1452.599
627.576	19.997	1511.660	1451.414
628.591	19.496	1509.978	1445.406
629.605	19.291	1508.645	1442.229
630.620	19.291	1505.949	1439.480
631.634	19.034	1505.272	1436.504
632.649	19.132	1504.815	1436.722
633.663	19.363	1503.482	1437.210
634.678	19.841	1502.387	1439.990
635.693	19.886	1501.440	1439.291
636.707	20.108	1500.673	1440.234
637.722	20.088	1499.851	1439.106
638.736	20.160	1498.480	1438.218
639.751	20.082	1497.554	1436.506
640.766	20.073	1495.995	1434.771
641.780	20.177	1494.035	1433.577
642.795	19.967	1493.302	1430.957
643.809	20.137	1492.641	1431.564
644.824	19.956	1492.369	1429.636
645.839	19.878	1490.965	1427.472
646.853	19.939	1490.595	1427.451
647.868	19.980	1488.961	1426.056
648.882	19.942	1487.822	1424.481
649.897	19.902	1486.110	1422.334
650.912	20.040	1484.475	1421.743
651.926	19.877	1483.118	1418.926
652.941	19.698	1481.913	1416.133
653.955	19.370	1479.957	1411.398
654.970	19.343	1478.279	1409.404
655.985	19.314	1476.383	1407.190
656.999	19.371	1475.453	1406.603
658.014	19.482	1475.357	1407.249
659.028	19.612	1474.347	1407.189
660.043	19.718	1474.181	1407.722
661.058	19.807	1473.138	1407.286
662.072	19.923	1472.147	1407.122
663.087	19.951	1470.714	1405.810
664.101	19.981	1469.489	1404.717
665.116	19.995	1469.258	1404.441
666.131	20.096	1467.375	1403.298
667.145	20.034	1466.434	1401.722
668.160	20.152	1465.543	1401.664
669.174	20.371	1463.935	1401.733
670.189	20.300	1462.446	1399.568
671.204	20.055	1461.974	1396.964
672.218	20.134	1461.124	1396.619
673.233	20.128	1460.332	1395.646
674.247	20.382	1459.547	1396.790
675.262	20.330	1458.286	1394.992
676.276	20.334	1457.051	1393.678
677.291	20.310	1455.300	1391.640
678.306	20.131	1454.452	1389.224
679.320	20.077	1453.217	1387.444
680.335	20.128	1453.154	1387.628
681.349	20.336	1452.598	1388.598
682.364	20.362	1450.944	1387.063
683.379	20.335	1449.330	1385.139
684.393	20.066	1448.529	1382.053
685.408	20.194	1447.861	1382.272
686.422	20.092	1447.101	1380.566
687.437	20.180	1446.351	1380.384
688.452	20.369	1445.658	1381.071
689.466	20.347	1443.993	1379.143
690.481	20.137	1442.440	1375.819
691.495	19.906	1440.478	1371.945
692.510	19.525	1438.857	1367.197
693.525	19.350	1437.165	1364.038
694.539	19.560	1436.910	1365.306
695.554	19.989	1437.096	1368.721
696.568	20.279	1436.443	1370.237
697.583	20.311	1435.828	1369.744
698.598	20.237	1434.975	1368.178
699.612	20.548	1433.058	1368.653
700.627	20.481	1431.927	1366.878
701.641	20.348	1431.248	1365.016
702.656	20.422	1429.915	1364.163
703.671	20.516	1429.863	1364.692
704.685	20.500	1429.172	1363.740
705.700	20.430	1427.131	1361.077
706.714	20.359	1425.797	1359.089
707.729	20.150	1424.610	1356.148
708.744	20.181	1422.992	1354.692
709.758	19.994	1421.309	1351.459
710.773	19.808	1420.340	1348.914
711.787	19.757	1418.869	1346.964
712.802	19.853	1417.109	1345.875
713.816	20.067	1416.753	1347.053
714.831	20.261	1416.472	1348.137
715.846	20.415	1415.354	1348.119
716.860	20.633	1413.942	1348.305
717.875	20.436	1412.781	1345.502
718.889	20.495	1411.756	1344.829
719.904	20.425	1410.660	1343.082
720.919	20.671	1410.319	1344.508
721.933	20.545	1409.333	1342.426
722.948	20.661	1408.184	1342.067
723.962	20.574	1407.854	1340.922
724.977	20.723	1406.454	1340.577
725.992	20.747	1405.177	1339.385
727.006	20.620	1403.656	1336.798
728.021	20.530	1402.438	1334.784
729.035	20.727	1401.195	1334.956
730.050	20.600	1400.686	1333.331
731.065	20.525	1399.802	1331.755
732.079	20.766	1398.448	1332.160
733.094	20.530	1397.878	1329.647
734.108	20.509	1395.370	1326.936
735.123	20.538	1394.259	1325.948
736.138	20.480	1394.011	1325.107
737.152	20.675	1392.419	1324.925
738.167	20.806	1391.918	1325.295
739.181	20.793	1391.355	1324.499
740.196	20.734	1389.850	1322.459
741.211	20.789	1389.289	1322.186
742.225	20.634	1388.392	1319.990
743.240	20.553	1387.443	1318.317
744.254	20.606	1385.972	1317.163
745.269	20.653	1384.972	1316.415
746.284	20.636	1384.017	1315.219
747.298	20.512	1382.863	1313.019
748.313	20.215	1380.886	1308.733
749.327	19.676	1379.857	1303.521
750.342	19.549	1378.312	1300.938
751.356	19.486	1376.857	1298.932
752.371	19.666	1376.300	1299.615
753.386	20.165	1376.803	1303.707
754.400	20.542	1376.039	1305.672
755.415	20.717	1374.573	1305.446
756.429	20.791	1373.600	1304.921
757.444	20.760	1372.623	1303.607
758.459	20.680	1372.364	1302.602
759.473	20.859	1371.009	1302.504
760.488	20.848	1369.683	1301.011
761.502	20.837	1368.263	1299.422
762.517	20.808	1366.988	1297.834
763.532	20.670	1365.430	1295.170
764.546	20.469	1364.120	1292.271
765.561	20.295	1362.716	1289.482
766.575	19.956	1361.585	1285.727
767.590	19.787	1360.589	1283.372
768.605	20.121	1360.173	1285.320
769.619	20.413	1358.985	1286.219
770.634	20.456	1358.095	1285.542
771.648	20.671	1357.554	1286.474
772.663	20.963	1356.941	1287.908
773.678	20.875	1356.211	1286.405
774.692	20.973	1355.316	1286.126
775.707	20.851	1355.302	1285.060
776.721	20.881	1354.193	1284.077
777.736	20.958	1352.348	1282.744
778.751	20.886	1351.986	1281.711
779.765	21.047	1350.733	1281.558
780.780	20.889	1350.124	1279.662
781.794	20.818	1349.453	1278.346
782.809	20.731	1348.236	1276.403
783.824	20.725	1346.529	1274.590
784.838	20.394	1344.341	1269.932
785.853	19.878	1343.148	1264.862
786.867	19.962	1342.948	1265.141
787.882	20.197	1342.494	1266.290
788.897	20.385	1342.431	1267.456
789.911	20.617	1340.891	1267.547
790.926	20.605	1339.402	1265.905
791.940	20.845	1338.136	1266.308
792.955	20.690	1337.507	1264.432
793.969	20.813	1336.144	1263.886
794.984	20.827	1335.761	1263.475
795.999	20.907	1334.913	1263.102
797.013	20.894	1333.500	1261.524
798.028	20.875	1332.048	1259.858
799.042	20.873	1331.776	1259.436
800.057	20.826	1331.102	1258.310
801.072	20.964	1329.055	1257.219
802.086	21.031	1327.602	1256.182
803.101	21.101	1326.791	1255.769
804.115	20.932	1326.207	1253.845
805.130	20.911	1325.195	1252.589
806.145	20.932	1323.579	1251.064
807.159	21.073	1321.898	1250.339
808.174	20.924	1320.779	1248.056
809.188	20.731	1319.471	1245.284
810.203	20.668	1317.600	1242.920
811.218	20.483	1316.100	1240.026
812.232	20.259	1314.834	1237.082
813.247	20.119	1313.861	1235.015
814.261	20.280	1314.093	1236.235
815.276	20.679	1313.337	1238.230
816.291	20.752	1313.009	1238.296
817.305	20.968	1311.273	1238.055
818.320	21.044	1309.992	1237.236
819.334	21.065	1309.197	1236.491
820.349	21.160	1307.641	1235.551
821.364	21.119	1305.940	1233.503
822.378	21.094	1303.874	1231.229
823.393	21.120	1302.885	1230.327
824.407	21.259	1301.879	1230.216
825.422	20.981	1302.144	1228.352
826.437	20.864	1300.626	1225.943
827.451	20.801	1298.315	1223.177
828.466	20.122	1297.191	1217.176
829.480	19.962	1295.159	1213.997
830.495	20.351	1293.564	1215.095
831.509	20.499	1293.637	1216.056
832.524	20.706	1293.144	1216.903
833.539	20.812	1292.408	1216.814
834.553	21.054	1291.312	1217.334
835.568	20.931	1290.408	1215.468
836.582	21.219	1288.481	1215.528
837.597	21.236	1286.929	1214.036
838.612	21.148	1285.430	1211.863
839.626	20.954	1284.991	1209.948
840.641	20.859	1283.838	1208.058
841.655	20.463	1282.964	1204.332
842.670	20.156	1281.363	1200.548
843.685	19.946	1280.290	1197.935
844.699	20.266	1280.128	1199.865
845.714	20.664	1279.151	1201.574
846.728	20.957	1278.159	1202.528
847.743	20.961	1277.380	1201.679
848.758	21.132	1276.397	1201.791
849.772	20.915	1274.992	1198.828
850.787	20.952	1274.290	1198.282
851.801	21.016	1272.948	1197.312
852.816	21.066	1271.210	1195.880
853.831	20.944	1268.881	1192.709
854.845	21.072	1267.546	1192.193
855.860	20.894	1265.797	1189.180
856.874	20.768	1264.648	1187.094
857.889	20.417	1263.175	1183.167
858.904	20.113	1261.824	1179.683
859.918	20.029	1259.173	1176.491
860.933	19.824	1258.214	1174.053
861.947	20.113	1258.483	1176.137
862.962	20.512	1257.280	1177.590
863.977	20.473	1256.540	1176.491
864.991	20.743	1256.106	1177.778
866.006	20.827	1255.951	1178.067
867.020	21.012	1254.329	1177.659
868.035	20.996	1253.429	1176.566
869.049	21.056	1252.541	1175.997
870.064	21.081	1251.429	1174.981
871.079	21.142	1250.785	1174.647
872.093	20.921	1250.396	1172.647
873.108	21.134	1249.452	1173.058
874.122	20.928	1247.492	1169.692
875.137	20.506	1246.729	1165.991
876.152	20.432	1245.704	1164.390
877.166	20.528	1244.008	1163.317
878.181	20.832	1243.077	1164.348
879.195	20.989	1243.226	1165.399
880.210	21.117	1242.296	1165.254
881.225	21.189	1241.137	1164.507
882.239	21.127	1240.488	1163.345
883.254	21.054	1239.706	1161.980
884.268	21.228	1238.855	1162.211
885.283	21.165	1237.678	1160.542
886.298	21.124	1235.859	1158.429
887.312	21.106	1234.791	1157.165
888.327	21.168	1232.947	1155.710
889.341	21.099	1232.658	1154.841
890.356	20.980	1232.638	1153.897
891.371	21.108	1231.531	1153.573
892.385	21.078	1230.401	1152.174
893.400	20.807	1229.235	1149.152
894.414	20.606	1227.961	1146.487
895.429	20.603	1226.087	1144.581
896.444	20.012	1223.867	1138.469
897.458	19.634	1222.481	1134.552
898.473	20.041	1222.325	1136.952
899.487	20.467	1222.364	1139.662
900.502	20.790	1221.883	1141.205
901.517	20.941	1220.777	1141.028
902.531	21.002	1219.791	1140.375
903.546	21.154	1218.882	1140.386
904.560	21.222	1218.169	1140.026
905.575	21.104	1217.811	1138.786
906.589	21.175	1216.155	1137.565
907.604	21.096	1215.588	1136.379
