DTS Sentinel unit serial number:	SN409020Multiplexer serial number:	ORYXHardware model number:	OX4-SRSoftware version number:	ORYX F/W v3.00 Oryx Data Collector v3.7.2.0data status	okinstallation	HaddamTimeLapsedifferential loss correction	single-endedforward channel	channel 3reverse channel	N/Adate	2011/06/22time	08:31:17forward acquisition time	30.00reverse acquisition time	0.00gamma	498.7831k internal	0.1781k external	0.1781temperature offset calibration	1.0074default loss term (dB/km)	0.3790temperature slope calibration	1.3530multiplexer offset coefficient	1.0000multiplexer slope coefficient	1.0000fibre end	0.00T internal ref (°C)	25.87T ext. ref 1 (°C)	23.57T ext. ref 2 (°C)	0.17length (m)	temperature (°C)	Stokes	anti-Stokes-747.200	108.622	-0.147	0.229
-746.185	171.317	0.263	0.495
-745.171	325.491	-0.173	0.433
-744.156	607.700	-0.113	0.369
-743.142	-165.147	-0.438	-0.025
-742.127	584.502	-0.209	0.675
-741.112	-81.968	0.344	-0.146
-740.098	483.820	-0.082	0.246
-739.083	113.450	-0.318	-0.506
-738.069	84.402	-0.240	-0.343
-737.054	342.098	0.214	-0.549
-736.039	358.418	-0.084	-0.221
-735.025	-17.142	-0.214	0.176
-734.010	-54.042	0.337	0.200
-732.996	18.499	-0.356	-0.371
-731.981	-200.000	-0.055	-0.325
-730.966	-78.389	-0.050	0.022
-729.952	-200.000	-0.018	-0.168
-728.937	800.000	-0.025	-0.117
-727.923	19.504	-0.123	-0.129
-726.908	-200.000	-0.021	-0.138
-725.894	-81.566	0.123	-0.052
-724.879	-69.609	-0.389	-0.194
-723.864	447.865	0.061	0.175
-722.850	131.667	0.181	-0.304
-721.835	-63.901	0.306	0.163
-720.821	-200.000	0.014	-0.275
-719.806	49.774	-0.086	0.106
-718.791	800.000	-0.025	0.139
-717.777	184.984	-0.114	-0.221
-716.762	722.347	0.091	-0.319
-715.748	-83.626	0.209	0.087
-714.733	-103.306	-0.511	0.156
-713.718	-200.000	-0.010	0.131
-712.704	157.664	-0.098	-0.178
-711.689	428.562	0.103	0.293
-710.675	450.951	-0.102	0.295
-709.660	800.000	0.030	0.123
-708.645	-97.112	0.175	0.059
-707.631	589.081	-0.126	0.406
-706.616	-200.000	0.029	0.230
-705.602	800.000	0.029	0.129
-704.587	800.000	-0.106	0.608
-703.572	7.292	0.265	0.258
-702.558	-91.624	0.155	-0.057
-701.543	-48.808	0.856	0.534
-700.529	-75.995	-0.229	-0.105
-699.514	-155.899	0.638	0.052
-698.499	510.483	0.087	0.266
-697.485	-168.755	0.374	0.018
-696.470	13.675	0.227	0.230
-695.456	782.180	0.014	-0.051
-694.441	-143.282	0.646	-0.080
-693.426	-176.607	0.837	-0.028
-692.412	800.000	0.142	-0.543
-691.397	-200.000	0.052	0.364
-690.383	-200.000	-0.028	0.235
-689.368	-51.273	0.247	0.150
-688.354	-108.451	0.057	0.016
-687.339	29.435	-0.161	-0.179
-686.324	-15.177	-0.149	0.124
-685.310	-153.505	0.312	0.028
-684.295	-80.403	-0.207	-0.090
-683.281	191.448	-0.180	-0.354
-682.266	-24.817	0.081	0.063
-681.251	-200.000	0.020	-0.216
-680.237	658.890	0.095	0.320
-679.222	688.173	-0.133	-0.457
-678.208	523.372	0.185	-0.569
-677.193	-46.629	-0.315	-0.200
-676.178	161.371	-0.227	-0.415
-675.164	156.889	-0.115	-0.207
-674.149	-149.920	-0.563	-0.057
-673.135	-200.000	0.023	-0.164
-672.120	178.971	-0.162	-0.310
-671.105	-200.000	-0.014	-0.389
-670.091	-82.072	-0.305	0.129
-669.076	207.037	0.113	-0.231
-668.062	579.196	0.129	-0.413
-667.047	-15.332	0.227	-0.188
-666.032	-33.781	0.296	0.212
-665.018	-40.257	-0.269	-0.182
-664.003	-42.468	-0.040	0.027
-662.989	36.360	-0.037	-0.043
-661.974	33.545	-0.118	-0.133
-660.959	-121.462	-0.058	-0.012
-659.945	-20.546	-0.378	0.302
-658.930	-55.388	0.344	-0.200
-657.916	-63.664	-0.359	-0.191
-656.901	-96.969	0.361	0.123
-655.886	-98.142	0.310	-0.103
-654.872	-87.086	-0.183	-0.072
-653.857	-12.757	-0.222	-0.188
-652.843	-27.513	-0.353	-0.266
-651.828	800.000	-0.065	0.303
-650.814	-6.553	0.171	-0.152
-649.799	-65.052	-0.308	0.161
-648.784	-61.930	0.472	0.256
-647.770	-61.175	-0.581	0.318
-646.755	-88.284	-0.332	0.128
-645.741	-99.806	-0.228	-0.074
-644.726	-114.610	0.138	0.034
-643.711	138.435	-0.146	0.250
-642.697	-31.530	-0.265	-0.194
-641.682	-163.705	0.542	0.033
-640.668	-124.702	0.436	-0.087
-639.653	-40.508	-0.192	0.129
-638.638	-88.821	-0.245	0.094
-637.624	83.074	0.262	0.372
-636.609	17.235	0.271	0.279
-635.595	129.290	-0.084	-0.140
-634.580	-147.645	0.355	-0.038
-633.565	599.315	0.186	0.604
-632.551	72.171	0.483	-0.655
-631.536	116.174	0.119	-0.190
-630.522	22.566	-0.136	-0.144
-629.507	8.216	-0.208	0.203
-628.492	-25.964	0.188	-0.143
-627.478	-200.000	-0.021	0.280
-626.463	51.809	0.181	-0.224
-625.449	263.130	0.106	0.241
-624.434	143.865	0.119	0.207
-623.419	377.977	-0.067	-0.178
-622.405	-179.250	-0.250	0.007
-621.390	-108.932	-0.318	-0.088
-620.376	151.581	0.351	0.623
-619.361	-60.936	-0.544	0.298
-618.346	-200.000	0.021	0.847
-617.332	-200.000	0.002	0.597
-616.317	499.087	-0.153	0.461
-615.303	673.732	-0.100	0.339
-614.288	62.577	-0.457	0.594
-613.273	-200.000	-0.032	0.296
-612.259	-67.430	-0.382	-0.194
-611.244	-200.000	-0.049	-0.423
-610.230	-80.981	-0.311	-0.133
-609.215	13.453	-0.171	-0.173
-608.201	-102.474	0.229	-0.071
-607.186	-135.973	-0.376	0.057
-606.171	800.000	0.086	0.319
-605.157	1.709	0.351	0.328
-604.142	20.927	-0.298	0.314
-603.128	163.228	-0.133	0.243
-602.113	17.053	-0.072	-0.074
-601.098	-18.871	0.144	-0.116
-600.084	800.000	-0.057	-0.309
-599.069	736.025	-0.060	-0.211
-598.055	459.388	-0.024	0.070
-597.040	668.499	0.216	-0.729
-596.025	-124.709	0.286	0.057
-595.011	62.122	-0.097	0.126
-593.996	-200.000	0.007	-0.471
-592.982	-200.000	0.010	0.158
-591.967	800.000	-0.110	-0.472
-590.952	-66.824	-0.681	0.348
-589.938	-0.921	0.052	-0.048
-588.923	-11.926	-0.358	0.305
-587.909	23.281	-0.383	0.408
-586.894	223.025	0.158	0.332
-585.879	124.515	-0.343	0.562
-584.865	274.501	-0.210	0.485
-583.850	1.928	-0.237	0.222
-582.836	299.024	-0.165	-0.395
-581.821	-95.548	0.919	0.318
-580.806	800.000	-0.058	0.316
-579.792	279.552	-0.171	-0.397
-578.777	-146.613	-0.330	-0.037
-577.763	85.429	-0.400	0.571
-576.748	-41.833	0.251	-0.167
-575.733	-83.705	0.542	0.223
-574.719	-62.752	-0.204	0.109
-573.704	249.119	0.256	-0.565
-572.690	0.859	-0.405	-0.376
-571.675	-200.000	-0.034	-0.256
-570.661	-13.054	0.042	0.035
-569.646	-35.641	0.395	-0.277
-568.631	-86.306	0.202	-0.080
-567.617	25.768	0.141	0.153
-566.602	-34.519	-0.356	-0.252
-565.588	-37.721	0.288	0.198
-564.573	-200.000	-0.096	0.624
-563.558	-46.158	-0.104	-0.066
-562.544	202.306	-0.118	0.238
-561.529	-146.465	0.439	0.049
-560.515	-12.036	0.038	0.032
-559.500	-58.527	0.189	0.106
-558.485	49.729	0.301	0.368
-557.471	630.542	0.095	0.313
-556.456	-176.794	-0.517	0.017
-555.442	-141.467	0.381	-0.049
-554.427	-28.334	0.169	0.126
-553.412	409.173	0.172	-0.475
-552.398	-62.770	0.418	-0.224
-551.383	69.166	-0.238	-0.318
-550.369	12.959	0.141	-0.141
-549.354	-200.000	-0.010	0.362
-548.339	114.604	0.226	0.357
-547.325	-35.009	0.272	-0.192
-546.310	-51.590	-0.331	0.199
-545.296	-200.000	0.041	-0.421
-544.281	-144.616	0.403	0.048
-543.266	-112.362	-0.510	-0.131
-542.252	-198.032	-0.031	-0.000
-541.237	-77.697	0.563	0.251
-540.223	800.000	-0.050	-0.241
-539.208	-140.704	-0.711	0.094
-538.193	42.795	0.134	-0.158
-537.179	-149.058	0.272	0.028
-536.164	-4.968	0.197	0.176
-535.150	-38.884	0.571	0.389
-534.135	800.000	-0.056	-0.230
-533.121	225.193	0.184	0.387
-532.106	-144.802	0.477	0.056
-531.091	-200.000	-0.004	-0.440
-530.077	214.595	0.144	-0.296
-529.062	144.338	-0.273	0.474
-528.048	800.000	0.060	-0.225
-527.033	495.943	-0.061	-0.183
-526.018	313.116	-0.089	-0.217
-525.004	195.388	0.174	-0.344
-523.989	-55.297	-0.176	0.102
-522.975	173.334	0.200	-0.374
-521.960	-105.686	0.213	0.062
-520.945	84.799	0.246	-0.349
-519.931	-86.932	-0.275	-0.108
-518.916	45.650	-0.321	-0.384
-517.902	782.728	0.149	-0.531
-516.887	-90.785	-0.231	-0.086
-515.872	413.155	-0.108	0.300
-514.858	-132.985	-0.703	-0.114
-513.843	-102.378	-0.210	0.065
-512.829	8.797	0.426	0.416
-511.814	-200.000	0.033	0.392
-510.799	0.486	-0.362	-0.334
-509.785	-104.184	0.349	-0.104
-508.770	-34.834	0.264	-0.186
-507.756	6.084	-0.290	-0.278
-506.741	-57.652	0.075	0.042
-505.726	-161.241	0.121	0.008
-504.712	204.933	-0.139	-0.281
-503.697	-92.543	0.193	0.070
-502.683	-151.203	0.809	0.077
-501.668	-111.956	0.277	-0.072
-500.653	16.854	-0.218	-0.223
-499.639	-200.000	-0.028	-0.241
-498.624	-150.082	0.239	0.024
-497.610	-18.693	-0.221	0.178
-496.595	75.587	-0.200	0.274
-495.581	-54.180	0.449	0.263
-494.566	185.037	-0.111	0.213
-493.551	-11.840	-0.380	-0.322
-492.537	-56.007	0.194	-0.112
-491.522	28.756	-0.107	-0.117
-490.508	35.588	-0.339	0.386
-489.493	447.732	0.063	0.180
-488.478	399.144	-0.109	0.296
-487.464	177.429	0.177	0.335
-486.449	-50.318	0.209	0.128
-485.435	-71.476	0.610	-0.294
-484.420	-11.125	-0.122	0.104
-483.405	116.196	0.153	0.243
-482.391	-57.883	-0.363	0.205
-481.376	-124.007	-0.278	-0.056
-480.362	-7.655	-0.140	-0.123
-479.347	55.416	-0.105	-0.131
-478.332	-200.000	-0.010	0.140
-477.318	800.000	-0.071	-0.334
-476.303	234.994	-0.072	0.154
-475.289	576.895	-0.280	0.891
-474.274	92.998	-0.485	0.709
-473.259	-182.180	-0.239	-0.006
-472.245	43.433	-0.368	0.434
-471.230	-86.924	-0.395	0.155
-470.216	178.352	-0.054	-0.103
-469.201	-200.000	-0.044	0.352
-468.186	58.011	-0.180	0.228
-467.172	-17.816	-0.204	-0.165
-466.157	-200.000	0.042	-0.680
-465.143	-93.703	0.067	-0.024
-464.128	209.770	0.043	-0.087
-463.113	-154.557	0.748	0.064
-462.099	-6.550	0.270	0.237
-461.084	800.000	-0.095	-0.510
-460.070	-70.041	-0.245	0.120
-459.055	800.000	0.088	0.338
-458.040	-86.369	0.228	-0.090
-457.026	-56.729	-0.199	-0.113
-456.011	-107.578	-0.329	-0.092
-454.997	800.000	-0.106	0.441
-453.982	-200.000	0.017	0.377
-452.968	171.533	0.067	0.125
-451.953	-23.139	-0.352	-0.273
-450.938	-200.000	0.035	-0.256
-449.924	-133.074	0.474	-0.077
-448.909	800.000	-0.126	-0.509
-447.895	70.585	0.145	0.194
-446.880	-134.583	0.205	0.032
-445.865	-31.190	-0.280	-0.203
-444.851	-200.000	0.082	0.537
-443.836	172.910	-0.057	0.106
-442.822	-200.000	0.001	0.207
-441.807	-42.702	-0.073	-0.048
-440.792	43.930	0.320	-0.379
-439.778	-12.079	-0.195	-0.165
-438.763	269.638	0.202	-0.460
-437.749	45.058	-0.360	0.428
-436.734	-23.327	0.289	0.224
-435.719	-43.871	-0.187	-0.121
-434.705	77.667	-0.143	0.197
-433.690	800.000	0.067	-0.263
-432.676	-10.784	0.217	-0.185
-431.661	-200.000	0.018	-0.401
-430.646	355.508	0.205	-0.529
-429.632	-110.683	-0.072	-0.019
-428.617	224.580	0.073	-0.153
-427.603	-156.229	0.078	0.006
-426.588	-106.899	-0.361	-0.102
-425.573	800.000	-0.031	0.124
-424.559	210.802	0.084	-0.172
-423.544	616.107	-0.115	-0.375
-422.530	-59.191	0.217	-0.120
-421.515	565.516	0.147	0.463
-420.500	-89.900	0.219	-0.082
-419.486	705.097	-0.164	-0.561
-418.471	800.000	-0.160	-0.753
-417.457	-21.388	-0.360	-0.283
-416.442	181.712	-0.126	0.239
-415.428	159.406	0.118	-0.213
-414.413	107.541	0.096	-0.147
-413.398	-17.340	0.344	-0.279
-412.384	387.367	-0.215	-0.575
-411.369	-200.000	-0.029	0.443
-410.355	-25.097	0.044	0.034
-409.340	-51.225	0.549	-0.331
-408.325	-200.000	-0.007	0.087
-407.311	-137.749	-0.288	0.041
-406.296	-64.577	-0.230	-0.120
-405.282	56.591	0.098	-0.123
-404.267	-140.928	0.494	0.065
-403.252	159.048	0.116	0.209
-402.238	-67.031	-0.184	0.093
-401.223	-200.000	0.014	0.236
-400.209	-96.023	-0.337	0.115
-399.194	87.926	0.127	0.181
-398.179	-120.919	0.113	-0.024
-397.165	-36.394	-0.151	-0.104
-396.150	373.898	-0.028	0.074
-395.136	270.723	0.211	0.480
-394.121	-91.449	0.326	-0.119
-393.106	17.711	0.147	-0.151
-392.092	-124.714	-0.224	-0.044
-391.077	446.415	-0.161	-0.458
-390.063	-86.027	-0.408	-0.161
-389.048	41.735	0.100	-0.117
-388.033	159.304	-0.149	0.268
-387.019	-141.070	-0.544	-0.071
-386.004	136.517	-0.089	0.149
-384.990	-164.546	0.366	0.021
-383.975	-200.000	0.017	-0.178
-382.960	9.267	-0.045	-0.043
-381.946	-5.527	-0.146	-0.129
-380.931	125.104	-0.231	0.376
-379.917	-176.819	0.490	0.016
-378.902	-200.000	-0.006	-0.428
-377.888	-52.397	0.403	0.239
-376.873	0.727	-0.111	0.102
-375.858	-200.000	-0.007	0.119
-374.844	363.426	0.184	0.478
-373.829	800.000	-0.114	-0.408
-372.815	262.576	-0.188	-0.423
-371.800	-166.653	0.515	-0.027
-370.785	-30.633	-0.129	-0.094
-369.771	800.000	0.067	0.282
-368.756	-134.487	0.325	0.051
-367.742	-115.227	0.487	-0.118
-366.727	-16.891	0.275	0.224
-365.712	-146.867	-0.156	0.017
-364.698	326.178	0.136	-0.335
-363.683	-68.003	-0.580	-0.290
-362.669	-160.413	-0.198	-0.014
-361.654	-28.251	-0.122	-0.090
-360.639	-55.783	-0.184	0.106
-359.625	-190.293	0.243	-0.003
-358.610	-44.756	0.245	-0.157
-357.596	-172.241	0.140	-0.006
-356.581	-200.000	-0.039	0.316
-355.566	-89.783	-0.420	-0.157
-354.552	165.945	0.099	0.180
-353.537	-34.131	-0.212	0.149
-352.523	-200.000	0.044	0.426
-351.508	59.210	0.094	0.119
-350.493	-200.000	0.053	0.404
-349.479	-0.263	-0.199	-0.182
-348.464	446.572	0.010	0.028
-347.450	-25.903	0.228	-0.172
-346.435	-109.608	-0.518	0.140
-345.420	-38.426	0.338	0.229
-344.406	-129.841	-0.408	-0.071
-343.391	526.441	-0.083	0.254
-342.377	-52.387	-0.193	0.114
-341.362	115.858	-0.080	-0.126
-340.348	800.000	-0.046	-0.226
-339.333	-200.000	-0.033	-0.273
-338.318	25.205	0.074	0.079
-337.304	-64.367	-0.492	-0.257
-336.289	-165.957	0.155	-0.008
-335.275	85.380	0.122	-0.173
-334.260	-35.453	-0.220	0.153
-333.245	-116.206	-0.270	0.064
-332.231	291.532	-0.030	0.070
-331.216	302.070	-0.109	0.261
-330.202	133.732	0.260	0.434
-329.187	-0.859	0.315	0.286
-328.172	-117.047	-0.145	0.034
-327.158	800.000	-0.063	-0.290
-326.143	205.714	0.059	0.119
-325.129	-139.723	0.386	-0.052
-324.114	223.687	0.188	-0.392
-323.099	21.162	0.273	-0.284
-322.085	120.629	0.099	0.158
-321.070	-199.933	0.385	0.002
-320.056	20.420	-0.283	-0.294
-319.041	-34.191	0.154	-0.109
-318.026	-36.097	-0.684	0.474
-317.012	-200.000	-0.028	0.550
-315.997	-200.000	-0.005	-0.363
-314.983	66.687	0.172	-0.225
-313.968	-142.561	0.345	0.043
-312.953	4.700	0.320	0.301
-311.939	-15.991	0.212	-0.173
-310.924	800.000	-0.060	-0.244
-309.910	-23.653	-0.148	0.113
-308.895	-46.857	0.427	-0.268
-307.880	-169.002	-0.314	0.015
-306.866	186.025	0.175	0.336
-305.851	-200.000	0.158	-0.000
-304.837	106.700	0.248	-0.379
-303.822	42.956	0.131	0.154
-302.807	99.120	0.096	0.142
-301.793	-200.000	0.005	0.129
-300.778	106.989	-0.093	-0.143
-299.764	-200.000	-0.015	-0.281
-298.749	-200.000	-0.023	-0.196
-297.735	800.000	-0.091	-0.417
-296.720	204.970	0.183	-0.367
-295.705	-78.184	0.222	0.098
-294.691	-79.939	0.271	0.116
-293.676	-200.000	-0.029	-0.293
-292.662	-200.000	-0.048	0.473
-291.647	-91.901	-0.477	0.172
-290.632	-200.000	0.042	-0.472
-289.618	-51.751	0.424	0.253
-288.603	-200.000	0.005	0.328
-287.589	224.129	-0.145	0.303
-286.574	93.575	0.100	0.145
-285.559	-30.334	-0.214	-0.155
-284.545	-121.417	-0.646	-0.137
-283.530	800.000	-0.077	-0.359
-282.516	-33.454	0.513	-0.363
-281.501	-34.218	-0.214	0.151
-280.486	-15.269	-0.380	-0.311
-279.472	29.118	-0.254	-0.277
-278.457	-109.498	0.292	-0.079
-277.443	-60.200	-0.239	-0.130
-276.428	99.698	-0.123	-0.183
-275.413	800.000	-0.196	-0.760
-274.399	97.556	0.309	0.456
-273.384	273.378	0.118	-0.267
-272.370	255.650	-0.135	0.298
-271.355	134.568	0.083	0.138
-270.340	-118.740	0.308	-0.069
-269.326	-16.179	-0.256	-0.209
-268.311	-103.008	-0.128	0.039
-267.297	-43.238	-0.410	-0.265
-266.282	-113.540	0.278	0.069
-265.267	80.126	0.178	0.245
-264.253	443.618	-0.073	0.207
-263.238	311.794	-0.055	-0.134
-262.224	-125.889	0.239	-0.046
-261.209	64.571	-0.072	-0.093
-260.195	134.269	0.242	-0.404
-259.180	635.877	0.144	0.473
-258.165	88.119	0.374	0.533
-257.151	-133.976	0.297	-0.047
-256.136	-73.290	0.227	0.106
-255.122	-127.973	0.252	-0.046
-254.107	42.714	0.066	0.077
-253.092	800.000	0.094	-0.371
-252.078	-200.000	0.622	0.003
-251.063	384.420	-0.113	0.300
-250.049	-71.383	-0.581	-0.278
-249.034	-113.423	0.235	-0.059
-248.019	172.300	-0.121	0.223
-247.005	20.847	0.066	-0.069
-245.990	-17.510	-0.036	-0.029
-244.976	60.884	-0.168	-0.213
-243.961	324.525	-0.041	0.101
-242.946	550.289	-0.110	0.339
-241.932	-68.146	-0.320	0.159
-240.917	-101.052	-0.250	0.078
-239.903	36.457	-0.200	-0.226
-238.888	-76.319	-0.164	-0.073
-237.873	-112.676	-0.254	0.064
-236.859	41.587	0.132	0.153
-235.844	-23.422	-0.233	0.179
-234.830	-157.167	0.054	-0.004
-233.815	-200.000	-0.029	-0.316
-232.800	-106.037	-0.236	0.068
-231.786	33.455	0.032	-0.036
-230.771	-200.000	0.011	-0.457
-229.757	-87.479	-0.256	-0.099
-228.742	340.169	-0.150	0.376
-227.727	-156.349	-0.295	-0.023
-226.713	-94.387	-0.459	0.160
-225.698	-200.000	-0.168	-0.000
-224.684	-148.718	0.279	0.029
-223.669	-130.049	-0.017	-0.003
-222.655	-119.049	0.371	-0.082
-221.640	-200.000	-0.004	-0.547
-220.625	-9.888	0.104	0.089
-219.611	-200.000	-0.003	-0.097
-218.596	-173.498	-0.083	-0.003
-217.582	-200.000	0.011	-0.112
-216.567	16.485	-0.122	-0.123
-215.552	-53.195	-0.273	-0.160
-214.538	259.872	-0.059	0.130
-213.523	-191.629	-0.206	0.003
-212.509	438.468	-0.023	0.063
-211.494	-93.792	-0.054	-0.019
-210.479	-200.000	-0.025	-0.436
-209.465	407.022	-0.177	-0.481
-208.450	-200.000	0.084	-0.483
-207.436	-1.922	0.449	0.403
-206.421	800.000	0.021	-0.082
-205.406	83.184	-0.282	-0.393
-204.392	-200.000	-0.033	-0.187
-203.377	-63.398	-0.604	-0.317
-202.363	-109.691	-0.233	0.062
-201.348	-157.871	-0.420	-0.031
-200.333	91.243	0.068	0.098
-199.319	-200.000	0.012	0.246
-198.304	11.486	0.217	0.212
-197.290	-200.000	0.009	0.236
-196.275	-167.770	-0.239	-0.012
-195.260	161.896	-0.111	0.199
-194.246	-6.046	0.132	-0.115
-193.231	18.779	-0.276	0.283
-192.217	16.165	-0.298	-0.301
-191.202	90.536	-0.024	0.034
-190.187	-62.669	0.325	-0.171
-189.173	14.954	0.078	0.078
-188.158	-31.899	0.350	0.250
-187.144	-20.808	0.241	-0.188
-186.129	-111.963	-0.167	-0.043
-185.114	199.482	0.070	0.137
-184.100	526.760	-0.038	0.114
-183.085	372.156	0.013	-0.033
-182.071	-145.404	-0.087	-0.010
-181.056	-198.635	-0.245	-0.002
-180.042	-29.788	0.276	0.201
-179.027	-121.899	0.412	0.086
-178.012	-93.972	0.067	0.024
-176.998	291.495	0.061	-0.143
-175.983	-104.294	0.293	0.086
-174.969	-200.000	0.035	-0.346
-173.954	800.000	-0.117	-0.606
-172.939	469.113	0.103	-0.297
-171.925	-38.876	0.131	-0.088
-170.910	-56.511	0.093	0.052
-169.896	-85.656	-0.290	-0.115
-168.881	372.466	0.101	0.263
-167.866	191.801	-0.160	-0.309
-166.852	94.494	0.104	-0.150
-165.837	159.808	0.039	-0.070
-164.823	-49.719	0.254	-0.154
-163.808	341.479	-0.133	0.335
-162.793	-8.260	-0.362	0.311
-161.779	-9.120	0.225	0.192
-160.764	-142.747	0.243	-0.030
-159.750	-18.871	0.336	-0.267
-158.735	718.971	-0.161	-0.550
-157.720	-200.000	0.071	-0.519
-156.706	800.000	-0.051	0.213
-155.691	-110.692	0.460	0.121
-154.677	346.109	0.172	0.432
-153.662	76.971	0.287	0.389
-152.647	95.347	0.057	-0.083
-151.633	-59.924	0.262	0.142
-150.618	-136.077	-0.343	0.051
-149.604	-122.649	0.499	0.102
-148.589	-200.000	-0.013	0.171
-147.574	209.625	0.268	-0.539
-146.560	-200.000	0.020	0.235
-145.545	-174.036	-0.175	-0.006
-144.531	518.526	-0.097	-0.293
-143.516	493.188	-0.162	-0.475
-142.502	-119.286	-0.266	0.059
-141.487	-67.738	0.476	0.237
-140.472	93.013	0.108	0.155
-139.458	-0.247	0.318	0.289
-138.443	19.824	0.109	0.112
-137.429	-87.475	-0.316	-0.121
-136.414	800.000	-0.086	-0.392
-135.399	-63.860	0.264	-0.137
-134.385	-58.025	0.282	-0.156
-133.370	564.561	-0.152	-0.472
-132.356	-63.371	0.246	-0.129
-131.341	-68.029	0.084	0.042
-130.326	600.709	-0.059	0.188
-129.312	11.087	0.102	0.100
-128.297	165.864	0.247	-0.448
-127.283	-125.935	0.424	0.081
-126.268	-168.560	-0.205	0.010
-125.253	800.000	0.005	0.020
-124.239	-46.709	-0.333	-0.207
-123.224	-140.389	0.498	0.066
-122.210	-53.171	-0.360	-0.210
-121.195	-62.383	0.347	0.184
-120.180	-200.000	0.033	-0.254
-119.166	12.983	0.169	-0.167
-118.151	-31.423	0.180	-0.129
-117.137	178.694	0.118	0.220
-116.122	168.380	0.173	-0.314
-115.107	15.676	0.431	-0.432
-114.093	180.566	-0.189	0.355
-113.078	-43.785	0.071	-0.046
-112.064	312.376	0.262	-0.629
-111.049	23.933	0.072	-0.076
-110.034	791.646	-0.168	-0.591
-109.020	-129.172	-0.229	-0.040
-108.005	-172.957	0.350	-0.014
-106.991	219.742	0.150	0.306
-105.976	-65.455	-0.480	-0.245
-104.962	-200.000	-0.010	0.519
-103.947	-48.407	-0.215	0.131
-102.932	800.000	-0.034	0.124
-101.918	-200.000	0.003	0.350
-100.903	-33.943	0.210	-0.147
-99.889	-200.000	0.000	-0.147
-98.874	40.343	0.068	-0.078
-97.859	-45.955	0.228	0.143
-96.845	58.310	0.230	0.287
-95.830	13.369	-0.408	-0.403
-94.816	-117.064	-0.139	-0.032
-93.801	139.564	0.286	-0.481
-92.786	-19.841	-0.116	0.091
-91.772	800.000	-0.168	0.645
-90.757	-136.636	0.381	0.056
-89.743	-8.411	0.351	-0.300
-88.728	77.108	0.507	-0.687
-87.713	-127.888	-0.208	0.038
-86.699	-141.755	-0.269	-0.034
-85.684	-31.504	0.334	0.239
-84.670	62.765	0.378	-0.481
-83.655	-93.300	-0.376	0.132
-82.640	-133.694	-0.074	0.012
-81.626	15.692	-0.364	-0.364
-80.611	-82.327	-0.223	-0.092
-79.597	-129.452	0.121	-0.021
-78.582	79.781	0.227	-0.310
-77.567	-16.366	0.269	-0.217
-76.553	30.494	0.178	-0.194
-75.538	-8.487	-0.241	-0.206
-74.524	143.417	0.252	-0.429
-73.509	-114.916	-0.479	0.115
-72.494	-29.349	-0.078	0.057
-71.480	-103.564	0.307	0.091
-70.465	524.903	0.047	0.142
-69.451	145.031	0.193	-0.330
-68.436	800.000	-0.065	-0.344
-67.422	800.000	0.040	-0.156
-66.407	-78.616	-0.605	0.262
-65.392	-124.093	0.298	-0.059
-64.378	253.590	0.175	0.381
-63.363	15.370	0.141	0.140
-62.349	-25.416	0.328	0.246
-61.334	28.974	-2.003	-2.160
-60.319	68.759	0.716	0.936
-59.305	243.918	-3.291	-7.050
-58.290	31.220	3.890	4.247
-57.276	321.056	4.264	10.350
-56.261	-200.000	18.986	277.904
-55.246	404.075	1235.912	3325.136
-54.232	59.390	2813.120	3527.353
-53.217	69.938	2677.881	3516.096
-52.203	36.078	2409.493	2698.008
-51.188	32.971	2067.158	2277.010
-50.173	28.102	1946.651	2088.451
-49.159	26.812	1936.105	2062.321
-48.144	26.294	1931.763	2051.706
-47.130	26.101	1930.082	2047.633
-46.115	26.212	1927.133	2045.689
-45.100	26.061	1926.731	2043.459
-44.086	26.059	1924.831	2041.342
-43.071	26.093	1923.229	2039.949
-42.057	26.094	1922.135	2038.724
-41.042	26.093	1921.539	2037.998
-40.027	26.102	1919.761	2036.129
-39.013	26.081	1918.420	2034.384
-37.998	26.047	1917.203	2032.632
-36.984	26.058	1915.496	2030.864
-35.969	25.993	1914.412	2028.897
-34.954	26.055	1913.118	2028.152
-33.940	25.931	1912.639	2026.159
-32.925	25.912	1911.364	2024.520
-31.911	26.063	1909.271	2023.926
-30.896	26.059	1907.354	2021.762
-29.881	25.951	1907.535	2020.654
-28.867	25.853	1906.280	2018.145
-27.852	25.778	1904.325	2015.156
-26.838	25.915	1902.438	2014.612
-25.823	25.803	1901.720	2012.517
-24.809	25.963	1899.654	2012.041
-23.794	25.906	1898.223	2009.809
-22.779	25.903	1897.462	2008.893
-21.765	25.773	1897.040	2006.909
-20.750	25.872	1894.879	2005.654
-19.736	26.003	1893.415	2005.480
-18.721	25.782	1893.073	2002.572
-17.706	25.827	1892.085	2001.951
-16.692	25.717	1891.324	1999.841
-15.677	25.741	1889.749	1998.361
-14.663	25.832	1887.976	1997.421
-13.648	25.821	1886.472	1995.630
-12.633	25.853	1884.848	1994.183
-11.619	25.827	1883.783	1992.688
-10.604	25.746	1882.827	1990.701
-9.590	25.753	1882.177	1990.009
-8.575	25.686	1881.733	1988.725
-7.560	25.720	1879.727	1986.901
-6.546	25.953	1877.436	1986.981
-5.531	25.801	1876.610	1984.346
-4.517	25.628	1876.508	1982.244
-3.502	25.862	1874.606	1982.743
-2.487	25.780	1873.940	1981.049
-1.473	25.975	1870.109	1979.076
-0.458	25.993	1853.738	1961.870
0.556	23.373	1999.262	2072.752
1.571	22.886	2208.866	2283.458
2.586	24.092	2251.030	2342.730
3.600	24.110	2253.325	2345.075
4.615	24.020	2253.029	2343.290
5.629	24.153	2250.944	2342.602
6.644	24.165	2249.297	2340.762
7.659	24.124	2247.714	2338.293
8.673	24.209	2245.617	2336.952
9.688	23.954	2251.471	2339.394
10.702	22.353	2329.974	2398.754
11.717	20.496	2394.721	2438.953
12.731	10.244	2367.402	2267.155
13.746	1.540	2344.134	2122.855
14.761	0.296	2338.909	2100.441
15.775	0.166	2338.231	2097.761
16.790	0.099	2336.121	2094.672
17.804	0.016	2335.144	2092.385
18.819	0.068	2334.147	2091.978
19.834	0.124	2331.428	2090.065
20.848	0.037	2330.637	2087.889
21.863	0.080	2328.995	2086.773
22.877	-0.020	2327.113	2083.448
23.892	0.036	2325.177	2082.238
24.907	-0.022	2322.907	2079.155
25.921	-0.060	2321.294	2076.937
26.936	0.054	2318.363	2075.643
27.950	0.097	2315.223	2073.178
28.965	-0.019	2314.435	2070.625
29.980	0.030	2313.660	2070.359
30.994	0.117	2311.176	2069.091
32.009	5.283	2327.546	2155.264
33.023	18.408	2367.263	2375.846
34.038	24.936	2380.793	2480.350
35.053	26.208	2382.443	2499.479
36.067	26.193	2378.566	2494.903
37.082	25.608	2376.531	2484.348
38.096	25.365	2373.749	2477.770
39.111	25.577	2371.613	2478.194
40.126	25.954	2371.495	2482.990
41.140	26.531	2371.075	2490.235
42.155	26.222	2367.713	2482.131
43.169	26.026	2365.644	2476.959
44.184	26.435	2363.276	2479.828
45.199	26.143	2361.397	2473.544
46.213	25.962	2359.412	2468.666
47.228	25.928	2357.714	2466.129
48.242	26.087	2355.486	2465.685
49.257	26.247	2355.230	2467.322
50.271	26.473	2352.981	2467.778
51.286	26.540	2351.499	2466.842
52.301	26.363	2348.676	2461.165
53.315	25.278	2344.391	2441.548
54.330	23.376	2337.000	2407.612
55.344	22.408	2331.938	2388.915
56.359	22.444	2327.215	2384.276
57.374	22.216	2326.517	2380.170
58.388	22.191	2324.417	2377.397
59.403	22.440	2320.736	2376.727
60.417	22.747	2319.225	2379.056
61.432	22.859	2318.316	2379.358
62.447	22.851	2316.752	2377.355
63.461	22.751	2314.396	2373.312
64.476	22.706	2312.540	2370.514
65.490	23.155	2312.177	2375.918
66.505	23.706	2312.591	2383.490
67.520	24.748	2315.723	2400.498
68.534	25.826	2316.447	2415.500
69.549	26.600	2315.506	2424.662
70.563	26.929	2313.018	2426.181
71.578	27.053	2312.098	2426.600
72.593	26.943	2310.845	2423.512
73.607	26.764	2309.256	2419.151
74.622	26.796	2306.791	2416.717
75.636	26.786	2303.767	2413.122
76.651	26.682	2302.241	2409.844
77.666	26.792	2301.052	2409.776
78.680	26.882	2299.160	2408.712
79.695	27.165	2296.935	2409.857
80.709	27.282	2296.912	2411.114
81.724	27.461	2295.504	2411.723
82.739	27.366	2291.842	2406.325
83.753	27.112	2289.125	2399.817
84.768	26.910	2287.710	2395.367
85.782	26.897	2286.976	2394.131
86.797	26.803	2284.199	2389.700
87.812	26.566	2280.907	2382.838
88.826	26.363	2278.216	2377.057
89.841	26.491	2276.824	2377.007
90.855	26.891	2275.470	2380.584
91.870	26.567	2273.085	2373.540
92.884	26.347	2271.481	2368.677
93.899	26.659	2269.497	2370.434
94.914	25.849	2268.286	2358.232
95.928	24.127	2260.963	2327.736
96.943	23.409	2257.980	2314.963
97.957	24.920	2260.350	2336.953
98.972	26.119	2261.395	2353.484
99.987	26.079	2258.379	2349.538
101.001	26.152	2255.757	2347.484
102.016	26.347	2254.657	2348.597
103.030	26.321	2253.130	2346.390
104.045	26.545	2250.917	2346.730
105.060	26.915	2248.775	2349.023
106.074	26.911	2247.610	2347.480
107.089	26.681	2245.449	2341.954
108.103	26.872	2245.313	2344.004
109.118	26.993	2243.549	2343.454
110.133	26.983	2242.177	2341.614
111.147	27.342	2240.735	2344.483
112.162	27.387	2239.566	2343.562
113.176	26.948	2236.415	2334.310
114.191	26.947	2234.112	2331.606
115.206	26.927	2232.731	2329.627
116.220	26.942	2230.220	2326.922
117.235	26.837	2227.484	2322.438
118.249	26.653	2225.976	2318.220
119.264	26.879	2224.764	2319.592
120.279	26.950	2224.026	2319.453
121.293	26.925	2219.598	2314.237
122.308	26.874	2219.519	2313.229
123.322	26.817	2217.925	2310.555
124.337	26.195	2214.174	2298.421
125.352	24.486	2208.591	2270.521
126.366	23.930	2207.409	2261.933
127.381	25.456	2209.032	2282.829
128.395	26.262	2209.033	2292.838
129.410	26.774	2207.135	2297.122
130.424	26.900	2206.239	2297.515
131.439	26.801	2205.002	2294.693
132.454	26.758	2201.682	2290.411
133.468	26.814	2199.404	2288.484
134.483	26.682	2198.269	2285.353
135.497	26.517	2195.651	2280.264
136.512	26.722	2193.618	2280.477
137.527	26.648	2192.120	2277.706
138.541	26.855	2191.116	2279.015
139.556	26.603	2190.504	2274.913
140.570	26.751	2189.611	2275.588
141.585	27.032	2187.139	2276.284
142.600	26.880	2185.475	2272.373
143.614	26.690	2183.748	2267.909
144.629	26.760	2182.218	2266.925
145.643	26.619	2179.206	2261.762
146.658	26.459	2177.584	2257.797
147.673	26.534	2176.512	2257.353
148.687	26.575	2174.568	2255.589
149.702	26.417	2172.884	2251.594
150.716	26.124	2172.115	2246.864
151.731	26.341	2171.321	2248.479
152.746	26.766	2171.290	2253.490
153.760	25.918	2167.529	2238.730
154.775	23.822	2160.407	2205.001
155.789	22.965	2156.998	2190.584
156.804	24.625	2158.747	2212.782
157.819	25.971	2159.246	2229.771
158.833	26.333	2157.441	2232.137
159.848	26.651	2154.845	2233.126
160.862	26.805	2155.241	2235.182
161.877	27.047	2153.933	2236.547
162.892	26.820	2152.970	2232.474
163.906	26.851	2151.345	2230.907
164.921	26.811	2150.224	2228.975
165.935	26.920	2147.390	2227.125
166.950	26.850	2145.665	2224.201
167.964	26.769	2143.421	2220.604
168.979	26.587	2142.149	2216.793
169.994	26.939	2141.190	2219.861
171.008	26.960	2138.484	2217.043
172.023	26.853	2137.609	2214.561
173.037	26.784	2136.127	2211.908
174.052	26.836	2133.784	2209.858
175.067	26.705	2132.155	2206.304
176.081	26.750	2130.577	2204.963
177.096	26.831	2131.199	2206.333
178.110	26.700	2128.050	2201.210
179.125	26.605	2127.884	2199.604
180.140	26.988	2126.269	2202.352
181.154	27.010	2123.598	2199.586
182.169	26.624	2122.109	2193.086
183.183	25.759	2118.938	2179.026
184.198	23.596	2111.141	2144.504
185.213	23.285	2110.061	2139.369
186.227	25.431	2115.196	2170.416
187.242	26.738	2116.006	2186.847
188.256	27.079	2114.728	2189.398
189.271	27.141	2113.764	2188.889
190.286	27.108	2111.601	2185.983
191.300	26.883	2108.276	2179.562
192.315	26.670	2107.677	2176.111
193.329	26.810	2105.203	2174.987
194.344	26.897	2103.009	2173.512
195.359	26.763	2103.071	2171.702
196.373	27.009	2102.121	2173.425
197.388	26.912	2099.633	2169.425
198.402	26.678	2096.700	2163.323
199.417	26.636	2093.737	2159.500
200.432	26.647	2092.570	2158.172
201.446	26.839	2091.262	2158.867
202.461	26.934	2089.689	2158.112
203.475	26.587	2088.941	2152.944
204.490	26.608	2086.164	2150.070
205.504	26.613	2083.439	2147.064
206.519	26.487	2080.929	2142.718
207.534	26.320	2079.561	2139.066
208.548	26.454	2077.973	2138.770
209.563	26.427	2076.971	2137.166
210.577	26.040	2075.400	2130.697
211.592	26.273	2074.857	2132.647
212.607	25.335	2070.666	2116.976
213.621	22.983	2064.331	2082.429
214.636	23.108	2063.190	2082.509
215.650	25.135	2066.697	2109.795
216.665	25.995	2066.886	2119.906
217.680	26.332	2065.558	2122.259
218.694	26.604	2064.982	2124.625
219.709	26.638	2063.773	2123.528
220.723	26.573	2061.890	2120.569
221.738	26.716	2058.839	2118.862
222.753	26.529	2058.009	2115.554
223.767	26.772	2056.831	2116.943
224.782	26.437	2054.684	2110.551
225.796	26.338	2053.139	2107.549
226.811	26.465	2051.366	2106.968
227.826	26.623	2051.682	2108.891
228.840	26.866	2049.180	2108.905
229.855	26.650	2048.272	2105.192
230.869	26.791	2046.785	2105.065
231.884	26.957	2044.596	2104.497
232.899	26.658	2043.492	2099.621
233.913	26.652	2042.420	2098.198
234.928	26.811	2041.496	2098.846
235.942	27.078	2039.734	2099.883
236.957	26.936	2036.980	2095.155
237.972	26.739	2035.766	2091.366
238.986	26.865	2035.308	2092.108
240.001	27.051	2034.474	2093.158
241.015	26.658	2032.009	2085.826
242.030	25.970	2028.156	2073.664
243.045	23.972	2022.483	2044.562
244.059	23.732	2021.636	2040.697
245.074	25.904	2023.859	2067.767
246.088	26.858	2023.151	2077.785
247.103	26.655	2022.163	2074.190
248.117	26.792	2020.222	2073.530
249.132	27.023	2019.199	2074.878
250.147	26.891	2017.371	2071.240
251.161	26.440	2014.795	2063.179
252.176	26.110	2013.171	2057.484
253.190	25.632	2008.646	2047.148
254.205	24.868	2004.905	2034.367
255.220	24.884	2003.810	2033.194
256.234	25.051	2003.580	2034.629
257.249	25.111	2002.719	2034.191
258.263	25.033	2001.526	2031.845
259.278	24.973	1999.863	2029.233
260.293	24.630	1997.481	2022.671
261.307	25.335	1998.043	2031.015
262.322	26.408	1998.441	2043.370
263.336	26.539	1997.501	2043.656
264.351	26.523	1994.678	2040.343
265.366	26.399	1993.700	2037.696
266.380	26.506	1992.729	2037.661
267.395	26.301	1990.112	2032.427
268.409	26.048	1989.136	2028.325
269.424	26.161	1988.586	2028.801
270.439	26.445	1987.310	2030.458
271.453	25.840	1982.237	2018.230
272.468	23.727	1975.468	1987.360
273.482	23.262	1975.342	1981.759
274.497	25.088	1977.298	2004.028
275.512	26.138	1977.311	2015.593
276.526	26.300	1975.226	2015.041
277.541	26.172	1973.404	2011.511
278.555	26.234	1971.614	2010.132
279.570	26.035	1969.197	2005.212
280.585	25.936	1968.098	2002.745
281.599	26.329	1967.532	2006.317
282.614	25.993	1964.089	1998.818
283.628	24.889	1960.805	1982.956
284.643	24.568	1959.236	1977.562
285.657	24.668	1958.405	1977.598
286.672	24.488	1956.642	1973.574
287.687	24.360	1953.634	1968.890
288.701	24.189	1952.409	1965.518
289.716	24.106	1950.212	1962.158
290.730	24.013	1948.946	1959.621
291.745	24.369	1947.915	1962.286
292.760	24.299	1947.041	1960.394
293.774	24.559	1947.744	1963.737
294.789	25.337	1948.548	1972.915
295.803	26.113	1947.237	1979.912
296.818	26.465	1947.348	1983.661
297.833	26.719	1946.965	1985.835
298.847	26.826	1946.260	1986.052
299.862	26.952	1944.441	1985.346
300.876	26.263	1940.189	1973.211
301.891	23.981	1934.099	1941.780
302.906	23.772	1933.740	1938.895
303.920	26.070	1937.524	1967.679
304.935	26.872	1936.434	1975.113
305.949	26.619	1934.268	1969.902
306.964	26.755	1932.607	1969.463
307.979	26.253	1929.347	1960.431
308.993	25.065	1925.193	1943.033
310.008	24.650	1921.746	1934.805
311.022	24.574	1920.431	1932.431
312.037	24.443	1919.391	1929.729
313.052	24.083	1916.100	1922.279
314.066	23.527	1914.006	1913.917
315.081	23.534	1912.179	1911.943
316.095	23.312	1909.969	1907.101
317.110	23.533	1908.957	1908.246
318.125	23.800	1908.914	1910.867
319.139	24.295	1908.548	1915.617
320.154	24.910	1907.627	1921.105
321.168	25.198	1907.111	1923.457
322.183	25.540	1907.705	1927.512
323.197	26.215	1907.706	1934.550
324.212	26.395	1906.156	1934.680
325.227	26.274	1904.175	1931.136
326.241	26.306	1903.180	1930.243
327.256	26.436	1901.860	1930.068
328.270	26.256	1901.279	1927.321
329.285	26.035	1901.212	1924.651
330.300	25.595	1898.015	1916.469
331.314	23.469	1891.638	1887.084
332.329	23.348	1890.435	1884.366
333.343	25.424	1893.102	1909.001
334.358	26.364	1892.845	1918.541
335.373	26.285	1891.373	1915.974
336.387	26.288	1889.481	1913.868
337.402	26.368	1889.438	1914.446
338.416	26.453	1887.113	1912.766
339.431	26.416	1885.586	1910.596
340.446	26.642	1883.197	1910.335
341.460	25.631	1879.394	1895.555
342.475	24.611	1875.191	1880.302
343.489	24.033	1873.152	1871.926
344.504	24.065	1871.431	1870.319
345.519	24.001	1870.132	1868.123
346.533	23.920	1867.869	1864.787
347.548	23.854	1866.724	1862.721
348.562	24.044	1866.709	1864.478
349.577	24.213	1865.811	1865.143
350.592	24.230	1864.091	1863.381
351.606	24.321	1863.370	1863.388
352.621	24.444	1860.936	1862.022
353.635	24.477	1861.153	1862.362
354.650	24.634	1860.430	1863.063
355.665	25.188	1860.439	1868.652
356.679	25.969	1861.213	1877.379
357.694	26.398	1861.115	1881.549
358.708	26.756	1859.931	1883.867
359.723	26.051	1856.493	1872.798
360.738	23.931	1849.232	1843.196
361.752	23.900	1849.750	1843.174
362.767	25.612	1851.882	1862.913
363.781	26.039	1850.916	1866.156
364.796	25.912	1848.674	1862.356
365.810	25.744	1847.663	1859.367
366.825	25.703	1846.818	1857.867
367.840	25.965	1845.317	1858.856
368.854	26.005	1844.546	1858.273
369.869	25.474	1841.742	1849.733
370.883	24.757	1838.580	1838.925
371.898	23.818	1834.352	1824.792
372.913	23.538	1832.160	1819.508
373.927	23.555	1832.593	1819.896
374.942	23.657	1830.110	1818.255
375.956	23.768	1827.842	1816.934
376.971	23.679	1825.835	1813.802
377.986	23.384	1824.753	1809.489
379.000	23.997	1824.304	1815.107
380.015	25.174	1825.947	1828.602
381.029	25.957	1825.699	1836.153
382.044	25.936	1824.169	1834.179
383.059	26.047	1822.568	1833.485
384.073	25.995	1820.842	1830.990
385.088	25.848	1819.467	1827.896
386.102	25.847	1817.641	1825.833
387.117	25.745	1815.163	1822.085
388.132	25.661	1815.508	1821.357
389.146	25.205	1814.815	1815.807
390.161	23.367	1810.339	1792.445
391.175	23.449	1807.956	1790.703
392.190	25.211	1808.441	1808.837
393.205	25.665	1807.369	1812.147
394.219	25.983	1806.535	1814.309
395.234	26.037	1805.683	1813.782
396.248	25.883	1803.802	1810.120
397.263	25.918	1800.806	1807.248
398.278	25.952	1799.040	1805.609
399.292	25.893	1798.407	1804.161
400.307	25.783	1798.261	1802.692
401.321	25.528	1795.875	1797.518
402.336	24.322	1792.096	1781.426
403.350	23.597	1788.973	1770.840
404.365	23.903	1787.802	1772.527
405.380	23.822	1786.866	1770.580
406.394	23.775	1785.611	1768.657
407.409	23.761	1784.302	1767.006
408.423	23.800	1782.025	1764.928
409.438	23.905	1782.254	1765.991
410.453	24.666	1781.992	1773.114
411.467	24.913	1781.373	1774.746
412.482	25.222	1781.806	1778.047
413.496	26.056	1782.365	1786.693
414.511	26.309	1779.957	1786.584
415.526	26.259	1778.469	1784.381
416.540	26.410	1776.617	1783.805
417.555	26.221	1775.362	1780.462
418.569	25.949	1775.075	1777.258
419.584	26.278	1775.364	1780.602
420.599	26.584	1775.688	1783.741
421.613	26.449	1775.618	1782.114
422.628	26.655	1773.270	1781.587
423.642	26.827	1771.250	1781.041
424.657	26.716	1769.863	1778.338
425.672	26.393	1767.732	1772.802
426.686	26.227	1766.529	1769.744
427.701	26.200	1765.009	1767.751
428.715	26.275	1763.188	1766.455
429.730	26.450	1763.240	1768.011
430.745	26.550	1761.694	1767.233
431.759	25.842	1758.528	1756.904
432.774	24.723	1754.750	1741.965
433.788	23.554	1752.210	1727.799
434.803	23.155	1750.573	1722.075
435.818	23.252	1748.996	1721.271
436.832	23.243	1749.266	1721.239
437.847	22.102	1740.799	1701.601
438.861	12.422	1714.500	1582.435
439.876	2.263	1695.718	1467.272
440.890	0.369	1691.444	1445.154
441.905	0.111	1690.026	1441.292
442.920	0.143	1688.939	1440.501
443.934	0.241	1687.335	1439.901
444.949	-0.019	1686.761	1436.737
445.963	-0.021	1686.238	1436.104
446.978	-0.125	1685.995	1434.726
447.993	0.028	1683.190	1433.634
449.007	0.078	1680.936	1432.020
450.022	0.090	1679.152	1430.444
451.036	0.160	1677.919	1429.895
452.051	0.597	1680.695	1436.264
453.066	8.659	1700.769	1531.009
454.080	19.258	1718.309	1649.081
455.095	21.985	1723.669	1680.302
456.109	22.822	1723.487	1687.971
457.124	22.665	1723.138	1685.923
458.139	22.723	1722.202	1685.357
459.153	22.698	1721.422	1684.161
460.168	22.629	1719.068	1680.994
461.182	22.702	1717.928	1680.374
462.197	22.929	1716.013	1680.468
463.212	23.092	1714.856	1680.692
464.226	23.253	1714.170	1681.356
465.241	23.147	1712.994	1678.992
466.255	22.974	1710.802	1674.992
467.270	22.888	1710.312	1673.492
468.285	23.017	1709.676	1673.895
469.299	23.180	1708.257	1673.863
470.314	23.113	1705.977	1670.794
471.328	23.009	1704.202	1667.867
472.343	23.056	1702.642	1666.587
473.358	22.769	1701.219	1662.276
474.372	22.661	1699.857	1659.725
475.387	22.750	1698.964	1659.489
476.401	22.684	1697.651	1657.385
477.416	22.563	1695.950	1654.390
478.430	22.329	1694.992	1651.052
479.445	22.421	1694.367	1651.108
480.460	22.673	1692.859	1651.815
481.474	22.801	1691.725	1651.717
482.489	22.648	1689.839	1648.243
483.503	22.292	1687.953	1642.856
484.518	22.248	1686.599	1640.932
485.533	22.323	1685.318	1640.196
486.547	22.128	1683.794	1636.688
487.562	21.778	1681.802	1631.281
488.576	21.888	1680.626	1630.971
489.591	22.066	1679.518	1631.366
490.606	22.238	1678.652	1631.935
491.620	22.246	1676.693	1629.907
492.635	22.125	1674.165	1626.129
493.649	21.951	1673.089	1623.271
494.664	22.249	1673.942	1626.676
495.679	22.767	1673.109	1630.490
496.693	22.871	1671.461	1629.648
497.708	22.798	1669.658	1627.023
498.722	22.498	1668.332	1622.754
499.737	22.450	1667.488	1621.298
500.752	22.745	1666.070	1622.451
501.766	22.902	1665.096	1622.756
502.781	22.924	1664.040	1621.738
503.795	22.855	1662.183	1619.099
504.810	22.807	1660.873	1617.189
505.825	22.723	1659.963	1615.334
506.839	22.763	1658.314	1613.901
507.854	22.752	1657.149	1612.480
508.868	22.475	1656.069	1608.691
509.883	22.359	1654.651	1606.059
510.898	22.239	1653.030	1603.186
511.912	22.399	1651.930	1603.396
512.927	22.493	1650.611	1602.780
513.941	22.541	1648.791	1601.267
514.956	22.584	1647.823	1600.526
515.971	22.530	1646.431	1598.483
516.985	22.495	1645.690	1597.256
518.000	22.517	1644.121	1595.748
519.014	22.237	1642.788	1591.714
520.029	21.953	1641.115	1587.316
521.043	22.040	1640.030	1586.872
522.058	22.427	1639.074	1589.264
523.073	22.285	1637.115	1585.886
524.087	21.940	1636.861	1582.323
525.102	22.003	1636.080	1581.956
526.116	22.580	1635.444	1586.371
527.131	22.901	1634.257	1587.936
528.146	22.530	1632.802	1582.976
529.160	22.379	1631.065	1579.742
530.175	22.243	1629.880	1577.179
531.189	22.225	1628.451	1575.449
532.204	22.204	1626.509	1573.186
533.219	22.301	1625.337	1572.741
534.233	22.471	1625.424	1574.159
535.248	22.191	1623.822	1569.913
536.262	21.547	1622.112	1562.288
537.277	21.636	1619.788	1560.665
538.292	21.777	1618.786	1560.777
539.306	21.780	1616.994	1558.884
540.321	21.531	1615.730	1555.255
541.335	21.761	1614.490	1555.927
542.350	21.633	1612.969	1553.137
543.365	21.694	1611.409	1551.988
544.379	21.519	1609.607	1548.512
545.394	21.503	1608.294	1546.919
546.408	21.770	1608.501	1549.307
547.423	22.311	1608.494	1553.922
548.438	22.497	1607.432	1554.364
549.452	22.130	1605.946	1549.481
550.467	22.087	1604.433	1547.457
551.481	22.175	1603.856	1547.492
552.496	22.048	1602.091	1544.482
553.511	21.974	1600.086	1541.717
554.525	21.969	1599.849	1541.256
555.540	21.879	1598.786	1539.254
556.554	21.883	1597.610	1537.973
557.569	21.987	1595.911	1537.071
558.583	22.244	1594.268	1537.563
559.598	22.293	1593.118	1536.694
560.613	22.224	1593.050	1535.846
561.627	21.990	1591.052	1531.682
562.642	21.740	1588.515	1526.871
563.656	21.440	1587.491	1523.071
564.671	21.384	1586.286	1521.244
565.686	21.442	1585.117	1520.449
566.700	21.631	1584.540	1521.364
567.715	21.633	1583.521	1520.222
568.729	21.911	1581.417	1520.442
569.744	22.035	1580.130	1520.098
570.759	21.974	1578.805	1518.119
571.773	21.836	1578.957	1516.877
572.788	21.757	1576.277	1513.436
573.802	21.638	1575.022	1511.016
574.817	21.462	1573.638	1507.981
575.832	21.343	1571.418	1504.646
576.846	21.446	1570.852	1504.820
577.861	21.744	1570.514	1506.891
578.875	21.923	1569.469	1507.254
579.890	21.699	1568.090	1503.817
580.905	21.646	1567.022	1502.150
581.919	21.593	1566.922	1501.422
582.934	21.476	1565.397	1498.769
583.948	21.368	1563.595	1495.937
584.963	21.479	1562.317	1495.493
585.978	21.585	1560.613	1494.587
586.992	21.354	1559.522	1491.389
588.007	21.006	1559.099	1487.819
589.021	21.206	1558.851	1489.115
590.036	21.474	1557.516	1489.956
591.051	21.253	1555.492	1485.956
592.065	20.955	1553.017	1480.868
593.080	20.961	1551.264	1479.069
594.094	21.048	1550.233	1478.655
595.109	21.466	1548.926	1480.789
596.123	22.103	1548.895	1486.001
597.138	21.705	1547.275	1480.881
598.153	21.474	1545.151	1476.713
599.167	21.526	1543.973	1475.853
600.182	21.305	1543.075	1472.946
601.196	21.233	1542.738	1471.839
602.211	21.279	1541.351	1470.727
603.226	21.193	1540.251	1468.771
604.240	21.112	1538.450	1466.194
605.255	21.053	1537.019	1464.158
606.269	21.229	1536.288	1464.771
607.284	21.363	1535.405	1464.885
608.299	21.339	1534.371	1463.518
609.313	21.634	1533.233	1464.737
610.328	21.682	1532.065	1463.852
611.342	21.500	1530.500	1460.659
612.357	21.296	1528.937	1457.278
613.372	21.229	1528.564	1456.183
614.386	21.146	1527.070	1453.892
615.401	21.236	1526.129	1453.579
616.415	21.061	1525.008	1450.871
617.430	21.113	1523.630	1449.824
618.445	20.986	1522.083	1447.115
619.459	20.893	1522.227	1446.308
620.474	21.294	1521.028	1448.336
621.488	21.585	1520.992	1450.551
622.503	21.551	1520.262	1449.400
623.518	21.183	1518.401	1444.395
624.532	20.844	1516.969	1440.043
625.547	20.818	1515.145	1437.915
626.561	20.685	1513.794	1435.360
627.576	20.495	1512.199	1432.101
628.591	20.898	1511.858	1434.945
629.605	21.294	1510.957	1437.192
630.620	21.199	1509.742	1435.083
631.634	21.397	1509.366	1436.191
632.649	21.233	1508.004	1433.364
633.663	20.956	1505.849	1428.864
634.678	20.768	1503.822	1425.224
635.693	20.695	1501.493	1422.247
636.707	20.471	1500.551	1419.346
637.722	20.402	1499.671	1417.779
638.736	20.406	1499.143	1417.142
639.751	20.861	1498.435	1420.032
640.766	21.051	1496.923	1419.984
641.780	21.009	1495.360	1417.988
642.795	21.056	1495.066	1417.923
643.809	21.019	1494.758	1417.160
644.824	21.010	1493.757	1415.962
645.839	21.179	1492.582	1416.059
646.853	21.076	1490.681	1413.245
647.868	20.932	1489.262	1410.567
648.882	21.006	1488.340	1410.124
649.897	20.900	1487.229	1408.036
650.912	20.953	1484.657	1405.868
651.926	20.598	1483.809	1402.022
652.941	20.719	1483.157	1402.218
653.955	21.139	1481.689	1404.055
654.970	21.240	1480.129	1403.227
655.985	21.262	1479.610	1402.743
656.999	20.977	1478.440	1399.164
658.014	20.908	1476.135	1396.266
659.028	20.673	1475.324	1393.433
660.043	20.501	1474.818	1391.408
661.058	20.535	1472.913	1389.716
662.072	20.606	1472.147	1389.396
663.087	20.717	1471.066	1389.102
664.101	20.751	1470.974	1389.123
665.116	20.725	1469.585	1387.436
666.131	20.871	1467.832	1386.781
667.145	20.762	1466.914	1384.874
668.160	20.600	1465.654	1382.224
669.174	20.397	1463.969	1378.855
670.189	20.472	1463.394	1378.747
671.204	20.804	1463.022	1380.880
672.218	20.873	1461.510	1379.836
673.233	20.653	1460.107	1376.592
674.247	20.483	1458.906	1373.942
675.262	20.449	1457.042	1371.754
676.276	20.440	1456.249	1370.774
677.291	20.663	1456.314	1372.436
678.306	21.001	1455.332	1374.024
679.320	21.000	1453.835	1372.444
680.335	20.771	1452.944	1369.623
681.349	20.488	1452.636	1366.934
682.364	20.682	1451.581	1367.310
683.379	20.433	1449.505	1363.224
684.393	20.355	1448.257	1361.273
685.408	20.433	1447.086	1360.628
686.422	20.508	1445.795	1359.837
687.437	20.362	1445.068	1357.847
688.452	20.084	1444.354	1354.829
689.466	20.323	1441.964	1354.295
690.481	20.242	1440.895	1352.500
691.495	20.519	1440.916	1354.527
692.510	20.706	1441.247	1356.141
693.525	20.944	1439.476	1356.173
694.539	20.537	1438.573	1351.976
695.554	20.126	1437.037	1347.160
696.568	20.021	1435.779	1345.004
697.583	19.999	1434.247	1343.235
698.598	20.035	1432.952	1342.139
699.612	20.113	1431.869	1341.570
700.627	20.112	1431.632	1341.185
701.641	20.358	1430.263	1341.650
702.656	20.387	1428.906	1340.440
703.671	20.130	1428.431	1337.844
704.685	20.295	1427.395	1337.988
705.700	20.145	1426.512	1335.841
706.714	20.286	1425.196	1335.540
707.729	20.412	1423.629	1334.886
708.744	20.283	1422.238	1332.426
709.758	20.266	1421.285	1331.240
710.773	20.385	1420.725	1331.476
711.787	20.606	1418.761	1331.177
712.802	20.369	1417.695	1328.192
713.816	20.330	1416.715	1326.815
714.831	20.277	1415.539	1325.148
715.846	20.160	1414.282	1322.922
716.860	20.060	1413.260	1321.034
717.875	20.166	1412.621	1321.096
718.889	20.227	1411.478	1320.334
719.904	20.099	1410.201	1318.003
720.919	20.168	1409.081	1317.328
721.933	19.870	1408.981	1314.795
722.948	19.907	1407.500	1313.538
723.962	20.111	1405.384	1312.965
724.977	20.180	1403.844	1311.893
725.992	19.952	1403.919	1310.074
727.006	20.104	1402.916	1310.131
728.021	20.103	1401.334	1308.494
729.035	20.214	1399.750	1307.698
730.050	20.257	1398.510	1306.706
731.065	20.165	1397.854	1305.244
732.079	20.032	1397.342	1303.601
733.094	20.230	1396.286	1303.960
734.108	20.405	1394.930	1303.855
735.123	20.295	1393.275	1301.320
736.138	20.220	1392.852	1300.209
737.152	20.201	1391.449	1298.600
738.167	20.255	1389.576	1297.102
739.181	20.139	1388.628	1295.187
740.196	20.083	1387.902	1293.936
741.211	20.107	1386.911	1293.041
742.225	19.957	1387.068	1291.903
743.240	19.984	1385.396	1290.397
744.254	19.838	1384.316	1288.142
745.269	19.927	1382.741	1287.188
746.284	19.995	1381.233	1286.135
747.298	19.862	1381.260	1285.016
748.313	20.119	1380.582	1286.150
749.327	20.333	1379.823	1286.882
750.342	20.504	1379.867	1288.043
751.356	20.735	1378.946	1288.751
752.371	20.603	1377.181	1285.963
753.386	20.218	1375.292	1281.190
754.400	19.938	1374.332	1278.062
755.415	20.047	1372.723	1277.222
756.429	19.821	1371.728	1274.472
757.444	20.029	1371.007	1275.183
758.459	20.031	1369.629	1273.764
759.473	19.901	1367.724	1270.882
760.488	20.067	1366.269	1270.605
761.502	19.888	1365.129	1268.074
762.517	19.875	1364.648	1267.378
763.532	20.105	1363.522	1267.873
764.546	19.817	1363.338	1265.428
765.561	20.097	1363.262	1267.271
766.575	20.550	1361.935	1269.205
767.590	20.640	1360.918	1268.770
768.605	20.270	1359.244	1264.348
769.619	20.075	1358.366	1261.954
770.634	20.042	1356.160	1259.510
771.648	19.957	1355.136	1257.784
772.663	19.820	1354.395	1255.952
773.678	19.955	1353.647	1256.087
774.692	19.915	1352.858	1254.918
775.707	20.002	1351.918	1254.526
776.721	19.913	1351.250	1253.108
777.736	20.055	1349.893	1252.731
778.751	20.110	1348.782	1251.951
779.765	19.768	1348.807	1249.337
780.780	19.807	1347.830	1248.569
781.794	19.871	1346.671	1247.812
782.809	19.778	1345.685	1246.075
783.824	19.668	1344.830	1244.333
784.838	19.839	1343.300	1244.005
785.853	20.182	1343.151	1246.202
786.867	20.085	1342.337	1244.596
787.882	19.980	1340.715	1242.184
788.897	19.776	1339.692	1239.619
789.911	19.624	1339.224	1237.938
790.926	19.525	1337.491	1235.479
791.940	19.606	1335.981	1234.517
792.955	19.681	1334.507	1233.547
793.969	19.508	1333.645	1231.365
794.984	19.549	1333.125	1231.028
795.999	19.643	1332.084	1230.591
797.013	19.706	1330.112	1229.072
798.028	19.680	1328.655	1227.393
799.042	19.634	1328.869	1227.119
800.057	19.728	1327.607	1226.473
801.072	19.772	1326.084	1225.233
802.086	19.649	1324.424	1222.679
803.101	19.697	1323.988	1222.472
804.115	19.727	1322.899	1221.537
805.130	19.684	1322.369	1220.591
806.145	19.487	1321.856	1218.574
807.159	19.645	1319.979	1217.817
808.174	19.634	1318.929	1216.629
809.188	19.856	1317.347	1216.594
810.203	19.841	1315.671	1214.793
811.218	20.009	1314.125	1214.406
812.232	20.056	1313.716	1214.212
813.247	20.199	1312.783	1214.212
814.261	20.073	1311.994	1212.445
815.276	19.703	1311.251	1209.013
816.291	19.668	1309.885	1207.362
817.305	19.627	1308.486	1205.643
818.320	19.634	1306.454	1203.675
819.334	19.649	1305.627	1202.877
820.349	19.604	1304.315	1201.210
821.364	19.654	1302.419	1199.668
822.378	19.619	1301.918	1198.820
823.393	19.516	1299.923	1196.123
824.407	19.584	1298.605	1195.234
825.422	19.663	1298.591	1195.629
826.437	19.553	1297.714	1193.913
827.451	19.538	1295.787	1191.893
828.466	19.802	1294.926	1192.791
829.480	20.052	1293.647	1193.201
830.495	19.807	1291.623	1189.502
831.509	19.626	1291.267	1187.775
832.524	19.463	1290.066	1185.406
833.539	19.615	1287.948	1184.366
834.553	19.600	1287.160	1183.392
835.568	19.548	1286.506	1182.295
836.582	19.519	1285.332	1180.874
837.597	19.666	1283.716	1180.261
838.612	19.710	1282.158	1178.986
839.626	19.780	1281.544	1178.758
840.641	19.811	1281.089	1178.411
841.655	19.835	1280.822	1178.191
842.670	20.272	1280.224	1180.491
843.685	20.555	1279.129	1181.267
844.699	20.167	1277.626	1177.095
845.714	19.880	1275.722	1173.245
846.728	19.960	1274.573	1172.593
847.743	19.824	1273.620	1170.651
848.758	19.704	1272.165	1168.357
849.772	19.633	1271.065	1166.725
850.787	19.463	1269.881	1164.347
851.801	19.631	1268.266	1163.861
852.816	19.519	1266.858	1161.671
853.831	19.504	1265.263	1159.972
854.845	19.561	1263.951	1159.012
855.860	19.372	1262.716	1156.465
856.874	19.584	1261.744	1156.866
857.889	19.574	1261.391	1156.334
858.904	19.766	1260.597	1156.763
859.918	20.123	1258.555	1157.145
860.933	20.003	1257.636	1155.359
861.947	19.993	1255.873	1153.535
862.962	19.708	1254.435	1150.166
863.977	19.617	1253.487	1148.555
864.991	19.602	1252.186	1147.125
866.006	19.538	1252.265	1146.635
867.020	19.448	1251.146	1144.870
868.035	19.484	1249.686	1143.636
869.049	19.680	1248.017	1143.279
870.064	19.785	1247.294	1143.174
871.079	19.620	1246.953	1141.626
872.093	19.634	1246.819	1141.465
873.108	19.646	1246.416	1141.038
874.122	19.954	1245.001	1141.648
875.137	19.939	1244.806	1141.231
876.152	20.242	1243.572	1141.969
877.166	20.263	1241.179	1139.770
878.181	20.089	1239.472	1136.919
879.195	19.761	1239.749	1134.873
880.210	19.824	1238.666	1134.161
881.225	19.703	1237.465	1132.136
882.239	19.607	1236.776	1130.737
883.254	19.583	1235.729	1129.482
884.268	19.719	1234.722	1129.319
885.283	19.583	1233.192	1126.897
886.298	19.698	1231.269	1125.759
887.312	19.834	1230.352	1125.672
888.327	19.860	1229.743	1125.152
889.341	19.456	1229.154	1121.838
890.356	19.566	1228.353	1121.690
891.371	19.496	1227.699	1120.503
892.385	19.596	1226.827	1120.223
893.400	19.642	1226.147	1119.767
894.414	19.571	1224.959	1118.090
895.429	19.720	1223.727	1117.796
896.444	20.214	1222.453	1119.710
897.458	20.615	1221.751	1121.531
898.473	20.118	1221.254	1117.718
899.487	19.926	1219.698	1114.920
900.502	19.637	1217.986	1111.352
901.517	19.780	1216.387	1110.683
902.531	19.692	1215.542	1109.209
903.546	19.800	1215.069	1109.341
904.560	19.762	1214.960	1108.867
905.575	19.808	1213.617	1107.800
906.589	19.926	1212.778	1107.665
907.604	19.890	1212.266	1106.832
