DTS Sentinel unit serial number:	SN409020Multiplexer serial number:	ORYXHardware model number:	OX4-SRSoftware version number:	ORYX F/W v3.00 Oryx Data Collector v3.7.2.0data status	okinstallation	HaddamTimeLapsedifferential loss correction	single-endedforward channel	channel 3reverse channel	N/Adate	2011/06/22time	07:21:16forward acquisition time	30.00reverse acquisition time	0.00gamma	498.7831k internal	0.1755k external	0.1755temperature offset calibration	1.0074default loss term (dB/km)	0.3790temperature slope calibration	1.3530multiplexer offset coefficient	1.0000multiplexer slope coefficient	1.0000fibre end	0.00T internal ref (°C)	23.16T ext. ref 1 (°C)	20.16T ext. ref 2 (°C)	0.13length (m)	temperature (°C)	Stokes	anti-Stokes-747.200	-147.628	-0.207	-0.023
-746.185	-200.000	-0.021	0.171
-745.171	-105.968	-0.556	0.165
-744.156	122.826	-0.252	0.418
-743.142	-200.000	0.057	-0.432
-742.127	41.074	0.420	0.503
-741.112	560.820	0.067	-0.216
-740.098	27.194	0.135	0.150
-739.083	-156.243	0.266	-0.022
-738.069	535.864	-0.122	0.387
-737.054	-169.797	0.113	0.005
-736.039	-196.243	0.233	0.002
-735.025	-42.028	-0.087	0.059
-734.010	-172.778	0.152	0.006
-732.996	231.881	0.121	0.263
-731.981	-200.000	-0.010	-0.165
-730.966	337.087	-0.064	-0.165
-729.952	442.278	0.081	-0.237
-728.937	444.364	-0.295	-0.863
-727.923	-105.892	-0.432	0.128
-726.908	612.268	-0.052	0.173
-725.894	-95.917	-0.175	0.061
-724.879	356.057	-0.344	0.912
-723.864	-126.427	0.417	0.081
-722.850	-56.257	-0.068	-0.040
-721.835	379.720	0.138	-0.375
-720.821	-167.353	-0.167	0.009
-719.806	74.356	-0.111	0.154
-718.791	-16.496	-0.290	-0.243
-717.777	-94.562	0.408	-0.146
-716.762	-51.238	0.419	0.259
-715.748	-129.153	-0.427	-0.078
-714.733	7.189	-0.167	0.165
-713.718	-100.704	-0.520	-0.169
-712.704	-71.996	-0.264	-0.129
-711.689	-126.090	0.230	0.045
-710.675	-70.691	0.021	-0.011
-709.660	179.820	-0.183	0.357
-708.645	478.390	-0.123	0.372
-707.631	-200.000	-0.029	-0.224
-706.616	-200.000	0.036	0.308
-705.602	-62.659	0.107	0.059
-704.587	225.721	-0.161	-0.347
-703.572	-45.004	-0.361	-0.237
-702.558	71.581	-0.055	-0.076
-701.543	-200.000	-0.020	-0.151
-700.529	-200.000	0.027	-0.381
-699.514	-123.707	-0.260	-0.054
-698.499	-82.519	0.235	-0.100
-697.485	35.041	-0.051	-0.059
-696.470	1.673	-0.080	-0.077
-695.456	-185.165	-0.158	-0.003
-694.441	2.651	-0.175	-0.167
-693.426	-200.000	0.060	-0.360
-692.412	-91.648	-0.731	0.274
-691.397	-197.982	-0.207	0.002
-690.383	283.935	0.131	-0.313
-689.368	-101.210	0.087	0.028
-688.354	800.000	-0.108	-0.582
-687.339	226.878	-0.043	0.093
-686.324	-60.508	0.294	0.165
-685.310	-104.128	0.071	0.022
-684.295	-87.837	-0.340	-0.135
-683.281	94.518	0.078	-0.117
-682.266	7.595	-0.049	-0.049
-681.251	-200.000	0.054	-0.376
-680.237	686.962	-0.040	0.139
-679.222	81.250	-0.222	0.318
-678.208	-58.235	-0.101	-0.058
-677.193	18.545	0.248	-0.262
-676.178	101.688	0.126	-0.195
-675.164	800.000	0.043	0.192
-674.149	800.000	0.067	-0.299
-673.135	-12.770	0.111	0.096
-672.120	599.725	0.018	-0.058
-671.105	141.997	-0.036	0.063
-670.091	105.472	-0.198	0.309
-669.076	-195.193	0.231	0.002
-668.062	-49.439	-0.180	-0.113
-667.047	205.656	-0.141	0.290
-666.032	-37.318	0.353	-0.249
-665.018	150.824	0.214	-0.385
-664.003	-121.677	0.303	0.066
-662.989	-200.000	-0.005	-0.777
-661.974	77.389	-0.279	-0.393
-660.959	-200.000	-0.033	0.439
-659.945	170.133	0.045	0.085
-658.930	-105.068	-0.375	-0.113
-657.916	-166.555	0.208	0.011
-656.901	281.916	-0.146	0.347
-655.886	-35.206	0.425	-0.305
-654.872	257.515	-0.060	-0.136
-653.857	27.599	0.256	0.285
-652.843	-200.000	-0.062	0.442
-651.828	-24.722	0.451	0.353
-650.814	359.510	-0.230	-0.611
-649.799	107.215	-0.212	-0.334
-648.784	-200.000	-0.026	-0.347
-647.770	45.617	-0.077	-0.094
-646.755	146.688	0.117	-0.207
-645.741	18.904	0.151	-0.160
-644.726	-39.123	0.287	0.199
-643.711	-100.322	-0.156	0.051
-642.697	-101.862	-0.204	-0.065
-641.682	126.313	-0.205	0.344
-640.668	61.011	0.120	-0.157
-639.653	-10.961	-0.225	-0.196
-638.638	-200.000	0.002	0.204
-637.624	-125.763	-0.542	0.107
-636.609	-80.501	0.271	0.119
-635.595	-116.034	-0.140	0.034
-634.580	37.861	0.153	-0.179
-633.565	223.680	-0.189	-0.404
-632.551	310.265	0.109	0.270
-631.536	800.000	-0.028	0.107
-630.522	-17.085	-0.390	0.324
-629.507	-200.000	-0.046	0.529
-628.492	131.939	-0.079	-0.135
-627.478	-25.075	-0.102	-0.080
-626.463	800.000	-0.060	-0.246
-625.449	800.000	-0.040	-0.149
-624.434	-97.531	-0.304	-0.104
-623.419	67.456	-0.416	-0.561
-622.405	-77.429	0.685	0.312
-621.390	504.181	-0.077	0.236
-620.376	-169.520	0.110	0.005
-619.361	-103.645	0.693	-0.213
-618.346	70.452	-0.193	-0.263
-617.332	-200.000	-0.008	-0.300
-616.317	177.304	0.177	0.340
-615.303	-200.000	-0.016	-0.120
-614.288	56.681	-0.204	0.261
-613.273	95.422	-0.088	-0.133
-612.259	83.401	0.252	-0.363
-611.244	-159.194	-0.239	0.018
-610.230	-102.539	-0.517	-0.162
-609.215	-98.442	0.107	0.036
-608.201	-25.434	-0.346	-0.269
-607.186	15.751	-0.179	-0.185
-606.171	347.833	-0.132	-0.344
-605.157	800.000	0.055	-0.257
-604.142	397.917	0.039	-0.107
-603.128	-146.524	0.294	0.033
-602.113	-71.428	-0.371	0.182
-601.098	77.308	-0.127	0.178
-600.084	9.818	0.112	0.111
-599.069	-130.837	0.354	0.062
-598.055	72.772	-0.085	-0.117
-597.040	-200.000	-0.009	-0.184
-596.025	40.148	-0.182	-0.215
-595.011	-54.880	-0.531	0.314
-593.996	-200.000	-0.019	-0.598
-592.982	304.829	-0.245	0.602
-591.967	-200.000	0.079	0.535
-590.952	800.000	0.109	0.455
-589.938	199.155	0.022	-0.044
-588.923	-103.845	-0.230	-0.070
-587.909	112.372	0.077	0.123
-586.894	-72.836	0.382	-0.185
-585.879	-74.415	-0.185	-0.088
-584.865	8.291	-0.519	0.514
-583.850	-95.660	0.422	-0.148
-582.836	-160.162	0.150	0.011
-581.821	475.559	0.060	-0.179
-580.806	36.223	0.099	-0.115
-579.792	-12.722	-0.121	-0.103
-578.777	52.474	-0.181	0.228
-577.763	-69.562	-0.386	0.194
-576.748	4.345	-0.117	-0.113
-575.733	61.262	-0.202	0.265
-574.719	-35.734	-0.451	-0.321
-573.704	-135.187	-0.253	0.040
-572.690	241.982	-0.111	-0.244
-571.675	-90.458	0.347	-0.132
-570.661	-200.000	0.035	-0.339
-569.646	83.563	0.337	0.485
-568.631	228.708	0.122	-0.263
-567.617	203.477	0.194	-0.395
-566.602	800.000	0.083	0.328
-565.588	24.819	0.086	-0.094
-564.573	-191.359	-0.344	0.004
-563.558	-200.000	-0.007	0.425
-562.544	166.571	0.139	-0.260
-561.529	730.238	-0.037	-0.132
-560.515	-76.785	-0.270	-0.124
-559.500	66.789	-0.217	-0.291
-558.485	109.073	0.263	-0.415
-557.471	-128.870	0.272	0.050
-556.456	-37.765	0.270	0.188
-555.442	-66.842	0.202	-0.105
-554.427	63.130	0.174	-0.229
-553.412	-124.618	0.110	-0.022
-552.398	87.317	0.043	0.062
-551.383	128.829	-0.267	-0.448
-550.369	-6.174	0.497	-0.446
-549.354	-200.000	-0.058	-0.397
-548.339	-200.000	0.028	0.173
-547.325	-17.647	-0.435	0.359
-546.310	-200.000	0.030	-0.517
-545.296	-199.407	0.328	-0.002
-544.281	30.772	-0.340	0.383
-543.266	143.564	0.273	0.479
-542.252	800.000	0.066	0.275
-541.237	-168.891	-0.300	0.015
-540.223	-39.307	-0.543	-0.374
-539.208	251.195	-0.178	0.399
-538.193	18.820	0.067	0.070
-537.179	415.060	-0.172	0.484
-536.164	149.012	0.314	0.560
-535.150	6.939	-0.363	0.355
-534.135	-200.000	0.018	0.341
-533.121	-70.952	-0.592	0.292
-532.106	-40.845	0.111	-0.076
-531.091	-200.000	0.010	0.173
-530.077	-200.000	0.053	-0.333
-529.062	-3.500	0.336	0.307
-528.048	283.466	0.204	0.483
-527.033	800.000	0.024	-0.111
-526.018	17.507	0.155	0.161
-525.004	318.256	0.212	-0.529
-523.989	59.059	0.130	-0.169
-522.975	749.942	-0.090	0.321
-521.960	800.000	0.038	-0.152
-520.945	-38.835	-0.559	0.386
-519.931	800.000	0.105	0.397
-518.916	91.156	-0.177	-0.261
-517.902	-150.766	-0.048	-0.005
-516.887	88.957	-0.239	0.350
-515.872	800.000	-0.036	0.166
-514.858	-22.471	-0.098	0.078
-513.843	186.028	-0.156	0.306
-512.829	-200.000	0.092	-0.566
-511.814	-122.666	-0.247	0.052
-510.799	-200.000	-0.029	-0.304
-509.785	-200.000	-0.030	-0.222
-508.770	-118.964	0.400	-0.091
-507.756	-21.170	0.149	0.120
-506.741	5.032	-0.453	-0.438
-505.726	-154.291	0.078	0.007
-504.712	4.182	0.257	0.247
-503.697	263.399	0.097	-0.223
-502.683	-132.135	-0.403	0.068
-501.668	800.000	-0.077	0.282
-500.653	214.369	0.145	-0.302
-499.639	626.697	-0.083	-0.278
-498.624	15.080	0.420	-0.432
-497.610	-115.955	-0.386	-0.094
-496.595	-116.221	-0.199	0.048
-495.581	-200.000	0.006	-0.251
-494.566	-114.783	-0.358	-0.089
-493.551	-74.780	-0.396	0.186
-492.537	287.793	0.022	-0.051
-491.522	-88.970	-0.029	0.011
-490.508	-200.000	-0.008	0.113
-489.493	800.000	-0.037	0.178
-488.478	-13.859	-0.190	-0.161
-487.464	800.000	-0.061	0.294
-486.449	107.287	0.223	-0.349
-485.435	-78.758	0.334	-0.149
-484.420	-14.401	0.419	-0.353
-483.405	-152.076	-0.211	-0.020
-482.391	710.800	0.075	0.261
-481.376	-48.724	0.139	-0.087
-480.362	-43.358	-0.393	-0.260
-479.347	69.455	-0.105	0.143
-478.332	-103.997	0.140	0.042
-477.318	-126.392	-0.233	0.045
-476.303	-1.686	-0.041	0.038
-475.289	-83.541	-0.401	0.167
-474.274	-25.041	-0.545	-0.423
-473.259	323.178	0.170	-0.427
-472.245	92.470	0.173	-0.256
-471.230	793.318	-0.024	0.087
-470.216	-92.920	0.107	-0.039
-469.201	-154.751	0.097	-0.008
-468.186	-64.586	-0.180	-0.095
-467.172	-41.427	0.152	-0.102
-466.157	367.039	-0.018	0.049
-465.143	-12.920	0.146	0.124
-464.128	-160.201	-0.246	-0.017
-463.113	-72.169	-0.345	-0.167
-462.099	69.349	0.035	0.047
-461.084	-178.029	-0.136	0.004
-460.070	-17.826	0.116	-0.095
-459.055	-85.650	0.185	0.075
-458.040	-200.000	0.090	-0.544
-457.026	284.285	-0.042	-0.098
-456.011	-110.007	0.104	-0.028
-454.997	-60.989	-0.161	-0.089
-453.982	23.058	-0.052	0.056
-452.968	-60.966	0.485	0.268
-451.953	-113.209	-0.051	0.013
-450.938	-29.266	0.353	-0.264
-449.924	-30.158	0.211	0.157
-448.909	-76.631	-0.141	0.064
-447.895	471.845	-0.139	0.413
-446.880	-159.680	0.322	-0.023
-445.865	237.146	0.150	0.327
-444.851	-200.000	0.035	-0.260
-443.836	558.431	-0.027	-0.087
-442.822	-94.481	-0.538	-0.191
-441.807	-70.687	0.305	0.150
-440.792	207.717	-0.216	-0.443
-439.778	800.000	0.034	-0.155
-438.763	360.295	-0.048	0.125
-437.749	-74.776	-0.153	0.071
-436.734	173.669	0.104	-0.197
-435.719	47.122	-0.251	-0.306
-434.705	-87.788	-0.209	-0.082
-433.690	-75.028	0.349	0.163
-432.676	-174.755	0.427	0.016
-431.661	-46.435	-0.023	-0.015
-430.646	261.064	-0.108	-0.245
-429.632	-16.508	0.151	0.125
-428.617	100.754	0.317	-0.483
-427.603	-70.538	0.234	0.116
-426.588	-45.364	0.332	0.215
-425.573	121.246	-0.261	0.426
-424.559	178.323	0.113	0.217
-423.544	-121.517	-0.126	-0.027
-422.530	74.326	0.188	-0.259
-421.515	181.440	0.056	-0.109
-420.500	-161.533	-0.105	0.007
-419.486	-147.643	0.370	-0.040
-418.471	399.793	-0.127	0.350
-417.457	800.000	0.035	0.195
-416.442	-66.197	0.577	-0.300
-415.428	-56.897	0.346	-0.200
-414.413	-200.000	-0.007	0.110
-413.398	-62.771	-0.301	0.163
-412.384	-47.494	0.373	-0.237
-411.369	-27.409	-0.287	0.218
-410.355	-200.000	-0.012	0.152
-409.340	40.585	0.126	0.149
-408.325	242.400	-0.212	-0.466
-407.311	47.965	0.101	-0.124
-406.296	-57.266	0.094	0.054
-405.282	-200.000	-0.004	-0.123
-404.267	-151.439	0.180	-0.017
-403.252	181.262	-0.084	-0.162
-402.238	-45.122	-0.397	0.258
-401.223	-41.542	-0.053	0.035
-400.209	800.000	0.087	-0.352
-399.194	-11.251	0.151	-0.130
-398.179	82.740	0.146	-0.207
-397.165	25.659	0.224	-0.243
-396.150	177.949	-0.186	0.356
-395.136	197.225	-0.072	-0.145
-394.121	-200.000	0.008	-0.171
-393.106	-93.897	-0.452	0.162
-392.092	381.184	-0.077	-0.206
-391.077	-56.755	-0.340	-0.196
-390.063	40.975	0.178	0.210
-389.048	-123.261	0.164	0.034
-388.033	315.618	-0.160	0.396
-387.019	-124.214	-0.359	0.073
-386.004	-197.392	-0.212	0.002
-384.990	375.910	0.084	-0.225
-383.975	52.714	0.346	-0.432
-382.960	-6.584	0.410	0.365
-381.946	-200.000	-0.016	0.101
-380.931	-159.481	0.150	-0.011
-379.917	800.000	-0.037	-0.137
-378.902	-65.922	0.038	0.020
-377.888	-200.000	0.019	0.318
-376.873	-68.583	0.272	-0.137
-375.858	-52.649	0.282	-0.169
-374.844	-200.000	-0.010	0.083
-373.829	-85.625	0.200	-0.081
-372.815	51.563	-0.242	0.301
-371.800	-86.924	-0.154	0.061
-370.785	-75.899	0.301	0.139
-369.771	800.000	-0.089	-0.323
-368.756	-178.303	0.210	-0.006
-367.742	5.656	0.487	0.470
-366.727	-200.000	0.048	0.524
-365.712	800.000	0.030	-0.114
-364.698	253.961	0.080	0.179
-363.683	-200.000	-0.025	0.262
-362.669	800.000	0.087	-0.341
-361.654	-111.030	-0.479	0.127
-360.639	-44.643	-0.054	-0.035
-359.625	800.000	-0.052	-0.262
-358.610	-6.880	0.227	-0.201
-357.596	708.176	-0.087	-0.302
-356.581	68.345	-0.318	0.425
-355.566	31.938	-0.232	-0.261
-354.552	-200.000	0.002	0.316
-353.537	192.180	0.257	-0.508
-352.523	-13.278	-0.245	0.207
-351.508	-200.000	-0.012	0.126
-350.493	28.062	-0.183	-0.201
-349.479	-31.489	-0.292	-0.214
-348.464	274.604	-0.141	0.327
-347.450	-158.726	0.236	-0.017
-346.435	161.673	0.175	0.321
-345.420	796.752	0.154	0.556
-344.406	-170.139	-0.136	0.006
-343.391	-33.932	0.177	0.127
-342.377	-144.757	0.422	-0.050
-341.362	423.834	-0.057	-0.160
-340.348	-36.467	0.295	0.207
-339.333	-200.000	0.031	-0.259
-338.318	159.788	0.196	-0.356
-337.304	484.185	-0.101	0.300
-336.289	-73.968	0.157	0.074
-335.275	415.396	0.125	0.349
-334.260	-200.000	-0.034	0.359
-333.245	73.861	-0.177	0.242
-332.231	-96.012	-0.165	-0.057
-331.216	587.820	-0.112	0.362
-330.202	-137.965	0.240	0.035
-329.187	77.361	0.103	0.143
-328.172	800.000	0.082	0.321
-327.158	132.164	0.064	-0.108
-326.143	-87.533	0.180	-0.071
-325.129	-20.874	-0.290	0.231
-324.114	65.690	-0.244	-0.322
-323.099	800.000	-0.126	-0.586
-322.085	-40.451	-0.287	-0.194
-321.070	568.921	-0.078	0.248
-320.056	-37.572	-0.450	0.312
-319.041	800.000	-0.021	0.116
-318.026	-185.005	0.243	0.005
-317.012	287.444	-0.135	0.318
-315.997	-144.294	-0.423	0.051
-314.983	151.381	-0.097	-0.173
-313.968	103.654	0.259	-0.398
-312.953	188.450	0.259	-0.507
-311.939	667.314	0.078	-0.265
-310.924	703.002	-0.067	0.233
-309.910	-65.069	0.178	-0.093
-308.895	-131.108	0.309	0.053
-307.880	262.264	-0.168	0.381
-306.866	134.853	-0.151	-0.256
-305.851	174.035	-0.059	-0.112
-304.837	456.367	0.258	-0.750
-303.822	800.000	0.062	0.235
-302.807	-126.480	0.335	-0.064
-301.793	-90.316	0.274	-0.103
-300.778	-134.889	0.270	-0.042
-299.764	291.520	0.105	0.249
-298.749	217.681	0.086	0.178
-297.735	-88.840	0.244	-0.094
-296.720	716.840	0.147	0.513
-295.705	712.552	-0.215	0.746
-294.691	259.649	-0.145	-0.328
-293.676	-200.000	0.033	0.327
-292.662	800.000	0.028	-0.155
-291.647	-121.938	0.278	-0.059
-290.632	242.214	0.040	-0.087
-289.618	-123.966	0.390	0.079
-288.603	-14.983	-0.077	0.064
-287.589	623.406	0.146	0.483
-286.574	-75.736	0.120	0.055
-285.559	-200.000	-0.247	0.001
-284.545	-1.629	0.319	0.292
-283.530	416.915	-0.152	0.424
-282.516	327.462	0.181	0.455
-281.501	29.218	0.210	-0.232
-280.486	-95.494	0.299	-0.104
-279.472	8.882	-0.058	-0.057
-278.457	-71.091	0.241	0.117
-277.443	520.606	0.187	-0.573
-276.428	-15.003	0.183	-0.152
-275.413	185.910	-0.189	-0.367
-274.399	-164.450	0.347	0.020
-273.384	503.821	-0.116	-0.351
-272.370	-149.633	0.564	0.057
-271.355	-166.512	-0.512	-0.027
-270.340	18.877	-0.018	-0.019
-269.326	59.541	-0.091	-0.117
-268.311	507.315	-0.165	-0.501
-267.297	689.338	0.232	-0.793
-266.282	-76.520	0.328	-0.149
-265.267	158.547	0.156	-0.283
-264.253	-200.000	-0.066	0.462
-263.238	292.567	0.111	0.263
-262.224	178.899	-0.083	0.158
-261.209	294.275	-0.132	0.314
-260.195	-5.385	-0.104	0.092
-259.180	-157.660	0.251	0.019
-258.165	-56.732	-0.213	-0.122
-257.151	752.402	-0.090	0.317
-256.136	66.951	0.123	0.163
-255.122	151.923	0.329	-0.585
-254.107	185.888	-0.125	-0.241
-253.092	15.474	-0.155	-0.159
-252.078	-163.457	0.299	-0.018
-251.063	-200.000	0.017	0.198
-250.049	532.773	-0.042	0.130
-249.034	-131.539	0.129	-0.022
-248.019	106.132	0.123	0.189
-247.005	-81.017	-0.286	0.122
-245.990	-105.848	-0.369	0.108
-244.976	-13.923	-0.190	0.160
-243.961	-141.099	0.535	-0.070
-242.946	583.118	0.053	0.169
-241.932	-118.963	-0.544	0.123
-240.917	-200.000	-0.018	0.161
-239.903	-24.155	-0.056	-0.043
-238.888	-76.287	-0.423	-0.193
-237.873	335.995	-0.106	0.267
-236.859	-127.101	-0.076	0.014
-235.844	-97.401	-0.133	0.045
-234.830	-5.256	-0.232	-0.207
-233.815	-94.701	0.502	-0.176
-232.800	281.917	-0.162	-0.378
-231.786	-104.017	-0.123	0.037
-230.771	256.615	0.193	0.433
-229.757	315.947	0.213	0.525
-228.742	239.894	0.145	-0.316
-227.727	-88.397	-0.389	-0.150
-226.713	256.334	-0.315	-0.705
-225.698	-22.388	-0.123	-0.097
-224.684	-72.431	0.132	0.063
-223.669	329.020	0.048	0.119
-222.655	-137.666	-0.230	0.033
-221.640	-17.107	0.338	0.277
-220.625	-200.000	0.028	-0.369
-219.611	338.419	-0.182	-0.461
-218.596	-108.951	0.443	-0.122
-217.582	71.946	-0.310	0.419
-216.567	-144.137	0.169	0.020
-215.552	-130.892	-0.155	-0.027
-214.538	-129.703	0.223	-0.040
-213.523	31.163	-0.369	0.411
-212.509	-83.368	-0.263	-0.109
-211.494	-126.422	-0.268	-0.051
-210.479	185.957	0.119	0.230
-209.465	-200.000	-0.020	0.426
-208.450	4.138	0.245	0.233
-207.436	-7.162	0.379	-0.333
-206.421	800.000	-0.017	0.080
-205.406	-5.967	-0.170	0.151
-204.392	-5.632	0.186	-0.165
-203.377	-183.364	-0.448	0.010
-202.363	5.325	-0.254	0.243
-201.348	62.262	0.103	-0.133
-200.333	103.020	0.204	0.310
-199.319	-200.000	0.009	0.303
-198.304	46.376	-0.466	0.561
-197.290	72.527	0.126	-0.170
-196.275	-107.708	-0.227	-0.064
-195.260	-75.654	0.475	0.218
-194.246	-57.071	-0.267	0.152
-193.231	-4.714	-0.305	-0.273
-192.217	800.000	-0.035	-0.183
-191.202	-160.873	0.302	-0.020
-190.187	-15.855	-0.045	0.037
-189.173	173.169	0.154	-0.289
-188.158	-63.139	-0.536	0.286
-187.144	67.683	-0.266	0.352
-186.129	157.562	0.209	-0.376
-185.114	-63.753	-0.512	-0.271
-184.100	38.139	-0.226	0.261
-183.085	372.374	0.025	0.067
-182.071	282.736	0.239	0.559
-181.056	800.000	-0.051	0.284
-180.042	800.000	0.055	-0.227
-179.027	53.714	0.252	-0.314
-178.012	-65.147	0.189	-0.098
-176.998	-13.495	-0.461	-0.387
-175.983	-135.524	0.267	-0.041
-174.969	-93.941	0.208	0.074
-173.954	-4.321	0.238	0.213
-172.939	-156.363	-0.123	-0.010
-171.925	800.000	-0.148	-0.631
-170.910	-181.122	0.242	0.006
-169.896	-99.412	0.469	-0.152
-168.881	170.328	0.166	0.309
-167.866	-200.000	0.044	-0.414
-166.852	167.933	-0.059	-0.109
-165.837	-69.984	0.294	0.145
-164.823	525.771	-0.089	0.272
-163.808	-20.346	0.255	0.203
-162.793	-109.344	-0.145	0.039
-161.779	-96.054	0.509	0.174
-160.764	-51.376	-0.241	-0.146
-159.750	-129.150	-0.485	-0.087
-158.735	281.069	-0.101	0.235
-157.720	-104.216	-0.355	0.106
-156.706	197.396	-0.136	0.269
-155.691	-120.558	0.170	-0.037
-154.677	-178.304	0.646	-0.019
-153.662	-46.187	0.589	0.374
-152.647	800.000	-0.127	0.524
-151.633	-45.788	-0.365	-0.233
-150.618	-48.976	0.360	-0.222
-149.604	-31.182	-0.298	0.217
-148.589	-29.209	-0.164	-0.122
-147.574	-9.944	0.167	0.143
-146.560	-73.462	-0.615	0.289
-145.545	-114.182	-0.175	-0.044
-144.531	82.758	0.089	-0.125
-143.516	-62.578	0.350	0.188
-142.502	800.000	-0.059	-0.218
-141.487	-78.820	0.277	-0.122
-140.472	-73.242	-0.304	-0.143
-139.458	-8.802	-0.249	0.216
-138.443	-98.490	-0.177	-0.058
-137.429	-89.123	0.487	-0.185
-136.414	13.662	0.148	0.148
-135.399	774.843	-0.022	-0.077
-134.385	-136.682	0.308	0.046
-133.370	263.779	-0.139	0.314
-132.356	177.618	-0.131	-0.248
-131.341	800.000	0.089	-0.381
-130.326	-81.848	0.400	-0.169
-129.312	-118.512	0.189	0.043
-128.297	33.793	-0.198	-0.223
-127.283	86.594	-0.116	0.165
-126.268	118.738	-0.134	0.214
-125.253	359.009	-0.163	0.423
-124.239	77.440	0.235	0.324
-123.224	-97.724	-0.508	-0.169
-122.210	-127.872	0.231	-0.043
-121.195	-24.563	-0.114	0.088
-120.180	800.000	0.019	-0.075
-119.166	800.000	-0.031	0.139
-118.151	42.566	-0.345	-0.406
-117.137	-200.000	0.030	0.192
-116.122	4.238	-0.078	-0.074
-115.107	-37.255	0.052	0.036
-114.093	-140.381	-0.517	0.069
-113.078	-102.443	0.210	0.065
-112.064	42.525	-0.177	0.208
-111.049	800.000	0.081	0.409
-110.034	-168.993	0.074	0.004
-109.020	-200.000	-0.012	0.331
-108.005	800.000	0.045	-0.169
-106.991	-36.996	-0.135	-0.093
-105.976	-0.590	-0.085	-0.078
-104.962	-200.000	0.027	-0.469
-103.947	-200.000	0.025	-0.433
-102.932	-97.744	0.344	-0.115
-101.918	-200.000	0.019	0.213
-100.903	-34.495	-0.233	-0.165
-99.889	625.417	-0.049	-0.160
-98.874	86.933	-0.134	0.191
-97.859	-35.843	-0.141	0.099
-96.845	299.636	0.076	-0.183
-95.830	-25.977	-0.568	-0.431
-94.816	199.250	-0.226	0.448
-93.801	-104.468	0.153	0.046
-92.786	-154.779	0.360	0.030
-91.772	-92.734	0.248	-0.089
-90.757	-28.069	-0.055	-0.041
-89.743	-80.775	0.109	0.046
-88.728	0.490	-0.294	0.271
-87.713	3.824	-0.187	0.176
-86.699	17.195	-0.037	-0.037
-85.684	-200.000	-0.010	0.125
-84.670	-40.040	-0.502	0.337
-83.655	101.413	0.240	0.361
-82.640	32.601	0.270	0.302
-81.626	14.771	0.302	0.305
-80.611	304.290	-0.156	-0.375
-79.597	-200.000	0.012	-0.108
-78.582	800.000	0.103	0.424
-77.567	-2.269	0.422	-0.382
-76.553	-36.638	-0.445	0.308
-75.538	800.000	0.042	0.151
-74.524	339.191	-0.233	-0.590
-73.509	-146.163	-0.184	-0.021
-72.494	-39.839	-0.111	-0.074
-71.480	-200.000	-0.057	0.329
-70.465	97.331	-0.136	0.201
-69.451	-50.922	0.219	-0.133
-68.436	-85.259	0.200	0.080
-67.422	-140.540	-0.268	-0.036
-66.407	-130.899	-0.466	-0.080
-65.392	-121.148	0.312	-0.067
-64.378	-105.204	0.280	0.082
-63.363	475.751	-0.044	-0.128
-62.349	-141.684	-0.424	-0.054
-61.334	25.773	-2.261	-2.431
-60.319	13.295	1.664	1.663
-59.305	187.982	-3.928	-7.595
-58.290	33.751	4.190	4.703
-57.276	450.406	3.751	10.735
-56.261	-200.000	22.829	309.440
-55.246	369.330	1280.441	3358.902
-54.232	54.261	2835.329	3523.490
-53.217	53.006	2661.438	3287.927
-52.203	33.309	2394.153	2680.729
-51.188	28.578	2060.575	2249.004
-50.173	25.076	1946.766	2083.852
-49.159	24.080	1934.499	2059.075
-48.144	23.513	1931.463	2049.181
-47.130	23.374	1928.811	2044.666
-46.115	23.396	1927.019	2042.940
-45.100	23.392	1926.108	2041.850
-44.086	23.330	1924.342	2039.177
-43.071	23.280	1923.688	2037.831
-42.057	23.306	1921.334	2035.554
-41.042	23.288	1920.449	2034.325
-40.027	23.263	1918.700	2032.102
-39.013	23.268	1917.458	2030.763
-37.998	23.401	1915.100	2029.718
-36.984	23.374	1913.892	2028.043
-35.969	23.332	1912.288	2025.781
-34.954	23.322	1911.758	2025.022
-33.940	23.306	1911.224	2024.195
-32.925	23.341	1909.283	2022.464
-31.911	23.102	1909.408	2019.771
-30.896	23.295	1907.013	2019.366
-29.881	23.313	1905.199	2017.581
-28.867	23.194	1904.197	2015.076
-27.852	23.164	1902.877	2013.251
-26.838	23.162	1901.306	2011.490
-25.823	23.196	1899.484	2009.870
-24.809	23.115	1899.261	2008.630
-23.794	23.281	1896.970	2008.014
-22.779	23.161	1896.198	2005.756
-21.765	23.123	1895.000	2003.971
-20.750	23.248	1893.416	2003.639
-19.736	23.090	1893.039	2001.369
-18.721	23.174	1890.607	1999.673
-17.706	23.098	1890.050	1998.137
-16.692	23.026	1888.921	1996.046
-15.677	23.162	1886.822	1995.297
-14.663	23.042	1885.760	1992.732
-13.648	23.011	1884.696	1991.181
-12.633	22.933	1883.470	1988.917
-11.619	22.941	1883.286	1988.741
-10.604	23.001	1881.747	1987.710
-9.590	23.018	1880.611	1986.631
-8.575	23.036	1878.175	1984.177
-7.560	23.135	1877.063	1984.034
-6.546	23.066	1876.024	1982.084
-5.531	23.092	1874.618	1980.813
-4.517	23.000	1873.480	1978.496
-3.502	22.981	1873.294	1978.009
-2.487	23.030	1871.379	1976.463
-1.473	23.101	1868.804	1974.455
-0.458	23.301	1851.207	1958.006
0.556	20.341	1999.908	2067.541
1.571	19.426	2205.446	2267.666
2.586	20.137	2246.155	2318.814
3.600	20.115	2249.436	2321.635
4.615	20.197	2247.730	2320.690
5.629	20.202	2246.871	2319.596
6.644	20.234	2243.896	2316.675
7.659	20.250	2240.981	2313.598
8.673	20.241	2239.494	2311.675
9.688	20.032	2248.753	2318.144
10.702	19.096	2327.605	2386.098
11.717	17.295	2392.419	2426.432
12.731	8.376	2370.553	2276.678
13.746	1.341	2350.080	2156.555
14.761	0.307	2346.904	2138.639
15.775	0.197	2345.210	2135.278
16.790	0.056	2344.249	2132.133
17.804	0.093	2342.863	2131.146
18.819	0.149	2341.951	2130.858
19.834	0.066	2339.329	2127.034
20.848	0.112	2338.662	2126.836
21.863	0.162	2336.551	2125.365
22.877	0.104	2334.872	2122.756
23.892	0.062	2332.539	2119.790
24.907	0.009	2329.778	2116.280
25.921	0.014	2328.434	2114.877
26.936	0.069	2325.686	2112.905
27.950	0.048	2323.143	2110.040
28.965	0.086	2320.760	2108.164
29.980	0.046	2320.047	2106.701
30.994	0.241	2316.523	2105.984
32.009	4.408	2331.255	2177.965
33.023	14.857	2362.790	2355.870
34.038	19.729	2371.177	2433.037
35.053	20.292	2369.602	2439.080
36.067	20.004	2366.869	2431.924
37.082	19.805	2363.826	2425.688
38.096	19.757	2361.399	2422.232
39.111	20.103	2360.539	2425.938
40.126	20.442	2359.450	2429.290
41.140	20.736	2358.420	2432.064
42.155	20.606	2355.989	2427.450
43.169	20.528	2354.068	2424.083
44.184	20.675	2349.681	2421.328
45.199	20.597	2349.566	2419.837
46.213	20.512	2347.847	2416.588
47.228	20.514	2347.058	2415.512
48.242	20.658	2345.420	2415.551
49.257	20.620	2343.564	2412.815
50.271	20.669	2341.092	2410.662
51.286	20.673	2337.685	2406.920
52.301	20.481	2336.874	2403.129
53.315	20.564	2335.765	2402.855
54.330	20.981	2336.320	2408.936
55.344	21.243	2334.890	2410.801
56.359	21.353	2330.804	2407.824
57.374	21.237	2330.102	2405.198
58.388	21.464	2327.176	2405.039
59.403	21.508	2324.040	2402.114
60.417	21.555	2321.455	2399.801
61.432	21.614	2320.520	2399.365
62.447	21.734	2319.693	2399.872
63.461	21.768	2317.214	2397.490
64.476	21.824	2315.417	2396.106
65.490	21.776	2314.185	2393.882
66.505	21.671	2312.790	2390.723
67.520	21.234	2310.608	2382.190
68.534	20.653	2305.983	2369.178
69.549	20.604	2302.244	2364.388
70.563	20.788	2300.395	2364.714
71.578	20.696	2299.861	2362.626
72.593	20.676	2298.065	2360.230
73.607	20.823	2296.063	2359.889
74.622	20.809	2294.939	2358.258
75.636	20.649	2290.508	2351.261
76.651	20.664	2289.197	2349.835
77.666	20.776	2287.840	2349.677
78.680	20.709	2285.378	2345.958
79.695	20.655	2283.163	2342.674
80.709	20.736	2282.458	2342.769
81.724	20.908	2280.415	2342.714
82.739	20.871	2277.815	2339.256
83.753	20.691	2274.901	2333.562
84.768	20.649	2273.405	2331.181
85.782	20.676	2271.701	2329.521
86.797	20.527	2270.638	2326.144
87.812	20.673	2268.639	2325.787
88.826	20.638	2267.036	2323.387
89.841	20.781	2264.189	2322.106
90.855	20.952	2262.313	2322.206
91.870	20.719	2260.640	2317.088
92.884	20.712	2258.695	2314.726
93.899	20.739	2257.535	2313.612
94.914	20.724	2257.383	2312.988
95.928	21.072	2257.761	2317.738
96.943	21.176	2255.679	2316.717
97.957	20.765	2251.003	2306.170
98.972	20.427	2249.060	2299.407
99.987	20.346	2246.220	2295.140
101.001	20.360	2243.323	2292.092
102.016	20.497	2241.604	2291.890
103.030	20.498	2240.221	2290.209
104.045	20.661	2237.252	2289.055
105.060	20.828	2234.506	2288.173
106.074	20.739	2234.235	2286.450
107.089	20.607	2231.945	2282.094
108.103	20.639	2231.823	2282.110
109.118	20.709	2229.974	2280.869
110.133	20.860	2229.011	2281.599
111.147	21.085	2226.801	2282.027
112.162	21.042	2225.136	2279.490
113.176	20.729	2221.314	2271.195
114.191	20.560	2219.607	2266.962
115.206	20.534	2219.183	2265.911
116.220	20.804	2216.177	2266.110
117.235	20.428	2214.213	2258.909
118.249	20.319	2211.339	2254.293
119.264	20.572	2211.050	2257.022
120.279	20.662	2210.396	2257.256
121.293	20.627	2207.463	2253.535
122.308	20.587	2206.861	2252.132
123.322	20.604	2205.518	2250.718
124.337	20.508	2204.626	2248.289
125.352	21.278	2205.252	2258.661
126.366	21.373	2203.582	2257.924
127.381	20.663	2197.939	2242.670
128.395	20.338	2195.010	2235.207
129.410	20.317	2194.229	2233.878
130.424	20.539	2192.454	2234.662
131.439	20.430	2189.688	2230.178
132.454	20.174	2188.620	2225.513
133.468	20.311	2186.504	2224.870
134.483	20.396	2184.527	2223.676
135.497	20.249	2182.523	2219.485
136.512	20.334	2180.425	2218.180
137.527	20.397	2178.819	2217.089
138.541	20.446	2177.875	2216.494
139.556	20.438	2177.096	2215.324
140.570	20.547	2174.902	2214.222
141.585	20.700	2173.537	2214.527
142.600	20.599	2172.156	2211.563
143.614	20.419	2171.678	2208.507
144.629	20.652	2168.455	2207.947
145.643	20.537	2166.682	2204.404
146.658	20.371	2165.322	2200.641
147.673	20.527	2164.359	2201.389
148.687	20.844	2163.264	2204.044
149.702	20.695	2161.875	2200.469
150.716	20.760	2159.688	2198.807
151.731	20.742	2159.625	2198.257
152.746	20.804	2157.643	2196.752
153.760	20.569	2157.837	2193.716
154.775	20.912	2158.098	2198.065
155.789	20.938	2156.071	2196.060
156.804	20.540	2150.851	2185.452
157.819	20.573	2147.393	2182.102
158.833	20.728	2145.810	2182.187
159.848	20.909	2143.467	2181.820
160.862	20.745	2143.737	2179.768
161.877	20.708	2141.594	2176.866
162.892	20.738	2140.555	2175.925
163.906	20.751	2138.546	2173.786
164.921	20.717	2137.290	2171.825
165.935	20.720	2134.814	2169.087
166.950	20.648	2133.167	2166.241
167.964	20.641	2130.267	2162.950
168.979	20.518	2128.840	2159.706
169.994	20.549	2128.430	2159.428
171.008	20.761	2125.548	2158.886
172.023	20.813	2123.708	2157.404
173.037	20.743	2123.161	2155.719
174.052	20.500	2120.752	2149.993
175.067	20.398	2118.606	2146.296
176.081	20.658	2117.844	2148.492
177.096	20.474	2116.959	2145.060
178.110	20.433	2114.372	2141.669
179.125	20.452	2113.397	2140.658
180.140	20.573	2112.309	2140.804
181.154	20.622	2110.925	2139.747
182.169	20.321	2110.046	2134.878
183.183	20.194	2108.774	2131.772
184.198	20.890	2109.314	2140.659
185.213	21.086	2107.741	2141.223
186.227	20.850	2104.648	2134.913
187.242	20.641	2102.646	2130.063
188.256	20.635	2100.561	2127.618
189.271	20.749	2100.706	2128.915
190.286	20.710	2098.674	2126.116
191.300	20.533	2095.637	2120.610
192.315	20.432	2093.778	2117.239
193.329	20.540	2092.313	2116.829
194.344	20.712	2091.518	2117.880
195.359	20.822	2089.781	2117.202
196.373	20.633	2087.931	2112.768
197.388	20.595	2086.176	2110.282
198.402	20.646	2082.870	2107.302
199.417	20.553	2080.096	2103.112
200.432	20.519	2080.158	2102.513
201.446	20.800	2079.788	2105.298
202.461	20.705	2077.459	2101.541
203.475	20.718	2076.000	2099.965
204.490	20.737	2074.380	2098.310
205.504	20.661	2071.883	2094.616
206.519	20.676	2068.134	2090.753
207.534	20.677	2067.368	2089.740
208.548	20.694	2066.528	2088.847
209.563	20.798	2064.593	2087.896
210.577	20.550	2063.093	2083.147
211.592	20.623	2063.152	2083.827
212.607	20.833	2063.951	2086.917
213.621	21.314	2064.019	2092.528
214.636	21.076	2061.515	2086.882
215.650	20.529	2058.110	2076.618
216.665	20.353	2056.892	2073.020
217.680	20.747	2054.816	2075.404
218.694	20.856	2053.551	2075.188
219.709	21.114	2051.799	2076.254
220.723	21.054	2050.591	2074.062
221.738	20.898	2048.761	2070.105
222.753	20.632	2046.803	2064.697
223.767	20.736	2044.173	2063.047
224.782	20.559	2043.156	2059.666
225.796	20.550	2042.596	2058.737
226.811	20.785	2040.220	2058.893
227.826	20.691	2038.739	2056.034
228.840	20.782	2037.681	2055.802
229.855	20.645	2036.283	2052.523
230.869	20.846	2034.214	2052.571
231.884	20.620	2033.470	2048.902
232.899	20.429	2030.975	2043.877
233.913	20.382	2029.503	2041.595
234.928	20.502	2028.663	2041.934
235.942	20.714	2026.774	2042.285
236.957	20.675	2025.323	2040.123
237.972	20.739	2023.811	2039.101
238.986	20.736	2023.609	2038.619
240.001	20.794	2021.483	2036.915
241.015	20.464	2019.828	2031.133
242.030	20.608	2019.497	2032.239
243.045	21.063	2018.909	2036.755
244.059	21.077	2017.382	2035.130
245.074	20.671	2013.463	2026.180
246.088	20.444	2011.258	2021.063
247.103	20.473	2009.143	2019.043
248.117	20.599	2007.802	2018.918
249.132	20.757	2006.188	2018.898
250.147	20.563	2004.360	2014.558
251.161	20.442	2002.254	2010.794
252.176	20.511	2001.833	2010.932
253.190	20.859	1999.930	2012.815
254.205	20.820	1998.305	2010.497
255.220	20.834	1997.597	2009.696
256.234	20.954	1996.583	2009.833
257.249	20.874	1995.436	2007.512
258.263	20.784	1993.502	2004.281
259.278	20.748	1992.747	2002.863
260.293	20.546	1991.610	1999.152
261.307	20.598	1988.198	1996.083
262.322	20.687	1987.244	1995.918
263.336	20.660	1985.101	1993.206
264.351	20.565	1984.371	1991.141
265.366	20.468	1983.289	1988.708
266.380	20.621	1982.634	1989.573
267.395	20.691	1980.658	1988.152
268.409	20.725	1978.444	1986.079
269.424	20.790	1977.428	1985.571
270.439	20.797	1976.857	1984.844
271.453	20.786	1975.144	1982.752
272.468	21.108	1974.645	1985.706
273.482	21.186	1972.540	1984.244
274.497	20.733	1969.131	1975.400
275.512	20.797	1966.786	1973.545
276.526	20.659	1964.683	1969.626
277.541	20.684	1963.415	1968.410
278.555	20.685	1961.922	1966.684
279.570	20.647	1958.798	1962.889
280.585	20.463	1957.346	1959.108
281.599	20.392	1956.862	1957.592
282.614	20.479	1955.834	1957.315
283.628	20.553	1953.452	1955.530
284.643	20.596	1953.405	1955.728
285.657	20.819	1952.679	1957.290
286.672	20.849	1950.609	1955.319
287.687	20.613	1948.839	1950.656
288.701	20.412	1947.994	1947.306
289.716	20.458	1945.463	1945.061
290.730	20.461	1943.323	1942.719
291.745	20.482	1941.895	1941.302
292.760	20.475	1941.274	1940.373
293.774	20.501	1942.037	1941.185
294.789	20.668	1939.614	1940.406
295.803	20.523	1937.706	1936.639
296.818	20.715	1936.632	1937.491
297.833	20.658	1935.799	1935.787
298.847	20.617	1934.785	1934.076
299.862	20.671	1932.380	1932.050
300.876	20.659	1931.265	1930.573
301.891	21.189	1931.745	1936.731
302.906	21.419	1930.290	1937.597
303.920	20.935	1928.188	1929.874
304.935	20.538	1924.530	1921.566
305.949	20.421	1922.726	1918.234
306.964	20.503	1920.708	1916.911
307.979	20.743	1919.901	1918.530
308.993	20.723	1918.290	1916.475
310.008	20.787	1917.063	1915.721
311.022	20.705	1915.662	1913.185
312.037	20.672	1913.357	1910.292
313.052	20.590	1911.208	1907.014
314.066	20.532	1909.724	1904.664
315.081	20.400	1909.427	1902.682
316.095	20.557	1907.999	1902.766
317.110	20.724	1906.552	1902.923
318.125	20.805	1905.326	1902.370
319.139	20.764	1904.560	1900.923
320.154	20.762	1902.358	1898.474
321.168	20.749	1902.128	1897.879
322.183	20.936	1899.473	1897.050
323.197	20.721	1899.054	1894.056
324.212	20.696	1896.054	1890.559
325.227	20.660	1895.162	1889.046
326.241	20.762	1892.935	1887.712
327.256	20.868	1891.771	1887.487
328.270	20.915	1891.619	1887.618
329.285	20.877	1890.383	1885.750
330.300	20.854	1891.225	1886.111
331.314	21.373	1891.137	1891.447
332.329	21.229	1887.821	1886.335
333.343	20.790	1885.112	1878.644
334.358	21.131	1882.686	1879.695
335.373	20.968	1881.638	1876.659
336.387	20.773	1879.555	1872.250
337.402	20.750	1878.387	1870.608
338.416	20.508	1876.679	1866.081
339.431	20.693	1875.559	1866.731
340.446	20.709	1874.119	1865.247
341.460	20.709	1872.022	1862.937
342.475	20.677	1870.278	1860.633
343.489	20.773	1868.265	1859.444
344.504	20.790	1868.675	1859.808
345.519	20.847	1866.174	1857.713
346.533	20.844	1865.036	1856.322
347.548	20.741	1864.614	1854.572
348.562	20.898	1862.707	1854.136
349.577	20.771	1861.395	1851.255
350.592	20.599	1859.629	1847.441
351.606	20.622	1857.889	1845.729
352.621	20.599	1856.665	1844.052
353.635	20.407	1854.510	1839.649
354.650	20.265	1853.802	1837.209
355.665	20.388	1852.090	1836.604
356.679	20.523	1850.344	1836.084
357.694	20.593	1849.151	1835.425
358.708	20.620	1848.162	1834.506
359.723	20.947	1848.929	1838.514
360.738	21.385	1848.747	1842.756
361.752	21.270	1846.408	1838.987
362.767	20.536	1842.926	1827.549
363.781	20.317	1840.349	1822.460
364.796	20.444	1839.738	1822.980
365.810	20.476	1839.227	1822.596
366.825	20.456	1837.012	1819.966
367.840	20.394	1835.577	1817.678
368.854	20.337	1835.101	1816.383
369.869	20.293	1832.429	1813.062
370.883	20.265	1832.261	1812.389
371.898	20.156	1831.029	1809.807
372.913	20.469	1830.186	1812.037
373.927	20.744	1829.213	1813.735
374.942	20.787	1828.243	1813.012
375.956	20.784	1826.455	1810.994
376.971	20.552	1823.223	1805.145
377.986	20.411	1821.003	1801.264
379.000	20.430	1821.772	1802.003
380.015	20.867	1820.764	1805.343
381.029	20.949	1818.011	1803.256
382.044	20.904	1816.975	1801.546
383.059	20.873	1815.567	1799.611
384.073	20.788	1814.318	1797.273
385.088	20.560	1813.438	1793.825
386.102	20.495	1811.153	1790.677
387.117	20.512	1809.182	1788.683
388.132	20.437	1809.352	1787.868
389.146	20.603	1810.651	1790.649
390.161	21.261	1808.869	1795.478
391.175	21.153	1805.273	1790.579
392.190	20.677	1800.774	1781.002
393.205	20.413	1798.755	1776.085
394.219	20.456	1797.400	1774.974
395.234	20.296	1796.897	1772.625
396.248	20.473	1794.708	1772.067
397.263	20.393	1792.078	1768.434
398.278	20.322	1790.779	1766.218
399.292	20.468	1790.871	1767.592
400.307	20.653	1790.282	1768.690
401.321	20.762	1788.051	1767.382
402.336	20.581	1786.937	1764.230
403.350	20.702	1785.361	1763.687
404.365	20.961	1784.073	1764.840
405.380	21.296	1783.319	1767.291
406.394	21.300	1783.411	1767.209
407.409	21.272	1781.548	1764.873
408.423	21.132	1779.517	1761.230
409.438	20.982	1777.219	1757.220
410.453	20.941	1776.465	1755.853
411.467	20.864	1775.284	1753.695
412.482	21.008	1773.785	1753.463
413.496	20.756	1772.250	1749.190
414.511	20.728	1770.944	1747.409
415.526	20.370	1768.667	1741.349
416.540	20.617	1767.002	1741.983
417.555	20.667	1766.307	1741.594
418.569	20.383	1765.912	1738.140
419.584	20.487	1766.161	1739.217
420.599	20.766	1765.787	1741.446
421.613	20.763	1764.893	1740.329
422.628	20.978	1763.299	1740.705
423.642	21.027	1761.686	1739.398
424.657	20.890	1760.542	1736.684
425.672	20.718	1758.816	1733.051
426.686	20.778	1757.157	1731.812
427.701	20.628	1755.514	1728.489
428.715	20.651	1753.766	1726.793
429.730	20.676	1752.233	1725.321
430.745	20.692	1751.133	1724.197
431.759	20.514	1749.592	1720.699
432.774	20.103	1749.149	1715.966
433.788	19.800	1747.964	1711.582
434.803	19.757	1747.182	1710.187
435.818	19.754	1745.914	1708.709
436.832	19.682	1745.735	1707.614
437.847	18.630	1737.524	1688.972
438.861	10.067	1714.477	1582.440
439.876	1.643	1699.483	1485.977
440.890	0.329	1695.901	1469.796
441.905	0.242	1694.442	1467.503
442.920	0.043	1693.299	1464.384
443.934	0.068	1691.882	1463.235
444.949	0.177	1690.429	1462.868
445.963	0.136	1689.914	1461.838
446.978	0.106	1689.488	1461.005
447.993	0.168	1687.519	1459.738
449.007	0.048	1685.881	1456.970
450.022	0.151	1683.548	1455.788
451.036	0.224	1682.200	1455.157
452.051	0.721	1684.533	1461.825
453.066	7.868	1701.932	1546.762
454.080	16.896	1716.625	1648.530
455.095	19.066	1720.884	1673.665
456.109	19.206	1720.577	1674.534
457.124	19.366	1718.745	1674.106
458.139	19.215	1718.610	1672.301
459.153	19.242	1717.644	1671.426
460.168	19.352	1715.226	1669.940
461.182	19.326	1714.092	1668.386
462.197	19.393	1713.045	1667.816
463.212	19.450	1711.298	1666.475
464.226	19.728	1709.820	1667.530
465.241	19.630	1708.299	1664.900
466.255	19.532	1706.868	1662.357
467.270	19.569	1705.025	1660.725
468.285	19.535	1704.854	1660.022
469.299	19.598	1703.198	1658.822
470.314	19.587	1701.892	1657.247
471.328	19.623	1700.618	1656.155
472.343	19.612	1699.767	1655.025
473.358	19.586	1698.091	1652.939
474.372	19.620	1696.839	1651.848
475.387	19.685	1695.291	1650.774
476.401	19.547	1694.496	1648.473
477.416	19.432	1693.025	1645.740
478.430	19.419	1692.056	1644.479
479.445	19.498	1691.502	1644.497
480.460	19.668	1689.729	1644.210
481.474	19.622	1688.874	1642.738
482.489	19.557	1687.481	1640.569
483.503	19.408	1685.450	1636.977
484.518	19.415	1684.405	1635.828
485.533	19.434	1682.701	1634.164
486.547	19.383	1680.380	1631.229
487.562	19.107	1680.783	1628.794
488.576	19.255	1678.693	1627.978
489.591	19.354	1676.800	1626.893
490.606	19.377	1676.566	1626.682
491.620	19.504	1674.611	1625.800
492.635	19.354	1673.219	1622.832
493.649	19.277	1671.557	1620.300
494.664	19.438	1670.506	1620.608
495.679	19.632	1669.459	1621.228
496.693	19.619	1667.468	1618.979
497.708	19.525	1666.644	1617.097
498.722	19.392	1665.611	1614.655
499.737	19.314	1664.304	1612.461
500.752	19.435	1662.376	1611.537
501.766	19.469	1661.195	1610.518
502.781	19.495	1659.732	1609.146
503.795	19.392	1659.245	1607.520
504.810	19.394	1657.404	1605.562
505.825	19.390	1657.145	1605.082
506.839	19.496	1654.922	1603.725
507.854	19.463	1653.172	1601.525
508.868	19.355	1652.097	1599.290
509.883	19.423	1651.280	1598.940
510.898	19.259	1650.017	1595.997
511.912	19.277	1648.283	1594.293
512.927	19.249	1646.622	1592.239
513.941	19.187	1645.290	1590.184
514.956	19.499	1643.836	1591.484
515.971	19.370	1642.671	1588.967
516.985	19.315	1641.832	1587.463
518.000	19.169	1641.077	1585.192
519.014	19.279	1639.229	1584.233
520.029	19.185	1637.996	1581.984
521.043	19.225	1637.157	1581.351
522.058	19.238	1635.942	1580.108
523.073	19.304	1634.775	1579.397
524.087	19.148	1633.729	1576.763
525.102	19.124	1632.463	1575.132
526.116	19.366	1631.185	1575.936
527.131	19.551	1631.215	1577.473
528.146	19.380	1629.524	1574.084
529.160	19.436	1628.294	1573.215
530.175	19.318	1626.813	1570.519
531.189	19.312	1625.572	1569.075
532.204	19.213	1624.042	1566.510
533.219	19.191	1623.094	1565.205
534.233	19.423	1622.662	1566.714
535.248	19.383	1621.296	1564.843
536.262	19.243	1619.834	1561.976
537.277	19.115	1618.999	1559.816
538.292	19.255	1617.078	1559.047
539.306	19.192	1615.560	1556.825
540.321	19.271	1613.778	1555.642
541.335	19.189	1612.650	1553.621
542.350	19.211	1611.221	1552.262
543.365	19.143	1609.668	1549.961
544.379	19.047	1608.562	1547.842
545.394	19.199	1607.231	1547.752
546.408	19.342	1606.254	1547.915
547.423	19.414	1605.400	1547.559
548.438	19.541	1605.007	1548.142
549.452	19.376	1603.444	1544.956
550.467	19.343	1602.393	1543.467
551.481	19.289	1600.746	1541.207
552.496	19.270	1599.955	1540.090
553.511	19.104	1599.454	1537.939
554.525	19.143	1597.479	1536.205
555.540	19.102	1597.101	1535.285
556.554	19.203	1595.587	1534.550
557.569	19.205	1594.044	1532.900
558.583	19.162	1592.363	1530.720
559.598	19.155	1591.652	1529.786
560.613	19.207	1590.447	1528.912
561.627	19.117	1588.559	1526.113
562.642	19.086	1586.723	1523.889
563.656	19.062	1585.702	1522.514
564.671	18.921	1584.435	1519.861
565.686	18.854	1583.543	1518.225
566.700	19.036	1582.597	1518.752
567.715	19.017	1580.857	1516.738
568.729	18.929	1580.370	1515.304
569.744	18.929	1578.550	1513.383
570.759	19.089	1577.367	1513.477
571.773	19.076	1575.847	1511.725
572.788	18.954	1574.563	1509.231
573.802	18.998	1572.774	1507.732
574.817	18.908	1571.873	1505.888
575.832	18.862	1570.365	1503.862
576.846	18.944	1569.456	1503.533
577.861	19.072	1568.784	1503.832
578.875	19.050	1568.412	1503.107
579.890	19.136	1566.636	1501.976
580.905	19.105	1565.324	1500.266
581.919	18.984	1564.822	1498.546
582.934	19.062	1563.655	1497.928
583.948	18.973	1562.156	1495.535
584.963	18.965	1561.603	1494.758
585.978	19.071	1560.558	1494.507
586.992	19.105	1559.259	1493.377
588.007	18.997	1557.589	1490.662
589.021	19.200	1556.119	1490.842
590.036	19.206	1555.267	1489.901
591.051	18.999	1554.727	1487.400
592.065	18.876	1553.483	1484.964
593.080	18.902	1550.923	1482.566
594.094	18.993	1548.939	1481.285
595.109	19.137	1547.696	1481.166
596.123	19.348	1546.577	1481.740
597.138	19.165	1546.005	1479.429
598.153	19.157	1544.048	1477.308
599.167	19.055	1543.351	1475.587
600.182	18.894	1543.111	1473.794
601.196	19.102	1541.407	1473.784
602.211	19.068	1540.272	1472.230
603.226	19.029	1538.776	1470.291
604.240	18.984	1537.071	1468.094
605.255	18.934	1535.877	1466.354
606.269	19.054	1535.527	1466.869
607.284	19.079	1534.100	1465.540
608.299	19.097	1532.900	1464.381
609.313	19.141	1531.744	1463.473
610.328	18.980	1531.130	1461.335
611.342	19.042	1529.248	1459.898
612.357	19.073	1528.272	1459.055
613.372	19.004	1527.073	1457.148
614.386	18.874	1526.341	1455.161
615.401	18.863	1525.376	1453.974
616.415	18.880	1524.196	1452.822
617.430	18.832	1523.245	1451.338
618.445	18.722	1522.261	1449.293
619.459	18.777	1521.056	1448.440
620.474	18.827	1520.364	1448.030
621.488	18.941	1519.327	1447.832
622.503	18.964	1517.828	1446.422
623.518	18.905	1516.263	1444.261
624.532	18.647	1515.265	1440.964
625.547	18.707	1513.946	1440.038
626.561	18.787	1513.105	1439.743
627.576	18.660	1511.848	1437.304
628.591	18.801	1510.915	1437.432
629.605	18.828	1510.447	1437.041
630.620	18.893	1508.570	1435.630
631.634	18.959	1507.706	1435.192
632.649	19.014	1506.455	1434.290
633.663	18.941	1504.892	1432.016
634.678	18.838	1503.385	1429.550
635.693	18.804	1501.764	1427.552
636.707	18.658	1501.093	1425.522
637.722	18.613	1500.027	1423.966
638.736	18.815	1498.423	1423.957
639.751	18.773	1497.688	1422.734
640.766	18.855	1496.301	1421.936
641.780	18.740	1495.779	1420.312
642.795	18.862	1495.111	1420.518
643.809	19.013	1493.878	1420.430
644.824	18.969	1492.699	1418.779
645.839	18.943	1492.264	1417.980
646.853	19.028	1490.141	1416.490
647.868	19.020	1488.492	1414.690
648.882	19.076	1487.681	1414.210
649.897	19.066	1486.776	1413.097
650.912	19.033	1484.651	1410.642
651.926	18.968	1483.824	1409.152
652.941	18.849	1483.437	1407.630
653.955	18.932	1481.580	1406.384
654.970	18.858	1480.204	1404.300
655.985	18.943	1479.029	1403.714
656.999	19.062	1477.699	1403.263
658.014	19.044	1475.712	1401.060
659.028	18.929	1475.101	1399.373
660.043	18.985	1474.338	1398.936
661.058	18.843	1473.504	1396.820
662.072	18.792	1473.309	1396.049
663.087	18.942	1471.977	1395.843
664.101	18.982	1470.449	1394.552
665.116	18.863	1469.511	1392.534
666.131	18.866	1468.398	1391.330
667.145	18.915	1466.765	1390.013
668.160	18.893	1465.550	1388.520
669.174	18.895	1463.836	1386.749
670.189	18.949	1463.286	1386.497
671.204	18.727	1462.528	1383.811
672.218	18.814	1461.610	1383.484
673.233	18.930	1459.987	1382.724
674.247	18.818	1458.901	1380.621
675.262	18.793	1458.253	1379.641
676.276	18.797	1457.526	1378.818
677.291	18.894	1456.414	1378.385
678.306	18.881	1455.590	1377.337
679.320	18.834	1454.206	1375.487
680.335	18.900	1452.991	1374.702
681.349	18.864	1452.579	1373.853
682.364	18.843	1451.000	1372.028
683.379	18.759	1449.567	1369.837
684.393	18.881	1447.959	1369.133
685.408	18.710	1447.424	1367.095
686.422	18.752	1446.389	1366.288
687.437	18.752	1445.644	1365.420
688.452	18.660	1445.022	1363.934
689.466	18.815	1442.331	1362.467
690.481	18.775	1441.790	1361.476
691.495	18.626	1441.383	1359.742
692.510	18.809	1440.799	1360.483
693.525	18.790	1439.480	1358.925
694.539	18.906	1437.486	1357.802
695.554	18.674	1437.259	1355.581
696.568	18.543	1435.794	1353.001
697.583	18.588	1434.488	1351.963
698.598	18.768	1433.431	1352.226
699.612	18.780	1432.313	1351.110
700.627	18.728	1431.340	1349.615
701.641	18.860	1430.474	1349.678
702.656	18.771	1429.473	1347.872
703.671	18.774	1428.962	1347.253
704.685	18.670	1427.997	1345.360
705.700	18.998	1426.562	1346.433
706.714	18.853	1425.453	1344.081
707.729	18.732	1424.508	1342.083
708.744	18.848	1422.861	1341.277
709.758	18.954	1421.560	1340.718
710.773	18.886	1420.813	1339.323
711.787	18.999	1419.253	1338.579
712.802	18.842	1417.697	1335.720
713.816	18.872	1417.001	1335.140
714.831	18.905	1416.347	1334.625
715.846	18.872	1414.670	1332.627
716.860	18.969	1413.041	1331.689
717.875	18.897	1413.163	1331.083
718.889	18.794	1412.071	1329.092
719.904	18.851	1410.443	1327.845
720.919	18.927	1409.488	1327.373
721.933	18.862	1408.883	1326.146
722.948	18.915	1407.985	1325.552
723.962	18.907	1406.362	1323.805
724.977	18.852	1405.154	1322.080
725.992	18.642	1405.175	1320.322
727.006	18.753	1403.810	1319.733
728.021	18.831	1401.318	1317.839
729.035	18.870	1399.777	1316.528
730.050	18.667	1400.086	1315.101
731.065	18.847	1397.888	1314.260
732.079	18.746	1397.904	1313.343
733.094	18.770	1396.693	1312.228
734.108	18.866	1395.028	1311.250
735.123	18.757	1393.595	1308.906
736.138	18.640	1393.323	1307.596
737.152	18.685	1392.510	1307.026
738.167	18.982	1391.171	1307.883
739.181	18.890	1389.408	1305.362
740.196	18.872	1389.303	1304.972
741.211	18.734	1388.821	1303.313
742.225	18.756	1387.644	1302.219
743.240	18.792	1385.800	1300.603
744.254	18.787	1383.990	1298.711
745.269	18.712	1382.958	1297.016
746.284	18.666	1382.768	1296.335
747.298	18.642	1382.007	1295.287
748.313	18.598	1381.185	1294.028
749.327	18.595	1380.948	1293.627
750.342	18.739	1380.194	1293.857
751.356	18.993	1378.496	1294.034
752.371	18.752	1377.592	1291.210
753.386	18.684	1375.966	1289.018
754.400	18.710	1374.758	1287.923
755.415	18.899	1373.779	1288.279
756.429	18.804	1372.670	1286.367
757.444	18.655	1371.474	1283.976
758.459	18.786	1370.502	1283.894
759.473	18.877	1369.516	1283.500
760.488	18.782	1368.549	1281.724
761.502	18.943	1367.245	1281.558
762.517	18.833	1366.589	1279.970
763.532	18.908	1364.628	1278.538
764.546	18.917	1363.500	1277.393
765.561	18.947	1362.935	1276.937
766.575	18.894	1362.302	1275.797
767.590	18.898	1361.816	1275.220
768.605	18.875	1360.034	1273.227
769.619	18.881	1358.335	1271.524
770.634	18.779	1357.103	1269.462
771.648	18.715	1356.342	1268.123
772.663	18.816	1355.957	1268.363
773.678	18.882	1354.647	1267.471
774.692	18.753	1354.248	1265.994
775.707	18.786	1353.624	1265.504
776.721	18.628	1353.005	1263.600
777.736	18.703	1351.735	1262.821
778.751	18.728	1350.612	1261.805
779.765	18.801	1349.556	1261.207
780.780	18.812	1348.789	1260.420
781.794	18.646	1348.149	1258.448
782.809	18.608	1346.842	1256.798
783.824	18.715	1345.327	1256.018
784.838	18.778	1344.135	1255.219
785.853	18.845	1342.639	1254.161
786.867	18.841	1342.286	1253.653
787.882	18.568	1342.429	1251.634
788.897	18.507	1341.589	1250.253
789.911	18.603	1340.690	1249.971
790.926	18.636	1338.224	1247.764
791.940	18.745	1336.745	1247.033
792.955	18.816	1335.780	1246.497
793.969	18.638	1334.990	1244.316
794.984	18.467	1334.938	1242.873
795.999	18.756	1333.173	1243.184
797.013	18.750	1331.588	1241.512
798.028	18.769	1330.268	1240.273
799.042	18.842	1329.595	1240.027
800.057	18.773	1328.359	1238.225
801.072	18.852	1327.145	1237.516
802.086	18.799	1326.328	1236.222
803.101	18.753	1325.067	1234.567
804.115	18.825	1324.152	1234.082
805.130	18.656	1323.820	1232.406
806.145	18.706	1321.981	1230.908
807.159	18.904	1320.446	1230.755
808.174	18.733	1320.061	1229.021
809.188	18.874	1318.405	1228.346
810.203	18.928	1316.540	1226.846
811.218	18.907	1315.282	1225.382
812.232	18.850	1314.290	1223.901
813.247	18.823	1313.662	1222.975
814.261	18.744	1313.593	1222.197
815.276	18.792	1312.448	1221.333
816.291	18.960	1310.231	1220.317
817.305	18.927	1308.849	1218.655
818.320	18.870	1308.121	1217.420
819.334	18.667	1307.217	1214.993
820.349	18.801	1305.993	1214.663
821.364	18.917	1303.882	1213.373
822.378	18.729	1302.625	1210.729
823.393	18.733	1300.770	1208.883
824.407	18.726	1300.277	1208.234
825.422	18.624	1300.293	1207.380
826.437	18.675	1299.084	1206.479
827.451	18.726	1297.014	1204.766
828.466	18.546	1296.054	1202.464
829.480	18.712	1294.336	1201.895
830.495	18.496	1293.184	1199.166
831.509	18.520	1292.344	1198.407
832.524	18.762	1291.060	1198.772
833.539	18.708	1289.675	1196.962
834.553	18.779	1288.590	1196.310
835.568	18.874	1287.466	1195.788
836.582	18.688	1286.606	1193.549
837.597	18.814	1285.672	1193.420
838.612	18.889	1284.305	1192.527
839.626	18.793	1283.372	1190.854
840.641	18.920	1282.257	1190.556
841.655	18.762	1281.863	1188.951
842.670	18.803	1281.114	1188.396
843.685	18.872	1279.440	1187.185
844.699	19.028	1278.240	1187.009
845.714	18.897	1277.135	1184.934
846.728	18.878	1276.396	1183.972
847.743	18.850	1275.251	1182.580
848.758	18.782	1274.323	1181.102
849.772	18.721	1272.475	1178.831
850.787	18.666	1271.248	1177.176
851.801	18.621	1270.911	1176.410
852.816	18.733	1268.568	1174.872
853.831	18.793	1266.901	1173.597
854.845	18.693	1265.466	1171.445
855.860	18.759	1263.664	1170.084
856.874	18.704	1262.907	1168.869
857.889	18.703	1261.687	1167.593
858.904	18.737	1260.445	1166.538
859.918	18.888	1258.953	1166.044
860.933	18.830	1258.185	1164.803
861.947	18.708	1257.212	1162.930
862.962	18.742	1255.674	1161.596
863.977	18.718	1254.448	1160.163
864.991	18.575	1254.180	1158.806
866.006	18.725	1253.674	1159.213
867.020	18.695	1252.690	1157.962
868.035	18.570	1251.395	1155.781
869.049	18.812	1249.670	1155.687
870.064	18.831	1249.365	1155.395
871.079	18.741	1248.804	1154.127
872.093	18.825	1248.220	1154.021
873.108	18.900	1246.984	1153.247
874.122	18.924	1245.708	1152.086
875.137	18.934	1245.786	1152.086
876.152	18.860	1244.717	1150.467
877.166	18.947	1242.831	1149.167
878.181	18.901	1242.002	1147.956
879.195	18.873	1240.991	1146.698
880.210	18.885	1239.870	1145.604
881.225	19.003	1238.479	1144.967
882.239	18.966	1237.525	1143.702
883.254	19.038	1236.720	1143.302
884.268	18.969	1236.405	1142.414
885.283	18.878	1234.431	1139.850
886.298	18.994	1232.307	1138.525
887.312	18.911	1232.050	1137.594
888.327	18.930	1231.302	1136.898
889.341	19.090	1229.548	1136.202
890.356	18.867	1229.536	1134.576
891.371	18.853	1229.337	1134.163
892.385	18.764	1228.740	1132.883
893.400	18.866	1227.394	1132.187
894.414	18.829	1225.930	1130.453
895.429	18.836	1224.176	1128.747
896.444	18.831	1222.950	1127.447
897.458	18.901	1222.620	1127.472
898.473	18.779	1221.867	1125.837
899.487	18.872	1220.343	1124.913
900.502	18.785	1219.380	1123.315
901.517	18.925	1217.737	1122.590
902.531	18.943	1216.535	1121.466
903.546	19.025	1216.764	1122.079
904.560	18.987	1216.483	1121.437
905.575	18.922	1215.057	1119.563
906.589	18.942	1214.473	1119.022
907.604	18.979	1214.359	1119.024
