DTS Sentinel unit serial number:	SN409020Multiplexer serial number:	ORYXHardware model number:	OX4-SRSoftware version number:	ORYX F/W v3.00 Oryx Data Collector v3.7.2.0data status	okinstallation	HaddamTimeLapsedifferential loss correction	single-endedforward channel	channel 3reverse channel	N/Adate	2011/06/21time	18:36:17forward acquisition time	30.00reverse acquisition time	0.00gamma	498.7831k internal	0.1819k external	0.1819temperature offset calibration	1.0074default loss term (dB/km)	0.3790temperature slope calibration	1.3530multiplexer offset coefficient	1.0000multiplexer slope coefficient	1.0000fibre end	0.00T internal ref (°C)	36.00T ext. ref 1 (°C)	27.37T ext. ref 2 (°C)	0.25length (m)	temperature (°C)	Stokes	anti-Stokes-747.200	-154.475	0.406	0.034
-746.185	212.603	0.223	0.451
-745.171	-74.833	-0.250	-0.114
-744.156	598.645	-0.160	0.511
-743.142	1.837	0.135	-0.124
-742.127	-68.694	-0.234	0.115
-741.112	39.912	-0.501	-0.576
-740.098	-200.000	0.043	0.498
-739.083	58.437	-0.062	-0.078
-738.069	-46.715	0.123	-0.077
-737.054	112.879	0.185	-0.287
-736.039	41.208	-0.078	-0.090
-735.025	-81.646	-0.337	0.141
-734.010	-47.853	0.480	0.297
-732.996	171.453	-0.267	0.492
-731.981	109.195	-0.292	-0.447
-730.966	137.935	0.068	0.115
-729.952	-39.666	-0.169	0.113
-728.937	-170.325	-0.467	0.021
-727.923	-14.401	-0.171	-0.141
-726.908	3.638	0.122	-0.113
-725.894	800.000	0.047	-0.209
-724.879	-157.003	0.212	0.016
-723.864	-131.079	-0.284	0.048
-722.850	6.604	0.254	0.241
-721.835	-151.082	-0.526	-0.050
-720.821	-62.563	-0.321	0.170
-719.806	320.337	0.194	-0.474
-718.791	800.000	0.174	-0.729
-717.777	347.570	-0.070	-0.176
-716.762	139.726	0.121	-0.205
-715.748	347.411	-0.092	-0.234
-714.733	123.881	-0.107	0.172
-713.718	-84.305	-0.144	-0.058
-712.704	-35.139	0.111	-0.077
-711.689	-200.000	-0.056	-0.404
-710.675	-152.491	0.197	0.018
-709.660	586.800	-0.068	0.216
-708.645	87.432	0.092	-0.131
-707.631	800.000	0.173	-0.635
-706.616	-69.711	0.391	0.190
-705.602	-200.000	0.021	-0.148
-704.587	195.772	0.177	0.345
-703.572	483.934	-0.050	-0.146
-702.558	-136.593	0.409	0.060
-701.543	91.824	0.114	0.164
-700.529	313.036	-0.201	0.485
-699.514	177.190	0.272	0.508
-698.499	0.927	0.121	0.110
-697.485	-85.635	-0.318	-0.126
-696.470	30.131	-0.349	0.380
-695.456	61.706	0.226	0.288
-694.441	7.420	0.343	0.327
-693.426	-51.918	0.311	-0.184
-692.412	800.000	-0.085	-0.338
-691.397	-200.000	-0.027	-0.324
-690.383	371.055	-0.140	-0.364
-689.368	-31.465	-0.434	-0.311
-688.354	-8.749	-0.149	-0.127
-687.339	-148.279	0.435	-0.045
-686.324	-200.000	0.019	-0.111
-685.310	42.453	0.181	0.210
-684.295	-92.634	0.054	-0.019
-683.281	-120.113	-0.459	-0.099
-682.266	-25.155	-0.436	-0.329
-681.251	-200.000	0.028	-0.487
-680.237	-200.000	-0.001	0.255
-679.222	-48.329	-0.060	0.037
-678.208	-200.000	0.052	0.486
-677.193	-66.833	0.160	0.080
-676.178	-1.768	-0.331	0.297
-675.164	121.164	0.013	-0.021
-674.149	-200.000	-0.010	0.304
-673.135	543.447	-0.128	-0.392
-672.120	-200.000	-0.021	-0.157
-671.105	-59.087	-0.264	-0.145
-670.091	800.000	0.034	0.143
-669.076	0.479	-0.184	0.168
-668.062	-159.052	-0.253	0.018
-667.047	-200.000	-0.052	-0.383
-666.032	-200.000	-0.053	-0.325
-665.018	-54.082	-0.368	-0.213
-664.003	-111.065	0.281	0.073
-662.989	-46.373	0.263	-0.164
-661.974	142.111	0.309	-0.524
-660.959	70.344	0.084	-0.111
-659.945	33.119	-0.253	-0.280
-658.930	-200.000	-0.120	-0.889
-657.916	47.170	-0.463	0.550
-656.901	25.133	-0.530	0.560
-655.886	800.000	0.082	0.397
-654.872	-200.000	0.060	-0.451
-653.857	-132.544	0.588	0.095
-652.843	-200.000	-0.050	0.481
-651.828	-178.720	-0.312	0.009
-650.814	205.762	0.091	0.182
-649.799	-55.331	-0.252	0.144
-648.784	11.458	-0.187	0.183
-647.770	-144.712	0.608	-0.070
-646.755	-67.410	-0.298	0.149
-645.741	168.748	0.177	0.322
-644.726	-73.970	-0.166	0.077
-643.711	80.693	-0.303	-0.417
-642.697	-95.328	-0.654	-0.223
-641.682	-81.575	-0.500	0.208
-640.668	-67.343	0.146	0.073
-639.653	800.000	0.029	-0.121
-638.638	-182.663	0.159	0.004
-637.624	800.000	-0.144	-0.607
-636.609	-40.157	-0.172	0.114
-635.595	154.079	0.144	-0.252
-634.580	-5.769	-0.305	0.266
-633.565	-200.000	-0.027	-0.166
-632.551	800.000	-0.076	-0.286
-631.536	330.517	-0.185	-0.456
-630.522	800.000	0.079	-0.329
-629.507	14.136	0.160	-0.159
-628.492	-200.000	0.223	0.000
-627.478	46.542	-0.335	0.396
-626.463	298.657	0.078	-0.183
-625.449	165.287	0.063	-0.114
-624.434	-79.360	-0.167	-0.072
-623.419	171.901	0.243	-0.445
-622.405	-122.782	0.428	0.087
-621.390	-51.037	0.109	0.065
-620.376	67.887	0.163	-0.213
-619.361	-145.654	-0.394	0.044
-618.346	-200.000	-0.016	-0.349
-617.332	-24.639	-0.294	0.223
-616.317	256.399	0.061	0.133
-615.303	-200.000	-0.032	-0.204
-614.288	-171.731	-0.560	0.023
-613.273	59.477	0.344	-0.431
-612.259	-47.671	0.232	0.143
-611.244	800.000	-0.155	0.686
-610.230	18.036	0.271	0.275
-609.215	104.141	-0.097	-0.145
-608.201	-33.492	-0.070	-0.049
-607.186	-80.948	0.234	-0.098
-606.171	-18.308	0.451	0.358
-605.157	-36.699	0.186	0.127
-604.142	800.000	-0.038	-0.182
-603.128	-200.000	0.003	0.334
-602.113	1.620	0.265	-0.243
-601.098	76.701	-0.268	-0.362
-600.084	-200.000	0.063	0.451
-599.069	-92.445	-0.241	0.086
-598.055	219.098	0.197	0.402
-597.040	-186.182	0.678	-0.012
-596.025	-11.317	-0.393	-0.329
-595.011	800.000	0.068	-0.317
-593.996	16.451	0.085	0.085
-592.982	-200.000	0.005	-0.402
-591.967	3.055	-0.391	-0.361
-590.952	33.060	0.110	0.121
-589.938	163.739	0.168	0.302
-588.923	585.416	0.063	-0.198
-587.909	-125.674	0.362	0.069
-586.894	-108.793	0.116	-0.031
-585.879	-86.794	-0.148	0.057
-584.865	10.807	-0.415	-0.402
-583.850	-159.832	-0.235	-0.016
-582.836	171.096	0.202	-0.369
-581.821	15.801	-0.331	-0.331
-580.806	-79.989	-0.366	-0.156
-579.792	-26.881	-0.274	-0.203
-578.777	-75.861	0.360	0.161
-577.763	-200.000	0.002	0.276
-576.748	-140.750	-0.450	-0.058
-575.733	800.000	-0.048	0.234
-574.719	-200.000	0.037	-0.327
-573.704	800.000	0.069	-0.369
-572.690	-123.180	-0.303	0.061
-571.675	-82.261	-0.449	-0.185
-570.661	311.731	-0.115	-0.276
-569.646	-0.611	0.155	0.140
-568.631	95.573	0.039	-0.056
-567.617	-85.282	-0.452	0.178
-566.602	204.810	0.110	-0.218
-565.588	36.407	0.417	-0.467
-564.573	-32.959	-0.291	-0.205
-563.558	-200.000	0.002	0.383
-562.544	-86.483	0.539	-0.209
-561.529	-152.553	0.418	0.038
-560.515	215.336	-0.115	-0.232
-559.500	-24.459	-0.280	-0.211
-558.485	-104.768	0.318	0.092
-557.471	800.000	0.049	-0.237
-556.456	800.000	-0.010	-0.051
-555.442	98.399	0.154	-0.226
-554.427	-87.687	0.122	0.046
-553.412	800.000	0.089	-0.481
-552.398	800.000	0.058	-0.279
-551.383	33.460	0.286	-0.315
-550.369	-200.000	0.014	0.119
-549.354	-143.689	-0.152	-0.018
-548.339	-10.795	0.166	-0.139
-547.325	-82.025	0.581	0.240
-546.310	-150.972	-0.309	0.029
-545.296	-98.335	-0.289	0.094
-544.281	185.851	0.253	-0.480
-543.266	272.353	-0.040	0.091
-542.252	-46.579	-0.316	-0.196
-541.237	128.984	0.289	-0.469
-540.223	-8.825	-0.165	0.140
-539.208	43.744	-0.253	-0.294
-538.193	-3.119	-0.522	-0.461
-537.179	-81.854	-0.299	-0.124
-536.164	-140.193	-0.306	-0.040
-535.150	-112.277	0.366	0.092
-534.135	65.889	-0.240	0.309
-533.121	675.902	-0.044	0.147
-532.106	-108.781	0.491	0.132
-531.091	131.566	0.167	-0.273
-530.077	-200.000	0.013	-0.313
-529.062	-7.906	-0.291	0.249
-528.048	-134.285	-0.294	0.045
-527.033	-140.518	0.366	0.048
-526.018	-76.476	0.345	-0.153
-525.004	800.000	-0.063	-0.346
-523.989	-52.123	-0.067	-0.039
-522.975	77.843	-0.084	0.114
-521.960	-148.776	0.289	0.029
-520.945	334.779	-0.035	-0.087
-519.931	44.145	-0.222	-0.258
-518.916	-200.000	0.020	-0.234
-517.902	145.720	0.167	-0.285
-516.887	59.847	-0.137	-0.171
-515.872	182.411	-0.228	-0.428
-514.858	-153.538	-0.512	-0.044
-513.843	-200.000	-0.034	0.429
-512.829	68.855	-0.130	-0.169
-511.814	-27.158	0.216	0.159
-510.799	-200.000	-0.013	-0.371
-509.785	-49.186	-0.140	-0.084
-508.770	-45.564	-0.337	-0.211
-507.756	679.572	-0.092	0.305
-506.741	-173.411	-0.250	-0.009
-505.726	-35.756	0.233	0.159
-504.712	-103.608	0.296	0.087
-503.697	-200.000	0.366	0.001
-502.683	-35.872	0.554	0.379
-501.668	254.556	0.210	0.457
-500.653	-105.963	0.214	-0.061
-499.639	475.119	0.103	-0.296
-498.624	77.551	0.156	-0.211
-497.610	800.000	0.084	0.397
-496.595	713.165	-0.122	0.412
-495.581	22.364	-0.072	0.075
-494.566	32.516	0.298	-0.326
-493.551	-110.151	0.112	-0.029
-492.537	-131.671	0.684	0.113
-491.522	-2.041	0.245	-0.218
-490.508	-5.539	0.298	0.259
-489.493	-68.578	0.186	-0.091
-488.478	33.448	-0.292	-0.321
-487.464	-200.000	-0.051	0.365
-486.449	-15.350	-0.131	-0.106
-485.435	800.000	-0.028	-0.109
-484.420	-43.460	-0.097	-0.062
-483.405	-119.758	-0.328	-0.071
-482.391	-10.553	-0.169	-0.142
-481.376	-56.430	0.212	0.119
-480.362	130.150	0.158	-0.256
-479.347	-200.000	0.109	-0.771
-478.332	-200.000	-0.082	-0.459
-477.318	285.974	0.222	0.508
-476.303	-200.000	-0.044	0.470
-475.289	-4.557	0.210	0.184
-474.274	94.970	-0.046	-0.067
-473.259	-85.437	0.400	-0.157
-472.245	-200.000	0.004	-0.166
-471.230	-85.453	-0.242	0.095
-470.216	430.523	-0.089	0.246
-469.201	49.875	0.058	-0.070
-468.186	-200.000	-0.013	-0.145
-467.172	-76.714	0.081	-0.036
-466.157	-90.029	-0.228	-0.084
-465.143	86.871	-0.367	0.513
-464.128	126.670	0.134	0.215
-463.113	172.898	-0.291	0.532
-462.099	21.083	-0.093	0.096
-461.084	-25.300	-0.111	0.083
-460.070	798.738	0.070	0.247
-459.055	-116.568	0.254	-0.059
-458.040	-83.449	0.321	0.129
-457.026	800.000	0.043	0.203
-456.011	-87.648	0.288	0.109
-454.997	800.000	0.073	-0.283
-453.982	-200.000	0.080	-0.518
-452.968	145.218	-0.088	0.149
-451.953	4.905	0.322	0.299
-450.938	514.285	0.116	0.343
-449.924	-200.000	-0.013	-0.153
-448.909	-50.719	0.348	0.206
-447.895	-65.571	0.082	-0.041
-446.880	-200.000	-0.013	-0.165
-445.865	-32.159	0.102	-0.072
-444.851	14.733	0.127	-0.125
-443.836	365.211	-0.239	0.611
-442.822	170.158	-0.152	0.276
-441.807	6.536	-0.052	0.049
-440.792	539.726	0.120	-0.363
-439.778	800.000	-0.039	0.164
-438.763	-64.435	-0.511	0.261
-437.749	420.616	0.078	0.212
-436.734	750.135	-0.095	0.326
-435.719	-50.099	-0.551	0.329
-434.705	-151.799	-0.324	0.030
-433.690	6.397	0.225	0.211
-432.676	-200.000	0.053	-0.648
-431.661	-200.000	0.013	0.075
-430.646	-32.248	-0.335	0.236
-429.632	-83.174	0.364	-0.147
-428.617	-40.554	0.147	-0.096
-427.603	71.681	-0.154	0.202
-426.588	50.554	-0.148	0.176
-425.573	37.179	0.144	0.161
-424.559	674.518	0.066	0.219
-423.544	207.229	-0.266	0.525
-422.530	41.705	0.048	0.055
-421.515	-143.091	0.300	0.036
-420.500	800.000	0.055	0.219
-419.486	-14.808	-0.220	-0.178
-418.471	-110.020	0.267	-0.070
-417.457	288.416	-0.064	0.148
-416.442	-120.790	0.232	-0.049
-415.428	-125.628	0.452	-0.086
-414.413	800.000	-0.076	0.285
-413.398	136.325	-0.065	-0.107
-412.384	-200.000	0.042	-0.509
-411.369	800.000	-0.020	-0.092
-410.355	720.006	-0.106	-0.359
-409.340	800.000	0.032	-0.168
-408.325	-164.773	0.403	-0.023
-407.311	109.125	-0.158	-0.239
-406.296	-119.676	-0.849	-0.184
-405.282	142.756	-0.242	0.407
-404.267	81.985	-0.036	-0.049
-403.252	275.287	0.104	-0.233
-402.238	-200.000	-0.040	-0.252
-401.223	0.185	0.273	0.246
-400.209	-50.228	0.093	-0.055
-399.194	299.355	0.112	-0.261
-398.179	-90.088	-0.419	-0.153
-397.165	-200.000	0.007	-0.100
-396.150	96.030	0.235	-0.339
-395.136	160.942	-0.115	0.203
-394.121	-88.732	-0.160	-0.060
-393.106	119.559	0.320	0.500
-392.092	112.900	-0.185	-0.283
-391.077	435.215	-0.140	-0.385
-390.063	-200.000	0.013	0.306
-389.048	-200.000	0.065	0.385
-388.033	-92.334	-0.132	0.046
-387.019	14.602	0.138	-0.136
-386.004	-78.352	-0.130	-0.056
-384.990	-200.000	-0.020	0.160
-383.975	242.719	-0.202	0.429
-382.960	-121.998	-0.293	-0.060
-381.946	658.252	0.061	-0.198
-380.931	-83.146	0.135	-0.054
-379.917	51.354	-0.071	0.085
-378.902	-79.176	0.155	-0.066
-377.888	13.939	-0.149	0.146
-376.873	313.197	-0.099	0.236
-375.858	19.314	-0.314	0.318
-374.844	-72.913	-0.330	0.152
-373.829	340.695	0.105	0.261
-372.815	800.000	-0.035	-0.183
-371.800	-106.905	-0.163	-0.045
-370.785	-126.996	-0.668	-0.123
-369.771	-81.354	-0.161	-0.067
-368.756	122.389	0.169	0.267
-367.742	40.061	0.283	0.320
-366.727	258.317	-0.059	0.128
-365.712	36.273	-0.393	-0.437
-364.698	40.512	-0.050	0.056
-363.683	800.000	0.144	0.754
-362.669	800.000	-0.049	0.216
-361.654	800.000	-0.056	0.302
-360.639	-75.854	0.170	-0.075
-359.625	-12.263	0.209	-0.172
-358.610	-200.000	-0.014	0.086
-357.596	185.376	0.096	-0.180
-356.581	38.166	-0.244	-0.274
-355.566	33.043	0.225	0.245
-354.552	-200.000	0.034	0.268
-353.537	292.315	0.079	0.181
-352.523	-200.000	0.077	0.503
-351.508	-79.834	-0.438	0.185
-350.493	-200.000	0.025	-0.339
-349.479	-96.796	-0.318	0.105
-348.464	253.152	-0.135	0.291
-347.450	197.153	-0.106	-0.205
-346.435	259.526	-0.172	-0.376
-345.420	-15.604	-0.505	0.405
-344.406	800.000	0.113	-0.497
-343.391	-19.201	-0.173	-0.135
-342.377	-200.000	0.020	-0.359
-341.362	33.143	0.150	-0.164
-340.348	-30.989	-0.328	0.232
-339.333	-61.875	-0.532	-0.279
-338.318	-172.073	0.551	0.022
-337.304	-26.247	0.181	-0.133
-336.289	102.444	-0.155	0.228
-335.275	-200.000	-0.057	0.391
-334.260	-30.224	-0.292	-0.208
-333.245	-194.381	0.487	0.005
-332.231	145.306	-0.239	-0.403
-331.216	27.981	0.340	-0.361
-330.202	-200.000	-0.064	0.617
-329.187	-67.788	0.248	-0.122
-328.172	-40.499	-0.312	-0.203
-327.158	-115.739	-0.549	-0.128
-326.143	211.631	-0.157	-0.313
-325.129	30.821	0.529	0.570
-324.114	458.082	0.103	-0.290
-323.099	-43.965	0.325	0.205
-322.085	-79.986	-0.301	0.127
-321.070	-167.408	-0.463	-0.023
-320.056	212.765	0.092	-0.184
-319.041	100.576	-0.169	-0.248
-318.026	-173.305	-0.363	0.014
-317.012	-91.820	0.242	-0.086
-315.997	-200.000	-0.088	0.593
-314.983	117.017	0.066	-0.102
-313.968	-73.864	-0.151	-0.069
-312.953	-86.969	-0.289	-0.110
-311.939	-200.000	-0.016	0.299
-310.924	-104.158	-0.252	-0.073
-309.910	657.336	-0.078	0.253
-308.895	-151.117	0.799	0.074
-307.880	268.945	-0.055	-0.121
-306.866	-102.062	0.032	-0.010
-305.851	346.112	0.093	-0.231
-304.837	-6.534	-0.464	-0.397
-303.822	-45.753	-0.270	0.167
-302.807	185.486	0.355	0.665
-301.793	-158.228	-0.271	-0.020
-300.778	-200.000	0.038	-0.276
-299.764	403.438	-0.081	0.214
-298.749	19.225	0.155	0.156
-297.735	-5.500	0.310	-0.267
-296.720	575.764	-0.107	-0.330
-295.705	476.102	-0.143	0.408
-294.691	-94.171	-0.101	-0.035
-293.676	-200.000	-0.044	0.378
-292.662	-82.505	0.279	0.113
-291.647	41.109	-0.220	0.249
-290.632	33.888	0.456	0.499
-289.618	-200.000	0.110	0.642
-288.603	-200.000	-0.012	0.169
-287.589	800.000	-0.054	-0.257
-286.574	-200.000	0.008	-0.483
-285.559	12.936	0.319	0.309
-284.545	-164.206	0.116	0.007
-283.530	305.436	-0.106	0.248
-282.516	800.000	-0.076	-0.372
-281.501	-172.555	-0.393	-0.015
-280.486	-200.000	0.062	0.468
-279.472	-135.686	-0.332	0.049
-278.457	-200.000	0.022	-0.493
-277.443	25.858	0.201	0.210
-276.428	323.863	-0.183	0.440
-275.413	-91.862	0.500	0.177
-274.399	88.835	-0.185	-0.259
-273.384	28.972	0.388	-0.413
-272.370	347.700	0.222	0.551
-271.355	-33.059	0.161	0.112
-270.340	-117.488	-0.276	-0.062
-269.326	800.000	0.108	-0.473
-268.311	28.596	0.092	-0.097
-267.297	-91.129	-0.204	-0.073
-266.282	-171.702	0.058	0.002
-265.267	-150.296	0.065	0.006
-264.253	-57.727	0.098	0.053
-263.238	-163.973	-0.226	-0.013
-262.224	800.000	-0.068	0.291
-261.209	105.516	-0.053	-0.078
-260.195	-53.500	0.290	0.166
-259.180	-106.949	0.189	0.052
-258.165	6.833	0.403	0.376
-257.151	-200.000	0.698	-0.003
-256.136	-149.152	0.082	0.008
-255.122	373.402	0.095	-0.244
-254.107	-25.334	-0.162	0.120
-253.092	725.087	0.038	-0.128
-252.078	192.553	-0.137	0.261
-251.063	-200.000	0.002	0.216
-250.049	-61.362	-0.546	0.287
-249.034	-200.000	-0.003	0.276
-248.019	-176.453	-0.531	-0.017
-247.005	-152.335	0.199	-0.018
-245.990	-200.000	0.036	-0.447
-244.976	-44.015	0.141	0.089
-243.961	-159.046	0.326	-0.023
-242.946	18.254	0.423	0.423
-241.932	-64.891	0.146	-0.074
-240.917	800.000	-0.071	-0.328
-239.903	6.882	-0.524	0.489
-238.888	-33.146	0.314	0.218
-237.873	33.593	-0.065	0.071
-236.859	-88.273	-0.172	0.064
-235.844	-200.000	0.028	0.262
-234.830	-200.000	-0.005	-0.287
-233.815	-109.286	-0.447	0.118
-232.800	61.197	-0.226	0.281
-231.786	627.671	0.026	0.082
-230.771	10.907	0.276	0.264
-229.757	-30.144	0.345	0.245
-228.742	-66.285	-0.050	-0.025
-227.727	60.252	0.114	0.142
-226.713	-64.458	0.163	0.083
-225.698	206.157	-0.144	-0.282
-224.684	231.520	-0.145	-0.298
-223.669	-47.085	-0.225	0.137
-222.655	-180.147	-0.031	0.001
-221.640	-65.318	0.357	0.179
-220.625	-168.228	0.193	0.009
-219.611	-127.519	-0.464	0.084
-218.596	-200.000	0.078	-0.450
-217.582	-0.016	0.327	-0.292
-216.567	-75.341	0.544	-0.242
-215.552	747.619	0.128	-0.435
-214.538	800.000	-0.018	0.079
-213.523	-70.659	0.235	-0.111
-212.509	586.636	0.054	0.166
-211.494	-200.000	-0.037	0.233
-210.479	386.125	-0.039	-0.100
-209.465	-76.612	-0.302	-0.132
-208.450	36.062	-0.294	-0.325
-207.436	-200.000	-0.026	-0.302
-206.421	-166.618	0.189	0.010
-205.406	799.696	-0.133	0.462
-204.392	47.187	-0.285	0.332
-203.377	245.665	-0.164	0.347
-202.363	-33.692	0.169	-0.116
-201.348	-67.671	0.295	0.144
-200.333	-110.765	-0.182	0.047
-199.319	18.366	0.216	-0.216
-198.304	-200.000	-0.010	-0.298
-197.290	164.696	-0.129	-0.229
-196.275	-12.974	-0.108	0.088
-195.260	-45.598	0.123	0.076
-194.246	314.145	0.037	-0.088
-193.231	-3.241	0.290	0.252
-192.217	-7.391	0.082	-0.070
-191.202	-6.050	-0.112	0.096
-190.187	800.000	-0.096	0.465
-189.173	292.549	-0.046	-0.105
-188.158	800.000	-0.014	0.079
-187.144	-64.246	0.522	0.265
-186.129	800.000	0.126	0.606
-185.114	286.270	0.153	-0.347
-184.100	0.729	-0.364	-0.325
-183.085	-24.569	0.184	0.137
-182.071	-24.247	0.072	0.054
-181.056	-96.435	0.457	0.150
-180.042	31.369	-0.136	0.146
-179.027	-26.193	0.119	0.087
-178.012	19.854	-0.368	-0.371
-176.998	128.967	-0.185	0.296
-175.983	-61.592	0.151	-0.079
-174.969	-105.397	-0.207	0.059
-173.954	60.847	0.180	-0.224
-172.939	-200.000	0.008	-0.085
-171.925	-96.209	-0.322	-0.106
-170.910	521.312	-0.028	0.082
-169.896	27.971	-0.379	0.400
-168.881	-117.364	-0.575	0.129
-167.866	-62.617	-0.027	0.014
-166.852	24.650	0.216	0.224
-165.837	-99.900	0.311	0.096
-164.823	-200.000	0.069	-0.426
-163.808	-12.109	0.289	-0.236
-162.793	402.089	0.132	0.347
-161.779	432.639	-0.069	0.189
-160.764	-84.279	0.329	0.130
-159.750	-11.593	0.212	-0.174
-158.735	-95.345	0.400	-0.134
-157.720	-115.492	-0.271	0.063
-156.706	281.670	0.121	0.272
-155.691	-200.000	-0.027	-0.537
-154.677	-102.875	0.247	-0.073
-153.662	-150.556	0.673	-0.064
-152.647	-24.462	-0.393	-0.292
-151.633	-200.000	-0.093	-0.657
-150.618	-200.000	-0.038	-0.488
-149.604	-106.661	-0.520	-0.144
-148.589	93.956	-0.147	-0.208
-147.574	73.138	-0.266	0.348
-146.560	205.576	-0.150	0.293
-145.545	521.491	-0.044	-0.131
-144.531	-113.532	0.262	0.064
-143.516	800.000	0.088	0.484
-142.502	-119.988	-0.364	-0.077
-141.487	175.059	0.304	-0.551
-140.472	4.070	0.147	-0.134
-139.458	-114.359	0.422	0.101
-138.443	-56.841	0.390	-0.214
-137.429	24.873	-0.176	0.183
-136.414	10.475	0.087	0.082
-135.399	-14.902	0.157	0.126
-134.385	129.568	-0.336	0.538
-133.370	-94.997	-0.411	0.138
-132.356	-170.476	0.209	0.009
-131.341	-102.627	0.267	0.079
-130.326	-123.680	0.165	-0.032
-129.312	782.684	-0.073	0.252
-128.297	-146.926	-0.226	-0.024
-127.283	239.595	0.091	-0.190
-126.268	-135.698	0.235	-0.034
-125.253	523.628	-0.064	0.189
-124.239	573.556	-0.111	-0.340
-123.224	53.218	-0.233	0.278
-122.210	151.873	0.203	0.346
-121.195	463.601	0.102	-0.287
-120.180	227.344	0.107	-0.219
-119.166	32.909	0.360	0.389
-118.151	-200.000	0.038	-0.277
-117.137	132.169	-0.097	0.156
-116.122	20.214	-0.268	-0.270
-115.107	74.884	-0.186	-0.244
-114.093	48.341	0.103	-0.121
-113.078	-88.675	-0.440	0.163
-112.064	800.000	0.071	-0.354
-111.049	104.637	0.459	0.675
-110.034	101.498	-0.055	0.080
-109.020	511.711	0.152	-0.444
-108.005	6.841	-0.479	-0.445
-106.991	-35.472	0.104	0.070
-105.976	-121.918	-0.270	0.055
-104.962	800.000	-0.048	-0.232
-103.947	747.395	0.021	-0.071
-102.932	-105.789	0.326	0.091
-101.918	9.456	-0.174	0.164
-100.903	79.901	-0.085	0.114
-99.889	800.000	0.127	0.566
-98.874	-40.606	-0.232	0.150
-97.859	172.503	-0.060	0.109
-96.845	21.776	0.171	-0.174
-95.830	64.805	0.178	-0.224
-94.816	-52.635	0.081	0.047
-93.801	800.000	0.052	-0.193
-92.786	-41.850	-0.412	0.263
-91.772	-84.087	-0.508	-0.200
-90.757	80.725	0.074	-0.100
-89.743	24.530	-0.354	0.365
-88.728	-200.000	0.016	0.162
-87.713	320.907	0.155	-0.370
-86.699	-130.925	0.542	-0.089
-85.684	-118.379	-0.424	-0.093
-84.670	118.399	-0.054	-0.084
-83.655	-72.580	-0.262	-0.120
-82.640	-200.000	0.021	0.155
-81.626	-200.000	0.009	-0.383
-80.611	210.500	-0.273	0.536
-79.597	-89.202	0.449	0.164
-78.582	5.854	0.214	0.197
-77.567	88.585	0.092	0.127
-76.553	-168.076	0.172	0.008
-75.538	25.438	-0.367	0.381
-74.524	-72.130	0.244	0.112
-73.509	157.782	-0.032	0.056
-72.494	-49.619	0.135	-0.080
-71.480	800.000	0.058	-0.253
-70.465	68.220	0.312	0.399
-69.451	-82.467	0.109	0.044
-68.436	-200.000	0.034	-0.204
-67.422	103.364	0.356	0.521
-66.407	528.628	-0.055	-0.164
-65.392	-27.196	0.378	-0.274
-64.378	-133.019	0.470	-0.074
-63.363	-200.000	0.038	0.348
-62.349	-32.745	0.181	0.125
-61.334	-55.411	-1.114	-0.621
-60.319	-6.623	0.694	0.588
-59.305	293.505	-2.657	-6.063
-58.290	-9.809	3.329	2.756
-57.276	388.897	4.092	10.599
-56.261	-200.000	13.851	219.292
-55.246	478.437	1157.122	3278.478
-54.232	64.531	2809.661	3529.033
-53.217	73.085	2708.573	3528.368
-52.203	75.920	2437.650	3212.690
-51.188	38.456	2090.098	2319.732
-50.173	39.563	1959.505	2187.059
-49.159	37.063	1948.932	2147.387
-48.144	36.506	1945.394	2137.216
-47.130	36.421	1942.861	2133.401
-46.115	36.272	1941.300	2129.958
-45.100	36.318	1938.993	2127.848
-44.086	36.402	1938.030	2127.640
-43.071	36.308	1936.662	2125.014
-42.057	36.304	1935.285	2123.367
-41.042	36.309	1933.465	2121.346
-40.027	36.195	1932.479	2118.916
-39.013	36.258	1930.848	2117.745
-37.998	36.292	1929.209	2116.232
-36.984	36.234	1928.538	2114.776
-35.969	36.282	1927.341	2113.908
-34.954	36.169	1925.864	2110.955
-33.940	36.121	1925.534	2109.990
-32.925	36.144	1923.828	2108.292
-31.911	36.226	1921.269	2106.298
-30.896	36.042	1920.911	2103.801
-29.881	36.194	1918.928	2103.212
-28.867	36.099	1917.515	2100.538
-27.852	36.043	1916.724	2098.980
-26.838	36.107	1915.158	2097.880
-25.823	36.030	1913.666	2095.323
-24.809	36.151	1911.469	2094.153
-23.794	36.058	1910.917	2092.447
-22.779	35.989	1909.879	2090.477
-21.765	36.059	1908.023	2089.124
-20.750	35.842	1907.701	2086.325
-19.736	35.805	1906.787	2084.844
-18.721	35.974	1905.515	2085.207
-17.706	35.888	1903.471	2081.949
-16.692	35.998	1901.952	2081.401
-15.677	35.915	1901.223	2079.623
-14.663	35.815	1900.705	2077.887
-13.648	35.854	1899.534	2076.952
-12.633	35.989	1897.456	2076.057
-11.619	35.771	1896.553	2072.619
-10.604	35.754	1895.068	2070.732
-9.590	35.797	1893.760	2069.687
-8.575	35.807	1892.665	2068.521
-7.560	35.883	1891.168	2067.621
-6.546	35.738	1890.817	2065.586
-5.531	35.908	1888.683	2065.010
-4.517	35.922	1887.162	2063.414
-3.502	35.789	1887.090	2061.827
-2.487	35.872	1885.919	2061.359
-1.473	36.035	1882.587	2059.377
-0.458	35.858	1863.154	2036.160
0.556	31.483	1992.700	2115.391
1.571	29.658	2208.494	2321.180
2.586	31.342	2256.123	2392.650
3.600	31.276	2258.151	2393.663
4.615	31.448	2258.333	2395.786
5.629	31.438	2254.755	2391.572
6.644	31.442	2254.121	2390.663
7.659	31.615	2252.735	2391.125
8.673	31.825	2251.045	2391.751
9.688	31.021	2255.081	2385.413
10.702	27.277	2322.866	2407.118
11.717	23.530	2383.981	2418.905
12.731	12.221	2354.608	2234.845
13.746	1.975	2327.332	2069.504
14.761	0.379	2323.183	2043.827
15.775	0.232	2320.387	2039.131
16.790	0.064	2318.549	2034.977
17.804	0.092	2317.251	2033.973
18.819	0.115	2316.279	2033.199
19.834	0.152	2314.148	2031.587
20.848	0.008	2313.538	2028.845
21.863	0.069	2312.015	2028.098
22.877	0.024	2309.960	2025.451
23.892	0.085	2307.097	2023.517
24.907	-0.014	2305.866	2020.861
25.921	0.094	2303.382	2019.901
26.936	0.067	2301.249	2017.419
27.950	0.060	2298.577	2014.741
28.965	0.010	2297.228	2012.641
29.980	0.039	2295.556	2011.334
30.994	0.185	2293.915	2011.607
32.009	6.246	2314.226	2111.117
33.023	20.288	2356.174	2340.797
34.038	26.752	2369.939	2442.037
35.053	27.608	2367.029	2450.320
36.067	27.365	2363.923	2443.527
37.082	27.078	2362.045	2437.424
38.096	27.300	2360.163	2438.189
39.111	27.542	2359.402	2440.367
40.126	27.443	2356.531	2435.771
41.140	27.648	2355.382	2437.049
42.155	27.470	2353.299	2432.212
43.169	27.334	2350.586	2427.299
44.184	27.407	2348.124	2425.441
45.199	27.344	2346.495	2422.622
46.213	27.123	2344.980	2417.815
47.228	27.073	2343.037	2414.847
48.242	27.332	2342.155	2417.112
49.257	27.842	2340.744	2422.168
50.271	27.913	2339.806	2421.859
51.286	27.976	2337.617	2420.141
52.301	27.517	2334.423	2410.438
53.315	27.426	2333.957	2408.455
54.330	27.751	2332.641	2411.130
55.344	27.869	2330.108	2409.784
56.359	27.948	2327.641	2407.994
57.374	27.854	2325.323	2404.066
58.388	27.791	2322.525	2400.053
59.403	27.652	2317.944	2393.201
60.417	27.532	2316.033	2389.356
61.432	27.833	2315.358	2392.336
62.447	27.786	2312.098	2388.069
63.461	27.756	2309.904	2385.122
64.476	27.689	2308.540	2382.552
65.490	27.888	2308.139	2384.463
66.505	27.675	2305.559	2378.724
67.520	27.270	2304.191	2371.712
68.534	27.471	2302.428	2372.245
69.549	27.412	2298.184	2366.826
70.563	27.299	2295.960	2362.766
71.578	27.368	2294.354	2361.732
72.593	27.793	2293.706	2366.320
73.607	27.743	2291.840	2363.469
74.622	27.525	2290.264	2358.725
75.636	27.593	2286.471	2355.421
76.651	27.393	2285.495	2351.537
77.666	27.620	2284.225	2352.894
78.680	27.522	2280.826	2347.837
79.695	27.192	2277.597	2339.958
80.709	26.556	2274.083	2327.861
81.724	26.173	2272.122	2320.628
82.739	26.779	2270.906	2326.926
83.753	27.564	2272.007	2337.905
84.768	27.640	2269.529	2336.052
85.782	27.537	2268.596	2333.480
86.797	27.548	2266.344	2331.027
87.812	27.413	2263.125	2325.706
88.826	27.452	2261.962	2324.731
89.841	27.677	2260.616	2325.963
90.855	27.902	2257.698	2325.555
91.870	27.418	2255.280	2316.602
92.884	27.328	2253.476	2313.317
93.899	27.275	2252.600	2311.461
94.914	27.118	2251.132	2307.681
95.928	26.822	2250.814	2303.290
96.943	27.005	2249.607	2304.126
97.957	27.385	2247.959	2306.994
98.972	27.641	2245.590	2307.550
99.987	27.379	2241.790	2300.034
101.001	27.266	2239.542	2296.029
102.016	27.317	2237.685	2294.490
103.030	27.278	2234.758	2290.719
104.045	27.229	2232.462	2287.470
105.060	27.451	2231.032	2288.542
106.074	27.570	2230.161	2288.881
107.089	27.336	2226.808	2282.213
108.103	26.967	2225.632	2276.089
109.118	27.294	2225.134	2279.425
110.133	27.335	2224.165	2278.665
111.147	27.463	2221.194	2276.958
112.162	27.475	2220.315	2275.939
113.176	27.621	2218.214	2275.351
114.191	27.434	2214.350	2268.764
115.206	27.298	2213.763	2266.196
116.220	27.488	2213.034	2267.550
117.235	27.505	2210.299	2264.694
118.249	27.540	2208.332	2262.841
119.264	27.534	2207.524	2261.665
120.279	27.462	2204.986	2257.900
121.293	27.426	2203.308	2255.466
122.308	27.399	2202.198	2253.719
123.322	27.185	2199.859	2248.395
124.337	26.497	2197.711	2237.383
125.352	26.641	2198.132	2239.339
126.366	27.458	2198.326	2249.415
127.381	27.847	2195.757	2251.333
128.395	27.984	2193.081	2250.018
129.410	27.696	2190.532	2243.574
130.424	27.513	2189.015	2239.494
131.439	27.808	2187.978	2241.806
132.454	27.538	2186.336	2236.526
133.468	27.795	2184.591	2237.634
134.483	27.735	2181.785	2233.763
135.497	27.613	2180.604	2230.781
136.512	27.973	2177.975	2232.252
137.527	27.922	2177.120	2230.483
138.541	27.757	2175.790	2226.820
139.556	27.810	2175.343	2226.751
140.570	27.862	2172.630	2224.349
141.585	27.491	2169.279	2216.113
142.600	27.379	2168.914	2214.103
143.614	27.261	2167.826	2211.290
144.629	27.347	2165.620	2209.820
145.643	27.161	2163.142	2204.764
146.658	27.091	2161.712	2202.191
147.673	26.801	2158.688	2195.310
148.687	26.683	2157.627	2192.539
149.702	27.057	2155.582	2194.739
150.716	27.210	2155.497	2196.247
151.731	27.663	2156.015	2202.008
152.746	27.896	2155.525	2204.074
153.760	27.379	2153.584	2195.559
154.775	26.943	2151.764	2188.160
155.789	26.868	2149.927	2185.114
156.804	27.174	2146.153	2184.726
157.819	27.069	2142.986	2179.970
158.833	27.102	2140.872	2177.951
159.848	27.301	2139.815	2179.020
160.862	27.380	2137.677	2177.530
161.877	27.555	2137.617	2179.308
162.892	27.676	2137.500	2180.381
163.906	27.961	2136.109	2182.120
164.921	27.887	2134.091	2178.916
165.935	27.759	2131.115	2174.085
166.950	27.439	2128.555	2167.377
167.964	27.395	2126.799	2164.814
168.979	27.254	2125.595	2161.638
169.994	27.265	2123.635	2159.519
171.008	27.159	2121.649	2155.982
172.023	27.064	2120.502	2153.425
173.037	27.380	2120.104	2156.525
174.052	27.603	2117.809	2156.584
175.067	27.376	2116.168	2151.962
176.081	27.229	2114.507	2148.261
177.096	27.583	2114.102	2151.802
178.110	27.579	2112.038	2149.388
179.125	27.482	2111.153	2147.079
180.140	27.571	2109.192	2145.885
181.154	27.712	2109.829	2147.948
182.169	27.942	2108.961	2149.524
183.183	27.858	2107.436	2146.721
184.198	27.654	2104.296	2140.863
185.213	27.550	2103.320	2138.382
186.227	27.750	2102.529	2139.682
187.242	27.700	2099.643	2135.895
188.256	27.475	2097.789	2131.112
189.271	27.817	2096.189	2133.253
190.286	27.594	2094.698	2128.863
191.300	27.213	2091.354	2120.736
192.315	27.234	2090.489	2119.857
193.329	27.561	2089.228	2122.152
194.344	27.877	2088.132	2124.485
195.359	27.787	2087.115	2122.142
196.373	27.885	2084.768	2120.639
197.388	27.705	2082.046	2115.517
198.402	27.482	2080.721	2111.326
199.417	27.577	2078.985	2110.414
200.432	27.726	2076.552	2109.428
201.446	27.560	2074.942	2105.609
202.461	27.387	2072.905	2101.285
203.475	27.300	2070.686	2097.768
204.490	27.322	2069.109	2096.184
205.504	27.326	2067.830	2094.682
206.519	27.157	2065.551	2090.162
207.534	27.532	2063.864	2092.543
208.548	27.680	2063.795	2093.930
209.563	27.245	2061.660	2086.500
210.577	27.470	2060.226	2087.381
211.592	27.770	2060.368	2090.732
212.607	27.441	2059.545	2085.866
213.621	26.745	2056.995	2075.020
214.636	26.755	2055.553	2073.435
215.650	27.526	2055.635	2082.128
216.665	27.973	2053.617	2084.964
217.680	27.889	2050.994	2081.093
218.694	27.867	2049.257	2078.825
219.709	27.386	2046.717	2070.506
220.723	27.299	2045.181	2067.706
221.738	27.735	2046.106	2073.376
222.753	27.983	2044.155	2073.982
223.767	27.879	2041.177	2069.531
224.782	27.588	2039.336	2064.103
225.796	27.540	2038.766	2062.729
226.811	27.768	2036.979	2063.271
227.826	27.624	2035.741	2060.127
228.840	27.420	2033.656	2055.458
229.855	27.465	2032.322	2054.378
230.869	27.400	2030.787	2051.844
231.884	27.443	2029.876	2051.158
232.899	27.774	2028.254	2053.025
233.913	27.754	2027.902	2052.198
234.928	27.857	2025.853	2051.036
235.942	27.668	2023.411	2046.188
236.957	27.215	2022.394	2039.810
237.972	27.612	2020.428	2042.047
238.986	27.548	2019.741	2040.388
240.001	27.296	2016.979	2034.530
241.015	27.142	2015.879	2031.437
242.030	27.703	2016.733	2038.360
243.045	27.675	2014.697	2035.747
244.059	27.923	2013.499	2037.068
245.074	28.191	2012.503	2038.828
246.088	27.841	2008.641	2030.756
247.103	27.905	2007.282	2029.854
248.117	28.286	2006.816	2033.388
249.132	28.096	2004.461	2028.638
250.147	27.671	2001.358	2020.526
251.161	27.199	1999.969	2013.635
252.176	27.545	1998.103	2015.363
253.190	27.350	1996.623	2011.458
254.205	27.315	1994.106	2008.297
255.220	27.346	1992.267	2006.550
256.234	27.003	1991.141	2001.366
257.249	26.968	1990.076	1999.677
258.263	27.212	1989.806	2001.863
259.278	27.324	1988.976	2002.026
260.293	27.255	1988.317	2000.363
261.307	27.275	1986.582	1998.593
262.322	27.365	1984.557	1997.312
263.336	27.058	1981.401	1990.518
264.351	27.135	1979.161	1988.872
265.366	27.402	1979.137	1991.546
266.380	27.626	1979.398	1994.033
267.395	27.421	1977.037	1989.167
268.409	27.348	1974.895	1985.974
269.424	27.500	1973.562	1986.065
270.439	27.554	1972.471	1985.314
271.453	27.888	1971.660	1987.918
272.468	27.451	1970.315	1981.544
273.482	27.077	1967.604	1974.492
274.497	27.209	1965.475	1973.561
275.512	27.432	1964.252	1974.538
276.526	27.644	1961.631	1973.975
277.541	27.326	1958.958	1967.590
278.555	27.117	1956.662	1962.780
279.570	27.096	1956.007	1961.661
280.585	27.002	1953.980	1958.365
281.599	27.162	1953.799	1959.688
282.614	27.524	1952.438	1962.005
283.628	27.147	1950.831	1956.083
284.643	26.830	1947.545	1949.129
285.657	26.392	1945.792	1942.411
286.672	26.377	1943.694	1939.924
287.687	26.016	1941.096	1933.213
288.701	25.893	1940.668	1931.230
289.716	25.546	1937.807	1924.419
290.730	24.666	1934.173	1911.120
291.745	25.609	1935.297	1922.144
292.760	26.184	1935.682	1928.469
293.774	26.518	1937.251	1933.386
294.789	27.421	1937.970	1943.563
295.803	27.660	1936.570	1944.497
296.818	27.560	1934.512	1941.123
297.833	27.903	1933.588	1943.627
298.847	27.800	1931.386	1940.089
299.862	27.410	1929.739	1934.034
300.876	27.465	1928.507	1933.158
301.891	27.630	1928.543	1934.718
302.906	27.665	1927.336	1933.647
303.920	27.766	1925.300	1932.455
304.935	28.102	1923.277	1933.765
305.949	28.019	1921.240	1930.605
306.964	28.095	1919.011	1928.936
307.979	27.489	1915.519	1918.777
308.993	25.760	1908.892	1893.656
310.008	24.116	1904.741	1871.954
311.022	23.873	1902.081	1866.552
312.037	24.046	1902.047	1868.115
313.052	23.928	1899.939	1864.585
314.066	23.675	1897.083	1858.891
315.081	23.736	1896.909	1859.139
316.095	23.731	1895.649	1857.635
317.110	23.589	1893.527	1853.845
318.125	23.403	1892.538	1850.698
319.139	23.522	1891.174	1850.396
320.154	23.731	1890.069	1851.282
321.168	23.750	1888.500	1849.722
322.183	25.039	1891.546	1865.982
323.197	27.001	1894.848	1889.563
324.212	27.718	1893.781	1895.769
325.227	27.446	1892.504	1891.420
326.241	27.455	1891.337	1890.119
327.256	27.662	1889.860	1890.578
328.270	27.352	1888.535	1885.798
329.285	27.383	1887.851	1885.208
330.300	27.391	1887.439	1884.662
331.314	27.065	1885.878	1879.482
332.329	27.146	1883.144	1877.376
333.343	27.388	1881.232	1877.755
334.358	27.351	1879.570	1875.482
335.373	27.573	1878.934	1876.929
336.387	27.987	1877.634	1879.682
337.402	27.807	1876.649	1876.609
338.416	27.875	1874.601	1875.040
339.431	27.869	1873.158	1873.317
340.446	27.773	1870.902	1869.844
341.460	26.973	1867.702	1858.196
342.475	26.749	1865.494	1853.470
343.489	25.715	1860.548	1837.729
344.504	24.205	1856.334	1817.882
345.519	23.906	1853.953	1812.267
346.533	23.646	1852.328	1807.804
347.548	23.631	1850.740	1805.875
348.562	24.006	1849.156	1807.945
349.577	23.853	1849.642	1806.648
350.592	24.074	1848.332	1807.401
351.606	24.284	1846.553	1807.593
352.621	23.766	1844.272	1799.868
353.635	23.637	1843.741	1797.822
354.650	24.703	1845.823	1810.490
355.665	26.578	1848.478	1831.972
356.679	27.192	1848.507	1838.020
357.694	27.661	1848.221	1842.276
358.708	28.015	1846.971	1844.405
359.723	27.800	1846.249	1841.285
360.738	27.384	1844.968	1835.573
361.752	27.607	1843.910	1836.556
362.767	28.168	1843.173	1841.281
363.781	28.021	1840.020	1836.424
364.796	27.891	1838.573	1833.443
365.810	27.868	1837.708	1832.137
366.825	27.464	1834.400	1824.550
367.840	25.696	1828.294	1800.497
368.854	24.095	1824.018	1779.995
369.869	23.825	1821.873	1774.985
370.883	23.903	1820.824	1774.528
371.898	24.024	1819.714	1774.448
372.913	24.038	1818.111	1772.813
373.927	23.895	1815.458	1768.580
374.942	23.789	1816.054	1767.893
375.956	24.846	1816.588	1778.764
376.971	25.624	1815.759	1785.510
377.986	25.534	1815.014	1783.664
379.000	25.598	1813.358	1782.461
380.015	25.646	1812.705	1782.082
381.029	26.672	1814.489	1793.842
382.044	27.554	1813.851	1801.762
383.059	27.617	1812.257	1800.592
384.073	27.649	1811.735	1800.173
385.088	27.703	1811.498	1800.263
386.102	27.888	1808.989	1799.388
387.117	27.483	1807.791	1793.971
388.132	27.655	1806.811	1794.482
389.146	27.522	1806.712	1792.851
390.161	27.210	1804.288	1787.155
391.175	27.043	1801.167	1782.195
392.190	27.147	1797.156	1779.040
393.205	27.342	1796.647	1780.244
394.219	27.467	1795.480	1780.100
395.234	27.375	1794.501	1778.012
396.248	27.337	1792.337	1775.281
397.263	27.270	1790.148	1772.248
398.278	27.377	1788.162	1771.116
399.292	27.283	1786.458	1768.300
400.307	27.023	1785.389	1764.486
401.321	26.476	1783.346	1756.918
402.336	26.406	1781.570	1754.278
403.350	26.122	1779.737	1749.496
404.365	26.180	1778.586	1748.725
405.380	25.941	1774.938	1742.600
406.394	24.322	1771.429	1723.236
407.409	23.738	1769.781	1715.763
408.423	23.950	1768.023	1715.903
409.438	23.757	1766.526	1712.382
410.453	23.819	1765.769	1712.035
411.467	24.135	1764.855	1714.003
412.482	24.662	1765.823	1719.837
413.496	26.636	1769.166	1741.991
414.511	27.668	1769.386	1751.973
415.526	27.755	1766.855	1750.093
416.540	27.674	1765.354	1747.617
417.555	27.631	1764.749	1746.396
418.569	27.467	1764.550	1744.415
419.584	27.359	1763.778	1742.406
420.599	27.516	1763.171	1743.099
421.613	27.724	1762.795	1744.522
422.628	27.516	1760.658	1740.203
423.642	27.344	1758.608	1736.314
424.657	26.924	1756.159	1729.670
425.672	26.964	1755.239	1728.941
426.686	27.269	1754.132	1730.561
427.701	27.056	1752.013	1726.230
428.715	27.017	1749.955	1723.619
429.730	27.170	1749.538	1724.465
430.745	27.764	1748.887	1729.274
431.759	28.014	1748.620	1731.183
432.774	28.399	1749.530	1735.542
433.788	26.933	1744.782	1716.701
434.803	25.274	1740.746	1696.767
435.818	24.927	1739.593	1692.148
436.832	24.931	1738.733	1691.142
437.847	24.252	1732.499	1678.456
438.861	15.632	1706.764	1572.595
439.876	3.359	1684.039	1436.973
440.890	0.351	1678.355	1403.828
441.905	0.200	1676.876	1401.006
442.920	0.130	1675.468	1399.007
443.934	0.157	1674.519	1398.299
444.949	0.160	1673.507	1397.321
445.963	0.205	1672.452	1396.686
446.978	-0.010	1672.297	1394.388
447.993	-0.040	1671.003	1392.864
449.007	0.035	1668.068	1390.948
450.022	0.203	1665.444	1390.148
451.036	0.139	1664.744	1388.808
452.051	1.561	1672.097	1408.020
453.066	12.742	1697.402	1534.329
454.080	23.608	1714.177	1651.510
455.095	26.081	1719.777	1679.872
456.109	28.310	1724.114	1704.788
457.124	29.347	1723.915	1714.088
458.139	28.817	1720.843	1705.886
459.153	28.247	1718.865	1698.400
460.168	28.157	1717.805	1696.314
461.182	28.527	1717.043	1698.806
462.197	29.133	1716.378	1703.577
463.212	29.366	1714.957	1704.135
464.226	29.544	1714.876	1705.500
465.241	29.764	1714.631	1707.090
466.255	29.949	1713.430	1707.407
467.270	30.066	1712.378	1707.241
468.285	30.001	1711.930	1705.984
469.299	30.358	1711.445	1708.601
470.314	30.577	1710.018	1708.995
471.328	30.668	1708.463	1708.079
472.343	30.692	1707.501	1707.135
473.358	30.749	1706.327	1706.280
474.372	30.844	1705.180	1705.804
475.387	31.084	1704.678	1707.310
476.401	31.079	1702.041	1704.411
477.416	30.559	1700.021	1697.415
478.430	30.626	1699.303	1697.114
479.445	30.682	1698.703	1696.819
480.460	30.591	1696.810	1693.894
481.474	30.640	1696.051	1693.386
482.489	30.974	1695.836	1696.024
483.503	30.861	1692.822	1691.774
484.518	30.654	1690.947	1687.809
485.533	30.842	1691.246	1689.618
486.547	30.881	1688.693	1687.219
487.562	30.432	1687.135	1681.382
488.576	30.696	1687.607	1684.046
489.591	31.100	1686.647	1686.560
490.606	31.088	1685.238	1684.840
491.620	31.216	1683.761	1684.322
492.635	31.228	1680.592	1681.060
493.649	30.671	1679.093	1674.325
494.664	30.342	1678.311	1670.367
495.679	30.260	1677.016	1668.141
496.693	30.504	1674.764	1667.897
497.708	30.766	1674.856	1670.152
498.722	30.880	1674.642	1670.766
499.737	31.033	1673.090	1670.395
500.752	30.908	1671.298	1667.283
501.766	30.800	1670.180	1664.998
502.781	30.974	1668.498	1664.687
503.795	31.037	1666.436	1662.998
504.810	30.962	1665.284	1660.976
505.825	30.720	1664.997	1658.325
506.839	30.436	1663.099	1653.691
507.854	30.337	1661.027	1650.552
508.868	30.194	1659.304	1647.362
509.883	29.679	1656.711	1639.999
510.898	29.311	1654.106	1633.942
511.912	28.815	1652.211	1627.468
512.927	28.316	1649.697	1620.359
513.941	28.451	1647.582	1619.281
514.956	28.761	1648.091	1622.342
515.971	29.471	1648.219	1628.573
516.985	29.154	1646.384	1623.757
518.000	28.749	1644.375	1617.997
519.014	28.621	1643.461	1615.769
520.029	28.592	1642.001	1613.889
521.043	28.398	1640.573	1610.575
522.058	28.442	1639.006	1609.234
523.073	28.535	1638.882	1609.741
524.087	28.848	1638.766	1612.193
525.102	29.406	1638.615	1616.768
526.116	30.087	1637.675	1621.642
527.131	30.333	1637.336	1623.268
528.146	30.724	1637.245	1626.421
529.160	30.813	1636.658	1626.425
530.175	31.145	1636.173	1628.664
531.189	31.203	1635.096	1627.902
532.204	31.157	1632.841	1625.066
533.219	30.872	1632.216	1621.752
534.233	30.947	1630.322	1620.334
535.248	30.655	1629.435	1616.702
536.262	30.637	1628.176	1615.103
537.277	31.098	1627.873	1618.631
538.292	31.069	1627.314	1617.632
539.306	31.097	1625.178	1615.557
540.321	30.870	1622.114	1610.344
541.335	30.346	1620.647	1604.147
542.350	30.802	1620.055	1607.330
543.365	31.203	1619.343	1609.909
544.379	31.419	1618.486	1610.728
545.394	31.409	1616.333	1608.310
546.408	30.892	1614.602	1601.928
547.423	30.629	1613.409	1598.279
548.438	30.975	1613.307	1600.973
549.452	31.191	1611.705	1601.060
550.467	30.912	1610.036	1596.803
551.481	30.855	1609.275	1595.371
552.496	30.887	1608.782	1594.968
553.511	31.004	1607.978	1594.978
554.525	31.182	1606.576	1594.931
555.540	31.067	1605.923	1593.103
556.554	31.319	1604.270	1593.436
557.569	30.961	1602.060	1587.981
558.583	30.571	1599.390	1581.814
559.598	30.360	1598.992	1579.422
560.613	30.470	1597.853	1579.053
561.627	30.294	1596.427	1575.949
562.642	29.873	1593.900	1569.675
563.656	29.449	1591.259	1563.281
564.671	29.151	1589.439	1558.765
565.686	29.033	1587.584	1555.764
566.700	28.700	1586.645	1551.828
567.715	28.696	1585.093	1550.090
568.729	29.017	1583.776	1551.333
569.744	29.582	1584.284	1556.434
570.759	29.622	1583.011	1555.335
571.773	29.381	1581.584	1551.711
572.788	29.324	1579.289	1548.788
573.802	29.060	1577.535	1544.657
574.817	28.824	1576.394	1541.366
575.832	28.846	1575.919	1540.907
576.846	29.872	1576.033	1549.472
577.861	30.317	1575.078	1552.091
578.875	30.628	1575.249	1554.686
579.890	30.927	1575.601	1557.358
580.905	31.082	1574.667	1557.548
581.919	31.085	1574.241	1556.970
582.934	31.216	1573.185	1556.837
583.948	31.002	1572.373	1554.055
584.963	31.079	1569.853	1552.022
585.978	30.898	1568.076	1548.566
586.992	30.627	1566.588	1544.653
588.007	30.723	1566.564	1545.240
589.021	30.129	1564.263	1537.837
590.036	29.316	1561.713	1528.371
591.051	30.017	1562.080	1534.392
592.065	30.758	1561.066	1539.368
593.080	30.971	1559.753	1539.663
594.094	31.169	1557.646	1539.036
595.109	30.901	1556.537	1535.537
596.123	31.083	1556.098	1536.432
597.138	31.306	1555.063	1537.066
598.153	30.959	1553.557	1532.526
599.167	30.732	1552.104	1529.039
600.182	30.661	1550.875	1527.058
601.196	30.724	1550.290	1526.815
602.211	30.977	1549.300	1527.741
603.226	30.907	1548.033	1525.737
604.240	31.234	1546.450	1526.685
605.255	31.289	1545.311	1525.826
606.269	31.109	1545.021	1523.877
607.284	30.837	1543.909	1520.371
608.299	30.944	1541.329	1518.524
609.313	30.578	1539.881	1513.922
610.328	30.390	1538.550	1510.888
611.342	30.516	1536.759	1509.979
612.357	30.557	1536.092	1509.479
613.372	30.267	1534.889	1505.750
614.386	30.120	1533.338	1502.849
615.401	30.129	1532.714	1502.133
616.415	30.001	1530.806	1499.044
617.430	29.459	1529.265	1492.944
618.445	29.329	1527.475	1489.966
619.459	29.203	1526.254	1487.571
620.474	29.070	1525.277	1485.368
621.488	29.440	1525.117	1488.034
622.503	29.982	1524.401	1491.545
623.518	29.503	1522.901	1486.024
624.532	29.307	1521.008	1482.415
625.547	29.235	1519.299	1479.988
626.561	29.222	1518.556	1478.984
627.576	29.055	1518.442	1477.349
628.591	29.514	1516.470	1478.948
629.605	29.779	1516.270	1480.713
630.620	30.125	1516.250	1483.296
631.634	30.641	1515.196	1486.237
632.649	30.644	1514.257	1485.162
633.663	30.138	1512.875	1479.571
634.678	29.717	1510.239	1473.443
635.693	29.414	1507.853	1468.512
636.707	29.373	1505.998	1466.200
637.722	29.391	1505.814	1465.994
638.736	29.843	1505.874	1469.486
639.751	30.406	1505.362	1473.302
640.766	30.600	1504.241	1473.576
641.780	30.718	1502.950	1473.068
642.795	30.680	1502.622	1472.269
643.809	31.087	1501.714	1474.441
644.824	31.160	1501.555	1474.687
645.839	31.260	1500.800	1474.564
646.853	31.203	1499.560	1472.713
647.868	31.056	1497.328	1469.180
648.882	30.786	1495.630	1465.203
649.897	30.710	1494.288	1463.113
650.912	30.483	1492.485	1459.385
651.926	30.737	1491.359	1460.111
652.941	30.698	1490.805	1459.085
653.955	30.429	1488.689	1454.720
654.970	29.569	1485.752	1444.920
655.985	29.434	1483.730	1441.716
656.999	29.280	1482.575	1439.217
658.014	29.444	1482.117	1439.882
659.028	30.051	1482.346	1444.692
660.043	30.471	1482.530	1447.994
661.058	30.677	1481.254	1448.181
662.072	30.884	1479.897	1448.299
663.087	30.644	1479.142	1445.511
664.101	30.492	1477.713	1442.761
665.116	30.578	1476.812	1442.378
666.131	30.703	1476.307	1442.688
667.145	30.821	1475.185	1442.337
668.160	30.763	1473.678	1440.235
669.174	30.623	1472.230	1437.560
670.189	30.665	1472.311	1437.798
671.204	30.923	1471.364	1438.702
672.218	30.988	1469.812	1437.514
673.233	31.075	1468.627	1436.857
674.247	30.992	1467.191	1434.642
675.262	30.874	1466.258	1432.646
676.276	30.717	1465.536	1430.555
677.291	30.787	1464.474	1429.884
678.306	31.075	1463.576	1431.063
679.320	30.913	1461.359	1427.472
680.335	30.533	1460.543	1423.580
681.349	30.652	1460.481	1424.263
682.364	30.641	1458.869	1422.436
683.379	30.492	1456.148	1418.475
684.393	30.259	1454.761	1415.167
685.408	30.107	1454.134	1413.218
686.422	29.927	1452.992	1410.562
687.437	29.653	1451.795	1407.135
688.452	29.437	1450.453	1404.012
689.466	29.380	1448.890	1401.899
690.481	29.273	1447.732	1399.790
691.495	29.524	1447.657	1401.468
692.510	30.063	1448.254	1405.989
693.525	30.828	1446.774	1410.210
694.539	30.553	1444.397	1405.635
695.554	29.688	1443.249	1397.776
696.568	29.396	1441.584	1393.779
697.583	29.234	1440.625	1391.455
698.598	29.625	1439.958	1393.615
699.612	29.854	1438.766	1394.030
700.627	29.984	1438.444	1394.535
701.641	30.362	1438.010	1396.806
702.656	30.550	1437.368	1397.436
703.671	30.571	1436.957	1397.025
704.685	30.637	1436.883	1397.283
705.700	30.693	1434.633	1395.348
706.714	30.442	1432.212	1390.938
707.729	30.442	1431.157	1389.751
708.744	30.337	1430.417	1388.077
709.758	30.153	1428.092	1384.270
710.773	29.650	1425.984	1378.295
711.787	29.373	1425.373	1375.458
712.802	29.985	1424.483	1379.023
713.816	30.234	1424.307	1380.549
714.831	30.148	1424.054	1379.498
715.846	30.341	1422.429	1379.194
716.860	30.305	1421.058	1377.430
717.875	30.240	1420.320	1376.071
718.889	30.031	1419.040	1373.108
719.904	30.125	1416.951	1371.618
720.919	30.260	1415.760	1371.303
721.933	29.893	1415.253	1367.921
722.948	30.067	1414.070	1367.912
723.962	30.074	1413.497	1367.241
724.977	30.140	1412.442	1366.547
725.992	30.427	1411.532	1367.631
727.006	30.667	1410.549	1368.288
728.021	30.587	1409.172	1366.198
729.035	30.485	1408.685	1364.809
730.050	30.604	1407.807	1364.675
731.065	30.540	1406.629	1362.896
732.079	30.316	1404.968	1359.473
733.094	30.445	1403.827	1359.156
734.108	30.732	1402.848	1360.153
735.123	30.613	1400.735	1357.073
736.138	30.463	1399.544	1354.658
737.152	30.374	1398.784	1353.106
738.167	30.412	1397.803	1352.270
739.181	30.380	1396.945	1351.046
740.196	30.540	1396.367	1351.495
741.211	30.411	1395.211	1349.273
742.225	30.238	1394.046	1346.719
743.240	30.086	1392.229	1343.699
744.254	29.828	1390.442	1339.935
745.269	29.659	1388.747	1336.911
746.284	29.421	1388.044	1334.344
747.298	29.402	1387.124	1333.165
748.313	29.482	1386.323	1332.814
749.327	29.894	1386.832	1336.136
750.342	30.304	1386.741	1338.863
751.356	30.876	1386.273	1342.390
752.371	30.600	1384.737	1338.746
753.386	29.809	1381.845	1330.078
754.400	29.617	1381.585	1328.278
755.415	30.297	1381.431	1332.887
756.429	30.389	1380.105	1332.106
757.444	30.615	1378.619	1332.144
758.459	30.352	1377.528	1329.036
759.473	30.175	1376.169	1326.296
760.488	30.094	1374.162	1323.619
761.502	29.769	1373.079	1320.087
762.517	29.842	1372.648	1320.040
763.532	30.170	1370.914	1320.558
764.546	29.954	1369.546	1317.537
765.561	29.443	1368.016	1312.261
766.575	28.773	1366.401	1305.768
767.590	28.794	1366.436	1305.795
768.605	29.419	1366.111	1309.791
769.619	29.793	1364.693	1310.937
770.634	30.013	1364.392	1312.060
771.648	29.835	1362.905	1309.208
772.663	29.699	1361.502	1306.732
773.678	29.930	1361.288	1308.016
774.692	30.306	1360.985	1310.233
775.707	30.327	1360.404	1309.666
776.721	30.183	1359.877	1307.984
777.736	30.080	1358.304	1305.586
778.751	30.309	1357.213	1306.000
779.765	30.325	1355.951	1304.741
780.780	30.263	1355.197	1303.423
781.794	30.125	1354.788	1301.898
782.809	29.808	1353.100	1297.885
783.824	29.220	1351.411	1291.968
784.838	29.560	1349.824	1292.687
785.853	30.198	1349.781	1296.976
786.867	30.022	1349.071	1294.906
787.882	29.575	1347.640	1290.238
788.897	29.202	1346.337	1286.220
789.911	29.237	1344.960	1284.997
790.926	29.273	1343.969	1284.149
791.940	29.506	1342.608	1284.323
792.955	29.497	1341.888	1283.418
793.969	29.512	1340.611	1282.143
794.984	29.494	1340.148	1281.426
795.999	29.842	1339.761	1283.331
797.013	30.215	1338.253	1284.324
798.028	30.241	1336.602	1282.766
799.042	30.255	1336.137	1282.267
800.057	29.958	1335.394	1279.334
801.072	29.997	1334.017	1278.133
802.086	29.889	1333.045	1276.304
803.101	29.999	1332.321	1276.221
804.115	29.849	1331.558	1274.300
805.130	29.820	1330.229	1272.671
806.145	29.901	1328.095	1271.036
807.159	29.814	1326.332	1268.597
808.174	29.800	1325.853	1267.889
809.188	29.997	1324.429	1267.734
810.203	29.768	1322.835	1264.481
811.218	29.579	1321.102	1261.380
812.232	29.253	1318.766	1256.761
813.247	28.906	1317.945	1253.450
814.261	29.289	1318.569	1256.518
815.276	29.717	1318.186	1258.933
816.291	29.742	1316.880	1257.707
817.305	29.555	1315.547	1255.004
818.320	29.704	1314.626	1254.997
819.334	29.843	1314.045	1255.238
820.349	30.065	1312.803	1255.413
821.364	30.005	1311.422	1253.537
822.378	29.888	1310.215	1251.437
823.393	29.790	1308.465	1248.946
824.407	29.822	1307.591	1248.180
825.422	29.814	1307.091	1247.499
826.437	29.667	1305.646	1244.976
827.451	29.359	1303.697	1240.888
828.466	29.656	1303.434	1242.498
829.480	29.940	1302.339	1243.222
830.495	29.696	1299.621	1238.832
831.509	29.413	1298.461	1235.677
832.524	29.455	1297.378	1234.778
833.539	29.679	1296.906	1235.688
834.553	29.636	1296.042	1234.429
835.568	29.558	1294.943	1232.709
836.582	29.803	1293.520	1232.847
837.597	30.011	1292.305	1232.937
838.612	29.801	1290.428	1229.597
839.626	29.643	1288.787	1226.833
840.641	29.498	1288.193	1225.151
841.655	29.383	1287.207	1223.302
842.670	29.024	1284.891	1218.565
843.685	28.531	1284.106	1214.391
844.699	28.979	1283.411	1216.571
845.714	29.444	1282.830	1218.964
846.728	29.166	1282.364	1216.528
847.743	29.174	1281.800	1215.897
848.758	29.347	1280.792	1215.946
849.772	29.559	1279.517	1215.991
850.787	29.687	1278.334	1215.565
851.801	29.598	1277.310	1213.864
852.816	29.520	1275.892	1211.850
853.831	29.553	1274.454	1210.563
854.845	29.440	1272.592	1207.906
855.860	29.147	1270.954	1204.281
856.874	29.226	1270.021	1203.766
857.889	29.467	1268.692	1203.947
858.904	29.731	1268.365	1205.224
859.918	30.040	1267.957	1206.714
860.933	30.221	1266.316	1206.190
861.947	30.062	1264.881	1203.644
862.962	29.594	1262.943	1198.599
863.977	29.393	1261.544	1195.820
864.991	29.228	1261.092	1194.176
866.006	29.318	1260.706	1194.252
867.020	29.455	1259.954	1194.284
868.035	29.440	1258.883	1193.034
869.049	29.620	1257.992	1193.213
870.064	29.715	1257.009	1192.753
871.079	29.616	1256.245	1191.247
872.093	29.276	1255.168	1187.879
873.108	29.287	1253.740	1186.459
874.122	29.199	1252.088	1184.185
875.137	29.010	1251.386	1182.153
876.152	28.906	1250.180	1180.204
877.166	28.753	1248.714	1177.692
878.181	28.881	1248.110	1177.806
879.195	28.988	1247.829	1178.090
880.210	29.223	1246.798	1178.485
881.225	29.455	1246.202	1179.276
882.239	29.534	1245.026	1178.522
883.254	29.508	1244.029	1177.272
884.268	29.508	1243.531	1176.659
885.283	29.633	1241.790	1175.672
886.298	29.657	1240.178	1174.160
887.312	29.575	1239.019	1172.399
888.327	29.560	1238.347	1171.526
889.341	29.527	1236.808	1169.721
890.356	29.342	1236.511	1168.124
891.371	29.346	1235.777	1167.315
892.385	29.392	1235.313	1167.030
893.400	29.047	1234.779	1164.189
894.414	29.195	1233.028	1163.339
895.429	29.352	1232.077	1163.298
896.444	29.811	1232.007	1166.002
897.458	30.577	1231.043	1169.801
898.473	30.235	1229.370	1165.907
899.487	29.556	1228.074	1160.254
900.502	28.996	1226.692	1155.274
901.517	29.094	1224.901	1154.069
902.531	29.345	1223.562	1154.244
903.546	29.313	1223.916	1154.243
904.560	29.290	1223.768	1153.816
905.575	29.358	1222.036	1152.474
906.589	29.400	1220.866	1151.500
907.604	29.345	1219.826	1150.032
