DTS Sentinel unit serial number:	SN409020Multiplexer serial number:	ORYXHardware model number:	OX4-SRSoftware version number:	ORYX F/W v3.00 Oryx Data Collector v3.7.2.0data status	okinstallation	HaddamTimeLapsedifferential loss correction	single-endedforward channel	channel 3reverse channel	N/Adate	2011/06/21time	20:31:17forward acquisition time	30.00reverse acquisition time	0.00gamma	498.7831k internal	0.1776k external	0.1776temperature offset calibration	1.0074default loss term (dB/km)	0.3790temperature slope calibration	1.3530multiplexer offset coefficient	1.0000multiplexer slope coefficient	1.0000fibre end	0.00T internal ref (°C)	29.94T ext. ref 1 (°C)	22.13T ext. ref 2 (°C)	0.03length (m)	temperature (°C)	Stokes	anti-Stokes-747.200	-200.000	-0.019	0.177
-746.185	269.275	-0.101	0.234
-745.171	-79.940	0.252	0.110
-744.156	-200.000	0.030	0.219
-743.142	-150.742	0.727	-0.072
-742.127	-64.274	-0.407	0.216
-741.112	800.000	0.096	0.391
-740.098	-200.000	-0.034	0.334
-739.083	175.589	0.186	-0.354
-738.069	34.457	0.153	0.175
-737.054	-116.687	-0.361	-0.086
-736.039	16.008	-0.114	-0.118
-735.025	-50.825	0.455	-0.279
-734.010	800.000	0.089	0.371
-732.996	307.757	-0.093	0.228
-731.981	-200.000	-0.007	-0.058
-730.966	569.504	-0.087	0.278
-729.952	-114.367	-0.261	0.065
-728.937	-93.910	-0.362	0.130
-727.923	-200.000	-0.020	-0.229
-726.908	344.475	-0.169	-0.435
-725.894	-106.151	-0.478	0.140
-724.879	758.159	-0.090	-0.321
-723.864	-101.592	-0.537	-0.170
-722.850	-114.923	-0.305	0.075
-721.835	-140.746	-0.276	-0.037
-720.821	-95.013	-0.246	-0.087
-719.806	-93.323	-0.606	-0.219
-718.791	-155.865	-0.104	0.009
-717.777	25.360	-0.121	-0.132
-716.762	-200.000	-0.006	-0.148
-715.748	-200.000	-0.013	0.154
-714.733	106.133	0.012	0.019
-713.718	121.484	-0.223	0.364
-712.704	692.524	-0.021	-0.074
-711.689	-64.870	-0.031	-0.016
-710.675	-128.327	-0.678	-0.125
-709.660	-14.940	0.218	-0.182
-708.645	-200.000	0.052	-0.320
-707.631	40.398	0.242	-0.285
-706.616	-42.307	-0.248	0.165
-705.602	-110.324	-0.377	-0.102
-704.587	-68.057	-0.296	-0.150
-703.572	-170.452	-0.624	0.028
-702.558	-99.924	0.192	-0.062
-701.543	-141.357	-0.208	-0.027
-700.529	72.411	0.256	-0.350
-699.514	-133.619	-0.302	0.049
-698.499	-114.291	-0.551	0.138
-697.485	-200.000	0.571	0.002
-696.470	0.163	0.316	0.294
-695.456	109.121	-0.103	0.161
-694.441	-200.000	0.000	0.264
-693.426	76.698	0.106	-0.147
-692.412	106.963	-0.159	-0.248
-691.397	-99.164	0.401	0.132
-690.383	-127.761	-0.309	0.058
-689.368	38.620	0.177	0.206
-688.354	-67.428	0.237	0.121
-687.339	76.602	0.118	0.164
-686.324	-200.000	0.023	0.313
-685.310	-145.560	-0.145	-0.017
-684.295	-116.646	-0.395	-0.094
-683.281	337.080	-0.130	0.331
-682.266	-69.874	-0.301	-0.149
-681.251	-153.813	-0.248	-0.022
-680.237	271.386	0.282	0.651
-679.222	-29.179	0.140	0.105
-678.208	-23.870	-0.418	-0.326
-677.193	-141.197	0.287	-0.038
-676.178	-113.703	-0.194	-0.049
-675.164	-118.547	0.439	0.101
-674.149	79.118	-0.133	-0.187
-673.135	374.852	-0.244	-0.654
-672.120	80.541	0.219	-0.308
-671.105	-73.950	-0.426	-0.201
-670.091	315.464	-0.149	-0.369
-669.076	-68.799	0.345	0.174
-668.062	68.360	-0.124	0.166
-667.047	-132.438	-0.253	-0.042
-666.032	-90.435	-0.470	0.177
-665.018	800.000	0.058	-0.333
-664.003	88.260	-0.091	-0.132
-662.989	-200.000	-0.032	0.671
-661.974	163.731	-0.174	0.320
-660.959	31.550	-0.159	-0.179
-659.945	240.446	-0.243	-0.531
-658.930	800.000	-0.134	-0.579
-657.916	105.943	0.141	-0.219
-656.901	-40.974	0.107	-0.072
-655.886	485.465	-0.112	-0.335
-654.872	3.771	-0.226	-0.215
-653.857	159.157	-0.255	-0.464
-652.843	-28.332	-0.159	-0.120
-651.828	-1.923	-0.362	0.332
-650.814	-113.644	-0.235	0.059
-649.799	-134.914	-0.410	-0.064
-648.784	-92.706	-0.455	0.165
-647.770	-111.287	-0.252	-0.067
-646.755	48.078	0.408	-0.498
-645.741	800.000	-0.081	0.308
-644.726	-39.205	-0.260	0.178
-643.711	-23.442	-0.310	0.242
-642.697	47.701	-0.193	0.235
-641.682	263.470	0.306	-0.697
-640.668	-69.176	-0.232	-0.116
-639.653	-67.948	-0.311	-0.157
-638.638	-185.487	0.111	0.002
-637.624	-3.537	-0.386	-0.349
-636.609	26.959	-0.134	-0.147
-635.595	280.703	0.114	-0.266
-634.580	296.729	0.109	0.261
-633.565	762.454	0.052	-0.187
-632.551	-200.000	-0.033	0.431
-631.536	-81.455	-0.255	-0.109
-630.522	297.311	0.139	0.334
-629.507	-200.000	0.029	-0.296
-628.492	154.499	-0.128	-0.229
-627.478	-92.772	-0.369	0.134
-626.463	356.140	0.120	-0.314
-625.449	531.007	-0.073	0.227
-624.434	-41.497	0.302	0.202
-623.419	-136.571	0.302	0.045
-622.405	-41.807	0.288	-0.192
-621.390	41.780	0.031	-0.036
-620.376	-133.163	-0.533	0.087
-619.361	-200.000	-0.044	-0.318
-618.346	-61.746	0.485	-0.264
-617.332	-69.007	-0.248	0.124
-616.317	-105.526	0.740	0.217
-615.303	-78.861	0.200	0.088
-614.288	800.000	-0.072	0.380
-613.273	730.188	-0.056	-0.195
-612.259	-66.004	-0.411	0.213
-611.244	-98.423	-0.279	0.092
-610.230	24.771	0.298	-0.321
-609.215	-200.000	0.041	-0.424
-608.201	-29.405	-0.086	-0.064
-607.186	-12.263	0.061	0.052
-606.171	-79.855	0.251	0.110
-605.157	23.406	-0.191	0.205
-604.142	-98.999	-0.314	-0.103
-603.128	-98.219	-0.200	-0.067
-602.113	246.366	-0.156	-0.344
-601.098	-4.480	-0.308	-0.277
-600.084	506.791	-0.021	-0.064
-599.069	-136.329	0.478	-0.072
-598.055	616.624	0.027	0.088
-597.040	-145.537	0.350	-0.040
-596.025	-46.079	0.250	0.160
-595.011	-51.437	-0.223	-0.135
-593.996	-200.000	-0.019	0.151
-592.982	800.000	-0.019	0.102
-591.967	-135.446	-0.128	-0.020
-590.952	-100.905	-0.111	0.035
-589.938	3.580	-0.116	0.110
-588.923	-22.033	-0.673	-0.531
-587.909	-200.000	-0.076	-0.453
-586.894	-200.000	0.016	0.099
-585.879	-120.578	-0.135	-0.029
-584.865	746.486	-0.180	0.634
-583.850	62.577	-0.237	-0.309
-582.836	-200.000	0.042	-0.472
-581.821	23.308	-0.171	0.183
-580.806	430.230	0.194	-0.550
-579.792	-38.418	0.273	0.187
-578.777	-200.000	-0.043	0.341
-577.763	-200.000	-0.026	0.208
-576.748	-200.000	0.006	0.164
-575.733	203.230	-0.141	0.284
-574.719	10.727	-0.268	0.266
-573.704	-77.012	-0.214	-0.097
-572.690	-48.360	0.192	0.120
-571.675	-38.985	0.211	0.144
-570.661	356.991	-0.144	-0.374
-569.646	-87.391	0.134	-0.052
-568.631	109.573	-0.120	-0.187
-567.617	-157.685	-0.474	0.036
-566.602	-36.271	0.041	0.029
-565.588	-11.867	0.229	-0.195
-564.573	-200.000	-0.034	-0.422
-563.558	270.603	0.029	-0.067
-562.544	-109.040	0.168	-0.046
-561.529	-110.908	0.071	-0.019
-560.515	77.462	-0.112	0.155
-559.500	-200.000	0.007	0.216
-558.485	800.000	0.046	0.187
-557.471	-131.578	-0.150	0.025
-556.456	7.557	0.118	-0.115
-555.442	-107.765	-0.387	-0.109
-554.427	-140.925	0.160	-0.021
-553.412	-200.000	-0.013	-0.312
-552.398	44.468	-0.496	-0.592
-551.383	12.344	-0.371	-0.371
-550.369	665.620	0.068	0.229
-549.354	-134.147	-0.193	0.031
-548.339	327.531	-0.142	-0.356
-547.325	-75.402	-0.328	0.151
-546.310	29.316	-0.102	-0.113
-545.296	16.622	0.485	0.499
-544.281	507.759	0.123	0.374
-543.266	800.000	-0.032	-0.139
-542.252	-113.181	-0.042	-0.011
-541.237	-200.000	-0.018	-0.203
-540.223	-105.621	-0.330	-0.097
-539.208	-59.843	0.098	-0.054
-538.193	-12.420	0.264	0.224
-537.179	-76.709	-0.161	-0.073
-536.164	557.161	-0.029	0.090
-535.150	-108.134	-0.174	0.049
-534.135	800.000	0.104	0.415
-533.121	-97.195	-0.391	-0.132
-532.106	134.997	0.099	0.167
-531.091	800.000	0.103	0.511
-530.077	-21.474	0.106	-0.084
-529.062	-200.000	-0.014	0.209
-528.048	-145.786	0.049	-0.006
-527.033	262.971	-0.101	-0.228
-526.018	-200.000	-0.073	-0.451
-525.004	-200.000	0.002	-0.153
-523.989	-200.000	-0.022	0.181
-522.975	89.155	-0.227	-0.329
-521.960	-112.952	0.370	0.094
-520.945	-125.676	0.329	0.064
-519.931	-124.948	-0.247	0.049
-518.916	-56.921	-0.500	-0.286
-517.902	-162.129	0.183	-0.012
-516.887	87.473	0.329	-0.473
-515.872	-184.125	-0.388	0.008
-514.858	-78.992	-0.187	-0.082
-513.843	180.976	0.161	-0.307
-512.829	-17.470	0.285	-0.233
-511.814	-81.585	-0.464	-0.197
-510.799	-107.128	0.250	0.071
-509.785	33.330	-0.065	-0.073
-508.770	308.673	-0.015	-0.037
-507.756	-200.000	0.023	0.183
-506.741	82.929	-0.212	0.299
-505.726	205.107	0.224	0.452
-504.712	-74.931	0.122	-0.057
-503.697	177.035	-0.191	0.361
-502.683	-58.667	-0.132	0.074
-501.668	-82.057	-0.474	0.200
-500.653	800.000	0.055	-0.317
-499.639	384.420	-0.103	0.275
-498.624	101.376	-0.130	0.197
-497.610	800.000	-0.074	-0.378
-496.595	-96.360	0.495	-0.169
-495.581	17.524	-0.163	0.168
-494.566	-200.000	0.306	-0.002
-493.551	-200.000	-0.061	0.500
-492.537	800.000	-0.067	-0.261
-491.522	800.000	-0.046	-0.181
-490.508	-126.041	-0.240	0.046
-489.493	-200.000	0.012	-0.552
-488.478	-160.093	-0.604	-0.042
-487.464	12.472	0.396	0.395
-486.449	707.301	0.040	-0.137
-485.435	-129.252	-0.259	0.046
-484.420	800.000	0.047	-0.263
-483.405	-100.771	0.171	0.054
-482.391	-104.843	0.802	-0.237
-481.376	-21.854	-0.441	0.347
-480.362	-19.297	-0.096	-0.077
-479.347	-72.886	-0.293	-0.139
-478.332	-95.975	-0.012	-0.004
-477.318	-200.000	-0.021	-0.311
-476.303	-19.463	-0.139	-0.112
-475.289	-105.572	0.121	0.035
-474.274	-172.970	0.141	-0.006
-473.259	29.262	-0.446	0.491
-472.245	800.000	0.070	0.295
-471.230	581.707	-0.071	0.226
-470.216	-200.000	0.062	0.404
-469.201	62.230	0.292	0.377
-468.186	347.865	0.251	0.644
-467.172	-13.749	-0.311	0.260
-466.157	426.729	0.229	0.642
-465.143	-164.081	-0.232	-0.014
-464.128	-200.000	-0.039	0.232
-463.113	-200.000	-0.019	-0.127
-462.099	-47.108	0.267	-0.168
-461.084	218.433	-0.170	0.353
-460.070	20.269	-0.248	0.259
-459.055	686.589	0.140	0.476
-458.040	-115.113	-0.561	-0.137
-457.026	-36.437	0.230	-0.160
-456.011	-88.760	0.279	-0.107
-454.997	129.924	-0.247	0.410
-453.982	768.722	-0.079	0.281
-452.968	800.000	0.094	0.368
-451.953	-36.531	0.184	0.128
-450.938	81.793	-0.124	-0.174
-449.924	-98.296	0.035	-0.012
-448.909	76.063	-0.241	-0.330
-447.895	38.024	0.366	-0.422
-446.880	-111.432	0.359	0.094
-445.865	-132.156	-0.399	0.066
-444.851	-19.086	0.239	-0.192
-443.836	-200.000	0.066	-0.445
-442.822	-53.272	0.399	0.236
-441.807	800.000	-0.147	-0.625
-440.792	379.793	-0.025	0.066
-439.778	379.212	0.157	-0.418
-438.763	-47.278	-0.322	0.202
-437.749	-163.273	-0.612	-0.037
-436.734	-186.714	-0.598	0.011
-435.719	-179.822	-0.590	-0.016
-434.705	-138.148	0.607	0.086
-433.690	-46.613	-0.231	0.146
-432.676	-200.000	-0.011	0.362
-431.661	-200.000	0.032	0.533
-430.646	800.000	-0.061	-0.258
-429.632	29.624	0.127	0.140
-428.617	-34.797	-0.256	0.181
-427.603	-26.217	0.211	0.160
-426.588	800.000	-0.206	0.880
-425.573	5.684	0.504	0.482
-424.559	-44.226	-0.249	-0.161
-423.544	-111.030	-0.153	0.040
-422.530	800.000	0.024	0.113
-421.515	102.433	0.125	-0.189
-420.500	-138.117	0.164	0.023
-419.486	35.778	0.048	-0.055
-418.471	-171.476	-0.164	-0.007
-417.457	-200.000	-0.020	-0.263
-416.442	-200.000	0.021	0.498
-415.428	-104.222	-0.188	-0.056
-414.413	800.000	-0.038	0.199
-413.398	-119.812	-0.293	-0.065
-412.384	59.894	0.186	0.238
-411.369	30.309	-0.129	0.143
-410.355	679.960	-0.038	-0.129
-409.340	-191.651	0.339	-0.004
-408.325	-1.851	0.253	0.230
-407.311	-140.392	-0.395	0.053
-406.296	-75.433	-0.348	0.159
-405.282	276.755	-0.080	-0.185
-404.267	24.872	0.331	-0.354
-403.252	-102.318	0.213	0.066
-402.238	-89.615	0.540	0.204
-401.223	794.747	-0.169	-0.604
-400.209	-74.723	0.441	0.204
-399.194	-181.662	-0.335	-0.008
-398.179	-118.981	-0.394	0.089
-397.165	-140.191	-0.331	0.044
-396.150	189.582	0.157	-0.305
-395.136	188.546	0.067	0.129
-394.121	-76.108	0.147	0.067
-393.106	155.228	-0.173	0.309
-392.092	734.299	0.055	-0.192
-391.077	-200.000	-0.029	0.529
-390.063	-117.873	0.385	-0.088
-389.048	-83.770	0.501	-0.206
-388.033	-132.316	0.605	0.100
-387.019	-10.813	-0.292	-0.249
-386.004	-200.000	0.022	0.378
-384.990	-50.019	-0.257	0.157
-383.975	-146.800	0.102	-0.011
-382.960	175.136	0.162	-0.304
-381.946	27.028	0.158	-0.171
-380.931	-200.000	-0.075	0.467
-379.917	-122.403	0.110	-0.023
-378.902	-200.000	0.054	-0.361
-377.888	-142.027	0.039	0.005
-376.873	-134.946	0.621	0.096
-375.858	-159.034	0.183	-0.013
-374.844	-169.006	0.424	0.020
-373.829	800.000	0.089	-0.368
-372.815	40.719	0.392	0.456
-371.800	-200.000	-0.008	-0.255
-370.785	459.015	0.118	-0.342
-369.771	-64.849	0.114	-0.059
-368.756	-61.077	-0.214	-0.116
-367.742	-136.515	0.392	-0.058
-366.727	-138.318	0.410	-0.058
-365.712	-200.000	-0.041	0.347
-364.698	77.950	-0.322	-0.444
-363.683	111.852	-0.114	0.178
-362.669	373.585	0.094	0.248
-361.654	82.154	0.089	0.125
-360.639	800.000	0.034	0.162
-359.625	-200.000	0.012	-0.343
-358.610	-119.352	0.530	-0.118
-357.596	-200.000	-0.023	0.152
-356.581	-79.066	-0.160	-0.070
-355.566	-35.963	-0.193	0.134
-354.552	305.109	0.139	0.334
-353.537	-83.035	0.387	-0.160
-352.523	-76.571	0.371	0.167
-351.508	-17.510	0.072	-0.058
-350.493	800.000	-0.131	-0.495
-349.479	11.278	-0.241	-0.238
-348.464	256.442	-0.193	-0.429
-347.450	250.863	-0.183	0.402
-346.435	-4.159	0.252	-0.224
-345.420	-140.062	-0.289	0.039
-344.406	96.308	0.084	0.124
-343.391	105.309	0.189	0.288
-342.377	489.278	-0.151	0.447
-341.362	122.736	0.068	-0.111
-340.348	122.406	0.266	0.430
-339.333	-64.770	0.116	0.060
-338.318	-138.589	-0.050	0.007
-337.304	-132.687	0.505	-0.083
-336.289	503.296	0.129	-0.387
-335.275	155.028	-0.033	0.058
-334.260	218.462	-0.087	0.180
-333.245	-120.466	0.238	-0.052
-332.231	419.443	0.125	-0.348
-331.216	81.385	-0.148	0.207
-330.202	-116.162	-0.283	-0.067
-329.187	1.753	-0.276	0.256
-328.172	-200.000	-0.023	-0.749
-327.158	146.231	-0.081	0.140
-326.143	-94.176	-0.632	-0.222
-325.129	-66.278	-0.417	-0.213
-324.114	6.123	0.190	-0.182
-323.099	-151.113	0.451	0.043
-322.085	-135.033	-0.438	0.067
-321.070	157.506	-0.041	0.073
-320.056	140.851	-0.235	0.401
-319.041	55.785	0.189	0.236
-318.026	-139.013	0.259	-0.036
-317.012	-82.779	-0.330	-0.137
-315.997	-106.681	0.310	0.088
-314.983	-54.593	0.242	-0.141
-313.968	800.000	-0.047	-0.193
-312.953	4.775	-0.141	-0.133
-311.939	800.000	0.038	0.164
-310.924	-95.804	0.340	0.116
-309.910	-200.000	-0.085	0.568
-308.895	-78.161	-0.264	0.116
-307.880	174.939	-0.275	0.515
-306.866	179.640	-0.125	-0.237
-305.851	-200.000	-0.058	0.365
-304.837	-98.575	-0.866	-0.283
-303.822	-52.942	0.484	-0.286
-302.807	-35.553	-0.230	-0.160
-301.793	-124.333	-0.199	0.040
-300.778	-200.000	0.071	-0.784
-299.764	-72.461	0.154	-0.073
-298.749	800.000	0.099	-0.410
-297.735	111.097	0.182	-0.282
-296.720	-200.000	-0.046	-0.311
-295.705	-132.452	0.226	-0.037
-294.691	-50.024	-0.302	0.184
-293.676	-69.031	0.017	0.008
-292.662	800.000	0.023	-0.124
-291.647	-78.181	0.261	-0.115
-290.632	-130.544	-0.101	0.017
-289.618	-9.666	0.128	0.109
-288.603	-83.140	0.377	-0.155
-287.589	-57.878	-0.184	0.103
-286.574	766.785	0.075	0.264
-285.559	-73.382	-0.346	0.162
-284.545	-200.000	0.044	-0.367
-283.530	800.000	-0.036	-0.139
-282.516	-144.965	0.278	-0.032
-281.501	-167.127	0.189	0.010
-280.486	-114.762	-0.248	0.060
-279.472	99.984	-0.293	0.437
-278.457	-130.510	0.062	0.011
-277.443	-104.030	0.232	0.069
-276.428	-73.932	-0.134	-0.062
-275.413	-64.114	-0.014	0.007
-274.399	-67.232	0.042	-0.021
-273.384	-146.735	0.404	-0.044
-272.370	800.000	0.025	0.138
-271.355	175.834	0.150	0.281
-270.340	-16.349	0.466	0.379
-269.326	-83.009	-0.467	0.193
-268.311	-27.073	0.054	-0.040
-267.297	-67.660	0.400	-0.201
-266.282	800.000	-0.143	-0.563
-265.267	800.000	0.032	0.151
-264.253	-116.609	0.554	-0.130
-263.238	-119.409	0.339	0.075
-262.224	-82.455	0.042	0.017
-261.209	38.088	-0.283	-0.323
-260.195	72.521	0.074	0.099
-259.180	-200.000	0.021	-0.152
-258.165	-95.008	0.065	-0.023
-257.151	37.744	0.199	-0.228
-256.136	48.701	0.234	0.283
-255.122	-93.683	0.086	0.030
-254.107	-112.094	0.060	-0.015
-253.092	158.401	0.208	-0.371
-252.078	246.768	0.039	-0.085
-251.063	-38.745	-0.290	-0.196
-250.049	-89.868	0.337	0.126
-249.034	-174.414	-0.475	-0.017
-248.019	106.195	-0.131	-0.199
-247.005	712.960	0.067	-0.228
-245.990	-90.828	-0.476	-0.175
-244.976	800.000	-0.068	0.320
-243.961	-123.080	0.495	0.101
-242.946	-146.209	-0.408	0.045
-241.932	800.000	0.141	0.699
-240.917	102.361	-0.220	0.331
-239.903	-1.497	-0.286	-0.259
-238.888	-60.445	-0.837	0.455
-237.873	601.950	0.114	0.366
-236.859	133.981	-0.199	0.331
-235.844	-187.177	0.156	-0.003
-234.830	-4.804	-0.051	-0.045
-233.815	307.211	-0.213	-0.511
-232.800	90.579	0.066	-0.095
-231.786	-92.025	0.307	0.111
-230.771	39.820	0.240	-0.277
-229.757	260.605	0.062	-0.138
-228.742	675.124	0.078	-0.262
-227.727	-200.000	0.063	0.450
-226.713	-188.140	0.265	-0.004
-225.698	-93.197	0.319	-0.113
-224.684	-174.770	0.290	-0.010
-223.669	208.935	-0.107	-0.216
-222.655	-89.220	0.163	-0.062
-221.640	-200.000	0.310	-0.002
-220.625	-40.328	0.185	0.123
-219.611	157.012	0.341	-0.607
-218.596	-132.371	0.202	-0.033
-217.582	-118.162	-0.353	0.080
-216.567	-165.783	0.474	-0.026
-215.552	-172.688	-0.247	-0.010
-214.538	-200.000	0.022	-0.209
-213.523	-29.213	-0.267	-0.196
-212.509	25.387	-0.131	0.140
-211.494	-71.206	-0.249	0.120
-210.479	-99.350	-0.018	0.006
-209.465	202.372	0.089	0.177
-208.450	550.301	0.082	0.255
-207.436	-9.141	-0.238	0.204
-206.421	18.194	-0.348	-0.356
-205.406	182.102	-0.088	0.167
-204.392	299.892	-0.242	-0.573
-203.377	282.559	0.236	0.545
-202.363	-86.884	-0.045	-0.018
-201.348	-117.083	-0.194	0.045
-200.333	-5.934	0.354	-0.310
-199.319	232.159	0.079	-0.167
-198.304	114.528	-0.267	0.418
-197.290	1.692	0.611	-0.564
-196.275	-112.231	0.122	-0.031
-195.260	-160.966	0.235	0.016
-194.246	-52.072	0.191	-0.114
-193.231	19.881	0.359	-0.371
-192.217	-200.000	0.024	0.282
-191.202	53.575	0.325	0.400
-190.187	278.780	0.170	-0.390
-189.173	240.780	0.146	-0.314
-188.158	80.982	0.019	-0.027
-187.144	-200.000	0.008	-0.347
-186.129	87.716	0.211	0.300
-185.114	38.392	-0.171	-0.195
-184.100	-57.627	0.196	0.110
-183.085	-20.781	0.197	-0.154
-182.071	-82.226	-0.441	0.183
-181.056	-200.000	0.008	-0.135
-180.042	-12.721	-0.690	-0.575
-179.027	800.000	-0.068	-0.280
-178.012	-90.751	0.435	0.160
-176.998	-60.709	0.083	-0.045
-175.983	-200.000	-0.002	0.254
-174.969	22.534	0.086	-0.090
-173.954	173.501	-0.104	-0.193
-172.939	-135.782	0.600	-0.090
-171.925	321.268	-0.051	0.124
-170.910	-129.616	-0.267	0.047
-169.896	-24.789	0.267	0.203
-168.881	-78.503	0.231	-0.101
-167.866	-200.000	-0.580	-0.001
-166.852	5.305	-0.255	-0.241
-165.837	103.373	-0.179	-0.269
-164.823	117.156	-0.091	0.144
-163.808	64.623	0.324	0.419
-162.793	50.877	-0.159	-0.193
-161.779	53.673	-0.135	-0.166
-160.764	-117.297	0.231	0.053
-159.750	-135.190	0.202	-0.031
-158.735	167.158	0.058	0.106
-157.720	-4.155	0.119	0.105
-156.706	-200.000	0.040	0.378
-155.691	-200.000	0.023	0.381
-154.677	-74.459	-0.492	0.226
-153.662	-16.221	0.387	0.314
-152.647	-200.000	0.016	-0.100
-151.633	-46.010	0.071	0.045
-150.618	-43.382	0.210	0.135
-149.604	43.993	0.295	-0.346
-148.589	511.857	0.040	0.121
-147.574	-200.000	0.015	0.216
-146.560	-117.685	-0.581	0.133
-145.545	132.303	0.063	0.103
-144.531	661.024	-0.053	-0.176
-143.516	800.000	0.066	0.246
-142.502	-179.559	-0.233	0.006
-141.487	613.998	0.122	0.394
-140.472	-98.820	0.234	-0.076
-139.458	-66.467	-0.237	-0.120
-138.443	40.335	-0.128	-0.147
-137.429	-200.000	0.017	0.142
-136.414	11.362	-0.227	0.222
-135.399	399.578	0.087	-0.234
-134.385	-55.723	-0.132	0.075
-133.370	-76.646	0.489	0.218
-132.356	51.873	0.160	0.195
-131.341	-42.966	0.542	-0.351
-130.326	95.016	-0.216	-0.314
-129.312	-111.624	0.384	0.099
-128.297	225.872	0.191	0.397
-127.283	-118.104	-0.393	-0.089
-126.268	800.000	-0.221	-0.804
-125.253	258.707	0.113	-0.251
-124.239	-17.722	0.170	0.136
-123.224	-73.292	0.272	0.127
-122.210	-66.394	-0.240	-0.122
-121.195	-51.609	0.071	0.042
-120.180	-200.000	0.073	-0.494
-119.166	4.010	0.211	-0.197
-118.151	153.892	0.219	-0.385
-117.137	-7.156	-0.196	0.169
-116.122	140.218	0.077	-0.129
-115.107	-114.781	0.438	0.106
-114.093	-154.365	-0.336	0.028
-113.078	182.279	-0.305	0.577
-112.064	-200.000	-0.018	0.107
-111.049	292.332	-0.218	0.509
-110.034	100.054	-0.197	0.292
-109.020	-136.232	-0.214	0.032
-108.005	147.937	-0.079	0.137
-106.991	-78.912	0.242	-0.105
-105.976	-141.704	0.356	0.045
-104.962	113.401	-0.311	0.483
-103.947	800.000	0.195	0.712
-102.932	118.205	-0.118	0.187
-101.918	-200.000	-0.057	-0.504
-100.903	-85.795	-0.161	0.064
-99.889	21.363	-0.160	-0.166
-98.874	-200.000	-0.029	-0.273
-97.859	-200.000	0.011	-0.179
-96.845	-108.953	0.116	0.031
-95.830	-44.232	-0.365	-0.233
-94.816	-200.000	-0.001	-0.465
-93.801	-200.000	-0.021	-0.409
-92.786	-97.511	-0.194	-0.064
-91.772	-110.040	-0.421	-0.112
-90.757	-144.272	-0.515	0.061
-89.743	800.000	0.056	-0.259
-88.728	-200.000	0.022	-0.222
-87.713	-55.137	-0.042	0.024
-86.699	-107.114	0.235	-0.066
-85.684	408.200	-0.114	-0.309
-84.670	-81.570	-0.178	0.074
-83.655	318.676	-0.170	-0.414
-82.640	80.665	0.235	0.324
-81.626	59.880	-0.196	-0.248
-80.611	147.952	-0.098	-0.169
-79.597	-158.137	0.282	-0.021
-78.582	-9.814	0.093	-0.079
-77.567	-172.711	0.489	0.019
-76.553	-51.664	-0.183	0.109
-75.538	476.908	0.042	-0.122
-74.524	-61.132	0.390	-0.209
-73.509	-174.936	0.339	-0.012
-72.494	-43.447	0.119	0.076
-71.480	19.033	-0.369	-0.378
-70.465	-114.825	0.362	0.087
-69.451	800.000	0.137	-0.669
-68.436	800.000	-0.072	0.339
-67.422	285.309	-0.087	-0.200
-66.407	-133.599	-0.328	0.052
-65.392	800.000	-0.135	0.487
-64.378	-119.557	0.237	0.052
-63.363	-71.811	0.190	0.090
-62.349	-85.031	-0.265	-0.105
-61.334	-13.416	-2.391	-1.975
-60.319	10.039	0.975	0.944
-59.305	295.023	-3.066	-7.181
-58.290	56.201	3.261	4.041
-57.276	495.694	3.505	10.323
-56.261	-200.000	18.957	275.383
-55.246	395.107	1250.407	3339.504
-54.232	54.761	2865.637	3526.859
-53.217	53.687	2722.942	3334.397
-52.203	38.978	2451.795	2793.905
-51.188	36.356	2108.429	2370.222
-50.173	32.042	1988.578	2185.063
-49.159	30.678	1978.437	2157.934
-48.144	30.339	1974.137	2149.216
-47.130	30.311	1971.791	2146.257
-46.115	30.322	1970.547	2144.937
-45.100	30.292	1968.914	2142.732
-44.086	30.169	1968.092	2140.323
-43.071	30.209	1965.743	2138.153
-42.057	30.252	1964.136	2136.816
-41.042	30.182	1962.278	2133.902
-40.027	30.141	1961.050	2132.009
-39.013	30.207	1959.464	2130.956
-37.998	30.134	1957.943	2128.372
-36.984	30.059	1957.046	2126.451
-35.969	30.155	1955.956	2126.290
-34.954	30.125	1954.346	2124.109
-33.940	30.079	1953.434	2122.505
-32.925	30.124	1952.177	2121.566
-31.911	30.230	1950.116	2120.466
-30.896	29.955	1950.298	2117.416
-29.881	30.048	1948.458	2116.406
-28.867	29.913	1947.727	2113.976
-27.852	30.011	1945.540	2112.640
-26.838	29.949	1943.390	2109.511
-25.823	30.000	1942.564	2109.120
-24.809	29.952	1941.387	2107.206
-23.794	30.020	1939.245	2105.571
-22.779	29.912	1938.061	2102.970
-21.765	29.880	1937.011	2101.389
-20.750	29.864	1936.411	2100.473
-19.736	30.019	1934.843	2100.447
-18.721	29.805	1933.999	2097.019
-17.706	29.838	1932.841	2096.047
-16.692	29.957	1931.048	2095.376
-15.677	29.869	1929.964	2093.114
-14.663	29.874	1928.827	2091.859
-13.648	29.936	1926.601	2090.059
-12.633	29.672	1926.090	2086.427
-11.619	29.893	1924.718	2087.372
-10.604	29.790	1922.713	2083.941
-9.590	29.752	1921.828	2082.474
-8.575	29.724	1921.865	2082.116
-7.560	29.659	1920.306	2079.611
-6.546	29.785	1918.261	2078.728
-5.531	29.898	1916.481	2077.995
-4.517	29.766	1916.042	2075.942
-3.502	29.941	1914.538	2076.204
-2.487	29.888	1913.709	2074.625
-1.473	29.916	1910.145	2070.997
-0.458	29.238	1890.207	2041.758
0.556	24.516	2030.926	2124.599
1.571	22.289	2242.135	2315.842
2.586	23.218	2284.558	2371.896
3.600	23.332	2287.062	2375.738
4.615	23.346	2286.929	2375.502
5.629	23.183	2285.073	2371.097
6.644	23.262	2282.584	2369.301
7.659	23.297	2280.794	2367.625
8.673	23.385	2280.389	2368.110
9.688	23.072	2287.800	2371.293
10.702	21.295	2363.806	2425.020
11.717	18.731	2428.674	2454.474
12.731	9.028	2403.994	2290.598
13.746	1.326	2383.565	2160.979
14.761	0.228	2379.082	2140.971
15.775	0.103	2377.907	2137.867
16.790	0.081	2375.935	2135.536
17.804	0.025	2375.359	2133.955
18.819	0.092	2373.074	2132.603
19.834	0.069	2371.374	2130.489
20.848	-0.038	2371.361	2128.697
21.863	0.111	2368.398	2127.910
22.877	0.049	2365.902	2124.533
23.892	0.059	2364.565	2123.214
24.907	0.041	2361.658	2120.091
25.921	0.128	2359.476	2119.115
26.936	0.048	2357.909	2116.321
27.950	0.063	2355.768	2114.367
28.965	0.059	2354.033	2112.493
29.980	-0.057	2353.139	2109.804
30.994	0.147	2349.440	2109.110
32.009	4.458	2364.722	2183.594
33.023	14.972	2395.552	2361.667
34.038	19.301	2401.530	2428.720
35.053	19.272	2398.017	2424.472
36.067	19.149	2396.963	2421.373
37.082	19.233	2393.531	2418.807
38.096	19.418	2391.181	2418.752
39.111	19.380	2389.760	2416.486
40.126	19.728	2387.484	2418.794
41.140	19.723	2387.244	2418.191
42.155	19.652	2385.629	2415.271
43.169	19.838	2382.411	2414.330
44.184	19.575	2379.320	2407.214
45.199	19.660	2377.670	2406.455
46.213	19.549	2377.733	2404.681
47.228	19.641	2376.178	2404.104
48.242	19.776	2373.854	2403.343
49.257	19.772	2372.753	2401.883
50.271	19.780	2370.476	2399.412
51.286	19.666	2367.211	2394.230
52.301	19.475	2364.791	2388.843
53.315	20.338	2368.226	2404.034
54.330	23.476	2376.987	2456.408
55.344	25.426	2378.161	2484.472
56.359	25.613	2375.145	2483.616
57.374	25.649	2374.499	2483.144
58.388	25.725	2371.915	2481.197
59.403	25.453	2367.156	2472.160
60.417	25.155	2362.825	2463.226
61.432	25.059	2362.542	2461.318
62.447	25.399	2360.612	2463.694
63.461	25.483	2359.399	2463.298
64.476	25.528	2357.582	2461.721
65.490	25.258	2356.233	2456.304
66.505	24.566	2351.408	2441.473
67.520	22.347	2342.744	2401.784
68.534	20.070	2333.449	2360.809
69.549	19.453	2328.859	2347.448
70.563	19.283	2324.970	2340.936
71.578	19.266	2323.510	2338.951
72.593	19.343	2321.565	2337.762
73.607	19.465	2321.729	2339.305
74.622	19.432	2319.216	2336.052
75.636	19.207	2315.338	2328.809
76.651	19.166	2313.239	2325.864
77.666	19.144	2312.061	2324.100
78.680	19.094	2309.156	2320.225
79.695	18.980	2307.224	2316.458
80.709	18.910	2305.478	2313.487
81.724	18.961	2302.738	2311.142
82.739	18.773	2300.813	2306.401
83.753	19.044	2297.673	2306.633
84.768	18.922	2296.682	2303.710
85.782	18.910	2295.533	2302.128
86.797	18.815	2293.161	2298.193
87.812	18.858	2291.662	2296.991
88.826	18.896	2289.916	2295.479
89.841	18.941	2287.601	2293.489
90.855	19.000	2284.344	2290.738
91.870	18.841	2283.418	2287.408
92.884	18.927	2281.597	2286.454
93.899	18.975	2279.859	2285.081
94.914	19.585	2283.202	2296.318
95.928	22.279	2291.742	2340.714
96.943	23.472	2289.450	2354.027
97.957	20.912	2278.443	2308.383
98.972	19.122	2272.068	2277.869
99.987	18.870	2269.377	2271.549
101.001	18.943	2266.610	2269.471
102.016	18.946	2264.802	2267.434
103.030	18.923	2262.479	2264.537
104.045	18.970	2259.755	2262.154
105.060	19.011	2257.668	2260.339
106.074	19.000	2256.128	2258.384
107.089	19.068	2254.604	2257.482
108.103	18.956	2253.762	2254.894
109.118	19.163	2251.153	2254.730
110.133	19.228	2249.474	2253.638
111.147	19.100	2247.721	2249.927
112.162	19.071	2247.046	2248.606
113.176	19.280	2244.148	2248.173
114.191	19.226	2243.568	2246.612
115.206	19.281	2241.837	2245.331
116.220	19.085	2239.905	2240.562
117.235	19.314	2237.230	2240.614
118.249	19.371	2235.079	2238.934
119.264	19.278	2234.845	2237.217
120.279	19.159	2233.486	2234.043
121.293	19.291	2230.327	2232.329
122.308	19.355	2228.164	2230.732
123.322	19.218	2227.723	2228.246
124.337	19.669	2229.199	2235.323
125.352	22.466	2237.208	2279.522
126.366	23.295	2235.747	2288.532
127.381	20.564	2224.745	2241.657
128.395	19.187	2220.111	2218.902
129.410	19.169	2216.594	2214.887
130.424	19.156	2214.411	2212.275
131.439	19.193	2212.243	2210.320
132.454	19.222	2211.273	2209.460
133.468	19.272	2209.492	2208.057
134.483	19.366	2208.052	2207.566
135.497	19.542	2206.992	2208.509
136.512	19.301	2204.314	2202.459
137.527	19.237	2202.377	2199.439
138.541	19.076	2200.023	2194.770
139.556	18.962	2199.459	2192.485
140.570	19.036	2198.125	2191.831
141.585	18.950	2196.753	2189.099
142.600	18.959	2195.113	2187.324
143.614	18.862	2193.496	2184.206
144.629	18.835	2191.555	2181.667
145.643	18.933	2189.182	2180.293
146.658	18.893	2188.271	2178.616
147.673	18.913	2185.924	2176.278
148.687	18.847	2183.990	2173.253
149.702	18.850	2182.799	2171.847
150.716	18.877	2182.110	2171.246
151.731	18.890	2181.139	2170.185
152.746	18.906	2180.029	2169.022
153.760	19.594	2182.884	2180.331
154.775	22.462	2191.420	2225.076
155.789	23.650	2189.324	2237.742
156.804	20.970	2177.629	2191.707
157.819	19.066	2170.211	2159.980
158.833	18.818	2166.833	2153.234
159.848	18.820	2165.335	2151.513
160.862	19.010	2163.954	2152.272
161.877	19.234	2162.624	2153.505
162.892	19.276	2162.191	2153.341
163.906	19.291	2160.882	2151.972
164.921	19.203	2158.654	2148.396
165.935	19.156	2156.775	2145.679
166.950	19.181	2155.251	2144.213
167.964	19.320	2152.725	2143.178
168.979	18.968	2151.162	2136.973
169.994	18.887	2148.732	2133.299
171.008	18.900	2146.794	2131.279
172.023	18.869	2146.185	2130.032
173.037	19.036	2145.249	2130.927
174.052	19.256	2143.676	2131.840
175.067	19.162	2141.744	2128.503
176.081	19.118	2140.397	2126.356
177.096	19.242	2139.117	2126.377
178.110	19.137	2138.054	2123.764
179.125	19.164	2136.362	2122.157
180.140	19.162	2134.623	2120.154
181.154	19.293	2133.717	2120.622
182.169	19.345	2133.907	2121.199
183.183	20.131	2135.965	2132.715
184.198	23.321	2143.435	2179.439
185.213	23.947	2140.619	2184.044
186.227	20.946	2130.322	2136.363
187.242	19.501	2125.857	2113.851
188.256	19.259	2123.406	2108.181
189.271	18.960	2122.891	2103.751
190.286	19.063	2119.777	2101.672
191.300	19.127	2117.300	2099.755
192.315	19.099	2115.397	2097.271
193.329	19.285	2115.257	2099.153
194.344	19.642	2114.659	2102.684
195.359	19.658	2112.931	2100.902
196.373	19.456	2109.533	2094.809
197.388	19.172	2107.871	2089.447
198.402	19.214	2105.186	2087.050
199.417	19.164	2102.986	2084.003
200.432	19.015	2101.278	2080.249
201.446	19.089	2100.465	2080.105
202.461	18.942	2098.765	2076.386
203.475	19.060	2096.624	2075.447
204.490	19.002	2094.055	2071.952
205.504	18.881	2093.103	2069.303
206.519	19.010	2090.213	2067.750
207.534	18.904	2088.469	2064.501
208.548	18.911	2087.000	2062.886
209.563	19.014	2086.344	2063.230
210.577	19.093	2084.680	2062.286
211.592	19.005	2083.868	2060.186
212.607	20.467	2089.803	2083.432
213.621	23.741	2096.592	2129.479
214.636	23.415	2091.107	2119.733
215.650	20.242	2080.895	2071.114
216.665	19.192	2076.896	2054.305
217.680	19.120	2075.243	2051.557
218.694	19.129	2072.502	2048.714
219.709	18.937	2071.434	2045.109
220.723	19.019	2070.616	2045.039
221.738	19.186	2069.773	2045.951
222.753	19.277	2067.338	2044.388
223.767	19.343	2065.628	2043.238
224.782	19.226	2064.373	2040.361
225.796	19.114	2063.141	2037.566
226.811	19.262	2060.785	2036.758
227.826	19.202	2059.925	2034.949
228.840	19.135	2057.819	2031.826
229.855	19.189	2056.660	2031.081
230.869	19.070	2055.375	2028.166
231.884	19.224	2054.124	2028.505
232.899	19.190	2052.848	2026.597
233.913	19.197	2051.532	2025.146
234.928	19.176	2049.457	2022.608
235.942	19.182	2047.755	2020.759
236.957	19.118	2047.046	2019.058
237.972	19.329	2045.549	2019.829
238.986	19.049	2044.454	2015.209
240.001	19.120	2042.831	2014.196
241.015	19.253	2041.283	2013.992
242.030	20.004	2043.884	2025.148
243.045	22.769	2050.489	2064.004
244.059	23.492	2047.001	2068.725
245.074	20.679	2037.370	2025.873
246.088	19.570	2032.433	2007.772
247.103	19.562	2031.374	2006.389
248.117	19.553	2030.125	2004.807
249.132	19.241	2028.359	1999.193
250.147	19.240	2026.139	1996.743
251.161	19.170	2025.113	1994.687
252.176	19.531	2023.732	1997.282
253.190	19.673	2022.243	1997.222
254.205	19.832	2020.698	1997.304
255.220	19.851	2019.861	1996.457
256.234	19.813	2017.866	1993.809
257.249	19.533	2016.981	1989.455
258.263	19.108	2015.564	1982.895
259.278	19.154	2013.163	1980.824
260.293	19.200	2011.962	1979.941
261.307	19.043	2009.623	1975.588
262.322	18.929	2007.337	1971.788
263.336	18.861	2005.959	1969.420
264.351	18.831	2004.299	1967.203
265.366	18.782	2002.889	1965.021
266.380	18.927	2001.378	1964.969
267.395	18.816	2000.401	1962.509
268.409	18.885	1998.681	1961.373
269.424	18.891	1997.590	1960.134
270.439	18.895	1996.769	1959.143
271.453	19.970	1999.304	1973.724
272.468	23.123	2005.960	2016.237
273.482	23.496	2002.228	2016.506
274.497	20.321	1991.830	1969.637
275.512	19.056	1986.536	1949.773
276.526	18.860	1984.570	1945.374
277.541	18.872	1982.210	1942.970
278.555	18.807	1980.857	1940.668
279.570	18.832	1978.870	1938.778
280.585	18.871	1978.752	1938.868
281.599	18.855	1977.758	1937.485
282.614	19.188	1976.045	1939.339
283.628	19.426	1976.116	1941.874
284.643	19.503	1974.488	1940.905
285.657	19.813	1973.716	1943.416
286.672	19.975	1972.384	1943.702
287.687	19.705	1971.121	1939.177
288.701	19.725	1968.872	1936.961
289.716	19.749	1967.172	1935.331
290.730	19.703	1966.320	1933.740
291.745	19.744	1964.774	1932.447
292.760	19.784	1963.449	1931.364
293.774	19.446	1963.576	1927.462
294.789	19.603	1961.457	1926.911
295.803	19.449	1958.592	1922.140
296.818	19.232	1957.357	1918.278
297.833	19.247	1955.823	1916.710
298.847	19.222	1955.173	1915.557
299.862	19.178	1954.215	1913.898
300.876	20.069	1955.544	1924.933
301.891	23.110	1962.704	1965.769
302.906	23.822	1960.493	1971.262
303.920	20.571	1951.191	1925.545
304.935	19.520	1945.841	1908.361
305.949	19.323	1943.658	1903.805
306.964	19.274	1941.842	1901.259
307.979	19.415	1940.391	1901.166
308.993	19.573	1939.408	1901.725
310.008	19.838	1937.203	1902.273
311.022	19.900	1936.037	1901.584
312.037	19.904	1935.170	1900.548
313.052	20.013	1934.270	1900.636
314.066	19.969	1932.639	1898.319
315.081	20.051	1930.791	1897.181
316.095	19.824	1929.936	1893.617
317.110	19.510	1927.344	1887.393
318.125	19.425	1926.270	1885.190
319.139	19.398	1925.347	1883.761
320.154	19.446	1922.862	1881.629
321.168	19.223	1920.833	1876.979
322.183	19.198	1919.850	1875.521
323.197	18.888	1918.591	1870.669
324.212	18.874	1916.684	1868.436
325.227	18.807	1914.824	1865.668
326.241	18.797	1912.435	1863.003
327.256	18.893	1911.057	1862.491
328.270	18.871	1909.974	1860.975
329.285	18.823	1909.672	1859.936
330.300	19.930	1914.374	1876.358
331.314	23.207	1921.542	1918.934
332.329	23.464	1916.261	1916.219
333.343	20.219	1906.264	1870.872
334.358	18.894	1902.177	1852.293
335.373	18.783	1900.048	1848.797
336.387	18.703	1898.580	1846.283
337.402	18.727	1897.039	1844.816
338.416	18.846	1895.624	1844.512
339.431	18.983	1894.222	1844.403
340.446	19.120	1892.405	1843.881
341.460	19.180	1891.773	1843.693
342.475	19.502	1890.635	1845.823
343.489	19.532	1889.519	1844.842
344.504	19.556	1888.688	1844.063
345.519	19.570	1887.219	1842.558
346.533	19.696	1885.368	1841.880
347.548	19.877	1885.079	1843.318
348.562	20.223	1884.472	1846.199
349.577	20.685	1884.621	1851.072
350.592	20.514	1883.132	1847.557
351.606	20.223	1880.367	1841.516
352.621	19.840	1878.590	1835.472
353.635	19.455	1876.687	1829.292
354.650	19.437	1874.531	1826.786
355.665	19.287	1872.165	1822.662
356.679	19.183	1871.203	1820.409
357.694	19.236	1869.517	1819.105
358.708	19.224	1869.176	1818.433
359.723	20.405	1873.641	1835.106
360.738	23.752	1879.112	1875.836
361.752	23.302	1875.287	1867.025
362.767	20.448	1865.177	1826.619
363.781	19.598	1861.159	1813.496
364.796	19.349	1859.722	1809.248
365.810	19.162	1857.982	1805.369
366.825	19.204	1856.878	1804.526
367.840	19.312	1856.379	1804.962
368.854	19.335	1855.570	1804.198
369.869	19.433	1853.892	1803.381
370.883	19.490	1852.251	1802.169
371.898	19.624	1851.684	1802.809
372.913	19.420	1849.909	1798.731
373.927	19.799	1849.162	1801.758
374.942	19.670	1848.284	1799.335
375.956	19.656	1846.363	1797.106
376.971	19.551	1844.575	1794.052
377.986	19.361	1842.738	1790.062
379.000	19.207	1841.022	1786.576
380.015	19.347	1839.517	1786.359
381.029	19.125	1838.201	1782.560
382.044	19.044	1835.972	1779.338
383.059	19.087	1833.975	1777.638
384.073	18.892	1833.171	1774.627
385.088	18.992	1832.391	1774.699
386.102	18.900	1830.804	1771.997
387.117	18.873	1828.798	1769.562
388.132	19.069	1827.834	1770.442
389.146	19.882	1833.054	1783.710
390.161	23.195	1838.419	1823.087
391.175	23.176	1831.905	1816.212
392.190	20.096	1821.767	1774.295
393.205	19.175	1818.454	1761.394
394.219	19.100	1816.682	1758.695
395.234	18.906	1815.357	1755.209
396.248	19.049	1813.232	1754.412
397.263	18.991	1811.428	1751.862
398.278	19.126	1809.165	1750.844
399.292	19.058	1809.058	1749.839
400.307	19.204	1808.582	1750.659
401.321	19.276	1807.504	1750.144
402.336	19.346	1806.112	1749.297
403.350	19.308	1805.211	1747.827
404.365	19.429	1804.439	1748.099
405.380	19.858	1803.392	1751.240
406.394	19.789	1802.815	1749.774
407.409	19.553	1800.036	1744.468
408.423	19.715	1798.964	1744.869
409.438	19.637	1797.566	1742.511
410.453	19.490	1796.481	1739.757
411.467	19.802	1795.951	1742.195
412.482	19.532	1793.694	1737.071
413.496	19.179	1791.523	1731.196
414.511	19.253	1790.125	1730.383
415.526	19.329	1787.440	1728.350
416.540	19.204	1786.011	1725.500
417.555	19.098	1786.504	1724.704
418.569	19.321	1786.191	1726.438
419.584	19.564	1785.992	1728.488
420.599	19.444	1785.555	1726.645
421.613	19.332	1784.000	1723.810
422.628	19.308	1782.332	1721.748
423.642	19.271	1779.958	1718.881
424.657	19.263	1778.707	1717.390
425.672	19.461	1777.380	1717.880
426.686	19.390	1776.031	1715.661
427.701	19.348	1775.212	1714.249
428.715	19.381	1774.078	1713.275
429.730	19.740	1772.245	1714.880
430.745	19.526	1771.078	1711.414
431.759	19.551	1770.624	1711.018
432.774	19.973	1771.179	1715.555
433.788	20.406	1771.288	1719.764
434.803	20.556	1770.620	1720.401
435.818	20.616	1769.772	1719.968
436.832	20.615	1768.901	1718.905
437.847	19.880	1762.338	1705.046
438.861	11.672	1739.106	1601.833
439.876	2.286	1721.909	1493.938
440.890	0.315	1717.607	1470.711
441.905	0.148	1716.410	1467.869
442.920	0.175	1714.952	1466.715
443.934	0.128	1713.604	1464.924
444.949	0.177	1712.950	1464.664
445.963	0.050	1711.177	1461.734
446.978	0.003	1711.157	1461.089
447.993	0.144	1709.668	1461.017
449.007	0.274	1706.393	1459.304
450.022	0.185	1704.607	1456.736
451.036	0.194	1703.580	1455.775
452.051	1.161	1708.576	1469.292
453.066	9.666	1729.078	1570.301
454.080	18.891	1743.861	1674.266
455.095	21.516	1749.105	1704.838
456.109	22.943	1751.517	1720.967
457.124	23.344	1751.049	1724.229
458.139	23.430	1750.308	1724.133
459.153	23.589	1748.626	1723.820
460.168	23.521	1747.700	1722.032
461.182	23.375	1745.463	1718.200
462.197	23.488	1743.201	1716.871
463.212	23.072	1741.741	1711.185
464.226	23.281	1740.014	1711.310
465.241	23.538	1739.378	1712.977
466.255	23.744	1739.375	1714.766
467.270	23.777	1738.344	1713.869
468.285	23.514	1735.989	1708.793
469.299	23.439	1734.534	1706.429
470.314	23.535	1733.083	1705.722
471.328	23.547	1731.762	1704.339
472.343	23.584	1730.317	1703.069
473.358	23.638	1729.458	1702.536
474.372	23.765	1727.688	1701.818
475.387	23.433	1726.879	1697.618
476.401	23.350	1724.972	1694.745
477.416	23.283	1723.550	1692.504
478.430	23.491	1723.119	1693.868
479.445	23.325	1721.666	1690.647
480.460	23.157	1719.324	1686.533
481.474	23.378	1718.373	1687.513
482.489	23.596	1719.080	1690.095
483.503	23.972	1717.186	1691.622
484.518	24.024	1716.020	1690.771
485.533	24.149	1714.514	1690.275
486.547	24.106	1712.356	1687.537
487.562	24.430	1712.483	1690.552
488.576	24.441	1710.960	1688.950
489.591	24.440	1708.948	1686.751
490.606	23.992	1708.015	1681.368
491.620	24.077	1707.065	1681.046
492.635	24.455	1705.329	1682.709
493.649	24.629	1704.446	1683.287
494.664	23.985	1701.630	1674.222
495.679	23.374	1698.810	1665.476
496.693	23.460	1698.136	1665.421
497.708	23.830	1698.071	1668.653
498.722	24.367	1697.869	1673.319
499.737	24.389	1696.353	1671.835
500.752	24.104	1694.392	1667.017
501.766	23.825	1692.754	1662.584
502.781	24.016	1691.445	1662.892
503.795	24.048	1689.207	1660.792
504.810	24.088	1688.818	1660.584
505.825	24.296	1689.120	1662.637
506.839	24.107	1687.653	1659.218
507.854	24.081	1686.329	1657.484
508.868	24.010	1684.851	1655.168
509.883	24.082	1682.800	1653.623
510.898	24.443	1681.962	1655.970
511.912	24.254	1680.336	1652.410
512.927	23.859	1678.120	1646.360
513.941	23.913	1676.651	1645.221
514.956	23.819	1675.205	1642.736
515.971	23.835	1673.978	1641.483
516.985	24.062	1673.399	1642.821
518.000	24.012	1673.239	1642.007
519.014	24.398	1672.018	1644.182
520.029	24.556	1670.310	1643.776
521.043	24.266	1669.325	1639.922
522.058	24.104	1667.797	1636.728
523.073	24.278	1667.773	1638.119
524.087	24.798	1667.080	1642.039
525.102	24.811	1665.939	1640.843
526.116	24.302	1662.576	1632.642
527.131	24.117	1661.714	1629.903
528.146	24.686	1661.911	1635.131
529.160	24.923	1661.058	1636.277
530.175	24.849	1660.296	1634.649
531.189	24.909	1659.965	1634.681
532.204	25.029	1658.424	1634.068
533.219	24.701	1655.493	1627.981
534.233	23.988	1654.492	1620.282
535.248	24.410	1654.321	1623.773
536.262	25.109	1654.069	1629.728
537.277	25.102	1652.524	1627.943
538.292	24.791	1650.510	1622.932
539.306	24.789	1648.103	1620.352
540.321	24.701	1647.187	1618.454
541.335	24.435	1646.340	1615.008
542.350	24.608	1645.532	1615.597
543.365	25.154	1643.237	1618.107
544.379	25.153	1642.752	1617.426
545.394	25.342	1641.360	1617.575
546.408	24.747	1638.772	1609.445
547.423	24.181	1635.754	1601.183
548.438	24.031	1635.460	1599.342
549.452	24.346	1635.403	1601.944
550.467	24.552	1634.633	1602.855
551.481	24.799	1633.204	1603.485
552.496	24.986	1633.106	1604.881
553.511	25.385	1632.596	1607.783
554.525	25.356	1631.040	1605.798
555.540	25.415	1630.334	1605.441
556.554	25.554	1628.570	1604.754
557.569	25.390	1626.826	1601.373
558.583	25.021	1625.522	1596.595
559.598	24.917	1624.070	1594.046
560.613	25.034	1623.000	1593.853
561.627	25.089	1621.570	1592.752
562.642	25.186	1620.296	1592.171
563.656	25.596	1619.262	1594.618
564.671	25.366	1619.141	1592.258
565.686	25.381	1617.191	1590.288
566.700	25.168	1614.988	1586.040
567.715	24.938	1613.540	1582.382
568.729	24.646	1610.876	1576.993
569.744	24.626	1609.614	1575.393
570.759	24.657	1608.240	1574.134
571.773	24.855	1607.885	1575.344
572.788	24.976	1608.043	1576.387
573.802	25.047	1606.281	1575.090
574.817	25.292	1605.135	1575.942
575.832	25.455	1604.976	1577.036
576.846	25.603	1602.919	1576.128
577.861	25.383	1601.302	1572.421
578.875	25.506	1601.912	1573.911
579.890	25.644	1601.456	1574.487
580.905	25.748	1600.231	1574.005
581.919	25.873	1599.858	1574.555
582.934	26.081	1598.924	1575.273
583.948	26.093	1597.072	1573.361
584.963	25.925	1595.188	1569.851
585.978	25.523	1593.333	1564.317
586.992	25.705	1593.178	1565.571
588.007	26.050	1592.290	1567.519
589.021	25.252	1589.829	1557.951
590.036	24.410	1587.954	1548.587
591.051	25.088	1587.847	1554.210
592.065	25.712	1586.889	1558.514
593.080	26.011	1585.672	1559.731
594.094	26.147	1583.021	1558.121
595.109	25.394	1580.127	1548.560
596.123	24.835	1578.636	1542.072
597.138	25.229	1578.603	1545.272
598.153	25.578	1578.343	1547.852
599.167	25.539	1576.910	1545.923
600.182	25.726	1575.822	1546.286
601.196	25.867	1575.535	1547.040
602.211	25.794	1573.997	1544.712
603.226	26.103	1573.086	1546.298
604.240	26.305	1571.979	1546.760
605.255	26.454	1571.110	1547.000
606.269	26.277	1570.866	1545.053
607.284	26.270	1568.886	1542.859
608.299	26.209	1567.274	1540.566
609.313	25.882	1565.784	1536.121
610.328	25.829	1564.920	1534.635
611.342	25.994	1563.825	1534.789
612.357	26.152	1563.054	1535.196
613.372	26.282	1561.708	1534.802
614.386	26.073	1559.752	1530.911
615.401	26.260	1559.421	1531.996
616.415	26.182	1559.604	1531.332
617.430	26.161	1558.042	1529.438
618.445	26.314	1556.512	1529.052
619.459	26.089	1554.575	1525.050
620.474	25.605	1553.449	1519.660
621.488	25.104	1551.402	1513.223
622.503	24.906	1549.806	1509.809
623.518	25.539	1550.248	1515.426
624.532	26.003	1549.432	1518.371
625.547	26.065	1549.238	1518.525
626.561	26.438	1548.083	1520.365
627.576	26.621	1547.223	1520.879
628.591	26.034	1545.314	1513.875
629.605	25.766	1542.889	1509.060
630.620	25.578	1541.438	1505.872
631.634	25.283	1540.038	1501.843
632.649	25.397	1539.027	1501.642
633.663	25.823	1539.255	1505.258
634.678	26.187	1538.481	1507.375
635.693	26.531	1537.207	1508.836
636.707	26.513	1536.172	1507.489
637.722	26.713	1535.439	1508.261
638.736	26.844	1534.205	1507.962
639.751	26.824	1532.904	1506.338
640.766	26.721	1531.535	1503.952
641.780	26.602	1530.470	1501.736
642.795	26.579	1529.266	1500.178
643.809	26.763	1528.929	1501.201
644.824	26.798	1527.700	1500.108
645.839	26.586	1527.013	1497.489
646.853	26.870	1525.573	1498.259
647.868	26.685	1523.984	1494.984
648.882	26.595	1522.302	1492.410
649.897	26.434	1520.703	1489.327
650.912	26.448	1519.904	1488.485
651.926	26.621	1518.584	1488.443
652.941	26.341	1516.571	1483.982
653.955	25.839	1513.753	1476.911
654.970	25.126	1511.338	1468.508
655.985	25.211	1509.862	1467.600
656.999	25.188	1509.440	1466.826
658.014	25.567	1509.121	1469.452
659.028	26.008	1509.251	1473.026
660.043	26.601	1508.788	1477.259
661.058	26.796	1507.334	1477.259
662.072	26.777	1506.643	1476.244
663.087	26.562	1505.088	1472.791
664.101	26.359	1504.373	1470.258
665.116	26.517	1503.883	1470.890
666.131	26.713	1503.017	1471.464
667.145	26.718	1501.451	1469.797
668.160	27.006	1500.091	1470.633
669.174	27.360	1498.321	1471.601
670.189	27.249	1497.933	1470.143
671.204	26.882	1497.020	1466.092
672.218	27.036	1495.960	1466.127
673.233	27.036	1495.784	1465.781
674.247	27.452	1494.619	1467.830
675.262	27.348	1494.020	1466.226
676.276	27.281	1492.431	1463.949
677.291	27.160	1491.511	1461.898
678.306	26.775	1489.231	1456.374
679.320	26.706	1487.989	1454.430
680.335	26.851	1488.107	1455.540
681.349	27.186	1487.246	1457.223
682.364	27.198	1485.403	1455.345
683.379	27.135	1484.001	1453.289
684.393	27.053	1482.661	1451.144
685.408	26.973	1481.778	1449.462
686.422	27.107	1480.417	1449.036
687.437	26.900	1479.995	1446.790
688.452	27.151	1479.280	1447.926
689.466	27.196	1477.118	1445.999
690.481	26.972	1475.489	1442.436
691.495	26.715	1474.322	1439.075
692.510	26.227	1472.293	1433.032
693.525	25.641	1470.658	1426.597
694.539	26.115	1470.781	1430.325
695.554	26.616	1471.914	1435.249
696.568	27.013	1470.775	1437.126
697.583	27.026	1469.745	1436.047
698.598	27.169	1468.637	1435.930
699.612	27.274	1468.095	1436.062
700.627	27.438	1467.078	1436.198
701.641	27.322	1465.579	1433.635
702.656	27.490	1464.458	1433.701
703.671	27.530	1464.880	1434.257
704.685	27.534	1464.217	1433.469
705.700	27.486	1462.238	1430.979
706.714	27.177	1459.409	1425.606
707.729	26.960	1458.629	1422.959
708.744	27.130	1456.368	1421.921
709.758	27.046	1454.682	1419.445
710.773	26.447	1453.159	1413.087
711.787	26.171	1451.746	1409.379
712.802	26.653	1450.450	1411.731
713.816	26.942	1450.628	1413.997
714.831	27.075	1450.776	1415.011
715.846	27.389	1449.527	1416.081
716.860	27.457	1448.052	1415.001
717.875	27.308	1446.492	1412.150
718.889	27.248	1445.825	1410.860
719.904	27.364	1444.519	1410.321
720.919	27.420	1443.887	1409.973
721.933	27.528	1444.002	1410.750
722.948	27.604	1442.800	1410.003
723.962	27.562	1440.721	1407.475
724.977	27.751	1439.913	1407.981
725.992	27.706	1439.050	1406.618
727.006	27.698	1437.752	1405.121
728.021	27.696	1437.163	1404.363
729.035	27.794	1436.004	1403.820
730.050	27.823	1434.421	1402.326
731.065	27.725	1433.243	1400.256
732.079	27.792	1432.761	1400.129
733.094	27.770	1431.287	1398.353
734.108	27.597	1429.164	1394.782
735.123	27.779	1427.448	1394.341
736.138	27.460	1426.945	1391.232
737.152	27.697	1426.106	1392.066
738.167	27.898	1425.090	1392.446
739.181	27.928	1424.437	1391.874
740.196	27.757	1424.374	1390.338
741.211	27.884	1422.930	1389.732
742.225	27.684	1422.030	1387.152
743.240	27.562	1420.701	1384.757
744.254	27.609	1418.882	1383.179
745.269	27.554	1417.639	1381.384
746.284	27.544	1415.908	1379.460
747.298	27.324	1415.368	1377.093
748.313	26.972	1413.950	1372.875
749.327	26.591	1412.485	1368.390
750.342	26.302	1410.525	1364.133
751.356	25.917	1409.355	1359.922
752.371	26.100	1408.994	1360.798
753.386	26.925	1408.922	1366.818
754.400	27.582	1408.772	1371.481
755.415	27.742	1408.636	1372.392
756.429	27.916	1406.772	1371.723
757.444	27.798	1405.826	1369.745
758.459	27.899	1405.035	1369.570
759.473	28.036	1403.948	1369.381
760.488	28.017	1402.456	1367.618
761.502	27.818	1401.571	1365.097
762.517	27.772	1400.500	1363.548
763.532	27.774	1398.155	1361.112
764.546	27.432	1397.022	1357.288
765.561	26.662	1395.472	1349.854
766.575	25.930	1393.141	1341.959
767.590	26.025	1391.711	1341.134
768.605	26.767	1391.816	1346.618
769.619	27.272	1391.502	1349.917
770.634	27.546	1390.816	1351.136
771.648	27.765	1389.859	1351.671
772.663	27.841	1389.745	1351.971
773.678	28.108	1388.592	1352.673
774.692	27.860	1388.840	1350.904
775.707	28.050	1388.307	1351.635
776.721	28.114	1387.082	1350.758
777.736	27.997	1385.939	1348.612
778.751	28.170	1384.594	1348.430
779.765	28.123	1383.487	1346.842
780.780	28.035	1382.525	1345.091
781.794	28.012	1381.173	1343.447
782.809	27.728	1380.393	1340.426
783.824	27.457	1379.089	1337.001
784.838	27.121	1376.865	1332.212
785.853	26.551	1375.274	1326.316
786.867	26.774	1375.166	1327.695
787.882	27.091	1374.720	1329.438
788.897	27.216	1374.495	1329.978
789.911	27.255	1373.269	1328.918
790.926	27.469	1371.360	1328.479
791.940	27.742	1370.532	1329.520
792.955	27.765	1369.729	1328.748
793.969	27.786	1369.001	1328.040
794.984	27.863	1368.208	1327.675
795.999	28.041	1366.945	1327.589
797.013	28.152	1365.326	1326.666
798.028	28.210	1364.023	1325.667
799.042	28.163	1363.407	1324.565
800.057	28.359	1361.843	1324.313
801.072	28.426	1360.823	1323.647
802.086	28.196	1360.296	1321.304
803.101	28.072	1359.976	1319.940
804.115	28.120	1358.410	1318.608
805.130	28.101	1357.430	1317.359
806.145	28.063	1355.643	1315.193
807.159	27.869	1354.094	1312.133
808.174	27.809	1353.094	1310.573
809.188	27.807	1352.011	1309.357
810.203	27.636	1349.630	1305.658
811.218	27.304	1347.710	1301.260
812.232	26.710	1345.612	1294.812
813.247	26.246	1345.051	1290.788
814.261	27.070	1345.796	1297.263
815.276	27.734	1345.016	1301.119
816.291	27.822	1343.868	1300.485
817.305	27.905	1342.976	1300.057
818.320	28.169	1341.980	1300.826
819.334	28.345	1340.639	1300.630
820.349	28.191	1339.504	1298.275
821.364	28.216	1338.190	1297.025
822.378	28.290	1336.905	1296.145
823.393	28.117	1335.703	1293.594
824.407	28.430	1334.639	1294.637
825.422	28.032	1334.674	1291.684
826.437	27.914	1333.424	1289.483
827.451	27.779	1330.579	1285.628
828.466	27.200	1327.767	1278.662
829.480	26.967	1326.374	1275.522
830.495	27.240	1325.235	1276.199
831.509	27.453	1325.016	1277.341
832.524	27.670	1324.931	1278.633
833.539	28.070	1323.881	1280.280
834.553	28.167	1322.924	1279.886
835.568	28.162	1322.101	1278.900
836.582	28.325	1319.908	1277.771
837.597	28.303	1318.687	1276.284
838.612	27.998	1317.495	1272.839
839.626	27.838	1316.024	1270.147
840.641	27.500	1314.981	1266.630
841.655	27.272	1313.384	1263.343
842.670	26.765	1311.013	1257.382
843.685	26.082	1309.582	1251.102
844.699	26.944	1309.865	1257.226
845.714	27.532	1308.589	1259.938
846.728	27.711	1308.296	1260.748
847.743	27.800	1307.930	1260.860
848.758	27.895	1307.604	1261.060
849.772	28.170	1306.844	1262.077
850.787	28.035	1305.124	1259.334
851.801	28.160	1303.826	1258.793
852.816	28.132	1302.362	1257.036
853.831	28.057	1300.928	1254.982
854.845	27.972	1299.702	1253.069
855.860	27.837	1297.216	1249.590
856.874	27.671	1295.683	1246.827
857.889	27.533	1294.670	1244.754
858.904	27.102	1292.439	1239.505
859.918	26.688	1291.145	1235.278
860.933	26.660	1289.577	1233.435
861.947	26.861	1290.037	1235.109
862.962	27.260	1288.490	1236.205
863.977	27.346	1287.716	1235.898
864.991	27.617	1287.439	1237.333
866.006	27.614	1287.509	1237.232
867.020	27.885	1285.820	1237.307
868.035	28.091	1285.207	1237.974
869.049	28.111	1284.385	1237.172
870.064	28.330	1283.408	1237.564
871.079	28.099	1282.221	1234.709
872.093	27.993	1281.172	1232.827
873.108	27.885	1279.774	1230.604
874.122	27.582	1278.003	1226.708
875.137	27.178	1276.625	1222.507
876.152	27.011	1275.622	1220.275
877.166	27.176	1274.395	1220.064
878.181	27.362	1273.116	1219.949
879.195	27.757	1272.731	1222.096
880.210	28.002	1272.070	1222.959
881.225	28.017	1271.597	1222.457
882.239	28.088	1271.036	1222.254
883.254	28.188	1270.138	1221.913
884.268	28.157	1269.334	1220.785
885.283	28.109	1268.163	1219.190
886.298	28.071	1266.106	1216.817
887.312	28.158	1264.986	1216.176
888.327	28.185	1264.680	1215.916
889.341	28.072	1263.500	1213.882
890.356	27.966	1262.706	1212.266
891.371	28.033	1261.859	1211.753
892.385	27.842	1260.911	1209.426
893.400	27.629	1259.712	1206.717
894.414	27.635	1258.437	1205.390
895.429	27.355	1256.106	1201.153
896.444	26.725	1253.283	1194.139
897.458	26.178	1252.054	1189.207
898.473	26.690	1252.045	1192.440
899.487	27.241	1251.536	1195.457
900.502	27.658	1250.915	1197.475
901.517	27.769	1250.371	1197.539
902.531	27.889	1249.899	1197.734
903.546	28.016	1249.644	1198.183
904.560	28.097	1247.978	1196.979
905.575	28.139	1247.177	1196.340
906.589	28.007	1246.450	1194.637
907.604	27.827	1244.958	1191.879
