DTS Sentinel unit serial number:	SN409020Multiplexer serial number:	ORYXHardware model number:	OX4-SRSoftware version number:	ORYX F/W v3.00 Oryx Data Collector v3.7.2.0data status	okinstallation	HaddamTimeLapsedifferential loss correction	single-endedforward channel	channel 3reverse channel	N/Adate	2011/06/22time	09:26:17forward acquisition time	30.00reverse acquisition time	0.00gamma	498.7831k internal	0.1793k external	0.1793temperature offset calibration	1.0074default loss term (dB/km)	0.3790temperature slope calibration	1.3530multiplexer offset coefficient	1.0000multiplexer slope coefficient	1.0000fibre end	0.00T internal ref (°C)	27.84T ext. ref 1 (°C)	23.00T ext. ref 2 (°C)	0.17length (m)	temperature (°C)	Stokes	anti-Stokes-747.200	217.497	0.076	-0.158
-746.185	146.593	0.079	0.137
-745.171	-151.748	0.214	-0.020
-744.156	67.651	0.317	0.421
-743.142	90.034	-0.165	-0.240
-742.127	-113.968	0.158	-0.039
-741.112	186.751	-0.158	-0.306
-740.098	800.000	-0.158	0.682
-739.083	-151.545	-0.160	-0.015
-738.069	-39.340	0.356	0.242
-737.054	-101.204	-0.345	-0.109
-736.039	-138.599	-0.321	-0.045
-735.025	-20.986	0.398	-0.315
-734.010	-200.000	0.015	0.400
-732.996	17.595	-0.219	-0.226
-731.981	197.454	-0.202	0.402
-730.966	-31.518	-0.194	-0.141
-729.952	-150.800	0.237	0.023
-728.937	242.744	0.089	0.195
-727.923	21.977	0.054	-0.057
-726.908	-59.647	0.423	-0.234
-725.894	-166.160	0.074	-0.004
-724.879	-200.000	-0.051	-0.297
-723.864	237.835	0.048	0.104
-722.850	-128.684	0.137	0.025
-721.835	-75.896	0.285	0.130
-720.821	-163.606	0.468	-0.028
-719.806	-6.356	0.322	0.285
-718.791	-123.222	-0.361	-0.074
-717.777	-127.640	-0.241	0.045
-716.762	-52.383	0.464	-0.278
-715.748	436.969	-0.044	0.124
-714.733	-200.000	-0.172	0.000
-713.718	-104.728	-0.249	0.074
-712.704	-102.338	0.219	0.068
-711.689	89.031	0.078	0.112
-710.675	-127.077	0.305	-0.057
-709.660	84.310	-0.124	0.176
-708.645	-12.363	-0.222	0.188
-707.631	-200.000	0.023	-0.240
-706.616	-163.829	-0.212	0.013
-705.602	290.408	0.109	-0.257
-704.587	-200.000	0.046	0.263
-703.572	102.877	-0.241	-0.366
-702.558	92.770	-0.362	-0.531
-701.543	-23.994	0.191	0.148
-700.529	800.000	-0.045	0.224
-699.514	133.001	-0.176	-0.296
-698.499	800.000	0.118	-0.461
-697.485	-95.648	0.430	0.148
-696.470	336.863	-0.063	-0.159
-695.456	800.000	-0.160	-0.737
-694.441	25.649	-0.353	-0.381
-693.426	55.380	-0.164	-0.205
-692.412	52.233	-0.232	-0.286
-691.397	-46.537	-0.406	-0.257
-690.383	-148.643	-0.799	-0.083
-689.368	44.446	-0.144	0.171
-688.354	-200.000	0.021	0.288
-687.339	188.204	0.114	0.222
-686.324	2.530	-0.174	0.163
-685.310	-150.000	0.150	0.015
-684.295	439.684	0.047	-0.133
-683.281	-27.826	0.136	0.102
-682.266	-120.974	-0.335	0.072
-681.251	-10.481	0.170	-0.145
-680.237	-100.541	0.221	0.070
-679.222	800.000	0.063	0.317
-678.208	482.680	0.083	0.246
-677.193	-25.909	-0.160	-0.122
-676.178	-79.399	-0.129	-0.056
-675.164	-103.743	0.179	-0.054
-674.149	-1.633	-0.396	0.360
-673.135	19.094	-0.421	0.437
-672.120	800.000	-0.045	0.233
-671.105	-30.008	0.561	-0.412
-670.091	800.000	0.061	-0.330
-669.076	2.679	0.060	0.056
-668.062	-79.454	-0.785	0.342
-667.047	-72.877	-0.390	0.185
-666.032	424.022	0.165	-0.461
-665.018	-54.653	0.467	0.272
-664.003	63.121	0.047	-0.060
-662.989	-200.000	-0.496	0.002
-661.974	-71.246	-0.244	-0.118
-660.959	-161.538	-0.411	-0.027
-659.945	277.318	-0.177	0.409
-658.930	800.000	0.072	-0.325
-657.916	-70.142	-0.402	0.197
-656.901	775.529	-0.045	0.160
-655.886	165.670	-0.162	-0.296
-654.872	-146.396	-0.555	-0.062
-653.857	-63.124	0.145	0.077
-652.843	-23.198	0.374	0.291
-651.828	-200.000	-0.059	-0.346
-650.814	-125.998	-0.674	-0.130
-649.799	-65.949	-0.126	0.065
-648.784	-200.000	0.011	-0.073
-647.770	-200.000	-0.092	0.595
-646.755	-73.121	0.252	0.119
-645.741	-160.536	0.495	0.034
-644.726	-31.981	0.202	-0.146
-643.711	-200.000	0.031	-0.253
-642.697	50.221	0.184	-0.225
-641.682	-33.168	-0.205	-0.147
-640.668	17.161	-0.449	-0.460
-639.653	-168.945	-0.259	0.012
-638.638	-133.140	-0.082	-0.013
-637.624	614.273	-0.188	-0.611
-636.609	-122.833	-0.145	-0.030
-635.595	800.000	0.056	0.248
-634.580	-21.349	0.197	-0.155
-633.565	-9.975	0.197	-0.169
-632.551	500.182	0.072	-0.216
-631.536	800.000	-0.048	0.216
-630.522	-102.934	0.122	0.037
-629.507	-163.766	0.416	0.025
-628.492	-124.221	-0.491	-0.098
-627.478	-124.467	-0.065	-0.013
-626.463	-163.177	0.260	-0.016
-625.449	-129.385	-0.257	-0.046
-624.434	-200.000	-0.002	0.153
-623.419	128.120	0.233	-0.383
-622.405	-103.247	0.125	-0.038
-621.390	-29.817	-0.431	-0.316
-620.376	-157.268	0.204	-0.016
-619.361	141.607	0.253	0.433
-618.346	654.481	-0.023	-0.076
-617.332	-200.000	-0.026	0.221
-616.317	-150.271	-0.131	0.013
-615.303	11.374	0.147	0.146
-614.288	129.480	-0.410	0.678
-613.273	-66.595	-0.421	-0.214
-612.259	-74.777	-0.138	-0.064
-611.244	106.110	0.054	0.083
-610.230	-60.532	0.309	0.169
-609.215	800.000	-0.098	0.406
-608.201	-200.000	-0.035	0.275
-607.186	-127.964	-0.390	0.072
-606.171	-118.787	-0.150	0.034
-605.157	800.000	-0.056	-0.223
-604.142	-53.911	0.399	0.234
-603.128	108.965	0.166	0.256
-602.113	166.891	-0.057	0.105
-601.098	-200.000	0.016	-0.228
-600.084	165.925	-0.116	-0.212
-599.069	-200.000	0.018	-0.306
-598.055	52.378	0.147	0.181
-597.040	396.276	-0.057	-0.155
-596.025	-54.316	0.126	0.074
-595.011	-91.149	-0.207	-0.076
-593.996	800.000	-0.051	-0.212
-592.982	-188.209	-0.480	0.008
-591.967	-56.719	0.570	-0.324
-590.952	-70.665	-0.239	0.116
-589.938	800.000	-0.095	0.379
-588.923	-200.000	0.030	0.353
-587.909	-156.344	-0.445	-0.035
-586.894	2.671	-0.233	0.218
-585.879	357.632	0.166	0.428
-584.865	183.578	0.148	-0.283
-583.850	414.457	0.073	-0.201
-582.836	128.041	0.292	0.480
-581.821	-102.623	-0.287	0.088
-580.806	-152.408	-0.275	0.025
-579.792	289.985	0.069	0.162
-578.777	77.072	-0.147	0.201
-577.763	259.979	-0.246	0.551
-576.748	800.000	0.071	0.365
-575.733	-200.000	0.077	0.747
-574.719	-200.000	-0.007	0.226
-573.704	-200.000	0.047	0.500
-572.690	385.962	0.145	0.387
-571.675	-12.497	0.198	0.166
-570.661	-69.327	-0.417	0.206
-569.646	-200.000	-0.021	0.310
-568.631	-55.915	0.290	0.166
-567.617	-144.361	0.093	0.011
-566.602	-100.196	-0.441	-0.141
-565.588	-200.000	-0.011	-0.303
-564.573	173.429	-0.298	-0.555
-563.558	-31.612	-0.064	0.046
-562.544	639.158	0.061	0.202
-561.529	102.417	-0.351	-0.530
-560.515	-57.485	0.359	-0.202
-559.500	288.086	0.156	-0.365
-558.485	-13.691	-0.272	-0.227
-557.471	7.691	-0.332	0.320
-556.456	-24.588	-0.244	0.186
-555.442	-167.894	-0.194	0.010
-554.427	800.000	0.045	-0.238
-553.412	-93.788	0.246	-0.087
-552.398	-74.472	0.117	0.054
-551.383	800.000	-0.048	-0.243
-550.369	781.800	0.069	0.246
-549.354	-15.754	0.148	-0.121
-548.339	-53.774	-0.372	-0.218
-547.325	-200.000	0.082	-0.512
-546.310	-129.988	0.577	0.101
-545.296	-200.000	-0.027	0.330
-544.281	-63.036	0.384	0.203
-543.266	-167.067	0.442	0.023
-542.252	-171.697	0.644	0.027
-541.237	-93.072	-0.347	-0.124
-540.223	800.000	0.032	-0.142
-539.208	361.582	0.054	0.140
-538.193	-10.341	0.233	0.198
-537.179	-200.000	0.004	-0.430
-536.164	-122.431	-0.163	0.034
-535.150	89.990	0.112	-0.161
-534.135	-200.000	-0.053	-0.392
-533.121	-196.806	-0.247	-0.002
-532.106	4.186	-0.198	0.186
-531.091	-20.790	-0.315	0.248
-530.077	663.955	0.156	-0.521
-529.062	441.042	0.106	0.300
-528.048	-45.805	-0.573	0.363
-527.033	-79.405	-0.332	-0.144
-526.018	798.128	-0.038	-0.137
-525.004	-41.444	-0.347	-0.229
-523.989	78.776	-0.116	0.160
-522.975	-200.000	-0.010	0.196
-521.960	533.051	0.091	-0.280
-520.945	-95.802	0.232	-0.079
-519.931	-200.000	-0.034	0.415
-518.916	44.854	0.140	-0.166
-517.902	-136.765	-0.426	0.062
-516.887	-87.132	-0.353	-0.137
-515.872	7.262	-0.286	0.274
-514.858	-0.135	0.192	-0.176
-513.843	92.260	0.154	-0.223
-512.829	-121.233	0.365	0.078
-511.814	308.933	-0.010	0.025
-510.799	102.120	0.149	0.223
-509.785	-109.091	-0.270	0.073
-508.770	267.422	-0.236	0.533
-507.756	-41.261	0.082	0.054
-506.741	-123.407	-0.242	0.049
-505.726	655.081	0.022	-0.072
-504.712	-113.458	0.470	0.118
-503.697	-200.000	0.011	-0.589
-502.683	-134.356	0.376	-0.059
-501.668	288.637	-0.144	-0.337
-500.653	-200.000	-0.026	0.338
-499.639	-200.000	0.059	-0.376
-498.624	69.858	0.267	0.354
-497.610	75.445	-0.388	-0.527
-496.595	-170.376	-0.329	0.015
-495.581	-97.936	-0.140	-0.046
-494.566	-57.200	-0.294	-0.166
-493.551	87.478	0.199	0.284
-492.537	722.822	0.026	0.090
-491.522	-68.042	0.470	-0.235
-490.508	4.761	-0.475	-0.448
-489.493	257.013	0.037	0.081
-488.478	41.803	-0.135	0.158
-487.464	-31.555	0.083	-0.060
-486.449	-97.297	0.732	0.244
-485.435	51.157	0.206	-0.251
-484.420	-200.000	0.010	-0.450
-483.405	-35.489	0.380	-0.264
-482.391	-11.779	-0.141	-0.119
-481.376	800.000	0.060	0.334
-480.362	-113.984	-0.283	0.070
-479.347	222.221	-0.157	-0.325
-478.332	154.992	0.195	-0.345
-477.318	277.634	0.165	-0.378
-476.303	-124.700	-0.016	-0.003
-475.289	-100.255	0.379	-0.120
-474.274	-1.551	-0.226	0.204
-473.259	-68.888	-0.287	0.142
-472.245	197.706	-0.113	0.222
-471.230	-200.000	0.300	-0.002
-470.216	-200.000	-0.007	-0.398
-469.201	-161.280	-0.270	0.018
-468.186	116.928	-0.184	0.291
-467.172	-81.594	-0.157	0.066
-466.157	-107.155	-0.355	-0.100
-465.143	178.829	-0.156	-0.293
-464.128	54.324	-0.094	0.116
-463.113	313.611	0.168	0.406
-462.099	-113.114	0.209	-0.053
-461.084	35.392	-0.296	0.334
-460.070	661.879	-0.045	-0.150
-459.055	-40.284	0.406	0.270
-458.040	88.841	-0.173	0.247
-457.026	-41.608	-0.208	0.137
-456.011	-200.000	-0.038	-0.528
-454.997	-200.000	-0.066	0.416
-453.982	387.810	0.058	0.155
-452.968	-143.378	-0.181	-0.022
-451.953	-3.865	-0.157	-0.140
-450.938	-36.157	-0.487	-0.337
-449.924	9.463	-0.219	0.213
-448.909	328.469	0.024	-0.060
-447.895	-200.000	-0.004	-0.127
-446.880	35.042	0.172	-0.194
-445.865	138.445	-0.268	-0.452
-444.851	-71.506	-0.175	0.084
-443.836	243.404	-0.052	0.113
-442.822	313.940	-0.144	-0.350
-441.807	275.530	0.191	0.436
-440.792	-142.119	-0.273	0.034
-439.778	800.000	0.108	-0.406
-438.763	-57.094	0.088	0.049
-437.749	-164.125	0.261	-0.015
-436.734	-34.469	0.135	0.094
-435.719	800.000	0.019	0.079
-434.705	-114.093	0.599	0.147
-433.690	-59.276	0.345	0.190
-432.676	30.265	-0.198	0.217
-431.661	3.503	0.234	0.219
-430.646	61.015	-0.340	-0.433
-429.632	-114.319	0.181	-0.044
-428.617	-150.168	-0.355	-0.035
-427.603	-138.686	-0.057	0.008
-426.588	-1.665	-0.319	0.288
-425.573	80.515	-0.163	-0.225
-424.559	55.964	-0.282	0.351
-423.544	-105.553	0.284	-0.082
-422.530	145.575	0.103	-0.178
-421.515	-200.000	0.010	-0.328
-420.500	6.366	-0.471	-0.448
-419.486	461.411	0.068	-0.195
-418.471	124.356	0.185	-0.299
-417.457	-91.296	0.354	0.129
-416.442	-200.000	-0.046	0.321
-415.428	-200.000	-0.068	0.516
-414.413	91.152	-0.020	0.029
-413.398	-10.921	0.393	0.332
-412.384	34.986	0.456	-0.512
-411.369	-15.025	-0.219	-0.179
-410.355	147.184	0.024	-0.041
-409.340	-200.000	-0.027	0.182
-408.325	800.000	-0.037	-0.186
-407.311	61.675	-0.139	0.177
-406.296	-104.062	-0.602	0.178
-405.282	-62.284	0.128	0.068
-404.267	-200.000	-0.043	-0.435
-403.252	-121.136	-0.227	-0.048
-402.238	495.969	0.047	-0.138
-401.223	-200.000	-0.007	-0.055
-400.209	104.942	-0.323	0.488
-399.194	162.036	-0.144	-0.259
-398.179	-101.443	0.122	-0.038
-397.165	11.514	0.264	-0.259
-396.150	-57.112	0.150	-0.084
-395.136	800.000	0.029	-0.131
-394.121	136.318	-0.210	-0.351
-393.106	323.215	0.308	-0.756
-392.092	-113.772	0.443	0.109
-391.077	216.356	0.170	-0.348
-390.063	-167.507	-0.295	-0.015
-389.048	-4.223	-0.103	0.091
-388.033	-80.295	0.224	-0.095
-387.019	132.388	0.225	-0.372
-386.004	286.918	0.096	-0.223
-384.990	63.208	-0.178	0.229
-383.975	-52.913	0.201	-0.118
-382.960	443.002	0.127	-0.357
-381.946	-45.617	-0.109	0.069
-380.931	-200.000	0.068	0.470
-379.917	-129.702	-0.177	0.031
-378.902	102.566	-0.086	0.129
-377.888	-80.963	0.630	-0.266
-376.873	-145.757	0.371	-0.042
-375.858	-42.657	0.430	-0.279
-374.844	-103.482	0.235	0.070
-373.829	-30.507	0.208	-0.151
-372.815	150.440	0.004	0.006
-371.800	-138.654	-0.167	-0.023
-370.785	-189.172	-0.671	0.010
-369.771	-82.398	-0.448	0.185
-368.756	79.039	-0.252	0.345
-367.742	-53.619	0.163	-0.095
-366.727	-170.745	-0.139	0.006
-365.712	-113.977	-0.367	0.090
-364.698	-17.258	-0.122	-0.098
-363.683	-48.729	-0.473	-0.289
-362.669	-200.000	0.031	0.000
-361.654	395.703	0.174	0.467
-360.639	-200.000	0.059	0.491
-359.625	-90.602	0.376	-0.138
-358.610	-190.389	-0.298	0.004
-357.596	75.333	-0.107	0.144
-356.581	-103.159	-0.303	0.091
-355.566	270.553	-0.086	-0.193
-354.552	77.187	-0.166	0.226
-353.537	-200.000	-0.037	-0.497
-352.523	-35.512	-0.063	0.044
-351.508	5.877	0.369	0.348
-350.493	76.028	0.210	-0.284
-349.479	800.000	0.069	-0.303
-348.464	-117.242	-0.389	-0.090
-347.450	-74.050	-0.343	0.158
-346.435	-200.000	0.014	0.259
-345.420	35.752	0.243	-0.272
-344.406	-133.598	0.222	-0.035
-343.391	-7.131	0.288	-0.249
-342.377	57.943	0.150	0.188
-341.362	10.221	-0.094	0.091
-340.348	-168.618	0.116	0.006
-339.333	-150.399	0.638	0.062
-338.318	-106.382	-0.398	-0.113
-337.304	-165.719	0.451	0.025
-336.289	22.713	0.288	0.301
-335.275	-155.792	-0.397	0.032
-334.260	-63.557	0.312	-0.163
-333.245	-200.000	-0.013	0.217
-332.231	-47.279	0.407	0.252
-331.216	118.364	-0.229	0.361
-330.202	-101.530	-0.212	0.065
-329.187	-200.000	0.008	-0.437
-328.172	11.881	0.209	-0.204
-327.158	-105.845	0.499	-0.143
-326.143	-200.000	0.012	0.294
-325.129	-135.198	0.163	0.025
-324.114	-200.000	0.040	-0.646
-323.099	127.282	0.397	-0.643
-322.085	-28.559	0.483	-0.354
-321.070	41.790	-0.201	0.232
-320.056	-110.987	-0.130	0.034
-319.041	46.713	-0.170	0.201
-318.026	-97.007	-0.428	0.142
-317.012	175.177	0.129	0.239
-315.997	-200.000	-0.011	-0.438
-314.983	-200.000	-0.041	0.326
-313.968	-200.000	-0.019	-0.188
-312.953	-200.000	0.004	0.413
-311.939	-165.898	-0.509	-0.027
-310.924	285.032	-0.135	-0.312
-309.910	201.197	0.084	-0.166
-308.895	-64.963	-0.665	-0.342
-307.880	620.346	-0.099	-0.320
-306.866	-135.225	0.164	0.025
-305.851	-165.383	-0.136	-0.007
-304.837	-160.545	-0.236	-0.016
-303.822	-32.961	0.288	-0.204
-302.807	-200.000	-0.005	0.183
-301.793	-39.189	0.233	0.156
-300.778	-105.396	-0.314	0.091
-299.764	302.730	-0.087	0.207
-298.749	-23.432	0.174	-0.133
-297.735	-124.598	0.310	0.061
-296.720	-112.244	0.168	-0.043
-295.705	515.437	0.052	-0.157
-294.691	1.858	0.259	0.238
-293.676	-200.000	0.032	0.327
-292.662	10.723	0.325	0.316
-291.647	-121.539	0.209	-0.044
-290.632	-200.000	0.034	0.336
-289.618	-142.724	0.116	-0.014
-288.603	706.363	-0.090	-0.306
-287.589	-107.170	0.565	-0.158
-286.574	14.949	0.142	0.141
-285.559	-48.165	0.504	-0.309
-284.545	301.855	-0.131	-0.310
-283.530	-146.519	-0.206	-0.023
-282.516	-4.651	0.224	0.197
-281.501	76.943	0.120	-0.162
-280.486	-50.791	-0.662	0.396
-279.472	465.027	-0.028	-0.079
-278.457	34.514	-0.436	-0.485
-277.443	19.929	-0.207	-0.212
-276.428	-115.181	0.312	0.075
-275.413	-79.733	-0.124	-0.053
-274.399	-38.676	-0.036	-0.024
-273.384	631.047	-0.085	0.275
-272.370	-200.000	-0.410	0.002
-271.355	192.967	0.178	0.343
-270.340	45.067	0.328	0.386
-269.326	-200.000	0.005	-0.154
-268.311	-24.699	0.186	0.140
-267.297	326.601	0.019	0.047
-266.282	148.441	0.052	-0.089
-265.267	-139.391	-0.136	-0.018
-264.253	800.000	-0.025	-0.133
-263.238	-123.084	0.358	-0.073
-262.224	270.932	-0.080	-0.180
-261.209	-132.046	0.062	0.010
-260.195	80.362	0.119	0.163
-259.180	800.000	0.093	0.483
-258.165	-17.794	0.254	0.202
-257.151	-43.660	-0.365	-0.233
-256.136	325.632	-0.099	0.241
-255.122	-114.873	0.040	-0.010
-254.107	-87.501	0.127	-0.049
-253.092	323.832	0.229	0.557
-252.078	-52.623	-0.137	0.081
-251.063	529.455	-0.020	0.060
-250.049	800.000	0.044	-0.224
-249.034	-67.829	0.454	-0.225
-248.019	497.774	0.097	-0.286
-247.005	-200.000	0.016	-0.711
-245.990	57.186	-0.208	-0.258
-244.976	-169.535	-0.481	-0.022
-243.961	289.110	-0.127	0.294
-242.946	637.954	0.121	0.392
-241.932	-2.519	0.357	0.318
-240.917	-200.000	-0.005	-0.209
-239.903	-123.914	0.317	-0.063
-238.888	-109.160	-0.099	0.026
-237.873	124.787	-0.194	-0.311
-236.859	224.219	-0.150	0.309
-235.844	-138.769	0.331	0.045
-234.830	94.504	0.104	-0.151
-233.815	71.651	0.200	0.265
-232.800	531.673	0.105	0.316
-231.786	-72.398	0.049	0.023
-230.771	15.462	0.149	0.148
-229.757	-54.499	0.175	-0.100
-228.742	129.762	-0.005	-0.009
-227.727	-114.837	0.172	0.041
-226.713	-200.000	0.026	-0.194
-225.698	443.920	0.052	-0.145
-224.684	-142.181	-0.118	-0.015
-223.669	-126.327	-0.324	-0.061
-222.655	-5.685	0.323	0.281
-221.640	-115.845	0.183	-0.043
-220.625	-89.468	0.231	0.086
-219.611	-98.067	-0.441	0.143
-218.596	502.607	0.187	0.552
-217.582	-103.762	-0.218	0.064
-216.567	-118.044	-0.165	0.037
-215.552	-65.269	0.528	0.269
-214.538	-146.688	0.055	-0.006
-213.523	800.000	-0.025	-0.129
-212.509	-200.000	-0.039	-0.482
-211.494	-166.888	0.458	0.024
-210.479	-160.449	-0.401	-0.027
-209.465	66.735	-0.105	0.137
-208.450	236.896	0.117	-0.248
-207.436	345.025	-0.133	-0.332
-206.421	36.777	0.128	0.143
-205.406	18.528	0.178	0.181
-204.392	800.000	0.071	-0.351
-203.377	-85.924	-0.288	0.113
-202.363	-52.429	-0.469	0.274
-201.348	-175.586	-0.179	0.006
-200.333	-73.577	0.080	-0.037
-199.319	800.000	0.021	0.095
-198.304	57.540	-0.263	0.326
-197.290	221.721	0.137	0.281
-196.275	-200.000	-0.045	0.271
-195.260	108.733	0.159	-0.242
-194.246	-200.000	-0.027	0.485
-193.231	-200.000	-0.008	0.522
-192.217	-129.496	0.201	0.035
-191.202	113.189	0.283	0.437
-190.187	64.856	-0.198	-0.254
-189.173	197.884	-0.082	0.160
-188.158	670.995	-0.222	-0.735
-187.144	-200.000	-0.006	0.150
-186.129	-85.607	-0.134	0.053
-185.114	-71.746	-0.100	0.047
-184.100	-113.655	-0.335	0.082
-183.085	77.180	-0.230	0.310
-182.071	36.467	0.269	-0.301
-181.056	-12.787	0.207	0.171
-180.042	529.818	0.098	-0.295
-179.027	-9.879	0.349	-0.294
-178.012	-24.163	-0.343	-0.259
-176.998	-131.763	0.357	-0.059
-175.983	-152.879	0.586	-0.052
-174.969	6.809	-0.117	0.110
-173.954	21.244	-0.188	0.194
-172.939	-102.449	0.148	0.045
-171.925	-84.318	-0.271	0.108
-170.910	112.940	-0.146	0.225
-169.896	-200.000	-0.040	-0.226
-168.881	-200.000	-0.038	-0.481
-167.866	-85.108	-0.097	-0.038
-166.852	23.260	0.379	-0.395
-165.837	512.219	0.105	-0.311
-164.823	88.533	-0.274	0.387
-163.808	800.000	-0.050	-0.200
-162.793	-74.496	-0.269	0.122
-161.779	73.176	-0.114	0.151
-160.764	-172.911	0.308	-0.012
-159.750	-110.691	-0.119	0.031
-158.735	-145.092	0.349	-0.040
-157.720	-99.735	-0.063	-0.020
-156.706	228.052	-0.063	-0.131
-155.691	-152.475	-0.338	-0.030
-154.677	800.000	0.038	0.159
-153.662	-200.000	-0.044	0.527
-152.647	-200.000	0.029	-0.211
-151.633	2.643	-0.220	0.202
-150.618	800.000	-0.050	-0.248
-149.604	800.000	-0.017	0.080
-148.589	69.295	0.185	0.242
-147.574	41.014	-0.453	0.519
-146.560	-26.635	0.083	-0.062
-145.545	-110.211	-0.276	0.072
-144.531	-42.802	-0.364	0.234
-143.516	-200.000	0.026	0.342
-142.502	103.323	-0.494	0.736
-141.487	358.211	-0.087	0.222
-140.472	152.305	-0.193	0.334
-139.458	-133.482	0.134	0.021
-138.443	-200.000	-0.003	-0.259
-137.429	59.945	0.250	-0.313
-136.414	-200.000	0.025	-0.435
-135.399	158.531	0.173	-0.306
-134.385	6.731	-0.188	-0.177
-133.370	800.000	0.147	-0.591
-132.356	-200.000	0.047	-0.342
-131.341	-55.529	0.112	-0.063
-130.326	-200.000	0.038	-0.232
-129.312	57.767	0.184	0.228
-128.297	-132.892	-0.148	-0.024
-127.283	-50.183	0.115	-0.069
-126.268	800.000	-0.041	0.224
-125.253	-39.748	0.300	-0.198
-124.239	-103.417	-0.248	0.074
-123.224	-45.500	-0.041	0.026
-122.210	-198.670	0.291	-0.002
-121.195	-62.843	-0.171	0.089
-120.180	-79.729	0.146	-0.062
-119.166	-200.000	-0.009	0.063
-118.151	-104.811	0.522	-0.151
-117.137	-25.227	0.302	0.226
-116.122	1.901	-0.442	0.403
-115.107	-6.841	-0.117	-0.101
-114.093	-11.449	-0.196	0.163
-113.078	-73.627	-0.313	-0.144
-112.064	9.906	-0.512	-0.492
-111.049	149.659	0.125	0.215
-110.034	113.408	-0.302	-0.464
-109.020	-200.000	0.016	-0.469
-108.005	11.584	0.376	0.364
-106.991	176.582	-0.049	0.090
-105.976	-152.376	0.408	0.037
-104.962	-113.410	0.452	0.111
-103.947	-149.773	-0.472	-0.046
-102.932	51.787	-0.207	-0.249
-101.918	-83.528	0.180	0.073
-100.903	-92.424	0.462	-0.164
-99.889	-123.644	0.407	0.081
-98.874	222.373	0.102	0.208
-97.859	207.729	0.243	0.481
-96.845	-200.000	0.014	0.155
-95.830	108.083	0.128	0.194
-94.816	-74.915	0.599	-0.271
-93.801	661.074	0.189	-0.619
-92.786	416.423	0.202	0.549
-91.772	8.036	0.342	0.324
-90.757	-162.957	-0.209	0.013
-89.743	-143.393	0.408	-0.049
-88.728	800.000	0.098	-0.463
-87.713	62.512	0.159	0.201
-86.699	-200.000	0.030	-0.240
-85.684	-159.714	-0.234	0.016
-84.670	353.062	0.069	-0.174
-83.655	112.443	-0.100	0.153
-82.640	-78.019	0.272	0.118
-81.626	-7.436	-0.191	-0.163
-80.611	-200.000	0.031	0.246
-79.597	800.000	-0.113	-0.409
-78.582	-138.980	0.340	-0.046
-77.567	18.118	0.234	-0.236
-76.553	292.858	0.158	0.366
-75.538	-40.750	0.146	0.095
-74.524	-200.000	-0.013	0.085
-73.509	-92.918	-0.169	0.059
-72.494	-158.446	-0.268	-0.019
-71.480	530.956	-0.011	0.034
-70.465	10.994	-0.108	-0.104
-69.451	-190.491	0.261	-0.003
-68.436	-200.000	0.020	-0.208
-67.422	-17.290	0.258	-0.205
-66.407	-146.464	0.311	0.034
-65.392	-9.366	-0.157	-0.132
-64.378	-200.000	0.075	0.439
-63.363	-5.429	-0.460	0.399
-62.349	-74.445	0.332	0.150
-61.334	80.436	-1.733	-2.359
-60.319	102.379	0.715	1.057
-59.305	222.698	-3.259	-6.652
-58.290	35.377	3.617	4.007
-57.276	398.547	4.065	10.795
-56.261	-200.000	17.509	277.239
-55.246	418.437	1229.033	3333.873
-54.232	59.583	2830.979	3527.730
-53.217	70.297	2699.606	3524.943
-52.203	44.332	2434.368	2822.519
-51.188	37.454	2094.777	2345.651
-50.173	30.117	1975.356	2127.552
-49.159	28.863	1963.928	2100.767
-48.144	28.371	1960.638	2091.518
-47.130	28.322	1957.365	2087.384
-46.115	28.279	1956.627	2086.023
-45.100	28.141	1955.044	2082.672
-44.086	28.078	1954.447	2081.232
-43.071	28.123	1952.610	2079.706
-42.057	28.147	1950.315	2077.450
-41.042	28.103	1949.058	2075.526
-40.027	27.992	1947.999	2073.051
-39.013	28.056	1946.231	2071.824
-37.998	27.985	1945.654	2070.311
-36.984	27.943	1944.189	2068.194
-35.969	27.951	1943.162	2067.115
-34.954	28.010	1940.934	2065.331
-33.940	27.966	1940.177	2063.950
-32.925	27.978	1938.095	2061.789
-31.911	27.903	1937.248	2059.951
-30.896	27.896	1936.433	2058.917
-29.881	27.996	1933.641	2057.006
-28.867	27.960	1933.284	2056.135
-27.852	27.841	1932.047	2053.391
-26.838	27.958	1929.646	2052.083
-25.823	27.949	1928.259	2050.427
-24.809	27.847	1928.097	2049.023
-23.794	27.754	1927.205	2046.944
-22.779	27.842	1924.947	2045.454
-21.765	27.731	1923.842	2042.946
-20.750	27.782	1922.284	2041.785
-19.736	27.804	1921.571	2041.194
-18.721	27.924	1920.036	2040.829
-17.706	27.831	1919.156	2038.770
-16.692	27.713	1918.709	2036.890
-15.677	27.861	1916.779	2036.417
-14.663	27.742	1915.172	2033.299
-13.648	27.666	1914.549	2031.703
-12.633	27.780	1912.110	2030.306
-11.619	27.815	1911.300	2029.767
-10.604	27.726	1909.985	2027.295
-9.590	27.807	1908.863	2026.920
-8.575	27.761	1907.713	2025.111
-7.560	27.632	1907.119	2022.961
-6.546	27.753	1905.365	2022.366
-5.531	27.742	1904.532	2021.276
-4.517	27.725	1903.351	2019.759
-3.502	27.785	1902.155	2019.078
-2.487	27.894	1900.410	2018.357
-1.473	27.940	1897.580	2015.783
-0.458	27.745	1878.520	1993.316
0.556	23.967	2021.945	2088.467
1.571	23.001	2232.775	2293.366
2.586	24.147	2276.142	2352.857
3.600	24.188	2278.524	2355.586
4.615	24.144	2278.839	2355.042
5.629	24.177	2276.265	2352.542
6.644	24.110	2274.396	2349.436
7.659	24.038	2272.606	2346.347
8.673	24.272	2270.671	2347.170
9.688	23.757	2277.447	2347.049
10.702	21.859	2353.145	2398.708
11.717	19.689	2417.985	2433.824
12.731	9.929	2393.538	2271.544
13.746	1.522	2371.231	2131.958
14.761	0.351	2366.761	2111.215
15.775	0.129	2365.415	2106.628
16.790	0.244	2363.195	2106.023
17.804	0.166	2362.116	2103.714
18.819	0.168	2361.430	2102.872
19.834	0.115	2359.534	2100.199
20.848	0.064	2358.863	2098.633
21.863	0.109	2356.522	2096.922
22.877	0.082	2354.458	2094.457
23.892	0.233	2351.006	2093.244
24.907	0.075	2349.328	2089.295
25.921	0.094	2347.657	2087.830
26.936	0.159	2345.338	2086.425
27.950	0.102	2342.875	2083.190
28.965	0.198	2340.666	2082.302
29.980	0.129	2338.859	2079.488
30.994	0.294	2335.913	2078.917
32.009	4.704	2351.494	2153.990
33.023	16.447	2387.880	2352.209
34.038	22.259	2399.856	2445.191
35.053	23.078	2398.797	2455.242
36.067	23.206	2396.383	2454.262
37.082	23.039	2394.557	2449.781
38.096	23.108	2392.091	2447.917
39.111	23.217	2390.395	2447.413
40.126	23.314	2387.920	2445.927
41.140	23.557	2386.555	2447.608
42.155	23.328	2384.498	2442.038
43.169	23.197	2382.795	2438.186
44.184	23.187	2380.882	2435.791
45.199	23.131	2378.683	2432.477
46.213	23.124	2376.946	2430.312
47.228	23.102	2375.774	2428.522
48.242	23.102	2373.591	2426.003
49.257	23.274	2371.900	2426.350
50.271	23.225	2369.336	2422.763
51.286	23.180	2367.380	2419.850
52.301	23.075	2365.026	2415.718
53.315	22.913	2364.603	2412.774
54.330	23.007	2363.163	2412.297
55.344	23.071	2360.445	2410.110
56.359	23.060	2357.088	2406.254
57.374	23.014	2355.160	2403.360
58.388	23.021	2352.749	2400.709
59.403	23.226	2349.857	2400.263
60.417	23.304	2347.614	2398.747
61.432	23.558	2345.845	2400.111
62.447	23.435	2345.343	2397.634
63.461	23.519	2342.102	2395.176
64.476	23.550	2339.790	2392.947
65.490	23.665	2340.084	2394.520
66.505	23.747	2339.589	2394.835
67.520	23.517	2337.052	2388.849
68.534	22.923	2333.473	2376.870
69.549	23.051	2329.824	2374.599
70.563	22.986	2327.757	2371.321
71.578	22.965	2325.796	2368.761
72.593	23.107	2323.766	2368.327
73.607	23.332	2323.616	2370.919
74.622	23.502	2321.400	2370.658
75.636	23.224	2317.990	2363.153
76.651	23.001	2315.730	2357.585
77.666	23.200	2314.378	2358.588
78.680	23.156	2312.209	2355.511
79.695	23.216	2311.486	2355.297
80.709	23.245	2310.484	2354.371
81.724	23.403	2308.878	2354.571
82.739	23.304	2305.070	2349.086
83.753	23.294	2302.977	2346.535
84.768	23.133	2302.432	2343.556
85.782	23.097	2300.868	2341.208
86.797	23.247	2297.967	2339.965
87.812	23.165	2296.408	2337.005
88.826	22.967	2294.394	2332.052
89.841	23.104	2292.500	2331.670
90.855	23.298	2290.771	2332.200
91.870	23.178	2288.135	2327.641
92.884	23.124	2286.021	2324.498
93.899	23.043	2285.482	2322.612
94.914	22.963	2285.261	2321.050
95.928	23.069	2284.806	2321.708
96.943	23.014	2282.638	2318.495
97.957	22.930	2279.172	2313.599
98.972	23.028	2276.521	2311.918
99.987	22.938	2273.333	2307.217
101.001	22.879	2271.319	2304.132
102.016	22.875	2269.750	2302.213
103.030	22.921	2267.742	2300.504
104.045	23.051	2265.951	2300.101
105.060	23.392	2263.862	2302.166
106.074	23.151	2263.039	2297.912
107.089	23.012	2258.702	2291.416
108.103	23.253	2257.893	2293.455
109.118	23.149	2257.434	2291.370
110.133	23.275	2256.601	2291.891
111.147	23.450	2254.135	2291.378
112.162	23.321	2253.051	2288.324
113.176	23.214	2249.131	2282.691
114.191	23.171	2246.939	2279.637
115.206	23.055	2246.322	2277.234
116.220	22.905	2245.179	2273.856
117.235	22.920	2242.480	2271.041
118.249	22.953	2239.192	2267.874
119.264	23.134	2238.878	2269.613
120.279	23.241	2237.180	2269.006
121.293	23.026	2234.979	2263.731
122.308	23.064	2233.287	2262.234
123.322	23.027	2231.879	2260.057
124.337	22.812	2230.325	2255.457
125.352	23.154	2229.286	2258.526
126.366	23.357	2229.393	2260.967
127.381	22.836	2226.726	2251.321
128.395	22.791	2223.706	2247.423
129.410	22.976	2220.699	2246.475
130.424	23.146	2218.986	2246.647
131.439	23.011	2218.127	2243.786
132.454	22.961	2216.561	2241.293
133.468	23.051	2214.792	2240.385
134.483	23.004	2211.767	2236.452
135.497	22.936	2210.332	2233.870
136.512	23.017	2207.778	2232.052
137.527	23.006	2206.682	2230.542
138.541	23.039	2205.725	2229.719
139.556	22.938	2205.636	2228.085
140.570	23.036	2203.029	2226.429
141.585	23.032	2201.095	2224.156
142.600	23.077	2199.778	2223.127
143.614	23.016	2199.063	2221.358
144.629	23.242	2196.599	2221.454
145.643	23.054	2194.091	2216.286
146.658	22.978	2192.827	2213.789
147.673	22.894	2190.489	2210.112
148.687	23.075	2188.902	2210.512
149.702	22.971	2187.446	2207.473
150.716	22.940	2187.028	2206.402
151.731	23.030	2186.824	2207.056
152.746	23.342	2185.824	2209.695
153.760	23.147	2184.150	2205.306
154.775	22.962	2184.037	2202.600
155.789	22.927	2180.961	2198.806
156.804	22.636	2177.294	2191.210
157.819	22.674	2173.966	2188.071
158.833	22.916	2172.507	2189.348
159.848	23.168	2170.496	2190.196
160.862	23.330	2170.133	2191.581
161.877	23.370	2169.449	2191.126
162.892	23.427	2166.862	2188.968
163.906	23.384	2165.955	2187.246
164.921	23.293	2163.708	2183.596
165.935	23.197	2161.768	2180.188
166.950	23.165	2159.503	2177.250
167.964	23.085	2157.264	2173.736
168.979	22.942	2155.875	2170.314
169.994	23.101	2154.030	2170.161
171.008	23.061	2153.453	2168.818
172.023	22.997	2150.527	2164.829
173.037	23.221	2149.591	2166.379
174.052	23.062	2148.200	2162.766
175.067	22.959	2145.690	2158.713
176.081	22.992	2144.298	2157.456
177.096	23.013	2143.930	2157.096
178.110	22.978	2140.997	2153.459
179.125	22.957	2141.483	2153.422
180.140	22.983	2138.503	2150.489
181.154	22.972	2137.318	2148.912
182.169	22.748	2136.694	2145.286
183.183	22.703	2135.803	2143.583
184.198	22.895	2135.194	2145.060
185.213	22.967	2132.627	2143.097
186.227	23.000	2130.563	2141.176
187.242	22.840	2129.387	2137.785
188.256	22.903	2127.535	2136.442
189.271	23.289	2126.756	2140.085
190.286	23.346	2125.504	2139.264
191.300	22.990	2121.884	2131.051
192.315	22.990	2119.639	2128.549
193.329	23.097	2118.824	2128.759
194.344	23.219	2118.285	2129.438
195.359	23.307	2117.342	2129.307
196.373	23.367	2115.246	2127.667
197.388	23.397	2111.894	2124.400
198.402	23.130	2110.333	2119.365
199.417	23.102	2108.012	2116.440
200.432	23.221	2106.364	2115.958
201.446	23.310	2106.033	2116.445
202.461	23.289	2104.890	2114.786
203.475	23.101	2101.775	2109.150
204.490	22.958	2100.038	2105.442
205.504	23.055	2097.668	2103.985
206.519	22.970	2095.349	2100.386
207.534	23.077	2093.851	2099.915
208.548	23.077	2091.734	2097.532
209.563	22.861	2091.253	2094.230
210.577	22.747	2090.443	2091.807
211.592	23.028	2090.119	2094.581
212.607	23.115	2088.935	2094.174
213.621	22.838	2087.184	2088.882
214.636	22.797	2085.198	2086.155
215.650	22.848	2084.139	2085.455
216.665	23.001	2082.141	2085.013
217.680	23.308	2080.616	2086.878
218.694	23.348	2079.538	2086.016
219.709	23.261	2077.280	2082.470
220.723	23.272	2076.160	2081.238
221.738	23.379	2073.487	2079.568
222.753	23.247	2071.618	2075.889
223.767	23.260	2070.365	2074.537
224.782	23.067	2068.470	2070.122
225.796	23.011	2067.102	2067.848
226.811	23.107	2065.813	2067.434
227.826	23.323	2064.490	2068.393
228.840	23.475	2062.834	2068.269
229.855	23.220	2060.381	2062.576
230.869	23.169	2058.970	2060.325
231.884	23.156	2056.550	2057.506
232.899	22.962	2056.159	2054.599
233.913	23.011	2054.862	2053.633
234.928	23.003	2054.818	2053.243
235.942	23.185	2053.415	2053.724
236.957	23.183	2050.747	2050.788
237.972	23.213	2049.657	2049.792
238.986	23.222	2049.224	2049.229
240.001	23.079	2047.147	2045.236
241.015	22.924	2044.710	2040.764
242.030	23.049	2044.218	2041.479
243.045	23.175	2043.787	2042.259
244.059	23.192	2042.636	2041.069
245.074	23.177	2038.877	2036.895
246.088	23.111	2035.695	2032.701
247.103	22.989	2034.087	2029.454
248.117	23.073	2034.536	2030.628
249.132	23.381	2032.283	2031.678
250.147	23.180	2029.696	2026.538
251.161	22.810	2027.972	2020.321
252.176	22.836	2027.103	2019.509
253.190	22.599	2023.433	2012.895
254.205	22.080	2020.008	2003.301
255.220	21.943	2018.715	2000.202
256.234	22.123	2017.661	2000.989
257.249	22.169	2017.134	2000.751
258.263	22.061	2015.886	1998.030
259.278	22.034	2014.457	1996.076
260.293	22.116	2012.862	1995.183
261.307	22.462	2011.698	1997.745
262.322	22.892	2011.856	2002.559
263.336	22.883	2009.596	1999.964
264.351	22.778	2007.622	1996.566
265.366	22.872	2007.270	1997.047
266.380	23.026	2006.234	1997.523
267.395	22.962	2004.452	1994.787
268.409	22.842	2003.457	1992.199
269.424	23.036	2002.173	1992.879
270.439	23.151	2000.061	1991.846
271.453	23.244	1999.356	1991.954
272.468	23.145	1997.636	1988.885
273.482	23.037	1995.398	1985.195
274.497	23.059	1993.098	1982.927
275.512	23.076	1990.877	1980.664
276.526	23.226	1988.095	1979.346
277.541	23.109	1987.135	1976.844
278.555	23.115	1985.449	1974.995
279.570	22.745	1983.592	1968.756
280.585	22.703	1981.635	1966.107
281.599	22.965	1981.385	1968.568
282.614	22.927	1980.095	1966.624
283.628	22.366	1977.948	1957.976
284.643	22.242	1976.279	1954.710
285.657	22.462	1974.592	1955.260
286.672	22.448	1972.925	1953.219
287.687	22.190	1970.915	1948.124
288.701	22.001	1968.984	1943.877
289.716	21.837	1967.869	1940.721
290.730	21.787	1965.744	1937.838
291.745	21.991	1964.925	1939.061
292.760	21.959	1963.650	1937.221
293.774	21.963	1963.547	1936.932
294.789	22.676	1963.692	1944.742
295.803	22.901	1962.474	1945.800
296.818	22.901	1960.683	1943.795
297.833	23.143	1959.141	1944.703
298.847	23.126	1957.283	1942.442
299.862	23.057	1955.976	1940.148
300.876	22.867	1954.856	1936.712
301.891	22.938	1954.468	1936.878
302.906	23.198	1953.371	1938.416
303.920	23.170	1952.040	1936.564
304.935	23.214	1948.886	1933.681
305.949	23.088	1946.431	1929.634
306.964	23.175	1944.831	1928.774
307.979	23.136	1943.065	1926.356
308.993	22.786	1939.637	1918.903
310.008	22.214	1938.053	1910.866
311.022	22.170	1936.805	1908.918
312.037	22.315	1936.135	1909.613
313.052	22.055	1933.693	1904.141
314.066	21.738	1931.245	1898.056
315.081	21.704	1930.113	1896.351
316.095	21.570	1928.590	1893.168
317.110	21.688	1927.056	1892.713
318.125	21.814	1925.514	1892.340
319.139	21.986	1924.856	1893.328
320.154	22.255	1924.022	1895.202
321.168	22.165	1921.671	1891.689
322.183	22.664	1921.575	1896.762
323.197	22.782	1921.632	1897.861
324.212	22.769	1920.129	1896.012
325.227	22.866	1918.408	1895.128
326.241	23.156	1916.718	1896.361
327.256	23.114	1916.296	1895.268
328.270	23.136	1915.097	1894.086
329.285	23.119	1914.616	1893.204
330.300	23.128	1915.209	1893.655
331.314	23.061	1913.063	1890.592
332.329	22.910	1910.910	1886.614
333.343	23.148	1908.543	1886.610
334.358	23.286	1907.617	1886.946
335.373	23.203	1906.764	1884.985
336.387	23.250	1903.939	1882.466
337.402	23.229	1901.305	1879.411
338.416	23.199	1900.582	1878.154
339.431	23.278	1899.341	1877.543
340.446	23.504	1897.104	1877.519
341.460	23.038	1894.306	1869.564
342.475	22.398	1892.150	1860.418
343.489	22.250	1890.015	1856.532
344.504	22.085	1888.292	1852.865
345.519	22.084	1886.634	1851.007
346.533	21.990	1885.726	1848.900
347.548	22.151	1883.749	1848.439
348.562	22.288	1882.425	1848.371
349.577	22.056	1881.790	1845.077
350.592	22.017	1879.963	1842.652
351.606	21.895	1879.120	1840.314
352.621	21.924	1876.924	1838.253
353.635	22.182	1877.001	1840.822
354.650	22.538	1876.572	1843.927
355.665	22.690	1874.757	1843.517
356.679	22.855	1874.689	1844.967
357.694	23.008	1873.147	1844.836
358.708	23.037	1872.081	1843.859
359.723	23.129	1871.980	1844.504
360.738	23.109	1870.471	1842.588
361.752	23.041	1867.890	1839.122
362.767	22.999	1865.641	1836.243
363.781	23.028	1864.145	1834.856
364.796	23.184	1862.850	1834.989
365.810	23.173	1861.713	1833.533
366.825	23.117	1861.430	1832.455
367.840	23.221	1860.367	1832.263
368.854	23.142	1859.573	1830.441
369.869	22.673	1855.996	1821.840
370.883	22.234	1852.853	1813.981
371.898	21.767	1851.789	1807.882
372.913	21.804	1849.720	1806.034
373.927	21.912	1848.615	1805.849
374.942	21.898	1847.538	1804.440
375.956	21.799	1845.270	1800.983
376.971	21.724	1842.796	1797.580
377.986	21.684	1841.647	1795.829
379.000	21.876	1840.831	1796.801
380.015	22.617	1841.411	1804.783
381.029	23.281	1840.466	1810.459
382.044	23.375	1838.772	1809.546
383.059	23.329	1836.582	1806.706
384.073	23.073	1836.186	1803.476
385.088	22.937	1834.610	1800.315
386.102	22.973	1832.500	1798.400
387.117	22.848	1830.101	1794.550
388.132	22.745	1830.222	1793.401
389.146	22.921	1831.603	1796.343
390.161	23.136	1830.320	1797.062
391.175	23.023	1826.427	1791.877
392.190	22.980	1822.855	1787.720
393.205	22.800	1820.867	1783.722
394.219	23.003	1820.163	1784.888
395.234	23.019	1819.537	1784.216
396.248	23.249	1817.466	1784.300
397.263	23.162	1815.295	1781.080
398.278	22.934	1814.380	1777.662
399.292	22.988	1812.878	1776.527
400.307	23.139	1812.958	1777.918
401.321	23.128	1810.746	1775.418
402.336	22.364	1807.274	1764.115
403.350	21.913	1804.179	1756.339
404.365	21.984	1804.190	1756.860
405.380	22.392	1803.371	1759.948
406.394	22.167	1802.293	1756.426
407.409	21.966	1800.002	1751.970
408.423	21.859	1798.438	1749.167
409.438	21.897	1796.810	1747.753
410.453	22.244	1798.008	1752.186
411.467	22.749	1797.471	1756.501
412.482	22.864	1796.556	1756.546
413.496	22.954	1795.238	1755.953
414.511	23.018	1792.854	1754.048
415.526	22.841	1790.460	1749.736
416.540	23.025	1789.224	1750.142
417.555	22.838	1787.983	1746.862
418.569	22.703	1788.286	1745.609
419.584	22.784	1787.651	1745.587
420.599	22.796	1787.199	1745.050
421.613	22.724	1786.016	1742.971
422.628	22.927	1784.379	1743.184
423.642	22.910	1783.062	1741.519
424.657	22.953	1780.709	1739.432
425.672	22.536	1778.683	1733.121
426.686	22.823	1777.239	1734.349
427.701	22.675	1776.833	1732.279
428.715	22.561	1775.653	1729.799
429.730	22.762	1773.292	1729.275
430.745	22.753	1772.977	1728.673
431.759	22.812	1771.790	1727.882
432.774	22.379	1770.444	1722.105
433.788	21.997	1768.588	1716.342
434.803	21.868	1767.031	1713.356
435.818	21.775	1766.229	1711.469
436.832	21.599	1766.729	1710.012
437.847	20.680	1758.523	1692.885
438.861	11.595	1734.428	1581.477
439.876	2.073	1716.094	1472.566
440.890	0.472	1711.370	1452.854
441.905	0.182	1710.584	1449.199
442.920	0.265	1708.724	1448.259
443.934	0.220	1707.261	1446.408
444.949	0.122	1706.360	1444.526
445.963	0.134	1705.441	1443.695
446.978	0.103	1704.482	1442.411
447.993	0.136	1703.405	1441.641
449.007	0.144	1701.298	1439.767
450.022	0.221	1698.963	1438.351
451.036	0.138	1698.256	1436.788
452.051	0.645	1700.769	1443.613
453.066	8.417	1721.115	1536.040
454.080	18.773	1738.119	1651.622
455.095	21.582	1743.560	1683.792
456.109	22.588	1744.719	1694.438
457.124	22.867	1742.726	1694.991
458.139	22.605	1742.471	1692.012
459.153	22.528	1740.469	1689.122
460.168	22.571	1738.469	1687.389
461.182	22.520	1737.112	1685.384
462.197	22.542	1735.364	1683.694
463.212	22.523	1733.520	1681.528
464.226	22.565	1732.796	1681.029
465.241	22.588	1731.674	1679.956
466.255	22.692	1729.839	1678.967
467.270	22.505	1729.078	1676.236
468.285	22.618	1727.971	1676.049
469.299	22.648	1726.082	1674.299
470.314	22.673	1724.172	1672.487
471.328	22.508	1723.934	1670.483
472.343	22.495	1722.596	1668.859
473.358	22.590	1720.953	1667.970
474.372	22.533	1720.035	1666.347
475.387	22.663	1718.328	1665.719
476.401	22.629	1716.440	1663.372
477.416	22.533	1716.261	1662.088
478.430	22.580	1715.057	1661.172
479.445	22.686	1713.852	1660.804
480.460	22.668	1712.335	1658.969
481.474	22.601	1711.470	1657.294
482.489	22.692	1709.954	1656.492
483.503	22.463	1708.447	1652.674
484.518	22.348	1706.765	1649.760
485.533	22.617	1704.846	1650.247
486.547	22.630	1703.515	1648.882
487.562	22.568	1702.968	1647.569
488.576	22.620	1701.732	1646.669
489.591	22.675	1700.375	1645.668
490.606	22.709	1698.956	1644.423
491.620	22.688	1697.203	1642.329
492.635	22.534	1695.256	1638.805
493.649	22.471	1694.067	1636.872
494.664	22.394	1693.625	1635.535
495.679	22.473	1692.158	1634.659
496.693	22.470	1690.767	1633.089
497.708	22.585	1689.245	1632.494
498.722	22.608	1688.016	1631.330
499.737	22.638	1686.679	1630.113
500.752	22.562	1685.128	1627.719
501.766	22.612	1683.911	1626.811
502.781	22.569	1682.462	1624.814
503.795	22.684	1681.196	1624.461
504.810	22.508	1679.668	1621.171
505.825	22.554	1679.943	1621.668
506.839	22.760	1678.110	1621.603
507.854	22.747	1675.923	1619.174
508.868	22.741	1674.001	1617.065
509.883	22.562	1674.015	1615.244
510.898	22.550	1672.859	1613.817
511.912	22.461	1670.563	1610.596
512.927	22.324	1669.101	1607.736
513.941	22.518	1668.345	1608.596
514.956	22.777	1667.542	1609.999
515.971	22.910	1665.929	1609.467
516.985	22.777	1664.505	1606.686
518.000	22.652	1664.032	1604.894
519.014	22.481	1663.311	1602.441
520.029	22.594	1660.908	1600.970
521.043	22.521	1659.370	1598.623
522.058	22.418	1658.056	1596.233
523.073	22.480	1657.372	1595.945
524.087	22.607	1655.620	1595.223
525.102	22.506	1654.825	1593.352
526.116	22.670	1654.298	1594.138
527.131	22.762	1652.764	1593.305
528.146	22.726	1651.565	1591.635
529.160	22.655	1650.821	1590.079
530.175	22.660	1648.951	1588.133
531.189	22.665	1647.621	1586.712
532.204	22.582	1646.075	1584.279
533.219	22.596	1645.116	1583.296
534.233	22.572	1645.079	1582.852
535.248	22.485	1643.458	1580.323
536.262	22.362	1642.334	1577.941
537.277	22.523	1641.158	1578.072
538.292	22.553	1639.910	1576.953
539.306	22.613	1637.628	1575.113
540.321	22.501	1637.161	1573.462
541.335	22.553	1635.998	1572.625
542.350	22.540	1634.376	1570.766
543.365	22.513	1632.110	1568.151
544.379	22.430	1631.288	1566.432
545.394	22.413	1629.782	1564.647
546.408	22.502	1628.400	1563.930
547.423	22.538	1627.542	1563.238
548.438	22.529	1626.196	1561.678
549.452	22.433	1625.359	1559.831
550.467	22.470	1624.052	1558.721
551.481	22.414	1622.831	1556.870
552.496	22.469	1621.394	1555.788
553.511	22.538	1620.388	1555.249
554.525	22.485	1619.518	1553.756
555.540	22.615	1618.507	1553.754
556.554	22.618	1617.682	1552.805
557.569	22.520	1616.256	1550.385
558.583	22.550	1614.792	1549.055
559.598	22.581	1613.393	1547.803
560.613	22.450	1612.213	1545.332
561.627	22.428	1610.582	1543.387
562.642	22.436	1609.404	1542.145
563.656	22.331	1607.862	1539.558
564.671	22.421	1605.594	1537.993
565.686	22.396	1604.982	1537.007
566.700	22.412	1604.022	1536.042
567.715	22.439	1603.082	1535.198
568.729	22.469	1602.070	1534.304
569.744	22.798	1600.504	1535.501
570.759	22.838	1598.939	1534.162
571.773	22.687	1598.688	1532.415
572.788	22.589	1596.888	1529.651
573.802	22.483	1594.598	1526.353
574.817	22.200	1593.530	1522.689
575.832	22.255	1591.739	1521.272
576.846	22.300	1590.935	1520.710
577.861	22.431	1590.154	1520.917
578.875	22.380	1589.577	1519.742
579.890	22.373	1588.808	1518.762
580.905	22.383	1587.274	1517.202
581.919	22.394	1587.021	1516.879
582.934	22.495	1585.863	1516.458
583.948	22.440	1583.762	1513.794
584.963	22.239	1582.958	1511.109
585.978	22.357	1580.964	1510.042
586.992	22.253	1580.120	1508.160
588.007	22.190	1579.691	1507.024
589.021	22.479	1579.168	1508.838
590.036	22.382	1578.086	1506.787
591.051	22.401	1576.686	1505.436
592.065	22.459	1574.473	1503.641
593.080	22.315	1572.503	1500.348
594.094	22.319	1571.426	1499.175
595.109	22.431	1569.651	1498.260
596.123	22.439	1568.020	1496.585
597.138	22.265	1567.576	1494.500
598.153	22.257	1566.274	1493.008
599.167	22.285	1564.805	1491.675
600.182	22.376	1563.681	1491.196
601.196	22.302	1563.346	1490.072
602.211	22.215	1561.754	1487.632
603.226	22.197	1560.825	1486.416
604.240	22.312	1558.263	1484.773
605.255	22.235	1557.409	1483.134
606.269	22.221	1556.486	1481.952
607.284	22.319	1555.815	1481.969
608.299	22.361	1553.931	1480.349
609.313	22.393	1552.813	1479.384
610.328	22.290	1551.843	1477.408
611.342	22.391	1550.077	1476.401
612.357	22.296	1549.511	1474.889
613.372	22.256	1548.890	1473.777
614.386	22.135	1548.031	1471.772
615.401	22.207	1546.527	1470.767
616.415	22.100	1545.919	1469.115
617.430	22.008	1544.440	1466.764
618.445	21.983	1543.190	1465.186
619.459	22.069	1541.840	1464.454
620.474	22.307	1541.155	1465.615
621.488	22.491	1540.680	1466.528
622.503	22.656	1539.977	1467.066
623.518	22.337	1538.065	1462.409
624.532	22.224	1536.056	1459.374
625.547	22.022	1534.624	1456.155
626.561	21.904	1534.371	1454.764
627.576	21.781	1533.650	1452.882
628.591	22.003	1533.212	1454.136
629.605	22.392	1531.534	1455.604
630.620	22.522	1530.280	1455.321
631.634	22.635	1529.736	1455.566
632.649	22.614	1528.666	1454.196
633.663	22.429	1526.277	1450.224
634.678	22.136	1524.580	1446.014
635.693	22.010	1522.714	1443.030
636.707	21.922	1521.400	1440.887
637.722	21.791	1519.979	1438.287
638.736	22.020	1518.864	1438.942
639.751	22.034	1518.390	1438.438
640.766	22.142	1516.958	1437.801
641.780	22.108	1515.553	1436.015
642.795	22.233	1514.877	1436.226
643.809	22.227	1513.508	1434.713
644.824	22.114	1513.530	1433.629
645.839	22.263	1512.649	1433.845
646.853	22.202	1511.296	1431.894
647.868	22.066	1509.414	1428.831
648.882	22.188	1507.659	1427.996
649.897	22.056	1506.590	1425.730
650.912	22.027	1505.321	1424.125
651.926	22.200	1505.025	1425.085
652.941	22.278	1504.200	1424.769
653.955	22.352	1502.622	1423.703
654.970	22.422	1501.150	1422.707
655.985	22.376	1499.281	1420.391
656.999	22.285	1498.639	1418.872
658.014	22.176	1497.196	1416.453
659.028	22.165	1496.887	1415.908
660.043	22.089	1495.249	1413.571
661.058	22.075	1493.383	1411.525
662.072	22.008	1492.229	1409.725
663.087	21.975	1491.650	1408.747
664.101	21.975	1490.417	1407.409
665.116	22.109	1489.164	1407.140
666.131	22.049	1488.179	1405.559
667.145	21.988	1487.334	1404.102
668.160	21.980	1485.236	1401.890
669.174	21.840	1483.555	1399.009
670.189	21.857	1482.758	1398.225
671.204	22.003	1482.836	1399.305
672.218	22.201	1481.307	1399.280
673.233	22.136	1479.250	1396.650
674.247	22.070	1478.233	1394.995
675.262	21.840	1477.818	1392.600
676.276	21.768	1476.859	1390.950
677.291	21.968	1476.085	1391.655
678.306	22.214	1474.852	1392.281
679.320	22.178	1473.385	1390.447
680.335	21.885	1473.341	1387.905
681.349	21.986	1472.215	1387.481
682.364	21.962	1470.411	1385.422
683.379	21.930	1469.043	1383.719
684.393	21.815	1467.960	1381.622
685.408	21.876	1466.623	1380.677
686.422	21.899	1465.239	1379.396
687.437	21.665	1464.988	1377.142
688.452	21.620	1464.120	1375.810
689.466	21.646	1462.441	1374.270
690.481	21.879	1461.179	1374.755
691.495	21.808	1461.789	1374.601
692.510	22.282	1461.128	1377.553
693.525	22.524	1458.564	1376.871
694.539	22.266	1457.390	1373.572
695.554	21.798	1456.516	1368.910
696.568	21.644	1454.855	1365.979
697.583	21.491	1454.346	1364.134
698.598	21.589	1453.444	1363.898
699.612	21.621	1452.336	1362.939
700.627	21.555	1450.962	1360.977
701.641	21.687	1449.818	1360.767
702.656	21.893	1448.230	1360.726
703.671	21.567	1447.949	1357.755
704.685	21.692	1447.506	1358.150
705.700	21.653	1446.427	1356.674
706.714	21.792	1444.193	1355.497
707.729	21.855	1443.036	1354.736
708.744	21.830	1441.713	1353.140
709.758	21.901	1441.035	1352.890
710.773	21.975	1440.652	1352.943
711.787	22.101	1438.893	1352.100
712.802	22.149	1437.625	1351.117
713.816	22.005	1436.082	1348.398
714.831	22.017	1434.645	1346.981
715.846	21.813	1434.066	1344.698
716.860	21.599	1433.200	1342.081
717.875	21.786	1431.988	1342.220
718.889	21.924	1430.493	1341.720
719.904	21.796	1429.337	1339.493
720.919	21.645	1427.812	1336.747
721.933	21.557	1427.205	1335.346
722.948	21.607	1426.290	1334.712
723.962	21.609	1425.109	1333.464
724.977	21.502	1423.664	1331.130
725.992	21.497	1423.049	1330.360
727.006	21.689	1421.694	1330.395
728.021	21.452	1420.688	1327.486
729.035	21.570	1419.391	1327.015
730.050	21.584	1418.173	1325.823
731.065	21.808	1416.741	1326.032
732.079	21.502	1415.524	1322.410
733.094	21.798	1415.134	1324.135
734.108	21.899	1414.205	1323.876
735.123	21.692	1412.215	1320.281
736.138	21.626	1411.310	1318.777
737.152	21.832	1410.318	1319.255
738.167	21.522	1409.163	1315.671
739.181	21.639	1408.131	1315.438
740.196	21.574	1407.603	1314.297
741.211	21.390	1407.451	1312.608
742.225	21.651	1406.170	1313.220
743.240	21.534	1404.041	1310.198
744.254	21.582	1402.241	1308.720
745.269	21.492	1401.856	1307.528
746.284	21.334	1400.955	1305.343
747.298	21.331	1400.270	1304.531
748.313	21.678	1399.472	1306.230
749.327	21.861	1399.456	1307.431
750.342	22.065	1399.205	1308.567
751.356	22.358	1398.025	1309.495
752.371	22.305	1395.755	1306.816
753.386	21.779	1394.193	1301.276
754.400	21.517	1392.914	1297.975
755.415	21.376	1392.160	1296.068
756.429	21.487	1390.620	1295.299
757.444	21.653	1389.516	1295.353
758.459	21.543	1388.329	1293.275
759.473	21.410	1387.023	1290.918
760.488	21.468	1385.450	1289.725
761.502	21.312	1385.093	1288.086
762.517	21.374	1384.089	1287.461
763.532	21.644	1382.395	1287.720
764.546	21.580	1381.690	1286.437
765.561	21.738	1381.953	1287.700
766.575	22.127	1381.062	1289.586
767.590	22.052	1380.129	1288.008
768.605	21.977	1378.753	1286.011
769.619	21.702	1376.502	1281.738
770.634	21.476	1375.223	1278.737
771.648	21.282	1374.465	1276.449
772.663	21.231	1373.316	1274.860
773.678	21.431	1372.425	1275.343
774.692	21.296	1372.360	1274.143
775.707	21.413	1371.360	1273.920
776.721	21.386	1370.231	1272.521
777.736	21.437	1368.882	1271.485
778.751	21.426	1367.471	1269.944
779.765	21.366	1367.058	1268.968
780.780	21.355	1366.500	1268.219
781.794	21.445	1365.518	1267.809
782.809	21.263	1364.003	1264.932
783.824	21.133	1363.369	1263.242
784.838	21.516	1361.480	1264.127
785.853	21.805	1361.855	1266.417
786.867	21.819	1360.729	1265.319
787.882	21.613	1360.155	1263.144
788.897	21.502	1358.865	1260.989
789.911	21.359	1357.030	1258.102
790.926	21.188	1355.742	1255.525
791.940	21.232	1354.257	1254.316
792.955	21.253	1352.914	1253.070
793.969	21.039	1352.631	1251.120
794.984	21.111	1351.885	1250.798
795.999	21.243	1350.281	1250.114
797.013	21.343	1348.379	1248.922
798.028	21.293	1347.695	1247.778
799.042	21.247	1346.449	1246.146
800.057	21.363	1345.217	1245.686
801.072	21.420	1343.829	1244.662
802.086	21.298	1342.776	1242.666
803.101	21.006	1342.695	1240.353
804.115	21.238	1341.409	1240.672
805.130	21.220	1339.385	1238.526
806.145	21.204	1338.312	1237.269
807.159	21.330	1337.079	1236.874
808.174	21.331	1335.834	1235.582
809.188	21.336	1334.839	1234.554
810.203	21.433	1334.123	1234.429
811.218	21.616	1332.943	1234.486
812.232	21.727	1331.691	1233.967
813.247	21.802	1330.768	1233.493
814.261	21.550	1329.838	1230.703
815.276	21.425	1328.422	1228.363
816.291	21.228	1327.354	1225.837
817.305	21.118	1326.286	1223.932
818.320	20.946	1325.531	1221.875
819.334	21.043	1324.394	1221.360
820.349	21.106	1322.675	1220.076
821.364	21.045	1321.547	1218.459
822.378	21.135	1320.150	1217.660
823.393	21.168	1317.911	1215.675
824.407	21.041	1316.779	1213.600
825.422	21.130	1316.975	1214.261
826.437	21.044	1316.056	1212.662
827.451	21.127	1314.017	1211.216
828.466	21.464	1313.207	1212.680
829.480	21.663	1311.834	1212.649
830.495	21.466	1309.706	1209.165
831.509	21.244	1308.576	1206.435
832.524	20.934	1308.259	1203.848
833.539	21.011	1306.636	1202.748
834.553	21.108	1304.741	1201.527
835.568	21.100	1303.490	1200.181
836.582	20.995	1302.600	1198.490
837.597	21.053	1301.805	1198.012
838.612	21.003	1300.733	1196.544
839.626	21.230	1299.603	1196.920
840.641	21.226	1299.468	1196.628
841.655	21.396	1298.646	1196.894
842.670	21.663	1298.354	1198.318
843.685	21.786	1297.147	1197.906
844.699	21.634	1294.631	1194.400
845.714	21.372	1293.215	1191.154
846.728	21.180	1292.812	1189.329
847.743	21.032	1291.596	1187.056
848.758	21.193	1289.522	1186.107
849.772	21.144	1288.105	1184.327
850.787	20.875	1287.432	1181.730
851.801	20.894	1286.236	1180.624
852.816	21.072	1284.817	1180.385
853.831	21.019	1283.371	1178.556
854.845	20.965	1281.664	1176.483
855.860	20.877	1280.349	1174.543
856.874	21.100	1279.302	1174.947
857.889	21.124	1278.580	1174.308
858.904	21.626	1277.487	1176.556
859.918	21.777	1276.531	1176.552
860.933	21.651	1275.653	1174.749
861.947	21.376	1274.288	1171.499
862.962	21.151	1272.222	1167.952
863.977	21.063	1270.903	1166.007
864.991	20.952	1270.221	1164.497
866.006	20.897	1269.622	1163.436
867.020	20.841	1268.175	1161.596
868.035	21.012	1266.844	1161.385
869.049	21.129	1265.767	1161.041
870.064	21.086	1264.745	1159.676
871.079	21.061	1264.001	1158.688
872.093	20.938	1264.142	1157.855
873.108	21.124	1262.674	1157.614
874.122	21.122	1262.246	1157.070
875.137	21.550	1261.987	1159.548
876.152	21.438	1260.667	1157.448
877.166	21.654	1258.365	1156.631
878.181	21.173	1257.256	1152.280
879.195	21.095	1256.448	1150.884
880.210	20.981	1255.620	1149.236
881.225	21.022	1254.805	1148.625
882.239	20.857	1254.407	1147.028
883.254	20.921	1253.331	1146.334
884.268	21.041	1251.608	1145.411
885.283	21.127	1249.904	1144.283
886.298	21.071	1248.117	1142.137
887.312	21.067	1247.112	1141.058
888.327	20.985	1247.159	1140.422
889.341	21.014	1245.234	1138.718
890.356	21.008	1244.205	1137.599
891.371	20.930	1244.577	1137.291
892.385	21.064	1243.980	1137.493
893.400	21.066	1242.546	1136.057
894.414	21.060	1241.634	1135.045
895.429	21.254	1240.938	1135.541
896.444	21.817	1239.736	1137.982
897.458	22.005	1239.154	1138.534
898.473	21.725	1237.298	1134.874
899.487	21.521	1236.539	1132.713
900.502	21.079	1234.399	1127.745
901.517	21.047	1233.440	1126.528
902.531	21.096	1232.379	1125.739
903.546	21.081	1231.557	1124.756
904.560	21.033	1230.939	1123.747
905.575	21.028	1229.889	1122.626
906.589	21.187	1229.094	1122.792
907.604	21.009	1228.847	1121.279
