DTS Sentinel unit serial number:	SN409020Multiplexer serial number:	ORYXHardware model number:	OX4-SRSoftware version number:	ORYX F/W v3.00 Oryx Data Collector v3.7.2.0data status	okinstallation	HaddamTimeLapsedifferential loss correction	single-endedforward channel	channel 3reverse channel	N/Adate	2011/06/21time	17:16:17forward acquisition time	30.00reverse acquisition time	0.00gamma	498.7831k internal	0.1804k external	0.1804temperature offset calibration	1.0074default loss term (dB/km)	0.3790temperature slope calibration	1.3530multiplexer offset coefficient	1.0000multiplexer slope coefficient	1.0000fibre end	0.00T internal ref (°C)	33.06T ext. ref 1 (°C)	29.99T ext. ref 2 (°C)	0.25length (m)	temperature (°C)	Stokes	anti-Stokes-747.200	-21.424	-0.387	0.304
-746.185	356.369	-0.267	0.690
-745.171	-139.771	-0.569	-0.077
-744.156	-128.764	-0.314	0.057
-743.142	-45.813	-0.117	0.075
-742.127	-61.489	-0.065	0.035
-741.112	621.065	-0.039	0.128
-740.098	-200.000	0.061	0.357
-739.083	121.478	-0.265	-0.427
-738.069	125.562	-0.292	0.476
-737.054	-200.000	0.040	0.292
-736.039	-123.264	0.312	0.064
-735.025	6.656	-0.177	0.170
-734.010	-71.750	-0.422	0.202
-732.996	-29.316	0.182	-0.134
-731.981	196.866	0.142	0.279
-730.966	-133.891	0.202	-0.032
-729.952	308.135	-0.169	0.409
-728.937	-200.000	0.038	-0.234
-727.923	-90.629	-0.326	-0.121
-726.908	356.718	0.189	0.486
-725.894	-200.000	0.049	0.508
-724.879	234.251	-0.231	0.492
-723.864	113.734	0.096	0.151
-722.850	143.883	0.074	0.128
-721.835	-120.965	-0.176	0.038
-720.821	-32.144	-0.017	-0.012
-719.806	63.167	-0.255	-0.329
-718.791	-91.224	-0.432	-0.158
-717.777	-85.848	-0.299	-0.119
-716.762	-25.643	-0.268	-0.203
-715.748	-91.448	-0.306	0.112
-714.733	30.987	-0.165	-0.182
-713.718	800.000	-0.049	0.239
-712.704	-115.174	0.189	-0.046
-711.689	322.214	0.026	-0.063
-710.675	-200.000	-0.018	0.295
-709.660	111.463	-0.196	0.304
-708.645	74.014	-0.038	0.051
-707.631	-81.239	0.096	0.040
-706.616	800.000	-0.014	-0.068
-705.602	-200.000	-0.051	-0.410
-704.587	-136.926	-0.381	-0.056
-703.572	496.728	0.093	-0.278
-702.558	-111.268	-0.046	0.012
-701.543	139.044	0.248	-0.420
-700.529	182.191	-0.157	-0.298
-699.514	299.178	-0.110	-0.262
-698.499	-161.450	-0.521	0.034
-697.485	-10.355	-0.276	-0.235
-696.470	598.496	-0.101	-0.323
-695.456	-59.421	-0.084	0.046
-694.441	-121.367	0.262	0.056
-693.426	3.196	-0.263	-0.246
-692.412	-69.414	-0.243	-0.120
-691.397	800.000	-0.063	0.323
-690.383	800.000	0.098	0.423
-689.368	-58.199	-0.598	-0.334
-688.354	-55.258	0.374	-0.216
-687.339	-77.398	0.066	-0.029
-686.324	-5.022	-0.195	0.172
-685.310	-67.205	-0.134	0.068
-684.295	-83.351	0.296	0.121
-683.281	800.000	-0.062	0.231
-682.266	72.573	-0.391	-0.525
-681.251	-200.000	0.072	-0.450
-680.237	-200.000	-0.004	-0.268
-679.222	17.569	0.247	-0.253
-678.208	79.041	-0.293	0.404
-677.193	-90.789	0.509	0.188
-676.178	50.033	0.199	-0.241
-675.164	-72.871	-0.424	0.200
-674.149	397.963	-0.178	-0.480
-673.135	-188.351	-0.099	0.002
-672.120	-93.576	0.243	-0.086
-671.105	-108.835	-0.434	0.119
-670.091	-17.040	-0.141	0.114
-669.076	-200.000	0.051	0.396
-668.062	-49.637	-0.294	-0.179
-667.047	-13.527	-0.204	0.170
-666.032	-1.033	0.072	0.065
-665.018	800.000	-0.016	-0.058
-664.003	203.717	-0.052	0.103
-662.989	-88.397	-0.358	-0.137
-661.974	-111.037	-0.099	0.026
-660.959	-53.406	-0.121	-0.071
-659.945	-91.537	0.324	0.118
-658.930	-8.017	-0.076	-0.066
-657.916	-91.785	0.225	-0.082
-656.901	-116.725	0.172	0.040
-655.886	-61.802	-0.088	0.047
-654.872	-84.594	-0.046	-0.019
-653.857	-177.365	-0.573	-0.018
-652.843	-25.095	0.207	0.158
-651.828	359.416	-0.168	0.434
-650.814	-83.825	-0.257	-0.105
-649.799	-11.627	-0.437	-0.369
-648.784	-110.069	-0.660	-0.176
-647.770	-9.504	-0.269	-0.230
-646.755	-36.537	0.449	0.309
-645.741	87.305	0.248	0.352
-644.726	255.928	-0.194	0.428
-643.711	-84.722	0.319	0.128
-642.697	-51.278	0.361	0.217
-641.682	-76.919	-0.632	-0.282
-640.668	-87.130	-0.436	-0.170
-639.653	-200.000	0.055	-0.323
-638.638	-77.397	-0.456	-0.203
-637.624	606.624	0.092	-0.295
-636.609	-77.655	-0.403	-0.178
-635.595	105.120	-0.482	-0.732
-634.580	-5.074	0.112	-0.099
-633.565	211.397	0.187	0.379
-632.551	109.886	0.104	-0.161
-631.536	18.666	-0.246	-0.253
-630.522	17.089	0.327	-0.332
-629.507	-131.165	-0.354	0.060
-628.492	-43.000	-0.295	-0.192
-627.478	182.225	-0.192	-0.364
-626.463	168.334	0.217	-0.399
-625.449	631.509	-0.058	0.190
-624.434	-121.542	-0.321	0.068
-623.419	88.658	0.131	0.188
-622.405	-200.000	0.035	0.380
-621.390	397.138	0.119	0.320
-620.376	800.000	-0.082	0.367
-619.361	-200.000	-0.037	0.284
-618.346	104.097	0.313	-0.473
-617.332	-110.168	-0.190	0.050
-616.317	-145.416	-0.089	-0.010
-615.303	800.000	0.047	0.184
-614.288	800.000	-0.070	-0.394
-613.273	59.275	-0.219	-0.277
-612.259	-97.030	-0.102	-0.034
-611.244	-200.000	-0.018	-0.172
-610.230	-200.000	0.035	-0.401
-609.215	-8.117	0.368	-0.318
-608.201	330.014	-0.168	-0.416
-607.186	-87.954	-0.302	0.116
-606.171	113.985	-0.158	-0.247
-605.157	-64.649	-0.401	-0.208
-604.142	15.275	-0.059	-0.059
-603.128	-148.248	0.465	-0.049
-602.113	-156.244	0.335	0.027
-601.098	-81.764	-0.163	-0.068
-600.084	-134.712	0.242	0.037
-599.069	140.354	0.152	0.257
-598.055	800.000	0.028	0.131
-597.040	-162.262	-0.348	-0.022
-596.025	139.551	0.153	0.259
-595.011	51.523	0.053	0.064
-593.996	-83.405	0.385	-0.157
-592.982	-92.693	-0.429	-0.153
-591.967	-134.751	0.165	-0.025
-590.952	73.815	-0.148	-0.199
-589.938	-200.000	0.014	-0.115
-588.923	-200.000	-0.016	0.156
-587.909	800.000	0.031	-0.171
-586.894	-37.224	-0.294	-0.201
-585.879	-115.858	0.280	-0.066
-584.865	-109.089	-0.229	0.062
-583.850	-66.525	0.589	-0.298
-582.836	800.000	-0.085	-0.302
-581.821	197.862	-0.157	0.308
-580.806	-48.987	0.291	-0.178
-579.792	-200.000	0.005	0.375
-578.777	-136.476	-0.422	0.062
-577.763	-74.278	0.389	0.179
-576.748	58.144	0.282	0.355
-575.733	-22.107	-0.845	0.656
-574.719	414.227	0.012	0.032
-573.704	-63.103	0.410	-0.216
-572.690	33.618	0.115	0.128
-571.675	-200.000	0.021	-0.347
-570.661	470.699	0.152	0.440
-569.646	-199.393	0.188	0.001
-568.631	-200.000	-0.038	0.272
-567.617	151.981	-0.208	0.364
-566.602	104.922	0.128	-0.194
-565.588	-98.757	-0.194	-0.063
-564.573	-161.432	-0.217	0.014
-563.558	-187.610	-0.243	0.004
-562.544	110.354	-0.088	-0.136
-561.529	-125.870	-0.384	-0.074
-560.515	-71.902	-0.288	0.137
-559.500	-85.650	0.331	-0.131
-558.485	-69.142	-0.651	0.319
-557.471	-93.303	-0.529	-0.187
-556.456	-148.036	-0.195	-0.020
-555.442	-26.639	0.328	-0.245
-554.427	-200.000	-0.029	-0.236
-553.412	-107.359	-0.387	-0.108
-552.398	-104.338	0.314	0.092
-551.383	-105.046	0.597	-0.174
-550.369	239.152	0.091	-0.195
-549.354	-109.273	0.415	0.112
-548.339	800.000	-0.036	0.146
-547.325	-128.933	0.366	0.065
-546.310	76.200	0.107	0.145
-545.296	38.422	-0.046	0.052
-544.281	169.887	0.174	-0.319
-543.266	-200.000	-0.020	-0.527
-542.252	-91.533	-0.116	-0.042
-541.237	-200.000	0.043	0.262
-540.223	-80.064	-0.360	0.154
-539.208	-36.729	-0.281	0.193
-538.193	273.947	0.161	-0.365
-537.179	-48.493	-0.244	-0.150
-536.164	-119.009	0.229	0.051
-535.150	33.454	0.115	-0.127
-534.135	-8.298	0.206	-0.177
-533.121	-111.201	-0.276	0.072
-532.106	-81.777	0.259	-0.108
-531.091	-200.000	0.022	0.333
-530.077	617.740	0.026	0.082
-529.062	-122.657	-0.418	0.086
-528.048	-119.095	0.234	0.052
-527.033	-1.576	0.384	-0.346
-526.018	-25.720	-0.099	-0.075
-525.004	50.703	-0.136	-0.164
-523.989	373.573	0.044	0.114
-522.975	65.125	-0.401	-0.518
-521.960	-200.000	0.065	-0.517
-520.945	120.625	0.237	0.377
-519.931	582.526	0.066	-0.209
-518.916	42.662	-0.243	0.283
-517.902	127.133	0.105	0.170
-516.887	-37.416	0.262	-0.179
-515.872	-24.454	-0.397	-0.301
-514.858	-88.320	0.271	-0.103
-513.843	682.163	-0.061	0.204
-512.829	25.551	-0.198	0.211
-511.814	-57.293	-0.512	-0.287
-510.799	800.000	-0.051	0.266
-509.785	800.000	0.054	0.264
-508.770	770.658	0.046	0.161
-507.756	155.360	-0.201	-0.354
-506.741	-102.087	0.135	-0.041
-505.726	-152.006	-0.305	-0.028
-504.712	-200.000	-0.001	-0.430
-503.697	689.000	0.051	-0.171
-502.683	18.792	-0.198	0.202
-501.668	-48.926	0.483	0.294
-500.653	71.839	0.055	-0.073
-499.639	-156.237	-0.481	-0.038
-498.624	-128.459	-0.123	0.022
-497.610	-102.035	0.085	-0.026
-496.595	-87.883	-0.242	-0.092
-495.581	-127.052	-0.077	-0.014
-494.566	59.633	-0.212	-0.268
-493.551	-118.467	0.506	0.113
-492.537	197.007	-0.247	-0.483
-491.522	-158.943	-0.207	0.015
-490.508	-143.033	0.408	-0.050
-489.493	-200.000	-0.014	0.127
-488.478	800.000	0.129	0.522
-487.464	65.329	0.174	0.224
-486.449	-169.014	-0.146	0.007
-485.435	185.747	-0.093	0.177
-484.420	194.515	0.163	-0.317
-483.405	-89.395	0.392	0.147
-482.391	-194.368	0.320	0.003
-481.376	-93.159	0.402	0.142
-480.362	-136.218	-0.034	-0.005
-479.347	4.720	-0.250	-0.234
-478.332	-70.577	0.227	0.109
-477.318	-97.704	0.431	0.141
-476.303	597.857	0.082	0.260
-475.289	-72.654	-0.194	0.091
-474.274	-200.000	0.034	-0.391
-473.259	2.299	0.135	0.124
-472.245	57.996	0.246	-0.308
-471.230	512.890	-0.094	0.282
-470.216	-65.937	0.219	0.111
-469.201	793.385	-0.063	0.223
-468.186	-49.728	-0.249	-0.151
-467.172	232.997	0.114	0.241
-466.157	-47.555	-0.035	0.021
-465.143	-108.579	0.225	0.061
-464.128	-200.000	0.060	0.653
-463.113	125.155	-0.201	0.323
-462.099	72.583	-0.033	0.044
-461.084	470.793	0.090	0.261
-460.070	-68.719	-0.052	-0.026
-459.055	-101.289	0.179	0.055
-458.040	-54.856	-0.220	-0.126
-457.026	-135.783	0.636	0.095
-456.011	800.000	0.071	0.362
-454.997	-8.425	0.226	-0.194
-453.982	-127.093	-0.223	-0.041
-452.968	-107.245	-0.527	0.147
-451.953	690.304	-0.043	0.144
-450.938	-40.051	0.274	0.182
-449.924	84.909	0.027	0.038
-448.909	-31.596	0.183	-0.130
-447.895	-200.000	-0.053	0.367
-446.880	-200.000	0.040	0.487
-445.865	57.084	0.101	-0.125
-444.851	625.799	-0.057	0.184
-443.836	-78.787	-0.208	-0.090
-442.822	-200.000	0.025	-0.543
-441.807	-56.085	0.215	0.122
-440.792	120.958	0.221	-0.351
-439.778	7.488	0.106	0.101
-438.763	-117.958	-0.039	0.009
-437.749	-24.649	-0.269	-0.203
-436.734	-89.421	-0.262	0.098
-435.719	-37.676	-0.109	-0.074
-434.705	-100.570	-0.497	-0.155
-433.690	203.252	0.218	-0.431
-432.676	-200.000	-0.002	0.137
-431.661	-116.250	-0.154	-0.036
-430.646	-3.938	0.233	0.205
-429.632	305.292	-0.053	0.125
-428.617	123.263	0.129	-0.207
-427.603	100.914	0.227	-0.336
-426.588	-38.360	-0.208	-0.140
-425.573	154.444	0.118	0.207
-424.559	8.346	0.113	-0.108
-423.544	-141.193	-0.398	0.051
-422.530	737.119	-0.080	-0.273
-421.515	-126.221	-0.232	-0.044
-420.500	-49.307	-0.385	0.233
-419.486	5.620	-0.302	0.284
-418.471	26.147	0.326	0.346
-417.457	-57.364	-0.305	0.170
-416.442	-80.159	-0.034	0.014
-415.428	192.289	0.306	0.590
-414.413	-200.000	-0.028	0.190
-413.398	-200.000	-0.002	-0.197
-412.384	-99.671	-0.780	-0.248
-411.369	-71.798	-0.626	-0.296
-410.355	-200.000	0.011	-0.138
-409.340	-134.538	0.154	0.024
-408.325	-116.774	0.361	-0.084
-407.311	-200.000	0.011	-0.179
-406.296	367.422	-0.045	-0.117
-405.282	-200.000	-0.052	-0.472
-404.267	800.000	-0.061	0.222
-403.252	68.962	-0.303	0.397
-402.238	-200.000	0.027	0.277
-401.223	104.028	0.003	-0.004
-400.209	-57.027	-0.214	0.120
-399.194	148.203	-0.119	-0.205
-398.179	-175.429	0.386	0.013
-397.165	-155.514	0.347	0.028
-396.150	-150.573	-0.540	-0.052
-395.136	-93.769	-0.177	0.062
-394.121	753.083	0.067	0.232
-393.106	-200.000	-0.003	0.319
-392.092	-200.000	-0.013	0.142
-391.077	135.707	0.017	-0.027
-390.063	141.728	0.128	0.216
-389.048	-200.000	-0.004	0.343
-388.033	-114.564	0.385	0.093
-387.019	-117.983	0.666	0.150
-386.004	-119.178	0.352	0.078
-384.990	800.000	0.116	0.473
-383.975	32.779	-0.273	-0.300
-382.960	45.194	-0.163	0.191
-381.946	169.900	0.131	-0.239
-380.931	103.236	0.173	0.258
-379.917	74.267	0.309	0.413
-378.902	-122.083	0.761	-0.157
-377.888	-63.569	0.199	0.103
-376.873	-93.721	-0.279	-0.097
-375.858	35.353	-0.469	0.523
-374.844	-65.774	-0.186	-0.094
-373.829	-127.878	0.289	0.052
-372.815	18.159	0.383	0.388
-371.800	-89.629	0.495	0.183
-370.785	145.024	-0.261	-0.445
-369.771	-45.709	0.242	-0.152
-368.756	800.000	0.065	-0.247
-367.742	-26.608	-0.425	-0.316
-366.727	-200.000	-0.037	0.264
-365.712	800.000	0.138	0.489
-364.698	-155.124	0.419	-0.034
-363.683	163.318	-0.121	-0.217
-362.669	135.146	-0.080	0.132
-361.654	6.068	0.219	0.206
-360.639	-150.084	-0.229	0.022
-359.625	-200.000	0.016	0.145
-358.610	49.036	-0.072	0.086
-357.596	64.081	0.057	-0.073
-356.581	463.698	0.056	-0.160
-355.566	-200.000	0.076	-0.465
-354.552	800.000	0.040	-0.172
-353.537	272.315	0.071	0.160
-352.523	417.456	0.104	0.283
-351.508	88.936	-0.148	0.209
-350.493	800.000	-0.024	-0.120
-349.479	100.435	0.126	-0.186
-348.464	-200.000	0.112	0.753
-347.450	-139.539	0.086	0.012
-346.435	-34.046	0.264	0.184
-345.420	800.000	-0.048	-0.207
-344.406	-52.854	-0.051	0.030
-343.391	620.249	0.140	-0.448
-342.377	-141.037	0.599	0.077
-341.362	-110.051	0.278	0.073
-340.348	-27.512	0.390	0.287
-339.333	-135.254	0.261	0.039
-338.318	1.550	-0.224	0.205
-337.304	-59.568	-0.438	-0.238
-336.289	188.860	-0.157	-0.300
-335.275	-200.000	0.431	0.001
-334.260	393.524	-0.110	-0.292
-333.245	168.731	0.122	-0.222
-332.231	-191.855	-0.468	0.006
-331.216	12.751	0.345	0.338
-330.202	691.758	0.122	0.407
-329.187	108.775	-0.183	0.277
-328.172	-95.536	-0.495	0.167
-327.158	7.298	0.361	-0.341
-326.143	557.898	-0.067	-0.205
-325.129	377.931	-0.048	0.124
-324.114	-24.428	-0.362	-0.273
-323.099	156.971	-0.198	-0.349
-322.085	-88.763	0.467	0.175
-321.070	385.307	0.048	-0.127
-320.056	-128.854	0.461	-0.081
-319.041	46.773	0.030	0.036
-318.026	-200.000	0.049	0.293
-317.012	-12.874	-0.053	-0.043
-315.997	68.317	-0.103	-0.134
-314.983	39.245	-0.323	-0.367
-313.968	-200.000	-0.023	-0.301
-312.953	263.584	-0.069	0.152
-311.939	28.415	0.230	0.247
-310.924	-107.801	0.424	0.116
-309.910	11.616	0.105	-0.102
-308.895	-200.000	0.049	0.362
-307.880	-200.000	-0.006	0.164
-306.866	14.160	0.202	0.199
-305.851	193.017	0.084	0.161
-304.837	182.024	-0.205	-0.384
-303.822	-84.283	-0.265	0.106
-302.807	-96.892	-0.133	-0.044
-301.793	-131.845	0.285	-0.047
-300.778	124.380	-0.068	0.108
-299.764	72.738	-0.159	0.210
-298.749	-35.866	-0.081	-0.056
-297.735	-143.693	-0.471	0.056
-296.720	-200.000	0.030	0.201
-295.705	-119.234	0.190	-0.042
-294.691	68.546	0.164	-0.213
-293.676	-73.202	-0.119	0.055
-292.662	-200.000	-0.007	-0.339
-291.647	800.000	-0.079	-0.416
-290.632	206.682	0.141	-0.279
-289.618	207.560	-0.329	-0.653
-288.603	-38.562	0.144	-0.096
-287.589	-200.000	-0.030	-0.258
-286.574	-61.276	0.446	0.237
-285.559	-143.117	-0.443	-0.053
-284.545	17.378	0.189	0.190
-283.530	-68.413	0.074	-0.036
-282.516	64.970	-0.224	0.287
-281.501	201.354	0.075	0.147
-280.486	-48.422	0.507	-0.308
-279.472	-149.951	-0.502	0.049
-278.457	-39.522	-0.150	-0.100
-277.443	-92.198	-0.538	-0.191
-276.428	191.529	-0.177	0.339
-275.413	-200.000	0.039	0.267
-274.399	-29.120	-0.174	0.126
-273.384	-73.936	0.295	-0.135
-272.370	99.273	-0.081	0.118
-271.355	-98.125	-0.159	-0.051
-270.340	-118.469	0.189	0.042
-269.326	63.758	0.404	0.515
-268.311	87.682	0.040	-0.056
-267.297	-32.964	0.326	-0.229
-266.282	-30.731	-0.350	-0.250
-265.267	45.218	-0.381	-0.445
-264.253	-52.324	0.707	0.413
-263.238	-50.328	0.245	0.146
-262.224	800.000	0.099	-0.518
-261.209	101.215	0.060	-0.089
-260.195	-168.203	0.416	0.020
-259.180	-92.759	0.402	-0.142
-258.165	566.859	-0.122	0.376
-257.151	72.300	0.274	0.362
-256.136	-200.000	0.020	-0.280
-255.122	-58.040	0.281	-0.155
-254.107	-95.189	-0.305	-0.103
-253.092	-186.142	0.205	0.004
-252.078	-59.322	-0.419	0.227
-251.063	-126.556	-0.447	-0.083
-250.049	-131.911	-0.170	-0.028
-249.034	-51.075	-0.219	-0.129
-248.019	-92.641	-0.389	-0.137
-247.005	247.688	0.154	-0.329
-245.990	137.627	0.183	-0.304
-244.976	-89.070	0.254	-0.094
-243.961	313.474	0.102	0.244
-242.946	-66.793	0.206	0.103
-241.932	-200.000	0.000	-0.238
-240.917	800.000	0.015	-0.060
-239.903	251.663	-0.075	0.162
-238.888	-66.585	0.313	-0.156
-237.873	-128.203	0.277	0.050
-236.859	-8.395	0.359	0.304
-235.844	232.321	0.039	-0.081
-234.830	191.319	0.202	-0.385
-233.815	267.863	-0.123	0.274
-232.800	-81.270	-0.476	-0.198
-231.786	-81.697	-0.252	-0.104
-230.771	-63.103	-0.417	-0.217
-229.757	-171.657	-0.522	0.021
-228.742	-6.435	0.044	0.037
-227.727	714.674	-0.076	-0.258
-226.713	209.614	-0.073	0.146
-225.698	566.958	0.017	-0.052
-224.684	254.354	0.134	-0.292
-223.669	800.000	0.141	-0.551
-222.655	280.026	0.113	0.257
-221.640	800.000	-0.070	0.378
-220.625	40.206	0.099	0.113
-219.611	-200.000	0.011	-0.196
-218.596	-200.000	-0.024	0.460
-217.582	9.024	-0.141	0.134
-216.567	68.285	-0.402	0.520
-215.552	-63.515	0.367	-0.190
-214.538	48.388	0.110	-0.130
-213.523	-28.684	-0.219	0.159
-212.509	-200.000	0.048	0.312
-211.494	756.329	-0.029	-0.098
-210.479	-134.376	0.213	0.033
-209.465	-36.784	0.347	0.234
-208.450	-200.000	0.008	-0.333
-207.436	-106.105	-0.126	-0.036
-206.421	-100.375	-0.377	-0.117
-205.406	-12.385	0.057	-0.047
-204.392	-79.880	0.314	0.133
-203.377	-160.547	-0.421	0.028
-202.363	-200.000	0.027	0.386
-201.348	9.233	0.223	0.213
-200.333	800.000	-0.046	-0.179
-199.319	-200.000	-0.046	0.371
-198.304	378.364	0.117	-0.303
-197.290	-200.000	-0.022	-0.618
-196.275	-51.592	-0.283	-0.166
-195.260	51.189	-0.313	-0.376
-194.246	143.838	-0.177	0.298
-193.231	696.571	0.101	0.338
-192.217	452.265	-0.129	-0.360
-191.202	174.046	0.152	0.278
-190.187	-171.376	-0.439	0.018
-189.173	-114.007	-0.343	0.083
-188.158	79.012	-0.149	-0.202
-187.144	-29.429	0.214	-0.154
-186.129	-138.520	0.346	0.048
-185.114	532.290	-0.095	0.284
-184.100	-92.392	-0.279	-0.098
-183.085	72.155	-0.188	0.248
-182.071	-30.018	-0.350	0.251
-181.056	-169.310	0.540	0.025
-180.042	800.000	0.065	0.354
-179.027	-119.419	0.054	0.012
-178.012	16.671	0.205	0.205
-176.998	800.000	0.074	-0.282
-175.983	-98.022	0.300	-0.097
-174.969	15.462	0.047	0.047
-173.954	-200.000	0.006	-0.050
-172.939	534.024	0.072	-0.216
-171.925	131.915	0.087	-0.142
-170.910	10.379	0.178	0.171
-169.896	59.143	-0.321	0.399
-168.881	-200.000	0.031	-0.348
-167.866	-200.000	-0.048	-0.375
-166.852	-134.263	0.095	-0.015
-165.837	-53.994	-0.107	0.061
-164.823	-191.872	0.220	-0.003
-163.808	472.222	0.113	0.323
-162.793	-54.829	0.186	-0.105
-161.779	20.321	0.196	-0.199
-160.764	-200.000	0.006	-0.128
-159.750	71.748	-0.072	0.095
-158.735	-67.780	-0.279	-0.137
-157.720	-154.539	0.130	0.011
-156.706	-91.044	-0.208	0.075
-155.691	88.133	0.053	0.074
-154.677	-40.759	0.283	0.184
-153.662	-173.291	-0.120	-0.005
-152.647	-131.357	-0.582	0.096
-151.633	-12.919	0.353	0.289
-150.618	9.794	0.296	-0.282
-149.604	800.000	-0.077	-0.357
-148.589	-111.939	0.230	0.058
-147.574	-23.738	0.228	-0.172
-146.560	-76.345	0.343	-0.151
-145.545	36.574	-0.217	-0.242
-144.531	482.088	0.064	-0.184
-143.516	431.968	-0.080	0.221
-142.502	58.763	-0.321	-0.398
-141.487	800.000	-0.017	-0.077
-140.472	11.258	-0.042	0.040
-139.458	-136.395	0.177	-0.026
-138.443	-6.088	-0.300	-0.258
-137.429	-102.019	0.194	-0.059
-136.414	81.581	-0.123	-0.167
-135.399	-170.298	0.335	-0.015
-134.385	386.587	0.104	0.271
-133.370	364.734	0.166	0.423
-132.356	-76.930	-0.380	0.166
-131.341	-62.724	-0.372	-0.193
-130.326	49.691	-0.282	0.335
-129.312	-115.331	-0.384	0.091
-128.297	-74.449	0.597	-0.270
-127.283	588.603	0.059	-0.185
-126.268	-200.000	-0.017	-0.105
-125.253	-62.502	-0.300	0.156
-124.239	138.691	0.084	0.140
-123.224	4.940	-0.414	-0.383
-122.210	-160.933	0.257	0.017
-121.195	-58.192	-0.357	0.195
-120.180	-163.283	-0.274	0.016
-119.166	800.000	0.029	0.129
-118.151	-190.543	0.287	-0.004
-117.137	-52.148	0.180	-0.105
-116.122	36.391	-0.043	0.048
-115.107	16.306	-0.152	-0.151
-114.093	-30.432	0.376	-0.268
-113.078	-151.337	-0.437	0.040
-112.064	-134.867	0.323	0.049
-111.049	-200.000	-0.017	0.230
-110.034	799.933	0.154	0.537
-109.020	23.427	-0.237	0.245
-108.005	-137.941	-0.305	0.042
-106.991	-65.330	0.334	-0.168
-105.976	-52.545	0.268	0.155
-104.962	246.734	-0.122	-0.259
-103.947	550.962	-0.028	-0.085
-102.932	-116.799	0.177	-0.040
-101.918	13.505	-0.068	0.066
-100.903	-103.743	0.700	0.205
-99.889	-185.643	0.214	-0.004
-98.874	314.837	-0.017	-0.041
-97.859	-175.420	0.131	0.004
-96.845	23.258	0.310	0.320
-95.830	-81.619	-0.192	-0.079
-94.816	9.109	0.148	0.140
-93.801	64.670	-0.146	-0.185
-92.786	800.000	0.076	-0.320
-91.772	189.451	-0.116	-0.220
-90.757	-163.244	0.381	0.023
-89.743	-5.250	0.121	0.105
-88.728	173.094	0.109	-0.199
-87.713	65.624	0.068	-0.086
-86.699	-200.000	-0.002	0.302
-85.684	-200.000	-0.014	0.114
-84.670	-43.517	-0.180	-0.114
-83.655	-124.156	0.204	0.040
-82.640	-200.000	-0.024	0.273
-81.626	-76.822	0.261	-0.114
-80.611	158.200	-0.095	0.166
-79.597	-75.801	0.177	-0.078
-78.582	-89.444	0.637	-0.234
-77.567	800.000	0.065	0.333
-76.553	-102.472	-0.505	0.151
-75.538	-55.554	0.260	0.146
-74.524	133.585	0.126	0.206
-73.509	-92.346	-0.485	0.171
-72.494	95.932	-0.281	0.404
-71.480	800.000	-0.085	0.372
-70.465	-200.000	0.004	0.155
-69.451	463.349	-0.063	0.178
-68.436	-3.513	-0.320	0.279
-67.422	800.000	-0.045	-0.212
-66.407	-65.864	-0.135	0.068
-65.392	-116.560	0.314	-0.072
-64.378	254.905	0.135	0.291
-63.363	-186.412	0.393	-0.007
-62.349	-184.640	-0.303	0.006
-61.334	-12.791	-1.452	-1.186
-60.319	529.662	0.404	1.205
-59.305	231.211	-2.792	-5.760
-58.290	21.448	3.123	3.187
-57.276	408.562	4.109	10.966
-56.261	-200.000	14.125	228.564
-55.246	463.197	1167.415	3288.736
-54.232	62.583	2809.428	3526.736
-53.217	70.746	2711.371	3525.678
-52.203	69.315	2443.703	3158.300
-51.188	36.653	2099.124	2326.691
-50.173	36.506	1973.622	2185.828
-49.159	34.197	1962.786	2147.590
-48.144	33.565	1958.228	2135.366
-47.130	33.412	1955.796	2130.903
-46.115	33.297	1954.435	2128.034
-45.100	33.332	1952.335	2126.059
-44.086	33.323	1950.964	2124.381
-43.071	33.275	1950.040	2122.744
-42.057	33.241	1949.080	2121.232
-41.042	33.299	1947.038	2119.584
-40.027	33.397	1945.654	2119.092
-39.013	33.288	1944.332	2116.343
-37.998	33.277	1942.354	2113.978
-36.984	33.108	1942.133	2111.759
-35.969	33.229	1940.161	2110.890
-34.954	33.229	1938.843	2109.370
-33.940	33.156	1937.597	2107.114
-32.925	33.257	1935.964	2106.387
-31.911	33.227	1934.628	2104.509
-30.896	33.104	1933.669	2102.007
-29.881	33.270	1932.066	2102.039
-28.867	33.074	1930.590	2098.167
-27.852	33.121	1928.944	2096.819
-26.838	33.112	1927.874	2095.465
-25.823	33.121	1926.617	2094.119
-24.809	33.006	1925.415	2091.449
-23.794	33.093	1923.779	2090.559
-22.779	33.111	1922.936	2089.762
-21.765	33.017	1922.013	2087.623
-20.750	33.075	1920.214	2086.234
-19.736	33.041	1918.900	2084.349
-18.721	33.022	1917.640	2082.688
-17.706	33.117	1916.119	2081.999
-16.692	33.017	1915.010	2079.606
-15.677	32.990	1914.118	2078.262
-14.663	33.019	1912.502	2076.745
-13.648	32.928	1911.406	2074.469
-12.633	32.881	1909.985	2072.323
-11.619	32.825	1908.757	2070.290
-10.604	33.030	1907.379	2070.969
-9.590	32.956	1906.763	2069.401
-8.575	32.849	1905.767	2067.064
-7.560	32.982	1903.518	2066.002
-6.546	32.995	1902.990	2065.488
-5.531	32.815	1901.997	2062.358
-4.517	32.826	1900.398	2060.663
-3.502	32.985	1899.586	2061.446
-2.487	33.061	1898.138	2060.627
-1.473	33.349	1895.116	2060.415
-0.458	34.161	1877.937	2050.446
0.556	31.855	2017.562	2163.314
1.571	31.083	2236.786	2388.162
2.586	32.690	2284.223	2459.611
3.600	32.672	2286.460	2461.493
4.615	32.715	2286.045	2461.307
5.629	32.773	2283.808	2459.366
6.644	32.921	2282.237	2459.326
7.659	33.019	2280.726	2458.680
8.673	32.920	2279.706	2455.993
9.688	32.556	2283.423	2454.938
10.702	30.139	2355.522	2499.433
11.717	26.487	2417.923	2514.429
12.731	13.181	2382.082	2292.487
13.746	2.098	2351.912	2109.869
14.761	0.469	2346.165	2081.878
15.775	0.232	2344.897	2077.222
16.790	0.184	2342.856	2074.499
17.804	0.176	2342.104	2073.479
18.819	0.185	2340.827	2072.219
19.834	0.045	2340.039	2069.346
20.848	0.150	2337.575	2068.367
21.863	0.180	2335.815	2066.971
22.877	0.063	2333.724	2063.270
23.892	0.160	2331.137	2062.063
24.907	0.196	2328.518	2059.991
25.921	0.074	2327.251	2056.948
26.936	0.159	2324.996	2055.876
27.950	0.070	2322.911	2052.565
28.965	0.193	2319.583	2051.065
29.980	0.167	2318.828	2049.795
30.994	0.334	2318.124	2051.220
32.009	6.921	2341.388	2162.348
33.023	23.555	2392.804	2441.563
34.038	33.075	2414.771	2595.860
35.053	34.703	2416.053	2619.395
36.067	34.536	2411.263	2611.590
37.082	34.065	2408.291	2601.581
38.096	34.157	2406.550	2600.652
39.111	34.706	2406.231	2607.532
40.126	34.526	2404.403	2602.774
41.140	34.818	2403.772	2605.787
42.155	34.464	2400.213	2596.764
43.169	34.126	2397.452	2588.847
44.184	34.481	2395.641	2591.429
45.199	34.441	2394.072	2588.874
46.213	34.158	2391.012	2581.396
47.228	33.974	2389.578	2577.043
48.242	34.424	2389.351	2582.614
49.257	34.609	2388.900	2584.342
50.271	34.895	2386.859	2585.701
51.286	35.060	2384.087	2584.630
52.301	34.473	2380.410	2572.384
53.315	33.043	2375.887	2547.818
54.330	30.447	2363.379	2499.044
55.344	28.600	2356.483	2466.534
56.359	28.517	2353.394	2461.878
57.374	28.260	2351.908	2456.567
58.388	28.161	2348.210	2451.085
59.403	28.119	2344.702	2446.559
60.417	28.465	2341.892	2447.982
61.432	28.624	2340.825	2448.708
62.447	28.332	2339.092	2442.686
63.461	28.338	2335.843	2439.076
64.476	28.256	2333.088	2434.817
65.490	28.630	2334.569	2441.064
66.505	29.262	2335.634	2450.345
67.520	30.553	2339.660	2471.542
68.534	32.236	2340.216	2494.299
69.549	32.691	2338.127	2497.838
70.563	33.011	2336.916	2500.510
71.578	33.361	2336.924	2504.873
72.593	34.284	2338.386	2518.407
73.607	34.652	2337.733	2522.287
74.622	34.333	2334.870	2514.672
75.636	33.758	2330.172	2501.702
76.651	33.819	2328.351	2500.245
77.666	34.357	2327.748	2506.416
78.680	34.404	2326.096	2504.955
79.695	34.187	2323.438	2498.928
80.709	33.566	2320.212	2486.985
81.724	33.576	2319.719	2486.292
82.739	34.611	2318.754	2498.579
83.753	35.405	2318.667	2508.623
84.768	34.983	2315.417	2499.273
85.782	34.674	2315.136	2494.615
86.797	34.946	2313.451	2496.064
87.812	34.389	2310.785	2485.590
88.826	34.437	2307.944	2482.869
89.841	35.096	2307.894	2491.137
90.855	35.718	2306.903	2497.900
91.870	34.739	2302.085	2479.621
92.884	34.519	2301.432	2475.747
93.899	35.194	2300.730	2483.488
94.914	33.782	2294.264	2457.860
95.928	30.276	2283.432	2400.463
96.943	29.274	2280.449	2384.023
97.957	32.586	2289.545	2436.386
98.972	35.057	2291.989	2470.802
99.987	34.429	2287.276	2457.294
101.001	34.218	2284.706	2451.499
102.016	34.276	2283.338	2450.488
103.030	34.270	2280.581	2447.159
104.045	34.658	2278.929	2450.109
105.060	35.399	2278.838	2459.264
106.074	35.468	2276.453	2457.280
107.089	34.448	2271.912	2438.988
108.103	34.192	2271.550	2435.016
109.118	34.671	2271.209	2440.507
110.133	34.540	2268.695	2435.828
111.147	34.402	2266.049	2430.928
112.162	34.332	2264.946	2428.557
113.176	34.336	2262.029	2425.200
114.191	33.927	2259.378	2416.839
115.206	33.822	2257.430	2413.119
116.220	33.910	2254.580	2410.906
117.235	33.619	2250.989	2403.070
118.249	33.253	2248.823	2395.816
119.264	33.549	2249.269	2399.767
120.279	33.886	2247.950	2402.363
121.293	33.772	2244.835	2397.298
122.308	33.494	2242.643	2391.147
123.322	32.907	2240.320	2380.941
124.337	31.663	2235.335	2359.615
125.352	29.809	2229.206	2329.422
126.366	29.982	2230.034	2332.191
127.381	32.404	2232.757	2365.413
128.395	33.618	2233.186	2380.915
129.410	33.870	2231.679	2382.196
130.424	33.629	2229.004	2376.030
131.439	33.502	2227.491	2372.529
132.454	33.205	2224.936	2365.798
133.468	33.431	2223.591	2366.913
134.483	33.344	2221.553	2363.378
135.497	33.243	2220.494	2360.700
136.512	34.028	2220.980	2370.773
137.527	34.211	2218.972	2370.634
138.541	33.950	2217.347	2365.349
139.556	34.042	2215.282	2364.012
140.570	33.860	2214.229	2360.337
141.585	33.832	2211.436	2356.732
142.600	34.139	2210.735	2359.519
143.614	34.253	2211.200	2361.158
144.629	34.743	2210.831	2366.591
145.643	34.333	2207.187	2357.309
146.658	34.185	2204.196	2351.988
147.673	33.808	2201.106	2343.734
148.687	34.183	2202.088	2349.156
149.702	34.464	2201.450	2351.672
150.716	34.701	2201.242	2354.106
151.731	35.767	2202.822	2368.722
152.746	36.313	2202.014	2374.330
153.760	34.213	2193.876	2339.357
154.775	30.300	2181.981	2278.230
155.789	28.676	2178.442	2254.233
156.804	31.481	2184.127	2294.489
157.819	34.029	2186.083	2327.678
158.833	34.734	2186.511	2336.527
159.848	35.511	2185.684	2344.898
160.862	35.556	2184.419	2343.819
161.877	35.696	2183.442	2344.207
162.892	35.737	2183.259	2344.233
163.906	35.974	2182.046	2345.540
164.921	35.739	2178.760	2338.859
165.935	35.480	2175.698	2332.125
166.950	34.723	2172.655	2319.360
167.964	33.989	2168.129	2305.304
168.979	33.750	2166.201	2300.068
169.994	34.030	2166.370	2303.380
171.008	34.017	2163.247	2299.622
172.023	33.700	2162.343	2294.536
173.037	34.215	2162.407	2300.588
174.052	34.140	2159.668	2296.494
175.067	33.671	2155.470	2286.071
176.081	33.416	2153.754	2280.897
177.096	33.440	2153.010	2280.127
178.110	33.326	2151.279	2276.640
179.125	33.176	2149.220	2272.379
180.140	33.797	2148.879	2279.238
181.154	33.948	2148.134	2279.991
182.169	33.493	2146.457	2272.459
183.183	32.614	2141.375	2256.234
184.198	30.129	2132.886	2217.180
185.213	29.383	2131.535	2206.552
186.227	32.019	2138.548	2245.296
187.242	33.244	2137.525	2258.655
188.256	33.256	2136.227	2257.167
189.271	33.899	2136.594	2264.983
190.286	33.888	2135.135	2263.039
191.300	33.153	2130.763	2249.354
192.315	33.123	2128.318	2246.143
193.329	33.885	2128.862	2255.548
194.344	34.454	2129.070	2262.281
195.359	34.311	2127.222	2258.344
196.373	34.660	2126.662	2261.631
197.388	34.637	2123.518	2257.742
198.402	34.046	2120.673	2247.432
199.417	34.085	2119.252	2246.122
200.432	34.450	2118.272	2249.143
201.446	34.701	2118.064	2251.622
202.461	34.387	2115.002	2244.393
203.475	33.761	2111.662	2233.175
204.490	33.891	2110.085	2232.777
205.504	34.174	2107.860	2233.496
206.519	34.121	2105.313	2229.908
207.534	34.748	2106.525	2238.307
208.548	35.621	2106.663	2248.456
209.563	34.544	2102.776	2231.388
210.577	34.482	2103.014	2230.641
211.592	35.766	2104.302	2246.832
212.607	33.865	2096.946	2216.438
213.621	29.244	2083.886	2148.372
214.636	29.099	2084.650	2147.198
215.650	33.227	2093.543	2204.578
216.665	35.356	2095.982	2231.820
217.680	35.791	2095.503	2236.126
218.694	35.859	2093.201	2234.190
219.709	34.736	2089.137	2216.504
220.723	34.828	2088.334	2216.460
221.738	35.589	2089.522	2226.317
222.753	35.649	2086.526	2223.560
223.767	35.102	2082.528	2212.678
224.782	34.207	2077.820	2197.044
225.796	34.052	2077.005	2194.113
226.811	34.749	2077.595	2202.557
227.826	34.715	2075.592	2199.783
228.840	34.782	2074.131	2198.735
229.855	34.208	2072.086	2189.677
230.869	33.403	2067.030	2174.782
231.884	33.065	2066.674	2170.249
232.899	33.604	2065.413	2174.874
233.913	33.955	2065.476	2178.732
234.928	34.314	2065.662	2182.807
235.942	34.179	2063.187	2178.371
236.957	33.779	2060.873	2171.069
237.972	33.711	2060.373	2169.498
238.986	34.064	2059.205	2172.069
240.001	33.678	2055.362	2163.328
241.015	33.321	2052.887	2156.378
242.030	33.100	2050.896	2151.498
243.045	30.763	2043.203	2116.504
244.059	29.859	2042.958	2105.654
245.074	32.633	2047.174	2141.493
246.088	33.287	2044.887	2146.297
247.103	33.544	2043.587	2147.604
248.117	34.009	2043.051	2152.084
249.132	34.295	2042.649	2154.650
250.147	33.742	2038.286	2143.512
251.161	33.111	2035.653	2133.333
252.176	33.386	2035.830	2136.378
253.190	33.220	2032.403	2130.651
254.205	33.309	2030.351	2129.248
255.220	33.744	2030.458	2134.029
256.234	33.564	2028.888	2130.093
257.249	33.359	2028.199	2126.795
258.263	33.449	2028.276	2127.636
259.278	34.024	2027.154	2132.696
260.293	34.190	2026.815	2133.947
261.307	33.910	2023.736	2127.302
262.322	33.975	2021.913	2125.865
263.336	33.655	2018.159	2118.072
264.351	33.630	2018.718	2118.127
265.366	34.238	2019.854	2125.886
266.380	34.765	2019.488	2131.161
267.395	34.535	2016.293	2124.955
268.409	34.435	2015.380	2122.624
269.424	35.132	2014.121	2128.834
270.439	35.150	2014.222	2128.884
271.453	34.289	2008.651	2113.150
272.468	30.483	1995.905	2057.218
273.482	29.188	1996.311	2042.969
274.497	32.582	2001.085	2085.455
275.512	34.350	2001.914	2105.727
276.526	34.607	2000.446	2106.783
277.541	34.547	1997.843	2103.117
278.555	34.171	1995.974	2096.736
279.570	33.868	1994.007	2091.068
280.585	33.483	1991.304	2083.733
281.599	33.769	1991.955	2087.325
282.614	33.998	1989.630	2087.169
283.628	31.530	1979.384	2049.036
284.643	28.195	1971.684	2004.184
285.657	27.313	1968.176	1990.675
286.672	27.223	1965.941	1987.193
287.687	26.727	1963.413	1978.958
288.701	26.902	1964.380	1981.612
289.716	27.442	1962.576	1985.478
290.730	27.128	1960.681	1979.891
291.745	28.564	1963.427	1998.152
292.760	29.549	1966.184	2011.518
293.774	31.418	1970.726	2036.406
294.789	33.560	1973.805	2062.799
295.803	34.104	1972.230	2066.851
296.818	33.711	1970.287	2060.283
297.833	33.954	1969.663	2062.031
298.847	33.951	1968.431	2060.459
299.862	33.877	1965.879	2056.744
300.876	33.064	1961.008	2042.571
301.891	30.640	1953.706	2008.440
302.906	29.674	1952.944	1996.938
303.920	32.544	1958.615	2033.696
304.935	34.233	1959.089	2052.269
305.949	34.189	1957.389	2049.769
306.964	34.415	1955.747	2050.240
307.979	33.604	1950.486	2035.736
308.993	29.883	1938.944	1983.445
310.008	26.660	1930.130	1939.573
311.022	26.350	1929.527	1935.393
312.037	27.056	1928.953	1942.180
313.052	27.122	1926.182	1939.862
314.066	26.164	1923.120	1926.283
315.081	26.059	1922.403	1924.208
316.095	26.208	1920.690	1923.858
317.110	26.203	1919.587	1922.471
318.125	26.482	1918.722	1924.355
319.139	26.397	1917.739	1922.228
320.154	26.841	1916.652	1925.649
321.168	26.838	1916.063	1924.797
322.183	28.383	1920.015	1945.039
323.197	32.029	1927.673	1991.535
324.212	34.216	1930.877	2017.929
325.227	34.376	1929.705	2018.165
326.241	34.552	1928.177	2018.199
327.256	34.854	1927.048	2019.984
328.270	34.428	1926.166	2014.293
329.285	34.869	1926.352	2018.927
330.300	34.172	1922.089	2006.837
331.314	30.114	1911.700	1952.875
332.329	29.361	1910.910	1943.858
333.343	33.108	1917.810	1990.402
334.358	34.987	1918.251	2010.479
335.373	35.365	1917.963	2013.935
336.387	35.390	1916.061	2011.961
337.402	35.344	1913.640	2008.690
338.416	34.989	1911.662	2002.642
339.431	34.880	1909.279	1998.763
340.446	33.564	1902.961	1978.114
341.460	29.248	1891.156	1920.506
342.475	27.368	1886.227	1895.610
343.489	26.883	1883.213	1887.288
344.504	26.398	1881.872	1880.649
345.519	26.572	1879.301	1879.671
346.533	26.103	1876.759	1872.018
347.548	26.044	1875.138	1869.558
348.562	26.401	1874.832	1872.746
349.577	26.429	1874.586	1872.566
350.592	26.590	1873.749	1873.185
351.606	26.651	1872.495	1872.342
352.621	26.304	1869.752	1865.771
353.635	26.451	1870.027	1867.345
354.650	28.534	1874.597	1893.327
355.665	31.723	1880.551	1932.242
356.679	32.843	1881.974	1945.083
357.694	33.398	1880.873	1949.459
358.708	33.764	1881.451	1953.612
359.723	33.055	1876.232	1940.642
360.738	29.745	1868.046	1897.856
361.752	29.495	1868.975	1895.991
362.767	32.554	1872.345	1930.762
363.781	33.732	1873.903	1944.282
364.796	34.562	1873.679	1952.354
365.810	34.323	1872.534	1948.473
366.825	33.307	1867.153	1932.220
367.840	30.123	1857.186	1889.114
368.854	26.893	1848.824	1847.388
369.869	26.344	1845.878	1838.608
370.883	26.519	1844.706	1839.009
371.898	26.588	1844.860	1839.646
372.913	26.656	1843.837	1839.102
373.927	26.079	1840.837	1830.007
374.942	25.733	1839.291	1824.732
375.956	26.353	1839.559	1831.090
376.971	26.561	1836.578	1830.023
377.986	26.007	1835.570	1823.173
379.000	26.261	1833.914	1823.887
380.015	26.438	1834.275	1825.817
381.029	29.013	1839.812	1857.280
382.044	33.115	1848.080	1907.098
383.059	34.689	1848.341	1923.085
384.073	34.096	1847.002	1915.469
385.088	34.318	1846.977	1917.456
386.102	34.756	1845.688	1920.315
387.117	34.906	1844.260	1920.119
388.132	35.132	1844.091	1921.989
389.146	34.318	1840.282	1909.593
390.161	30.454	1828.581	1858.456
391.175	29.649	1827.152	1848.691
392.190	32.289	1829.321	1877.199
393.205	33.661	1830.058	1891.492
394.219	33.980	1829.640	1894.025
395.234	33.850	1829.319	1892.170
396.248	34.071	1827.060	1891.809
397.263	33.787	1823.880	1885.463
398.278	33.622	1821.119	1880.735
399.292	33.302	1819.311	1875.456
400.307	31.312	1812.917	1848.869
401.321	28.199	1805.114	1809.805
402.336	26.810	1801.001	1791.672
403.350	26.614	1799.772	1788.291
404.365	27.547	1800.128	1797.695
405.380	27.429	1797.387	1793.572
406.394	26.724	1794.434	1783.438
407.409	26.421	1793.342	1779.138
408.423	26.705	1792.189	1780.588
409.438	26.353	1789.814	1774.549
410.453	26.125	1788.485	1770.765
411.467	26.421	1789.318	1774.298
412.482	28.007	1793.287	1793.687
413.496	31.925	1800.710	1839.603
414.511	33.654	1800.989	1856.696
415.526	33.406	1798.863	1851.851
416.540	33.533	1798.056	1852.043
417.555	33.603	1795.786	1850.172
418.569	32.561	1794.130	1838.032
419.584	32.622	1794.623	1838.915
420.599	32.782	1794.472	1840.109
421.613	32.834	1792.514	1838.387
422.628	33.204	1792.618	1841.897
423.642	34.127	1792.381	1850.458
424.657	33.400	1788.787	1839.431
425.672	32.393	1785.490	1826.006
426.686	32.959	1785.176	1830.982
427.701	32.968	1783.582	1829.218
428.715	32.886	1782.387	1826.977
429.730	33.083	1782.628	1828.918
430.745	33.958	1783.482	1838.085
431.759	34.630	1783.772	1844.700
432.774	34.614	1781.899	1842.382
433.788	32.203	1774.636	1811.330
434.803	30.059	1770.922	1786.566
435.818	29.988	1769.048	1783.777
436.832	29.934	1768.081	1782.056
437.847	28.279	1757.814	1755.563
438.861	17.354	1728.191	1621.653
439.876	3.887	1701.965	1468.983
440.890	0.502	1695.427	1430.940
441.905	0.172	1694.415	1426.772
442.920	0.253	1692.650	1425.887
443.934	0.124	1691.002	1423.104
444.949	0.114	1689.910	1421.914
445.963	0.157	1688.863	1421.270
446.978	0.110	1688.985	1420.762
447.993	0.151	1687.303	1419.568
449.007	0.162	1684.855	1417.435
450.022	0.152	1682.618	1415.294
451.036	0.132	1681.905	1414.335
452.051	1.428	1689.283	1432.653
453.066	13.542	1718.315	1573.349
454.080	27.453	1741.065	1727.632
455.095	30.429	1744.766	1759.493
456.109	30.215	1744.558	1757.026
457.124	30.311	1742.546	1755.709
458.139	29.946	1741.616	1751.091
459.153	29.902	1740.616	1749.454
460.168	30.071	1739.335	1749.567
461.182	30.359	1738.860	1751.605
462.197	30.727	1738.194	1754.219
463.212	31.559	1737.584	1761.264
464.226	32.393	1738.689	1770.067
465.241	32.325	1737.479	1767.985
466.255	32.056	1735.767	1763.490
467.270	32.132	1734.667	1762.878
468.285	33.112	1736.751	1774.030
469.299	34.139	1737.390	1784.161
470.314	34.230	1734.619	1781.957
471.328	33.823	1733.460	1776.722
472.343	33.923	1732.582	1776.554
473.358	33.861	1730.721	1773.849
474.372	33.860	1729.416	1772.286
475.387	34.526	1730.788	1779.732
476.401	34.518	1727.870	1776.440
477.416	33.706	1723.591	1764.248
478.430	33.202	1723.356	1759.084
479.445	34.069	1724.673	1768.324
480.460	34.766	1724.115	1774.051
481.474	34.905	1722.592	1773.566
482.489	34.265	1719.984	1764.711
483.503	33.154	1715.464	1749.533
484.518	32.659	1713.684	1742.912
485.533	33.286	1714.232	1749.086
486.547	32.932	1711.216	1742.510
487.562	31.256	1706.639	1722.129
488.576	31.930	1707.272	1728.802
489.591	33.195	1708.426	1741.485
490.606	33.692	1708.761	1746.212
491.620	33.970	1706.350	1746.114
492.635	33.248	1702.362	1735.168
493.649	32.082	1699.352	1721.154
494.664	32.597	1700.963	1727.330
495.679	34.036	1701.927	1741.359
496.693	34.012	1699.890	1738.844
497.708	33.744	1697.515	1733.748
498.722	32.849	1695.516	1723.284
499.737	32.912	1694.113	1722.234
500.752	33.150	1693.296	1723.377
501.766	33.703	1691.820	1726.723
502.781	33.418	1690.165	1722.229
503.795	33.447	1689.345	1721.450
504.810	33.472	1688.382	1720.492
505.825	33.009	1686.178	1713.813
506.839	32.370	1683.860	1705.435
507.854	32.184	1681.278	1700.924
508.868	31.617	1678.932	1693.189
509.883	30.891	1675.646	1683.087
510.898	30.256	1673.239	1674.708
511.912	29.965	1672.054	1670.679
512.927	29.892	1669.734	1667.504
513.941	30.006	1667.955	1666.554
514.956	29.858	1666.714	1663.783
515.971	29.835	1665.584	1662.250
516.985	29.738	1663.691	1659.285
518.000	29.613	1662.987	1657.259
519.014	29.594	1662.240	1656.143
520.029	29.804	1660.916	1656.519
521.043	29.793	1659.936	1655.242
522.058	29.993	1659.112	1656.022
523.073	30.031	1657.909	1654.959
524.087	29.878	1656.787	1652.271
525.102	30.141	1656.442	1654.085
526.116	31.531	1658.554	1668.467
527.131	32.537	1658.420	1677.144
528.146	32.298	1656.326	1672.692
529.160	32.053	1655.050	1669.007
530.175	32.223	1654.538	1669.811
531.189	32.017	1652.820	1666.046
532.204	31.807	1651.481	1662.624
533.219	32.432	1651.844	1668.362
534.233	33.135	1652.086	1674.661
535.248	32.580	1648.752	1666.150
536.262	31.218	1645.977	1651.052
537.277	31.573	1645.793	1653.827
538.292	32.412	1645.242	1660.514
539.306	32.482	1643.960	1659.648
540.321	31.687	1640.294	1648.718
541.335	31.002	1638.462	1640.617
542.350	31.580	1637.352	1644.422
543.365	31.926	1636.797	1646.718
544.379	32.124	1636.071	1647.535
545.394	31.833	1633.757	1642.450
546.408	31.688	1633.473	1640.684
547.423	32.948	1634.862	1652.984
548.438	34.082	1635.822	1663.732
549.452	33.621	1632.937	1656.550
550.467	32.420	1630.098	1642.939
551.481	32.148	1628.531	1638.776
552.496	31.840	1625.976	1633.313
553.511	31.459	1624.157	1627.960
554.525	31.842	1623.284	1630.241
555.540	31.666	1623.051	1628.269
556.554	31.860	1621.947	1628.666
557.569	31.635	1619.792	1624.338
558.583	31.131	1617.378	1617.333
559.598	30.993	1616.502	1615.064
560.613	31.035	1615.114	1613.846
561.627	30.430	1612.726	1606.018
562.642	30.030	1609.851	1599.492
563.656	29.512	1607.295	1592.272
564.671	29.441	1605.443	1589.625
565.686	29.370	1604.834	1588.224
566.700	29.438	1603.345	1587.144
567.715	29.351	1602.781	1585.648
568.729	29.234	1600.947	1582.632
569.744	29.314	1599.210	1581.409
570.759	29.279	1597.856	1579.583
571.773	29.270	1597.261	1578.730
572.788	29.063	1596.050	1575.562
573.802	29.335	1594.495	1576.173
574.817	29.306	1593.404	1574.655
575.832	29.142	1591.887	1571.567
576.846	29.722	1591.899	1576.360
577.861	30.415	1592.103	1582.309
578.875	30.776	1591.387	1584.502
579.890	30.817	1590.946	1584.224
580.905	30.874	1589.822	1583.400
581.919	30.839	1589.146	1582.239
582.934	30.918	1587.804	1581.391
583.948	30.634	1585.953	1576.931
584.963	30.634	1585.629	1576.420
585.978	31.240	1584.602	1580.373
586.992	30.821	1583.047	1575.072
588.007	30.311	1581.220	1568.736
589.021	30.240	1578.878	1565.622
590.036	29.490	1576.572	1556.791
591.051	29.670	1576.100	1557.662
592.065	30.101	1574.675	1559.715
593.080	30.171	1573.452	1558.911
594.094	30.319	1573.039	1559.561
595.109	31.177	1573.089	1566.670
596.123	32.403	1574.140	1577.872
597.138	32.196	1572.850	1574.645
598.153	31.281	1569.254	1563.161
599.167	30.776	1566.897	1556.384
600.182	30.632	1565.892	1553.990
601.196	30.654	1565.267	1553.369
602.211	31.288	1564.048	1557.291
603.226	30.697	1562.686	1550.799
604.240	30.867	1561.563	1550.916
605.255	30.951	1559.600	1549.485
606.269	30.526	1558.935	1545.088
607.284	30.393	1557.581	1542.447
608.299	30.101	1556.118	1538.384
609.313	30.324	1554.541	1538.494
610.328	30.039	1553.220	1534.629
611.342	30.215	1551.167	1533.881
612.357	29.994	1549.965	1530.676
613.372	29.883	1548.328	1527.957
614.386	29.706	1547.292	1525.278
615.401	29.547	1547.298	1523.784
616.415	29.446	1545.828	1521.322
617.430	29.240	1543.697	1517.331
618.445	29.132	1542.030	1514.620
619.459	29.024	1541.556	1513.084
620.474	29.113	1540.710	1512.804
621.488	29.353	1539.587	1513.505
622.503	29.614	1538.527	1514.430
623.518	29.216	1536.466	1508.942
624.532	28.978	1535.386	1505.746
625.547	28.918	1534.440	1504.144
626.561	28.956	1533.834	1503.684
627.576	28.972	1532.144	1501.980
628.591	28.957	1530.805	1500.365
629.605	28.843	1529.942	1498.404
630.620	29.095	1528.954	1499.316
631.634	29.495	1528.913	1502.375
632.649	29.415	1526.848	1499.507
633.663	29.111	1525.025	1495.057
634.678	28.740	1523.746	1490.600
635.693	28.859	1521.946	1489.630
636.707	29.008	1520.595	1489.342
637.722	28.926	1520.241	1488.151
638.736	29.339	1518.979	1490.093
639.751	29.694	1518.764	1492.585
640.766	29.868	1516.985	1492.072
641.780	29.862	1515.684	1490.560
642.795	29.958	1515.754	1491.227
643.809	30.059	1515.274	1491.399
644.824	30.169	1514.613	1491.455
645.839	30.266	1514.189	1491.643
646.853	30.125	1512.512	1488.672
647.868	30.043	1510.743	1486.098
648.882	30.065	1509.515	1484.885
649.897	29.916	1508.147	1482.166
650.912	29.961	1506.424	1480.658
651.926	29.697	1504.270	1476.239
652.941	29.613	1502.987	1474.135
653.955	29.363	1501.876	1470.866
654.970	28.960	1499.092	1464.731
655.985	28.660	1497.040	1460.153
656.999	28.475	1495.433	1456.938
658.014	28.464	1494.553	1455.814
659.028	28.708	1495.069	1458.096
660.043	29.309	1494.640	1462.296
661.058	29.477	1493.586	1462.423
662.072	29.686	1492.317	1462.667
663.087	29.873	1492.044	1463.713
664.101	29.711	1491.036	1461.267
665.116	29.782	1489.790	1460.427
666.131	29.688	1489.167	1458.897
667.145	29.850	1488.727	1459.581
668.160	29.937	1486.179	1457.597
669.174	29.640	1484.065	1453.001
670.189	29.901	1483.740	1454.566
671.204	30.041	1483.214	1454.982
672.218	29.785	1482.277	1451.875
673.233	29.871	1481.596	1451.713
674.247	29.781	1480.173	1449.433
675.262	29.701	1478.340	1446.838
676.276	29.685	1476.991	1445.217
677.291	29.756	1476.941	1445.552
678.306	30.108	1476.561	1447.770
679.320	29.873	1474.455	1443.687
680.335	29.485	1473.443	1439.488
681.349	29.539	1472.711	1439.020
682.364	29.681	1471.277	1438.562
683.379	29.465	1469.501	1434.958
684.393	29.276	1468.166	1432.007
685.408	29.362	1467.014	1431.385
686.422	29.344	1465.663	1429.760
687.437	29.079	1465.838	1427.691
688.452	28.908	1464.624	1425.008
689.466	28.991	1462.456	1423.371
690.481	28.949	1460.734	1421.197
691.495	28.924	1459.803	1419.926
692.510	29.048	1459.020	1419.958
693.525	29.486	1458.499	1422.677
694.539	29.192	1457.054	1418.817
695.554	28.833	1456.378	1415.213
696.568	29.028	1455.260	1415.470
697.583	28.886	1454.635	1413.593
698.598	29.103	1453.437	1413.937
699.612	29.136	1452.030	1412.648
700.627	29.136	1451.226	1411.698
701.641	29.462	1449.894	1412.739
702.656	29.506	1448.777	1411.824
703.671	29.489	1448.152	1410.918
704.685	29.620	1448.206	1411.803
705.700	29.694	1446.683	1410.717
706.714	29.525	1444.451	1407.082
707.729	29.392	1443.989	1405.441
708.744	29.335	1442.491	1403.380
709.758	29.087	1439.757	1398.661
710.773	28.458	1438.454	1392.425
711.787	28.426	1437.215	1390.815
712.802	28.895	1436.180	1393.217
713.816	28.885	1436.459	1393.247
714.831	29.309	1435.706	1395.578
715.846	29.354	1433.400	1393.507
716.860	29.378	1432.543	1392.691
717.875	29.220	1431.846	1390.650
718.889	29.318	1430.398	1389.821
719.904	29.290	1429.433	1388.501
720.919	29.191	1428.465	1386.648
721.933	29.175	1427.394	1385.320
722.948	29.197	1426.548	1384.501
723.962	29.150	1425.469	1382.936
724.977	29.131	1424.425	1381.612
725.992	29.340	1423.253	1381.886
727.006	29.473	1422.466	1381.955
728.021	29.380	1420.884	1379.554
729.035	29.561	1419.675	1379.572
730.050	29.512	1418.743	1378.134
731.065	29.464	1417.885	1376.781
732.079	29.380	1416.550	1374.687
733.094	29.485	1416.036	1374.808
734.108	29.707	1414.251	1374.571
735.123	29.471	1412.816	1371.253
736.138	29.307	1412.014	1369.081
737.152	29.332	1410.742	1367.874
738.167	29.340	1409.996	1367.046
739.181	29.462	1409.166	1366.983
740.196	29.487	1407.782	1365.666
741.211	29.391	1406.964	1363.998
742.225	29.324	1406.332	1362.721
743.240	29.350	1405.032	1361.491
744.254	29.180	1403.349	1358.435
745.269	29.100	1402.256	1356.623
746.284	29.071	1401.337	1355.360
747.298	29.208	1400.048	1354.964
748.313	28.891	1399.114	1351.556
749.327	28.771	1398.192	1349.619
750.342	28.818	1398.252	1349.862
751.356	29.468	1397.720	1353.981
752.371	29.401	1396.231	1351.878
753.386	29.107	1394.329	1347.713
754.400	29.167	1393.572	1347.266
755.415	29.339	1392.706	1347.525
756.429	29.394	1391.354	1346.464
757.444	29.478	1389.988	1345.595
758.459	29.308	1389.213	1343.440
759.473	29.334	1388.188	1342.476
760.488	29.183	1386.444	1339.527
761.502	29.068	1385.548	1337.657
762.517	29.128	1384.525	1336.948
763.532	29.237	1382.920	1336.035
764.546	29.121	1380.903	1333.084
765.561	28.483	1379.600	1327.027
766.575	28.163	1378.663	1323.637
767.590	28.060	1377.721	1321.830
768.605	28.479	1376.692	1323.722
769.619	28.913	1376.244	1326.285
770.634	29.119	1375.148	1326.555
771.648	29.195	1373.935	1325.777
772.663	29.075	1373.774	1324.593
773.678	29.180	1373.664	1325.092
774.692	29.337	1372.252	1324.706
775.707	29.389	1371.911	1324.596
776.721	29.386	1370.908	1323.444
777.736	29.325	1369.587	1321.571
778.751	29.401	1368.354	1320.770
779.765	29.409	1367.909	1320.236
780.780	29.274	1367.209	1318.432
781.794	29.352	1366.904	1318.541
782.809	29.200	1365.322	1315.768
783.824	28.918	1363.376	1311.712
784.838	29.052	1362.368	1311.549
785.853	29.116	1361.223	1310.745
786.867	28.865	1360.663	1308.255
787.882	28.764	1360.136	1306.867
788.897	28.749	1358.833	1305.351
789.911	28.820	1358.103	1305.000
790.926	29.150	1355.914	1305.093
791.940	29.067	1354.403	1302.896
792.955	29.160	1353.757	1302.781
793.969	28.933	1352.539	1299.837
794.984	29.095	1352.342	1300.639
795.999	29.197	1351.419	1300.324
797.013	29.300	1349.867	1299.405
798.028	29.253	1348.543	1297.642
799.042	29.299	1348.045	1297.334
800.057	29.240	1347.188	1295.933
801.072	29.349	1345.377	1294.810
802.086	29.235	1344.419	1292.925
803.101	29.132	1343.495	1291.155
804.115	29.334	1342.664	1291.628
805.130	29.205	1341.783	1289.713
806.145	29.214	1340.159	1288.063
807.159	29.120	1337.909	1285.090
808.174	29.092	1337.190	1284.049
809.188	29.006	1336.375	1282.507
810.203	28.781	1334.991	1279.455
811.218	28.685	1332.552	1276.292
812.232	28.424	1330.470	1272.319
813.247	28.045	1329.892	1268.971
814.261	28.440	1330.338	1272.001
815.276	28.903	1329.596	1274.370
816.291	28.930	1328.698	1273.540
817.305	28.966	1327.489	1272.480
818.320	29.103	1326.361	1272.197
819.334	29.082	1325.782	1271.351
820.349	29.336	1324.055	1271.296
821.364	29.284	1323.260	1270.026
822.378	29.291	1322.020	1268.727
823.393	29.318	1320.034	1266.855
824.407	29.195	1319.308	1265.164
825.422	29.301	1318.630	1265.088
826.437	29.278	1317.114	1263.329
827.451	28.791	1316.072	1258.822
828.466	28.782	1314.883	1257.474
829.480	28.713	1313.110	1255.153
830.495	28.856	1311.000	1253.967
831.509	28.948	1310.513	1253.983
832.524	28.898	1310.209	1253.197
833.539	28.998	1309.005	1252.580
834.553	29.042	1308.350	1252.106
835.568	29.108	1306.938	1251.053
836.582	29.199	1305.375	1250.031
837.597	29.288	1303.785	1248.966
838.612	29.139	1302.215	1246.299
839.626	28.965	1300.777	1243.588
840.641	28.798	1299.562	1241.143
841.655	28.654	1298.954	1239.436
842.670	28.238	1297.527	1235.104
843.685	27.929	1296.322	1231.720
844.699	28.326	1295.441	1233.422
845.714	28.592	1294.815	1234.480
846.728	28.734	1294.252	1234.749
847.743	28.837	1292.841	1233.955
848.758	28.986	1291.710	1233.732
849.772	29.079	1291.078	1233.606
850.787	29.034	1290.043	1232.164
851.801	28.903	1289.094	1230.229
852.816	28.964	1288.018	1229.464
853.831	29.007	1286.272	1227.942
854.845	29.073	1284.218	1226.278
855.860	28.974	1282.434	1223.767
856.874	28.869	1281.667	1222.188
857.889	28.838	1280.401	1220.622
858.904	28.770	1279.163	1218.845
859.918	28.757	1277.973	1217.479
860.933	28.789	1276.271	1215.923
861.947	28.816	1275.910	1215.610
862.962	28.956	1274.706	1215.249
863.977	28.959	1273.086	1213.584
864.991	28.838	1272.864	1212.425
866.006	28.846	1272.977	1212.439
867.020	29.063	1271.687	1212.500
868.035	29.170	1270.081	1211.531
869.049	29.244	1269.070	1210.909
870.064	29.062	1268.495	1209.016
871.079	29.087	1267.221	1207.819
872.093	28.986	1266.375	1206.203
873.108	28.987	1265.267	1205.009
874.122	28.754	1263.708	1201.851
875.137	28.422	1263.024	1198.874
876.152	28.322	1261.957	1197.058
877.166	28.469	1260.163	1196.182
878.181	28.539	1259.178	1195.563
879.195	28.696	1258.647	1195.942
880.210	28.878	1258.458	1196.811
881.225	29.039	1257.721	1197.020
882.239	28.881	1256.555	1194.733
883.254	28.992	1255.616	1194.419
884.268	29.186	1254.224	1194.218
885.283	28.999	1253.531	1192.201
886.298	29.188	1251.720	1191.564
887.312	29.165	1250.412	1190.025
888.327	29.092	1249.686	1188.719
889.341	29.197	1248.400	1188.034
890.356	29.065	1247.580	1186.258
891.371	29.032	1247.637	1185.951
892.385	29.062	1246.749	1185.164
893.400	28.858	1246.163	1183.145
894.414	28.861	1244.753	1181.685
895.429	29.001	1242.936	1180.720
896.444	29.158	1241.951	1180.652
897.458	29.379	1241.356	1181.367
898.473	28.913	1240.236	1177.163
899.487	29.055	1239.032	1176.794
900.502	28.886	1238.070	1174.654
901.517	29.100	1236.455	1174.353
902.531	28.948	1235.872	1172.684
903.546	29.150	1235.138	1173.143
904.560	28.927	1234.623	1171.083
905.575	29.071	1233.346	1170.656
906.589	29.002	1232.477	1169.250
907.604	28.936	1231.716	1167.967
