DTS Sentinel unit serial number:	SN409020Multiplexer serial number:	ORYXHardware model number:	OX4-SRSoftware version number:	ORYX F/W v3.00 Oryx Data Collector v3.7.2.0data status	okinstallation	HaddamTimeLapsedifferential loss correction	single-endedforward channel	channel 3reverse channel	N/Adate	2011/06/22time	05:26:16forward acquisition time	30.00reverse acquisition time	0.00gamma	498.7831k internal	0.1752k external	0.1752temperature offset calibration	1.0074default loss term (dB/km)	0.3790temperature slope calibration	1.3530multiplexer offset coefficient	1.0000multiplexer slope coefficient	1.0000fibre end	0.00T internal ref (°C)	22.62T ext. ref 1 (°C)	17.75T ext. ref 2 (°C)	0.16length (m)	temperature (°C)	Stokes	anti-Stokes-747.200	40.143	-0.161	-0.192
-746.185	-129.223	-0.129	0.024
-745.171	-81.858	0.372	0.161
-744.156	-200.000	-0.328	0.001
-743.142	-74.660	0.221	0.105
-742.127	634.629	0.082	0.276
-741.112	-200.000	0.003	-0.308
-740.098	-92.426	0.230	0.086
-739.083	28.823	-0.365	0.411
-738.069	521.736	0.029	0.092
-737.054	87.873	-0.162	-0.238
-736.039	-48.851	-0.338	0.214
-735.025	81.538	-0.117	-0.169
-734.010	31.113	0.425	-0.484
-732.996	-119.542	0.321	0.073
-731.981	305.828	-0.192	-0.475
-730.966	-170.883	-0.178	-0.008
-729.952	800.000	0.090	0.357
-728.937	-123.715	0.249	-0.052
-727.923	-200.000	-0.020	-0.149
-726.908	800.000	-0.055	-0.237
-725.894	-200.000	-0.012	0.096
-724.879	34.120	-0.164	-0.189
-723.864	800.000	0.054	-0.286
-722.850	38.044	-0.121	0.143
-721.835	-59.147	-0.120	-0.068
-720.821	68.222	-0.207	0.282
-719.806	8.975	0.320	0.320
-718.791	-155.894	0.750	-0.062
-717.777	-62.874	0.483	-0.264
-716.762	-36.484	-0.404	-0.288
-715.748	-70.343	0.337	0.169
-714.733	129.693	-0.084	-0.143
-713.718	81.353	-0.071	0.102
-712.704	-200.000	0.042	-0.496
-711.689	-200.000	-0.015	0.296
-710.675	25.805	0.148	0.164
-709.660	-78.015	-0.391	-0.178
-708.645	256.650	-0.140	-0.321
-707.631	66.810	-0.195	0.263
-706.616	-48.648	-0.038	0.024
-705.602	800.000	-0.091	-0.526
-704.587	211.625	0.146	-0.306
-703.572	-200.000	0.008	-0.339
-702.558	-64.025	-0.420	0.227
-701.543	-200.000	-0.054	0.470
-700.529	131.614	0.031	-0.053
-699.514	192.199	0.116	0.232
-698.499	20.717	0.207	-0.223
-697.485	-82.765	0.069	0.030
-696.470	140.182	0.281	0.492
-695.456	800.000	-0.046	-0.213
-694.441	-119.149	-0.427	0.098
-693.426	163.229	-0.074	0.137
-692.412	385.427	0.081	0.223
-691.397	-13.652	0.353	0.302
-690.383	-200.000	-0.028	0.203
-689.368	-200.000	0.014	0.118
-688.354	800.000	0.101	0.387
-687.339	-125.043	0.199	0.040
-686.324	59.323	-0.483	0.630
-685.310	-98.035	0.473	0.160
-684.295	18.752	-0.327	0.347
-683.281	-200.000	0.072	-0.461
-682.266	-112.540	-0.316	0.083
-681.251	6.222	-0.072	-0.071
-680.237	-200.000	0.046	-0.614
-679.222	246.459	0.160	-0.359
-678.208	-79.594	-0.262	0.117
-677.193	-157.837	-0.489	-0.038
-676.178	169.289	0.066	-0.124
-675.164	-70.445	-0.460	-0.230
-674.149	-87.984	0.177	-0.070
-673.135	-81.274	-0.405	0.176
-672.120	-25.890	-0.242	-0.188
-671.105	-93.216	-0.209	0.076
-670.091	65.464	-0.214	0.286
-669.076	-85.944	0.353	-0.144
-668.062	321.929	0.074	-0.188
-667.047	-28.135	0.383	0.293
-666.032	32.686	0.023	0.026
-665.018	-106.714	-0.172	-0.050
-664.003	117.395	0.139	0.227
-662.989	-86.306	-0.393	0.159
-661.974	67.056	-0.219	-0.296
-660.959	-94.260	0.402	0.145
-659.945	-159.261	-0.102	-0.007
-658.930	-108.667	-0.116	-0.033
-657.916	-103.626	-0.357	-0.110
-656.901	54.279	0.540	-0.688
-655.886	-144.717	0.232	0.028
-654.872	45.465	-0.086	-0.105
-653.857	-177.249	-0.124	-0.004
-652.843	285.857	0.156	-0.375
-651.828	-40.145	-0.269	0.185
-650.814	-38.994	0.189	0.131
-649.799	449.584	-0.082	0.239
-648.784	-52.345	-0.172	0.105
-647.770	562.275	0.047	-0.151
-646.755	588.411	0.127	-0.415
-645.741	4.060	-0.156	-0.151
-644.726	539.515	-0.061	0.194
-643.711	40.615	0.181	-0.215
-642.697	676.237	-0.039	-0.134
-641.682	800.000	-0.055	-0.296
-640.668	-74.556	0.382	0.181
-639.653	299.799	0.092	0.225
-638.638	-171.315	0.128	-0.006
-637.624	-200.000	-0.035	-0.411
-636.609	-52.979	-0.323	0.196
-635.595	459.773	0.016	-0.048
-634.580	800.000	0.054	0.311
-633.565	800.000	0.074	-0.289
-632.551	38.087	-0.238	-0.280
-631.536	-156.584	-0.545	0.044
-630.522	759.089	-0.101	-0.364
-629.507	381.114	-0.116	0.317
-628.492	33.310	-0.425	0.487
-627.478	56.321	0.185	-0.238
-626.463	-138.959	0.233	0.033
-625.449	-200.000	-0.716	0.000
-624.434	-119.886	-0.268	0.060
-623.419	54.897	0.134	-0.171
-622.405	-200.000	0.003	0.045
-621.390	-113.333	0.067	-0.017
-620.376	-9.810	0.385	0.338
-619.361	-200.000	-0.036	0.345
-618.346	-85.788	-0.370	-0.151
-617.332	-200.000	0.013	-0.118
-616.317	-142.235	-0.138	0.018
-615.303	-104.563	-0.473	-0.143
-614.288	-128.464	-0.403	0.075
-613.273	-200.000	-0.070	0.409
-612.259	498.707	0.194	-0.592
-611.244	-127.906	-0.594	-0.112
-610.230	-73.095	-0.566	-0.273
-609.215	-82.913	0.585	-0.248
-608.201	-41.136	0.334	-0.227
-607.186	-200.000	0.019	-0.370
-606.171	-147.766	-0.237	0.026
-605.157	-55.730	0.385	0.227
-604.142	487.927	0.157	0.475
-603.128	314.089	-0.096	0.239
-602.113	111.666	0.247	0.394
-601.098	19.309	-0.142	-0.150
-600.084	-44.163	0.415	-0.274
-599.069	-88.967	-0.310	-0.121
-598.055	-96.998	-0.126	0.043
-597.040	450.959	-0.088	-0.256
-596.025	-24.058	0.331	0.261
-595.011	-7.258	-0.407	-0.364
-593.996	-97.763	-0.151	0.051
-592.982	242.168	-0.092	0.204
-591.967	-80.902	-0.278	0.121
-590.952	105.751	0.261	-0.409
-589.938	-71.177	-0.295	-0.145
-588.923	55.344	0.174	0.222
-587.909	-23.895	-0.224	0.176
-586.894	236.355	-0.087	-0.191
-585.879	-132.869	-0.512	-0.085
-584.865	-89.816	0.302	-0.116
-583.850	-200.000	0.014	-0.733
-582.836	-157.794	0.391	-0.030
-581.821	468.630	-0.118	0.352
-580.806	245.603	0.015	0.034
-579.792	-200.000	0.044	0.535
-578.777	-97.266	0.336	0.115
-577.763	216.560	0.117	0.247
-576.748	-200.000	-0.014	0.082
-575.733	40.151	0.305	-0.361
-574.719	-159.131	0.399	0.029
-573.704	55.212	0.246	-0.313
-572.690	183.738	-0.233	-0.455
-571.675	74.839	0.312	-0.434
-570.661	-67.932	-0.187	0.096
-569.646	100.437	-0.084	0.129
-568.631	-0.646	-0.121	-0.114
-567.617	-126.206	0.195	0.038
-566.602	110.711	-0.189	0.300
-565.588	13.968	0.084	0.086
-564.573	71.877	0.055	0.076
-563.558	40.264	-0.098	-0.116
-562.544	-140.048	-0.567	-0.078
-561.529	-84.834	0.360	0.148
-560.515	-200.000	0.035	0.209
-559.500	141.647	-0.207	-0.363
-558.485	-89.459	-0.525	0.202
-557.471	-110.750	-0.300	0.081
-556.456	-81.350	-0.146	-0.063
-555.442	4.992	-0.110	0.107
-554.427	-141.733	0.189	-0.025
-553.412	-85.246	0.135	-0.055
-552.398	-120.330	-0.253	-0.056
-551.383	544.229	-0.113	0.357
-550.369	536.455	-0.075	-0.234
-549.354	-60.398	0.577	-0.322
-548.339	-154.842	-0.299	-0.026
-547.325	-16.865	0.180	0.150
-546.310	-56.876	-0.648	-0.376
-545.296	-166.611	0.207	-0.011
-544.281	285.474	0.145	0.346
-543.266	-200.000	-0.020	-0.299
-542.252	7.867	-0.252	-0.248
-541.237	-111.929	-0.208	0.055
-540.223	-200.000	-0.020	0.316
-539.208	204.926	0.032	0.065
-538.193	-140.808	0.418	0.056
-537.179	-67.978	0.225	-0.115
-536.164	50.050	-0.202	0.252
-535.150	10.490	0.180	0.181
-534.135	264.547	-0.211	-0.485
-533.121	-91.291	-0.302	-0.113
-532.106	-200.000	-0.032	-0.370
-531.091	361.084	0.181	-0.480
-530.077	-181.341	0.232	0.006
-529.062	-177.514	-0.114	-0.004
-528.048	-111.792	0.551	0.146
-527.033	50.476	-0.115	0.143
-526.018	-137.625	-0.026	0.004
-525.004	-105.916	0.233	-0.069
-523.989	800.000	0.044	0.165
-522.975	-93.357	-0.361	-0.131
-521.960	82.545	0.167	-0.239
-520.945	9.192	0.168	0.167
-519.931	35.613	0.103	-0.119
-518.916	-106.962	-0.461	0.133
-517.902	-200.000	0.037	-0.380
-516.887	-23.259	-0.541	0.427
-515.872	-200.000	-0.013	0.166
-514.858	-19.329	-0.137	0.111
-513.843	-93.969	-0.175	0.063
-512.829	-61.737	0.170	0.094
-511.814	-135.064	-0.352	-0.055
-510.799	9.729	-0.088	0.087
-509.785	41.121	-0.447	0.532
-508.770	104.299	-0.288	-0.446
-507.756	-57.452	-0.162	-0.093
-506.741	-53.229	0.249	0.150
-505.726	-61.756	-0.443	0.243
-504.712	-200.000	-0.024	0.359
-503.697	800.000	-0.087	0.468
-502.683	-200.000	0.021	0.175
-501.668	-106.881	-0.422	-0.122
-500.653	291.704	-0.107	-0.256
-499.639	-51.694	0.535	0.327
-498.624	800.000	0.051	0.292
-497.610	441.194	-0.048	0.139
-496.595	708.042	-0.102	0.357
-495.581	800.000	0.020	0.113
-494.566	-147.020	0.279	-0.031
-493.551	410.508	0.110	-0.309
-492.537	-200.000	-0.067	-0.520
-491.522	-111.068	0.514	-0.138
-490.508	-8.823	0.307	-0.271
-489.493	-121.641	-0.498	-0.108
-488.478	63.076	0.118	-0.155
-487.464	216.218	0.139	0.291
-486.449	324.177	-0.084	0.212
-485.435	-54.475	-0.416	0.247
-484.420	136.879	0.339	0.584
-483.405	-111.365	0.332	0.088
-482.391	-142.672	-0.048	-0.006
-481.376	-8.399	0.087	-0.077
-480.362	-137.632	-0.265	-0.039
-479.347	38.848	0.370	-0.434
-478.332	-72.582	-0.440	-0.213
-477.318	10.704	0.127	0.127
-476.303	-164.686	0.251	0.015
-475.289	-192.610	0.442	0.005
-474.274	-77.487	0.798	0.362
-473.259	-39.526	0.179	0.123
-472.245	-115.077	0.343	0.085
-471.230	17.798	-0.092	0.096
-470.216	-18.560	0.212	0.174
-469.201	-200.000	0.042	-0.306
-468.186	689.273	-0.194	-0.671
-467.172	-36.769	-0.561	0.394
-466.157	-69.107	0.027	0.014
-465.143	-78.703	-0.376	0.168
-464.128	-131.288	-0.232	-0.040
-463.113	-183.336	0.174	0.004
-462.099	-88.812	0.071	0.028
-461.084	46.745	-0.063	-0.076
-460.070	10.560	-0.019	-0.019
-459.055	-36.029	0.380	-0.269
-458.040	127.076	0.154	-0.258
-457.026	-84.042	-0.030	-0.013
-456.011	-99.145	-0.275	0.091
-454.997	-177.331	0.529	-0.017
-453.982	-113.811	0.525	-0.133
-452.968	-116.909	-0.064	0.015
-451.953	797.533	-0.076	-0.276
-450.938	-32.490	0.250	0.182
-449.924	18.921	-0.224	-0.236
-448.909	-14.956	0.309	0.260
-447.895	189.815	-0.205	0.404
-446.880	800.000	0.082	0.392
-445.865	-92.545	-0.306	-0.112
-444.851	-84.602	0.298	-0.123
-443.836	313.721	-0.094	-0.233
-442.822	-200.000	0.012	0.305
-441.807	191.926	0.130	-0.258
-440.792	-148.310	-0.136	-0.015
-439.778	-126.373	0.236	0.046
-438.763	64.800	-0.052	0.069
-437.749	29.657	-0.259	-0.289
-436.734	-53.889	-0.504	-0.300
-435.719	-44.850	0.114	-0.074
-434.705	135.644	0.299	-0.512
-433.690	-21.845	0.310	0.247
-432.676	800.000	-0.081	-0.413
-431.661	-200.000	-0.008	0.411
-430.646	800.000	0.143	0.555
-429.632	-74.342	-0.507	0.239
-428.617	-11.641	0.245	-0.211
-427.603	-63.549	-0.286	-0.153
-426.588	-136.375	0.136	-0.021
-425.573	32.300	0.172	0.195
-424.559	-87.097	0.420	-0.167
-423.544	-119.269	0.305	0.069
-422.530	-143.061	0.087	0.011
-421.515	-35.633	-0.164	0.116
-420.500	-99.008	0.110	-0.036
-419.486	51.606	-0.223	-0.278
-418.471	90.391	0.122	-0.180
-417.457	-72.220	-0.247	-0.120
-416.442	129.346	0.087	-0.146
-415.428	-200.000	-0.023	0.284
-414.413	365.548	-0.102	0.270
-413.398	-163.916	-0.517	0.031
-412.384	216.796	0.200	-0.418
-411.369	74.432	0.175	0.241
-410.355	338.434	0.241	-0.617
-409.340	-179.583	0.445	-0.012
-408.325	-140.540	0.173	-0.023
-407.311	-67.356	-0.029	0.015
-406.296	-200.000	-0.007	-0.172
-405.282	-191.254	-0.274	-0.004
-404.267	114.544	-0.064	0.102
-403.252	-119.178	-0.546	-0.124
-402.238	43.345	0.262	0.314
-401.223	108.894	0.247	-0.388
-400.209	-200.000	-0.049	-0.284
-399.194	-74.317	0.230	0.109
-398.179	-22.680	0.190	0.150
-397.165	-72.814	0.704	0.338
-396.150	495.253	0.166	0.503
-395.136	33.537	0.216	0.246
-394.121	28.344	0.152	0.168
-393.106	800.000	0.115	0.602
-392.092	800.000	-0.014	-0.074
-391.077	-46.888	0.102	0.065
-390.063	-174.115	0.246	-0.009
-389.048	-80.865	-0.126	-0.054
-388.033	98.628	0.242	-0.365
-387.019	-137.602	-0.074	-0.011
-386.004	87.799	-0.131	0.190
-384.990	-88.802	0.210	-0.081
-383.975	-113.301	-0.235	0.060
-382.960	-40.960	-0.385	0.260
-381.946	17.126	-0.422	0.437
-380.931	125.350	0.129	0.214
-379.917	-81.508	0.464	-0.199
-378.902	-89.181	0.347	0.133
-377.888	-135.101	0.674	-0.105
-376.873	17.712	-0.486	-0.506
-375.858	-91.249	-0.355	-0.132
-374.844	-8.196	0.413	-0.364
-373.829	588.679	-0.043	-0.140
-372.815	-147.767	-0.305	-0.033
-371.800	-111.025	-0.381	-0.101
-370.785	-4.627	0.076	0.069
-369.771	39.374	-0.392	0.459
-368.756	-66.784	-0.203	0.105
-367.742	-142.664	-0.239	-0.030
-366.727	-70.331	-0.263	-0.130
-365.712	-167.429	-0.335	-0.017
-364.698	-142.400	0.367	-0.047
-363.683	-50.299	-0.100	-0.062
-362.669	-43.523	-0.408	-0.269
-361.654	180.029	-0.134	-0.258
-360.639	-162.225	0.526	-0.034
-359.625	800.000	0.079	-0.365
-358.610	-133.884	0.482	0.078
-357.596	-8.119	0.223	-0.196
-356.581	-140.250	0.267	-0.036
-355.566	372.103	0.166	0.442
-354.552	-161.735	-0.122	-0.008
-353.537	800.000	-0.079	0.410
-352.523	-18.199	0.237	-0.193
-351.508	-142.561	0.141	-0.018
-350.493	-193.090	0.437	0.005
-349.479	-129.978	-0.187	0.033
-348.464	4.841	0.148	-0.142
-347.450	145.328	-0.083	0.146
-346.435	-200.000	-0.033	0.527
-345.420	800.000	0.018	-0.096
-344.406	-200.000	-0.008	0.237
-343.391	-200.000	0.030	0.494
-342.377	800.000	-0.018	-0.103
-341.362	10.207	0.131	-0.130
-340.348	-200.000	0.248	-0.000
-339.333	-128.483	0.406	-0.075
-338.318	167.332	-0.218	-0.405
-337.304	-105.054	0.121	-0.036
-336.289	800.000	-0.053	0.256
-335.275	-47.208	0.378	0.240
-334.260	3.202	-0.216	-0.206
-333.245	-157.416	-0.478	-0.037
-332.231	105.973	-0.089	-0.138
-331.216	-63.219	-0.119	-0.064
-330.202	-200.000	-0.049	0.435
-329.187	-200.000	-0.004	-0.310
-328.172	368.435	-0.095	0.252
-327.158	800.000	0.048	0.248
-326.143	800.000	-0.024	-0.113
-325.129	-200.000	-0.076	-0.491
-324.114	-45.236	0.226	-0.146
-323.099	-61.646	-0.540	-0.295
-322.085	-119.395	0.211	0.047
-321.070	800.000	-0.038	-0.167
-320.056	-76.964	-0.223	0.101
-319.041	-25.904	0.318	-0.244
-318.026	-181.925	-0.204	0.005
-317.012	-57.591	-0.374	0.213
-315.997	800.000	-0.009	0.040
-314.983	-50.922	-0.087	0.053
-313.968	-164.914	0.197	-0.011
-312.953	40.833	0.241	-0.284
-311.939	75.765	0.222	-0.306
-310.924	462.932	-0.074	-0.215
-309.910	-161.635	0.285	-0.019
-308.895	-73.549	0.256	0.121
-307.880	-87.846	0.290	0.114
-306.866	122.093	-0.009	0.014
-305.851	-166.746	0.373	0.020
-304.837	-125.442	-0.093	0.018
-303.822	-37.791	-0.404	-0.280
-302.807	-200.000	0.024	-0.260
-301.793	-8.342	-0.231	0.202
-300.778	29.498	-0.206	0.229
-299.764	-200.000	0.001	-0.017
-298.749	-53.672	0.171	-0.102
-297.735	-134.997	0.429	0.067
-296.720	121.636	0.251	0.410
-295.705	-109.808	-0.269	0.073
-294.691	672.201	0.152	0.516
-293.676	-77.959	-0.101	-0.045
-292.662	-141.548	0.432	0.056
-291.647	-32.493	-0.071	-0.051
-290.632	50.197	0.442	-0.545
-289.618	-80.316	0.460	-0.200
-288.603	-83.664	0.348	0.144
-287.589	-74.525	0.296	-0.138
-286.574	99.304	-0.125	-0.189
-285.559	-145.359	-0.500	-0.058
-284.545	800.000	0.099	0.373
-283.530	-16.316	-0.151	-0.125
-282.516	-149.403	-0.228	0.023
-281.501	82.717	0.255	0.362
-280.486	333.312	-0.172	0.436
-279.472	8.400	0.044	-0.043
-278.457	-146.249	-0.165	-0.019
-277.443	-200.000	-0.012	0.185
-276.428	-200.000	0.031	0.221
-275.413	-137.228	-0.479	0.070
-274.399	-109.926	-0.366	0.099
-273.384	151.449	-0.101	-0.179
-272.370	-92.200	0.380	0.139
-271.355	184.177	-0.212	0.410
-270.340	-25.213	-0.056	0.043
-269.326	800.000	0.102	0.370
-268.311	-98.591	0.060	-0.020
-267.297	365.349	0.012	-0.031
-266.282	-139.883	0.357	0.049
-265.267	-109.767	-0.173	0.047
-264.253	800.000	0.037	-0.148
-263.238	800.000	-0.112	-0.587
-262.224	-155.730	-0.779	-0.064
-261.209	-87.802	-0.229	-0.089
-260.195	-8.701	0.295	-0.258
-259.180	24.888	-0.063	0.068
-258.165	-143.809	0.283	-0.034
-257.151	-8.807	-0.196	-0.171
-256.136	782.114	-0.114	-0.410
-255.122	-99.080	0.328	0.107
-254.107	-200.000	0.012	0.435
-253.092	-49.314	-0.135	0.084
-252.078	305.527	0.104	-0.254
-251.063	76.777	-0.162	-0.224
-250.049	-200.000	-0.034	-0.548
-249.034	-200.000	-0.004	-0.256
-248.019	-91.402	-0.229	-0.085
-247.005	800.000	0.046	0.177
-245.990	-39.406	-0.282	0.192
-244.976	800.000	-0.077	0.325
-243.961	-43.531	-0.283	0.185
-242.946	-45.457	0.049	0.032
-241.932	-40.194	-0.205	0.138
-240.917	-139.298	-0.077	-0.011
-239.903	29.502	-0.309	-0.342
-238.888	-200.000	-0.012	-0.514
-237.873	-93.347	-0.297	0.107
-236.859	-111.454	0.201	-0.053
-235.844	-20.523	-0.079	-0.063
-234.830	-118.330	-0.456	0.105
-233.815	-66.350	0.503	0.260
-232.800	-68.132	-0.404	-0.204
-231.786	-81.697	-0.595	0.253
-230.771	-200.000	0.021	0.435
-229.757	250.614	0.077	0.172
-228.742	-52.344	-0.323	-0.194
-227.727	-200.000	-0.004	0.080
-226.713	-46.707	0.118	-0.075
-225.698	301.837	-0.200	0.484
-224.684	-200.000	-0.043	0.263
-223.669	50.799	-0.106	-0.130
-222.655	97.795	-0.136	-0.204
-221.640	109.264	0.222	0.346
-220.625	262.339	0.237	0.536
-219.611	-200.000	-0.035	0.318
-218.596	800.000	-0.029	0.154
-217.582	95.944	0.169	0.252
-216.567	355.016	0.159	0.413
-215.552	441.150	0.025	0.072
-214.538	90.845	-0.127	-0.185
-213.523	-198.138	0.225	-0.002
-212.509	-40.964	-0.393	0.264
-211.494	800.000	-0.060	-0.231
-210.479	-118.804	0.351	0.080
-209.465	-119.643	-0.156	0.035
-208.450	-156.928	-0.179	0.014
-207.436	-200.000	0.012	-0.251
-206.421	-154.508	0.074	-0.006
-205.406	-53.948	0.398	0.235
-204.392	-200.000	-0.010	-0.443
-203.377	-59.261	0.277	0.154
-202.363	-200.000	0.013	0.180
-201.348	-164.830	0.418	0.024
-200.333	680.394	0.109	-0.372
-199.319	174.637	-0.161	-0.304
-198.304	-94.074	0.185	-0.066
-197.290	800.000	-0.028	0.111
-196.275	-132.451	-0.310	-0.051
-195.260	-65.331	-0.311	0.162
-194.246	76.589	0.128	-0.176
-193.231	-119.645	0.361	0.080
-192.217	16.387	0.153	-0.157
-191.202	-126.918	0.310	-0.059
-190.187	120.472	0.109	-0.176
-189.173	-104.532	-0.614	0.183
-188.158	-0.579	0.277	0.255
-187.144	-140.036	-0.720	0.097
-186.129	-164.606	-0.188	0.011
-185.114	-12.886	0.388	-0.328
-184.100	-95.137	0.217	0.075
-183.085	-96.519	-0.425	0.145
-182.071	-8.283	0.607	0.530
-181.056	159.799	0.107	0.194
-180.042	-10.563	-0.149	0.128
-179.027	-4.127	0.323	0.290
-178.012	63.035	0.177	0.230
-176.998	-181.232	0.410	0.010
-175.983	-174.647	-0.164	0.006
-174.969	-120.223	0.664	-0.146
-173.954	-142.882	0.393	0.049
-172.939	-62.188	-0.461	-0.249
-171.925	-113.856	0.392	-0.098
-170.910	-200.000	0.030	0.533
-169.896	-69.199	0.443	0.220
-168.881	35.321	0.053	-0.060
-167.866	-57.534	-0.245	-0.139
-166.852	23.547	0.127	0.136
-165.837	-89.022	-0.442	-0.169
-164.823	26.879	0.042	0.046
-163.808	-55.519	-0.239	-0.139
-162.793	-122.806	0.237	-0.049
-161.779	800.000	-0.025	-0.100
-160.764	118.553	0.092	-0.148
-159.750	-200.000	0.014	-0.148
-158.735	-175.274	0.436	0.015
-157.720	-133.806	-0.179	-0.029
-156.706	-101.347	-0.612	-0.192
-155.691	-64.419	-0.498	-0.262
-154.677	-81.990	0.059	0.025
-153.662	355.160	0.186	-0.481
-152.647	-31.179	-0.461	-0.336
-151.633	800.000	-0.126	-0.480
-150.618	339.898	-0.100	-0.253
-149.604	14.519	-0.206	0.209
-148.589	45.852	0.312	-0.375
-147.574	-158.297	0.278	-0.021
-146.560	800.000	0.156	-0.585
-145.545	38.270	0.162	0.187
-144.531	-27.269	0.486	0.366
-143.516	-200.000	0.068	0.431
-142.502	-133.690	0.191	-0.031
-141.487	-175.245	0.137	0.005
-140.472	169.790	-0.105	0.195
-139.458	-200.000	-0.009	-0.168
-138.443	-48.109	0.308	0.193
-137.429	676.973	0.072	0.243
-136.414	104.381	-0.341	0.521
-135.399	29.713	0.162	0.179
-134.385	-190.211	0.249	-0.003
-133.370	-155.962	-0.330	-0.027
-132.356	180.630	0.393	-0.751
-131.341	-85.115	0.221	0.089
-130.326	-117.581	-0.297	0.069
-129.312	-9.121	0.238	-0.206
-128.297	-112.296	0.202	-0.052
-127.283	469.835	0.030	0.089
-126.268	-0.501	0.385	0.354
-125.253	257.993	-0.090	-0.202
-124.239	365.174	-0.236	0.618
-123.224	-81.189	0.178	0.076
-122.210	-88.306	0.109	-0.042
-121.195	37.720	0.236	-0.272
-120.180	52.484	-0.228	-0.282
-119.166	800.000	-0.097	-0.433
-118.151	-41.963	0.191	0.126
-117.137	434.795	0.237	-0.672
-116.122	105.361	0.114	0.175
-115.107	-131.415	-0.266	0.045
-114.093	800.000	0.050	0.192
-113.078	-200.000	0.002	-0.107
-112.064	-119.612	-0.744	0.165
-111.049	-188.152	-0.405	-0.007
-110.034	-86.497	-0.256	-0.101
-109.020	-138.734	-0.143	0.020
-108.005	-89.292	-0.096	0.036
-106.991	-200.000	0.004	0.720
-105.976	-200.000	-0.030	-0.258
-104.962	800.000	0.073	-0.416
-103.947	-80.344	-0.370	-0.159
-102.932	-73.504	0.255	-0.120
-101.918	-130.718	-0.240	-0.041
-100.903	800.000	-0.193	-0.911
-99.889	-20.919	0.326	-0.258
-98.874	271.824	0.032	-0.074
-97.859	370.983	0.129	0.341
-96.845	-32.939	0.339	0.243
-95.830	800.000	0.041	-0.202
-94.816	-200.000	-0.035	-0.291
-93.801	800.000	-0.015	-0.059
-92.786	-200.000	0.031	-0.183
-91.772	-137.540	0.221	-0.032
-90.757	110.518	-0.218	-0.340
-89.743	800.000	-0.066	-0.285
-88.728	-139.434	-0.167	-0.023
-87.713	105.584	-0.046	0.070
-86.699	-200.000	-0.026	0.511
-85.684	-9.427	0.235	-0.203
-84.670	63.841	-0.351	-0.457
-83.655	55.009	-0.491	-0.615
-82.640	10.405	0.037	-0.036
-81.626	91.243	0.394	0.573
-80.611	-21.364	-0.185	-0.146
-79.597	-64.343	-0.232	0.122
-78.582	235.206	-0.194	0.416
-77.567	-158.610	0.170	0.012
-76.553	116.153	0.111	-0.177
-75.538	22.376	-0.123	-0.130
-74.524	-7.337	0.335	0.294
-73.509	-67.983	-0.097	0.049
-72.494	800.000	-0.077	0.422
-71.480	-28.395	0.360	-0.268
-70.465	-142.493	-0.126	0.016
-69.451	694.668	-0.105	0.357
-68.436	-200.000	-0.025	0.546
-67.422	37.006	0.240	0.275
-66.407	-200.000	0.028	0.266
-65.392	-14.330	0.321	0.267
-64.378	-81.277	-0.501	0.213
-63.363	-39.222	-0.313	0.212
-62.349	268.040	-0.263	0.599
-61.334	9.002	-2.361	-2.302
-60.319	99.896	1.299	1.949
-59.305	207.284	-3.652	-7.388
-58.290	41.024	4.222	4.929
-57.276	350.968	3.993	10.257
-56.261	-200.000	24.561	322.742
-55.246	354.648	1305.036	3367.507
-54.232	53.316	2842.820	3523.195
-53.217	51.609	2659.071	3268.986
-52.203	31.814	2389.135	2658.338
-51.188	27.844	2054.344	2236.961
-50.173	24.546	1941.154	2075.176
-49.159	23.273	1930.258	2048.646
-48.144	23.110	1924.799	2040.889
-47.130	22.944	1922.513	2036.453
-46.115	22.919	1920.973	2034.457
-45.100	22.804	1919.753	2031.750
-44.086	22.960	1918.535	2032.181
-43.071	22.873	1916.746	2029.210
-42.057	22.856	1914.719	2026.781
-41.042	22.794	1913.214	2024.398
-40.027	22.883	1912.124	2024.180
-39.013	22.732	1911.011	2021.183
-37.998	22.783	1909.872	2020.487
-36.984	22.809	1908.570	2019.335
-35.969	22.730	1907.383	2017.093
-34.954	22.853	1905.868	2016.814
-33.940	22.718	1904.704	2013.953
-32.925	22.739	1903.236	2012.571
-31.911	22.762	1902.455	2011.926
-30.896	22.826	1900.127	2010.113
-29.881	22.679	1899.558	2007.746
-28.867	22.656	1898.112	2005.877
-27.852	22.666	1896.277	2003.970
-26.838	22.597	1894.919	2001.677
-25.823	22.621	1894.087	2000.985
-24.809	22.656	1892.706	1999.849
-23.794	22.629	1891.710	1998.405
-22.779	22.564	1890.036	1995.825
-21.765	22.682	1888.609	1995.573
-20.750	22.539	1888.009	1993.238
-19.736	22.549	1887.042	1992.257
-18.721	22.645	1884.934	1991.042
-17.706	22.552	1884.704	1989.662
-16.692	22.577	1883.198	1988.278
-15.677	22.635	1881.315	1986.867
-14.663	22.614	1880.398	1985.580
-13.648	22.548	1879.336	1983.630
-12.633	22.547	1878.780	1982.951
-11.619	22.619	1876.920	1981.721
-10.604	22.458	1875.353	1978.174
-9.590	22.458	1874.174	1976.860
-8.575	22.569	1872.346	1976.099
-7.560	22.459	1871.743	1974.148
-6.546	22.495	1871.323	1974.032
-5.531	22.502	1870.079	1972.716
-4.517	22.515	1868.024	1970.615
-3.502	22.446	1867.617	1969.337
-2.487	22.486	1865.728	1967.716
-1.473	22.619	1862.536	1965.760
-0.458	22.439	1843.793	1943.904
0.556	19.099	1990.551	2046.515
1.571	17.558	2193.501	2234.587
2.586	18.314	2233.580	2285.293
3.600	18.263	2235.782	2286.582
4.615	18.318	2234.232	2285.467
5.629	18.264	2232.873	2283.082
6.644	18.419	2230.049	2281.993
7.659	18.432	2228.092	2279.885
8.673	18.297	2227.377	2277.081
9.688	18.051	2236.006	2282.325
10.702	17.012	2315.654	2348.885
11.717	15.608	2379.306	2393.082
12.731	7.388	2361.343	2257.528
13.746	1.023	2344.225	2150.285
14.761	0.262	2340.323	2135.611
15.775	0.170	2338.532	2132.403
16.790	0.079	2337.090	2129.551
17.804	0.131	2335.552	2128.620
18.819	0.053	2334.860	2126.628
19.834	-0.001	2333.342	2124.226
20.848	0.022	2331.336	2122.474
21.863	0.124	2329.372	2121.875
22.877	0.028	2327.767	2118.803
23.892	0.151	2324.958	2117.731
24.907	0.084	2323.219	2114.941
25.921	0.170	2320.613	2113.531
26.936	0.111	2318.525	2110.544
27.950	0.039	2317.272	2108.137
28.965	0.091	2314.288	2105.908
29.980	0.157	2312.850	2105.269
30.994	0.148	2311.282	2103.463
32.009	4.126	2322.878	2169.850
33.023	13.303	2349.899	2325.030
34.038	17.266	2355.267	2386.089
35.053	17.438	2353.400	2386.332
36.067	17.590	2351.246	2386.005
37.082	17.554	2349.200	2383.140
38.096	17.524	2347.947	2381.152
39.111	17.699	2345.283	2380.620
40.126	17.744	2344.069	2379.742
41.140	17.931	2342.125	2380.096
42.155	17.890	2339.834	2376.918
43.169	17.828	2338.491	2374.405
44.184	17.743	2335.490	2369.885
45.199	17.714	2333.312	2366.979
46.213	17.681	2333.498	2366.428
47.228	17.801	2331.460	2365.750
48.242	17.757	2329.761	2363.134
49.257	17.909	2327.597	2362.769
50.271	17.780	2325.025	2358.080
51.286	17.798	2321.960	2354.941
52.301	17.703	2320.681	2352.043
53.315	18.134	2321.802	2358.870
54.330	19.867	2327.782	2388.741
55.344	21.045	2326.963	2403.943
56.359	21.170	2323.142	2401.429
57.374	21.124	2322.957	2400.320
58.388	21.391	2320.467	2401.152
59.403	21.433	2315.596	2396.400
60.417	21.201	2313.490	2390.735
61.432	21.163	2312.583	2388.994
62.447	21.418	2311.573	2391.173
63.461	21.531	2309.125	2389.902
64.476	21.677	2306.749	2389.153
65.490	21.551	2304.336	2384.651
66.505	20.915	2302.632	2373.892
67.520	19.511	2295.972	2347.555
68.534	18.096	2289.686	2321.550
69.549	17.778	2285.749	2312.955
70.563	17.811	2283.912	2311.259
71.578	17.766	2282.734	2309.181
72.593	17.768	2280.888	2307.070
73.607	17.962	2279.590	2308.112
74.622	18.073	2277.288	2307.016
75.636	17.965	2273.388	2301.314
76.651	17.888	2271.630	2298.230
77.666	17.877	2270.630	2296.792
78.680	17.844	2268.316	2293.730
79.695	17.703	2266.339	2289.549
80.709	17.700	2265.386	2288.271
81.724	17.696	2264.148	2286.696
82.739	17.725	2261.278	2283.917
83.753	17.714	2258.938	2281.124
84.768	17.784	2256.476	2279.303
85.782	17.667	2256.135	2277.127
86.797	17.564	2253.465	2272.776
87.812	17.719	2251.823	2272.914
88.826	17.624	2250.326	2269.872
89.841	17.751	2247.260	2268.204
90.855	17.788	2245.138	2266.282
91.870	17.641	2244.147	2263.043
92.884	17.645	2242.463	2261.132
93.899	17.521	2241.777	2258.520
94.914	17.918	2242.475	2264.237
95.928	19.570	2247.131	2290.719
96.943	20.169	2245.172	2296.427
97.957	18.647	2237.113	2267.703
98.972	17.786	2233.313	2252.153
99.987	17.557	2230.157	2245.677
101.001	17.643	2226.898	2243.262
102.016	17.618	2225.288	2241.032
103.030	17.635	2223.906	2239.601
104.045	17.750	2220.905	2237.832
105.060	17.827	2218.605	2236.263
106.074	17.776	2217.049	2233.749
107.089	17.637	2216.326	2230.921
108.103	17.596	2214.592	2228.374
109.118	17.751	2212.960	2228.506
110.133	17.841	2211.440	2227.883
111.147	17.849	2209.612	2225.886
112.162	17.797	2208.343	2223.650
113.176	17.804	2206.343	2221.470
114.191	17.806	2204.185	2219.052
115.206	17.860	2202.666	2217.961
116.220	17.859	2200.673	2215.686
117.235	17.781	2198.055	2211.758
118.249	17.604	2197.022	2208.151
119.264	17.757	2195.169	2208.021
120.279	17.807	2193.456	2206.680
121.293	17.871	2190.811	2204.591
122.308	17.818	2190.375	2203.191
123.322	17.816	2189.014	2201.533
124.337	18.005	2188.960	2203.672
125.352	19.794	2194.563	2232.281
126.366	20.147	2193.036	2235.031
127.381	18.431	2183.572	2202.964
128.395	17.722	2179.592	2189.541
129.410	17.673	2177.540	2186.576
130.424	17.696	2176.307	2185.382
131.439	17.663	2174.563	2182.944
132.454	17.603	2172.675	2180.016
133.468	17.710	2171.100	2179.544
134.483	17.761	2168.861	2177.689
135.497	17.740	2168.104	2176.402
136.512	17.776	2164.526	2173.009
137.527	17.803	2162.993	2171.559
138.541	17.685	2162.319	2169.103
139.556	17.558	2162.014	2166.918
140.570	17.502	2161.384	2165.319
141.585	17.600	2158.333	2163.254
142.600	17.619	2156.630	2161.525
143.614	17.689	2154.814	2160.334
144.629	17.647	2153.262	2157.986
145.643	17.527	2151.856	2154.795
146.658	17.592	2149.793	2153.298
147.673	17.601	2148.060	2151.412
148.687	17.744	2146.960	2151.874
149.702	17.773	2145.669	2150.692
150.716	17.680	2144.712	2148.298
151.731	17.784	2142.737	2147.372
152.746	17.917	2141.762	2147.824
153.760	18.201	2143.541	2152.939
154.775	19.837	2148.361	2178.241
155.789	20.189	2146.104	2180.149
156.804	18.570	2137.690	2150.941
157.819	17.715	2132.280	2134.490
158.833	17.598	2130.348	2130.829
159.848	17.812	2128.073	2130.989
160.862	17.919	2126.280	2130.281
161.877	17.863	2125.827	2128.862
162.892	17.855	2125.358	2128.038
163.906	17.739	2124.019	2124.992
164.921	17.771	2121.488	2122.609
165.935	17.839	2119.236	2120.949
166.950	17.859	2117.615	2119.325
167.964	17.744	2115.207	2115.222
168.979	17.652	2113.809	2112.427
169.994	17.744	2111.498	2111.017
171.008	17.832	2109.410	2109.766
172.023	17.815	2108.444	2108.333
173.037	17.801	2107.935	2107.395
174.052	17.729	2106.289	2104.612
175.067	17.620	2104.536	2101.248
176.081	17.577	2103.062	2099.003
177.096	17.726	2101.823	2099.358
178.110	17.691	2099.448	2096.294
179.125	17.724	2098.159	2095.168
180.140	17.688	2097.573	2093.885
181.154	17.626	2096.711	2092.010
182.169	17.615	2095.590	2090.502
183.183	18.125	2095.948	2096.898
184.198	19.931	2101.183	2124.178
185.213	20.443	2098.154	2127.173
186.227	18.657	2090.982	2097.725
187.242	17.889	2088.138	2085.191
188.256	17.783	2085.128	2080.631
189.271	17.943	2084.750	2081.973
190.286	17.883	2083.205	2079.448
191.300	17.674	2080.578	2074.021
192.315	17.654	2078.544	2071.501
193.329	17.750	2077.927	2071.807
194.344	18.006	2076.476	2073.228
195.359	17.922	2075.786	2071.273
196.373	17.856	2073.349	2067.786
197.388	17.832	2070.488	2064.393
198.402	17.718	2069.298	2061.572
199.417	17.681	2067.287	2058.877
200.432	17.656	2065.224	2056.268
201.446	17.742	2064.544	2056.393
202.461	17.725	2062.833	2054.243
203.475	17.660	2061.230	2051.603
204.490	17.546	2059.576	2048.339
205.504	17.727	2056.814	2047.529
206.519	17.646	2054.523	2044.027
207.534	17.569	2053.433	2041.773
208.548	17.788	2051.522	2042.264
209.563	17.697	2050.778	2040.187
210.577	17.623	2050.107	2038.376
211.592	17.714	2049.232	2038.364
212.607	18.687	2052.077	2052.650
213.621	20.673	2056.995	2081.224
214.636	20.225	2051.817	2070.371
215.650	18.320	2044.794	2040.234
216.665	17.842	2041.842	2031.330
217.680	17.885	2040.338	2030.098
218.694	17.801	2039.471	2027.997
219.709	17.706	2037.197	2024.347
220.723	17.709	2035.662	2022.623
221.738	17.895	2033.496	2022.437
222.753	17.752	2031.413	2018.425
223.767	17.830	2030.131	2017.840
224.782	17.691	2028.271	2014.095
225.796	17.778	2027.046	2013.679
226.811	17.841	2025.842	2012.989
227.826	17.895	2023.928	2011.481
228.840	17.749	2023.456	2009.036
229.855	17.788	2021.139	2006.967
230.869	17.695	2020.980	2005.464
231.884	17.844	2018.110	2004.135
232.899	17.841	2016.084	2001.849
233.913	17.781	2014.912	1999.740
234.928	17.748	2014.178	1998.380
235.942	17.727	2013.463	1997.191
236.957	17.772	2010.739	1994.769
237.972	17.855	2009.483	1994.260
238.986	17.872	2008.786	1993.537
240.001	17.707	2007.723	1990.304
241.015	17.710	2006.589	1988.976
242.030	18.262	2007.269	1995.885
243.045	19.784	2009.527	2015.736
244.059	20.004	2007.729	2016.265
245.074	18.401	2000.911	1990.468
246.088	17.747	1997.140	1978.853
247.103	17.794	1995.591	1977.635
248.117	17.915	1993.724	1976.953
249.132	17.837	1992.630	1974.723
250.147	17.740	1990.148	1970.903
251.161	17.647	1989.292	1968.733
252.176	17.938	1988.226	1970.825
253.190	18.043	1986.846	1970.432
254.205	17.967	1984.376	1966.876
255.220	17.833	1983.134	1963.858
256.234	17.946	1981.999	1963.802
257.249	17.838	1980.845	1961.171
258.263	17.875	1979.178	1959.720
259.278	17.812	1979.008	1958.584
260.293	17.949	1976.153	1957.102
261.307	17.748	1974.381	1952.801
262.322	17.720	1972.642	1950.528
263.336	17.676	1971.131	1948.292
264.351	17.570	1969.443	1945.178
265.366	17.659	1967.630	1944.176
266.380	17.751	1966.940	1944.315
267.395	17.634	1965.755	1941.569
268.409	17.660	1964.117	1940.013
269.424	17.824	1962.770	1940.334
270.439	17.733	1962.264	1938.557
271.453	18.297	1963.228	1945.726
272.468	20.102	1965.748	1968.621
273.482	20.151	1962.697	1965.886
274.497	18.520	1955.021	1939.432
275.512	17.810	1952.946	1929.072
276.526	17.778	1950.241	1925.807
277.541	17.723	1948.808	1923.532
278.555	17.682	1947.059	1921.117
279.570	17.562	1945.008	1917.501
280.585	17.586	1943.923	1916.477
281.599	17.658	1942.831	1915.986
282.614	17.840	1941.818	1916.807
283.628	18.011	1940.934	1917.643
284.643	17.891	1940.173	1915.308
285.657	18.062	1939.208	1916.045
286.672	18.089	1937.631	1914.568
287.687	17.966	1936.201	1911.541
288.701	17.964	1934.799	1909.904
289.716	17.859	1933.154	1906.871
290.730	17.850	1931.646	1905.061
291.745	18.063	1930.306	1905.898
292.760	18.031	1928.623	1903.649
293.774	17.822	1927.620	1900.087
294.789	17.917	1926.657	1899.971
295.803	17.817	1924.261	1896.269
296.818	17.661	1923.580	1893.625
297.833	17.844	1921.356	1893.247
298.847	17.791	1919.947	1891.043
299.862	17.855	1918.097	1889.710
300.876	18.165	1919.149	1893.966
301.891	20.125	1922.997	1919.377
302.906	20.353	1921.899	1920.588
303.920	18.561	1915.779	1894.359
304.935	17.902	1911.207	1882.321
305.949	17.747	1909.644	1878.839
306.964	17.698	1908.006	1876.459
307.979	17.873	1905.999	1876.190
308.993	17.713	1905.345	1873.559
310.008	17.883	1903.893	1873.780
311.022	17.988	1902.086	1872.935
312.037	17.986	1901.383	1872.000
313.052	17.947	1899.952	1869.939
314.066	17.923	1897.917	1867.445
315.081	18.046	1896.171	1866.852
316.095	18.000	1895.209	1865.181
317.110	17.837	1893.753	1861.729
318.125	17.871	1892.243	1860.395
319.139	17.877	1890.773	1858.793
320.154	18.102	1888.792	1859.090
321.168	17.998	1887.222	1856.188
322.183	18.048	1886.255	1855.557
323.197	17.767	1884.426	1850.475
324.212	17.705	1882.457	1847.638
325.227	17.533	1881.875	1844.976
326.241	17.703	1880.045	1844.807
327.256	17.765	1878.637	1843.875
328.270	17.681	1878.353	1842.465
329.285	17.634	1877.652	1841.051
330.300	18.364	1880.373	1851.433
331.314	20.415	1882.917	1876.005
332.329	20.277	1879.061	1870.441
333.343	18.313	1872.329	1842.302
334.358	17.895	1869.731	1835.008
335.373	17.844	1867.988	1832.526
336.387	17.779	1865.548	1829.213
337.402	17.745	1864.839	1827.932
338.416	17.741	1862.913	1825.780
339.431	17.914	1861.404	1825.942
340.446	17.925	1859.939	1824.408
341.460	18.073	1859.351	1825.198
342.475	18.134	1857.784	1824.094
343.489	17.973	1856.714	1821.098
344.504	18.013	1855.344	1819.966
345.519	18.084	1853.385	1818.589
346.533	18.003	1852.491	1816.630
347.548	18.077	1851.372	1816.099
348.562	18.170	1850.059	1815.590
349.577	18.164	1848.727	1814.001
350.592	18.291	1847.263	1813.701
351.606	18.095	1846.267	1810.420
352.621	17.931	1843.685	1805.928
353.635	17.714	1842.698	1802.442
354.650	17.674	1841.300	1800.436
355.665	17.762	1839.086	1798.984
356.679	17.719	1838.219	1797.466
357.694	17.811	1836.146	1796.196
358.708	17.799	1835.816	1795.531
359.723	18.751	1838.341	1807.864
360.738	20.463	1840.622	1828.015
361.752	19.881	1837.087	1818.140
362.767	18.181	1831.322	1794.303
363.781	17.876	1828.598	1788.216
364.796	17.747	1827.182	1785.252
365.810	17.657	1826.419	1783.350
366.825	17.716	1825.001	1782.376
367.840	17.851	1824.679	1783.264
368.854	17.848	1823.989	1782.341
369.869	17.763	1821.174	1778.492
370.883	17.729	1818.680	1775.482
371.898	17.624	1818.114	1773.616
372.913	17.671	1817.893	1773.682
373.927	17.756	1816.444	1772.944
374.942	17.744	1815.045	1771.240
375.956	17.783	1814.650	1771.050
376.971	17.830	1811.410	1768.173
377.986	17.758	1809.637	1765.473
379.000	17.727	1809.395	1764.710
380.015	17.852	1807.687	1764.128
381.029	17.994	1806.331	1764.070
382.044	17.962	1804.151	1761.392
383.059	17.781	1802.212	1757.416
384.073	17.601	1801.904	1755.039
385.088	17.600	1800.639	1753.594
386.102	17.635	1798.865	1752.018
387.117	17.489	1797.241	1748.715
388.132	17.554	1796.511	1748.469
389.146	18.148	1799.708	1757.506
390.161	20.345	1801.920	1782.152
391.175	20.150	1795.761	1773.849
392.190	18.183	1788.860	1746.642
393.205	17.739	1786.221	1739.309
394.219	17.687	1785.285	1737.654
395.234	17.722	1783.892	1736.453
396.248	17.709	1781.831	1734.106
397.263	17.768	1780.368	1733.070
398.278	17.667	1778.788	1730.300
399.292	17.769	1777.940	1730.310
400.307	17.859	1777.517	1730.604
401.321	17.966	1776.658	1730.651
402.336	17.764	1775.473	1727.231
403.350	17.919	1773.059	1726.251
404.365	18.107	1772.040	1726.962
405.380	18.163	1771.606	1726.903
406.394	18.121	1770.063	1724.764
407.409	18.109	1768.644	1723.054
408.423	18.089	1767.131	1721.175
409.438	18.024	1765.446	1718.665
410.453	17.933	1765.175	1717.278
411.467	18.065	1763.967	1717.232
412.482	18.007	1761.268	1713.815
413.496	17.879	1761.026	1712.084
414.511	17.712	1758.475	1707.720
415.526	17.769	1755.979	1705.664
416.540	17.677	1755.117	1703.701
417.555	17.798	1754.187	1703.805
418.569	17.685	1753.652	1701.944
419.584	17.848	1753.177	1702.916
420.599	17.809	1753.747	1702.877
421.613	17.810	1752.602	1701.568
422.628	17.784	1750.858	1699.416
423.642	17.810	1748.958	1697.627
424.657	17.619	1748.075	1694.655
425.672	17.862	1745.269	1694.158
426.686	17.868	1744.666	1693.424
427.701	17.652	1743.468	1689.909
428.715	17.678	1741.343	1687.906
429.730	17.814	1740.249	1687.997
430.745	17.911	1738.272	1686.843
431.759	17.954	1738.193	1686.988
432.774	17.833	1738.111	1685.503
433.788	17.928	1737.422	1685.576
434.803	18.083	1736.571	1686.087
435.818	17.877	1736.761	1684.027
436.832	17.743	1736.061	1681.818
437.847	16.998	1729.116	1667.533
438.861	9.593	1708.531	1574.959
439.876	1.860	1693.686	1485.536
440.890	0.395	1690.376	1468.124
441.905	0.275	1689.218	1465.774
442.920	0.314	1688.305	1465.183
443.934	0.116	1686.867	1461.832
444.949	0.124	1686.350	1461.280
445.963	0.239	1684.825	1460.912
446.978	0.272	1684.164	1460.483
447.993	0.165	1682.746	1458.036
449.007	0.258	1681.112	1457.354
450.022	0.241	1678.460	1454.708
451.036	0.255	1677.056	1453.459
452.051	1.118	1682.142	1466.078
453.066	8.839	1698.968	1556.156
454.080	16.306	1710.266	1639.447
455.095	17.579	1711.847	1653.187
456.109	17.719	1711.783	1654.293
457.124	17.965	1709.594	1654.380
458.139	17.834	1709.500	1652.816
459.153	17.881	1707.942	1651.565
460.168	17.871	1705.958	1649.350
461.182	17.804	1704.024	1646.636
462.197	17.865	1702.692	1645.739
463.212	17.724	1701.683	1643.204
464.226	17.779	1700.366	1642.269
465.241	17.757	1698.801	1640.345
466.255	17.855	1697.576	1639.920
467.270	17.891	1696.850	1639.365
468.285	17.710	1696.204	1636.800
469.299	17.575	1694.665	1633.818
470.314	17.766	1692.344	1633.220
471.328	17.982	1690.749	1633.567
472.343	17.734	1690.412	1630.658
473.358	17.844	1689.246	1630.395
474.372	17.817	1688.243	1628.972
475.387	17.865	1686.983	1628.026
476.401	17.834	1684.960	1625.581
477.416	17.923	1683.558	1624.882
478.430	17.845	1682.972	1623.378
479.445	17.805	1681.945	1621.806
480.460	17.743	1680.382	1619.512
481.474	17.831	1679.238	1619.064
482.489	17.825	1677.964	1617.578
483.503	18.009	1675.534	1616.800
484.518	17.848	1675.281	1614.828
485.533	17.775	1674.116	1612.815
486.547	17.910	1672.557	1612.399
487.562	17.949	1671.619	1611.673
488.576	18.176	1669.667	1611.752
489.591	17.999	1668.763	1609.011
490.606	17.933	1667.658	1607.128
491.620	18.003	1665.282	1605.304
492.635	17.895	1664.583	1603.420
493.649	17.927	1663.461	1602.449
494.664	17.950	1661.548	1600.636
495.679	17.805	1660.404	1597.975
496.693	17.758	1659.493	1596.464
497.708	17.757	1658.111	1594.933
498.722	17.898	1657.253	1595.237
499.737	17.826	1655.276	1592.475
500.752	17.851	1653.534	1590.844
501.766	17.866	1651.565	1588.898
502.781	17.888	1651.234	1588.593
503.795	17.794	1650.289	1586.612
504.810	17.842	1648.271	1584.936
505.825	17.989	1647.873	1585.729
506.839	18.075	1646.477	1585.003
507.854	17.996	1645.301	1582.943
508.868	17.882	1644.623	1581.038
509.883	17.870	1643.907	1580.054
510.898	17.984	1642.060	1579.141
511.912	17.823	1640.298	1575.766
512.927	17.806	1638.586	1573.777
513.941	17.811	1636.846	1571.960
514.956	17.931	1635.675	1571.762
515.971	17.911	1634.781	1570.533
516.985	17.968	1633.407	1569.549
518.000	18.003	1632.856	1569.152
519.014	17.730	1632.637	1566.234
520.029	17.906	1629.997	1565.137
521.043	17.928	1628.743	1563.949
522.058	18.048	1627.651	1563.813
523.073	17.984	1626.636	1562.064
524.087	18.043	1626.055	1561.860
525.102	18.209	1624.180	1561.393
526.116	17.876	1623.094	1557.116
527.131	17.860	1622.392	1556.105
528.146	18.037	1621.340	1556.535
529.160	17.988	1620.178	1554.778
530.175	17.963	1618.873	1553.118
531.189	18.107	1617.353	1552.783
532.204	17.966	1616.742	1550.726
533.219	17.758	1615.160	1547.131
534.233	17.820	1614.403	1546.780
535.248	17.983	1613.842	1547.545
536.262	18.111	1612.615	1547.347
537.277	18.133	1611.080	1545.886
538.292	18.120	1609.136	1543.722
539.306	18.197	1607.198	1542.376
540.321	18.087	1606.535	1540.553
541.335	18.086	1605.498	1539.371
542.350	18.156	1603.912	1538.295
543.365	18.076	1602.220	1535.768
544.379	18.166	1600.730	1534.972
545.394	18.146	1599.396	1533.321
546.408	18.024	1598.594	1531.270
547.423	17.904	1597.216	1528.688
548.438	17.871	1595.892	1526.940
549.452	17.985	1595.282	1527.198
550.467	17.967	1594.670	1526.272
551.481	17.964	1593.515	1524.955
552.496	17.982	1592.337	1523.810
553.511	18.051	1591.377	1523.325
554.525	17.952	1590.363	1521.285
555.540	17.988	1589.834	1520.920
556.554	18.216	1587.833	1520.862
557.569	18.219	1585.670	1518.634
558.583	18.171	1584.484	1516.889
559.598	18.190	1583.291	1515.736
560.613	18.063	1582.792	1513.942
561.627	18.135	1581.297	1512.975
562.642	18.075	1580.312	1511.317
563.656	18.090	1578.412	1509.450
564.671	18.151	1577.622	1509.057
565.686	18.122	1576.413	1507.459
566.700	17.951	1575.938	1505.313
567.715	17.994	1573.441	1503.130
568.729	18.051	1572.059	1502.135
569.744	18.090	1570.581	1500.882
570.759	18.136	1569.089	1499.681
571.773	18.011	1568.908	1498.232
572.788	18.093	1567.614	1497.539
573.802	17.972	1566.604	1495.330
574.817	18.112	1564.351	1494.232
575.832	18.008	1563.879	1492.682
576.846	18.118	1562.422	1492.082
577.861	18.018	1561.545	1490.184
578.875	18.176	1560.475	1490.369
579.890	18.264	1559.758	1490.280
580.905	18.034	1559.793	1488.124
581.919	18.112	1558.080	1486.990
582.934	18.334	1556.221	1486.977
583.948	18.068	1555.962	1484.228
584.963	18.150	1553.920	1482.817
585.978	18.031	1552.627	1480.372
586.992	17.987	1552.936	1480.109
588.007	18.176	1551.719	1480.416
589.021	18.223	1550.436	1479.415
590.036	17.997	1549.863	1476.731
591.051	18.088	1548.128	1475.690
592.065	18.293	1546.182	1475.437
593.080	18.259	1544.757	1473.609
594.094	18.261	1543.410	1472.163
595.109	18.102	1541.283	1468.582
596.123	18.011	1539.763	1466.177
597.138	17.996	1539.168	1465.304
598.153	18.129	1538.035	1465.199
599.167	18.057	1536.694	1463.120
600.182	18.222	1536.105	1463.810
601.196	18.243	1535.514	1463.245
602.211	18.181	1533.827	1460.937
603.226	18.110	1532.716	1459.090
604.240	18.156	1531.095	1457.764
605.255	18.247	1529.360	1456.723
606.269	18.144	1529.191	1455.505
607.284	18.201	1528.222	1454.895
608.299	18.166	1526.451	1452.731
609.313	18.250	1525.077	1451.968
610.328	18.260	1524.103	1450.955
611.342	18.217	1523.051	1449.417
612.357	18.243	1522.539	1448.973
613.372	18.292	1521.547	1448.273
614.386	18.318	1520.035	1446.880
615.401	18.197	1519.366	1445.044
616.415	18.132	1518.802	1443.785
617.430	18.331	1517.420	1443.983
618.445	18.315	1516.033	1442.357
619.459	18.129	1515.058	1439.679
620.474	18.116	1513.753	1438.157
621.488	18.032	1512.905	1436.467
622.503	18.108	1511.716	1435.812
623.518	18.282	1510.461	1435.918
624.532	18.235	1509.357	1434.301
625.547	18.195	1508.557	1433.024
626.561	18.177	1507.706	1431.894
627.576	18.404	1506.777	1432.753
628.591	18.287	1505.069	1429.978
629.605	18.234	1503.635	1428.000
630.620	18.202	1502.496	1426.479
631.634	18.266	1501.175	1425.583
632.649	18.272	1500.691	1425.008
633.663	18.336	1498.869	1423.642
634.678	18.282	1498.508	1422.677
635.693	18.379	1496.583	1421.490
636.707	18.355	1494.817	1419.437
637.722	18.557	1493.426	1419.633
638.736	18.515	1492.739	1418.459
639.751	18.385	1492.442	1416.922
640.766	18.252	1490.899	1414.185
641.780	18.262	1489.100	1412.396
642.795	18.372	1488.974	1413.017
643.809	18.477	1487.689	1412.495
644.824	18.351	1486.956	1410.593
645.839	18.367	1486.269	1409.905
646.853	18.426	1484.943	1408.967
647.868	18.309	1483.201	1406.178
648.882	18.336	1482.037	1405.123
649.897	18.374	1480.155	1403.484
650.912	18.425	1478.954	1402.597
651.926	18.231	1479.233	1401.101
652.941	18.265	1478.076	1400.117
653.955	18.393	1475.369	1398.431
654.970	18.358	1473.956	1396.641
655.985	18.297	1473.088	1395.148
656.999	18.324	1471.858	1394.043
658.014	18.456	1470.702	1393.859
659.028	18.423	1470.084	1392.834
660.043	18.477	1469.349	1392.415
661.058	18.497	1467.567	1390.722
662.072	18.406	1466.967	1389.245
663.087	18.340	1466.298	1387.910
664.101	18.320	1464.436	1385.819
665.116	18.319	1463.509	1384.765
666.131	18.480	1462.185	1384.653
667.145	18.559	1460.794	1383.810
668.160	18.436	1460.165	1382.049
669.174	18.410	1458.847	1380.430
670.189	18.447	1457.737	1379.513
671.204	18.423	1456.796	1378.262
672.218	18.391	1456.147	1377.226
673.233	18.371	1455.283	1376.085
674.247	18.635	1454.059	1376.886
675.262	18.342	1453.493	1373.826
676.276	18.341	1452.060	1372.299
677.291	18.375	1451.449	1371.835
678.306	18.327	1449.639	1369.574
679.320	18.360	1448.243	1368.352
680.335	18.408	1448.413	1368.739
681.349	18.504	1447.956	1368.911
682.364	18.402	1447.087	1367.104
683.379	18.383	1444.994	1364.815
684.393	18.331	1443.430	1362.753
685.408	18.513	1442.540	1363.210
686.422	18.285	1441.799	1360.523
687.437	18.268	1440.996	1359.463
688.452	18.398	1440.287	1359.672
689.466	18.311	1438.820	1357.435
690.481	18.328	1437.259	1355.930
691.495	18.313	1436.244	1354.695
692.510	18.438	1434.468	1353.845
693.525	18.262	1433.478	1351.354
694.539	18.376	1432.458	1351.138
695.554	18.510	1432.085	1351.683
696.568	18.458	1431.546	1350.604
697.583	18.590	1430.205	1350.215
698.598	18.353	1429.305	1347.335
699.612	18.594	1427.318	1347.206
700.627	18.601	1426.488	1346.309
701.641	18.508	1425.022	1344.038
702.656	18.534	1424.724	1343.801
703.671	18.492	1423.940	1342.569
704.685	18.531	1423.592	1342.384
705.700	18.727	1421.372	1341.671
706.714	18.521	1419.896	1338.503
707.729	18.509	1419.267	1337.656
708.744	18.491	1418.089	1336.241
709.758	18.494	1416.635	1334.738
710.773	18.571	1415.473	1334.086
711.787	18.537	1414.683	1332.916
712.802	18.616	1413.029	1331.808
713.816	18.528	1412.115	1330.108
714.831	18.508	1412.033	1329.713
715.846	18.556	1410.775	1328.743
716.860	18.628	1409.266	1327.725
717.875	18.605	1407.527	1325.745
718.889	18.542	1406.973	1324.578
719.904	18.510	1405.965	1323.222
720.919	18.596	1404.724	1322.560
721.933	18.615	1404.173	1322.035
722.948	18.702	1403.088	1321.524
723.962	18.560	1402.404	1319.627
724.977	18.597	1400.649	1318.098
725.992	18.744	1400.119	1318.576
727.006	18.623	1398.220	1315.696
728.021	18.688	1397.211	1315.095
729.035	18.691	1396.132	1313.942
730.050	18.624	1395.468	1312.646
731.065	18.590	1393.920	1310.773
732.079	18.706	1393.054	1310.693
733.094	18.581	1392.194	1308.764
734.108	18.551	1390.403	1306.694
735.123	18.592	1388.947	1305.488
736.138	18.650	1387.963	1304.845
737.152	18.719	1387.316	1304.610
738.167	18.677	1386.642	1303.502
739.181	18.597	1386.017	1302.145
740.196	18.529	1384.684	1300.215
741.211	18.621	1383.564	1299.713
742.225	18.592	1382.756	1298.576
743.240	18.636	1381.427	1297.506
744.254	18.641	1379.788	1295.849
745.269	18.611	1379.539	1295.236
746.284	18.591	1378.074	1293.551
747.298	18.545	1376.399	1291.476
748.313	18.597	1375.797	1291.150
749.327	18.385	1375.723	1289.319
750.342	18.291	1374.937	1287.719
751.356	18.304	1373.153	1285.996
752.371	18.379	1371.884	1285.221
753.386	18.612	1370.904	1285.905
754.400	18.588	1369.905	1284.630
755.415	18.668	1368.899	1284.132
756.429	18.767	1367.798	1283.690
757.444	18.661	1366.645	1281.657
758.459	18.692	1365.683	1280.836
759.473	18.840	1365.209	1281.348
760.488	18.799	1363.798	1279.562
761.502	18.755	1363.190	1278.514
762.517	18.728	1362.163	1277.193
763.532	18.589	1361.102	1275.007
764.546	18.611	1359.896	1273.889
765.561	18.638	1358.619	1272.744
766.575	18.731	1356.922	1271.693
767.590	18.463	1356.667	1269.309
768.605	18.821	1355.367	1270.600
769.619	18.694	1353.992	1268.211
770.634	18.668	1353.161	1267.090
771.648	18.732	1352.831	1267.105
772.663	18.704	1351.847	1265.822
773.678	18.758	1350.928	1265.213
774.692	18.761	1349.466	1263.715
775.707	18.792	1349.473	1263.802
776.721	18.755	1348.682	1262.636
777.736	18.824	1347.577	1261.959
778.751	18.783	1345.877	1259.913
779.765	18.806	1345.056	1259.163
780.780	18.594	1344.616	1257.039
781.794	18.622	1343.639	1256.182
782.809	18.554	1342.649	1254.605
783.824	18.619	1340.826	1253.225
784.838	18.611	1339.549	1251.822
785.853	18.274	1339.393	1249.057
786.867	18.441	1338.350	1249.156
787.882	18.304	1337.998	1247.678
788.897	18.638	1336.821	1248.874
789.911	18.656	1335.690	1247.797
790.926	18.729	1334.416	1246.997
791.940	18.565	1332.986	1244.315
792.955	18.658	1331.513	1243.464
793.969	18.681	1330.922	1242.933
794.984	18.687	1330.008	1241.977
795.999	18.787	1328.782	1241.411
797.013	18.723	1327.253	1239.366
798.028	18.659	1325.766	1237.365
799.042	18.714	1325.249	1237.131
800.057	18.881	1324.486	1237.481
801.072	18.861	1323.190	1235.977
802.086	18.729	1321.959	1233.729
803.101	18.833	1321.521	1233.922
804.115	18.752	1321.410	1233.086
805.130	18.900	1318.966	1231.725
806.145	18.850	1318.101	1230.407
807.159	18.761	1316.647	1228.263
808.174	18.786	1315.248	1226.992
809.188	18.896	1313.962	1226.432
810.203	18.841	1312.758	1224.773
811.218	18.731	1311.347	1222.522
812.232	18.806	1309.712	1221.386
813.247	18.671	1309.005	1219.615
814.261	18.698	1308.863	1219.530
815.276	18.776	1307.712	1218.868
816.291	18.785	1307.036	1218.154
817.305	18.824	1306.198	1217.506
818.320	18.790	1304.751	1215.770
819.334	18.820	1302.549	1213.782
820.349	18.684	1302.042	1212.199
821.364	18.741	1300.924	1211.420
822.378	18.779	1299.096	1209.841
823.393	18.690	1297.990	1208.035
824.407	18.722	1297.126	1207.314
825.422	18.688	1296.477	1206.324
826.437	18.545	1295.260	1204.039
827.451	18.632	1292.989	1202.400
828.466	18.647	1291.745	1201.206
829.480	18.536	1289.984	1198.645
830.495	18.485	1288.268	1196.546
831.509	18.567	1287.464	1196.233
832.524	18.713	1286.633	1196.338
833.539	18.772	1285.819	1195.853
834.553	18.829	1284.288	1194.683
835.568	18.872	1283.557	1194.158
836.582	18.831	1283.004	1193.220
837.597	18.810	1281.558	1191.584
838.612	18.904	1280.249	1190.875
839.626	18.972	1278.963	1190.013
840.641	18.913	1278.048	1188.607
841.655	18.851	1277.760	1187.766
842.670	18.871	1276.719	1186.793
843.685	18.582	1275.659	1183.666
844.699	18.661	1274.548	1183.036
845.714	18.806	1272.854	1182.327
846.728	18.651	1272.997	1181.247
847.743	18.743	1271.835	1180.665
848.758	18.815	1270.206	1179.508
849.772	18.861	1268.113	1177.742
850.787	18.827	1266.926	1176.259
851.801	18.763	1266.509	1175.292
852.816	18.782	1265.189	1174.063
853.831	18.735	1263.041	1171.604
854.845	18.761	1261.021	1169.764
855.860	18.770	1259.885	1168.637
856.874	18.718	1258.659	1167.000
857.889	18.552	1258.351	1165.445
858.904	18.505	1256.429	1163.206
859.918	18.605	1254.716	1162.158
860.933	18.381	1253.534	1159.403
861.947	18.586	1252.859	1160.032
862.962	18.640	1251.811	1159.289
863.977	18.593	1250.899	1157.990
864.991	18.694	1250.251	1157.932
866.006	18.693	1249.561	1157.152
867.020	18.858	1247.927	1156.615
868.035	18.782	1246.884	1154.996
869.049	18.821	1246.474	1154.738
870.064	18.816	1245.903	1154.040
871.079	18.764	1245.143	1152.845
872.093	18.787	1244.116	1151.915
873.108	19.139	1242.868	1152.987
874.122	19.014	1241.603	1150.835
875.137	18.931	1241.626	1150.165
876.152	18.853	1240.638	1148.587
877.166	18.975	1238.432	1147.224
878.181	18.922	1237.574	1145.934
879.195	18.959	1236.624	1145.167
880.210	18.995	1235.656	1144.373
881.225	18.824	1235.042	1142.527
882.239	18.941	1233.949	1142.163
883.254	18.903	1233.633	1141.475
884.268	18.877	1232.807	1140.400
885.283	19.007	1230.568	1139.061
886.298	18.954	1229.277	1137.377
887.312	18.902	1228.582	1136.250
888.327	18.994	1227.077	1135.334
889.341	18.912	1225.732	1133.413
890.356	18.841	1225.640	1132.716
891.371	18.681	1225.402	1131.301
892.385	18.779	1225.000	1131.445
893.400	18.701	1224.371	1130.216
894.414	18.776	1222.432	1128.781
895.429	18.606	1220.750	1125.971
896.444	18.615	1218.503	1123.829
897.458	18.462	1217.682	1121.927
898.473	18.642	1216.784	1122.150
899.487	18.735	1216.630	1122.485
900.502	18.794	1215.351	1121.558
901.517	18.759	1214.477	1120.389
902.531	18.936	1214.039	1121.010
903.546	18.800	1213.258	1119.263
904.560	18.932	1211.842	1118.688
905.575	19.069	1210.628	1118.328
906.589	18.840	1210.767	1116.822
907.604	18.896	1210.077	1116.423
