DTS Sentinel unit serial number:	SN409020Multiplexer serial number:	ORYXHardware model number:	OX4-SRSoftware version number:	ORYX F/W v3.00 Oryx Data Collector v3.7.2.0data status	okinstallation	HaddamTimeLapsedifferential loss correction	single-endedforward channel	channel 3reverse channel	N/Adate	2011/06/22time	02:31:17forward acquisition time	30.00reverse acquisition time	0.00gamma	498.7831k internal	0.1751k external	0.1751temperature offset calibration	1.0074default loss term (dB/km)	0.3790temperature slope calibration	1.3530multiplexer offset coefficient	1.0000multiplexer slope coefficient	1.0000fibre end	0.00T internal ref (°C)	22.37T ext. ref 1 (°C)	17.56T ext. ref 2 (°C)	0.03length (m)	temperature (°C)	Stokes	anti-Stokes-747.200	-14.244	0.228	0.195
-746.185	268.848	-0.185	0.434
-745.171	101.178	-0.198	-0.306
-744.156	-160.297	0.159	0.011
-743.142	99.587	-0.154	0.238
-742.127	466.342	0.126	0.377
-741.112	-84.791	0.480	0.199
-740.098	-64.957	0.242	0.129
-739.083	-92.709	0.160	-0.059
-738.069	-200.000	0.028	-0.170
-737.054	38.293	0.080	0.095
-736.039	-70.300	-0.162	0.082
-735.025	-200.000	0.016	0.700
-734.010	190.817	0.150	-0.301
-732.996	-137.052	0.092	0.014
-731.981	183.141	0.153	0.300
-730.966	-70.434	0.184	0.092
-729.952	-200.000	-0.008	-0.060
-728.937	-122.525	-0.279	0.060
-727.923	-143.388	0.483	0.061
-726.908	148.259	0.187	0.336
-725.894	-200.000	-0.037	0.277
-724.879	-12.606	0.175	0.152
-723.864	273.981	-0.268	-0.631
-722.850	800.000	0.056	-0.307
-721.835	-63.491	0.235	-0.128
-720.821	498.023	-0.020	-0.063
-719.806	141.492	0.440	-0.776
-718.791	-124.420	-0.106	0.022
-717.777	-200.000	0.014	-0.342
-716.762	-34.779	0.369	0.267
-715.748	-14.943	-0.044	-0.037
-714.733	-79.386	-0.507	0.226
-713.718	796.744	0.044	0.161
-712.704	331.460	-0.126	-0.324
-711.689	-117.024	0.200	0.048
-710.675	-200.000	0.016	0.119
-709.660	-200.000	0.067	0.625
-708.645	78.063	-0.192	0.272
-707.631	-200.000	0.015	0.477
-706.616	-39.407	-0.160	0.111
-705.602	121.682	-0.270	-0.448
-704.587	-6.912	-0.332	-0.299
-703.572	41.757	-0.202	0.243
-702.558	5.959	0.196	-0.192
-701.543	214.911	0.103	0.217
-700.529	-148.247	-0.352	-0.038
-699.514	-38.291	-0.091	0.064
-698.499	-102.852	-0.093	0.029
-697.485	-121.768	0.280	-0.061
-696.470	-120.403	-0.348	-0.078
-695.456	-26.896	0.067	-0.052
-694.441	-200.000	0.026	-0.687
-693.426	232.091	-0.265	-0.579
-692.412	23.495	0.120	-0.131
-691.397	171.423	-0.196	-0.374
-690.383	-200.000	-0.013	-0.132
-689.368	-188.489	-0.577	-0.009
-688.354	488.493	-0.091	0.278
-687.339	-72.842	-0.311	0.151
-686.324	59.044	0.132	0.172
-685.310	56.351	0.125	-0.162
-684.295	-89.607	0.170	-0.066
-683.281	-97.499	-0.465	-0.159
-682.266	-140.851	0.032	-0.004
-681.251	49.829	0.252	-0.315
-680.237	-110.940	-0.101	0.027
-679.222	-186.600	-0.262	0.005
-678.208	238.928	-0.045	-0.099
-677.193	-135.265	0.279	0.044
-676.178	-107.421	0.142	0.041
-675.164	-40.469	-0.330	-0.226
-674.149	-200.000	0.026	-0.233
-673.135	315.599	-0.047	-0.118
-672.120	-108.052	-0.270	-0.077
-671.105	-115.244	-0.204	0.051
-670.091	-12.736	0.190	-0.164
-669.076	44.100	0.305	-0.371
-668.062	63.504	-0.153	0.203
-667.047	-200.000	0.007	-0.109
-666.032	-157.850	0.347	0.027
-665.018	-64.121	0.228	0.123
-664.003	-45.746	-0.220	0.143
-662.989	17.705	-0.162	0.171
-661.974	800.000	0.027	-0.099
-660.959	80.872	-0.141	-0.202
-659.945	-21.005	0.429	0.347
-658.930	91.072	0.270	0.401
-657.916	648.719	-0.103	0.351
-656.901	-159.611	-0.356	0.026
-655.886	-200.000	-0.014	0.378
-654.872	-8.843	0.238	-0.211
-653.857	-167.760	0.153	-0.008
-652.843	-145.592	-0.159	0.019
-651.828	800.000	0.046	-0.213
-650.814	-200.000	0.151	0.000
-649.799	307.889	0.093	0.231
-648.784	-75.631	0.331	0.155
-647.770	-109.281	-0.285	-0.080
-646.755	13.948	-0.247	-0.254
-645.741	-140.105	0.271	-0.037
-644.726	669.514	-0.184	-0.635
-643.711	-5.417	-0.277	0.252
-642.697	-200.000	0.012	0.082
-641.682	306.243	-0.125	-0.310
-640.668	74.715	0.231	0.323
-639.653	-88.697	0.283	-0.111
-638.638	-200.000	-0.025	0.394
-637.624	24.360	-0.348	0.381
-636.609	-27.907	0.356	-0.272
-635.595	-96.396	0.521	0.181
-634.580	-106.118	-0.107	0.032
-633.565	102.691	-0.218	0.338
-632.551	-183.385	-0.705	-0.016
-631.536	9.263	0.323	-0.323
-630.522	303.875	-0.143	-0.351
-629.507	551.735	0.098	0.313
-628.492	548.253	-0.068	0.217
-627.478	302.623	0.076	-0.186
-626.463	-14.787	0.090	0.076
-625.449	51.396	-0.263	0.331
-624.434	119.875	-0.275	0.452
-623.419	-128.896	0.216	0.040
-622.405	-157.962	0.572	0.044
-621.390	-3.991	-0.055	0.051
-620.376	-101.470	-0.466	0.149
-619.361	-105.335	0.372	-0.111
-618.346	-49.087	0.102	-0.064
-617.332	-90.391	-0.366	-0.140
-616.317	-52.399	0.563	0.343
-615.303	239.521	0.119	-0.263
-614.288	-58.271	0.503	-0.288
-613.273	-126.388	-0.495	0.097
-612.259	-153.374	-0.367	0.033
-611.244	-122.431	0.411	-0.088
-610.230	-178.649	0.632	0.019
-609.215	-89.761	-0.526	-0.202
-608.201	-68.528	0.304	-0.155
-607.186	337.065	0.145	-0.375
-606.171	-60.180	-0.483	-0.271
-605.157	-38.884	0.134	-0.093
-604.142	-85.714	0.159	-0.065
-603.128	-29.478	-0.517	0.390
-602.113	88.243	-0.185	0.271
-601.098	63.336	-0.187	0.248
-600.084	-11.753	-0.322	0.279
-599.069	-80.740	-0.167	0.073
-598.055	-13.137	-0.248	-0.213
-597.040	-133.493	-0.558	0.092
-596.025	-44.585	0.598	-0.394
-595.011	-80.874	-0.340	-0.148
-593.996	45.767	-0.243	0.297
-592.982	688.901	-0.183	-0.637
-591.967	800.000	-0.006	0.030
-590.952	-15.116	0.167	-0.141
-589.938	-72.356	-0.093	0.045
-588.923	605.846	-0.040	0.131
-587.909	-151.187	-0.228	0.022
-586.894	-116.731	-0.627	-0.151
-585.879	185.788	0.174	0.342
-584.865	80.582	0.069	-0.098
-583.850	-200.000	-0.008	0.517
-582.836	-18.405	0.135	-0.111
-581.821	-126.845	0.182	-0.035
-580.806	58.693	0.183	-0.237
-579.792	11.412	0.260	-0.262
-578.777	-63.314	-0.245	-0.133
-577.763	-30.929	0.129	-0.096
-576.748	-188.238	0.242	0.004
-575.733	800.000	-0.123	-0.497
-574.719	-200.000	0.078	-0.463
-573.704	-200.000	0.031	-0.600
-572.690	-105.199	-0.116	-0.035
-571.675	100.938	-0.141	0.217
-570.661	134.980	0.109	-0.187
-569.646	114.782	0.188	0.302
-568.631	0.210	-0.244	0.229
-567.617	283.242	0.144	-0.342
-566.602	-67.667	-0.112	0.058
-565.588	-0.374	0.145	-0.136
-564.573	-0.412	-0.299	-0.280
-563.558	116.726	0.201	0.326
-562.544	-50.983	0.243	-0.150
-561.529	150.070	-0.207	-0.371
-560.515	-66.888	-0.522	-0.271
-559.500	780.806	-0.025	-0.092
-558.485	208.953	0.340	-0.704
-557.471	-86.783	0.463	-0.186
-556.456	-21.736	0.361	0.289
-555.442	-175.780	-0.333	0.012
-554.427	152.704	-0.159	0.287
-553.412	137.752	0.105	-0.183
-552.398	-134.282	0.123	-0.020
-551.383	33.890	-0.160	0.184
-550.369	-23.507	-0.262	0.207
-549.354	800.000	0.137	0.611
-548.339	-53.308	-0.312	-0.188
-547.325	-152.105	-0.154	0.015
-546.310	-14.606	-0.137	0.116
-545.296	-12.261	0.149	-0.128
-544.281	244.439	-0.234	-0.520
-543.266	632.374	-0.058	-0.194
-542.252	-41.114	0.479	-0.325
-541.237	639.725	0.126	-0.424
-540.223	-98.726	0.233	0.078
-539.208	2.400	-0.226	0.215
-538.193	-200.000	-0.001	-0.265
-537.179	-200.000	0.022	-0.388
-536.164	-45.870	-0.669	0.434
-535.150	176.909	0.137	0.264
-534.135	15.750	-0.565	0.586
-533.121	63.681	0.054	-0.071
-532.106	39.774	0.189	-0.224
-531.091	249.432	0.070	0.156
-530.077	-200.000	0.012	-0.210
-529.062	91.033	-0.083	0.123
-528.048	1.323	-0.163	-0.154
-527.033	-49.354	0.242	-0.152
-526.018	800.000	-0.068	0.322
-525.004	1.208	0.286	0.270
-523.989	-145.788	0.194	-0.023
-522.975	-70.689	-0.151	-0.075
-521.960	-168.279	0.151	-0.008
-520.945	800.000	0.030	0.172
-519.931	3.121	0.339	0.324
-518.916	14.903	-0.457	0.470
-517.902	-200.000	-0.039	-0.306
-516.887	408.114	-0.169	-0.474
-515.872	-148.862	-0.307	0.032
-514.858	92.020	-0.375	-0.557
-513.843	-200.000	-0.002	0.037
-512.829	154.077	0.238	0.430
-511.814	21.086	0.214	0.228
-510.799	25.542	0.139	-0.152
-509.785	20.715	0.081	-0.086
-508.770	250.537	0.217	-0.488
-507.756	668.099	0.109	-0.374
-506.741	-200.000	0.034	-0.480
-505.726	-0.453	0.346	-0.324
-504.712	-80.508	-0.111	0.048
-503.697	69.760	0.496	-0.674
-502.683	3.154	0.197	0.189
-501.668	-41.504	0.279	0.188
-500.653	-145.010	-0.097	-0.011
-499.639	38.882	-0.144	0.169
-498.624	91.672	-0.192	0.284
-497.610	66.767	-0.175	0.235
-496.595	271.186	0.119	-0.276
-495.581	-20.716	0.192	0.155
-494.566	-176.332	-0.439	-0.015
-493.551	-78.829	0.048	0.022
-492.537	-124.286	0.418	-0.085
-491.522	196.309	0.097	-0.195
-490.508	-93.679	-0.200	-0.072
-489.493	-143.764	-0.197	-0.024
-488.478	19.394	-0.078	0.082
-487.464	-94.747	-0.302	0.107
-486.449	-9.313	-0.081	-0.071
-485.435	67.014	0.269	0.361
-484.420	-85.854	-0.505	-0.205
-483.405	-107.149	0.343	0.099
-482.391	-86.641	-0.585	-0.234
-481.376	16.616	0.039	0.041
-480.362	-17.872	0.251	-0.207
-479.347	800.000	-0.151	-0.698
-478.332	434.639	0.079	-0.228
-477.318	255.991	0.271	-0.614
-476.303	-47.941	0.442	-0.280
-475.289	-148.944	-0.294	0.031
-474.274	-70.015	0.429	-0.214
-473.259	-200.000	-0.049	-0.336
-472.245	800.000	0.012	-0.053
-471.230	550.016	0.137	0.435
-470.216	-131.083	-0.347	-0.060
-469.201	160.788	-0.232	-0.427
-468.186	41.135	-0.313	0.372
-467.172	-200.000	-0.022	0.149
-466.157	178.346	0.201	0.387
-465.143	-39.193	0.336	0.232
-464.128	100.164	0.170	-0.260
-463.113	800.000	-0.106	0.426
-462.099	-32.729	-0.195	0.142
-461.084	33.539	0.245	0.280
-460.070	279.645	-0.079	0.187
-459.055	800.000	0.067	-0.333
-458.040	168.470	-0.123	-0.232
-457.026	-104.497	-0.060	-0.018
-456.011	-172.341	-0.378	-0.016
-454.997	800.000	0.057	0.228
-453.982	-200.000	-0.006	-0.136
-452.968	-173.240	0.414	0.016
-451.953	800.000	0.057	-0.211
-450.938	800.000	-0.078	-0.297
-449.924	-102.094	-0.444	-0.139
-448.909	-113.734	-0.185	0.047
-447.895	24.861	-0.167	0.182
-446.880	327.276	-0.110	0.279
-445.865	-63.398	0.306	-0.165
-444.851	153.241	0.108	-0.195
-443.836	-122.514	0.277	0.059
-442.822	-160.269	-0.295	0.021
-441.807	-12.009	0.579	0.498
-440.792	255.730	-0.102	0.232
-439.778	-200.000	0.006	-0.117
-438.763	142.984	-0.306	-0.536
-437.749	-195.253	0.194	0.002
-436.734	50.057	0.132	0.164
-435.719	-151.836	0.098	0.009
-434.705	34.953	-0.144	0.166
-433.690	42.902	-0.098	0.117
-432.676	-91.932	0.321	-0.119
-431.661	-155.515	0.417	-0.035
-430.646	-138.323	0.156	0.022
-429.632	-18.100	0.247	-0.202
-428.617	-69.914	0.225	0.112
-427.603	15.684	0.112	-0.115
-426.588	-200.000	-0.003	-0.201
-425.573	114.130	-0.172	-0.275
-424.559	110.036	0.061	0.096
-423.544	228.021	0.072	-0.155
-422.530	-116.934	-0.120	-0.028
-421.515	-200.000	0.032	-0.282
-420.500	-200.000	-0.018	-0.312
-419.486	-200.000	0.016	-0.279
-418.471	-200.000	-0.009	0.077
-417.457	-70.047	-0.216	0.108
-416.442	-154.674	-0.327	0.028
-415.428	-200.000	-0.099	0.597
-414.413	-54.195	0.092	0.054
-413.398	-54.759	0.275	-0.162
-412.384	-29.855	0.287	-0.214
-411.369	-45.373	-0.252	-0.163
-410.355	-151.251	0.362	0.035
-409.340	108.522	0.007	-0.011
-408.325	-175.105	-0.341	0.012
-407.311	171.909	0.267	-0.504
-406.296	800.000	0.002	-0.012
-405.282	-200.000	0.002	-0.036
-404.267	-21.105	-0.216	0.173
-403.252	397.146	0.119	0.327
-402.238	800.000	-0.067	-0.291
-401.223	-80.713	-0.263	-0.114
-400.209	-163.441	-0.244	-0.015
-399.194	-110.753	0.267	-0.072
-398.179	-125.041	0.515	0.103
-397.165	3.790	0.404	-0.386
-396.150	-87.481	-0.397	-0.157
-395.136	-200.000	0.019	0.405
-394.121	84.767	-0.120	-0.172
-393.106	239.815	-0.084	0.184
-392.092	-94.787	0.298	-0.105
-391.077	800.000	-0.052	0.271
-390.063	-200.000	-0.058	0.433
-389.048	800.000	0.030	-0.144
-388.033	299.116	-0.143	-0.347
-387.019	800.000	-0.099	0.369
-386.004	-67.698	0.382	0.195
-384.990	-170.312	0.306	0.014
-383.975	148.422	0.059	0.105
-382.960	-118.918	0.328	-0.075
-381.946	-200.000	-0.015	0.122
-380.931	48.553	-0.039	0.048
-379.917	133.213	-0.063	-0.107
-378.902	-31.620	0.329	0.242
-377.888	-57.211	0.444	-0.255
-376.873	52.160	0.071	-0.089
-375.858	778.590	0.167	0.603
-374.844	-116.297	0.615	0.148
-373.829	235.651	-0.141	0.306
-372.815	-61.056	0.443	0.244
-371.800	95.785	-0.108	0.162
-370.785	-100.165	-0.237	-0.077
-369.771	678.323	0.063	0.215
-368.756	-66.283	0.260	0.135
-367.742	-71.565	-0.305	0.149
-366.727	800.000	-0.081	0.361
-365.712	-149.492	0.217	0.022
-364.698	83.153	0.212	-0.303
-363.683	311.766	-0.039	0.096
-362.669	186.527	-0.175	-0.343
-361.654	29.409	0.208	-0.232
-360.639	55.617	0.148	0.187
-359.625	-126.479	-0.361	-0.070
-358.610	800.000	-0.029	-0.164
-357.596	800.000	-0.089	0.331
-356.581	6.720	-0.251	-0.244
-355.566	-105.938	-0.331	-0.097
-354.552	5.167	0.298	0.287
-353.537	46.422	0.240	0.292
-352.523	183.662	-0.049	0.096
-351.508	130.521	-0.236	0.396
-350.493	-200.000	0.008	0.093
-349.479	312.102	0.153	-0.376
-348.464	16.200	-0.101	-0.104
-347.450	-161.664	0.417	-0.027
-346.435	-106.048	-0.265	0.077
-345.420	-143.393	-0.188	0.023
-344.406	-46.900	0.241	-0.154
-343.391	-72.150	0.225	0.109
-342.377	-4.401	-0.343	-0.310
-341.362	-193.690	0.305	0.003
-340.348	-200.000	0.042	-0.722
-339.333	-90.727	0.413	0.155
-338.318	-200.000	0.012	-0.206
-337.304	-185.357	-0.375	-0.007
-336.289	42.519	-0.291	-0.346
-335.275	-200.000	-0.059	-0.380
-334.260	-71.507	-0.318	-0.155
-333.245	27.080	-0.232	0.254
-332.231	85.543	0.208	0.299
-331.216	-200.000	0.045	0.275
-330.202	800.000	0.116	0.523
-329.187	0.841	0.261	-0.244
-328.172	71.521	-0.096	-0.130
-327.158	-2.637	-0.153	0.140
-326.143	295.346	-0.084	0.201
-325.129	31.406	-0.303	-0.341
-324.114	96.880	-0.178	0.268
-323.099	-116.430	0.328	0.079
-322.085	304.414	-0.112	0.273
-321.070	-140.028	-0.158	0.022
-320.056	-77.883	-0.261	0.117
-319.041	-100.395	0.102	0.033
-318.026	-58.209	-0.461	-0.261
-317.012	-11.970	0.357	-0.306
-315.997	-174.353	-0.052	-0.002
-314.983	-200.000	0.011	-0.210
-313.968	106.581	-0.251	-0.390
-312.953	-114.852	-0.129	0.032
-311.939	-200.000	-0.022	0.157
-310.924	15.138	0.220	-0.226
-309.910	-200.000	-0.068	0.469
-308.895	-66.963	0.278	0.143
-307.880	14.553	0.201	0.205
-306.866	-69.419	-0.560	0.279
-305.851	-84.770	-0.380	-0.155
-304.837	-83.699	-0.512	-0.212
-303.822	-200.000	0.005	0.041
-302.807	95.703	-0.069	-0.104
-301.793	168.664	0.202	0.378
-300.778	25.890	-0.144	-0.157
-299.764	40.269	0.177	-0.208
-298.749	-37.686	-0.101	-0.070
-297.735	-145.306	-0.339	0.040
-296.720	-9.612	0.378	-0.329
-295.705	703.813	0.085	0.293
-294.691	193.501	0.195	0.386
-293.676	-40.459	0.052	-0.035
-292.662	-200.000	-0.010	-0.088
-291.647	129.923	0.172	0.288
-290.632	198.151	0.131	-0.262
-289.618	-141.625	0.274	-0.036
-288.603	-200.000	-0.002	0.115
-287.589	123.705	0.154	0.252
-286.574	-129.424	-0.355	0.064
-285.559	-79.297	-0.291	0.128
-284.545	800.000	0.082	-0.399
-283.530	189.046	0.174	-0.340
-282.516	-200.000	0.080	-0.535
-281.501	-41.969	-0.356	0.237
-280.486	40.328	0.209	0.245
-279.472	-131.379	0.111	0.019
-278.457	-27.464	-0.247	-0.187
-277.443	-124.501	-0.109	-0.022
-276.428	-181.220	0.163	0.004
-275.413	-111.429	0.319	-0.084
-274.399	-84.745	-0.320	0.131
-273.384	-45.886	0.388	-0.249
-272.370	-63.418	0.346	0.185
-271.355	88.908	-0.130	0.188
-270.340	719.121	-0.048	0.168
-269.326	-43.973	0.223	0.146
-268.311	329.575	0.101	0.255
-267.297	-35.201	-0.217	-0.154
-266.282	-48.646	0.547	0.342
-265.267	271.032	0.173	0.398
-264.253	-131.056	-0.229	0.039
-263.238	-200.000	-0.003	0.156
-262.224	800.000	-0.113	-0.484
-261.209	800.000	-0.046	-0.171
-260.195	-21.551	0.150	-0.119
-259.180	800.000	-0.107	0.549
-258.165	800.000	-0.127	0.619
-257.151	-99.928	-0.362	-0.117
-256.136	1.023	-0.170	0.159
-255.122	360.151	0.101	-0.263
-254.107	5.703	-0.162	-0.156
-253.092	-101.233	-0.662	0.209
-252.078	-200.000	0.023	-0.316
-251.063	-6.250	0.308	0.274
-250.049	-8.582	-0.228	0.199
-249.034	40.769	-0.078	0.092
-248.019	-43.508	0.177	-0.116
-247.005	-14.219	-0.265	0.222
-245.990	-67.897	0.407	-0.206
-244.976	213.388	-0.097	-0.200
-243.961	448.902	0.117	0.337
-242.946	-200.000	-0.007	-0.381
-241.932	8.935	0.139	-0.137
-240.917	-59.366	-0.163	-0.091
-239.903	116.835	-0.134	0.215
-238.888	12.476	-0.272	0.273
-237.873	-168.329	-0.196	-0.010
-236.859	-60.122	0.405	-0.224
-235.844	-26.985	0.267	0.203
-234.830	800.000	-0.095	0.363
-233.815	-143.813	0.875	0.106
-232.800	-75.238	-0.200	0.093
-231.786	-148.834	-0.323	0.034
-230.771	51.912	-0.398	0.494
-229.757	-36.998	-0.394	0.274
-228.742	-100.136	0.319	-0.103
-227.727	-61.167	-0.271	-0.149
-226.713	-78.532	-0.289	0.128
-225.698	-95.870	0.394	-0.136
-224.684	59.650	0.143	-0.183
-223.669	-78.209	0.705	0.314
-222.655	-24.828	-0.550	0.424
-221.640	-117.325	-0.471	0.110
-220.625	257.775	0.114	0.257
-219.611	91.496	-0.360	0.527
-218.596	-200.000	0.005	-0.045
-217.582	-200.000	0.033	0.644
-216.567	132.201	-0.173	0.291
-215.552	18.557	0.210	0.218
-214.538	-5.494	-0.200	-0.178
-213.523	800.000	0.027	-0.141
-212.509	800.000	0.064	0.274
-211.494	-200.000	0.004	-0.085
-210.479	44.809	-0.293	-0.351
-209.465	-112.980	-0.070	-0.018
-208.450	28.002	0.318	-0.349
-207.436	45.070	0.028	0.034
-206.421	-17.372	0.135	-0.111
-205.406	-112.527	-0.201	0.052
-204.392	800.000	-0.108	-0.428
-203.377	-144.956	0.516	0.061
-202.363	274.853	-0.096	-0.223
-201.348	-55.924	-0.242	-0.140
-200.333	-115.663	-0.480	-0.116
-199.319	-136.127	0.323	0.049
-198.304	-101.520	0.561	0.176
-197.290	-145.761	-0.503	0.058
-196.275	149.419	-0.049	0.087
-195.260	-200.000	0.043	0.357
-194.246	241.913	-0.078	0.170
-193.231	224.075	0.031	-0.066
-192.217	32.839	0.095	0.107
-191.202	-168.256	-0.410	0.020
-190.187	119.097	0.150	-0.242
-189.173	-184.280	-0.093	-0.002
-188.158	152.283	-0.286	0.509
-187.144	-133.729	-0.278	-0.045
-186.129	40.026	0.272	-0.318
-185.114	451.502	0.119	-0.344
-184.100	316.971	-0.083	-0.206
-183.085	-78.804	0.290	0.128
-182.071	-8.380	0.408	0.356
-181.056	-133.525	0.564	-0.091
-180.042	188.782	0.190	0.370
-179.027	-200.000	0.310	0.000
-178.012	50.128	0.169	0.208
-176.998	-95.005	-0.231	0.081
-175.983	-107.505	-0.191	-0.054
-174.969	-200.000	0.031	-0.200
-173.954	172.746	0.073	0.136
-172.939	128.971	-0.220	-0.365
-171.925	-200.000	-0.028	-0.353
-170.910	-109.158	-0.274	0.075
-169.896	733.698	0.077	-0.271
-168.881	697.944	0.067	0.229
-167.866	-178.118	0.091	-0.003
-166.852	-135.585	0.382	-0.058
-165.837	-121.288	-0.103	0.022
-164.823	-200.000	-0.035	0.294
-163.808	-149.740	-0.443	0.045
-162.793	-57.361	-0.353	-0.201
-161.779	-51.403	0.261	0.158
-160.764	-182.624	-0.297	-0.007
-159.750	48.717	0.347	0.423
-158.735	413.477	-0.149	0.415
-157.720	213.356	-0.154	-0.317
-156.706	-200.000	-0.013	0.215
-155.691	-101.414	-0.374	-0.118
-154.677	-89.615	0.634	-0.240
-153.662	355.546	0.076	-0.198
-152.647	-200.000	-0.052	0.351
-151.633	-107.206	-0.453	0.129
-150.618	-123.841	-0.533	0.108
-149.604	800.000	0.036	0.200
-148.589	9.624	-0.208	-0.205
-147.574	-200.000	0.006	0.133
-146.560	800.000	-0.038	-0.212
-145.545	-200.000	-0.036	-0.244
-144.531	213.528	0.036	0.074
-143.516	-87.246	-0.193	-0.076
-142.502	-138.933	0.172	-0.024
-141.487	-90.349	-0.472	-0.177
-140.472	-195.958	-0.071	-0.001
-139.458	-200.000	-0.031	-0.206
-138.443	-105.540	-0.243	-0.071
-137.429	-200.000	0.028	-0.403
-136.414	330.692	-0.141	-0.353
-135.399	-74.609	-0.376	-0.175
-134.385	-200.000	-0.015	-0.267
-133.370	64.277	0.184	0.240
-132.356	186.745	0.184	0.356
-131.341	45.571	0.099	0.119
-130.326	757.723	-0.005	0.019
-129.312	-56.540	-0.172	-0.099
-128.297	-137.573	0.455	0.066
-127.283	71.269	0.111	-0.149
-126.268	-200.000	-0.007	0.077
-125.253	-200.000	-0.006	-0.471
-124.239	30.795	0.258	-0.287
-123.224	-200.000	-0.002	-0.164
-122.210	65.516	-0.307	-0.403
-121.195	406.801	-0.189	-0.520
-120.180	25.684	0.317	0.343
-119.166	107.592	0.178	0.275
-118.151	-101.536	-0.218	-0.068
-117.137	250.681	0.111	-0.245
-116.122	-70.399	0.401	0.196
-115.107	107.255	-0.150	0.231
-114.093	30.351	0.100	-0.111
-113.078	212.292	-0.126	-0.259
-112.064	-31.956	-0.334	-0.242
-111.049	128.169	0.274	-0.453
-110.034	800.000	-0.087	-0.419
-109.020	-164.998	-0.541	-0.031
-108.005	-100.931	-0.184	0.058
-106.991	564.698	-0.043	0.137
-105.976	26.455	-0.352	-0.381
-104.962	-12.731	-0.221	0.187
-103.947	-185.649	0.326	-0.006
-102.932	83.356	0.209	0.295
-101.918	800.000	-0.053	-0.246
-100.903	-170.974	-0.223	-0.010
-99.889	-125.499	-0.196	-0.038
-98.874	152.383	-0.123	0.219
-97.859	-41.081	-0.247	-0.165
-96.845	-200.000	0.036	0.362
-95.830	-200.000	0.032	0.413
-94.816	-88.876	-0.364	-0.139
-93.801	-51.458	-0.219	-0.132
-92.786	800.000	0.058	0.246
-91.772	247.001	-0.052	0.115
-90.757	652.914	-0.161	-0.537
-89.743	14.143	-0.173	0.174
-88.728	800.000	-0.078	-0.285
-87.713	-44.019	-0.378	-0.245
-86.699	-30.235	0.226	-0.166
-85.684	270.456	-0.328	-0.749
-84.670	-143.004	-0.398	-0.049
-83.655	-200.000	0.056	0.469
-82.640	29.230	-0.208	0.229
-81.626	-49.145	0.201	0.124
-80.611	-166.019	-0.423	-0.023
-79.597	-32.208	-0.167	0.121
-78.582	800.000	0.011	0.043
-77.567	3.007	-0.323	0.304
-76.553	341.637	-0.225	0.571
-75.538	800.000	0.071	-0.256
-74.524	800.000	0.078	-0.399
-73.509	20.678	-0.093	0.098
-72.494	-200.000	-0.287	-0.000
-71.480	13.727	0.229	-0.230
-70.465	3.212	0.334	0.314
-69.451	800.000	0.029	-0.158
-68.436	40.872	0.124	-0.145
-67.422	48.748	0.179	0.217
-66.407	800.000	-0.120	-0.499
-65.392	301.283	-0.065	0.156
-64.378	-29.847	0.081	-0.060
-63.363	-66.606	0.146	0.075
-62.349	-56.607	0.202	0.116
-61.334	32.775	-2.270	-2.541
-60.319	9.148	1.625	1.587
-59.305	294.229	-3.320	-7.879
-58.290	88.401	3.598	5.176
-57.276	503.532	3.571	10.740
-56.261	-200.000	25.166	322.976
-55.246	351.462	1307.807	3363.478
-54.232	52.452	2848.797	3518.898
-53.217	50.986	2662.008	3265.342
-52.203	31.310	2390.350	2654.445
-51.188	27.676	2057.015	2239.432
-50.173	24.362	1943.166	2076.700
-49.159	23.182	1932.823	2051.817
-48.144	22.780	1927.617	2041.540
-47.130	22.612	1925.096	2036.837
-46.115	22.486	1923.731	2033.843
-45.100	22.584	1921.970	2033.042
-44.086	22.619	1920.365	2031.667
-43.071	22.487	1919.183	2028.802
-42.057	22.606	1917.192	2027.993
-41.042	22.509	1916.129	2025.673
-40.027	22.630	1914.249	2025.004
-39.013	22.702	1912.770	2024.188
-37.998	22.540	1911.475	2020.873
-36.984	22.689	1910.299	2021.263
-35.969	22.546	1908.872	2018.027
-34.954	22.464	1907.903	2015.979
-33.940	22.481	1906.880	2015.017
-32.925	22.555	1905.487	2014.307
-31.911	22.478	1903.915	2011.687
-30.896	22.558	1902.261	2010.771
-29.881	22.498	1901.287	2008.980
-28.867	22.458	1899.996	2007.078
-27.852	22.484	1898.687	2005.913
-26.838	22.392	1897.180	2003.182
-25.823	22.422	1895.946	2002.142
-24.809	22.368	1895.284	2000.753
-23.794	22.386	1893.742	1999.251
-22.779	22.275	1893.062	1997.188
-21.765	22.340	1890.377	1995.017
-20.750	22.396	1889.837	1995.003
-19.736	22.343	1888.574	1992.987
-18.721	22.314	1887.442	1991.382
-17.706	22.327	1886.203	1990.141
-16.692	22.304	1884.630	1988.151
-15.677	22.309	1883.986	1987.441
-14.663	22.269	1883.104	1985.978
-13.648	22.129	1881.681	1982.814
-12.633	22.188	1880.660	1982.329
-11.619	22.239	1878.843	1980.907
-10.604	22.213	1878.436	1980.111
-9.590	22.348	1876.154	1979.155
-8.575	22.330	1875.276	1977.941
-7.560	22.288	1874.197	1976.256
-6.546	22.131	1874.146	1974.342
-5.531	22.200	1871.844	1972.618
-4.517	22.261	1870.779	1972.110
-3.502	22.354	1869.527	1971.760
-2.487	22.329	1869.421	1971.288
-1.473	22.373	1865.027	1967.065
-0.458	22.140	1847.355	1945.757
0.556	18.689	1993.912	2046.553
1.571	17.279	2196.230	2235.319
2.586	18.035	2235.471	2285.155
3.600	18.054	2238.195	2287.920
4.615	18.006	2237.592	2286.389
5.629	18.059	2235.825	2285.015
6.644	17.983	2233.452	2281.306
7.659	18.007	2231.982	2279.854
8.673	18.062	2229.766	2278.053
9.688	17.881	2238.050	2283.805
10.702	16.832	2319.420	2351.926
11.717	15.425	2382.677	2395.603
12.731	7.208	2364.044	2259.193
13.746	1.075	2346.749	2154.924
14.761	0.206	2343.882	2139.628
15.775	0.010	2342.815	2135.601
16.790	0.051	2340.478	2133.795
17.804	0.052	2339.255	2132.438
18.819	0.136	2337.930	2132.170
19.834	0.074	2336.375	2129.617
20.848	0.161	2335.098	2129.432
21.863	0.062	2333.091	2125.944
22.877	0.055	2331.350	2124.006
23.892	0.058	2328.914	2121.573
24.907	0.065	2326.765	2119.458
25.921	-0.007	2325.985	2117.484
26.936	0.008	2323.328	2115.017
27.950	0.026	2320.436	2112.382
28.965	0.054	2318.573	2110.825
29.980	0.061	2316.821	2109.077
30.994	0.145	2314.999	2108.352
32.009	3.857	2325.945	2170.509
33.023	12.676	2350.719	2318.666
34.038	16.467	2356.892	2378.187
35.053	16.532	2354.821	2376.735
36.067	16.451	2351.679	2372.141
37.082	16.468	2350.421	2370.827
38.096	16.493	2348.710	2369.169
39.111	16.735	2345.917	2369.467
40.126	16.909	2343.945	2369.631
41.140	16.966	2342.609	2368.800
42.155	16.949	2340.533	2366.174
43.169	16.931	2338.997	2364.093
44.184	16.812	2335.434	2358.539
45.199	16.679	2334.004	2354.953
46.213	16.851	2331.860	2354.912
47.228	16.857	2331.286	2354.142
48.242	16.860	2329.802	2352.397
49.257	17.038	2327.993	2352.770
50.271	17.052	2325.274	2349.936
51.286	16.843	2323.232	2344.681
52.301	16.639	2321.345	2339.659
53.315	17.308	2323.279	2350.631
54.330	19.857	2329.926	2392.555
55.344	21.481	2330.032	2414.935
56.359	21.550	2328.085	2413.574
57.374	21.677	2327.113	2414.042
58.388	21.871	2324.191	2413.399
59.403	21.661	2319.904	2405.765
60.417	21.370	2317.498	2398.963
61.432	21.383	2316.268	2397.593
62.447	21.672	2314.908	2399.872
63.461	21.871	2313.648	2401.024
64.476	21.991	2310.743	2399.360
65.490	21.695	2309.027	2393.236
66.505	20.869	2305.608	2378.073
67.520	19.007	2298.869	2345.348
68.534	17.296	2290.558	2313.203
69.549	16.788	2286.630	2302.028
70.563	16.754	2283.687	2298.317
71.578	16.763	2282.659	2297.129
72.593	16.828	2281.120	2296.196
73.607	16.914	2279.104	2295.055
74.622	16.955	2277.097	2293.319
75.636	16.910	2273.936	2289.250
76.651	16.775	2272.879	2286.085
77.666	16.773	2270.033	2282.920
78.680	16.783	2268.254	2280.989
79.695	16.585	2265.916	2275.694
80.709	16.548	2264.306	2273.301
81.724	16.613	2261.813	2271.401
82.739	16.456	2260.243	2267.437
83.753	16.640	2256.778	2266.166
84.768	16.567	2255.850	2263.989
85.782	16.454	2254.355	2260.695
86.797	16.581	2252.156	2259.928
87.812	16.599	2251.593	2259.330
88.826	16.630	2249.868	2257.741
89.841	16.710	2247.183	2255.850
90.855	16.820	2244.724	2254.579
91.870	16.706	2244.274	2252.333
92.884	16.747	2242.170	2250.504
93.899	16.750	2239.912	2248.016
94.914	17.256	2242.849	2257.440
95.928	19.479	2248.559	2292.637
96.943	20.249	2246.347	2300.374
97.957	18.045	2238.064	2262.329
98.972	16.801	2232.748	2240.151
99.987	16.727	2228.869	2235.017
101.001	16.734	2226.631	2232.590
102.016	16.713	2224.187	2229.597
103.030	16.671	2222.184	2226.764
104.045	16.635	2219.635	2223.480
105.060	16.568	2218.600	2221.287
106.074	16.662	2216.051	2219.711
107.089	16.577	2215.163	2217.438
108.103	16.584	2214.322	2216.417
109.118	16.695	2212.436	2215.720
110.133	16.794	2211.141	2215.465
111.147	16.719	2208.016	2211.078
112.162	16.658	2206.328	2208.333
113.176	16.869	2204.469	2208.969
114.191	16.781	2203.391	2206.471
115.206	16.849	2201.707	2205.411
116.220	16.759	2200.202	2202.455
117.235	16.730	2197.351	2198.965
118.249	16.745	2195.320	2196.864
119.264	16.740	2193.352	2194.571
120.279	16.633	2192.852	2192.415
121.293	16.714	2190.678	2191.035
122.308	16.689	2189.242	2189.005
123.322	16.561	2187.990	2185.834
124.337	17.010	2188.985	2192.389
125.352	19.477	2195.651	2230.899
126.366	20.027	2192.341	2234.408
127.381	17.591	2183.925	2194.069
128.395	16.675	2179.173	2177.191
129.410	16.578	2176.828	2173.333
130.424	16.617	2174.377	2171.132
131.439	16.567	2173.784	2169.634
132.454	16.774	2171.589	2169.844
133.468	16.820	2169.245	2167.840
134.483	16.803	2169.058	2167.180
135.497	16.967	2166.309	2166.271
136.512	16.798	2164.144	2161.686
137.527	16.715	2162.733	2158.953
138.541	16.664	2161.725	2157.029
139.556	16.536	2161.374	2154.786
140.570	16.622	2159.505	2153.759
141.585	16.577	2157.182	2150.620
142.600	16.767	2155.481	2151.087
143.614	16.604	2153.816	2147.086
144.629	16.494	2152.739	2144.358
145.643	16.556	2150.816	2142.970
146.658	16.564	2148.747	2140.760
147.673	16.617	2146.465	2138.904
148.687	16.578	2145.621	2137.309
149.702	16.769	2144.433	2138.288
150.716	16.770	2143.390	2137.004
151.731	16.761	2142.403	2135.656
152.746	16.674	2142.044	2133.942
153.760	17.351	2144.311	2144.523
154.775	19.571	2150.195	2178.339
155.789	20.263	2148.118	2184.729
156.804	18.239	2137.834	2148.497
157.819	16.802	2132.514	2124.789
158.833	16.637	2129.465	2119.418
159.848	16.637	2127.465	2117.180
160.862	16.826	2125.660	2117.496
161.877	16.846	2125.037	2116.870
162.892	16.861	2123.305	2115.078
163.906	16.828	2122.614	2113.731
164.921	16.862	2120.077	2111.375
165.935	16.909	2117.618	2109.258
166.950	16.826	2116.787	2107.146
167.964	16.789	2114.342	2103.995
168.979	16.692	2112.064	2100.274
169.994	16.665	2110.510	2098.139
171.008	16.695	2109.022	2096.782
172.023	16.518	2107.507	2092.823
173.037	16.572	2107.181	2092.919
174.052	16.795	2104.944	2093.209
175.067	16.634	2103.571	2089.599
176.081	16.730	2101.798	2088.778
177.096	16.635	2100.709	2086.271
178.110	16.620	2099.572	2084.701
179.125	16.732	2097.724	2084.011
180.140	16.703	2096.273	2081.954
181.154	16.732	2095.135	2080.929
182.169	16.823	2095.057	2081.731
183.183	17.467	2096.337	2090.715
184.198	19.951	2102.391	2127.210
185.213	20.379	2100.328	2130.144
186.227	17.942	2091.288	2090.767
187.242	16.930	2087.091	2073.888
188.256	16.749	2085.564	2069.900
189.271	16.480	2083.695	2064.497
190.286	16.561	2081.814	2063.379
191.300	16.561	2079.457	2060.802
192.315	16.600	2078.526	2060.107
193.329	16.780	2077.615	2061.156
194.344	16.907	2075.815	2060.677
195.359	16.928	2074.828	2059.704
196.373	16.803	2072.883	2056.007
197.388	16.715	2070.249	2052.067
198.402	16.707	2067.764	2049.269
199.417	16.709	2065.479	2046.779
200.432	16.574	2064.944	2044.368
201.446	16.711	2063.288	2044.148
202.461	16.650	2061.920	2041.809
203.475	16.668	2059.722	2039.603
204.490	16.602	2057.819	2036.676
205.504	16.702	2055.895	2035.734
206.519	16.724	2053.392	2033.277
207.534	16.736	2051.550	2031.362
208.548	16.734	2050.395	2029.941
209.563	16.692	2049.861	2028.663
210.577	16.817	2049.218	2029.293
211.592	16.871	2048.169	2028.666
212.607	17.994	2052.198	2045.930
213.621	20.945	2058.163	2087.210
214.636	20.197	2052.932	2072.676
215.650	17.639	2045.030	2033.798
216.665	16.874	2041.378	2020.765
217.680	16.916	2038.727	2018.402
218.694	16.710	2037.220	2014.197
219.709	16.733	2035.555	2012.585
220.723	16.851	2034.297	2012.510
221.738	16.907	2032.993	2011.643
222.753	16.964	2030.431	2009.546
223.767	16.905	2029.243	2007.439
224.782	16.745	2028.518	2004.569
225.796	16.810	2026.595	2003.208
226.811	16.814	2024.947	2001.386
227.826	16.802	2023.123	1999.197
228.840	16.656	2022.146	1996.262
229.855	16.726	2019.758	1994.498
230.869	16.719	2018.797	1993.220
231.884	16.705	2016.863	1990.906
232.899	16.687	2015.934	1989.539
233.913	16.650	2014.552	1987.505
234.928	16.620	2014.176	1986.540
235.942	16.662	2011.447	1984.109
236.957	16.567	2011.002	1982.313
237.972	16.707	2009.041	1981.785
238.986	16.581	2007.406	1978.458
240.001	16.555	2005.803	1976.338
241.015	16.737	2004.663	1977.113
242.030	17.389	2006.252	1986.094
243.045	19.585	2012.375	2017.742
244.059	19.809	2008.801	2016.535
245.074	17.553	2000.660	1981.762
246.088	16.740	1997.362	1968.772
247.103	16.964	1994.733	1968.549
248.117	16.914	1993.230	1966.256
249.132	16.729	1991.911	1962.559
250.147	16.716	1989.460	1959.757
251.161	16.699	1988.797	1958.670
252.176	16.945	1987.423	1959.946
253.190	17.054	1985.445	1959.020
254.205	17.159	1983.166	1957.754
255.220	17.075	1982.310	1955.705
256.234	17.035	1982.431	1955.124
257.249	16.851	1980.338	1950.697
258.263	16.847	1979.337	1949.429
259.278	16.955	1978.273	1949.397
260.293	16.868	1975.656	1945.582
261.307	16.692	1973.476	1941.175
262.322	16.616	1972.238	1938.854
263.336	16.675	1970.818	1937.907
264.351	16.597	1968.570	1934.568
265.366	16.568	1966.939	1932.391
266.380	16.605	1967.146	1932.789
267.395	16.642	1966.046	1931.905
268.409	16.607	1963.953	1929.215
269.424	16.694	1962.206	1928.266
270.439	16.743	1961.100	1927.505
271.453	17.434	1963.902	1937.940
272.468	19.955	1967.934	1970.571
273.482	20.208	1964.440	1969.722
274.497	17.739	1955.558	1932.498
275.512	16.888	1951.313	1918.392
276.526	16.755	1949.057	1914.433
277.541	16.673	1947.845	1912.083
278.555	16.683	1946.281	1910.434
279.570	16.709	1943.555	1907.818
280.585	16.678	1943.215	1906.912
281.599	16.728	1942.175	1906.221
282.614	16.698	1940.855	1904.362
283.628	16.943	1940.193	1906.250
284.643	16.982	1939.940	1906.211
285.657	17.152	1938.223	1906.213
286.672	17.084	1936.799	1903.823
287.687	17.180	1934.256	1902.177
288.701	17.124	1933.367	1900.441
289.716	16.968	1933.172	1898.272
290.730	16.973	1930.943	1895.912
291.745	17.206	1929.683	1897.060
292.760	16.989	1928.767	1893.503
293.774	16.881	1927.905	1891.222
294.789	16.885	1926.367	1889.521
295.803	16.838	1923.728	1886.189
296.818	16.807	1921.873	1883.799
297.833	16.750	1921.142	1882.219
298.847	16.820	1919.446	1881.115
299.862	16.742	1918.345	1878.932
300.876	17.430	1919.570	1887.587
301.891	20.022	1924.797	1921.434
302.906	20.469	1922.086	1923.476
303.920	17.815	1914.687	1886.390
304.935	16.854	1911.674	1872.528
305.949	16.876	1908.761	1869.691
306.964	16.725	1907.771	1866.824
307.979	16.915	1906.208	1867.172
308.993	16.910	1905.647	1866.345
310.008	17.265	1903.881	1868.320
311.022	17.234	1901.858	1865.767
312.037	16.959	1900.356	1861.038
313.052	17.149	1898.216	1860.812
314.066	17.134	1896.624	1858.860
315.081	17.124	1896.209	1858.126
316.095	17.054	1895.615	1856.550
317.110	16.909	1893.475	1852.640
318.125	16.887	1891.861	1850.594
319.139	17.041	1889.743	1849.988
320.154	17.063	1888.531	1848.823
321.168	17.080	1886.769	1847.066
322.183	17.048	1885.161	1844.922
323.197	16.821	1884.314	1841.386
324.212	16.685	1882.527	1837.940
325.227	16.737	1880.096	1835.916
326.241	16.633	1878.644	1833.142
327.256	16.705	1877.937	1833.016
328.270	16.708	1877.766	1832.665
329.285	16.748	1877.661	1832.771
330.300	17.538	1880.939	1844.364
331.314	20.364	1884.827	1878.732
332.329	20.142	1880.619	1871.902
333.343	17.602	1871.814	1835.442
334.358	16.695	1869.183	1822.828
335.373	16.625	1867.464	1820.185
336.387	16.561	1865.228	1817.095
337.402	16.550	1864.244	1815.799
338.416	16.627	1862.869	1815.077
339.431	16.842	1860.882	1815.236
340.446	16.786	1859.112	1812.688
341.460	16.837	1858.913	1812.826
342.475	17.070	1857.384	1813.624
343.489	17.009	1855.980	1811.383
344.504	16.985	1854.719	1809.669
345.519	17.014	1853.360	1808.443
346.533	17.266	1851.436	1809.040
347.548	17.298	1851.170	1808.905
348.562	17.091	1849.458	1804.807
349.577	17.109	1848.585	1803.934
350.592	17.273	1847.338	1804.254
351.606	17.425	1845.361	1803.718
352.621	17.289	1844.181	1800.910
353.635	17.079	1842.718	1797.029
354.650	16.879	1841.344	1793.344
355.665	16.891	1839.160	1791.127
356.679	16.841	1837.770	1789.027
357.694	16.890	1835.708	1787.331
358.708	16.804	1835.466	1785.966
359.723	17.843	1838.648	1799.873
360.738	20.489	1842.124	1831.119
361.752	19.785	1837.294	1818.662
362.767	17.387	1831.082	1787.009
363.781	16.990	1828.243	1779.836
364.796	16.773	1827.323	1776.444
365.810	16.685	1826.563	1774.563
366.825	16.641	1825.298	1772.657
367.840	16.980	1823.603	1774.368
368.854	17.007	1823.420	1774.261
369.869	16.835	1820.941	1769.823
370.883	16.769	1819.770	1767.781
371.898	16.654	1818.176	1764.819
372.913	16.670	1817.263	1763.888
373.927	16.813	1815.523	1763.488
374.942	16.888	1815.004	1763.555
375.956	16.799	1814.427	1761.853
376.971	16.947	1810.804	1759.666
377.986	16.859	1808.617	1756.415
379.000	16.823	1808.337	1755.559
380.015	16.907	1807.406	1755.319
381.029	16.953	1804.821	1753.079
382.044	16.780	1802.669	1748.982
383.059	16.845	1801.528	1748.342
384.073	16.732	1800.938	1746.384
385.088	16.754	1799.768	1745.270
386.102	16.758	1797.373	1742.778
387.117	16.735	1795.719	1740.729
388.132	16.796	1796.047	1741.472
389.146	17.599	1799.862	1753.272
390.161	20.459	1803.437	1786.141
391.175	20.050	1796.317	1774.664
392.190	17.510	1788.969	1741.122
393.205	16.947	1786.465	1732.695
394.219	16.814	1784.479	1729.191
395.234	16.852	1783.715	1728.639
396.248	16.820	1781.611	1726.065
397.263	16.803	1778.771	1722.936
398.278	16.723	1778.346	1721.495
399.292	16.667	1777.910	1720.293
400.307	16.696	1777.302	1719.801
401.321	16.779	1775.737	1718.925
402.336	16.933	1774.062	1718.670
403.350	16.828	1773.086	1716.443
404.365	17.053	1771.571	1717.066
405.380	17.262	1771.163	1718.586
406.394	17.290	1770.095	1717.628
407.409	17.233	1767.994	1714.802
408.423	17.319	1766.205	1713.731
409.438	17.259	1765.270	1712.012
410.453	17.210	1764.565	1710.633
411.467	17.095	1764.081	1708.798
412.482	17.032	1761.682	1705.628
413.496	16.876	1760.061	1702.281
414.511	16.873	1757.589	1699.653
415.526	16.828	1755.631	1697.103
416.540	16.882	1753.551	1695.434
417.555	16.827	1753.205	1694.341
418.569	16.909	1753.538	1695.286
419.584	16.961	1753.180	1695.259
420.599	16.854	1753.028	1693.836
421.613	16.859	1751.594	1692.298
422.628	16.746	1750.845	1690.239
423.642	16.789	1748.902	1688.589
424.657	16.786	1746.798	1686.333
425.672	16.913	1745.492	1686.139
426.686	16.916	1744.177	1684.698
427.701	16.866	1743.173	1683.027
428.715	16.931	1741.504	1681.861
429.730	17.096	1740.240	1682.083
430.745	16.966	1739.165	1679.543
431.759	16.964	1738.416	1678.603
432.774	17.365	1739.184	1683.133
433.788	17.676	1739.095	1685.939
434.803	17.841	1737.892	1686.207
435.818	17.967	1737.454	1686.829
436.832	17.753	1736.236	1683.325
437.847	16.792	1729.358	1666.955
438.861	9.327	1709.356	1574.254
439.876	1.664	1695.387	1486.195
440.890	0.281	1692.344	1469.797
441.905	0.173	1691.216	1467.583
442.920	0.322	1689.615	1467.478
443.934	0.306	1688.080	1465.812
444.949	0.154	1687.520	1463.663
445.963	0.187	1686.423	1462.857
446.978	0.077	1685.641	1460.937
447.993	0.183	1684.174	1460.516
449.007	0.168	1682.145	1458.439
450.022	0.184	1680.063	1456.615
451.036	0.085	1679.241	1454.768
452.051	1.101	1682.979	1467.719
453.066	8.587	1699.620	1555.438
454.080	15.856	1711.314	1637.250
455.095	17.269	1713.005	1652.495
456.109	17.491	1713.034	1654.491
457.124	17.798	1711.495	1655.806
458.139	17.716	1711.255	1654.575
459.153	17.761	1709.845	1653.448
460.168	17.817	1708.040	1652.050
461.182	17.891	1706.728	1651.302
462.197	17.769	1705.018	1648.265
463.212	17.746	1702.615	1645.521
464.226	17.765	1701.824	1644.751
465.241	17.770	1700.907	1643.709
466.255	17.817	1700.259	1643.348
467.270	17.805	1698.840	1641.664
468.285	17.656	1696.759	1638.014
469.299	17.696	1695.612	1637.099
470.314	17.696	1694.220	1635.553
471.328	17.831	1692.791	1635.285
472.343	17.735	1691.982	1633.380
473.358	17.922	1690.064	1633.130
474.372	17.910	1689.085	1631.879
475.387	17.724	1687.790	1628.646
476.401	17.688	1686.612	1626.968
477.416	17.720	1685.636	1626.137
478.430	17.730	1684.569	1625.013
479.445	17.670	1682.731	1622.469
480.460	17.775	1681.332	1621.926
481.474	17.657	1680.750	1620.040
482.489	17.786	1679.575	1619.950
483.503	17.920	1677.729	1619.250
484.518	17.919	1676.701	1618.053
485.533	17.961	1674.945	1616.564
486.547	17.831	1674.378	1614.587
487.562	18.077	1673.519	1615.909
488.576	17.948	1672.420	1613.427
489.591	17.967	1670.550	1611.613
490.606	17.868	1668.619	1608.621
491.620	17.919	1666.921	1607.275
492.635	17.867	1666.290	1605.978
493.649	18.066	1664.783	1606.217
494.664	17.834	1663.355	1602.457
495.679	17.636	1661.866	1598.963
496.693	17.637	1661.211	1598.146
497.708	17.779	1659.951	1598.085
498.722	17.964	1658.615	1598.346
499.737	17.955	1657.575	1597.071
500.752	17.812	1656.304	1594.309
501.766	17.777	1654.324	1591.881
502.781	17.886	1652.302	1590.768
503.795	17.914	1650.830	1589.423
504.810	17.911	1650.763	1589.142
505.825	17.983	1650.062	1588.950
506.839	18.091	1648.437	1588.206
507.854	17.998	1647.411	1586.150
508.868	18.068	1645.623	1584.900
509.883	18.016	1645.230	1583.840
510.898	18.160	1643.431	1583.258
511.912	18.006	1641.495	1579.774
512.927	17.923	1639.438	1576.835
513.941	17.912	1638.507	1575.654
514.956	17.995	1637.259	1575.030
515.971	17.880	1635.641	1572.223
516.985	17.991	1634.204	1571.682
518.000	18.099	1633.451	1571.768
519.014	18.127	1633.280	1571.671
520.029	18.099	1632.239	1570.217
521.043	18.076	1630.545	1568.197
522.058	17.992	1629.780	1566.493
523.073	18.002	1629.760	1566.383
524.087	18.161	1628.312	1566.269
525.102	18.266	1626.145	1564.962
526.116	17.820	1624.962	1559.531
527.131	17.872	1624.217	1559.111
528.146	18.148	1623.398	1560.668
529.160	18.166	1622.212	1559.512
530.175	18.095	1621.303	1557.800
531.189	18.310	1619.773	1558.105
532.204	18.369	1618.117	1556.866
533.219	18.007	1617.333	1552.625
534.233	17.889	1615.951	1550.035
535.248	18.111	1615.509	1551.445
536.262	18.315	1614.922	1552.554
537.277	18.280	1613.054	1550.257
538.292	18.134	1611.290	1547.047
539.306	18.076	1609.814	1544.918
540.321	18.234	1607.999	1544.431
541.335	18.080	1607.168	1542.050
542.350	18.165	1606.066	1541.570
543.365	18.255	1604.359	1540.568
544.379	18.102	1603.482	1538.153
545.394	18.174	1602.586	1537.759
546.408	18.079	1600.395	1534.622
547.423	18.081	1598.355	1532.498
548.438	18.012	1597.443	1530.821
549.452	18.126	1597.182	1531.408
550.467	18.120	1596.213	1530.249
551.481	18.122	1594.892	1528.817
552.496	18.125	1594.335	1528.122
553.511	18.459	1593.191	1529.842
554.525	18.310	1592.245	1527.410
555.540	18.383	1591.907	1527.559
556.554	18.489	1589.942	1526.441
557.569	18.315	1588.392	1523.211
558.583	18.155	1587.237	1520.492
559.598	18.293	1586.013	1520.371
560.613	18.186	1584.735	1518.015
561.627	18.236	1584.352	1517.908
562.642	18.340	1582.198	1516.587
563.656	18.476	1581.480	1516.933
564.671	18.407	1580.333	1515.036
565.686	18.338	1579.148	1513.107
566.700	18.328	1577.305	1511.070
567.715	18.261	1575.325	1508.397
568.729	18.045	1574.474	1505.491
569.744	18.037	1572.557	1503.402
570.759	17.909	1571.487	1501.069
571.773	18.176	1570.299	1502.111
572.788	18.312	1569.316	1502.191
573.802	18.275	1567.929	1500.363
574.817	18.421	1566.917	1500.494
575.832	18.497	1565.565	1499.689
576.846	18.443	1565.130	1498.622
577.861	18.282	1563.598	1495.556
578.875	18.363	1563.402	1495.904
579.890	18.481	1562.150	1495.561
580.905	18.520	1560.839	1494.469
581.919	18.587	1560.359	1494.423
582.934	18.505	1559.583	1492.779
583.948	18.490	1558.461	1491.394
584.963	18.417	1557.041	1489.219
585.978	18.273	1555.365	1486.184
586.992	18.378	1554.672	1486.257
588.007	18.538	1553.898	1486.736
589.021	18.203	1552.712	1482.506
590.036	18.119	1550.523	1479.508
591.051	18.310	1549.331	1479.850
592.065	18.401	1548.203	1479.391
593.080	18.513	1546.533	1478.585
594.094	18.514	1545.059	1477.004
595.109	18.329	1543.262	1473.511
596.123	18.264	1541.581	1471.168
597.138	18.349	1540.736	1470.924
598.153	18.454	1539.871	1470.828
599.167	18.394	1538.855	1469.161
600.182	18.463	1538.323	1469.072
601.196	18.488	1537.020	1467.864
602.211	18.467	1535.812	1466.361
603.226	18.641	1534.608	1466.523
604.240	18.510	1533.706	1464.364
605.255	18.697	1532.038	1464.204
606.269	18.574	1531.470	1462.428
607.284	18.591	1530.244	1461.225
608.299	18.527	1528.724	1459.058
609.313	18.383	1528.211	1457.156
610.328	18.581	1526.666	1457.205
611.342	18.640	1525.036	1455.979
612.357	18.594	1524.758	1455.144
613.372	18.725	1523.291	1454.688
614.386	18.484	1522.758	1451.951
615.401	18.575	1521.634	1451.476
616.415	18.599	1521.397	1451.284
617.430	18.766	1520.017	1451.215
618.445	18.847	1518.398	1450.182
619.459	18.811	1516.500	1447.886
620.474	18.539	1515.703	1444.653
621.488	18.286	1514.692	1441.375
622.503	18.076	1513.153	1437.958
623.518	18.346	1512.833	1439.765
624.532	18.542	1511.950	1440.412
625.547	18.608	1510.642	1439.547
626.561	18.832	1509.787	1440.449
627.576	18.882	1508.444	1439.418
628.591	18.600	1507.081	1435.571
629.605	18.447	1505.147	1432.271
630.620	18.528	1504.023	1431.707
631.634	18.146	1503.388	1427.730
632.649	18.293	1502.435	1427.886
633.663	18.428	1501.324	1427.789
634.678	18.607	1500.155	1428.008
635.693	18.803	1498.745	1428.131
636.707	18.810	1497.974	1427.278
637.722	18.964	1496.912	1427.385
638.736	18.958	1495.235	1425.567
639.751	18.931	1494.505	1424.472
640.766	18.910	1492.864	1422.562
641.780	18.853	1491.738	1420.844
642.795	18.786	1491.423	1419.823
643.809	18.801	1490.045	1418.459
644.824	18.914	1489.022	1418.259
645.839	18.722	1488.343	1415.845
646.853	18.995	1487.392	1417.033
647.868	18.951	1485.359	1414.565
648.882	18.768	1484.522	1412.083
649.897	18.870	1483.391	1411.687
650.912	18.956	1481.898	1410.806
651.926	18.777	1480.537	1407.867
652.941	18.666	1479.048	1405.369
653.955	18.528	1477.526	1402.615
654.970	18.545	1475.516	1400.681
655.985	18.535	1474.295	1399.273
656.999	18.538	1473.617	1398.482
658.014	18.616	1472.951	1398.321
659.028	18.795	1472.365	1399.069
660.043	18.690	1471.900	1397.596
661.058	18.838	1469.943	1396.780
662.072	18.794	1468.971	1395.328
663.087	18.824	1468.064	1394.544
664.101	18.790	1467.096	1393.183
665.116	18.784	1466.458	1392.364
666.131	18.988	1464.364	1391.867
667.145	18.727	1464.414	1389.622
668.160	18.978	1463.411	1390.546
669.174	19.008	1461.398	1388.712
670.189	18.959	1460.199	1387.008
671.204	19.030	1459.142	1386.418
672.218	18.880	1458.706	1384.616
673.233	18.988	1457.058	1383.760
674.247	19.121	1456.280	1383.931
675.262	19.134	1455.335	1382.978
676.276	19.132	1454.235	1381.744
677.291	18.879	1453.106	1378.466
678.306	18.884	1451.784	1377.090
679.320	18.909	1450.347	1375.766
680.335	19.044	1450.024	1376.381
681.349	18.978	1449.785	1375.453
682.364	18.948	1448.452	1373.789
683.379	19.066	1447.054	1373.242
684.393	19.020	1445.895	1371.611
685.408	19.007	1445.306	1370.782
686.422	19.008	1443.992	1369.383
687.437	18.872	1442.912	1367.103
688.452	19.253	1442.428	1369.524
689.466	19.094	1440.747	1366.501
690.481	19.003	1439.058	1364.011
691.495	18.739	1438.373	1361.088
692.510	18.563	1436.937	1358.171
693.525	18.321	1435.463	1354.690
694.539	18.458	1434.519	1354.727
695.554	18.850	1434.607	1357.758
696.568	18.948	1433.516	1357.343
697.583	19.050	1432.987	1357.490
698.598	19.167	1431.522	1356.860
699.612	19.299	1429.920	1356.230
700.627	19.238	1428.880	1354.599
701.641	19.306	1427.628	1353.788
702.656	19.098	1427.240	1351.612
703.671	19.316	1427.295	1353.221
704.685	19.285	1425.840	1351.436
705.700	19.193	1424.483	1349.269
706.714	19.082	1423.059	1346.882
707.729	19.021	1421.540	1344.804
708.744	19.062	1420.360	1343.844
709.758	18.870	1419.211	1341.091
710.773	18.888	1417.798	1339.743
711.787	18.766	1416.371	1337.273
712.802	18.712	1415.422	1335.796
713.816	18.972	1414.840	1337.122
714.831	19.105	1413.496	1336.726
715.846	19.228	1412.917	1336.980
716.860	19.244	1411.745	1335.832
717.875	19.235	1410.621	1334.546
718.889	19.227	1409.542	1333.296
719.904	19.132	1408.684	1331.588
720.919	19.170	1407.751	1330.846
721.933	19.217	1406.868	1330.215
722.948	19.400	1405.531	1330.208
723.962	19.235	1405.137	1328.398
724.977	19.336	1403.951	1327.901
725.992	19.539	1402.410	1327.851
727.006	19.293	1400.578	1324.060
728.021	19.479	1399.092	1323.930
729.035	19.483	1398.600	1323.338
730.050	19.344	1397.841	1321.395
731.065	19.232	1397.054	1319.624
732.079	19.389	1395.836	1319.527
733.094	19.278	1394.556	1317.309
734.108	19.164	1393.443	1315.224
735.123	19.218	1392.048	1314.162
736.138	19.229	1390.495	1312.620
737.152	19.282	1390.016	1312.418
738.167	19.400	1389.339	1312.522
739.181	19.442	1388.463	1311.864
740.196	19.272	1387.905	1309.880
741.211	19.345	1386.739	1309.181
742.225	19.277	1385.411	1307.249
743.240	19.339	1383.930	1306.168
744.254	19.334	1382.807	1304.916
745.269	19.332	1382.059	1304.038
746.284	19.311	1380.937	1302.661
747.298	19.175	1379.969	1300.561
748.313	18.845	1379.160	1297.140
749.327	18.619	1377.383	1293.601
750.342	18.521	1376.158	1291.555
751.356	18.367	1375.238	1289.367
752.371	18.411	1374.260	1288.630
753.386	18.950	1373.693	1292.020
754.400	19.273	1373.101	1293.745
755.415	19.414	1372.447	1294.038
756.429	19.412	1370.843	1292.351
757.444	19.436	1369.077	1290.716
758.459	19.363	1368.838	1289.781
759.473	19.377	1368.293	1289.219
760.488	19.540	1366.421	1288.524
761.502	19.640	1365.427	1288.182
762.517	19.438	1363.917	1285.091
763.532	19.417	1362.340	1283.298
764.546	19.164	1361.652	1280.607
765.561	19.113	1360.581	1279.059
766.575	18.881	1359.219	1275.898
767.590	18.825	1358.231	1274.399
768.605	19.074	1357.521	1275.437
769.619	19.092	1356.978	1274.910
770.634	19.271	1356.284	1275.438
771.648	19.491	1355.261	1275.956
772.663	19.506	1354.192	1274.906
773.678	19.605	1353.535	1274.868
774.692	19.425	1353.171	1273.043
775.707	19.394	1352.164	1271.713
776.721	19.381	1351.368	1270.713
777.736	19.539	1349.707	1270.170
778.751	19.489	1348.802	1268.798
779.765	19.650	1347.469	1268.576
780.780	19.482	1347.130	1266.865
781.794	19.372	1346.234	1265.060
782.809	19.430	1344.995	1264.176
783.824	19.393	1343.450	1262.294
784.838	19.010	1341.642	1257.633
785.853	18.612	1341.555	1254.475
786.867	18.741	1340.953	1254.711
787.882	18.967	1340.130	1255.448
788.897	19.145	1339.265	1255.798
789.911	19.275	1338.171	1255.568
790.926	19.493	1336.653	1255.593
791.940	19.344	1335.659	1253.417
792.955	19.514	1334.453	1253.374
793.969	19.459	1333.290	1251.733
794.984	19.450	1332.555	1250.826
795.999	19.571	1331.606	1250.672
797.013	19.650	1330.067	1249.651
798.028	19.565	1328.740	1247.633
799.042	19.407	1328.912	1246.499
800.057	19.617	1328.230	1247.234
801.072	19.578	1326.335	1245.024
802.086	19.631	1324.760	1243.779
803.101	19.703	1323.788	1243.240
804.115	19.609	1323.389	1242.033
805.130	19.699	1322.190	1241.412
806.145	19.810	1320.332	1240.320
807.159	19.816	1319.415	1239.351
808.174	19.612	1318.372	1236.755
809.188	19.400	1316.601	1233.423
810.203	19.468	1314.688	1231.968
811.218	19.404	1312.831	1229.623
812.232	19.149	1311.591	1226.490
813.247	19.014	1311.505	1225.294
814.261	19.204	1311.417	1226.426
815.276	19.470	1310.383	1227.218
816.291	19.639	1309.169	1227.141
817.305	19.723	1308.388	1226.860
818.320	19.743	1307.256	1225.795
819.334	19.666	1305.483	1223.438
820.349	19.794	1303.977	1222.791
821.364	19.650	1303.189	1220.879
822.378	19.697	1301.929	1219.885
823.393	19.650	1300.350	1217.928
824.407	19.619	1299.122	1216.416
825.422	19.641	1298.948	1216.262
826.437	19.503	1297.865	1214.127
827.451	19.412	1295.971	1211.567
828.466	18.977	1294.358	1206.845
829.480	18.913	1292.157	1204.199
830.495	19.017	1290.782	1203.501
831.509	19.166	1290.668	1204.300
832.524	19.393	1290.593	1205.684
833.539	19.430	1289.916	1205.163
834.553	19.520	1288.041	1203.899
835.568	19.572	1287.349	1203.476
836.582	19.532	1286.271	1202.041
837.597	19.725	1284.172	1201.282
838.612	19.825	1282.367	1200.150
839.626	19.816	1281.562	1199.192
840.641	19.514	1281.253	1196.652
841.655	19.213	1280.759	1193.950
842.670	19.137	1278.855	1191.506
843.685	18.889	1277.338	1188.224
844.699	19.324	1275.558	1189.444
845.714	19.405	1275.615	1189.916
846.728	19.420	1275.565	1189.835
847.743	19.738	1274.259	1190.674
848.758	19.718	1273.131	1189.338
849.772	19.855	1271.501	1188.618
850.787	19.695	1270.395	1186.343
851.801	19.755	1269.143	1185.442
852.816	19.568	1268.258	1183.189
853.831	19.602	1266.423	1181.565
854.845	19.494	1264.801	1179.170
855.860	19.441	1262.971	1176.963
856.874	19.359	1261.917	1175.276
857.889	19.145	1260.672	1172.511
858.904	18.943	1258.833	1169.279
859.918	18.971	1256.734	1167.380
860.933	18.803	1255.714	1165.145
861.947	19.020	1255.669	1166.442
862.962	19.136	1254.633	1166.132
863.977	19.337	1253.417	1166.231
864.991	19.312	1253.340	1165.848
866.006	19.469	1253.371	1166.804
867.020	19.694	1251.190	1166.162
868.035	19.705	1249.813	1164.812
869.049	19.614	1249.579	1163.841
870.064	19.775	1248.604	1163.880
871.079	19.708	1248.261	1162.967
872.093	19.656	1247.569	1161.832
873.108	19.860	1246.106	1161.712
874.122	19.610	1243.963	1157.885
875.137	19.589	1242.984	1156.699
876.152	19.362	1242.944	1154.991
877.166	19.403	1241.579	1153.860
878.181	19.552	1240.690	1153.897
879.195	19.606	1240.117	1153.593
880.210	19.753	1239.131	1153.519
881.225	19.762	1238.112	1152.497
882.239	19.881	1236.357	1151.521
883.254	19.703	1235.954	1149.816
884.268	19.885	1235.385	1150.367
885.283	19.725	1234.246	1148.097
886.298	19.756	1232.312	1146.371
887.312	19.815	1231.774	1146.122
888.327	19.594	1231.079	1143.871
889.341	19.874	1229.273	1143.913
890.356	19.749	1228.789	1142.495
891.371	19.642	1228.591	1141.466
892.385	19.614	1227.642	1140.263
893.400	19.360	1226.248	1137.147
894.414	19.402	1225.470	1136.566
895.429	19.274	1223.150	1133.436
896.444	18.923	1220.862	1128.863
897.458	18.652	1219.675	1125.842
898.473	19.007	1219.525	1127.910
899.487	19.410	1218.811	1129.770
900.502	19.428	1218.420	1129.391
901.517	19.613	1217.053	1129.201
902.531	19.659	1216.213	1128.586
903.546	19.758	1216.169	1129.060
904.560	19.731	1215.546	1128.169
905.575	19.911	1214.278	1128.042
906.589	19.678	1213.939	1126.061
907.604	19.745	1212.943	1125.441
