DTS Sentinel unit serial number:	SN409020Multiplexer serial number:	ORYXHardware model number:	OX4-SRSoftware version number:	ORYX F/W v3.00 Oryx Data Collector v3.7.2.0data status	okinstallation	HaddamTimeLapsedifferential loss correction	single-endedforward channel	channel 3reverse channel	N/Adate	2011/06/22time	00:56:17forward acquisition time	30.00reverse acquisition time	0.00gamma	498.7831k internal	0.1751k external	0.1751temperature offset calibration	1.0074default loss term (dB/km)	0.3790temperature slope calibration	1.3530multiplexer offset coefficient	1.0000multiplexer slope coefficient	1.0000fibre end	0.00T internal ref (°C)	22.56T ext. ref 1 (°C)	17.93T ext. ref 2 (°C)	0.05length (m)	temperature (°C)	Stokes	anti-Stokes-747.200	191.832	-0.022	0.045
-746.185	-117.585	0.427	-0.102
-745.171	-70.727	-0.392	-0.196
-744.156	800.000	-0.089	0.519
-743.142	-33.917	-0.353	0.257
-742.127	90.022	-0.235	0.349
-741.112	-200.000	0.393	-0.001
-740.098	-170.298	-0.542	-0.025
-739.083	800.000	-0.041	-0.226
-738.069	615.313	-0.027	-0.089
-737.054	-110.374	-0.176	0.048
-736.039	-88.253	-0.324	0.128
-735.025	-21.019	0.139	0.113
-734.010	-200.000	-0.028	-0.211
-732.996	-118.751	0.721	-0.167
-731.981	-153.967	-0.468	0.042
-730.966	-102.079	-0.167	-0.053
-729.952	-75.403	0.200	-0.094
-728.937	-157.730	-0.079	-0.006
-727.923	-39.522	0.083	-0.057
-726.908	800.000	-0.032	-0.124
-725.894	-139.992	0.445	0.062
-724.879	-51.001	-0.320	-0.199
-723.864	-40.876	0.220	0.151
-722.850	-113.044	-0.289	0.075
-721.835	800.000	-0.052	-0.197
-720.821	-80.373	0.559	0.246
-719.806	65.284	0.079	-0.106
-718.791	-200.000	0.078	-0.491
-717.777	-11.442	-0.345	0.301
-716.762	230.415	0.111	-0.242
-715.748	371.073	-0.072	0.194
-714.733	-129.354	-0.504	-0.092
-713.718	-113.750	-0.370	0.095
-712.704	83.949	0.176	-0.255
-711.689	800.000	-0.153	-0.565
-710.675	179.388	-0.232	-0.451
-709.660	-183.726	0.285	-0.006
-708.645	-4.565	0.050	-0.046
-707.631	-200.000	0.035	-0.320
-706.616	-88.010	0.397	-0.157
-705.602	15.594	-0.157	-0.163
-704.587	-95.037	-0.244	0.087
-703.572	-43.246	-0.370	-0.248
-702.558	800.000	-0.041	-0.240
-701.543	-44.496	0.195	-0.129
-700.529	-105.368	-0.305	-0.091
-699.514	-134.360	-0.163	0.026
-698.499	-49.827	-0.273	-0.172
-697.485	-200.000	-0.027	-0.434
-696.470	-197.462	-0.658	-0.005
-695.456	800.000	-0.063	-0.266
-694.441	-157.920	0.388	0.030
-693.426	80.168	0.283	-0.404
-692.412	26.662	0.291	-0.323
-691.397	30.860	-0.243	-0.276
-690.383	-119.343	0.307	-0.070
-689.368	160.182	-0.258	0.478
-688.354	68.375	-0.247	-0.336
-687.339	-77.778	-0.541	0.247
-686.324	443.277	-0.140	-0.408
-685.310	262.513	-0.171	-0.394
-684.295	22.565	0.260	0.282
-683.281	-200.000	-0.033	0.269
-682.266	-66.519	-0.558	0.292
-681.251	-87.080	-0.179	0.072
-680.237	-200.000	-0.366	0.001
-679.222	-76.155	0.137	-0.064
-678.208	-10.079	0.247	0.217
-677.193	-19.385	-0.266	-0.218
-676.178	-62.648	0.048	0.026
-675.164	-200.000	-0.008	0.234
-674.149	-169.906	-0.324	0.015
-673.135	313.643	0.069	-0.172
-672.120	-52.417	-0.423	-0.259
-671.105	606.397	-0.161	-0.534
-670.091	111.993	-0.266	-0.427
-669.076	-9.969	-0.394	-0.347
-668.062	-200.000	-0.010	0.232
-667.047	133.368	0.186	0.320
-666.032	89.138	0.185	0.273
-665.018	-143.535	0.194	0.024
-664.003	-101.601	-0.507	-0.162
-662.989	-170.233	0.123	-0.006
-661.974	-157.602	0.494	-0.039
-660.959	-85.362	0.366	-0.150
-659.945	-96.959	0.238	-0.082
-658.930	162.158	-0.183	-0.340
-657.916	298.951	0.038	0.094
-656.901	-176.132	0.416	-0.014
-655.886	-25.240	-0.552	-0.432
-654.872	-52.113	-0.052	0.032
-653.857	-118.921	0.357	-0.082
-652.843	422.690	-0.062	-0.176
-651.828	-200.000	0.016	0.244
-650.814	-107.132	-0.134	0.039
-649.799	20.876	0.246	-0.264
-648.784	-123.903	-0.132	0.027
-647.770	-200.000	0.038	-0.461
-646.755	-134.349	-0.227	-0.036
-645.741	47.637	-0.162	0.200
-644.726	-51.911	-0.427	-0.262
-643.711	154.062	0.295	0.537
-642.697	800.000	-0.050	-0.197
-641.682	-176.402	-0.450	-0.015
-640.668	280.466	0.202	-0.479
-639.653	182.933	-0.168	-0.330
-638.638	-48.228	0.543	-0.346
-637.624	-200.000	0.012	-0.557
-636.609	-200.000	0.010	-0.181
-635.595	58.837	-0.085	-0.111
-634.580	-70.655	-0.509	-0.253
-633.565	515.565	-0.040	0.123
-632.551	-88.058	0.067	-0.026
-631.536	-200.000	-0.018	0.173
-630.522	-200.000	-0.007	0.115
-629.507	57.139	-0.261	0.337
-628.492	23.102	0.171	-0.185
-627.478	161.624	-0.102	-0.189
-626.463	-200.000	-0.017	-0.243
-625.449	352.845	0.154	-0.405
-624.434	-164.555	-0.205	0.012
-623.419	-149.340	0.192	-0.020
-622.405	281.138	-0.091	0.216
-621.390	-36.751	0.296	0.210
-620.376	-137.696	0.765	-0.112
-619.361	-63.682	0.503	-0.272
-618.346	-52.525	-0.562	0.342
-617.332	-200.000	0.045	-0.305
-616.317	-114.441	-0.427	0.108
-615.303	-160.257	0.323	-0.023
-614.288	-200.000	0.094	0.556
-613.273	11.199	0.167	0.168
-612.259	-134.591	0.244	-0.039
-611.244	-18.785	0.436	0.358
-610.230	-4.004	-0.163	0.149
-609.215	143.641	0.153	0.271
-608.201	-82.417	-0.166	0.071
-607.186	-15.840	-0.362	-0.304
-606.171	162.313	-0.091	0.169
-605.157	-103.782	-0.220	0.068
-604.142	-148.814	0.634	0.067
-603.128	-119.362	-0.051	-0.012
-602.113	-75.093	-0.255	0.120
-601.098	-131.300	-0.457	0.079
-600.084	-154.373	0.189	-0.017
-599.069	-25.632	-0.203	0.158
-598.055	1.829	-0.181	-0.172
-597.040	-172.473	0.225	-0.009
-596.025	626.272	0.214	0.717
-595.011	-139.035	-0.233	0.033
-593.996	-64.691	-0.109	-0.058
-592.982	-109.697	-0.357	-0.099
-591.967	239.771	-0.136	0.301
-590.952	-143.678	0.250	-0.031
-589.938	15.954	0.153	0.159
-588.923	-200.000	-0.003	0.236
-587.909	156.443	-0.123	-0.224
-586.894	74.516	-0.242	0.337
-585.879	257.300	-0.192	-0.439
-584.865	-119.681	-0.555	-0.126
-583.850	67.966	0.231	-0.313
-582.836	-75.136	-0.572	-0.268
-581.821	800.000	0.033	-0.192
-580.806	800.000	-0.047	0.229
-579.792	-136.467	0.258	0.039
-578.777	146.199	0.209	-0.371
-577.763	-200.000	-0.001	-0.094
-576.748	402.971	0.153	-0.426
-575.733	-103.721	-0.163	0.050
-574.719	-200.000	-0.006	0.192
-573.704	68.840	-0.173	0.234
-572.690	-99.538	0.273	0.090
-571.675	-31.363	-0.353	0.261
-570.661	-147.239	-0.355	-0.039
-569.646	-161.881	0.346	-0.023
-568.631	-125.430	-0.123	-0.025
-567.617	800.000	-0.060	-0.272
-566.602	8.036	-0.121	0.119
-565.588	7.585	-0.290	-0.286
-564.573	350.635	0.093	0.245
-563.558	-142.006	-0.492	-0.064
-562.544	80.761	-0.118	0.168
-561.529	-135.335	-0.163	0.025
-560.515	-99.123	0.592	0.196
-559.500	800.000	0.009	0.043
-558.485	294.403	-0.123	-0.298
-557.471	-136.988	0.432	-0.065
-556.456	-200.000	0.026	0.206
-555.442	-98.548	0.324	0.108
-554.427	42.266	-0.348	-0.417
-553.412	69.653	-0.297	-0.404
-552.398	456.356	-0.044	0.128
-551.383	-92.960	-0.248	0.091
-550.369	-115.359	-0.469	0.116
-549.354	215.303	-0.056	0.117
-548.339	165.173	0.030	0.056
-547.325	163.902	-0.263	0.490
-546.310	70.910	0.128	-0.176
-545.296	20.722	0.208	0.222
-544.281	34.045	-0.271	-0.311
-543.266	-78.710	-0.416	0.186
-542.252	-88.224	0.472	0.185
-541.237	612.829	-0.140	-0.465
-540.223	270.383	-0.095	-0.220
-539.208	-20.081	-0.336	-0.273
-538.193	-48.271	-0.351	0.222
-537.179	85.571	0.137	-0.199
-536.164	-163.501	0.085	0.005
-535.150	156.506	-0.179	0.326
-534.135	-12.627	0.493	0.423
-533.121	-30.553	0.400	0.298
-532.106	-142.022	0.212	0.027
-531.091	35.205	0.455	0.525
-530.077	33.610	0.108	-0.124
-529.062	88.708	-0.151	0.221
-528.048	-7.001	0.201	-0.179
-527.033	-85.664	-0.458	0.186
-526.018	-200.000	0.014	0.451
-525.004	-200.000	0.031	0.429
-523.989	-82.379	0.310	-0.132
-522.975	55.545	-0.351	-0.448
-521.960	-31.794	0.674	-0.497
-520.945	64.677	0.119	-0.158
-519.931	-84.464	-0.508	0.210
-518.916	-125.888	0.143	-0.028
-517.902	-200.000	0.058	-0.819
-516.887	179.103	0.145	0.281
-515.872	800.000	-0.073	0.285
-514.858	-80.688	-0.112	0.049
-513.843	-60.471	-0.092	0.051
-512.829	-91.897	0.230	0.085
-511.814	-200.000	-0.013	0.273
-510.799	-80.695	0.258	-0.112
-509.785	-200.000	-0.010	0.156
-508.770	-200.000	-0.062	-0.395
-507.756	34.139	-0.294	0.337
-506.741	539.674	0.132	0.415
-505.726	93.338	0.089	0.133
-504.712	314.122	-0.050	-0.125
-503.697	-74.133	0.211	-0.100
-502.683	-168.475	0.394	-0.020
-501.668	-76.103	-0.295	0.137
-500.653	-200.000	-0.049	0.309
-499.639	-200.000	-0.025	-0.384
-498.624	800.000	-0.083	-0.375
-497.610	32.013	0.118	-0.134
-496.595	6.381	0.288	-0.281
-495.581	110.916	-0.020	-0.031
-494.566	73.851	0.284	0.391
-493.551	-200.000	-0.008	-0.206
-492.537	800.000	-0.022	-0.122
-491.522	-200.000	0.016	0.213
-490.508	19.387	-0.312	0.330
-489.493	-119.387	0.265	-0.060
-488.478	-22.743	0.152	0.121
-487.464	-136.404	0.407	0.062
-486.449	256.269	0.058	0.131
-485.435	800.000	0.088	0.414
-484.420	-200.000	0.007	0.114
-483.405	144.956	0.066	-0.116
-482.391	-64.186	-0.171	0.091
-481.376	-88.443	0.339	0.132
-480.362	183.138	0.100	-0.195
-479.347	53.004	0.055	0.069
-478.332	171.303	0.225	0.426
-477.318	-200.000	-0.092	0.678
-476.303	-200.000	-0.019	-0.357
-475.289	-100.694	-0.553	0.178
-474.274	147.580	-0.171	0.304
-473.259	-29.103	0.250	0.188
-472.245	59.502	-0.221	-0.286
-471.230	254.671	-0.164	-0.371
-470.216	-157.432	0.354	0.028
-469.201	661.052	-0.035	-0.120
-468.186	151.816	-0.196	0.351
-467.172	-33.997	0.466	-0.336
-466.157	-200.000	-0.002	-0.043
-465.143	352.725	-0.021	0.056
-464.128	-200.000	0.005	-0.051
-463.113	-25.328	-0.244	0.189
-462.099	-76.059	-0.323	0.149
-461.084	800.000	-0.055	-0.250
-460.070	120.436	-0.099	0.162
-459.055	225.869	-0.142	-0.303
-458.040	209.401	-0.179	0.369
-457.026	-200.000	-0.002	-0.085
-456.011	-56.943	-0.656	-0.379
-454.997	-0.630	0.242	-0.226
-453.982	-150.825	-0.823	-0.081
-452.968	77.573	-0.140	-0.196
-451.953	-155.277	-0.251	-0.021
-450.938	-71.326	0.296	0.145
-449.924	-31.684	-0.177	0.130
-448.909	800.000	0.042	-0.241
-447.895	800.000	0.068	0.332
-446.880	-157.958	-0.500	0.038
-445.865	-150.062	0.401	-0.040
-444.851	56.327	-0.204	0.261
-443.836	-11.801	-0.276	-0.238
-442.822	-48.734	0.506	-0.318
-441.807	-56.697	0.454	-0.263
-440.792	-41.487	-0.315	-0.212
-439.778	673.695	-0.049	0.169
-438.763	-4.754	0.422	-0.381
-437.749	62.442	-0.272	-0.356
-436.734	-200.000	0.034	0.316
-435.719	-200.000	-0.015	-0.174
-434.705	-152.292	-0.236	0.022
-433.690	89.645	0.196	-0.287
-432.676	25.793	0.177	-0.193
-431.661	-78.741	0.164	0.073
-430.646	3.561	-0.393	0.376
-429.632	-200.000	-0.009	0.403
-428.617	390.924	0.289	0.790
-427.603	-152.540	-0.310	-0.029
-426.588	-15.858	0.128	-0.107
-425.573	247.100	-0.269	0.598
-424.559	800.000	-0.129	0.605
-423.544	-200.000	-0.078	0.510
-422.530	52.031	-0.495	0.619
-421.515	-8.293	0.101	-0.089
-420.500	20.353	-0.094	0.100
-419.486	282.528	0.167	0.395
-418.471	800.000	-0.043	0.199
-417.457	-104.456	-0.603	0.182
-416.442	20.323	-0.153	0.162
-415.428	111.334	-0.164	0.259
-414.413	185.089	-0.130	-0.254
-413.398	248.914	-0.153	-0.342
-412.384	-98.157	-0.340	-0.114
-411.369	800.000	0.022	-0.096
-410.355	647.801	-0.089	-0.300
-409.340	646.667	-0.131	0.440
-408.325	-40.934	-0.420	0.284
-407.311	-126.459	-0.371	0.072
-406.296	-66.629	0.298	0.154
-405.282	-39.090	0.124	0.085
-404.267	405.698	0.107	0.298
-403.252	10.654	-0.055	-0.055
-402.238	206.487	-0.248	0.507
-401.223	-16.368	0.165	0.137
-400.209	434.541	0.113	0.323
-399.194	786.052	-0.075	0.272
-398.179	-105.782	0.258	-0.076
-397.165	-11.263	0.318	-0.274
-396.150	242.357	0.128	-0.282
-395.136	-153.454	0.097	0.009
-394.121	800.000	-0.062	-0.265
-393.106	-12.146	-0.124	-0.106
-392.092	402.869	-0.152	-0.420
-391.077	-60.612	0.096	0.053
-390.063	800.000	-0.102	-0.401
-389.048	3.076	0.128	-0.122
-388.033	369.472	0.062	0.166
-387.019	800.000	0.077	-0.362
-386.004	-71.630	-0.329	-0.160
-384.990	-41.616	0.228	0.153
-383.975	1.808	-0.590	0.557
-382.960	-104.965	0.208	-0.062
-381.946	324.012	0.102	-0.257
-380.931	-66.248	-0.266	0.138
-379.917	438.798	0.083	-0.237
-378.902	413.828	-0.026	-0.073
-377.888	-200.000	0.064	0.505
-376.873	-92.884	0.125	-0.045
-375.858	-200.000	0.024	-0.234
-374.844	-172.843	-0.799	-0.032
-373.829	59.136	0.155	0.200
-372.815	-6.692	0.151	0.134
-371.800	800.000	-0.099	0.381
-370.785	264.193	0.042	0.096
-369.771	-200.000	0.028	0.276
-368.756	-200.000	0.012	-0.375
-367.742	66.403	-0.131	0.174
-366.727	-133.793	0.155	-0.025
-365.712	440.968	0.059	0.171
-364.698	47.857	0.440	-0.538
-363.683	84.874	-0.153	-0.220
-362.669	-168.926	-0.162	-0.008
-361.654	-200.000	0.025	-0.296
-360.639	-104.808	0.249	-0.075
-359.625	-169.879	-0.213	0.010
-358.610	800.000	-0.026	0.102
-357.596	-14.162	-0.466	0.392
-356.581	-125.154	-0.395	-0.078
-355.566	210.878	0.093	0.192
-354.552	-112.479	0.183	-0.048
-353.537	-74.901	-0.425	0.198
-352.523	-77.042	0.268	-0.122
-351.508	-104.864	0.299	-0.089
-350.493	-149.178	0.268	-0.028
-349.479	800.000	0.088	-0.483
-348.464	637.338	0.093	0.311
-347.450	49.960	-0.095	0.117
-346.435	-101.345	0.155	-0.049
-345.420	206.454	0.096	-0.197
-344.406	153.231	0.039	-0.070
-343.391	-49.001	-0.281	0.176
-342.377	-80.007	-0.439	-0.192
-341.362	126.359	-0.093	-0.155
-340.348	-57.456	0.098	-0.056
-339.333	-33.771	-0.308	0.222
-338.318	-42.142	0.501	0.334
-337.304	-30.649	0.383	-0.283
-336.289	386.915	-0.105	-0.285
-335.275	91.647	-0.123	0.180
-334.260	-146.403	-0.049	0.006
-333.245	-102.550	0.049	-0.015
-332.231	-54.434	-0.281	0.166
-331.216	265.126	0.065	-0.148
-330.202	277.805	0.175	-0.409
-329.187	-200.000	0.023	-0.268
-328.172	800.000	-0.046	0.168
-327.158	64.937	0.109	-0.144
-326.143	-53.189	-0.219	-0.131
-325.129	-145.204	-0.273	0.032
-324.114	155.054	0.065	-0.117
-323.099	800.000	0.015	-0.065
-322.085	-50.933	0.268	0.164
-321.070	-120.753	-0.367	0.080
-320.056	220.651	0.157	-0.331
-319.041	-86.485	0.173	-0.069
-318.026	-79.603	0.292	0.128
-317.012	-200.000	0.010	0.383
-315.997	73.103	0.124	0.170
-314.983	-160.484	0.604	0.042
-313.968	-85.135	0.227	-0.092
-312.953	-27.198	0.122	-0.093
-311.939	-9.724	0.287	-0.250
-310.924	-51.192	0.467	-0.285
-309.910	-200.000	-0.007	-0.085
-308.895	-200.000	0.045	-0.447
-307.880	-200.000	-0.069	-0.456
-306.866	800.000	-0.106	-0.450
-305.851	220.815	0.169	-0.356
-304.837	-114.937	-0.236	0.058
-303.822	462.962	0.148	0.435
-302.807	131.755	0.196	0.330
-301.793	-75.812	-0.063	-0.029
-300.778	-136.858	-0.238	0.035
-299.764	186.664	-0.095	-0.186
-298.749	-200.000	0.003	-0.183
-297.735	-141.294	-0.194	0.025
-296.720	60.150	-0.421	0.544
-295.705	-200.000	-0.007	0.060
-294.691	-164.931	0.322	-0.018
-293.676	45.853	0.316	0.382
-292.662	-105.981	0.611	-0.178
-291.647	45.374	-0.417	-0.503
-290.632	-89.806	0.276	-0.105
-289.618	296.983	-0.148	0.356
-288.603	233.047	-0.095	0.205
-287.589	-117.542	0.707	0.165
-286.574	-22.587	0.165	0.130
-285.559	-50.042	0.415	-0.256
-284.545	-65.583	0.160	0.083
-283.530	10.095	-0.236	0.234
-282.516	-27.250	-0.331	0.251
-281.501	74.770	0.264	-0.363
-280.486	-200.000	0.089	-0.606
-279.472	6.129	0.170	-0.164
-278.457	800.000	0.102	-0.408
-277.443	-125.621	0.294	-0.058
-276.428	-102.695	0.368	-0.114
-275.413	-55.664	-0.222	0.129
-274.399	-84.149	0.732	-0.301
-273.384	728.210	0.186	-0.652
-272.370	-158.146	-0.175	-0.013
-271.355	3.897	0.237	-0.226
-270.340	-66.167	-0.224	0.116
-269.326	-25.593	-0.136	-0.104
-268.311	-76.104	0.479	0.220
-267.297	-67.605	-0.301	0.153
-266.282	101.611	0.391	0.595
-265.267	335.504	0.197	0.499
-264.253	-200.000	0.019	0.368
-263.238	99.884	0.111	-0.167
-262.224	800.000	-0.102	0.387
-261.209	-44.222	-0.430	0.280
-260.195	58.377	0.185	-0.237
-259.180	326.852	-0.046	0.116
-258.165	307.616	0.064	0.157
-257.151	-44.881	0.341	0.221
-256.136	-60.016	-0.601	-0.333
-255.122	-200.000	-0.017	0.407
-254.107	-200.000	-0.021	0.455
-253.092	-42.053	-0.168	0.112
-252.078	-0.983	0.364	0.335
-251.063	-70.764	0.187	-0.092
-250.049	-179.559	-0.414	-0.012
-249.034	-146.147	0.299	0.034
-248.019	800.000	-0.039	0.170
-247.005	-62.264	0.101	0.055
-245.990	485.178	-0.168	-0.501
-244.976	-143.840	0.370	-0.045
-243.961	-72.444	-0.183	-0.088
-242.946	800.000	-0.041	0.174
-241.932	-200.000	0.041	-0.333
-240.917	21.565	0.117	0.124
-239.903	-73.503	-0.140	-0.066
-238.888	7.623	0.048	0.047
-237.873	-183.058	-0.333	0.008
-236.859	800.000	-0.059	-0.285
-235.844	800.000	0.061	-0.230
-234.830	646.528	-0.096	-0.323
-233.815	800.000	0.150	-0.547
-232.800	-104.491	0.549	-0.164
-231.786	-155.436	0.059	0.005
-230.771	-179.464	-0.578	-0.016
-229.757	271.320	-0.220	-0.507
-228.742	-154.731	0.268	0.023
-227.727	-40.195	0.559	0.378
-226.713	-155.545	0.136	-0.011
-225.698	-103.389	-0.234	-0.071
-224.684	-97.845	-0.142	-0.047
-223.669	-200.000	-0.002	-0.324
-222.655	-58.033	0.545	-0.309
-221.640	800.000	0.079	0.332
-220.625	-90.735	0.231	-0.086
-219.611	14.114	0.212	0.214
-218.596	-200.000	0.034	-0.310
-217.582	16.096	-0.295	0.303
-216.567	99.949	0.257	-0.388
-215.552	-74.759	0.339	-0.158
-214.538	82.367	0.066	0.094
-213.523	-107.641	-0.656	0.185
-212.509	-81.232	-0.289	0.123
-211.494	625.701	0.060	-0.197
-210.479	100.145	-0.109	-0.165
-209.465	726.921	-0.102	0.355
-208.450	-61.677	-0.114	-0.062
-207.436	-149.494	0.280	0.028
-206.421	-157.100	-0.285	-0.022
-205.406	90.578	0.358	0.523
-204.392	-200.000	-0.012	-0.134
-203.377	-62.363	0.309	-0.167
-202.363	-200.000	0.042	0.492
-201.348	43.051	0.415	0.493
-200.333	-131.810	0.392	-0.066
-199.319	-63.154	0.205	0.110
-198.304	237.622	0.116	0.250
-197.290	235.389	-0.211	-0.456
-196.275	800.000	-0.047	-0.237
-195.260	-91.419	-0.117	0.043
-194.246	-121.875	-0.389	-0.083
-193.231	-11.298	0.178	0.152
-192.217	51.192	0.150	0.185
-191.202	24.514	-0.053	-0.057
-190.187	800.000	0.084	-0.322
-189.173	-14.848	-0.282	0.235
-188.158	596.533	-0.107	-0.347
-187.144	114.910	0.158	-0.252
-186.129	78.375	0.044	-0.061
-185.114	-122.718	0.308	-0.064
-184.100	-95.907	-0.526	0.181
-183.085	-200.000	0.022	-0.386
-182.071	-200.000	0.027	0.189
-181.056	-46.438	-0.175	-0.111
-180.042	520.348	0.047	-0.143
-179.027	-68.326	-0.373	0.188
-178.012	83.801	0.180	0.255
-176.998	41.980	-0.111	-0.131
-175.983	-63.114	-0.073	-0.039
-174.969	593.027	0.222	-0.717
-173.954	64.173	0.042	0.055
-172.939	326.073	0.035	-0.088
-171.925	-130.490	0.279	-0.048
-170.910	63.228	0.317	-0.413
-169.896	-84.742	-0.440	-0.179
-168.881	800.000	-0.046	0.231
-167.866	-23.214	-0.462	0.360
-166.852	73.179	-0.029	-0.040
-165.837	58.437	-0.186	-0.237
-164.823	360.134	-0.109	-0.284
-163.808	497.072	-0.135	-0.405
-162.793	305.343	0.063	-0.153
-161.779	-124.932	-0.354	-0.070
-160.764	-200.000	-0.003	0.118
-159.750	-71.737	0.263	0.127
-158.735	-6.022	0.192	-0.170
-157.720	-176.203	0.396	-0.013
-156.706	404.583	0.059	0.163
-155.691	210.466	-0.066	0.136
-154.677	-166.443	-0.381	0.020
-153.662	324.026	-0.153	0.381
-152.647	79.097	-0.252	-0.351
-151.633	-110.445	0.367	-0.098
-150.618	-200.000	-0.030	-0.403
-149.604	-138.733	-0.468	0.066
-148.589	408.186	-0.041	0.114
-147.574	-46.414	-0.360	0.229
-146.560	167.032	0.121	0.223
-145.545	-39.403	-0.226	-0.153
-144.531	-84.094	-0.166	0.068
-143.516	133.192	-0.200	-0.336
-142.502	800.000	0.077	0.296
-141.487	-200.000	0.013	0.083
-140.472	-152.390	0.564	0.052
-139.458	-15.513	-0.057	0.047
-138.443	-72.414	-0.113	-0.054
-137.429	73.479	0.322	-0.437
-136.414	13.777	0.129	-0.130
-135.399	129.456	-0.105	0.174
-134.385	-10.097	0.161	0.138
-133.370	84.953	0.288	0.409
-132.356	229.523	-0.056	0.118
-131.341	72.699	0.061	0.083
-130.326	-200.000	-0.070	0.408
-129.312	-184.686	0.134	0.003
-128.297	255.333	-0.078	0.174
-127.283	-118.325	-0.087	-0.020
-126.268	-192.714	-0.452	0.005
-125.253	-200.000	0.026	-0.235
-124.239	-28.447	-0.043	-0.032
-123.224	-200.000	0.006	0.258
-122.210	-1.102	0.249	0.228
-121.195	-37.665	-0.162	0.111
-120.180	-134.890	0.092	0.014
-119.166	20.720	-0.133	-0.139
-118.151	795.493	-0.077	-0.276
-117.137	95.500	0.234	-0.347
-116.122	17.467	-0.196	0.202
-115.107	290.405	-0.107	0.253
-114.093	27.276	-0.231	-0.252
-113.078	187.299	-0.165	0.320
-112.064	794.825	0.028	0.102
-111.049	-57.992	-0.336	-0.189
-110.034	-112.802	0.121	0.031
-109.020	271.384	-0.131	-0.299
-108.005	-123.570	-0.205	-0.042
-106.991	248.036	-0.076	0.166
-105.976	-40.003	0.129	-0.087
-104.962	-200.000	0.007	-0.217
-103.947	-60.738	0.346	-0.189
-102.932	-200.000	0.050	-0.326
-101.918	17.964	0.130	-0.134
-100.903	-35.073	-0.480	-0.338
-99.889	117.882	0.236	-0.377
-98.874	402.154	0.207	-0.567
-97.859	-200.000	-0.000	-0.012
-96.845	-31.386	-0.399	-0.290
-95.830	205.549	0.157	-0.318
-94.816	-107.222	0.463	-0.131
-93.801	71.684	-0.273	-0.367
-92.786	-94.235	0.410	-0.144
-91.772	283.061	-0.048	0.112
-90.757	268.062	-0.327	0.743
-89.743	194.290	-0.127	-0.251
-88.728	-56.277	0.193	0.111
-87.713	101.108	-0.149	0.225
-86.699	330.237	-0.073	0.183
-85.684	-60.533	0.179	0.098
-84.670	388.643	0.046	-0.123
-83.655	115.715	-0.137	0.217
-82.640	-71.156	0.148	-0.072
-81.626	673.788	-0.088	-0.297
-80.611	1.015	0.140	0.130
-79.597	111.904	-0.218	0.341
-78.582	-200.000	-0.057	0.412
-77.567	81.032	-0.292	0.409
-76.553	264.937	0.120	0.272
-75.538	39.299	0.024	-0.028
-74.524	800.000	-0.017	0.073
-73.509	-46.936	-0.324	0.205
-72.494	800.000	-0.096	0.382
-71.480	-41.868	-0.530	0.351
-70.465	-172.748	-0.354	-0.014
-69.451	40.739	-0.244	0.284
-68.436	-51.181	0.079	-0.048
-67.422	-200.000	0.024	0.171
-66.407	-158.675	0.266	-0.020
-65.392	-134.373	-0.258	-0.041
-64.378	-3.533	-0.485	0.436
-63.363	-108.805	-0.081	-0.022
-62.349	-200.000	0.083	0.545
-61.334	12.229	-2.261	-2.251
-60.319	10.912	1.722	1.700
-59.305	213.676	-3.662	-7.511
-58.290	129.020	3.376	5.582
-57.276	367.028	3.765	9.869
-56.261	-200.000	24.063	320.896
-55.246	353.212	1304.906	3362.360
-54.232	52.636	2846.636	3518.081
-53.217	51.192	2661.785	3267.155
-52.203	31.484	2392.430	2658.335
-51.188	27.642	2058.620	2239.999
-50.173	24.345	1944.038	2076.715
-49.159	23.218	1933.148	2051.883
-48.144	23.000	1927.764	2043.555
-47.130	22.753	1925.189	2037.878
-46.115	22.825	1923.065	2036.377
-45.100	22.775	1922.884	2035.521
-44.086	22.754	1920.210	2032.375
-43.071	22.743	1919.357	2031.259
-42.057	22.696	1917.457	2028.621
-41.042	22.722	1915.247	2026.505
-40.027	22.805	1914.150	2026.226
-39.013	22.639	1913.812	2023.865
-37.998	22.671	1912.578	2022.853
-36.984	22.825	1910.665	2022.528
-35.969	22.783	1908.943	2020.136
-34.954	22.707	1907.821	2017.993
-33.940	22.679	1906.193	2015.876
-32.925	22.745	1905.137	2015.433
-31.911	22.799	1903.514	2014.255
-30.896	22.553	1903.150	2010.968
-29.881	22.697	1901.665	2010.976
-28.867	22.598	1900.320	2008.339
-27.852	22.530	1898.966	2006.052
-26.838	22.620	1896.832	2004.738
-25.823	22.469	1896.375	2002.456
-24.809	22.528	1895.320	2001.931
-23.794	22.569	1893.224	2000.108
-22.779	22.580	1891.832	1998.688
-21.765	22.541	1891.065	1997.347
-20.750	22.629	1889.757	1996.895
-19.736	22.428	1889.245	1993.986
-18.721	22.682	1887.110	1994.534
-17.706	22.596	1886.677	1993.023
-16.692	22.437	1886.752	1991.217
-15.677	22.535	1884.632	1990.018
-14.663	22.524	1882.898	1987.976
-13.648	22.444	1881.220	1985.216
-12.633	22.534	1879.429	1984.274
-11.619	22.433	1878.637	1982.213
-10.604	22.415	1877.196	1980.414
-9.590	22.498	1875.956	1979.956
-8.575	22.364	1875.949	1978.365
-7.560	22.443	1874.207	1977.337
-6.546	22.447	1872.879	1975.902
-5.531	22.384	1871.423	1973.584
-4.517	22.367	1870.071	1971.881
-3.502	22.376	1869.565	1971.369
-2.487	22.686	1868.286	1973.434
-1.473	22.593	1864.811	1968.637
-0.458	22.301	1846.833	1946.340
0.556	18.972	1993.522	2048.853
1.571	17.466	2197.167	2237.979
2.586	18.206	2236.631	2287.859
3.600	18.359	2239.342	2292.425
4.615	18.374	2238.264	2291.236
5.629	18.306	2235.878	2287.605
6.644	18.259	2234.108	2284.900
7.659	18.242	2232.687	2282.938
8.673	18.349	2230.337	2281.698
9.688	18.096	2239.078	2286.959
10.702	17.275	2320.361	2358.253
11.717	15.650	2385.094	2400.447
12.731	7.385	2366.109	2262.929
13.746	0.984	2349.526	2155.440
14.761	0.223	2345.738	2140.836
15.775	0.079	2344.845	2137.702
16.790	0.050	2342.206	2134.631
17.804	0.155	2340.056	2133.916
18.819	0.103	2339.606	2132.504
19.834	0.169	2337.583	2131.339
20.848	0.068	2336.111	2128.313
21.863	0.101	2334.055	2126.654
22.877	0.088	2332.919	2125.182
23.892	0.121	2330.926	2123.573
24.907	0.067	2328.766	2120.590
25.921	0.115	2326.432	2118.886
26.936	0.007	2324.144	2115.025
27.950	0.011	2321.773	2112.670
28.965	0.236	2318.551	2112.655
29.980	0.090	2317.757	2109.621
30.994	0.016	2316.310	2107.005
32.009	3.810	2328.053	2171.071
33.023	12.858	2354.341	2324.034
34.038	16.508	2360.133	2381.227
35.053	16.540	2356.545	2377.773
36.067	16.374	2353.276	2371.846
37.082	16.312	2352.046	2369.447
38.096	16.510	2348.779	2368.657
39.111	16.670	2347.523	2369.365
40.126	16.822	2345.755	2369.431
41.140	16.952	2343.899	2369.095
42.155	16.830	2343.002	2366.201
43.169	16.980	2339.719	2364.704
44.184	16.805	2336.258	2358.471
45.199	16.643	2335.591	2355.250
46.213	16.678	2335.445	2355.313
47.228	16.889	2333.848	2356.363
48.242	16.951	2331.674	2354.757
49.257	16.959	2330.783	2353.685
50.271	17.054	2327.841	2351.753
51.286	16.743	2325.126	2344.402
52.301	16.648	2322.906	2340.569
53.315	17.495	2326.384	2355.567
54.330	20.248	2334.281	2401.655
55.344	21.983	2335.226	2426.462
56.359	22.189	2331.706	2425.378
57.374	22.430	2330.274	2426.926
58.388	22.492	2328.335	2425.480
59.403	22.296	2323.325	2417.258
60.417	22.006	2320.277	2409.802
61.432	22.068	2319.081	2409.128
62.447	22.265	2318.585	2411.045
63.461	22.504	2316.645	2412.021
64.476	22.568	2315.162	2411.072
65.490	22.249	2312.226	2403.336
66.505	21.454	2308.302	2388.073
67.520	19.444	2299.890	2351.569
68.534	17.139	2292.799	2312.526
69.549	16.645	2288.145	2300.813
70.563	16.593	2285.651	2297.309
71.578	16.747	2283.708	2297.192
72.593	16.810	2281.865	2295.918
73.607	16.862	2281.036	2295.520
74.622	16.882	2278.666	2293.130
75.636	16.679	2275.989	2287.404
76.651	16.627	2273.686	2284.104
77.666	16.516	2271.686	2280.323
78.680	16.596	2268.359	2277.791
79.695	16.506	2266.431	2274.359
80.709	16.378	2265.296	2271.229
81.724	16.360	2263.564	2268.967
82.739	16.359	2260.256	2265.369
83.753	16.301	2258.534	2262.589
84.768	16.352	2256.815	2261.288
85.782	16.190	2255.746	2257.762
86.797	16.233	2253.436	2255.757
87.812	16.248	2251.360	2253.617
88.826	16.434	2249.388	2253.861
89.841	16.369	2248.192	2251.525
90.855	16.403	2244.799	2248.317
91.870	16.477	2244.592	2248.822
92.884	16.515	2241.989	2246.451
93.899	16.484	2240.588	2244.367
94.914	17.143	2243.577	2255.892
95.928	19.747	2250.292	2297.209
96.943	20.591	2248.980	2306.851
97.957	18.050	2238.593	2262.151
98.972	16.538	2232.724	2235.874
99.987	16.321	2229.750	2229.741
101.001	16.333	2227.104	2226.988
102.016	16.283	2225.989	2224.949
103.030	16.348	2222.748	2222.304
104.045	16.309	2220.640	2219.410
105.060	16.385	2218.100	2217.615
106.074	16.338	2216.646	2215.276
107.089	16.473	2214.324	2214.470
108.103	16.471	2213.310	2213.157
109.118	16.497	2212.256	2212.182
110.133	16.607	2210.726	2211.834
111.147	16.520	2208.001	2207.700
112.162	16.374	2207.233	2204.760
113.176	16.703	2204.935	2206.511
114.191	16.731	2203.976	2205.645
115.206	16.657	2202.367	2202.805
116.220	16.601	2200.275	2199.712
117.235	16.712	2198.207	2198.833
118.249	16.763	2196.138	2197.169
119.264	16.798	2194.709	2195.932
120.279	16.533	2192.830	2190.335
121.293	16.589	2190.746	2188.728
122.308	16.587	2190.421	2188.111
123.322	16.475	2188.280	2184.260
124.337	17.066	2189.904	2193.292
125.352	19.754	2198.324	2236.463
126.366	20.389	2195.193	2241.246
127.381	17.660	2184.129	2194.416
128.395	16.648	2179.272	2176.195
129.410	16.561	2176.998	2172.549
130.424	16.390	2175.689	2168.769
131.439	16.511	2173.583	2167.973
132.454	16.560	2172.904	2167.666
133.468	16.670	2171.352	2167.278
134.483	16.861	2170.630	2168.752
135.497	16.973	2168.029	2167.326
136.512	16.839	2165.858	2163.186
137.527	16.666	2163.094	2157.941
138.541	16.434	2162.649	2154.274
139.556	16.437	2161.020	2152.432
140.570	16.336	2160.546	2150.412
141.585	16.378	2158.277	2148.432
142.600	16.361	2156.648	2146.333
143.614	16.316	2154.127	2142.997
144.629	16.310	2152.682	2141.227
145.643	16.255	2151.181	2138.773
146.658	16.255	2149.571	2136.916
147.673	16.209	2146.518	2133.033
148.687	16.272	2146.003	2133.075
149.702	16.416	2145.697	2134.345
150.716	16.413	2144.535	2132.895
151.731	16.482	2142.229	2131.222
152.746	16.564	2141.977	2131.750
153.760	17.191	2145.879	2143.331
154.775	19.936	2152.734	2184.790
155.789	20.873	2149.131	2192.735
156.804	18.107	2139.421	2147.689
157.819	16.529	2133.253	2121.357
158.833	16.407	2129.002	2115.339
159.848	16.457	2127.708	2114.435
160.862	16.657	2125.277	2114.268
161.877	16.499	2125.935	2112.687
162.892	16.606	2125.031	2112.878
163.906	16.624	2123.547	2111.379
164.921	16.507	2121.375	2107.500
165.935	16.521	2119.546	2105.610
166.950	16.733	2117.592	2106.063
167.964	16.761	2114.807	2103.395
168.979	16.470	2113.717	2098.419
169.994	16.481	2111.217	2095.832
171.008	16.422	2109.685	2093.324
172.023	16.426	2108.349	2091.801
173.037	16.422	2107.889	2091.035
174.052	16.621	2105.773	2091.168
175.067	16.487	2103.974	2087.463
176.081	16.476	2101.793	2084.908
177.096	16.383	2101.591	2083.314
178.110	16.423	2100.349	2082.325
179.125	16.523	2099.025	2082.005
180.140	16.445	2097.320	2079.091
181.154	16.526	2096.137	2078.672
182.169	16.750	2096.040	2081.103
183.183	17.387	2098.981	2091.637
184.198	20.458	2104.856	2135.247
185.213	20.857	2102.677	2137.698
186.227	17.919	2092.802	2091.287
187.242	16.824	2088.802	2073.580
188.256	16.561	2085.952	2067.269
189.271	16.465	2083.911	2063.822
190.286	16.324	2082.628	2060.570
191.300	16.349	2080.583	2058.608
192.315	16.445	2079.093	2058.064
193.329	16.597	2078.349	2058.937
194.344	16.953	2076.810	2061.526
195.359	17.056	2075.704	2061.432
196.373	16.734	2073.031	2054.603
197.388	16.660	2070.296	2050.752
198.402	16.562	2068.197	2047.227
199.417	16.381	2066.543	2043.149
200.432	16.504	2064.901	2042.774
201.446	16.495	2063.530	2041.069
202.461	16.455	2062.364	2039.184
203.475	16.441	2059.579	2036.019
204.490	16.484	2058.022	2034.759
205.504	16.353	2056.142	2031.066
206.519	16.466	2054.325	2030.395
207.534	16.588	2052.373	2029.691
208.548	16.542	2050.938	2027.482
209.563	16.422	2050.934	2025.785
210.577	16.581	2050.023	2026.562
211.592	16.659	2047.904	2025.162
212.607	18.024	2054.086	2047.486
213.621	21.078	2062.273	2092.264
214.636	20.679	2054.300	2079.134
215.650	17.561	2044.783	2031.924
216.665	16.671	2041.645	2017.906
217.680	16.489	2040.179	2014.035
218.694	16.325	2038.667	2010.333
219.709	16.360	2036.771	2008.641
220.723	16.588	2034.206	2008.593
221.738	16.769	2033.171	2009.496
222.753	16.823	2031.341	2008.088
223.767	16.788	2030.308	2006.410
224.782	16.664	2028.388	2002.794
225.796	16.607	2027.388	2000.891
226.811	16.722	2025.713	2000.365
227.826	16.677	2023.968	1997.872
228.840	16.677	2021.980	1995.668
229.855	16.622	2020.307	1993.129
230.869	16.582	2019.454	1991.570
231.884	16.478	2017.954	1988.630
232.899	16.570	2016.325	1987.872
233.913	16.532	2015.033	1985.911
234.928	16.523	2013.852	1984.400
235.942	16.526	2012.228	1982.596
236.957	16.461	2010.729	1980.118
237.972	16.476	2009.571	1978.917
238.986	16.514	2007.232	1976.825
240.001	16.484	2006.558	1975.566
241.015	16.563	2006.416	1976.126
242.030	17.309	2008.180	1986.389
243.045	20.103	2012.649	2023.405
244.059	20.239	2011.094	2023.189
245.074	17.752	2001.324	1984.070
246.088	16.831	1997.613	1969.404
247.103	16.991	1995.850	1969.299
248.117	16.797	1994.469	1965.434
249.132	16.567	1992.312	1960.394
250.147	16.575	1989.849	1957.831
251.161	16.614	1989.133	1957.350
252.176	16.893	1988.807	1960.041
253.190	17.071	1986.514	1959.602
254.205	17.048	1984.552	1957.174
255.220	17.014	1983.754	1955.756
256.234	16.942	1982.669	1953.621
257.249	16.881	1980.306	1950.350
258.263	16.759	1979.427	1947.835
259.278	16.881	1978.557	1948.155
260.293	16.687	1976.653	1943.813
261.307	16.534	1974.307	1939.513
262.322	16.438	1972.761	1936.653
263.336	16.419	1970.271	1933.763
264.351	16.321	1968.108	1930.278
265.366	16.353	1967.334	1929.659
266.380	16.290	1967.557	1928.917
267.395	16.374	1966.176	1928.301
268.409	16.442	1963.936	1926.653
269.424	16.300	1962.751	1923.636
270.439	16.496	1961.694	1924.612
271.453	17.652	1963.524	1939.403
272.468	20.338	1969.873	1976.226
273.482	20.374	1966.366	1972.878
274.497	17.713	1955.994	1931.968
275.512	16.548	1952.396	1914.932
276.526	16.568	1949.569	1912.157
277.541	16.466	1947.867	1909.102
278.555	16.470	1946.117	1907.204
279.570	16.286	1944.114	1902.924
280.585	16.548	1942.972	1904.543
281.599	16.510	1943.087	1903.996
282.614	16.596	1941.202	1902.896
283.628	17.009	1940.175	1906.334
284.643	16.912	1941.058	1905.870
285.657	17.111	1939.390	1906.250
286.672	17.193	1937.419	1905.014
287.687	17.056	1936.023	1901.862
288.701	17.008	1934.058	1899.169
289.716	16.898	1933.185	1896.844
290.730	16.928	1931.854	1895.654
291.745	17.049	1930.713	1895.665
292.760	17.028	1929.517	1894.029
293.774	16.770	1928.724	1890.127
294.789	16.820	1926.454	1888.243
295.803	16.717	1923.919	1884.375
296.818	16.646	1923.374	1882.817
297.833	16.729	1921.510	1881.696
298.847	16.691	1920.072	1879.637
299.862	16.652	1918.945	1877.877
300.876	17.427	1921.275	1888.582
301.891	20.444	1926.207	1926.898
302.906	20.819	1923.919	1928.555
303.920	17.832	1915.154	1886.386
304.935	16.889	1911.168	1871.774
305.949	16.696	1908.659	1866.958
306.964	16.642	1908.056	1865.549
307.979	16.703	1906.904	1864.877
308.993	17.023	1905.437	1866.748
310.008	17.234	1904.206	1867.657
311.022	17.184	1902.837	1865.540
312.037	16.925	1900.899	1860.555
313.052	16.926	1899.092	1858.580
314.066	17.036	1897.919	1858.413
315.081	17.192	1896.897	1858.915
316.095	16.994	1895.883	1855.520
317.110	16.808	1894.483	1851.882
318.125	16.785	1891.977	1848.956
319.139	16.741	1891.437	1847.725
320.154	16.992	1888.911	1847.783
321.168	16.803	1887.681	1844.292
322.183	16.808	1885.687	1842.185
323.197	16.458	1884.596	1837.075
324.212	16.423	1882.623	1834.544
325.227	16.408	1880.411	1832.009
326.241	16.355	1878.934	1829.767
327.256	16.634	1877.729	1831.414
328.270	16.504	1876.550	1828.629
329.285	16.402	1877.462	1828.192
330.300	17.508	1881.153	1843.617
331.314	20.650	1886.841	1883.208
332.329	20.562	1881.466	1876.664
333.343	17.672	1872.544	1836.295
334.358	16.435	1869.737	1819.936
335.373	16.481	1867.322	1817.866
336.387	16.390	1864.931	1814.340
337.402	16.409	1863.957	1813.377
338.416	16.419	1863.101	1812.441
339.431	16.505	1861.590	1811.680
340.446	16.449	1859.522	1808.841
341.460	16.564	1859.317	1809.669
342.475	16.838	1857.959	1811.070
343.489	16.947	1857.102	1811.186
344.504	16.780	1856.071	1808.177
345.519	16.932	1854.798	1808.350
346.533	17.222	1852.401	1808.898
347.548	17.078	1851.786	1806.535
348.562	16.931	1849.481	1802.500
349.577	16.953	1849.586	1802.630
350.592	17.179	1848.930	1804.187
351.606	17.230	1847.780	1803.387
352.621	17.300	1845.366	1801.560
353.635	16.955	1843.282	1795.642
354.650	16.771	1842.002	1792.223
355.665	16.744	1839.745	1789.530
356.679	16.734	1838.211	1787.720
357.694	16.703	1836.550	1785.556
358.708	16.546	1836.124	1783.263
359.723	17.837	1839.840	1800.363
360.738	20.810	1844.353	1836.120
361.752	20.067	1838.719	1822.437
362.767	17.536	1831.693	1788.570
363.781	16.577	1829.589	1776.184
364.796	16.531	1827.182	1773.146
365.810	16.370	1826.097	1770.185
366.825	16.539	1825.378	1771.055
367.840	16.850	1825.066	1773.814
368.854	16.949	1824.023	1773.630
369.869	16.646	1821.158	1767.451
370.883	16.687	1819.181	1765.751
371.898	16.521	1818.904	1763.533
372.913	16.391	1817.319	1760.424
373.927	16.571	1816.088	1760.898
374.942	16.750	1815.509	1761.998
375.956	16.792	1813.527	1760.303
376.971	16.718	1811.839	1757.687
377.986	16.631	1810.083	1754.865
379.000	16.633	1808.610	1753.249
380.015	16.716	1806.813	1752.162
381.029	16.657	1805.144	1749.715
382.044	16.486	1803.068	1745.717
383.059	16.525	1801.413	1744.311
384.073	16.404	1801.097	1742.540
385.088	16.582	1800.307	1743.419
386.102	16.545	1798.506	1741.079
387.117	16.419	1797.278	1738.376
388.132	16.559	1796.702	1739.064
389.146	17.604	1800.698	1753.537
390.161	20.732	1804.836	1789.736
391.175	20.334	1798.838	1779.481
392.190	17.560	1789.558	1741.613
393.205	16.854	1786.509	1731.188
394.219	16.563	1785.304	1726.831
395.234	16.487	1784.548	1725.108
396.248	16.599	1782.030	1723.616
397.263	16.538	1779.117	1719.970
398.278	16.393	1778.534	1717.719
399.292	16.305	1778.333	1716.420
400.307	16.412	1777.496	1716.502
401.321	16.510	1776.366	1716.203
402.336	16.688	1774.892	1716.391
403.350	16.733	1773.304	1715.098
404.365	16.756	1771.953	1713.827
405.380	17.056	1771.058	1715.799
406.394	17.141	1770.200	1715.626
407.409	17.049	1768.974	1713.302
408.423	17.162	1767.744	1713.047
409.438	17.098	1765.808	1710.323
410.453	17.084	1764.350	1708.561
411.467	17.223	1763.573	1709.009
412.482	17.075	1761.344	1705.155
413.496	16.767	1760.194	1700.732
414.511	16.631	1758.717	1697.725
415.526	16.559	1756.294	1694.460
416.540	16.520	1754.840	1692.464
417.555	16.540	1754.844	1692.463
418.569	16.881	1754.635	1695.491
419.584	16.823	1754.735	1694.797
420.599	16.816	1753.736	1693.565
421.613	16.699	1752.581	1691.066
422.628	16.658	1750.804	1688.736
423.642	16.649	1749.446	1687.136
424.657	16.646	1748.032	1685.538
425.672	16.745	1746.359	1684.720
426.686	16.804	1745.119	1683.911
427.701	16.892	1743.091	1682.624
428.715	16.827	1742.383	1681.092
429.730	16.931	1740.795	1680.402
430.745	17.012	1739.562	1679.814
431.759	17.024	1739.352	1679.529
432.774	17.297	1740.440	1683.098
433.788	17.768	1740.494	1687.635
434.803	18.174	1739.773	1690.766
435.818	17.966	1739.104	1687.850
436.832	17.951	1737.989	1686.410
437.847	16.962	1731.233	1669.871
438.861	9.507	1710.399	1576.455
439.876	1.682	1696.491	1486.831
440.890	0.244	1693.372	1469.826
441.905	0.130	1692.363	1467.657
442.920	0.226	1690.805	1467.071
443.934	0.266	1688.976	1465.698
444.949	0.200	1687.926	1463.963
445.963	-0.016	1688.203	1461.923
446.978	0.062	1687.344	1461.758
447.993	0.150	1685.159	1460.556
449.007	0.112	1683.168	1458.279
450.022	0.125	1680.931	1456.301
451.036	0.204	1680.063	1456.141
452.051	1.168	1684.118	1468.862
453.066	8.860	1700.921	1558.762
454.080	16.342	1712.939	1643.000
455.095	17.750	1714.581	1658.148
456.109	18.152	1714.933	1662.219
457.124	18.299	1713.716	1662.274
458.139	18.376	1712.895	1662.031
459.153	18.613	1711.318	1662.617
460.168	18.500	1710.206	1660.237
461.182	18.461	1708.990	1658.474
462.197	18.309	1706.465	1654.353
463.212	18.179	1705.194	1651.658
464.226	18.240	1704.095	1650.987
465.241	18.438	1703.522	1652.151
466.255	18.479	1703.052	1651.899
467.270	18.611	1700.317	1650.323
468.285	18.314	1699.454	1646.421
469.299	18.192	1698.408	1644.030
470.314	18.407	1695.997	1643.574
471.328	18.289	1695.204	1641.473
472.343	18.474	1693.828	1641.724
473.358	18.550	1693.015	1641.468
474.372	18.387	1692.344	1639.059
475.387	18.468	1689.866	1637.239
476.401	18.310	1688.398	1634.103
477.416	18.261	1687.436	1632.511
478.430	18.317	1686.146	1631.597
479.445	18.276	1685.039	1629.936
480.460	18.156	1683.952	1627.541
481.474	18.269	1682.573	1627.095
482.489	18.417	1681.908	1627.669
483.503	18.575	1680.248	1627.378
484.518	18.622	1678.985	1626.409
485.533	18.579	1677.749	1624.608
486.547	18.452	1676.775	1622.259
487.562	18.686	1675.988	1623.527
488.576	18.711	1674.110	1621.751
489.591	18.756	1672.350	1620.283
490.606	18.561	1671.274	1617.199
491.620	18.554	1669.958	1615.662
492.635	18.758	1668.316	1615.809
493.649	18.854	1667.499	1615.738
494.664	18.643	1665.915	1612.016
495.679	18.149	1665.092	1606.367
496.693	18.305	1662.740	1605.373
497.708	18.455	1662.539	1606.398
498.722	18.636	1661.872	1607.267
499.737	18.709	1659.991	1605.938
500.752	18.750	1657.509	1603.735
501.766	18.525	1655.831	1599.810
502.781	18.568	1654.894	1599.115
503.795	18.531	1654.024	1597.731
504.810	18.608	1652.838	1597.120
505.825	18.822	1652.383	1598.489
506.839	18.667	1650.907	1595.419
507.854	18.736	1649.072	1594.104
508.868	18.715	1648.203	1592.872
509.883	18.732	1647.662	1592.316
510.898	18.784	1645.591	1590.615
511.912	18.746	1643.985	1588.514
512.927	18.650	1641.866	1585.391
513.941	18.595	1641.390	1584.224
514.956	18.480	1639.627	1581.266
515.971	18.556	1638.411	1580.614
516.985	18.529	1637.745	1579.526
518.000	18.623	1636.752	1579.254
519.014	18.674	1636.394	1579.193
520.029	18.782	1634.865	1578.525
521.043	18.803	1633.434	1577.145
522.058	18.816	1632.329	1576.009
523.073	18.943	1631.058	1575.766
524.087	19.129	1630.108	1576.369
525.102	19.032	1628.988	1574.205
526.116	18.797	1626.759	1569.705
527.131	18.636	1626.343	1567.634
528.146	18.953	1625.807	1569.841
529.160	19.002	1624.890	1569.217
530.175	19.062	1623.669	1568.402
531.189	19.035	1622.679	1567.008
532.204	19.088	1620.924	1565.617
533.219	18.892	1619.162	1561.933
534.233	18.695	1618.524	1559.336
535.248	18.959	1617.422	1560.496
536.262	19.124	1616.866	1561.273
537.277	19.128	1615.222	1559.540
538.292	18.891	1613.578	1555.607
539.306	18.875	1612.027	1553.774
540.321	18.872	1610.733	1552.316
541.335	18.747	1609.806	1550.104
542.350	19.016	1607.484	1550.121
543.365	18.968	1606.637	1548.682
544.379	19.015	1605.655	1547.975
545.394	19.225	1603.513	1547.619
546.408	18.886	1602.434	1543.334
547.423	18.749	1600.813	1540.355
548.438	18.700	1599.909	1538.864
549.452	18.897	1598.938	1539.513
550.467	18.950	1598.007	1538.911
551.481	19.163	1596.491	1539.179
552.496	19.170	1596.596	1539.159
553.511	19.227	1595.556	1538.487
554.525	19.219	1594.816	1537.518
555.540	19.260	1594.441	1537.341
556.554	19.299	1593.049	1536.164
557.569	19.258	1590.535	1533.186
558.583	19.060	1589.604	1530.341
559.598	19.220	1587.509	1529.567
560.613	19.038	1587.862	1528.094
561.627	19.152	1586.401	1527.527
562.642	19.331	1585.089	1527.672
563.656	19.276	1584.702	1526.628
564.671	19.408	1582.317	1525.324
565.686	19.413	1580.826	1523.742
566.700	19.189	1579.512	1520.307
567.715	19.004	1578.198	1517.222
568.729	18.972	1576.118	1514.757
569.744	18.671	1574.712	1510.562
570.759	18.801	1574.067	1510.914
571.773	18.910	1573.220	1510.881
572.788	19.048	1572.473	1511.199
573.802	19.068	1570.925	1509.710
574.817	19.127	1569.639	1508.814
575.832	19.431	1569.098	1510.791
576.846	19.319	1567.397	1507.984
577.861	19.117	1566.099	1504.779
578.875	19.301	1565.855	1505.979
579.890	19.472	1564.437	1505.937
580.905	19.492	1563.211	1504.755
581.919	19.609	1563.043	1505.434
582.934	19.556	1562.162	1503.944
583.948	19.411	1561.362	1501.724
584.963	19.218	1559.929	1498.477
585.978	19.266	1558.027	1496.896
586.992	19.274	1557.545	1496.322
588.007	19.503	1556.574	1497.201
589.021	19.237	1554.220	1492.442
590.036	18.963	1552.856	1488.577
591.051	19.220	1551.750	1489.565
592.065	19.275	1550.579	1488.747
593.080	19.369	1549.104	1487.966
594.094	19.393	1547.556	1486.512
595.109	19.083	1545.713	1481.874
596.123	18.974	1544.346	1479.444
597.138	19.237	1544.056	1481.268
598.153	19.381	1542.586	1480.917
599.167	19.291	1541.423	1478.851
600.182	19.365	1541.183	1479.086
601.196	19.391	1539.832	1477.836
602.211	19.373	1538.672	1476.391
603.226	19.717	1536.845	1477.418
604.240	19.612	1536.023	1475.548
605.255	19.828	1534.732	1475.983
606.269	19.732	1533.815	1474.103
607.284	19.685	1532.685	1472.436
608.299	19.568	1531.913	1470.512
609.313	19.407	1530.780	1467.874
610.328	19.625	1529.648	1468.480
611.342	19.573	1528.399	1466.659
612.357	19.666	1527.621	1466.525
613.372	19.711	1526.392	1465.559
614.386	19.636	1524.718	1463.137
615.401	19.725	1525.136	1464.121
616.415	19.653	1524.261	1462.487
617.430	19.699	1523.284	1461.770
618.445	19.828	1521.397	1460.879
619.459	19.630	1520.145	1457.826
620.474	19.237	1518.787	1453.017
621.488	19.099	1516.970	1449.934
622.503	18.995	1515.439	1447.417
623.518	19.284	1514.808	1449.084
624.532	19.574	1514.210	1450.786
625.547	19.519	1513.608	1449.577
626.561	19.839	1513.070	1451.588
627.576	20.016	1511.638	1451.529
628.591	19.632	1509.159	1445.742
629.605	19.440	1507.446	1442.314
630.620	19.332	1505.804	1439.670
631.634	18.987	1505.659	1436.460
632.649	18.999	1505.038	1435.794
633.663	19.418	1503.015	1437.202
634.678	19.683	1503.176	1439.404
635.693	19.846	1501.854	1439.326
636.707	19.945	1500.411	1438.603
637.722	20.063	1499.806	1438.838
638.736	20.081	1498.306	1437.376
639.751	20.036	1497.156	1435.720
640.766	19.892	1496.229	1433.464
641.780	19.863	1494.883	1431.759
642.795	19.959	1494.210	1431.743
643.809	19.826	1494.186	1430.443
644.824	19.940	1492.335	1429.446
645.839	19.793	1492.079	1427.811
646.853	19.967	1490.645	1427.708
647.868	19.969	1488.477	1425.476
648.882	19.858	1487.385	1423.345
649.897	19.942	1485.843	1422.392
650.912	19.862	1484.474	1420.249
651.926	19.790	1483.108	1418.184
652.941	19.579	1481.507	1414.745
653.955	19.351	1480.144	1411.395
654.970	19.264	1477.697	1408.176
655.985	19.186	1476.754	1406.472
656.999	19.252	1476.517	1406.620
658.014	19.444	1475.294	1406.858
659.028	19.572	1475.295	1407.741
660.043	19.659	1474.123	1407.164
661.058	19.764	1472.620	1406.423
662.072	19.836	1471.912	1406.170
663.087	19.908	1470.455	1405.190
664.101	19.889	1469.113	1403.586
665.116	19.825	1469.456	1403.224
666.131	19.965	1467.720	1402.539
667.145	19.982	1466.537	1401.380
668.160	20.113	1465.838	1401.612
669.174	20.264	1464.271	1401.168
670.189	20.205	1462.968	1399.277
671.204	20.053	1462.467	1397.396
672.218	19.920	1462.356	1396.042
673.233	20.009	1460.397	1394.727
674.247	20.282	1458.868	1395.309
675.262	20.452	1458.195	1395.872
676.276	20.288	1457.533	1393.747
677.291	20.156	1456.631	1391.653
678.306	20.008	1454.938	1388.674
679.320	19.961	1453.579	1386.834
680.335	20.155	1453.206	1387.876
681.349	20.200	1452.734	1387.620
682.364	20.108	1451.729	1385.754
683.379	20.150	1450.299	1384.561
684.393	20.244	1448.853	1383.766
685.408	20.111	1448.085	1381.799
686.422	20.103	1446.624	1380.175
687.437	20.149	1446.158	1379.936
688.452	20.195	1445.851	1379.845
689.466	20.207	1443.674	1377.697
690.481	20.035	1441.568	1374.151
691.495	19.883	1440.740	1371.986
692.510	19.424	1438.759	1366.282
693.525	19.217	1437.206	1362.999
694.539	19.340	1437.123	1363.738
695.554	19.877	1437.529	1368.224
696.568	20.217	1436.632	1369.906
697.583	20.269	1436.226	1369.771
698.598	20.333	1435.007	1368.955
699.612	20.250	1434.224	1367.387
700.627	20.335	1432.292	1366.048
701.641	20.382	1431.109	1365.128
702.656	20.344	1429.716	1363.337
703.671	20.587	1429.327	1364.717
704.685	20.601	1428.740	1364.106
705.700	20.391	1427.670	1361.270
706.714	20.157	1425.677	1357.363
707.729	20.072	1423.943	1354.884
708.744	20.084	1422.707	1353.641
709.758	20.138	1421.524	1352.777
710.773	19.857	1420.837	1349.752
711.787	19.805	1419.005	1347.449
712.802	19.889	1417.907	1346.900
713.816	20.073	1416.620	1346.957
714.831	20.130	1416.331	1346.961
715.846	20.400	1415.117	1347.754
716.860	20.405	1413.986	1346.550
717.875	20.402	1413.472	1345.883
718.889	20.372	1412.025	1344.109
719.904	20.443	1411.614	1344.105
720.919	20.441	1410.659	1343.025
721.933	20.359	1410.305	1341.888
722.948	20.433	1409.131	1341.186
723.962	20.419	1407.860	1339.706
724.977	20.601	1406.740	1339.885
725.992	20.573	1405.700	1338.520
727.006	20.423	1404.087	1335.665
728.021	20.594	1402.069	1334.907
729.035	20.624	1401.741	1334.668
730.050	20.553	1400.662	1332.933
731.065	20.535	1399.613	1331.634
732.079	20.575	1398.921	1331.120
733.094	20.424	1397.850	1328.788
734.108	20.488	1395.907	1327.270
735.123	20.392	1394.874	1325.394
736.138	20.278	1394.279	1323.794
737.152	20.493	1392.840	1323.914
738.167	20.570	1391.957	1323.504
739.181	20.723	1390.943	1323.555
740.196	20.701	1390.245	1322.564
741.211	20.543	1389.553	1320.541
742.225	20.518	1388.693	1319.377
743.240	20.585	1387.542	1318.638
744.254	20.621	1385.968	1317.255
745.269	20.386	1385.102	1314.484
746.284	20.401	1384.063	1313.458
747.298	20.267	1382.693	1310.985
748.313	20.051	1380.691	1307.285
749.327	19.820	1378.961	1303.740
750.342	19.472	1378.454	1300.475
751.356	19.282	1376.968	1297.481
752.371	19.482	1376.703	1298.583
753.386	20.046	1377.034	1303.004
754.400	20.358	1375.960	1304.188
755.415	20.756	1374.696	1305.841
756.429	20.705	1373.525	1304.189
757.444	20.596	1372.404	1302.149
758.459	20.526	1372.424	1301.484
759.473	20.719	1371.311	1301.718
760.488	20.879	1369.153	1300.716
761.502	20.765	1368.479	1299.064
762.517	20.683	1366.928	1296.826
763.532	20.483	1365.336	1293.659
764.546	20.391	1364.169	1291.711
765.561	20.206	1362.929	1289.005
766.575	19.803	1361.980	1284.942
767.590	19.765	1361.005	1283.582
768.605	19.989	1360.167	1284.309
769.619	20.291	1358.496	1284.831
770.634	20.456	1358.279	1285.694
771.648	20.553	1357.958	1285.959
772.663	20.516	1357.205	1284.817
773.678	20.824	1356.472	1286.259
774.692	20.752	1355.590	1284.732
775.707	20.784	1355.715	1284.932
776.721	20.928	1354.003	1284.223
777.736	20.886	1352.151	1282.005
778.751	20.866	1351.536	1281.119
779.765	20.689	1350.969	1279.120
780.780	20.753	1350.558	1279.048
781.794	20.732	1348.976	1277.248
782.809	20.674	1347.798	1275.549
783.824	20.538	1346.333	1273.010
784.838	20.224	1344.155	1268.486
785.853	19.725	1342.900	1263.489
786.867	19.959	1342.966	1265.120
787.882	19.924	1342.582	1264.348
788.897	20.277	1342.026	1266.264
789.911	20.337	1341.126	1265.705
790.926	20.491	1339.860	1265.480
791.940	20.610	1338.359	1264.787
792.955	20.611	1337.032	1263.388
793.969	20.605	1336.612	1262.791
794.984	20.797	1335.374	1262.874
795.999	20.839	1334.482	1262.182
797.013	20.992	1332.598	1261.366
798.028	20.824	1332.091	1259.509
799.042	20.826	1331.900	1259.197
800.057	21.108	1330.271	1259.552
801.072	20.987	1329.020	1257.339
802.086	20.843	1327.660	1254.861
803.101	20.885	1327.143	1254.524
804.115	20.935	1326.015	1253.668
805.130	20.857	1324.627	1251.644
806.145	20.967	1323.689	1251.399
807.159	20.848	1322.955	1249.698
808.174	20.712	1321.277	1246.982
809.188	20.701	1319.589	1245.165
810.203	20.642	1317.404	1242.531
811.218	20.407	1315.720	1239.108
812.232	20.116	1314.386	1235.617
813.247	19.878	1313.830	1233.242
814.261	20.207	1313.618	1235.252
815.276	20.679	1312.940	1237.838
816.291	20.782	1311.778	1237.333
817.305	20.925	1310.932	1237.408
818.320	20.929	1310.804	1237.169
819.334	20.961	1309.331	1235.856
820.349	20.980	1307.429	1234.048
821.364	21.072	1305.732	1232.951
822.378	21.043	1304.493	1231.431
823.393	21.088	1303.195	1230.376
824.407	20.953	1302.497	1228.612
825.422	20.785	1302.248	1227.039
826.437	20.802	1300.979	1225.824
827.451	20.669	1297.981	1221.911
828.466	19.976	1296.136	1215.142
829.480	20.009	1294.726	1213.904
830.495	20.071	1293.662	1213.197
831.509	20.388	1294.257	1215.846
832.524	20.514	1293.556	1215.925
833.539	20.811	1292.264	1216.653
834.553	21.027	1290.485	1216.346
835.568	20.907	1289.610	1214.536
836.582	21.015	1288.879	1214.454
837.597	21.104	1287.377	1213.518
838.612	21.042	1285.959	1211.601
839.626	20.966	1284.931	1209.962
840.641	20.717	1283.550	1206.780
841.655	20.600	1281.830	1204.199
842.670	20.233	1280.679	1200.422
843.685	19.913	1279.209	1196.681
844.699	20.406	1278.694	1199.476
845.714	20.640	1277.885	1200.202
846.728	20.746	1278.031	1200.924
847.743	20.926	1277.448	1201.481
848.758	21.008	1275.559	1200.128
849.772	21.060	1274.461	1199.310
850.787	21.083	1272.988	1197.941
851.801	21.028	1271.597	1196.110
852.816	20.944	1270.508	1194.363
853.831	21.060	1268.589	1193.215
854.845	21.040	1266.294	1190.775
855.860	20.762	1265.688	1188.159
856.874	20.661	1264.625	1186.323
857.889	20.563	1262.785	1183.787
858.904	20.036	1261.558	1178.890
859.918	19.986	1259.337	1176.332
860.933	19.834	1258.027	1173.929
861.947	20.037	1258.745	1175.846
862.962	20.366	1257.650	1176.927
863.977	20.378	1256.815	1176.084
864.991	20.545	1256.615	1176.889
866.006	20.558	1256.349	1176.590
867.020	20.799	1255.146	1176.959
868.035	20.714	1253.538	1174.735
869.049	21.116	1252.541	1176.387
870.064	20.951	1252.000	1174.617
871.079	20.917	1251.350	1173.638
872.093	20.993	1250.055	1172.799
873.108	21.161	1248.440	1172.278
874.122	20.813	1247.601	1168.998
875.137	20.558	1246.546	1166.150
876.152	20.430	1244.918	1163.625
877.166	20.594	1243.928	1163.668
878.181	20.703	1243.741	1164.088
879.195	20.895	1242.982	1164.528
880.210	21.008	1242.104	1164.319
881.225	21.020	1241.004	1163.229
882.239	21.067	1240.252	1162.700
883.254	20.987	1239.306	1161.141
884.268	21.141	1238.056	1160.864
885.283	21.309	1236.553	1160.435
886.298	21.020	1234.997	1156.906
887.312	21.084	1234.309	1156.550
888.327	21.287	1233.513	1157.019
889.341	21.029	1232.075	1153.819
890.356	20.878	1232.557	1153.126
891.371	20.830	1231.074	1151.280
892.385	20.955	1229.836	1150.817
893.400	20.793	1229.064	1148.883
894.414	20.745	1227.440	1146.909
895.429	20.578	1225.453	1143.808
896.444	19.919	1223.521	1137.517
897.458	19.634	1221.785	1133.884
898.473	19.992	1222.039	1136.346
899.487	20.377	1221.900	1138.621
900.502	20.674	1220.967	1139.569
901.517	20.852	1220.277	1139.960
902.531	20.811	1219.692	1139.012
903.546	20.920	1219.064	1139.003
904.560	20.985	1218.653	1138.909
905.575	21.018	1217.172	1137.605
906.589	21.119	1216.656	1137.648
907.604	21.173	1215.353	1136.645
