DTS Sentinel unit serial number:	SN409020Multiplexer serial number:	ORYXHardware model number:	OX4-SRSoftware version number:	ORYX F/W v3.00 Oryx Data Collector v3.7.2.0data status	okinstallation	HaddamTimeLapsedifferential loss correction	single-endedforward channel	channel 3reverse channel	N/Adate	2011/06/22time	00:46:17forward acquisition time	30.00reverse acquisition time	0.00gamma	498.7831k internal	0.1752k external	0.1752temperature offset calibration	1.0074default loss term (dB/km)	0.3790temperature slope calibration	1.3530multiplexer offset coefficient	1.0000multiplexer slope coefficient	1.0000fibre end	0.00T internal ref (°C)	22.56T ext. ref 1 (°C)	17.95T ext. ref 2 (°C)	0.06length (m)	temperature (°C)	Stokes	anti-Stokes-747.200	15.393	-0.286	0.298
-746.185	131.149	0.058	0.099
-745.171	745.943	-0.185	-0.665
-744.156	800.000	-0.125	0.722
-743.142	88.295	-0.065	0.096
-742.127	-42.201	-0.382	-0.259
-741.112	-165.011	-0.295	0.017
-740.098	-105.449	0.521	0.156
-739.083	-70.412	-0.465	-0.233
-738.069	116.893	0.226	0.369
-737.054	-200.000	-0.021	-0.441
-736.039	-67.459	-0.141	-0.073
-735.025	-97.889	0.265	0.090
-734.010	37.167	-0.224	0.264
-732.996	-2.748	-0.270	-0.250
-731.981	51.474	-0.127	-0.160
-730.966	-200.000	0.007	0.162
-729.952	-110.192	0.403	0.111
-728.937	-93.226	-0.500	-0.183
-727.923	363.803	-0.123	-0.330
-726.908	-116.109	-0.445	0.109
-725.894	-185.714	-0.428	-0.008
-724.879	241.318	-0.041	0.091
-723.864	-200.000	0.006	0.139
-722.850	794.540	-0.079	-0.290
-721.835	-101.734	0.197	0.063
-720.821	-18.121	0.217	0.180
-719.806	-198.180	-0.235	-0.002
-718.791	6.912	-0.564	-0.557
-717.777	-153.542	0.525	-0.048
-716.762	252.689	0.116	0.263
-715.748	16.455	0.174	0.182
-714.733	-93.068	-0.236	0.087
-713.718	-200.000	-0.002	-0.366
-712.704	-91.237	0.199	0.075
-711.689	-119.950	-0.149	-0.034
-710.675	-58.586	0.319	0.183
-709.660	-70.394	0.260	0.130
-708.645	-19.499	-0.073	-0.060
-707.631	345.550	0.124	0.323
-706.616	-52.120	-0.409	0.251
-705.602	-142.271	-0.097	0.013
-704.587	-111.066	0.333	0.090
-703.572	800.000	-0.038	-0.161
-702.558	-91.211	0.287	0.109
-701.543	-53.517	0.514	0.311
-700.529	369.955	-0.196	0.529
-699.514	53.450	0.232	0.296
-698.499	85.392	-0.294	0.428
-697.485	-26.288	-0.295	0.229
-696.470	800.000	0.054	-0.297
-695.456	-14.118	-0.236	0.202
-694.441	512.944	-0.137	0.426
-693.426	25.683	0.101	-0.112
-692.412	460.548	0.083	0.245
-691.397	-200.000	0.057	-0.615
-690.383	-32.127	0.217	0.161
-689.368	-166.876	-0.571	-0.031
-688.354	11.185	-0.051	-0.051
-687.339	5.318	0.316	0.308
-686.324	211.338	0.161	0.336
-685.310	148.484	-0.115	0.207
-684.295	95.983	0.228	0.345
-683.281	-176.357	-0.230	0.008
-682.266	545.214	0.269	-0.855
-681.251	113.852	-0.293	-0.472
-680.237	-191.156	-0.315	-0.004
-679.222	-36.421	-0.055	-0.039
-678.208	41.415	-0.376	-0.451
-677.193	-144.476	0.235	-0.028
-676.178	-23.847	-0.278	-0.220
-675.164	-141.801	-0.216	0.028
-674.149	588.045	0.098	-0.321
-673.135	1.201	-0.261	-0.248
-672.120	136.197	-0.021	-0.036
-671.105	-90.532	-0.418	0.159
-670.091	223.940	-0.081	-0.174
-669.076	105.781	0.244	-0.382
-668.062	71.211	-0.408	-0.561
-667.047	-200.000	0.118	-0.001
-666.032	-200.000	-0.039	-0.282
-665.018	238.584	-0.153	0.337
-664.003	-160.601	-0.162	-0.011
-662.989	-165.177	-0.374	-0.022
-661.974	-200.000	-0.409	0.001
-660.959	-96.726	-0.670	0.232
-659.945	-21.955	0.181	0.145
-658.930	-71.475	-0.126	0.062
-657.916	344.758	0.057	-0.148
-656.901	-200.000	-0.016	-0.275
-655.886	-200.000	-0.015	-0.478
-654.872	-48.049	-0.290	-0.185
-653.857	-97.422	-0.261	-0.089
-652.843	18.675	-0.517	-0.548
-651.828	91.973	-0.143	-0.213
-650.814	-18.535	0.287	-0.236
-649.799	-200.000	-0.002	-0.145
-648.784	241.160	0.228	0.507
-647.770	-200.000	-0.009	-0.223
-646.755	15.668	0.082	-0.085
-645.741	-74.221	-0.340	0.162
-644.726	-107.088	0.346	-0.100
-643.711	800.000	-0.048	0.197
-642.697	800.000	0.088	-0.495
-641.682	191.558	0.063	0.127
-640.668	274.427	0.035	-0.083
-639.653	-62.711	-0.174	-0.095
-638.638	66.998	0.071	0.096
-637.624	800.000	0.071	-0.331
-636.609	6.452	-0.069	0.067
-635.595	210.419	0.088	-0.183
-634.580	-148.475	0.177	-0.019
-633.565	67.349	0.103	0.139
-632.551	36.650	-0.165	-0.192
-631.536	-91.339	-0.128	-0.048
-630.522	-146.415	-0.329	-0.038
-629.507	-77.097	-0.169	-0.078
-628.492	800.000	-0.095	0.499
-627.478	800.000	0.036	-0.176
-626.463	237.114	0.130	-0.286
-625.449	154.182	0.064	-0.116
-624.434	-142.300	-0.119	0.015
-623.419	-84.323	0.232	0.096
-622.405	595.764	0.116	0.383
-621.390	361.579	0.246	-0.656
-620.376	-166.238	-0.537	0.030
-619.361	-58.101	0.575	-0.330
-618.346	111.564	-0.148	-0.237
-617.332	8.790	-0.258	-0.257
-616.317	-137.869	-0.495	-0.072
-615.303	438.554	-0.064	0.186
-614.288	295.860	-0.046	-0.111
-613.273	-2.977	-0.288	0.265
-612.259	800.000	-0.126	-0.522
-611.244	-83.311	0.479	-0.202
-610.230	582.927	0.145	0.472
-609.215	64.567	-0.109	0.146
-608.201	549.804	-0.108	-0.345
-607.186	-20.607	-0.153	0.124
-606.171	-200.000	-0.051	-0.952
-605.157	-200.000	0.013	-0.162
-604.142	-28.335	-0.250	0.190
-603.128	64.227	-0.235	-0.312
-602.113	-200.000	-0.002	-0.052
-601.098	800.000	0.043	-0.160
-600.084	208.926	0.198	0.412
-599.069	-19.715	-0.111	-0.091
-598.055	800.000	-0.098	0.472
-597.040	147.762	0.251	0.449
-596.025	800.000	-0.058	0.293
-595.011	-103.076	-0.571	0.177
-593.996	-140.383	-0.455	-0.062
-592.982	-77.963	0.239	-0.108
-591.967	103.897	-0.220	-0.341
-590.952	800.000	-0.059	-0.244
-589.938	6.297	-0.345	-0.337
-588.923	135.082	-0.115	0.198
-587.909	114.757	-0.185	0.298
-586.894	546.951	0.120	0.382
-585.879	-7.498	-0.266	-0.237
-584.865	203.365	0.109	-0.223
-583.850	455.490	0.117	-0.344
-582.836	58.768	-0.289	0.375
-581.821	-162.190	-0.137	0.009
-580.806	-147.954	0.133	0.014
-579.792	61.004	0.226	-0.296
-578.777	118.179	-0.166	-0.270
-577.763	-200.000	0.200	-0.000
-576.748	-200.000	0.029	0.211
-575.733	-200.000	-0.002	0.106
-574.719	-14.235	-0.157	-0.134
-573.704	292.784	0.109	-0.262
-572.690	-127.602	0.474	-0.090
-571.675	-51.012	0.450	0.278
-570.661	71.287	0.152	0.208
-569.646	10.418	0.154	-0.154
-568.631	3.571	-0.194	-0.187
-567.617	392.515	0.065	0.180
-566.602	-33.927	-0.297	-0.215
-565.588	179.100	-0.037	-0.072
-564.573	39.297	0.288	0.340
-563.558	134.361	0.124	0.212
-562.544	189.536	0.120	-0.238
-561.529	-25.365	0.132	0.103
-560.515	168.370	0.067	0.126
-559.500	-81.562	0.347	0.150
-558.485	154.217	0.132	0.240
-557.471	109.991	-0.215	0.341
-556.456	-200.000	-0.010	0.257
-555.442	-161.086	0.307	-0.021
-554.427	-200.000	-0.034	0.323
-553.412	-175.037	-0.542	-0.020
-552.398	125.260	0.049	-0.082
-551.383	-137.417	-0.310	-0.046
-550.369	172.937	0.142	0.270
-549.354	22.065	0.285	0.306
-548.339	800.000	-0.151	-0.616
-547.325	169.108	-0.180	-0.338
-546.310	17.239	-0.211	-0.221
-545.296	-200.000	-0.049	-0.429
-544.281	-200.000	-0.067	-0.424
-543.266	-82.085	-0.343	-0.147
-542.252	-200.000	-0.017	-0.118
-541.237	326.605	0.175	-0.444
-540.223	24.917	-0.309	-0.337
-539.208	-150.878	-0.605	-0.060
-538.193	87.097	-0.154	0.224
-537.179	-100.479	0.525	0.170
-536.164	-200.000	0.018	0.447
-535.150	-83.194	-0.342	0.144
-534.135	-11.311	0.335	-0.290
-533.121	-34.628	-0.255	-0.183
-532.106	-200.000	0.003	-0.218
-531.091	-128.794	0.189	0.035
-530.077	-59.887	-0.206	0.116
-529.062	-174.631	-0.308	-0.011
-528.048	-147.070	-0.094	0.010
-527.033	-72.515	-0.277	0.134
-526.018	-200.000	0.024	-0.301
-525.004	-98.681	0.292	0.098
-523.989	-177.490	-0.622	0.020
-522.975	-200.000	-0.264	0.001
-521.960	-33.011	-0.139	0.101
-520.945	12.768	-0.312	0.317
-519.931	-137.786	0.291	0.043
-518.916	-109.100	-0.480	0.133
-517.902	-1.288	-0.458	0.425
-516.887	29.796	-0.237	0.266
-515.872	-144.466	0.252	-0.030
-514.858	-12.946	0.233	0.200
-513.843	-126.121	0.219	0.043
-512.829	-200.000	0.020	0.598
-511.814	36.237	-0.065	-0.075
-510.799	-25.144	0.385	-0.300
-509.785	-1.028	-0.092	-0.085
-508.770	-145.424	-0.522	0.061
-507.756	-105.195	0.213	-0.064
-506.741	3.347	0.141	-0.135
-505.726	84.603	-0.126	-0.181
-504.712	-110.974	0.606	0.163
-503.697	-200.000	-0.044	0.347
-502.683	288.722	0.097	-0.232
-501.668	-175.002	-0.089	-0.003
-500.653	-103.948	-0.192	-0.059
-499.639	35.858	-0.163	0.189
-498.624	26.317	0.083	0.091
-497.610	-200.000	0.015	-0.408
-496.595	-69.019	-0.114	-0.058
-495.581	66.548	0.231	0.310
-494.566	-137.158	0.256	-0.038
-493.551	800.000	-0.026	0.118
-492.537	-89.937	0.284	0.109
-491.522	800.000	0.063	0.263
-490.508	17.639	0.026	0.027
-489.493	-37.947	0.121	-0.084
-488.478	-35.067	0.225	-0.161
-487.464	-75.875	0.329	-0.152
-486.449	138.577	-0.304	-0.527
-485.435	150.045	0.130	0.232
-484.420	17.847	0.390	0.408
-483.405	515.089	0.139	0.428
-482.391	118.762	0.246	0.401
-481.376	800.000	0.149	0.666
-480.362	85.089	0.074	0.107
-479.347	-200.000	-0.039	-0.266
-478.332	-127.588	-0.231	0.044
-477.318	-117.572	-0.395	0.093
-476.303	-55.722	-0.281	0.165
-475.289	513.544	-0.037	-0.114
-474.274	130.008	0.099	-0.167
-473.259	800.000	0.090	-0.457
-472.245	179.854	-0.095	-0.183
-471.230	-200.000	-0.050	0.319
-470.216	158.609	0.249	0.456
-469.201	-200.000	0.013	0.269
-468.186	87.751	0.111	0.162
-467.172	401.523	0.147	0.407
-466.157	60.612	0.032	0.042
-465.143	-106.348	0.315	-0.092
-464.128	800.000	0.049	-0.190
-463.113	-179.116	-0.493	0.014
-462.099	6.734	0.142	0.138
-461.084	328.764	-0.028	0.070
-460.070	47.039	0.380	-0.465
-459.055	-35.290	0.374	-0.267
-458.040	-23.449	0.187	0.147
-457.026	-100.523	-0.553	-0.178
-456.011	-39.751	-0.184	-0.126
-454.997	-200.000	0.100	0.680
-453.982	28.081	0.319	0.353
-452.968	-88.687	0.301	0.117
-451.953	-50.552	-0.408	-0.252
-450.938	-35.536	-0.217	0.154
-449.924	93.522	0.225	0.334
-448.909	-93.619	0.216	-0.078
-447.895	-114.652	0.211	0.053
-446.880	45.423	-0.123	-0.149
-445.865	592.968	0.143	-0.467
-444.851	-16.364	-0.152	-0.127
-443.836	95.532	0.255	0.382
-442.822	800.000	-0.092	-0.447
-441.807	-200.000	0.023	0.216
-440.792	-93.267	0.418	-0.151
-439.778	-95.838	-0.143	-0.050
-438.763	800.000	0.109	0.422
-437.749	-37.283	-0.118	0.082
-436.734	110.937	-0.146	0.231
-435.719	-89.642	-0.310	0.119
-434.705	-117.531	0.293	0.069
-433.690	488.965	-0.058	0.176
-432.676	-200.000	0.050	-0.482
-431.661	99.699	-0.084	0.128
-430.646	62.910	0.127	-0.167
-429.632	-200.000	0.003	-0.166
-428.617	-200.000	0.031	-0.521
-427.603	40.705	0.184	-0.218
-426.588	-156.105	0.245	0.020
-425.573	41.284	0.234	0.278
-424.559	-107.033	0.537	0.155
-423.544	26.033	-0.239	0.261
-422.530	-21.721	-0.438	-0.349
-421.515	-200.000	0.005	-0.545
-420.500	-47.418	-0.312	0.199
-419.486	590.302	-0.080	0.259
-418.471	10.241	0.215	0.215
-417.457	517.010	-0.111	-0.342
-416.442	-85.318	0.416	0.170
-415.428	641.117	-0.136	-0.455
-414.413	-200.000	0.007	-0.109
-413.398	-115.544	-0.266	-0.065
-412.384	-143.976	-0.371	0.045
-411.369	-99.568	-0.503	0.165
-410.355	-136.124	0.132	-0.020
-409.340	-34.237	0.184	0.132
-408.325	26.001	-0.176	0.193
-407.311	-135.642	-0.130	-0.020
-406.296	-134.747	0.125	-0.020
-405.282	124.740	-0.143	0.236
-404.267	-111.684	-0.198	0.052
-403.252	-21.428	0.459	0.367
-402.238	-79.280	-0.201	0.089
-401.223	711.646	0.107	0.374
-400.209	-100.138	-0.316	0.102
-399.194	115.318	-0.126	0.203
-398.179	27.675	0.160	0.176
-397.165	274.909	-0.147	0.343
-396.150	-6.164	-0.279	-0.250
-395.136	-23.594	-0.386	0.303
-394.121	-173.017	-0.442	-0.018
-393.106	194.022	-0.133	-0.265
-392.092	-200.000	0.028	0.487
-391.077	800.000	0.055	0.264
-390.063	679.559	-0.100	0.344
-389.048	-33.538	0.206	0.149
-388.033	-125.746	-0.110	0.022
-387.019	-4.921	-0.288	0.260
-386.004	-166.326	-0.387	0.021
-384.990	-71.469	0.414	-0.202
-383.975	22.090	-0.231	-0.247
-382.960	-101.558	-0.139	0.044
-381.946	800.000	0.103	-0.436
-380.931	800.000	-0.095	-0.347
-379.917	3.911	0.169	-0.161
-378.902	334.961	0.133	0.338
-377.888	74.537	0.331	-0.457
-376.873	-200.000	0.018	0.326
-375.858	800.000	-0.136	0.583
-374.844	311.879	-0.087	0.214
-373.829	54.202	0.070	-0.088
-372.815	82.765	0.157	-0.223
-371.800	320.819	-0.042	-0.104
-370.785	-88.953	-0.474	0.183
-369.771	-200.000	-0.030	-0.396
-368.756	-200.000	0.032	-0.321
-367.742	-154.139	-0.110	-0.010
-366.727	800.000	0.105	0.439
-365.712	800.000	-0.090	0.387
-364.698	57.109	-0.411	-0.525
-363.683	-200.000	0.024	0.254
-362.669	800.000	-0.024	0.129
-361.654	57.317	0.135	0.173
-360.639	800.000	-0.057	0.291
-359.625	89.552	0.447	-0.654
-358.610	-200.000	0.018	-0.466
-357.596	-19.534	-0.288	0.233
-356.581	-62.911	-0.404	-0.218
-355.566	35.210	-0.074	0.085
-354.552	-200.000	-0.002	0.049
-353.537	-119.788	0.332	0.074
-352.523	-114.340	0.355	0.089
-351.508	-93.026	-0.289	-0.105
-350.493	800.000	-0.035	-0.168
-349.479	-84.676	-0.379	0.155
-348.464	800.000	0.069	-0.327
-347.450	-72.990	0.118	-0.057
-346.435	-27.838	0.201	0.152
-345.420	151.748	0.110	0.196
-344.406	247.388	-0.195	0.431
-343.391	36.175	0.363	0.418
-342.377	-133.853	0.401	0.065
-341.362	-200.000	-0.034	-0.325
-340.348	800.000	-0.014	0.058
-339.333	61.619	-0.251	0.327
-338.318	-200.000	0.063	-0.381
-337.304	-162.790	0.420	0.026
-336.289	307.149	0.097	-0.236
-335.275	-200.000	0.022	0.163
-334.260	-43.546	0.212	-0.139
-333.245	57.330	-0.090	0.115
-332.231	-200.000	-0.004	0.087
-331.216	-131.791	-0.263	-0.045
-330.202	-68.225	0.433	-0.219
-329.187	-4.474	-0.412	-0.372
-328.172	316.796	0.115	-0.286
-327.158	110.577	0.190	-0.300
-326.143	622.314	-0.133	-0.441
-325.129	-53.416	0.305	0.182
-324.114	-61.058	-0.174	0.095
-323.099	-40.591	-0.341	-0.230
-322.085	97.710	-0.219	0.329
-321.070	299.621	-0.085	-0.205
-320.056	-200.000	0.079	0.682
-319.041	-78.296	-0.463	0.206
-318.026	-106.208	0.555	-0.161
-317.012	-88.113	0.229	-0.089
-315.997	-73.160	0.452	0.216
-314.983	-200.000	-0.017	0.148
-313.968	498.448	0.058	-0.176
-312.953	-57.853	-0.447	-0.255
-311.939	4.983	0.277	0.266
-310.924	-25.203	0.266	0.205
-309.910	-200.000	0.028	0.236
-308.895	60.463	-0.475	0.614
-307.880	152.893	-0.088	0.157
-306.866	592.931	0.091	-0.296
-305.851	-130.384	0.073	0.013
-304.837	131.290	0.247	-0.416
-303.822	2.812	-0.166	-0.157
-302.807	-115.164	-0.547	0.134
-301.793	-200.000	0.354	0.001
-300.778	85.564	-0.087	0.125
-299.764	-200.000	-0.004	-0.064
-298.749	-53.839	0.376	-0.223
-297.735	-200.000	-0.049	0.403
-296.720	-31.824	0.167	0.122
-295.705	169.634	-0.110	0.206
-294.691	26.588	0.222	-0.243
-293.676	74.380	-0.217	-0.298
-292.662	-82.978	-0.880	-0.368
-291.647	-120.894	-0.253	0.055
-290.632	7.746	-0.372	0.363
-289.618	-132.551	-0.065	0.011
-288.603	100.366	-0.272	-0.413
-287.589	-31.303	-0.331	0.243
-286.574	166.987	0.163	0.303
-285.559	102.828	-0.255	0.390
-284.545	-122.561	0.396	-0.083
-283.530	195.734	-0.179	0.356
-282.516	-170.759	-0.289	-0.013
-281.501	-120.590	0.278	-0.061
-280.486	-1.592	0.068	-0.063
-279.472	-21.741	0.296	-0.234
-278.457	-190.018	0.524	0.007
-277.443	-200.000	0.053	-0.349
-276.428	112.789	0.257	0.407
-275.413	-26.973	0.316	-0.240
-274.399	86.046	0.320	-0.460
-273.384	-151.422	0.487	-0.047
-272.370	-76.965	0.302	-0.137
-271.355	-90.781	0.376	0.141
-270.340	-66.504	-0.014	-0.007
-269.326	-147.647	0.355	0.038
-268.311	800.000	0.041	-0.185
-267.297	800.000	-0.038	0.174
-266.282	-109.176	0.352	0.097
-265.267	-176.346	-0.164	0.005
-264.253	-200.000	-0.001	-0.023
-263.238	800.000	-0.065	0.297
-262.224	-16.966	-0.098	-0.080
-261.209	-200.000	-0.012	0.132
-260.195	-122.434	-0.217	-0.046
-259.180	10.760	-0.243	-0.241
-258.165	464.590	-0.097	0.284
-257.151	109.953	0.239	-0.374
-256.136	800.000	0.046	0.189
-255.122	-8.372	0.101	-0.088
-254.107	-61.491	0.074	-0.040
-253.092	-166.270	-0.191	-0.010
-252.078	-82.894	-0.115	0.048
-251.063	240.853	-0.098	0.213
-250.049	-52.983	0.339	-0.202
-249.034	214.153	0.100	-0.207
-248.019	-80.553	-0.067	0.029
-247.005	418.508	0.046	0.129
-245.990	-95.417	0.201	0.070
-244.976	-60.183	0.300	0.166
-243.961	13.572	0.360	-0.364
-242.946	-124.272	-0.412	-0.083
-241.932	-161.426	-0.486	-0.032
-240.917	-39.835	-0.202	-0.137
-239.903	89.113	0.404	0.587
-238.888	-200.000	0.075	-0.457
-237.873	-85.199	0.286	0.116
-236.859	-151.170	0.116	-0.011
-235.844	110.631	0.166	0.261
-234.830	33.163	0.281	0.317
-233.815	-65.956	0.535	0.277
-232.800	-135.748	-0.218	0.033
-231.786	-200.000	0.050	-0.567
-230.771	-41.309	0.279	0.187
-229.757	-12.048	-0.253	0.215
-228.742	-200.000	-0.027	-0.222
-227.727	258.626	0.097	0.217
-226.713	302.743	0.093	0.224
-225.698	536.404	0.075	0.231
-224.684	800.000	0.124	-0.497
-223.669	-43.697	0.521	-0.341
-222.655	800.000	-0.023	0.092
-221.640	228.782	-0.093	0.198
-220.625	-86.640	0.330	0.131
-219.611	-138.829	-0.476	0.067
-218.596	86.011	-0.256	-0.367
-217.582	13.717	-0.430	-0.435
-216.567	-45.073	0.258	-0.166
-215.552	29.088	-0.459	0.507
-214.538	63.142	-0.117	0.153
-213.523	-200.000	-0.005	-0.253
-212.509	14.429	0.302	-0.306
-211.494	32.320	-0.110	0.123
-210.479	-46.616	0.310	0.197
-209.465	800.000	-0.063	0.340
-208.450	-200.000	-0.002	-0.233
-207.436	-48.348	0.287	-0.179
-206.421	-107.443	-0.212	0.060
-205.406	117.302	-0.043	0.069
-204.392	55.189	-0.120	-0.151
-203.377	73.420	-0.060	-0.082
-202.363	-85.851	0.125	-0.050
-201.348	-200.000	0.035	-0.322
-200.333	338.232	-0.216	-0.549
-199.319	90.839	-0.260	-0.379
-198.304	-99.041	-0.284	-0.093
-197.290	-200.000	-0.075	0.882
-196.275	372.998	-0.123	0.326
-195.260	125.522	-0.071	-0.117
-194.246	-104.901	0.308	0.091
-193.231	-78.041	0.318	-0.142
-192.217	-23.634	-0.392	0.305
-191.202	-62.211	-0.155	-0.083
-190.187	-27.283	0.506	-0.382
-189.173	307.561	0.085	-0.207
-188.158	14.408	0.032	-0.033
-187.144	14.964	-0.217	-0.220
-186.129	-52.717	-0.289	-0.173
-185.114	67.582	-0.100	-0.133
-184.100	-125.751	0.450	0.088
-183.085	-38.428	0.354	-0.243
-182.071	118.134	-0.135	-0.217
-181.056	102.960	0.285	-0.434
-180.042	-113.387	0.207	-0.052
-179.027	68.243	-0.092	0.123
-178.012	239.208	0.120	-0.260
-176.998	-198.526	0.357	-0.003
-175.983	-129.043	-0.174	-0.031
-174.969	-82.366	0.145	0.061
-173.954	-85.096	-0.437	-0.177
-172.939	86.256	0.208	-0.298
-171.925	-4.092	0.455	-0.409
-170.910	77.679	-0.261	0.362
-169.896	-66.870	-0.208	0.107
-168.881	-157.976	0.295	0.022
-167.866	-92.788	-0.281	0.102
-166.852	-51.234	0.284	-0.172
-165.837	-182.220	0.548	0.013
-164.823	-193.496	0.247	0.003
-163.808	-62.743	-0.479	0.257
-162.793	-151.396	-0.351	0.034
-161.779	-200.000	-0.003	-0.099
-160.764	-99.531	-0.163	-0.053
-159.750	-200.000	-0.011	0.104
-158.735	800.000	0.187	0.724
-157.720	-37.195	0.059	-0.041
-156.706	-200.000	0.004	0.172
-155.691	-8.435	-0.134	0.117
-154.677	-35.491	-0.200	-0.140
-153.662	311.704	-0.236	-0.576
-152.647	-200.000	-0.012	-0.180
-151.633	800.000	-0.088	-0.358
-150.618	-137.833	-0.276	-0.040
-149.604	-129.105	0.113	-0.020
-148.589	-42.701	-0.360	0.237
-147.574	-47.111	0.299	-0.189
-146.560	-200.000	0.015	0.227
-145.545	-200.000	0.002	0.425
-144.531	-170.988	-0.321	-0.014
-143.516	-37.629	-0.467	0.322
-142.502	-45.149	0.508	-0.326
-141.487	-115.080	0.491	-0.120
-140.472	-45.443	0.422	0.271
-139.458	-72.680	0.347	0.165
-138.443	-122.035	0.289	0.061
-137.429	163.661	0.160	0.294
-136.414	-161.723	0.519	-0.034
-135.399	-141.561	0.317	-0.041
-134.385	-170.815	0.536	-0.023
-133.370	-66.864	-0.519	-0.265
-132.356	1.561	0.168	-0.157
-131.341	-158.485	-0.308	0.023
-130.326	-200.000	-0.009	-0.312
-129.312	290.327	-0.152	-0.361
-128.297	23.650	0.262	-0.280
-127.283	58.130	-0.290	0.369
-126.268	-151.129	-0.440	-0.042
-125.253	118.290	-0.124	-0.198
-124.239	124.355	-0.087	0.143
-123.224	-182.830	0.397	0.009
-122.210	-66.220	-0.189	-0.097
-121.195	-82.367	0.397	-0.166
-120.180	-25.274	0.238	-0.182
-119.166	108.027	-0.284	-0.440
-118.151	7.069	0.183	0.177
-117.137	142.140	-0.061	-0.104
-116.122	56.692	-0.239	-0.301
-115.107	1.128	0.225	0.209
-114.093	37.536	-0.273	-0.314
-113.078	800.000	0.110	-0.430
-112.064	80.357	-0.163	-0.228
-111.049	-200.000	0.067	0.395
-110.034	-200.000	0.076	-0.539
-109.020	6.782	-0.130	0.125
-108.005	-40.218	-0.335	0.225
-106.991	266.378	0.066	-0.150
-105.976	-61.757	0.155	-0.084
-104.962	20.763	-0.223	-0.234
-103.947	-9.033	0.306	-0.265
-102.932	-165.317	0.274	0.015
-101.918	34.934	0.140	0.159
-100.903	73.293	-0.206	-0.279
-99.889	-81.486	-0.251	0.106
-98.874	9.147	0.518	0.507
-97.859	-12.271	0.124	0.105
-96.845	-156.234	-0.424	-0.034
-95.830	34.247	-0.353	0.398
-94.816	-37.454	0.252	-0.173
-93.801	-200.000	0.049	0.310
-92.786	800.000	0.096	-0.435
-91.772	800.000	0.029	-0.159
-90.757	42.507	0.087	-0.103
-89.743	-200.000	-0.081	0.503
-88.728	371.527	0.129	0.341
-87.713	167.960	0.050	0.092
-86.699	49.086	-0.065	-0.080
-85.684	-200.000	0.013	-0.295
-84.670	232.333	0.052	0.111
-83.655	-200.000	-0.029	0.200
-82.640	-159.105	-0.392	-0.028
-81.626	-200.000	0.007	-0.355
-80.611	-200.000	-0.012	-0.117
-79.597	-102.838	0.362	-0.111
-78.582	-200.000	0.052	-0.514
-77.567	139.376	-0.090	-0.154
-76.553	46.957	0.153	-0.185
-75.538	-200.000	0.061	0.433
-74.524	70.642	0.172	-0.231
-73.509	-113.726	0.495	0.124
-72.494	-200.000	0.046	0.293
-71.480	-114.847	-0.313	0.076
-70.465	-74.288	-0.274	-0.128
-69.451	-200.000	0.024	0.301
-68.436	18.329	-0.372	0.384
-67.422	800.000	0.065	0.350
-66.407	-25.388	-0.270	-0.206
-65.392	-47.497	0.049	-0.030
-64.378	220.510	0.064	-0.134
-63.363	-200.000	-0.024	0.171
-62.349	-117.512	-0.516	-0.120
-61.334	17.152	-2.404	-2.464
-60.319	43.164	1.359	1.604
-59.305	298.059	-3.235	-7.720
-58.290	58.917	3.899	4.960
-57.276	486.691	3.368	9.980
-56.261	-200.000	24.308	321.990
-55.246	351.757	1307.134	3361.400
-54.232	52.508	2847.478	3516.505
-53.217	51.080	2661.693	3264.841
-52.203	31.469	2391.784	2657.033
-51.188	27.665	2057.436	2238.683
-50.173	24.418	1944.512	2077.788
-49.159	23.453	1932.074	2053.191
-48.144	22.879	1927.962	2042.074
-47.130	22.786	1925.367	2038.164
-46.115	22.837	1923.045	2036.217
-45.100	22.831	1922.109	2035.076
-44.086	22.696	1922.024	2033.341
-43.071	22.845	1918.380	2031.129
-42.057	22.639	1918.396	2028.675
-41.042	22.758	1916.270	2027.721
-40.027	22.741	1914.711	2025.795
-39.013	22.681	1913.608	2023.862
-37.998	22.874	1911.981	2024.285
-36.984	22.727	1911.004	2021.478
-35.969	22.669	1910.292	2019.977
-34.954	22.650	1908.459	2017.742
-33.940	22.702	1906.614	2016.309
-32.925	22.545	1905.811	2013.567
-31.911	22.699	1904.802	2014.189
-30.896	22.687	1903.299	2012.390
-29.881	22.500	1902.137	2008.928
-28.867	22.612	1900.406	2008.303
-27.852	22.618	1899.095	2006.909
-26.838	22.715	1896.271	2004.957
-25.823	22.587	1896.313	2003.456
-24.809	22.532	1895.150	2001.524
-23.794	22.623	1893.429	2000.664
-22.779	22.499	1891.989	1997.644
-21.765	22.626	1890.873	1997.842
-20.750	22.527	1890.401	1996.129
-19.736	22.448	1889.324	1994.018
-18.721	22.418	1888.291	1992.505
-17.706	22.541	1886.511	1991.944
-16.692	22.603	1885.067	1991.043
-15.677	22.545	1883.900	1989.078
-14.663	22.571	1882.137	1987.428
-13.648	22.493	1881.628	1985.926
-12.633	22.476	1880.542	1984.514
-11.619	22.533	1878.335	1982.747
-10.604	22.487	1877.957	1981.751
-9.590	22.484	1876.490	1980.087
-8.575	22.509	1874.502	1978.195
-7.560	22.403	1873.539	1975.904
-6.546	22.322	1873.123	1974.480
-5.531	22.423	1871.635	1973.972
-4.517	22.390	1870.903	1972.742
-3.502	22.424	1869.371	1971.431
-2.487	22.423	1868.901	1970.855
-1.473	22.538	1865.086	1968.034
-0.458	22.330	1846.715	1946.267
0.556	18.885	1994.107	2048.124
1.571	17.510	2198.015	2239.127
2.586	18.336	2236.961	2289.626
3.600	18.311	2238.994	2291.098
4.615	18.261	2238.154	2289.297
5.629	18.399	2236.527	2289.202
6.644	18.327	2233.902	2285.283
7.659	18.282	2233.038	2283.514
8.673	18.231	2231.095	2280.579
9.688	18.125	2238.784	2286.740
10.702	17.185	2320.492	2356.805
11.717	15.596	2384.907	2399.155
12.731	7.291	2366.273	2261.425
13.746	0.917	2349.402	2154.067
14.761	0.167	2346.118	2140.088
15.775	0.041	2344.241	2136.314
16.790	0.081	2342.186	2134.751
17.804	0.015	2341.963	2133.361
18.819	0.090	2340.101	2132.475
19.834	0.075	2338.128	2130.211
20.848	-0.014	2336.824	2127.504
21.863	0.042	2334.866	2126.249
22.877	-0.064	2333.348	2123.108
23.892	0.006	2331.128	2121.835
24.907	0.039	2327.880	2119.086
25.921	-0.004	2326.345	2116.827
26.936	0.064	2323.953	2115.355
27.950	-0.072	2323.012	2112.334
28.965	0.051	2319.519	2110.643
29.980	0.084	2317.604	2109.110
30.994	0.141	2315.937	2108.133
32.009	3.866	2327.490	2171.040
33.023	12.723	2354.552	2321.996
34.038	16.492	2360.090	2380.618
35.053	16.597	2356.855	2378.564
36.067	16.589	2353.585	2374.870
37.082	16.529	2350.062	2370.175
38.096	16.617	2349.668	2370.744
39.111	16.765	2347.659	2370.507
40.126	16.932	2346.013	2370.907
41.140	17.076	2344.552	2371.170
42.155	17.207	2342.367	2370.520
43.169	17.030	2340.458	2365.825
44.184	16.724	2338.729	2359.507
45.199	16.768	2335.205	2356.283
46.213	16.872	2334.825	2357.065
47.228	16.971	2334.152	2357.485
48.242	16.923	2333.416	2355.801
49.257	17.106	2330.452	2355.075
50.271	17.227	2326.863	2352.845
51.286	16.907	2324.997	2346.227
52.301	16.768	2322.672	2341.670
53.315	17.618	2324.938	2355.489
54.330	20.346	2333.581	2401.954
55.344	22.108	2334.530	2427.145
56.359	22.280	2331.464	2426.043
57.374	22.446	2331.381	2427.964
58.388	22.582	2328.303	2426.359
59.403	22.344	2324.161	2418.460
60.417	21.981	2321.296	2410.183
61.432	22.099	2319.405	2409.560
62.447	22.394	2317.878	2411.743
63.461	22.497	2316.618	2411.560
64.476	22.607	2314.463	2410.543
65.490	22.282	2312.230	2403.469
66.505	21.389	2308.992	2387.558
67.520	19.356	2299.617	2349.756
68.534	17.278	2292.117	2313.427
69.549	16.682	2287.265	2300.104
70.563	16.620	2284.385	2296.093
71.578	16.546	2283.286	2293.702
72.593	16.773	2281.274	2294.502
73.607	16.801	2280.604	2293.928
74.622	16.792	2277.782	2290.700
75.636	16.641	2275.182	2285.757
76.651	16.613	2272.361	2282.265
77.666	16.660	2271.099	2281.367
78.680	16.653	2268.089	2277.979
79.695	16.424	2266.345	2272.853
80.709	16.425	2264.706	2270.953
81.724	16.322	2263.379	2267.957
82.739	16.411	2260.447	2265.950
83.753	16.356	2258.914	2263.406
84.768	16.371	2257.196	2261.609
85.782	16.457	2255.442	2260.740
86.797	16.358	2253.949	2257.646
87.812	16.550	2251.592	2257.593
88.826	16.717	2250.648	2258.611
89.841	16.886	2247.439	2257.385
90.855	16.732	2245.153	2252.753
91.870	16.685	2245.087	2251.797
92.884	16.771	2242.887	2250.463
93.899	16.771	2242.019	2249.324
94.914	17.497	2244.561	2261.306
95.928	19.788	2251.852	2299.030
96.943	20.664	2249.590	2308.124
97.957	18.329	2238.766	2265.723
98.972	16.862	2233.635	2240.777
99.987	16.786	2231.160	2237.024
101.001	16.751	2228.299	2233.425
102.016	16.754	2225.196	2230.080
103.030	16.668	2223.292	2226.774
104.045	16.607	2221.030	2223.440
105.060	16.610	2218.611	2220.782
106.074	16.629	2216.293	2218.445
107.089	16.636	2215.376	2217.359
108.103	16.525	2214.695	2214.948
109.118	16.538	2213.898	2214.062
110.133	16.712	2211.570	2213.749
111.147	16.452	2208.663	2207.170
112.162	16.428	2206.844	2204.773
113.176	16.654	2205.224	2205.848
114.191	16.702	2204.289	2205.279
115.206	16.693	2202.026	2202.629
116.220	16.619	2200.335	2199.710
117.235	16.662	2198.212	2197.881
118.249	16.642	2196.730	2195.879
119.264	16.582	2195.843	2193.946
120.279	16.535	2193.790	2191.015
121.293	16.480	2192.209	2188.463
122.308	16.583	2190.439	2187.779
123.322	16.393	2189.576	2184.177
124.337	16.945	2190.345	2191.864
125.352	19.845	2197.324	2236.316
126.366	20.520	2195.184	2242.624
127.381	17.804	2184.807	2196.660
128.395	16.629	2180.199	2176.577
129.410	16.563	2176.528	2171.793
130.424	16.457	2175.201	2168.848
131.439	16.580	2174.719	2169.693
132.454	16.681	2172.921	2168.940
133.468	16.818	2170.750	2168.280
134.483	16.906	2169.953	2168.353
135.497	16.916	2167.697	2165.972
136.512	16.802	2165.480	2162.030
137.527	16.719	2163.708	2158.933
138.541	16.475	2162.337	2154.184
139.556	16.442	2161.647	2152.818
140.570	16.458	2159.733	2150.858
141.585	16.486	2157.991	2149.223
142.600	16.435	2157.313	2147.640
143.614	16.539	2155.230	2146.643
144.629	16.378	2153.197	2142.309
145.643	16.479	2151.768	2141.907
146.658	16.613	2149.635	2141.240
147.673	16.511	2148.186	2138.238
148.687	16.582	2146.413	2137.119
149.702	16.725	2145.769	2138.036
150.716	16.655	2144.641	2135.774
151.731	16.740	2143.292	2135.253
152.746	16.731	2142.925	2134.509
153.760	17.396	2146.034	2145.783
154.775	20.001	2152.710	2185.289
155.789	20.903	2150.076	2193.775
156.804	18.556	2139.652	2153.289
157.819	16.926	2133.463	2126.277
158.833	16.822	2129.316	2120.573
159.848	16.675	2127.667	2116.842
160.862	16.652	2126.498	2115.135
161.877	16.722	2125.527	2114.792
162.892	16.800	2124.973	2114.964
163.906	16.849	2123.704	2114.065
164.921	16.814	2121.577	2111.258
165.935	16.828	2118.784	2108.396
166.950	16.776	2118.198	2106.913
167.964	16.809	2116.030	2104.914
168.979	16.737	2113.285	2101.030
169.994	16.503	2111.966	2096.559
171.008	16.401	2109.869	2092.956
172.023	16.490	2108.444	2092.401
173.037	16.404	2108.101	2090.737
174.052	16.500	2107.134	2090.723
175.067	16.607	2105.212	2089.889
176.081	16.560	2102.479	2086.347
177.096	16.525	2102.354	2085.541
178.110	16.676	2100.218	2085.038
179.125	16.718	2099.289	2084.389
180.140	16.641	2097.687	2081.596
181.154	16.642	2096.301	2079.978
182.169	16.736	2095.960	2080.554
183.183	17.591	2098.639	2093.530
184.198	20.602	2104.740	2136.609
185.213	20.982	2102.605	2138.874
186.227	18.163	2092.799	2094.001
187.242	16.955	2088.812	2074.914
188.256	16.750	2086.354	2069.699
189.271	16.491	2084.507	2064.447
190.286	16.463	2082.432	2061.796
191.300	16.496	2080.440	2059.984
192.315	16.624	2078.632	2059.520
193.329	16.706	2078.915	2060.546
194.344	17.029	2077.688	2063.037
195.359	17.021	2075.937	2060.951
196.373	16.730	2074.026	2055.263
197.388	16.653	2070.543	2050.621
198.402	16.666	2068.536	2048.549
199.417	16.587	2065.920	2044.751
200.432	16.691	2065.060	2044.923
201.446	16.689	2064.159	2043.765
202.461	16.648	2061.654	2040.543
203.475	16.543	2060.729	2038.104
204.490	16.626	2058.927	2037.089
205.504	16.582	2057.155	2034.557
206.519	16.752	2054.952	2034.191
207.534	16.680	2053.942	2032.068
208.548	16.725	2052.322	2030.770
209.563	16.765	2051.602	2030.300
210.577	16.926	2050.378	2030.782
211.592	16.860	2050.387	2029.751
212.607	18.119	2054.532	2048.786
213.621	21.269	2061.381	2093.378
214.636	20.746	2055.066	2080.434
215.650	17.763	2046.246	2035.515
216.665	16.962	2042.189	2021.653
217.680	16.894	2039.726	2018.156
218.694	16.767	2038.279	2014.960
219.709	16.709	2037.034	2012.801
220.723	16.762	2035.483	2011.658
221.738	16.891	2034.205	2011.696
222.753	16.841	2032.790	2009.460
223.767	16.876	2030.426	2007.295
224.782	16.800	2029.249	2004.983
225.796	16.888	2028.074	2004.633
226.811	16.820	2025.917	2001.448
227.826	16.880	2024.488	2000.518
228.840	16.738	2022.043	1996.177
229.855	16.619	2021.256	1993.750
230.869	16.765	2019.560	1993.560
231.884	16.584	2017.317	1988.971
232.899	16.616	2016.259	1988.067
233.913	16.776	2015.230	1988.710
234.928	16.696	2014.146	1986.460
235.942	16.666	2012.237	1983.980
236.957	16.502	2011.300	1980.890
237.972	16.736	2009.147	1981.284
238.986	16.538	2008.117	1977.705
240.001	16.608	2006.971	1977.158
241.015	16.569	2005.973	1975.481
242.030	17.437	2007.586	1987.027
243.045	20.141	2013.411	2024.332
244.059	20.375	2009.959	2023.360
245.074	17.739	2001.225	1983.553
246.088	16.890	1997.758	1969.964
247.103	16.923	1996.986	1969.354
248.117	16.951	1994.612	1967.105
249.132	16.787	1991.637	1962.027
250.147	16.674	1990.676	1959.522
251.161	16.755	1989.364	1958.940
252.176	16.904	1989.528	1960.604
253.190	17.149	1986.973	1960.690
254.205	17.250	1984.822	1959.504
255.220	17.177	1983.130	1956.757
256.234	16.986	1983.108	1954.283
257.249	16.973	1980.916	1951.740
258.263	16.858	1980.303	1949.579
259.278	16.940	1978.528	1948.537
260.293	16.844	1976.564	1945.271
261.307	16.773	1974.729	1942.407
262.322	16.742	1972.733	1939.853
263.336	16.661	1971.339	1937.328
264.351	16.595	1969.555	1934.581
265.366	16.606	1968.602	1933.538
266.380	16.625	1968.169	1933.102
267.395	16.758	1966.042	1932.308
268.409	16.638	1964.851	1929.522
269.424	16.742	1962.628	1928.304
270.439	16.726	1963.037	1928.290
271.453	17.722	1965.047	1941.444
272.468	20.510	1970.145	1978.187
273.482	20.618	1966.195	1975.218
274.497	17.975	1957.076	1935.758
275.512	16.802	1952.766	1917.914
276.526	16.683	1951.007	1914.609
277.541	16.662	1948.555	1911.732
278.555	16.672	1947.809	1910.891
279.570	16.712	1945.430	1908.780
280.585	16.749	1944.534	1908.088
281.599	16.733	1943.204	1906.371
282.614	16.862	1941.762	1906.193
283.628	16.996	1941.154	1906.884
284.643	17.122	1940.851	1907.781
285.657	17.134	1940.404	1907.242
286.672	17.149	1937.888	1904.713
287.687	17.164	1936.289	1903.082
288.701	16.995	1935.270	1899.947
289.716	17.147	1933.040	1899.245
290.730	17.084	1931.992	1897.279
291.745	17.279	1930.276	1897.550
292.760	17.248	1928.940	1895.665
293.774	16.927	1928.718	1891.616
294.789	16.839	1926.661	1888.392
295.803	16.743	1924.437	1884.918
296.818	16.725	1923.171	1883.243
297.833	16.855	1922.218	1883.544
298.847	16.825	1920.331	1881.131
299.862	16.716	1919.165	1878.547
300.876	17.533	1919.997	1888.250
301.891	20.471	1926.692	1927.410
302.906	20.785	1924.436	1928.424
303.920	17.886	1915.822	1887.386
304.935	16.891	1911.965	1872.320
305.949	16.807	1909.337	1868.596
306.964	16.804	1908.180	1867.202
307.979	16.835	1906.776	1865.951
308.993	17.148	1905.750	1868.186
310.008	17.176	1906.000	1868.520
311.022	17.214	1903.271	1866.036
312.037	17.112	1901.609	1863.056
313.052	17.084	1898.906	1859.874
314.066	17.159	1898.317	1859.901
315.081	17.275	1897.091	1859.751
316.095	17.164	1895.812	1857.058
317.110	17.061	1893.804	1853.739
318.125	16.942	1892.770	1851.200
319.139	16.938	1891.719	1849.902
320.154	17.005	1889.871	1848.616
321.168	16.984	1887.457	1845.798
322.183	16.820	1886.924	1843.268
323.197	16.686	1885.941	1840.623
324.212	16.613	1883.280	1837.010
325.227	16.588	1882.021	1835.290
326.241	16.659	1880.123	1833.987
327.256	16.684	1878.685	1832.641
328.270	16.832	1877.993	1833.353
329.285	16.691	1877.940	1831.551
330.300	17.654	1882.191	1845.966
331.314	20.778	1887.245	1884.750
332.329	20.733	1881.760	1878.553
333.343	17.823	1873.952	1839.053
334.358	16.690	1870.413	1823.099
335.373	16.559	1868.161	1819.271
336.387	16.462	1865.607	1815.526
337.402	16.587	1863.849	1814.944
338.416	16.646	1863.520	1815.044
339.431	16.723	1862.403	1814.560
340.446	16.625	1860.804	1811.733
341.460	16.817	1859.007	1811.831
342.475	17.088	1857.343	1812.899
343.489	17.060	1856.961	1812.015
344.504	17.031	1855.611	1810.168
345.519	17.104	1854.129	1809.289
346.533	17.178	1853.408	1809.164
347.548	17.248	1851.536	1807.859
348.562	17.081	1849.989	1804.355
349.577	17.158	1849.518	1804.502
350.592	17.325	1849.138	1805.700
351.606	17.458	1847.539	1805.334
352.621	17.445	1844.766	1802.273
353.635	17.167	1843.019	1797.395
354.650	16.856	1841.967	1792.848
355.665	16.923	1839.577	1791.020
356.679	16.722	1839.127	1788.236
357.694	16.744	1837.285	1786.462
358.708	16.745	1835.907	1784.911
359.723	18.044	1840.228	1802.684
360.738	20.913	1845.217	1837.811
361.752	20.067	1839.564	1823.016
362.767	17.457	1833.248	1789.000
363.781	16.861	1829.626	1778.963
364.796	16.836	1827.529	1776.456
365.810	16.664	1826.827	1773.743
366.825	16.714	1825.482	1772.749
367.840	16.977	1825.200	1775.030
368.854	17.034	1823.794	1774.055
369.869	16.859	1822.004	1770.264
370.883	16.713	1820.771	1767.325
371.898	16.784	1818.666	1765.808
372.913	16.681	1817.574	1763.458
373.927	16.760	1816.608	1763.137
374.942	16.996	1815.351	1764.177
375.956	16.940	1813.990	1762.051
376.971	16.973	1812.183	1760.435
377.986	16.809	1810.275	1756.664
379.000	16.800	1809.263	1755.371
380.015	16.834	1808.779	1755.050
381.029	16.961	1805.771	1753.238
382.044	16.665	1804.207	1748.437
383.059	16.750	1802.252	1747.220
384.073	16.664	1801.835	1745.708
385.088	16.753	1800.851	1745.468
386.102	16.722	1799.099	1743.246
387.117	16.731	1798.157	1742.214
388.132	16.804	1797.750	1742.363
389.146	17.703	1801.386	1754.989
390.161	20.758	1805.901	1790.813
391.175	20.522	1798.755	1781.082
392.190	17.657	1790.925	1743.697
393.205	17.120	1787.564	1734.698
394.219	16.965	1785.253	1730.660
395.234	16.631	1784.386	1726.190
396.248	16.757	1782.043	1725.006
397.263	16.588	1780.993	1722.056
398.278	16.710	1779.268	1721.433
399.292	16.555	1778.535	1718.935
400.307	16.600	1777.267	1717.954
401.321	16.715	1776.190	1717.887
402.336	16.865	1774.663	1717.726
403.350	16.765	1773.612	1715.489
404.365	16.991	1772.664	1716.667
405.380	17.206	1771.723	1717.735
406.394	17.323	1770.513	1717.540
407.409	17.157	1768.839	1714.029
408.423	17.187	1767.517	1712.848
409.438	17.267	1765.939	1711.928
410.453	17.142	1765.219	1709.756
411.467	17.254	1764.477	1709.965
412.482	17.150	1762.877	1707.157
413.496	16.767	1761.701	1701.951
414.511	16.921	1759.155	1700.834
415.526	16.763	1757.140	1697.099
416.540	16.775	1755.251	1695.192
417.555	16.668	1754.997	1693.664
418.569	17.000	1754.739	1696.547
419.584	17.057	1754.461	1696.654
420.599	16.969	1755.059	1696.143
421.613	16.879	1753.492	1693.521
422.628	16.971	1751.212	1692.040
423.642	16.900	1749.398	1689.369
424.657	16.885	1749.133	1688.762
425.672	17.111	1746.785	1688.556
426.686	16.884	1745.458	1684.802
427.701	16.760	1743.839	1681.801
428.715	16.775	1742.502	1680.455
429.730	17.073	1741.152	1681.928
430.745	16.897	1740.310	1679.158
431.759	16.855	1739.979	1678.221
432.774	17.299	1740.561	1682.998
433.788	17.859	1740.641	1688.445
434.803	18.159	1739.411	1690.033
435.818	18.122	1738.495	1688.570
436.832	17.945	1738.361	1686.481
437.847	16.937	1731.387	1669.546
438.861	9.414	1710.667	1575.567
439.876	1.682	1696.497	1486.631
440.890	0.327	1693.417	1470.471
441.905	0.285	1691.734	1468.425
442.920	0.261	1689.851	1466.383
443.934	0.145	1689.272	1464.570
444.949	0.127	1688.209	1463.297
445.963	0.144	1686.886	1462.142
446.978	0.091	1686.871	1461.429
447.993	0.176	1685.472	1460.873
449.007	0.201	1683.159	1458.943
450.022	0.115	1681.562	1456.548
451.036	0.133	1680.027	1455.211
452.051	1.180	1684.187	1468.835
453.066	8.736	1701.685	1558.039
454.080	16.143	1712.986	1640.876
455.095	17.746	1715.123	1658.408
456.109	18.115	1715.962	1662.623
457.124	18.238	1715.057	1662.751
458.139	18.443	1713.130	1662.685
459.153	18.511	1712.200	1662.243
460.168	18.650	1710.730	1661.977
461.182	18.445	1708.792	1657.899
462.197	18.447	1707.431	1656.400
463.212	18.324	1704.780	1652.433
464.226	18.412	1704.089	1652.425
465.241	18.517	1703.420	1652.596
466.255	18.679	1702.391	1652.967
467.270	18.665	1700.538	1650.836
468.285	18.304	1699.714	1646.349
469.299	18.448	1698.192	1646.063
470.314	18.571	1696.022	1644.950
471.328	18.486	1695.931	1643.849
472.343	18.313	1695.486	1641.551
473.358	18.466	1693.662	1641.059
474.372	18.545	1691.964	1639.983
475.387	18.266	1690.875	1636.044
476.401	18.424	1689.021	1635.570
477.416	18.341	1687.544	1633.148
478.430	18.471	1686.771	1633.450
479.445	18.249	1685.616	1630.013
480.460	18.277	1683.929	1628.459
481.474	18.397	1683.145	1628.647
482.489	18.495	1682.162	1628.435
483.503	18.651	1680.384	1628.010
484.518	18.638	1679.648	1626.978
485.533	18.605	1678.898	1625.742
486.547	18.599	1676.353	1623.031
487.562	18.888	1674.995	1624.261
488.576	18.750	1674.543	1622.317
489.591	18.693	1673.331	1620.407
490.606	18.802	1671.165	1619.152
491.620	18.621	1670.045	1616.164
492.635	18.806	1669.139	1616.842
493.649	18.967	1667.301	1616.386
494.664	18.650	1665.943	1611.885
495.679	18.330	1664.362	1607.144
496.693	18.297	1663.544	1605.847
497.708	18.692	1662.484	1608.354
498.722	18.888	1661.753	1609.297
499.737	18.986	1659.858	1608.190
500.752	18.634	1657.955	1602.849
501.766	18.539	1657.155	1600.996
502.781	18.686	1655.062	1600.164
503.795	18.636	1653.693	1598.175
504.810	18.548	1653.896	1597.358
505.825	18.874	1652.365	1598.735
506.839	18.965	1651.334	1598.399
507.854	18.694	1649.787	1594.179
508.868	18.875	1648.280	1594.216
509.883	18.828	1647.450	1592.790
510.898	18.866	1646.534	1592.067
511.912	18.872	1644.066	1589.546
512.927	18.692	1642.313	1585.985
513.941	18.659	1641.097	1584.319
514.956	18.599	1639.741	1582.262
515.971	18.601	1638.498	1580.891
516.985	18.713	1637.592	1580.863
518.000	18.843	1637.179	1581.482
519.014	18.897	1636.428	1581.063
520.029	18.929	1635.334	1580.117
521.043	18.890	1633.602	1577.894
522.058	18.883	1632.562	1576.637
523.073	18.914	1632.139	1576.325
524.087	19.189	1630.881	1577.456
525.102	19.055	1629.614	1574.806
526.116	18.841	1627.454	1570.564
527.131	18.797	1626.497	1569.044
528.146	18.977	1626.742	1570.752
529.160	19.094	1624.847	1569.808
530.175	18.970	1624.135	1567.795
531.189	19.207	1622.942	1568.619
532.204	19.184	1621.581	1566.913
533.219	18.950	1619.541	1562.609
534.233	18.791	1618.906	1560.362
535.248	18.880	1618.408	1560.506
536.262	19.278	1617.796	1563.361
537.277	19.150	1616.680	1560.923
538.292	18.963	1614.044	1556.496
539.306	18.927	1612.242	1554.242
540.321	18.992	1610.784	1553.239
541.335	18.886	1609.219	1550.583
542.350	18.982	1608.048	1550.145
543.365	19.077	1607.289	1550.083
544.379	19.200	1605.741	1549.523
545.394	19.211	1604.604	1548.331
546.408	18.881	1602.673	1543.312
547.423	18.758	1601.409	1540.797
548.438	18.705	1600.656	1539.409
549.452	18.951	1599.951	1540.765
550.467	19.011	1598.547	1539.772
551.481	19.192	1597.044	1539.761
552.496	19.283	1596.738	1540.097
553.511	19.271	1595.896	1538.994
554.525	19.350	1594.987	1538.648
555.540	19.342	1594.497	1537.917
556.554	19.179	1593.918	1535.713
557.569	19.254	1591.494	1533.866
558.583	19.142	1589.991	1531.229
559.598	19.189	1588.276	1529.814
560.613	19.157	1587.535	1528.630
561.627	19.122	1586.779	1527.411
562.642	19.160	1585.605	1526.431
563.656	19.466	1584.261	1527.680
564.671	19.401	1582.924	1525.633
565.686	19.374	1581.832	1524.155
566.700	19.184	1580.025	1520.548
567.715	19.161	1577.709	1517.935
568.729	19.058	1575.998	1515.197
569.744	18.898	1574.072	1511.745
570.759	18.880	1573.309	1510.672
571.773	19.077	1573.016	1511.951
572.788	19.077	1572.553	1511.322
573.802	19.303	1570.822	1511.475
574.817	19.226	1569.978	1509.799
575.832	19.427	1569.129	1510.570
576.846	19.469	1567.720	1509.403
577.861	19.258	1566.617	1506.311
578.875	19.448	1566.264	1507.454
579.890	19.631	1565.016	1507.683
580.905	19.595	1564.113	1506.313
581.919	19.571	1563.824	1505.650
582.934	19.664	1562.204	1504.718
583.948	19.775	1560.789	1504.146
584.963	19.523	1559.089	1500.128
585.978	19.521	1557.064	1497.987
586.992	19.542	1557.200	1498.118
588.007	19.622	1556.537	1497.999
589.021	19.243	1554.334	1492.405
590.036	19.053	1552.805	1489.101
591.051	19.181	1551.915	1489.181
592.065	19.333	1551.072	1489.513
593.080	19.508	1549.018	1488.880
594.094	19.559	1547.532	1487.715
595.109	19.196	1545.664	1482.601
596.123	19.089	1545.081	1480.939
597.138	19.386	1543.912	1482.208
598.153	19.578	1543.402	1483.197
599.167	19.401	1541.809	1479.962
600.182	19.714	1540.717	1481.434
601.196	19.555	1540.376	1479.563
602.211	19.531	1539.035	1477.892
603.226	19.612	1538.621	1478.016
604.240	19.792	1536.436	1477.282
605.255	19.865	1534.953	1476.302
606.269	19.814	1534.429	1475.187
607.284	19.893	1533.335	1474.632
608.299	19.652	1532.047	1471.155
609.313	19.619	1530.549	1469.262
610.328	19.667	1529.435	1468.430
611.342	19.777	1527.905	1467.716
612.357	19.954	1527.764	1468.918
613.372	19.786	1526.672	1466.263
614.386	19.827	1525.501	1465.313
615.401	19.756	1525.004	1464.056
616.415	19.909	1524.049	1464.266
617.430	19.896	1523.534	1463.478
618.445	19.939	1522.098	1462.289
619.459	19.817	1520.020	1459.087
620.474	19.489	1519.205	1455.346
621.488	19.142	1517.286	1450.404
622.503	18.916	1516.180	1447.259
623.518	19.253	1516.028	1449.792
624.532	19.613	1514.926	1451.600
625.547	19.701	1514.095	1451.375
626.561	19.934	1513.424	1452.524
627.576	20.172	1511.809	1452.804
628.591	19.740	1509.059	1446.355
629.605	19.376	1507.649	1441.776
630.620	19.298	1506.586	1439.926
631.634	19.134	1505.584	1437.426
632.649	19.114	1505.462	1436.965
633.663	19.382	1503.612	1437.271
634.678	19.761	1503.105	1439.786
635.693	20.117	1501.443	1441.001
636.707	20.020	1501.040	1439.636
637.722	20.096	1500.454	1439.533
638.736	20.235	1498.897	1439.022
639.751	20.124	1498.121	1437.180
640.766	20.083	1496.996	1435.589
641.780	20.072	1495.386	1433.782
642.795	19.992	1494.487	1432.083
643.809	20.043	1493.700	1431.582
644.824	20.006	1493.026	1430.454
645.839	19.993	1491.488	1428.707
646.853	20.019	1490.714	1428.012
647.868	19.994	1489.027	1426.014
648.882	19.997	1487.292	1424.211
649.897	20.042	1485.613	1422.804
650.912	20.033	1484.323	1421.323
651.926	20.140	1483.012	1420.781
652.941	19.640	1482.416	1415.919
653.955	19.532	1480.422	1412.957
654.970	19.264	1478.066	1408.337
655.985	19.308	1477.456	1407.945
656.999	19.331	1476.673	1407.225
658.014	19.512	1475.230	1407.159
659.028	19.755	1474.500	1408.289
660.043	19.848	1474.291	1408.676
661.058	20.020	1472.825	1408.515
662.072	19.963	1472.258	1407.336
663.087	19.993	1471.499	1406.689
664.101	19.910	1470.093	1404.498
665.116	20.100	1469.144	1404.975
666.131	20.009	1468.126	1403.096
667.145	20.057	1466.791	1402.037
668.160	20.300	1465.414	1402.526
669.174	20.317	1464.454	1401.581
670.189	20.325	1462.802	1399.893
671.204	20.093	1462.092	1397.172
672.218	20.079	1461.663	1396.475
673.233	20.219	1460.956	1396.770
674.247	20.372	1459.867	1396.799
675.262	20.301	1458.949	1395.178
676.276	20.460	1457.078	1394.503
677.291	20.267	1456.463	1392.194
678.306	19.992	1454.906	1388.327
679.320	20.264	1453.706	1389.199
680.335	20.341	1453.731	1389.682
681.349	20.343	1453.243	1389.063
682.364	20.276	1452.105	1387.273
683.379	20.239	1449.934	1384.730
684.393	20.217	1448.727	1383.236
685.408	20.215	1448.347	1382.694
686.422	20.227	1446.954	1381.296
687.437	20.145	1446.928	1380.448
688.452	20.354	1446.442	1381.491
689.466	20.274	1443.786	1378.148
690.481	20.169	1442.200	1375.638
691.495	19.849	1440.791	1371.575
692.510	19.519	1439.173	1367.247
693.525	19.321	1437.765	1364.169
694.539	19.466	1437.205	1364.629
695.554	19.886	1437.820	1368.388
696.568	20.277	1437.001	1370.549
697.583	20.452	1436.082	1370.898
698.598	20.363	1435.027	1369.020
699.612	20.615	1433.731	1369.613
700.627	20.649	1432.230	1368.287
701.641	20.552	1431.007	1366.188
702.656	20.431	1430.210	1364.304
703.671	20.569	1430.149	1365.176
704.685	20.622	1429.414	1364.729
705.700	20.532	1427.609	1362.131
706.714	20.410	1426.185	1359.649
707.729	20.267	1424.652	1356.905
708.744	20.006	1423.673	1353.755
709.758	20.176	1421.706	1353.057
710.773	19.876	1421.161	1350.027
711.787	19.857	1418.936	1347.599
712.802	19.855	1418.219	1346.746
713.816	20.067	1417.085	1347.161
714.831	20.307	1416.833	1348.636
715.846	20.276	1416.134	1347.567
716.860	20.593	1414.199	1348.034
717.875	20.522	1413.652	1346.799
718.889	20.410	1412.747	1344.900
719.904	20.415	1412.164	1344.227
720.919	20.584	1410.823	1344.106
721.933	20.561	1410.171	1343.143
722.948	20.499	1409.473	1341.838
723.962	20.640	1408.079	1341.444
724.977	20.532	1407.034	1339.448
725.992	20.645	1406.206	1339.373
727.006	20.749	1404.528	1338.423
728.021	20.706	1403.446	1336.899
729.035	20.783	1401.811	1335.774
730.050	20.673	1401.093	1334.081
731.065	20.782	1399.445	1333.191
732.079	20.786	1398.537	1332.198
733.094	20.580	1397.660	1329.616
734.108	20.481	1396.176	1327.291
735.123	20.621	1395.266	1327.339
736.138	20.721	1393.767	1326.520
737.152	20.605	1393.131	1324.869
738.167	20.775	1392.597	1325.504
739.181	20.770	1391.701	1324.451
740.196	20.655	1391.537	1323.259
741.211	20.630	1390.736	1322.145
742.225	20.754	1389.014	1321.298
743.240	20.678	1387.205	1318.837
744.254	20.733	1385.680	1317.654
745.269	20.699	1384.193	1315.817
746.284	20.653	1383.911	1315.046
747.298	20.363	1383.406	1312.208
748.313	20.159	1381.051	1308.271
749.327	19.858	1379.603	1304.457
750.342	19.471	1378.590	1300.417
751.356	19.434	1377.085	1298.562
752.371	19.625	1376.943	1299.716
753.386	20.248	1377.075	1304.394
754.400	20.584	1376.039	1305.789
755.415	20.794	1375.058	1306.287
756.429	20.827	1373.694	1305.087
757.444	20.732	1372.486	1303.064
758.459	20.750	1372.321	1302.886
759.473	21.010	1370.823	1303.262
760.488	20.884	1370.364	1301.729
761.502	20.927	1368.482	1300.101
762.517	20.796	1367.655	1298.181
763.532	20.656	1365.793	1295.212
764.546	20.514	1363.997	1292.288
765.561	20.123	1363.919	1289.139
766.575	19.677	1362.896	1284.689
767.590	19.755	1361.610	1283.905
768.605	20.037	1360.461	1284.769
769.619	20.404	1359.534	1286.472
770.634	20.547	1358.438	1286.343
771.648	20.924	1357.614	1288.215
772.663	20.881	1357.410	1287.545
773.678	21.006	1356.435	1287.391
774.692	20.868	1356.506	1286.279
775.707	20.773	1356.110	1285.046
776.721	21.000	1354.417	1284.970
777.736	20.908	1353.347	1283.123
778.751	21.000	1352.320	1282.674
779.765	21.056	1351.371	1282.037
780.780	20.929	1350.833	1280.432
781.794	20.908	1349.450	1278.818
782.809	20.653	1348.338	1275.728
783.824	20.901	1346.867	1276.009
784.838	20.353	1344.508	1269.593
785.853	19.817	1343.143	1264.216
786.867	19.923	1343.017	1264.728
787.882	20.189	1343.539	1267.018
788.897	20.429	1342.692	1267.833
789.911	20.606	1341.263	1267.630
790.926	20.597	1340.080	1266.290
791.940	20.701	1339.281	1266.147
792.955	20.740	1338.474	1265.513
793.969	20.799	1337.187	1264.578
794.984	20.816	1336.476	1263.875
795.999	20.971	1335.049	1263.504
797.013	20.960	1333.353	1261.668
798.028	20.999	1331.854	1260.382
799.042	20.892	1331.583	1259.203
800.057	21.129	1330.753	1259.987
801.072	21.130	1329.079	1258.257
802.086	21.103	1327.690	1256.596
803.101	21.121	1327.139	1256.055
804.115	21.103	1326.656	1255.313
805.130	21.083	1325.099	1253.548
806.145	21.097	1323.986	1252.449
807.159	21.153	1322.183	1250.997
808.174	20.788	1321.281	1247.364
809.188	20.641	1320.440	1245.359
810.203	20.769	1318.008	1243.842
811.218	20.511	1316.131	1240.069
812.232	20.313	1314.496	1236.959
813.247	19.977	1314.317	1234.235
814.261	20.417	1313.700	1236.663
815.276	20.749	1312.866	1238.102
816.291	20.914	1312.929	1239.191
817.305	21.039	1311.858	1238.925
818.320	21.102	1310.164	1237.626
819.334	20.868	1309.487	1235.173
820.349	21.108	1308.331	1235.640
821.364	21.179	1306.534	1234.300
822.378	21.046	1305.276	1232.017
823.393	21.137	1303.778	1231.103
824.407	21.076	1302.714	1229.519
825.422	20.975	1302.678	1228.622
826.437	20.860	1301.522	1226.570
827.451	20.774	1299.029	1223.467
828.466	20.395	1297.012	1218.749
829.480	20.143	1294.918	1214.862
830.495	20.373	1293.813	1215.299
831.509	20.530	1293.858	1216.298
832.524	20.725	1294.134	1217.783
833.539	20.821	1293.056	1217.301
834.553	21.096	1291.184	1217.321
835.568	21.195	1290.078	1216.824
836.582	21.261	1288.832	1215.963
837.597	21.257	1287.362	1214.402
838.612	21.143	1286.646	1212.785
839.626	21.210	1285.063	1211.617
840.641	20.863	1283.513	1207.591
841.655	20.603	1282.841	1205.005
842.670	20.264	1281.162	1200.924
843.685	20.040	1279.998	1198.136
844.699	20.434	1279.199	1199.980
845.714	20.746	1278.843	1201.665
846.728	21.010	1278.235	1202.783
847.743	21.221	1277.083	1203.015
848.758	21.139	1275.772	1201.074
849.772	21.170	1274.960	1200.376
850.787	21.099	1274.173	1199.002
851.801	21.291	1272.283	1198.405
852.816	21.082	1270.820	1195.443
853.831	20.983	1269.812	1193.668
854.845	21.094	1267.564	1192.176
855.860	20.819	1266.536	1189.183
856.874	20.591	1264.493	1185.553
857.889	20.426	1263.392	1183.256
858.904	20.217	1262.000	1180.376
859.918	20.019	1260.139	1177.144
860.933	19.938	1259.214	1175.585
861.947	20.231	1258.378	1176.665
862.962	20.571	1257.099	1177.639
863.977	20.615	1256.716	1177.443
864.991	20.732	1256.477	1177.871
866.006	20.894	1256.514	1178.865
867.020	21.074	1254.966	1178.496
868.035	21.107	1253.813	1177.498
869.049	21.091	1253.012	1176.492
870.064	21.364	1251.437	1176.722
871.079	21.087	1251.030	1174.328
872.093	21.261	1250.219	1174.599
873.108	21.228	1248.953	1173.048
874.122	20.989	1247.557	1169.981
875.137	20.547	1246.915	1166.265
876.152	20.527	1245.922	1165.060
877.166	20.834	1243.979	1165.169
878.181	21.030	1243.366	1165.772
879.195	20.995	1243.588	1165.602
880.210	21.070	1242.898	1165.323
881.225	21.129	1241.570	1164.333
882.239	21.139	1240.816	1163.555
883.254	21.190	1239.698	1162.705
884.268	21.182	1238.977	1161.836
885.283	21.229	1237.532	1160.660
886.298	21.247	1235.902	1159.107
887.312	21.164	1235.659	1158.190
888.327	21.193	1234.568	1157.222
889.341	21.165	1232.578	1155.033
890.356	21.141	1232.383	1154.554
891.371	21.060	1232.053	1153.566
892.385	20.885	1230.947	1151.230
893.400	21.165	1229.068	1151.191
894.414	20.778	1227.956	1147.451
895.429	20.477	1226.306	1143.776
896.444	20.249	1223.478	1139.495
897.458	19.742	1223.029	1135.598
898.473	19.838	1223.179	1136.234
899.487	20.412	1222.558	1139.305
900.502	20.873	1221.566	1141.285
901.517	21.028	1220.783	1141.436
902.531	21.102	1219.804	1140.871
903.546	21.169	1218.934	1140.358
904.560	21.217	1218.656	1140.275
905.575	21.260	1217.431	1139.276
906.589	21.226	1216.708	1138.243
907.604	21.181	1215.610	1136.784
