DTS Sentinel unit serial number:	SN409020Multiplexer serial number:	ORYXHardware model number:	OX4-SRSoftware version number:	ORYX F/W v3.00 Oryx Data Collector v3.7.2.0data status	okinstallation	HaddamTimeLapsedifferential loss correction	single-endedforward channel	channel 3reverse channel	N/Adate	2011/06/22time	05:01:16forward acquisition time	30.00reverse acquisition time	0.00gamma	498.7831k internal	0.1752k external	0.1752temperature offset calibration	1.0074default loss term (dB/km)	0.3790temperature slope calibration	1.3530multiplexer offset coefficient	1.0000multiplexer slope coefficient	1.0000fibre end	0.00T internal ref (°C)	22.69T ext. ref 1 (°C)	17.62T ext. ref 2 (°C)	0.16length (m)	temperature (°C)	Stokes	anti-Stokes-747.200	-116.498	0.220	0.053
-746.185	46.852	-0.137	0.170
-745.171	208.199	-0.124	-0.258
-744.156	-72.480	0.192	-0.094
-743.142	-91.409	0.421	0.159
-742.127	-200.000	0.018	0.318
-741.112	-21.528	0.251	-0.203
-740.098	-110.431	-0.279	-0.076
-739.083	-71.291	-0.302	-0.150
-738.069	4.784	-0.119	0.116
-737.054	-43.343	-0.381	0.255
-736.039	-111.309	-0.176	0.047
-735.025	-200.000	-0.007	-0.166
-734.010	176.402	-0.104	0.200
-732.996	-65.765	0.321	-0.170
-731.981	155.925	0.084	0.154
-730.966	-164.224	0.404	0.024
-729.952	-80.642	-0.199	0.087
-728.937	37.420	-0.213	-0.251
-727.923	-75.762	-0.480	-0.225
-726.908	-54.255	-0.500	-0.300
-725.894	100.743	-0.059	0.091
-724.879	-43.303	-0.185	-0.124
-723.864	268.463	-0.089	-0.207
-722.850	-200.000	0.048	-0.456
-721.835	-2.212	0.256	-0.238
-720.821	71.790	0.204	0.281
-719.806	-7.449	-0.087	0.078
-718.791	215.347	0.168	-0.354
-717.777	-122.221	0.300	-0.065
-716.762	-100.419	-0.589	-0.192
-715.748	-32.779	-0.631	-0.464
-714.733	-127.163	-0.277	0.053
-713.718	323.384	-0.071	0.179
-712.704	800.000	-0.047	0.232
-711.689	-174.828	0.417	-0.015
-710.675	-200.000	-0.029	-0.179
-709.660	-156.616	-0.394	-0.032
-708.645	-30.479	0.154	-0.115
-707.631	0.271	-0.188	-0.178
-706.616	260.213	0.202	0.464
-705.602	485.623	-0.244	0.742
-704.587	-66.271	-0.181	0.095
-703.572	-98.266	0.266	0.090
-702.558	-61.357	0.338	0.188
-701.543	-158.171	-0.248	0.019
-700.529	-56.937	0.114	-0.066
-699.514	-11.504	-0.148	0.129
-698.499	371.005	-0.170	-0.458
-697.485	-139.481	0.363	-0.051
-696.470	-79.435	-0.143	-0.064
-695.456	12.437	0.301	-0.307
-694.441	641.187	0.100	-0.338
-693.426	-21.783	0.121	0.097
-692.412	-145.486	0.241	-0.028
-691.397	188.388	-0.085	0.169
-690.383	-143.749	-0.366	-0.045
-689.368	1.447	-0.495	-0.471
-688.354	169.341	0.192	0.365
-687.339	-20.513	0.446	0.363
-686.324	-47.392	-0.206	0.132
-685.310	-107.325	-0.380	-0.110
-684.295	-200.000	0.011	0.176
-683.281	105.144	0.076	-0.118
-682.266	800.000	-0.023	-0.092
-681.251	-200.000	0.039	-0.228
-680.237	147.596	-0.156	0.278
-679.222	-200.000	-0.020	0.425
-678.208	-1.644	-0.387	0.360
-677.193	-54.328	-0.215	0.129
-676.178	-103.161	-0.279	0.087
-675.164	-110.526	-0.370	0.101
-674.149	-101.235	0.422	0.136
-673.135	-159.727	-0.208	-0.015
-672.120	533.541	-0.060	-0.190
-671.105	221.429	-0.164	0.350
-670.091	800.000	-0.038	-0.191
-669.076	145.366	-0.296	-0.526
-668.062	142.338	0.212	0.373
-667.047	-178.863	-0.481	0.014
-666.032	-200.000	0.011	0.089
-665.018	-38.780	-0.190	-0.132
-664.003	192.605	-0.092	-0.184
-662.989	-187.513	-0.106	0.002
-661.974	-51.111	-0.445	0.275
-660.959	-42.188	0.135	0.091
-659.945	-59.209	0.123	-0.070
-658.930	30.305	0.501	-0.566
-657.916	-29.353	0.083	0.063
-656.901	-111.555	-0.241	0.064
-655.886	-97.372	0.320	0.110
-654.872	18.978	0.035	0.037
-653.857	269.218	0.055	-0.129
-652.843	38.209	0.129	0.152
-651.828	-164.723	0.283	0.017
-650.814	-80.295	-0.370	-0.163
-649.799	149.205	-0.088	0.158
-648.784	487.978	-0.168	0.510
-647.770	-153.500	0.679	0.061
-646.755	-140.559	0.259	0.035
-645.741	-139.039	-0.294	0.042
-644.726	350.030	-0.086	-0.225
-643.711	-90.367	0.514	-0.196
-642.697	41.352	-0.511	-0.611
-641.682	262.155	-0.009	0.020
-640.668	52.786	-0.179	0.226
-639.653	-68.875	0.384	-0.195
-638.638	-8.696	-0.255	0.226
-637.624	89.849	-0.214	0.316
-636.609	113.315	0.199	-0.319
-635.595	-200.000	0.027	-0.443
-634.580	-87.562	0.153	-0.061
-633.565	-200.000	0.029	0.348
-632.551	-200.000	-0.003	0.061
-631.536	800.000	0.024	0.103
-630.522	273.535	-0.183	0.430
-629.507	317.648	-0.166	0.416
-628.492	447.547	-0.140	0.409
-627.478	164.600	0.065	-0.121
-626.463	-26.439	0.125	-0.097
-625.449	-90.718	-0.582	0.221
-624.434	-34.062	-0.363	0.263
-623.419	92.138	-0.154	0.229
-622.405	-191.167	-0.460	0.006
-621.390	197.269	-0.144	-0.291
-620.376	106.816	0.210	-0.331
-619.361	-28.918	-0.181	-0.137
-618.346	-200.000	-0.060	-0.543
-617.332	-135.352	-0.473	-0.074
-616.317	289.035	0.157	-0.377
-615.303	-200.000	0.074	-0.515
-614.288	24.643	-0.222	0.242
-613.273	1.443	-0.170	0.162
-612.259	418.596	-0.106	0.301
-611.244	431.799	-0.096	-0.276
-610.230	-112.083	-0.119	-0.031
-609.215	-83.132	-0.214	0.091
-608.201	178.239	0.002	0.004
-607.186	-172.913	0.295	-0.012
-606.171	-119.128	0.235	0.054
-605.157	42.094	0.372	0.447
-604.142	-21.255	-0.077	0.062
-603.128	8.921	-0.205	0.205
-602.113	-38.493	-0.069	-0.048
-601.098	-200.000	-0.019	0.177
-600.084	196.764	0.054	-0.108
-599.069	-121.155	0.582	0.128
-598.055	27.692	-0.105	-0.117
-597.040	32.400	-0.394	0.450
-596.025	-75.062	0.486	-0.229
-595.011	-134.530	-0.391	-0.062
-593.996	236.493	-0.034	-0.075
-592.982	800.000	-0.046	-0.181
-591.967	21.158	-0.207	-0.222
-590.952	162.699	0.322	0.598
-589.938	800.000	0.030	0.138
-588.923	-200.000	0.062	0.376
-587.909	778.796	-0.078	0.282
-586.894	-31.328	-0.296	-0.219
-585.879	-67.472	-0.350	-0.180
-584.865	-13.746	-0.080	0.068
-583.850	-172.155	0.741	-0.031
-582.836	-200.000	-0.029	-0.269
-581.821	63.524	0.140	0.185
-580.806	12.528	0.274	0.278
-579.792	-200.000	-0.043	0.364
-578.777	-200.000	0.027	-0.404
-577.763	-172.920	0.356	-0.014
-576.748	145.793	0.200	0.354
-575.733	-59.622	-0.273	0.154
-574.719	89.667	0.107	0.157
-573.704	-87.824	0.179	0.071
-572.690	235.037	-0.047	-0.102
-571.675	-11.598	0.261	-0.226
-570.661	-200.000	0.003	0.115
-569.646	-66.930	-0.105	0.054
-568.631	12.588	0.110	0.112
-567.617	-9.876	-0.017	-0.015
-566.602	-200.000	0.006	-0.059
-565.588	90.855	-0.079	0.117
-564.573	-105.772	-0.057	-0.017
-563.558	-137.812	-0.096	-0.014
-562.544	235.122	0.111	-0.242
-561.529	-200.000	-0.024	-0.173
-560.515	-181.414	0.183	-0.005
-559.500	-104.451	0.439	-0.133
-558.485	-200.000	-0.086	-0.619
-557.471	40.448	0.204	-0.242
-556.456	77.547	-0.176	0.247
-555.442	800.000	-0.029	-0.139
-554.427	-141.391	0.097	0.013
-553.412	-127.847	-0.057	0.011
-552.398	73.881	0.066	0.092
-551.383	-161.350	0.336	0.023
-550.369	-124.134	-0.139	0.028
-549.354	-79.514	0.349	-0.155
-548.339	-65.507	0.287	0.151
-547.325	122.207	-0.261	0.431
-546.310	48.010	0.118	0.146
-545.296	363.879	0.046	-0.122
-544.281	9.144	0.400	-0.398
-543.266	79.806	-0.349	0.495
-542.252	172.850	0.143	-0.271
-541.237	702.498	0.118	-0.413
-540.223	800.000	0.050	-0.273
-539.208	-124.287	-0.345	0.070
-538.193	448.962	-0.129	-0.376
-537.179	-81.116	0.409	0.177
-536.164	-99.367	-0.393	-0.130
-535.150	-200.000	0.014	0.552
-534.135	95.221	0.326	0.490
-533.121	-6.622	-0.379	0.339
-532.106	-47.999	0.341	0.216
-531.091	-57.652	-0.171	-0.098
-530.077	-200.000	-0.017	-0.480
-529.062	11.085	-0.155	0.156
-528.048	34.286	-0.224	-0.257
-527.033	416.624	-0.121	-0.342
-526.018	-200.000	-0.265	-0.001
-525.004	-107.499	-0.270	-0.077
-523.989	-163.183	-0.068	0.004
-522.975	90.314	0.208	-0.307
-521.960	140.412	0.112	0.195
-520.945	-60.806	-0.253	0.141
-519.931	4.058	0.183	-0.176
-518.916	213.571	0.311	-0.649
-517.902	-200.000	0.070	0.550
-516.887	-71.245	0.237	0.116
-515.872	-200.000	0.007	-0.294
-514.858	0.699	0.332	-0.313
-513.843	10.891	-0.247	0.248
-512.829	-33.377	-0.500	-0.363
-511.814	-150.559	-0.201	-0.020
-510.799	-36.724	0.296	0.209
-509.785	-141.065	0.432	-0.058
-508.770	-123.136	-0.207	0.043
-507.756	-16.299	0.154	-0.128
-506.741	-92.114	-0.057	-0.021
-505.726	-163.780	0.108	0.007
-504.712	-200.000	-0.020	0.198
-503.697	108.893	0.085	0.133
-502.683	296.250	0.025	-0.062
-501.668	-117.270	0.291	-0.069
-500.653	-14.823	0.110	0.093
-499.639	126.477	0.176	0.293
-498.624	-50.416	0.539	-0.334
-497.610	-142.572	0.053	-0.007
-496.595	135.335	0.065	0.111
-495.581	15.559	0.444	0.458
-494.566	-27.452	-0.259	0.197
-493.551	-56.145	-0.219	-0.128
-492.537	96.167	0.211	0.318
-491.522	129.880	0.308	0.519
-490.508	123.463	0.032	0.053
-489.493	-54.072	-0.154	0.092
-488.478	-149.300	0.424	0.044
-487.464	-84.810	-0.431	-0.177
-486.449	298.848	-0.102	0.249
-485.435	800.000	0.073	-0.361
-484.420	-105.350	0.214	0.064
-483.405	-184.670	-0.607	-0.013
-482.391	-200.000	0.002	0.204
-481.376	-153.630	-0.264	-0.024
-480.362	176.027	-0.243	0.464
-479.347	252.821	0.121	0.273
-478.332	-200.000	-0.031	-0.301
-477.318	-129.611	-0.397	0.071
-476.303	155.128	0.114	0.207
-475.289	-142.041	-0.040	-0.005
-474.274	32.472	0.266	-0.302
-473.259	-140.253	-0.427	0.058
-472.245	-161.815	-0.137	-0.009
-471.230	-200.000	0.024	-0.269
-470.216	97.132	-0.153	0.231
-469.201	35.190	-0.050	-0.057
-468.186	-82.817	0.611	0.258
-467.172	-200.000	-0.013	0.312
-466.157	-200.000	0.028	-0.297
-465.143	5.559	-0.397	-0.384
-464.128	-20.830	0.207	-0.166
-463.113	-200.000	0.049	-0.545
-462.099	800.000	0.096	-0.521
-461.084	-200.000	0.010	0.147
-460.070	-93.264	0.350	0.127
-459.055	-8.519	0.168	0.148
-458.040	-169.962	-0.493	0.023
-457.026	17.730	-0.173	0.180
-456.011	-116.497	-0.054	0.013
-454.997	466.495	-0.254	-0.751
-453.982	800.000	0.019	0.091
-452.968	1.792	0.163	-0.154
-451.953	-102.656	0.343	0.107
-450.938	800.000	-0.092	-0.388
-449.924	-173.139	0.274	-0.011
-448.909	-86.757	-0.116	-0.046
-447.895	46.272	0.071	0.087
-446.880	-42.397	-0.256	-0.171
-445.865	-0.776	0.201	-0.187
-444.851	-77.792	0.115	0.052
-443.836	800.000	-0.086	0.335
-442.822	54.575	0.221	-0.280
-441.807	-101.319	-0.455	-0.145
-440.792	344.509	0.024	0.062
-439.778	485.525	-0.069	0.208
-438.763	270.725	-0.285	0.661
-437.749	-14.473	-0.157	-0.132
-436.734	-125.899	-0.140	-0.027
-435.719	800.000	0.058	-0.224
-434.705	-200.000	0.005	-0.577
-433.690	72.382	0.201	-0.274
-432.676	-64.129	0.367	0.196
-431.661	-116.762	-0.208	0.050
-430.646	-144.335	0.332	-0.040
-429.632	-175.663	0.454	-0.016
-428.617	715.960	0.150	0.524
-427.603	64.225	0.207	-0.273
-426.588	69.176	0.267	-0.360
-425.573	71.488	-0.145	-0.197
-424.559	-126.282	-0.381	-0.074
-423.544	-146.957	-0.357	-0.040
-422.530	-127.814	-0.374	0.070
-421.515	63.651	-0.353	0.465
-420.500	-61.569	0.199	0.109
-419.486	58.476	-0.151	0.194
-418.471	-150.375	-0.548	0.055
-417.457	-123.045	-0.171	-0.036
-416.442	-156.099	-0.440	-0.036
-415.428	-200.000	-0.010	-0.265
-414.413	526.167	-0.087	0.270
-413.398	203.800	-0.182	-0.371
-412.384	133.436	-0.189	0.321
-411.369	-200.000	0.060	0.435
-410.355	-200.000	0.023	0.154
-409.340	79.369	-0.075	0.106
-408.325	-40.422	-0.137	-0.093
-407.311	-200.000	-0.022	0.372
-406.296	58.506	-0.268	-0.344
-405.282	-137.241	0.032	-0.005
-404.267	320.122	0.093	-0.233
-403.252	-200.000	-0.368	0.000
-402.238	550.844	0.226	-0.715
-401.223	-109.119	0.475	0.131
-400.209	-82.109	0.452	-0.192
-399.194	-103.912	0.297	-0.090
-398.179	800.000	0.028	-0.144
-397.165	86.078	0.213	0.308
-396.150	-159.773	0.377	0.027
-395.136	28.803	-0.157	-0.174
-394.121	-133.658	0.252	0.041
-393.106	-39.893	0.222	0.151
-392.092	-200.000	0.486	0.000
-391.077	-137.854	0.619	0.090
-390.063	-200.000	0.023	0.136
-389.048	482.096	0.063	0.188
-388.033	-43.771	0.372	0.245
-387.019	-82.915	0.451	-0.189
-386.004	-123.972	-0.150	0.031
-384.990	-80.455	0.496	-0.216
-383.975	-35.848	0.312	0.221
-382.960	137.745	-0.203	-0.348
-381.946	359.236	-0.233	-0.613
-380.931	-177.841	0.513	0.016
-379.917	-131.386	-0.219	0.038
-378.902	122.913	-0.081	0.133
-377.888	-58.624	0.147	-0.083
-376.873	21.002	-0.387	-0.411
-375.858	-200.000	-0.044	-0.300
-374.844	-8.629	0.273	-0.240
-373.829	129.273	-0.039	-0.065
-372.815	-86.793	0.551	-0.219
-371.800	800.000	0.102	0.400
-370.785	-108.240	-0.429	0.120
-369.771	-51.646	0.182	0.111
-368.756	228.728	-0.097	0.207
-367.742	147.750	-0.106	-0.187
-366.727	5.001	-0.350	-0.336
-365.712	16.503	-0.246	0.255
-364.698	459.117	-0.050	-0.146
-363.683	-73.737	0.201	0.095
-362.669	-66.092	-0.353	-0.183
-361.654	-46.374	0.135	0.086
-360.639	164.945	0.198	-0.366
-359.625	-105.466	-0.191	0.056
-358.610	-48.774	0.200	0.125
-357.596	195.568	-0.071	-0.141
-356.581	800.000	0.082	-0.339
-355.566	-8.541	-0.206	-0.180
-354.552	-200.000	-0.006	-0.383
-353.537	-104.069	-0.378	-0.114
-352.523	142.730	-0.155	-0.271
-351.508	-115.346	0.358	0.088
-350.493	-200.000	-0.029	0.487
-349.479	141.581	-0.118	-0.205
-348.464	-110.975	-0.314	-0.084
-347.450	164.378	0.043	0.080
-346.435	27.816	0.058	-0.063
-345.420	-97.338	-0.626	-0.212
-344.406	-200.000	-0.036	-0.415
-343.391	51.400	-0.197	-0.245
-342.377	-200.000	-0.025	-0.309
-341.362	-7.505	0.301	-0.266
-340.348	-28.557	0.274	0.206
-339.333	-145.076	-0.250	-0.029
-338.318	13.205	-0.118	-0.120
-337.304	-200.000	0.009	0.255
-336.289	227.036	-0.176	-0.375
-335.275	109.668	0.144	0.225
-334.260	476.634	-0.111	0.329
-333.245	-54.592	0.324	-0.191
-332.231	800.000	-0.067	0.274
-331.216	-122.793	0.144	0.030
-330.202	800.000	0.170	0.733
-329.187	-57.759	-0.362	-0.206
-328.172	800.000	-0.141	-0.547
-327.158	-19.181	-0.308	0.249
-326.143	-128.704	-0.399	-0.073
-325.129	346.378	-0.075	-0.194
-324.114	800.000	0.095	0.376
-323.099	-120.144	-0.241	0.053
-322.085	-136.688	-0.491	0.073
-321.070	-108.219	0.096	0.027
-320.056	117.123	-0.348	0.560
-319.041	140.943	-0.218	-0.377
-318.026	-153.523	0.413	-0.037
-317.012	-76.440	-0.339	-0.155
-315.997	153.318	0.128	-0.229
-314.983	6.238	0.348	-0.337
-313.968	-91.356	0.073	-0.027
-312.953	391.874	0.157	-0.427
-311.939	527.122	-0.128	-0.397
-310.924	-103.575	0.226	-0.069
-309.910	112.064	0.179	0.283
-308.895	800.000	0.094	-0.523
-307.880	-100.604	0.084	0.027
-306.866	-112.964	-0.202	0.052
-305.851	167.390	0.119	-0.221
-304.837	64.926	0.095	-0.126
-303.822	22.413	0.425	0.453
-302.807	-166.089	-0.316	0.017
-301.793	21.227	-0.155	0.164
-300.778	-98.896	-0.280	0.092
-299.764	800.000	0.049	0.184
-298.749	10.748	0.346	0.344
-297.735	800.000	-0.048	0.177
-296.720	-68.534	0.457	0.230
-295.705	-19.230	-0.047	-0.038
-294.691	31.137	0.266	0.298
-293.676	-36.782	-0.090	-0.063
-292.662	800.000	0.062	-0.355
-291.647	225.577	0.198	-0.419
-290.632	123.150	0.237	-0.388
-289.618	-115.665	-0.476	0.115
-288.603	-200.000	0.016	0.201
-287.589	-200.000	0.001	0.115
-286.574	-63.358	0.124	0.066
-285.559	-122.981	-0.661	-0.138
-284.545	-40.514	0.082	-0.055
-283.530	-174.445	-0.268	-0.010
-282.516	18.662	-0.168	-0.176
-281.501	339.934	-0.125	0.320
-280.486	18.692	-0.393	0.410
-279.472	-114.327	0.301	0.075
-278.457	800.000	-0.018	-0.093
-277.443	679.438	-0.036	-0.122
-276.428	-53.431	-0.147	-0.088
-275.413	239.228	-0.141	-0.307
-274.399	19.548	-0.302	-0.316
-273.384	25.540	-0.494	0.535
-272.370	-80.166	0.186	0.081
-271.355	-200.000	-0.021	0.245
-270.340	37.431	0.426	0.492
-269.326	800.000	0.084	0.307
-268.311	-112.858	-0.405	0.104
-267.297	-50.336	0.083	-0.051
-266.282	-36.241	-0.477	-0.335
-265.267	0.014	0.396	-0.367
-264.253	771.252	-0.041	0.146
-263.238	-92.168	-0.169	0.062
-262.224	-200.000	0.013	-0.129
-261.209	-129.512	0.271	-0.048
-260.195	-200.000	0.011	0.225
-259.180	377.796	0.193	-0.516
-258.165	-46.845	0.306	0.195
-257.151	-126.260	0.217	0.042
-256.136	-153.291	-0.186	-0.017
-255.122	200.339	-0.182	-0.365
-254.107	274.233	0.182	0.421
-253.092	-43.383	-0.068	0.044
-252.078	-88.501	-0.105	-0.041
-251.063	-42.908	0.094	-0.062
-250.049	-149.375	-0.256	-0.026
-249.034	70.768	0.047	0.063
-248.019	56.138	0.292	-0.369
-247.005	249.288	-0.098	0.216
-245.990	-0.931	0.339	-0.312
-244.976	-106.513	0.782	-0.226
-243.961	800.000	-0.094	0.401
-242.946	44.677	-0.014	-0.016
-241.932	800.000	-0.100	-0.423
-240.917	15.515	0.146	-0.149
-239.903	-37.254	-0.161	-0.112
-238.888	-26.192	0.363	0.277
-237.873	332.911	0.064	-0.162
-236.859	13.841	-0.162	-0.164
-235.844	47.916	-0.294	-0.357
-234.830	486.735	-0.036	-0.108
-233.815	13.999	0.291	-0.294
-232.800	-60.127	-0.408	-0.226
-231.786	-97.710	0.478	0.160
-230.771	-12.407	0.193	0.164
-229.757	-36.616	0.091	-0.063
-228.742	-35.455	-0.365	-0.257
-227.727	-144.896	0.376	0.044
-226.713	-200.000	-0.033	-0.216
-225.698	-143.782	-0.268	-0.033
-224.684	-172.603	0.389	0.016
-223.669	-139.437	-0.472	-0.065
-222.655	-142.289	-0.204	0.026
-221.640	18.734	-0.339	-0.352
-220.625	-60.887	-0.401	0.220
-219.611	-120.034	0.294	-0.065
-218.596	800.000	-0.109	0.510
-217.582	-119.539	-0.234	-0.052
-216.567	91.143	0.064	0.094
-215.552	-200.000	-0.064	0.610
-214.538	381.625	-0.126	0.339
-213.523	76.585	0.237	0.327
-212.509	-17.880	-0.002	-0.002
-211.494	800.000	-0.040	0.205
-210.479	-64.831	-0.088	0.046
-209.465	214.080	-0.162	0.334
-208.450	25.175	0.279	-0.301
-207.436	61.064	0.353	0.456
-206.421	-45.730	-0.143	-0.092
-205.406	-119.087	0.334	0.075
-204.392	37.055	-0.262	0.302
-203.377	-200.000	-0.011	0.074
-202.363	-68.665	-0.323	0.162
-201.348	114.687	0.087	-0.138
-200.333	-200.000	0.041	0.244
-199.319	-21.707	-0.383	-0.302
-198.304	-114.679	-0.309	0.076
-197.290	-200.000	0.114	0.875
-196.275	-200.000	0.065	-0.533
-195.260	-93.870	0.375	-0.133
-194.246	-99.623	-0.322	-0.104
-193.231	-36.461	0.438	0.306
-192.217	-51.569	0.276	0.167
-191.202	61.917	-0.217	-0.281
-190.187	-193.011	0.273	-0.003
-189.173	-138.933	-0.430	-0.060
-188.158	-200.000	-0.044	-0.265
-187.144	-113.414	0.258	0.065
-186.129	2.614	0.136	0.128
-185.114	-26.112	0.257	-0.196
-184.100	-125.163	-0.298	0.059
-183.085	559.247	-0.061	0.192
-182.071	-163.166	-0.335	0.021
-181.056	18.840	0.069	-0.072
-180.042	-200.000	0.029	0.219
-179.027	28.586	-0.114	0.125
-178.012	672.204	0.110	-0.371
-176.998	800.000	0.014	0.069
-175.983	800.000	-0.083	-0.357
-174.969	185.931	0.241	0.467
-173.954	202.333	0.177	0.355
-172.939	-113.009	-0.418	-0.106
-171.925	-62.021	-0.235	-0.127
-170.910	102.367	0.192	0.292
-169.896	-200.000	-0.229	-0.001
-168.881	-147.467	-0.186	-0.020
-167.866	736.508	-0.009	-0.030
-166.852	38.859	-0.091	0.106
-165.837	-84.178	-0.329	0.135
-164.823	554.385	-0.069	0.217
-163.808	428.849	-0.076	0.215
-162.793	2.157	-0.175	-0.164
-161.779	521.071	-0.078	0.240
-160.764	-178.748	0.273	-0.008
-159.750	-200.000	-0.039	0.299
-158.735	-200.000	-0.022	0.128
-157.720	800.000	-0.044	-0.238
-156.706	-200.000	-0.036	0.371
-155.691	-66.720	0.401	0.205
-154.677	-22.654	0.170	0.133
-153.662	78.873	0.125	0.174
-152.647	-137.637	0.289	0.042
-151.633	61.243	0.150	-0.194
-150.618	-60.996	-0.420	-0.229
-149.604	-33.626	-0.184	-0.131
-148.589	32.323	0.335	-0.375
-147.574	-91.415	-0.218	0.080
-146.560	-159.944	-0.366	-0.026
-145.545	-39.964	0.251	-0.169
-144.531	-170.789	0.361	-0.016
-143.516	-80.672	-0.343	-0.147
-142.502	17.108	-0.288	0.296
-141.487	-85.703	0.407	0.163
-140.472	252.288	0.058	-0.128
-139.458	-156.602	-0.211	-0.017
-138.443	4.066	-0.172	0.163
-137.429	-132.937	-0.476	0.078
-136.414	23.027	0.258	0.275
-135.399	45.955	0.240	0.288
-134.385	-99.100	0.190	-0.062
-133.370	1.322	-0.080	-0.074
-132.356	800.000	0.089	-0.337
-131.341	-200.000	0.020	-0.258
-130.326	-140.107	0.143	-0.019
-129.312	134.410	-0.146	-0.246
-128.297	-19.988	0.041	-0.033
-127.283	107.377	0.258	-0.398
-126.268	-24.024	-0.169	0.131
-125.253	-103.439	0.065	-0.020
-124.239	-122.038	0.337	-0.071
-123.224	10.553	-0.160	-0.157
-122.210	62.993	0.114	0.148
-121.195	-101.056	-0.562	-0.177
-120.180	132.397	0.127	0.213
-119.166	-200.000	0.026	0.369
-118.151	-200.000	-0.016	0.132
-117.137	800.000	-0.038	0.186
-116.122	-169.496	-0.203	-0.009
-115.107	-161.562	0.193	-0.013
-114.093	154.705	0.171	-0.304
-113.078	-91.317	-0.263	0.097
-112.064	323.672	-0.123	-0.304
-111.049	32.031	-0.333	-0.372
-110.034	-200.000	-0.001	-0.058
-109.020	108.794	0.370	0.573
-108.005	78.963	0.181	0.252
-106.991	261.904	-0.089	-0.201
-105.976	800.000	0.069	-0.265
-104.962	-39.535	0.389	-0.263
-103.947	-168.677	0.292	0.014
-102.932	538.013	-0.039	-0.122
-101.918	-80.711	-0.303	-0.130
-100.903	-34.174	0.215	0.152
-99.889	-129.873	0.444	0.078
-98.874	-102.418	-0.282	0.087
-97.859	34.846	0.271	0.307
-96.845	800.000	-0.073	0.271
-95.830	-107.325	0.070	0.020
-94.816	-21.350	-0.360	-0.284
-93.801	-200.000	-0.049	-0.372
-92.786	-150.202	-0.280	0.028
-91.772	800.000	0.047	0.193
-90.757	56.876	0.162	0.205
-89.743	-186.531	0.540	-0.010
-88.728	800.000	0.076	-0.430
-87.713	78.544	-0.259	0.359
-86.699	-171.358	-0.328	-0.014
-85.684	37.809	0.203	0.233
-84.670	-173.145	-0.341	-0.013
-83.655	-175.169	0.130	0.005
-82.640	61.441	0.150	-0.193
-81.626	-52.223	-0.410	0.245
-80.611	-76.682	0.171	0.077
-79.597	185.903	-0.164	0.316
-78.582	33.415	-0.352	-0.395
-77.567	-92.511	-0.073	-0.026
-76.553	-152.120	-0.102	0.009
-75.538	-165.062	-0.533	-0.030
-74.524	-200.000	0.000	-0.182
-73.509	6.376	0.147	-0.141
-72.494	-113.790	0.521	-0.130
-71.480	20.525	0.354	-0.370
-70.465	-107.216	-0.388	-0.110
-69.451	194.268	0.239	0.471
-68.436	-91.027	0.168	-0.062
-67.422	-88.309	-0.558	0.215
-66.407	-60.457	-0.044	-0.024
-65.392	-105.000	0.330	-0.097
-64.378	-12.707	-0.095	0.080
-63.363	36.431	0.387	0.442
-62.349	31.207	-0.381	0.422
-61.334	43.030	-2.090	-2.465
-60.319	48.437	1.296	1.570
-59.305	187.257	-3.872	-7.485
-58.290	49.808	4.316	5.261
-57.276	302.533	4.294	10.310
-56.261	-200.000	24.304	319.535
-55.246	355.623	1303.515	3367.111
-54.232	53.398	2842.307	3523.278
-53.217	51.675	2659.457	3269.885
-52.203	31.920	2388.788	2658.979
-51.188	27.919	2055.126	2238.327
-50.173	24.559	1940.884	2074.657
-49.159	23.465	1929.910	2050.143
-48.144	23.042	1925.273	2040.220
-47.130	22.893	1922.978	2035.990
-46.115	22.924	1921.268	2034.454
-45.100	22.925	1919.474	2032.481
-44.086	22.856	1918.881	2030.977
-43.071	22.896	1917.249	2029.636
-42.057	22.842	1914.891	2026.433
-41.042	22.868	1913.805	2025.497
-40.027	22.917	1912.500	2024.608
-39.013	22.733	1912.098	2021.980
-37.998	22.854	1909.700	2020.757
-36.984	22.769	1908.438	2018.359
-35.969	22.882	1907.449	2018.539
-34.954	22.890	1905.573	2016.559
-33.940	22.892	1904.484	2015.352
-32.925	22.801	1903.666	2013.364
-31.911	22.763	1901.914	2010.990
-30.896	22.770	1900.729	2009.738
-29.881	22.783	1899.035	2008.017
-28.867	22.745	1897.952	2006.361
-27.852	22.640	1897.074	2004.150
-26.838	22.660	1895.307	2002.437
-25.823	22.695	1894.446	2001.844
-24.809	22.651	1893.047	1999.790
-23.794	22.725	1891.722	1999.149
-22.779	22.625	1890.107	1996.220
-21.765	22.772	1887.791	1995.367
-20.750	22.683	1887.506	1993.981
-19.736	22.711	1886.821	1993.497
-18.721	22.606	1885.949	1991.302
-17.706	22.546	1884.634	1989.154
-16.692	22.628	1883.225	1988.517
-15.677	22.699	1881.698	1987.632
-14.663	22.643	1880.580	1985.733
-13.648	22.640	1879.334	1984.310
-12.633	22.666	1878.039	1983.152
-11.619	22.669	1876.423	1981.407
-10.604	22.609	1875.450	1979.620
-9.590	22.613	1874.474	1978.556
-8.575	22.620	1873.244	1977.265
-7.560	22.435	1872.821	1974.656
-6.546	22.645	1870.929	1974.942
-5.531	22.517	1869.764	1972.187
-4.517	22.490	1868.746	1970.734
-3.502	22.649	1866.693	1970.282
-2.487	22.693	1865.711	1969.655
-1.473	22.875	1861.547	1967.226
-0.458	22.492	1844.265	1944.628
0.556	18.929	1990.521	2044.078
1.571	17.526	2193.487	2233.739
2.586	18.399	2232.212	2284.609
3.600	18.405	2234.586	2286.852
4.615	18.444	2233.499	2285.986
5.629	18.362	2231.816	2282.898
6.644	18.345	2230.093	2280.627
7.659	18.431	2227.895	2279.257
8.673	18.413	2225.746	2276.548
9.688	18.064	2234.109	2280.146
10.702	16.885	2314.209	2345.228
11.717	15.239	2377.764	2385.820
12.731	7.206	2359.299	2252.568
13.746	0.923	2343.200	2147.525
14.761	0.187	2339.036	2132.975
15.775	0.075	2337.770	2129.970
16.790	-0.013	2335.788	2126.663
17.804	0.002	2334.300	2125.266
18.819	0.039	2333.583	2124.889
19.834	0.041	2331.807	2123.033
20.848	0.156	2329.603	2122.409
21.863	0.033	2328.494	2119.395
22.877	0.050	2326.582	2117.651
23.892	-0.009	2325.015	2115.135
24.907	-0.025	2322.734	2112.582
25.921	0.032	2320.996	2111.556
26.936	0.061	2317.557	2108.573
27.950	-0.019	2316.417	2106.160
28.965	-0.015	2313.743	2103.531
29.980	0.024	2312.176	2102.406
30.994	0.153	2309.841	2101.844
32.009	3.881	2322.160	2165.336
33.023	13.079	2347.587	2319.157
34.038	16.744	2353.732	2376.726
35.053	16.878	2351.628	2376.206
36.067	16.953	2349.358	2374.689
37.082	16.943	2347.507	2372.390
38.096	16.972	2345.617	2370.604
39.111	17.212	2342.220	2370.254
40.126	17.247	2339.844	2368.057
41.140	17.366	2338.480	2368.053
42.155	17.315	2336.994	2365.556
43.169	17.207	2336.144	2362.900
44.184	16.962	2332.686	2355.704
45.199	17.065	2330.038	2354.185
46.213	17.136	2329.455	2354.301
47.228	17.180	2328.467	2353.630
48.242	17.107	2327.236	2351.094
49.257	17.295	2324.598	2350.757
50.271	17.185	2322.884	2347.217
51.286	17.062	2320.481	2342.798
52.301	17.016	2318.602	2339.992
53.315	17.558	2320.427	2349.071
54.330	19.755	2325.262	2384.160
55.344	21.049	2325.481	2402.022
56.359	21.193	2322.561	2400.706
57.374	21.233	2321.601	2399.981
58.388	21.387	2319.043	2399.173
59.403	21.326	2315.986	2394.887
60.417	21.230	2311.227	2388.367
61.432	21.359	2310.455	2389.052
62.447	21.642	2309.322	2391.474
63.461	21.571	2307.874	2388.714
64.476	21.771	2305.299	2388.501
65.490	21.507	2304.468	2383.751
66.505	20.708	2301.127	2369.075
67.520	19.162	2294.338	2340.689
68.534	17.424	2287.569	2309.821
69.549	17.157	2283.865	2302.155
70.563	17.054	2280.780	2297.380
71.578	17.131	2278.411	2295.763
72.593	17.172	2277.862	2295.490
73.607	17.089	2275.868	2292.080
74.622	17.134	2273.979	2290.514
75.636	17.049	2270.636	2285.715
76.651	17.037	2270.079	2284.726
77.666	17.045	2267.261	2281.716
78.680	17.110	2265.245	2280.303
79.695	16.939	2263.678	2276.146
80.709	16.977	2262.125	2274.818
81.724	17.055	2259.201	2272.655
82.739	16.970	2257.313	2269.335
83.753	16.846	2255.498	2265.582
84.768	16.862	2254.023	2264.042
85.782	16.888	2252.031	2262.118
86.797	16.875	2250.397	2260.032
87.812	16.995	2248.673	2259.642
88.826	16.947	2246.669	2256.708
89.841	16.869	2244.807	2253.530
90.855	16.988	2241.550	2251.570
91.870	16.989	2241.062	2250.836
92.884	16.960	2238.968	2248.068
93.899	16.893	2237.552	2245.483
94.914	17.477	2239.474	2254.924
95.928	19.402	2244.823	2285.711
96.943	20.021	2242.729	2291.539
97.957	18.122	2235.001	2258.179
98.972	17.052	2229.881	2238.560
99.987	16.820	2227.004	2232.335
101.001	16.974	2224.015	2231.107
102.016	16.920	2222.430	2228.528
103.030	16.911	2219.677	2225.383
104.045	16.847	2218.059	2222.652
105.060	16.930	2216.045	2221.467
106.074	16.967	2214.044	2219.683
107.089	16.773	2213.134	2215.948
108.103	16.894	2211.227	2215.370
109.118	16.903	2209.782	2213.766
110.133	17.093	2208.305	2214.513
111.147	16.928	2206.340	2210.120
112.162	17.012	2204.697	2209.304
113.176	17.072	2202.588	2207.711
114.191	17.070	2201.384	2206.217
115.206	17.131	2199.823	2205.180
116.220	17.019	2197.762	2201.389
117.235	16.966	2195.924	2198.598
118.249	16.971	2194.247	2196.725
119.264	16.954	2192.951	2194.947
120.279	17.032	2190.870	2193.605
121.293	17.039	2188.446	2191.006
122.308	16.987	2187.301	2188.924
123.322	17.015	2185.865	2187.597
124.337	17.483	2186.916	2194.444
125.352	19.471	2193.535	2226.635
126.366	20.034	2190.927	2231.012
127.381	18.007	2181.693	2195.193
128.395	17.087	2177.245	2178.587
129.410	17.122	2174.534	2176.071
130.424	16.988	2173.520	2173.064
131.439	17.004	2171.747	2171.237
132.454	16.906	2171.278	2169.248
133.468	17.162	2167.256	2168.253
134.483	17.135	2166.366	2166.767
135.497	17.105	2164.659	2164.408
136.512	17.112	2162.543	2162.119
137.527	17.009	2160.236	2158.247
138.541	16.991	2159.333	2156.855
139.556	16.837	2159.061	2154.357
140.570	16.924	2156.971	2153.125
141.585	16.860	2154.616	2149.701
142.600	16.939	2152.698	2148.535
143.614	16.878	2152.102	2146.910
144.629	16.811	2149.551	2143.253
145.643	16.887	2148.410	2142.828
146.658	16.853	2146.599	2140.325
147.673	16.884	2144.542	2138.415
148.687	16.813	2144.109	2136.820
149.702	16.900	2142.921	2136.486
150.716	16.916	2141.012	2134.530
151.731	16.961	2140.123	2133.955
152.746	16.863	2139.317	2131.663
153.760	17.462	2141.796	2141.453
154.775	19.507	2146.965	2172.256
155.789	20.124	2144.213	2177.002
156.804	18.129	2135.626	2142.917
157.819	17.025	2129.474	2122.618
158.833	16.917	2127.006	2118.554
159.848	17.012	2124.639	2117.133
160.862	17.077	2122.225	2115.285
161.877	17.038	2122.134	2114.449
162.892	17.042	2121.713	2113.833
163.906	17.158	2120.045	2113.369
164.921	17.086	2118.063	2110.243
165.935	17.043	2116.169	2107.558
166.950	17.023	2114.522	2105.415
167.964	17.095	2112.083	2103.634
168.979	16.978	2111.048	2100.896
169.994	16.983	2109.485	2099.156
171.008	16.979	2107.277	2096.653
172.023	17.066	2105.214	2095.430
173.037	17.080	2105.057	2095.200
174.052	17.111	2103.224	2093.511
175.067	17.000	2101.927	2090.588
176.081	16.963	2099.976	2087.937
177.096	16.951	2099.107	2086.672
178.110	16.925	2098.375	2085.375
179.125	17.088	2095.933	2084.720
180.140	17.126	2094.061	2083.067
181.154	16.987	2093.872	2080.916
182.169	17.105	2092.197	2080.463
183.183	17.608	2094.166	2088.362
184.198	19.859	2099.446	2121.149
185.213	20.204	2097.415	2123.096
186.227	18.149	2088.907	2089.023
187.242	17.096	2085.968	2072.909
188.256	17.018	2084.266	2070.013
189.271	17.020	2082.247	2067.783
190.286	17.008	2080.185	2065.348
191.300	16.948	2078.563	2062.753
192.315	17.104	2075.967	2061.838
193.329	16.954	2075.709	2059.504
194.344	17.215	2073.948	2060.697
195.359	17.284	2071.935	2059.287
196.373	17.030	2070.477	2054.493
197.388	17.000	2067.449	2050.889
198.402	17.015	2065.332	2048.717
199.417	17.028	2063.231	2046.554
200.432	16.986	2062.079	2044.654
201.446	16.946	2061.890	2043.740
202.461	16.987	2059.743	2041.858
203.475	16.920	2057.671	2038.754
204.490	16.989	2055.114	2036.808
205.504	16.971	2054.228	2035.467
206.519	16.965	2052.229	2033.167
207.534	17.068	2049.342	2031.302
208.548	16.981	2049.185	2029.856
209.563	17.009	2047.547	2028.327
210.577	17.012	2046.691	2027.275
211.592	17.091	2045.692	2026.994
212.607	18.059	2050.308	2042.965
213.621	20.643	2055.058	2078.523
214.636	20.147	2049.178	2066.391
215.650	17.882	2041.076	2030.919
216.665	17.151	2038.468	2019.338
217.680	16.997	2037.126	2015.931
218.694	16.996	2034.993	2013.571
219.709	16.921	2034.097	2011.553
220.723	17.051	2033.238	2012.007
221.738	17.127	2031.120	2010.575
222.753	17.150	2028.954	2008.458
223.767	17.056	2027.336	2005.502
224.782	17.137	2024.940	2003.854
225.796	17.082	2023.716	2001.752
226.811	17.123	2022.784	2001.075
227.826	17.119	2020.653	1998.680
228.840	17.044	2019.444	1996.360
229.855	16.966	2018.436	1994.206
230.869	17.052	2017.003	1993.565
231.884	16.910	2016.079	1990.735
232.899	17.003	2013.957	1989.503
233.913	16.939	2013.620	1988.167
234.928	17.036	2011.505	1986.984
235.942	16.998	2009.591	1984.412
236.957	17.019	2007.108	1981.965
237.972	16.994	2006.979	1981.312
238.986	16.967	2006.303	1980.094
240.001	16.963	2004.556	1978.081
241.015	17.090	2003.721	1978.505
242.030	17.556	2004.798	1984.791
243.045	19.572	2008.645	2012.002
244.059	19.838	2004.654	2010.874
245.074	17.813	1998.113	1980.470
246.088	17.121	1994.179	1968.272
247.103	17.058	1993.031	1966.163
248.117	17.213	1991.315	1966.037
249.132	16.960	1990.317	1961.878
250.147	17.036	1987.943	1960.188
251.161	17.009	1986.849	1958.556
252.176	17.183	1985.654	1959.165
253.190	17.257	1983.098	1957.261
254.205	17.214	1981.227	1954.690
255.220	17.146	1980.830	1953.276
256.234	17.187	1979.380	1952.083
257.249	17.209	1977.644	1950.389
258.263	17.213	1976.301	1948.886
259.278	17.126	1976.152	1947.503
260.293	17.079	1973.575	1944.190
261.307	16.980	1971.711	1940.976
262.322	16.919	1970.046	1938.410
263.336	16.866	1968.678	1936.214
264.351	16.859	1967.085	1934.346
265.366	16.872	1966.069	1933.260
266.380	16.942	1965.251	1933.025
267.395	16.956	1963.708	1931.430
268.409	16.903	1961.709	1928.627
269.424	16.980	1960.175	1927.778
270.439	16.926	1959.346	1926.107
271.453	17.662	1961.198	1936.107
272.468	19.940	1964.234	1964.891
273.482	19.893	1960.550	1960.439
274.497	17.937	1953.335	1930.780
275.512	16.993	1949.140	1915.693
276.526	16.956	1948.238	1914.155
277.541	16.902	1946.121	1911.229
278.555	16.958	1944.404	1909.952
279.570	16.812	1943.390	1907.077
280.585	16.812	1942.464	1905.941
281.599	17.043	1939.773	1905.679
282.614	17.015	1938.464	1903.852
283.628	17.199	1938.247	1905.485
284.643	17.165	1937.942	1904.571
285.657	17.293	1937.171	1905.023
286.672	17.331	1934.716	1902.817
287.687	17.215	1932.670	1899.273
288.701	17.397	1930.810	1899.259
289.716	17.255	1930.060	1896.694
290.730	17.287	1928.359	1895.156
291.745	17.308	1927.314	1894.142
292.760	17.298	1926.649	1893.151
293.774	17.121	1925.818	1890.122
294.789	17.124	1923.787	1887.942
295.803	17.095	1921.140	1884.795
296.818	16.954	1920.720	1882.585
297.833	17.136	1919.307	1883.003
298.847	17.161	1917.238	1881.016
299.862	17.153	1915.775	1879.272
300.876	17.700	1917.203	1886.538
301.891	19.872	1921.563	1914.780
302.906	20.241	1919.630	1916.728
303.920	17.987	1913.722	1885.614
304.935	17.251	1909.435	1873.023
305.949	17.206	1907.522	1870.422
306.964	17.179	1905.021	1867.446
307.979	17.224	1903.774	1866.492
308.993	17.339	1902.109	1865.910
310.008	17.419	1901.092	1865.565
311.022	17.303	1900.419	1863.410
312.037	17.300	1898.538	1861.307
313.052	17.250	1896.842	1858.869
314.066	17.442	1894.984	1858.936
315.081	17.357	1894.111	1856.930
316.095	17.404	1892.029	1855.177
317.110	17.341	1890.701	1852.962
318.125	17.328	1888.581	1850.521
319.139	17.258	1888.249	1849.207
320.154	17.231	1886.284	1846.767
321.168	17.215	1885.768	1845.869
322.183	17.049	1884.041	1842.145
323.197	17.071	1882.857	1841.005
324.212	16.932	1880.779	1837.239
325.227	16.921	1879.494	1835.645
326.241	16.993	1876.951	1833.727
327.256	17.038	1875.296	1832.377
328.270	17.015	1875.166	1831.781
329.285	17.029	1874.471	1831.038
330.300	17.831	1877.961	1842.930
331.314	20.096	1881.932	1871.220
332.329	20.081	1877.363	1866.292
333.343	17.735	1870.812	1834.222
334.358	17.116	1867.278	1823.850
335.373	17.047	1866.033	1821.673
336.387	16.977	1863.319	1818.055
337.402	16.881	1861.905	1815.422
338.416	16.922	1860.376	1814.154
339.431	17.054	1859.818	1814.819
340.446	17.060	1857.703	1812.599
341.460	17.141	1856.590	1812.158
342.475	17.211	1855.541	1811.671
343.489	17.245	1854.295	1810.600
344.504	17.211	1853.438	1809.181
345.519	17.310	1851.840	1808.467
346.533	17.317	1849.948	1806.480
347.548	17.429	1848.790	1806.325
348.562	17.514	1846.617	1804.891
349.577	17.466	1846.393	1803.952
350.592	17.465	1845.788	1803.130
351.606	17.404	1844.162	1800.674
352.621	17.464	1841.360	1798.362
353.635	17.235	1840.755	1795.126
354.650	17.252	1838.845	1793.233
355.665	17.278	1836.870	1791.365
356.679	17.135	1836.531	1789.304
357.694	17.084	1835.028	1787.083
358.708	17.113	1834.321	1786.486
359.723	18.290	1835.982	1800.346
360.738	20.285	1840.022	1825.204
361.752	19.693	1836.159	1814.909
362.767	17.522	1829.803	1785.544
363.781	17.068	1826.909	1777.728
364.796	17.030	1825.230	1775.482
365.810	17.081	1824.024	1774.634
366.825	17.134	1823.207	1774.182
367.840	17.210	1822.289	1773.873
368.854	17.151	1821.021	1771.808
369.869	17.114	1819.591	1769.824
370.883	17.015	1817.859	1766.886
371.898	17.042	1816.417	1765.559
372.913	17.147	1814.244	1764.331
373.927	17.007	1814.104	1762.519
374.942	17.207	1812.618	1762.952
375.956	17.179	1811.372	1761.234
376.971	17.068	1809.525	1758.074
377.986	17.199	1807.452	1757.215
379.000	17.141	1806.077	1755.063
380.015	17.110	1804.798	1753.284
381.029	17.166	1803.478	1752.379
382.044	17.043	1801.023	1748.504
383.059	17.010	1799.731	1746.707
384.073	16.977	1799.518	1745.948
385.088	17.041	1797.532	1744.472
386.102	16.987	1796.257	1742.468
387.117	16.954	1794.533	1740.247
388.132	16.913	1794.753	1739.824
389.146	17.672	1797.889	1750.498
390.161	20.124	1800.472	1778.116
391.175	19.903	1794.490	1769.721
392.190	17.769	1786.519	1739.797
393.205	17.122	1784.235	1730.739
394.219	17.031	1783.035	1728.436
395.234	17.019	1781.893	1726.995
396.248	16.964	1780.163	1724.551
397.263	17.102	1777.735	1723.398
398.278	16.928	1776.739	1720.454
399.292	16.908	1776.165	1719.494
400.307	17.012	1775.737	1719.929
401.321	17.056	1774.470	1718.941
402.336	17.162	1772.494	1717.904
403.350	17.212	1770.913	1716.673
404.365	17.252	1770.140	1716.124
405.380	17.419	1769.721	1717.204
406.394	17.599	1768.013	1717.164
407.409	17.489	1766.400	1714.279
408.423	17.326	1766.031	1712.070
409.438	17.478	1763.646	1711.087
410.453	17.377	1762.342	1708.594
411.467	17.347	1761.754	1707.520
412.482	17.383	1759.521	1705.511
413.496	17.178	1758.890	1702.638
414.511	17.172	1756.211	1699.780
415.526	17.190	1753.968	1697.579
416.540	17.316	1752.116	1696.854
417.555	17.185	1752.617	1695.823
418.569	17.165	1752.311	1695.115
419.584	17.153	1752.160	1694.646
420.599	17.308	1751.809	1695.663
421.613	17.147	1751.150	1693.204
422.628	17.212	1749.878	1692.422
423.642	17.159	1747.469	1689.368
424.657	17.266	1745.725	1688.547
425.672	17.263	1743.622	1686.280
426.686	17.268	1742.933	1685.459
427.701	17.099	1741.840	1682.513
428.715	17.209	1739.902	1681.537
429.730	17.329	1738.626	1681.301
430.745	17.143	1737.399	1678.063
431.759	17.236	1736.744	1678.153
432.774	17.365	1736.341	1678.837
433.788	17.481	1736.841	1680.276
434.803	17.717	1735.818	1681.420
435.818	17.615	1735.118	1679.538
436.832	17.530	1734.942	1678.318
437.847	16.619	1727.762	1662.185
438.861	9.328	1707.049	1570.697
439.876	1.693	1692.530	1482.617
440.890	0.275	1690.069	1466.421
441.905	0.243	1689.217	1465.189
442.920	0.158	1687.876	1463.021
443.934	0.220	1686.522	1462.279
444.949	0.110	1685.374	1460.038
445.963	0.083	1684.411	1458.766
446.978	0.103	1683.823	1458.276
447.993	0.220	1681.700	1457.398
449.007	0.206	1679.279	1454.994
450.022	0.152	1677.875	1453.072
451.036	0.183	1677.083	1452.516
452.051	1.100	1681.698	1465.249
453.066	8.488	1697.837	1551.419
454.080	15.991	1708.642	1634.519
455.095	17.255	1711.226	1649.130
456.109	17.663	1710.827	1652.524
457.124	17.862	1709.541	1653.023
458.139	17.840	1708.649	1651.745
459.153	17.739	1707.568	1649.522
460.168	17.631	1705.816	1646.586
461.182	17.714	1703.722	1645.168
462.197	17.538	1702.090	1641.696
463.212	17.557	1700.240	1639.896
464.226	17.576	1699.649	1639.317
465.241	17.723	1697.562	1638.527
466.255	17.797	1697.067	1638.566
467.270	17.658	1696.399	1636.382
468.285	17.669	1694.640	1634.595
469.299	17.539	1693.371	1631.920
470.314	17.651	1690.997	1630.521
471.328	17.541	1689.999	1628.305
472.343	17.712	1689.119	1628.900
473.358	17.882	1687.824	1629.088
474.372	17.607	1687.202	1625.661
475.387	17.722	1685.416	1624.842
476.401	17.598	1684.716	1622.787
477.416	17.680	1683.378	1622.085
478.430	17.785	1682.782	1622.322
479.445	17.587	1681.331	1618.839
480.460	17.594	1679.287	1616.743
481.474	17.611	1678.336	1615.799
482.489	17.704	1677.332	1615.521
483.503	17.770	1675.680	1614.368
484.518	17.720	1674.637	1612.690
485.533	17.893	1673.057	1612.626
486.547	17.921	1671.805	1611.491
487.562	18.160	1670.670	1612.468
488.576	18.012	1669.399	1609.645
489.591	18.000	1667.951	1607.943
490.606	17.875	1666.654	1605.319
491.620	17.933	1664.921	1604.003
492.635	17.817	1663.693	1601.533
493.649	17.910	1662.245	1600.825
494.664	17.759	1661.246	1598.251
495.679	17.620	1658.957	1594.545
496.693	17.527	1658.431	1592.975
497.708	17.694	1657.433	1593.397
498.722	17.699	1656.609	1592.464
499.737	17.883	1654.898	1592.354
500.752	17.837	1652.842	1589.757
501.766	17.757	1651.429	1587.456
502.781	17.768	1649.893	1585.895
503.795	17.789	1648.363	1584.423
504.810	17.699	1648.411	1583.440
505.825	17.872	1647.882	1584.364
506.839	17.809	1646.538	1582.293
507.854	17.881	1643.800	1580.142
508.868	17.842	1643.102	1578.915
509.883	17.826	1643.180	1578.656
510.898	17.837	1641.732	1577.174
511.912	17.834	1639.485	1574.798
512.927	17.890	1637.139	1572.874
513.941	17.853	1636.364	1571.607
514.956	17.886	1635.548	1570.939
515.971	18.023	1634.410	1570.925
516.985	17.889	1633.739	1568.854
518.000	17.955	1632.711	1568.281
519.014	17.911	1631.777	1566.795
520.029	18.051	1629.796	1565.993
521.043	18.012	1627.706	1563.440
522.058	17.931	1626.756	1561.595
523.073	17.875	1626.924	1561.052
524.087	18.031	1625.788	1561.207
525.102	18.031	1623.831	1559.146
526.116	17.856	1622.683	1556.255
527.131	17.772	1621.364	1554.032
528.146	18.031	1620.489	1555.375
529.160	17.904	1619.720	1553.286
530.175	17.938	1618.347	1552.101
531.189	17.980	1617.473	1551.456
532.204	18.065	1616.050	1550.680
533.219	17.902	1614.406	1547.439
534.233	17.912	1613.541	1546.514
535.248	18.023	1612.657	1546.491
536.262	18.088	1612.259	1546.510
537.277	18.123	1610.330	1544.791
538.292	17.960	1609.488	1542.319
539.306	18.089	1607.144	1541.060
540.321	18.066	1605.702	1539.289
541.335	18.139	1605.712	1539.776
542.350	17.960	1604.106	1536.426
543.365	18.091	1602.261	1535.661
544.379	18.234	1600.346	1534.935
545.394	18.239	1599.304	1533.796
546.408	17.938	1598.746	1530.362
547.423	17.761	1596.864	1526.790
548.438	17.806	1595.396	1525.601
549.452	17.925	1594.732	1525.856
550.467	17.877	1593.072	1523.656
551.481	17.796	1592.936	1522.618
552.496	17.921	1591.754	1522.422
553.511	18.081	1590.376	1522.356
554.525	17.980	1589.911	1520.822
555.540	18.112	1589.069	1521.018
556.554	18.138	1587.559	1519.626
557.569	18.061	1586.129	1517.383
558.583	18.093	1584.488	1515.917
559.598	17.986	1583.344	1513.687
560.613	17.979	1582.713	1512.842
561.627	18.111	1580.934	1512.133
562.642	18.147	1579.399	1510.809
563.656	18.206	1578.070	1509.873
564.671	18.166	1577.220	1508.527
565.686	18.049	1576.633	1506.753
566.700	18.042	1574.814	1504.771
567.715	18.109	1572.407	1502.880
568.729	18.140	1571.110	1501.736
569.744	18.082	1570.558	1500.512
570.759	18.084	1569.546	1499.390
571.773	18.129	1568.304	1498.416
572.788	18.181	1566.562	1497.032
573.802	18.003	1565.895	1494.653
574.817	18.036	1564.290	1493.226
575.832	18.164	1563.354	1493.282
576.846	18.102	1562.246	1491.502
577.861	18.031	1560.958	1489.469
578.875	18.068	1560.719	1489.385
579.890	18.258	1559.382	1489.598
580.905	18.183	1558.604	1488.020
581.919	18.103	1557.603	1486.183
582.934	18.361	1556.592	1487.292
583.948	18.309	1554.919	1485.066
584.963	18.220	1553.600	1482.850
585.978	18.043	1552.292	1479.888
586.992	18.119	1552.248	1480.330
588.007	18.207	1551.612	1480.311
589.021	18.102	1550.359	1478.024
590.036	18.173	1549.005	1477.173
591.051	18.379	1547.297	1477.156
592.065	18.381	1545.712	1475.477
593.080	18.382	1543.806	1473.494
594.094	18.451	1542.097	1472.283
595.109	18.073	1540.782	1467.592
596.123	17.985	1539.509	1465.445
597.138	18.101	1538.279	1465.094
598.153	18.222	1537.141	1464.880
599.167	18.064	1536.525	1462.759
600.182	18.192	1535.257	1462.476
601.196	18.152	1534.641	1461.367
602.211	18.169	1533.806	1460.542
603.226	18.103	1532.403	1458.466
604.240	18.163	1530.894	1457.372
605.255	18.338	1529.526	1457.387
606.269	18.353	1529.031	1456.871
607.284	18.327	1527.571	1455.082
608.299	18.189	1526.802	1453.001
609.313	18.149	1526.001	1451.727
610.328	18.159	1524.677	1450.376
611.342	18.260	1522.301	1448.804
612.357	18.219	1521.903	1447.896
613.372	18.312	1520.940	1447.600
614.386	18.339	1519.570	1446.356
615.401	18.321	1518.493	1445.002
616.415	18.266	1517.789	1443.688
617.430	18.430	1517.338	1444.482
618.445	18.372	1515.581	1442.144
619.459	18.315	1514.698	1440.651
620.474	18.250	1513.565	1438.849
621.488	18.243	1512.456	1437.567
622.503	18.217	1511.300	1436.073
623.518	18.247	1510.193	1435.106
624.532	18.298	1508.704	1433.947
625.547	18.378	1507.411	1433.216
626.561	18.383	1507.119	1432.808
627.576	18.306	1505.988	1430.919
628.591	18.415	1504.983	1430.703
629.605	18.333	1503.536	1428.470
630.620	18.358	1502.375	1427.408
631.634	18.337	1501.227	1425.966
632.649	18.279	1500.506	1424.627
633.663	18.321	1498.701	1423.091
634.678	18.407	1497.308	1422.320
635.693	18.364	1496.194	1420.736
636.707	18.281	1495.012	1418.751
637.722	18.403	1494.212	1418.833
638.736	18.461	1492.848	1417.850
639.751	18.340	1491.947	1415.820
640.766	18.300	1490.983	1414.408
641.780	18.473	1489.302	1414.079
642.795	18.435	1488.511	1412.841
643.809	18.413	1487.547	1411.571
644.824	18.429	1486.775	1410.809
645.839	18.440	1485.688	1409.698
646.853	18.464	1484.353	1408.457
647.868	18.414	1482.720	1406.326
648.882	18.220	1482.108	1403.983
649.897	18.360	1480.754	1403.686
650.912	18.618	1478.646	1403.642
651.926	18.474	1478.469	1402.119
652.941	18.425	1477.161	1400.308
653.955	18.257	1476.017	1397.672
654.970	18.394	1474.543	1397.240
655.985	18.498	1471.987	1395.502
656.999	18.508	1471.079	1394.556
658.014	18.615	1469.730	1393.984
659.028	18.664	1468.538	1393.082
660.043	18.711	1468.110	1392.894
661.058	18.637	1467.016	1391.088
662.072	18.443	1466.759	1389.095
663.087	18.459	1465.806	1388.154
664.101	18.353	1463.872	1385.298
665.116	18.517	1463.225	1385.853
666.131	18.565	1462.319	1385.219
667.145	18.438	1461.123	1382.892
668.160	18.529	1459.466	1381.889
669.174	18.545	1458.151	1380.614
670.189	18.411	1457.822	1379.046
671.204	18.303	1456.881	1377.122
672.218	18.468	1455.781	1377.249
673.233	18.415	1454.474	1375.424
674.247	18.578	1452.899	1375.081
675.262	18.693	1452.309	1375.283
676.276	18.620	1451.096	1373.387
677.291	18.535	1449.993	1371.493
678.306	18.513	1449.146	1370.351
679.320	18.411	1448.028	1368.309
680.335	18.396	1447.634	1367.652
681.349	18.491	1446.559	1367.232
682.364	18.479	1445.185	1365.675
683.379	18.579	1444.119	1365.304
684.393	18.376	1443.074	1362.535
685.408	18.458	1442.040	1362.043
686.422	18.477	1440.523	1360.600
687.437	18.444	1440.632	1360.278
688.452	18.500	1439.496	1359.493
689.466	18.593	1437.635	1358.308
690.481	18.589	1435.918	1356.497
691.495	18.594	1435.186	1355.681
692.510	18.339	1434.651	1352.990
693.525	18.362	1433.167	1351.610
694.539	18.325	1431.754	1349.820
695.554	18.395	1431.655	1350.120
696.568	18.413	1431.046	1349.529
697.583	18.441	1429.970	1348.572
698.598	18.520	1429.310	1348.411
699.612	18.504	1427.582	1346.497
700.627	18.635	1426.126	1345.994
701.641	18.585	1425.151	1344.519
702.656	18.567	1423.869	1343.005
703.671	18.577	1423.554	1342.624
704.685	18.581	1423.069	1342.043
705.700	18.588	1421.569	1340.520
706.714	18.656	1420.054	1339.462
707.729	18.533	1418.961	1337.307
708.744	18.491	1417.895	1335.815
709.758	18.648	1416.644	1335.705
710.773	18.659	1415.329	1334.390
711.787	18.692	1414.021	1333.253
712.802	18.535	1412.793	1330.716
713.816	18.569	1411.816	1329.901
714.831	18.623	1410.974	1329.366
715.846	18.645	1409.824	1328.299
716.860	18.699	1408.842	1327.631
717.875	18.788	1407.400	1326.805
718.889	18.592	1406.949	1324.703
719.904	18.602	1405.682	1323.430
720.919	18.728	1404.390	1323.024
721.933	18.701	1403.789	1322.093
722.948	18.645	1403.006	1320.769
723.962	18.685	1401.662	1319.650
724.977	18.812	1400.397	1319.284
725.992	18.713	1399.717	1317.720
727.006	18.561	1398.134	1314.904
728.021	18.613	1396.931	1314.016
729.035	18.636	1396.211	1313.355
730.050	18.597	1394.765	1311.536
731.065	18.555	1394.054	1310.387
732.079	18.670	1393.309	1310.419
733.094	18.773	1391.850	1309.672
734.108	18.826	1389.917	1308.108
735.123	18.656	1388.900	1305.689
736.138	18.758	1387.452	1304.955
737.152	18.692	1386.184	1303.102
738.167	18.757	1385.884	1303.155
739.181	18.692	1385.414	1302.065
740.196	18.668	1384.629	1300.987
741.211	18.612	1383.720	1299.554
742.225	18.579	1383.118	1298.581
743.240	18.638	1381.290	1297.158
744.254	18.658	1379.500	1295.475
745.269	18.494	1379.128	1293.725
746.284	18.599	1378.270	1293.558
747.298	18.446	1377.150	1291.197
748.313	18.506	1375.546	1289.988
749.327	18.441	1375.005	1288.839
750.342	18.466	1374.331	1288.239
751.356	18.341	1373.353	1286.227
752.371	18.397	1371.914	1285.147
753.386	18.571	1371.003	1285.450
754.400	18.683	1370.203	1285.387
755.415	18.800	1368.940	1284.932
756.429	18.576	1367.897	1282.119
757.444	18.752	1366.166	1281.659
758.459	18.792	1365.499	1281.183
759.473	18.800	1364.780	1280.413
760.488	18.819	1363.801	1279.485
761.502	19.069	1362.562	1280.034
762.517	18.813	1361.421	1276.902
763.532	18.772	1360.232	1275.324
764.546	18.702	1359.463	1273.926
765.561	18.839	1358.444	1273.844
766.575	18.750	1357.467	1272.113
767.590	18.655	1356.298	1270.154
768.605	18.777	1354.898	1269.598
769.619	18.730	1354.109	1268.357
770.634	18.617	1352.869	1266.210
771.648	18.875	1351.762	1266.929
772.663	18.917	1351.375	1266.729
773.678	18.657	1350.852	1264.165
774.692	18.740	1349.605	1263.459
775.707	18.831	1349.636	1264.012
776.721	18.885	1348.225	1262.936
777.736	18.858	1347.002	1261.438
778.751	18.876	1345.709	1260.212
779.765	18.893	1344.361	1258.921
780.780	18.720	1344.535	1257.662
781.794	18.785	1343.302	1256.832
782.809	18.740	1342.083	1255.209
783.824	18.517	1341.656	1253.028
784.838	18.465	1339.630	1250.604
785.853	18.494	1338.067	1249.206
786.867	18.454	1337.763	1248.480
787.882	18.522	1337.013	1248.125
788.897	18.537	1336.809	1247.894
789.911	18.700	1335.473	1247.693
790.926	18.557	1334.705	1245.779
791.940	18.680	1332.830	1244.778
792.955	18.677	1331.369	1243.246
793.969	18.652	1330.439	1242.045
794.984	18.643	1330.200	1241.606
795.999	18.870	1328.876	1241.871
797.013	18.704	1326.782	1238.560
798.028	18.711	1325.573	1237.339
799.042	18.905	1325.244	1238.285
800.057	18.859	1324.445	1237.058
801.072	18.843	1322.927	1235.377
802.086	18.855	1321.428	1233.917
803.101	18.729	1321.340	1232.779
804.115	18.766	1320.306	1231.928
805.130	18.814	1319.027	1230.935
806.145	18.844	1317.428	1229.513
807.159	18.804	1316.501	1228.214
808.174	18.878	1315.041	1227.234
809.188	18.923	1313.615	1226.082
810.203	18.956	1312.315	1224.956
811.218	18.815	1310.161	1221.790
812.232	18.629	1309.901	1220.069
813.247	18.729	1308.607	1219.438
814.261	18.747	1308.395	1219.223
815.276	18.737	1307.675	1218.334
816.291	18.739	1306.521	1217.125
817.305	18.949	1305.483	1217.509
818.320	18.875	1304.445	1215.864
819.334	18.707	1303.730	1213.860
820.349	18.829	1302.007	1212.978
821.364	18.759	1300.223	1210.675
822.378	18.845	1298.279	1209.329
823.393	18.789	1297.214	1207.798
824.407	18.697	1296.984	1206.786
825.422	18.727	1295.991	1205.932
826.437	18.722	1294.599	1204.452
827.451	18.703	1293.045	1202.734
828.466	18.582	1291.183	1200.004
829.480	18.605	1289.746	1198.690
830.495	18.565	1288.166	1196.793
831.509	18.638	1287.843	1196.863
832.524	18.470	1287.173	1194.919
833.539	18.656	1285.746	1194.753
834.553	18.780	1284.519	1194.336
835.568	18.944	1283.221	1194.132
836.582	18.995	1282.077	1193.283
837.597	19.055	1280.938	1192.498
838.612	18.849	1279.527	1189.603
839.626	18.987	1278.886	1189.826
840.641	18.843	1278.728	1188.539
841.655	18.797	1277.557	1186.984
842.670	18.855	1276.628	1186.386
843.685	18.792	1275.077	1184.362
844.699	18.794	1274.000	1183.236
845.714	19.116	1272.404	1183.841
846.728	18.869	1271.873	1181.492
847.743	18.893	1270.947	1180.662
848.758	18.872	1269.348	1178.887
849.772	18.930	1267.910	1177.809
850.787	18.849	1267.154	1176.411
851.801	18.855	1265.960	1175.201
852.816	18.658	1264.528	1172.379
853.831	18.785	1263.021	1171.710
854.845	18.826	1261.096	1170.067
855.860	18.734	1259.891	1168.178
856.874	18.784	1258.058	1166.684
857.889	18.714	1257.566	1165.612
858.904	18.670	1256.762	1164.423
859.918	18.470	1255.185	1161.459
860.933	18.545	1253.634	1160.397
861.947	18.670	1253.001	1160.521
862.962	18.706	1251.746	1159.464
863.977	18.634	1250.741	1157.911
864.991	18.593	1250.059	1156.860
866.006	18.897	1249.445	1158.213
867.020	18.858	1247.946	1156.418
868.035	18.787	1246.848	1154.785
869.049	19.059	1245.913	1155.620
870.064	19.007	1245.354	1154.611
871.079	18.939	1244.862	1153.559
872.093	18.930	1244.161	1152.710
873.108	18.878	1243.111	1151.246
874.122	18.939	1241.856	1150.356
875.137	18.800	1241.436	1148.898
876.152	18.905	1240.403	1148.507
877.166	18.880	1238.812	1146.730
878.181	18.945	1237.762	1146.055
879.195	19.009	1237.082	1145.714
880.210	18.969	1236.326	1144.614
881.225	18.948	1235.157	1143.255
882.239	19.018	1233.669	1142.204
883.254	19.048	1232.814	1141.479
884.268	19.087	1231.711	1140.579
885.283	19.023	1230.658	1139.044
886.298	19.126	1228.846	1137.914
887.312	18.929	1228.740	1136.373
888.327	19.072	1227.301	1135.854
889.341	19.140	1225.641	1134.631
890.356	19.035	1225.311	1133.491
891.371	18.826	1225.564	1132.206
892.385	18.840	1224.640	1131.309
893.400	18.813	1223.197	1129.662
894.414	18.961	1221.661	1129.088
895.429	18.878	1220.129	1126.991
896.444	18.631	1219.101	1124.279
897.458	18.546	1218.236	1122.789
898.473	18.630	1217.255	1122.296
899.487	18.753	1216.613	1122.383
900.502	18.793	1215.515	1121.496
901.517	18.852	1214.796	1121.085
902.531	18.898	1213.773	1120.311
903.546	18.903	1213.277	1119.749
904.560	18.997	1212.402	1119.423
905.575	19.042	1211.605	1118.846
906.589	18.916	1211.245	1117.556
907.604	19.035	1210.350	1117.377
