DTS Sentinel unit serial number:	SN409020Multiplexer serial number:	ORYXHardware model number:	OX4-SRSoftware version number:	ORYX F/W v3.00 Oryx Data Collector v3.7.2.0data status	okinstallation	HaddamTimeLapsedifferential loss correction	single-endedforward channel	channel 3reverse channel	N/Adate	2011/06/22time	01:06:16forward acquisition time	30.00reverse acquisition time	0.00gamma	498.7831k internal	0.1751k external	0.1751temperature offset calibration	1.0074default loss term (dB/km)	0.3790temperature slope calibration	1.3530multiplexer offset coefficient	1.0000multiplexer slope coefficient	1.0000fibre end	0.00T internal ref (°C)	22.50T ext. ref 1 (°C)	17.84T ext. ref 2 (°C)	0.03length (m)	temperature (°C)	Stokes	anti-Stokes-747.200	272.010	-0.098	0.230
-746.185	-147.923	-0.087	-0.009
-745.171	-35.812	-0.090	0.065
-744.156	-113.066	-0.761	0.198
-743.142	559.779	0.073	-0.237
-742.127	-200.000	-0.009	-0.133
-741.112	194.314	-0.112	0.226
-740.098	-200.000	0.111	0.666
-739.083	-107.219	-0.096	-0.028
-738.069	335.115	-0.147	0.379
-737.054	122.978	0.189	-0.314
-736.039	-87.973	-0.635	0.252
-735.025	-91.398	0.337	-0.127
-734.010	306.516	0.112	0.278
-732.996	-106.206	-0.106	-0.031
-731.981	75.856	-0.230	0.323
-730.966	58.323	-0.167	-0.218
-729.952	-48.070	-0.195	0.125
-728.937	-17.938	-0.419	-0.348
-727.923	190.852	-0.111	-0.222
-726.908	60.503	0.214	0.281
-725.894	800.000	-0.045	0.184
-724.879	43.744	-0.059	-0.072
-723.864	223.223	-0.199	-0.428
-722.850	-70.673	-0.414	-0.207
-721.835	111.463	0.191	0.306
-720.821	-34.487	-0.332	-0.241
-719.806	211.621	0.321	0.673
-718.791	-159.094	-0.341	-0.025
-717.777	519.772	0.094	-0.295
-716.762	-67.003	0.208	-0.109
-715.748	800.000	-0.083	-0.357
-714.733	67.626	-0.328	0.445
-713.718	446.548	-0.132	-0.386
-712.704	-118.310	-0.434	-0.101
-711.689	-4.805	-0.297	-0.272
-710.675	-66.931	0.373	0.195
-709.660	-163.132	-0.726	-0.046
-708.645	-80.538	-0.101	0.045
-707.631	-200.000	-0.056	-0.482
-706.616	-132.582	-0.480	0.081
-705.602	-105.871	-0.332	0.099
-704.587	-187.711	0.453	-0.008
-703.572	-76.575	0.584	0.271
-702.558	-200.000	0.033	0.294
-701.543	-113.588	-0.164	0.042
-700.529	-0.091	0.314	0.296
-699.514	269.851	-0.079	0.184
-698.499	-65.524	-0.323	0.171
-697.485	800.000	0.090	-0.432
-696.470	-181.502	-0.292	-0.007
-695.456	-69.690	-0.255	-0.129
-694.441	-80.741	-0.133	0.058
-693.426	159.799	0.103	-0.190
-692.412	-200.000	0.008	0.451
-691.397	-168.496	-0.447	-0.022
-690.383	-121.659	0.527	-0.115
-689.368	-200.000	0.018	0.188
-688.354	-96.460	-0.490	-0.171
-687.339	-52.719	-0.123	0.075
-686.324	-162.323	0.241	-0.016
-685.310	-80.172	0.218	0.096
-684.295	-107.922	0.028	0.008
-683.281	46.801	0.120	-0.147
-682.266	129.047	0.214	-0.362
-681.251	318.473	-0.150	0.379
-680.237	363.019	0.142	-0.381
-679.222	-65.214	-0.537	0.286
-678.208	339.204	-0.164	0.426
-677.193	800.000	0.051	0.198
-676.178	-23.902	0.377	-0.298
-675.164	-90.887	-0.423	0.161
-674.149	-125.005	-0.104	-0.021
-673.135	-129.039	-0.332	-0.061
-672.120	-32.178	-0.325	-0.240
-671.105	800.000	-0.064	-0.340
-670.091	-146.168	-0.380	-0.044
-669.076	-3.540	-0.156	-0.144
-668.062	193.404	0.150	0.302
-667.047	2.958	0.092	0.088
-666.032	-126.268	-0.357	-0.070
-665.018	-200.000	-0.005	0.269
-664.003	-200.000	0.242	0.001
-662.989	-14.866	-0.390	-0.330
-661.974	-200.000	-0.039	0.386
-660.959	-106.431	-0.307	-0.090
-659.945	-89.883	0.155	-0.059
-658.930	-112.480	-0.332	-0.087
-657.916	-200.000	0.004	-0.166
-656.901	-47.906	-0.433	-0.277
-655.886	19.108	-0.182	-0.193
-654.872	75.211	0.250	0.349
-653.857	-196.011	0.398	0.004
-652.843	762.290	-0.026	0.093
-651.828	-32.941	0.239	-0.175
-650.814	53.201	-0.146	0.186
-649.799	-200.000	0.006	-0.462
-648.784	-47.119	-0.240	-0.155
-647.770	-200.000	0.011	-0.196
-646.755	-176.744	-0.729	-0.024
-645.741	-95.955	-0.275	-0.096
-644.726	101.391	0.059	0.092
-643.711	297.524	0.070	-0.170
-642.697	-81.663	-0.192	-0.083
-641.682	-200.000	-0.009	0.090
-640.668	-49.701	0.075	0.047
-639.653	8.601	0.266	-0.265
-638.638	-89.820	-0.469	0.181
-637.624	37.763	-0.304	0.357
-636.609	-167.312	-0.717	-0.038
-635.595	-185.620	0.362	-0.007
-634.580	90.608	0.177	0.263
-633.565	-78.237	-0.027	-0.012
-632.551	10.408	-0.164	-0.165
-631.536	-66.760	0.525	0.274
-630.522	711.021	-0.041	0.144
-629.507	6.564	-0.478	0.469
-628.492	-46.921	0.100	-0.065
-627.478	-114.309	0.479	0.121
-626.463	0.033	-0.366	-0.345
-625.449	110.330	-0.085	0.135
-624.434	-47.913	-0.149	0.095
-623.419	-200.000	0.010	-0.460
-622.405	-88.522	0.205	-0.080
-621.390	-81.689	-0.375	0.162
-620.376	-72.250	0.553	0.270
-619.361	800.000	-0.173	-0.752
-618.346	-200.000	0.012	-0.259
-617.332	266.173	-0.109	-0.253
-616.317	560.893	-0.070	-0.224
-615.303	-156.750	0.313	-0.025
-614.288	130.801	-0.388	0.660
-613.273	410.502	-0.023	-0.064
-612.259	-124.672	0.211	0.043
-611.244	-200.000	0.016	-0.153
-610.230	219.768	0.195	-0.413
-609.215	-93.666	-0.118	0.043
-608.201	-63.633	0.480	-0.260
-607.186	344.654	-0.156	0.407
-606.171	-30.619	-0.546	0.408
-605.157	-200.000	0.018	0.451
-604.142	-128.683	-0.303	-0.056
-603.128	26.975	-0.046	0.051
-602.113	-118.360	-0.307	0.072
-601.098	-5.642	-0.337	-0.305
-600.084	50.084	0.076	0.095
-599.069	20.232	-0.092	0.098
-598.055	140.404	0.122	0.214
-597.040	-61.103	0.356	-0.198
-596.025	367.094	-0.154	-0.412
-595.011	88.085	-0.170	-0.249
-593.996	800.000	0.037	-0.201
-592.982	-74.664	0.204	0.097
-591.967	-106.197	0.114	0.034
-590.952	68.799	0.295	0.400
-589.938	-77.573	-0.224	-0.102
-588.923	220.085	0.082	0.173
-587.909	198.755	-0.218	0.441
-586.894	-200.000	0.016	0.362
-585.879	-176.119	-0.586	0.020
-584.865	-115.571	-0.508	-0.125
-583.850	-200.000	-0.080	-0.636
-582.836	-159.986	-0.389	-0.028
-581.821	-2.428	-0.077	0.071
-580.806	242.587	-0.149	-0.329
-579.792	-67.011	0.039	-0.020
-578.777	-16.701	-0.290	0.242
-577.763	-136.456	0.202	-0.031
-576.748	-166.320	-0.081	-0.004
-575.733	12.217	0.110	-0.112
-574.719	36.744	-0.133	-0.155
-573.704	-44.541	-0.465	-0.306
-572.690	80.436	0.094	-0.134
-571.675	-200.000	-0.043	0.284
-570.661	-48.309	0.221	0.140
-569.646	-200.000	0.012	0.463
-568.631	-200.000	-0.008	-0.397
-567.617	95.995	-0.250	-0.377
-566.602	800.000	-0.043	-0.191
-565.588	-155.587	0.292	-0.024
-564.573	0.515	0.046	-0.043
-563.558	-7.646	-0.248	0.221
-562.544	28.022	0.301	-0.335
-561.529	800.000	0.085	-0.448
-560.515	200.021	0.130	-0.265
-559.500	-23.832	-0.325	-0.256
-558.485	-147.828	-0.345	-0.038
-557.471	330.359	0.072	-0.183
-556.456	-200.000	0.029	0.381
-555.442	11.677	-0.281	0.284
-554.427	507.630	-0.096	0.295
-553.412	-134.495	-0.184	0.029
-552.398	-200.000	-0.007	0.297
-551.383	-59.711	0.220	-0.124
-550.369	18.388	-0.228	0.240
-549.354	-139.100	-0.363	0.051
-548.339	-99.333	0.290	0.096
-547.325	91.320	0.275	0.407
-546.310	-43.089	-0.151	-0.100
-545.296	-104.455	-0.527	0.160
-544.281	3.176	-0.152	-0.146
-543.266	-140.792	0.217	-0.029
-542.252	120.431	-0.162	-0.266
-541.237	-160.229	0.191	0.013
-540.223	-16.052	0.418	0.350
-539.208	-200.000	0.035	0.483
-538.193	-88.142	-0.405	0.159
-537.179	-137.206	0.361	-0.054
-536.164	-164.908	-0.082	-0.005
-535.150	-23.150	0.076	-0.060
-534.135	-45.391	-0.178	-0.116
-533.121	3.195	-0.325	-0.311
-532.106	-134.948	-0.212	-0.033
-531.091	314.805	0.169	0.422
-530.077	-123.603	0.014	-0.003
-529.062	58.659	0.427	-0.552
-528.048	243.603	-0.124	0.276
-527.033	93.603	-0.024	-0.036
-526.018	-139.257	0.492	-0.069
-525.004	-143.831	-0.515	0.063
-523.989	33.865	-0.394	-0.451
-522.975	460.543	0.073	-0.216
-521.960	388.886	0.151	0.413
-520.945	-200.000	0.015	0.927
-519.931	-53.205	0.212	0.128
-518.916	800.000	0.127	0.472
-517.902	-12.268	0.131	0.112
-516.887	669.067	0.128	0.439
-515.872	-154.480	-0.488	0.042
-514.858	268.503	-0.056	0.131
-513.843	201.668	-0.077	-0.156
-512.829	256.277	0.096	-0.218
-511.814	-200.000	0.006	-0.133
-510.799	-111.122	-0.375	0.100
-509.785	-138.979	0.535	-0.076
-508.770	-145.371	-0.210	0.025
-507.756	800.000	-0.067	0.376
-506.741	-78.856	0.309	-0.138
-505.726	-80.328	-0.394	-0.172
-504.712	800.000	0.090	0.383
-503.697	-98.869	0.131	0.043
-502.683	800.000	-0.007	0.034
-501.668	211.208	0.126	0.262
-500.653	-116.949	0.080	0.019
-499.639	58.536	0.375	-0.485
-498.624	-54.761	0.163	-0.097
-497.610	75.873	-0.072	-0.100
-496.595	107.467	0.305	-0.478
-495.581	14.289	0.266	0.273
-494.566	270.526	-0.287	-0.666
-493.551	800.000	-0.047	-0.214
-492.537	148.791	0.143	-0.255
-491.522	-97.620	-0.220	0.075
-490.508	-7.365	-0.206	0.183
-489.493	-66.163	-0.383	0.200
-488.478	-200.000	-0.003	0.276
-487.464	-69.844	0.105	0.053
-486.449	567.178	0.072	0.232
-485.435	-143.782	-0.201	-0.025
-484.420	-46.567	-0.134	0.086
-483.405	-200.000	-0.024	0.575
-482.391	345.516	-0.093	0.242
-481.376	-91.662	0.235	-0.087
-480.362	-30.276	-0.145	-0.108
-479.347	-108.549	-0.297	0.083
-478.332	409.996	-0.111	0.311
-477.318	-121.962	-0.294	-0.063
-476.303	-36.936	0.352	-0.248
-475.289	-200.000	0.018	0.135
-474.274	-119.188	-0.336	0.077
-473.259	78.103	-0.202	0.284
-472.245	-141.373	-0.559	-0.074
-471.230	41.733	-0.122	0.146
-470.216	242.488	0.175	0.386
-469.201	-99.387	-0.037	-0.012
-468.186	361.620	-0.145	0.383
-467.172	-63.284	0.100	-0.054
-466.157	111.282	0.252	-0.399
-465.143	9.263	-0.252	-0.251
-464.128	-79.043	0.137	0.061
-463.113	663.469	-0.074	-0.253
-462.099	-106.775	0.210	0.061
-461.084	-200.000	0.057	0.384
-460.070	-59.506	-0.172	-0.097
-459.055	-50.760	0.389	-0.240
-458.040	515.775	0.196	0.606
-457.026	-200.000	-0.014	0.102
-456.011	189.444	-0.055	0.108
-454.997	174.269	0.105	0.200
-453.982	-126.098	-0.359	-0.070
-452.968	-200.000	-0.051	-0.481
-451.953	-106.297	0.535	0.156
-450.938	569.224	0.123	0.396
-449.924	-84.614	-0.546	0.225
-448.909	-110.379	-0.207	0.056
-447.895	-200.000	0.013	-0.277
-446.880	217.688	0.278	-0.585
-445.865	-140.414	-0.508	0.069
-444.851	21.364	-0.523	0.558
-443.836	-200.000	0.020	0.489
-442.822	-200.000	-0.085	0.629
-441.807	-75.085	0.338	0.158
-440.792	-151.681	0.491	-0.047
-439.778	800.000	0.038	-0.207
-438.763	-96.782	-0.052	-0.018
-437.749	-82.553	-0.346	-0.147
-436.734	-200.000	-0.007	-0.087
-435.719	411.699	0.102	-0.285
-434.705	-50.039	-0.262	-0.162
-433.690	-142.617	0.342	0.043
-432.676	800.000	0.045	0.166
-431.661	-54.793	-0.199	0.118
-430.646	4.558	0.062	0.060
-429.632	-200.000	-0.011	0.220
-428.617	-121.325	-0.081	0.018
-427.603	96.736	-0.139	-0.210
-426.588	10.483	0.189	0.188
-425.573	-115.956	-0.268	-0.065
-424.559	181.601	0.032	0.061
-423.544	139.923	-0.130	-0.226
-422.530	800.000	-0.087	0.319
-421.515	208.413	0.112	0.231
-420.500	-200.000	-0.021	0.223
-419.486	246.109	0.194	-0.429
-418.471	-78.624	-0.317	0.141
-417.457	-34.793	-0.154	-0.110
-416.442	-63.885	-0.592	0.316
-415.428	-16.576	0.375	-0.311
-414.413	87.207	0.119	0.173
-413.398	-90.561	0.562	-0.212
-412.384	129.511	-0.311	0.523
-411.369	-200.000	-0.024	-0.375
-410.355	-200.000	-0.051	0.436
-409.340	119.776	0.071	0.116
-408.325	-94.332	0.754	0.268
-407.311	409.444	0.094	-0.262
-406.296	379.231	0.123	-0.331
-405.282	115.972	-0.197	0.317
-404.267	68.822	0.277	-0.373
-403.252	136.387	-0.089	0.153
-402.238	-71.094	0.125	-0.061
-401.223	-164.296	-0.257	-0.015
-400.209	-180.447	-0.469	0.013
-399.194	-200.000	-0.448	0.000
-398.179	-88.109	0.147	-0.057
-397.165	466.448	0.116	0.341
-396.150	25.809	-0.108	0.118
-395.136	-35.033	-0.092	0.066
-394.121	-46.137	0.642	-0.413
-393.106	-40.607	-0.276	-0.187
-392.092	-171.891	0.200	0.008
-391.077	-200.000	0.012	0.130
-390.063	-200.000	0.023	0.157
-389.048	-54.148	-0.345	0.205
-388.033	-104.485	0.186	0.056
-387.019	-125.898	0.836	0.164
-386.004	-29.530	0.621	-0.464
-384.990	-21.006	0.387	-0.310
-383.975	128.353	-0.081	-0.135
-382.960	707.287	0.072	-0.252
-381.946	-26.626	0.173	0.133
-380.931	-200.000	-0.003	0.260
-379.917	614.073	-0.055	-0.181
-378.902	-153.235	-0.216	0.020
-377.888	-189.703	0.191	-0.003
-376.873	18.022	0.244	-0.255
-375.858	-200.000	0.038	0.239
-374.844	800.000	-0.130	0.602
-373.829	588.867	0.152	-0.494
-372.815	-85.784	-0.253	-0.102
-371.800	271.892	-0.105	0.242
-370.785	557.722	-0.111	-0.353
-369.771	285.356	-0.073	-0.174
-368.756	-125.665	-0.324	0.064
-367.742	-119.800	0.548	-0.123
-366.727	-147.786	-0.068	0.007
-365.712	-122.760	0.589	0.124
-364.698	-100.022	-0.254	0.082
-363.683	-200.000	-0.015	0.229
-362.669	43.051	-0.223	0.267
-361.654	-187.367	0.076	0.001
-360.639	-200.000	-0.035	0.256
-359.625	234.415	-0.171	-0.371
-358.610	-74.886	-0.173	-0.081
-357.596	39.815	0.159	-0.187
-356.581	-114.996	0.248	-0.061
-355.566	-94.921	-0.313	0.110
-354.552	800.000	0.016	-0.078
-353.537	-20.813	0.047	0.038
-352.523	-156.235	-0.133	0.011
-351.508	125.830	-0.157	-0.260
-350.493	-200.000	0.000	-0.073
-349.479	188.741	-0.156	-0.306
-348.464	800.000	-0.083	0.313
-347.450	800.000	0.044	0.177
-346.435	123.504	0.262	-0.430
-345.420	-61.484	0.390	-0.214
-344.406	-72.798	0.560	-0.268
-343.391	-97.331	0.163	-0.055
-342.377	-55.571	0.181	0.105
-341.362	-100.393	-0.321	-0.103
-340.348	-137.365	0.332	-0.049
-339.333	43.643	-0.237	-0.284
-338.318	800.000	-0.072	0.329
-337.304	53.785	0.145	0.182
-336.289	110.476	0.195	-0.307
-335.275	161.929	0.177	-0.325
-334.260	0.297	-0.478	-0.445
-333.245	134.942	0.151	-0.257
-332.231	-37.404	-0.062	0.043
-331.216	92.601	-0.203	-0.300
-330.202	118.705	0.088	0.143
-329.187	-96.457	-0.431	-0.148
-328.172	260.599	-0.110	-0.248
-327.158	-200.000	-0.063	-0.451
-326.143	-200.000	0.034	-0.354
-325.129	-15.889	0.189	0.157
-324.114	58.488	0.239	0.306
-323.099	-44.632	-0.266	-0.173
-322.085	763.076	-0.092	0.329
-321.070	6.393	0.234	-0.226
-320.056	-200.000	0.694	0.000
-319.041	-171.744	-0.277	0.012
-318.026	-28.818	-0.238	0.178
-317.012	380.933	0.116	0.313
-315.997	-173.482	0.151	0.006
-314.983	351.834	-0.042	0.110
-313.968	-52.258	0.205	0.124
-312.953	-56.229	0.237	0.137
-311.939	482.731	-0.033	-0.099
-310.924	-200.000	0.021	0.691
-309.910	-61.137	0.302	0.166
-308.895	-71.259	-0.142	-0.069
-307.880	-200.000	0.023	-0.438
-306.866	-62.792	-0.049	0.026
-305.851	-76.455	-0.025	-0.011
-304.837	122.682	0.188	0.308
-303.822	-63.818	0.498	-0.265
-302.807	38.182	-0.313	0.364
-301.793	388.178	0.089	0.242
-300.778	-84.611	0.622	-0.255
-299.764	-82.844	0.113	0.047
-298.749	3.082	-0.156	0.148
-297.735	-111.763	0.110	-0.029
-296.720	-200.000	-0.019	-0.129
-295.705	212.738	0.189	-0.391
-294.691	145.246	-0.368	0.644
-293.676	-139.400	0.474	0.066
-292.662	-2.053	0.085	-0.078
-291.647	327.123	0.109	-0.274
-290.632	391.999	0.144	0.392
-289.618	-61.373	0.510	-0.279
-288.603	-27.394	-0.338	0.256
-287.589	46.767	-0.094	0.114
-286.574	149.667	-0.141	-0.250
-285.559	55.575	-0.106	0.133
-284.545	-77.213	-0.239	0.108
-283.530	-61.459	-0.408	-0.223
-282.516	21.066	-0.300	-0.318
-281.501	-30.605	0.377	-0.278
-280.486	-60.995	0.413	-0.227
-279.472	37.457	0.211	-0.244
-278.457	-179.334	-0.221	0.006
-277.443	-200.000	0.027	-0.445
-276.428	-19.492	-0.089	0.072
-275.413	-166.899	0.295	0.016
-274.399	800.000	0.054	0.300
-273.384	752.785	0.118	0.417
-272.370	-74.802	-0.287	-0.134
-271.355	-44.658	0.339	-0.220
-270.340	20.380	0.320	-0.337
-269.326	-200.000	0.009	-0.392
-268.311	-85.635	0.383	-0.154
-267.297	-110.798	-0.154	-0.041
-266.282	-175.689	-0.291	0.010
-265.267	-54.423	0.059	-0.035
-264.253	-21.808	0.055	-0.043
-263.238	-200.000	0.034	-0.473
-262.224	23.333	-0.132	-0.142
-261.209	39.993	0.278	0.326
-260.195	530.757	0.173	-0.537
-259.180	-154.785	0.291	-0.025
-258.165	35.324	0.162	0.185
-257.151	-146.193	0.280	0.032
-256.136	-200.000	-0.057	0.469
-255.122	83.200	-0.097	-0.138
-254.107	800.000	-0.058	0.221
-253.092	10.291	0.286	-0.283
-252.078	-200.000	0.033	0.196
-251.063	-143.953	-0.459	-0.056
-250.049	-59.116	-0.302	-0.169
-249.034	-86.516	0.535	-0.213
-248.019	-200.000	0.010	0.271
-247.005	60.612	-0.157	0.202
-245.990	-135.876	-0.185	0.028
-244.976	-164.831	-0.716	0.041
-243.961	800.000	-0.135	-0.665
-242.946	-12.218	0.325	0.276
-241.932	800.000	0.101	0.432
-240.917	-105.110	-0.403	0.119
-239.903	172.771	0.060	0.112
-238.888	356.002	0.085	-0.222
-237.873	156.663	-0.136	0.244
-236.859	-121.540	-0.159	0.034
-235.844	-114.926	-0.309	-0.076
-234.830	-12.839	0.245	-0.207
-233.815	310.722	-0.083	-0.203
-232.800	-29.036	0.306	-0.228
-231.786	252.829	0.036	-0.080
-230.771	73.228	0.230	0.313
-229.757	800.000	-0.034	0.161
-228.742	55.137	0.246	-0.310
-227.727	-71.160	0.310	-0.151
-226.713	111.053	0.162	0.254
-225.698	-116.541	0.042	-0.010
-224.684	-187.383	0.140	-0.002
-223.669	-200.000	-0.042	-0.419
-222.655	-156.470	0.293	0.023
-221.640	-200.000	0.020	0.521
-220.625	-64.193	-0.421	-0.222
-219.611	22.937	-0.212	-0.226
-218.596	-45.430	-0.289	0.186
-217.582	-176.024	-0.306	0.010
-216.567	-125.262	-0.206	-0.041
-215.552	-61.979	0.187	-0.101
-214.538	-124.245	-0.140	-0.028
-213.523	800.000	0.046	-0.252
-212.509	122.989	0.064	0.104
-211.494	-103.927	-0.133	-0.040
-210.479	-101.658	0.018	-0.006
-209.465	-98.674	-0.313	0.103
-208.450	-200.000	-0.089	-0.573
-207.436	19.877	-0.152	0.159
-206.421	-73.832	-0.379	-0.178
-205.406	-120.762	0.178	-0.039
-204.392	-148.152	0.041	0.004
-203.377	-6.598	0.336	-0.297
-202.363	203.426	0.295	-0.594
-201.348	-200.000	0.039	-0.261
-200.333	800.000	0.118	0.542
-199.319	-22.511	-0.326	-0.256
-198.304	11.483	0.374	-0.372
-197.290	237.746	-0.098	-0.213
-196.275	358.978	-0.176	0.460
-195.260	154.430	0.127	0.227
-194.246	-32.709	-0.099	0.072
-193.231	137.577	-0.043	0.073
-192.217	-30.662	-0.255	0.187
-191.202	-90.326	0.394	-0.148
-190.187	800.000	-0.078	0.347
-189.173	180.992	0.166	-0.318
-188.158	-41.293	-0.494	0.330
-187.144	594.809	-0.050	-0.161
-186.129	137.583	0.135	0.230
-185.114	-51.376	0.347	0.210
-184.100	-200.000	-0.003	0.403
-183.085	79.876	-0.126	0.176
-182.071	-100.197	0.551	0.177
-181.056	-98.122	0.261	-0.087
-180.042	800.000	0.094	0.365
-179.027	554.692	0.104	0.327
-178.012	74.468	-0.083	0.114
-176.998	358.691	0.143	0.372
-175.983	800.000	-0.026	-0.130
-174.969	71.844	0.366	-0.495
-173.954	330.740	-0.062	0.157
-172.939	-34.079	0.247	0.176
-171.925	-148.074	-0.499	0.053
-170.910	-98.132	0.624	0.207
-169.896	-5.513	0.219	-0.195
-168.881	344.564	0.149	0.381
-167.866	-200.000	-0.029	-0.449
-166.852	800.000	0.058	-0.219
-165.837	-13.974	0.432	-0.362
-164.823	-120.283	-0.288	0.063
-163.808	-200.000	-0.035	0.261
-162.793	498.990	-0.113	-0.341
-161.779	-79.409	-0.184	0.080
-160.764	-200.000	-0.055	-0.424
-159.750	-130.177	0.428	0.075
-158.735	-195.844	0.310	-0.003
-157.720	-198.212	-0.279	-0.002
-156.706	-70.108	-0.463	-0.228
-155.691	-125.893	0.346	0.067
-154.677	270.544	0.139	-0.318
-153.662	53.173	0.155	0.193
-152.647	-46.918	-0.240	0.152
-151.633	-132.656	-0.100	0.017
-150.618	1.791	-0.078	0.073
-149.604	200.217	-0.230	0.460
-148.589	79.791	0.436	0.608
-147.574	-200.000	0.026	-0.209
-146.560	313.379	-0.221	0.541
-145.545	213.144	-0.069	-0.143
-144.531	-200.000	0.000	-0.052
-143.516	-111.079	0.191	0.050
-142.502	-52.615	0.192	0.115
-141.487	21.213	-0.342	0.360
-140.472	-93.898	-0.180	-0.064
-139.458	207.296	0.340	-0.691
-138.443	10.892	0.155	0.154
-137.429	-136.096	0.357	-0.054
-136.414	-73.262	0.360	-0.170
-135.399	232.139	-0.135	-0.288
-134.385	800.000	0.148	0.635
-133.370	-200.000	-0.020	-0.181
-132.356	-106.154	-0.133	-0.038
-131.341	-19.313	0.093	-0.074
-130.326	59.812	-0.285	-0.365
-129.312	56.173	-0.329	0.415
-128.297	-200.000	0.077	-0.455
-127.283	-72.109	-0.232	0.111
-126.268	160.663	0.106	-0.193
-125.253	456.644	-0.190	-0.549
-124.239	317.269	-0.277	-0.682
-123.224	410.178	-0.079	-0.218
-122.210	-140.855	-0.546	0.072
-121.195	800.000	-0.069	-0.278
-120.180	-200.000	-0.044	0.336
-119.166	17.360	0.156	-0.161
-118.151	518.942	0.097	0.296
-117.137	284.808	-0.084	-0.198
-116.122	-46.960	0.303	-0.191
-115.107	-142.584	0.169	0.021
-114.093	-106.326	-0.325	-0.094
-113.078	-174.652	-0.503	-0.018
-112.064	-82.430	0.272	0.114
-111.049	-126.233	0.106	-0.020
-110.034	-54.198	-0.509	-0.299
-109.020	15.283	-0.274	0.278
-108.005	189.006	0.117	0.228
-106.991	80.511	0.344	0.481
-105.976	726.167	-0.086	0.299
-104.962	10.952	-0.456	0.451
-103.947	-151.007	-0.586	0.056
-102.932	342.705	-0.081	0.206
-101.918	121.915	0.137	-0.221
-100.903	-169.753	-0.353	0.016
-99.889	-32.901	0.472	-0.339
-98.874	-38.292	0.296	0.203
-97.859	-77.540	0.095	0.042
-96.845	-36.709	0.164	-0.114
-95.830	164.865	0.125	-0.230
-94.816	-135.460	-0.430	-0.066
-93.801	-200.000	0.033	0.199
-92.786	144.078	-0.088	-0.152
-91.772	-91.250	-0.436	-0.161
-90.757	-72.543	-0.577	-0.275
-89.743	-22.246	0.233	0.183
-88.728	-54.457	0.483	-0.283
-87.713	2.341	-0.531	-0.497
-86.699	-96.208	0.493	-0.168
-85.684	18.012	-0.423	-0.436
-84.670	-10.300	0.127	-0.109
-83.655	-122.083	-0.468	-0.099
-82.640	428.292	0.110	0.308
-81.626	164.455	0.034	-0.062
-80.611	66.743	0.033	0.043
-79.597	-159.338	0.410	-0.029
-78.582	-200.000	-0.048	0.283
-77.567	-200.000	-0.036	0.205
-76.553	-87.848	0.377	-0.146
-75.538	12.572	0.184	-0.183
-74.524	800.000	-0.062	-0.284
-73.509	-200.000	0.037	-0.394
-72.494	-200.000	0.088	-0.664
-71.480	-164.757	-0.178	-0.010
-70.465	-41.162	0.471	-0.314
-69.451	229.858	0.214	-0.455
-68.436	800.000	-0.085	-0.404
-67.422	395.641	0.199	-0.539
-66.407	-105.195	-0.534	-0.157
-65.392	-125.441	-0.445	0.087
-64.378	-72.100	0.274	0.131
-63.363	-135.256	0.350	0.054
-62.349	-200.000	-0.004	-0.146
-61.334	38.969	-2.107	-2.437
-60.319	69.298	1.308	1.743
-59.305	236.630	-3.711	-7.973
-58.290	73.090	4.038	5.465
-57.276	334.548	4.089	10.285
-56.261	-200.000	23.761	319.405
-55.246	352.389	1305.500	3360.952
-54.232	52.519	2846.661	3516.782
-53.217	51.004	2661.829	3264.849
-52.203	31.516	2391.189	2657.872
-51.188	27.674	2057.449	2239.508
-50.173	24.284	1943.735	2076.038
-49.159	23.237	1931.777	2050.998
-48.144	22.749	1927.895	2041.123
-47.130	22.644	1925.996	2037.812
-46.115	22.733	1923.172	2035.779
-45.100	22.775	1921.574	2034.493
-44.086	22.736	1919.902	2032.191
-43.071	22.675	1919.186	2030.645
-42.057	22.652	1916.194	2027.133
-41.042	22.580	1916.050	2026.074
-40.027	22.708	1914.350	2025.663
-39.013	22.660	1912.215	2022.772
-37.998	22.730	1911.195	2022.428
-36.984	22.649	1910.655	2020.842
-35.969	22.607	1909.545	2019.103
-34.954	22.551	1907.900	2016.631
-33.940	22.522	1906.890	2015.160
-32.925	22.736	1904.528	2015.037
-31.911	22.620	1903.061	2012.077
-30.896	22.633	1902.222	2011.259
-29.881	22.701	1900.300	2009.925
-28.867	22.460	1900.670	2007.474
-27.852	22.518	1898.167	2005.415
-26.838	22.518	1896.800	2003.889
-25.823	22.535	1896.250	2003.424
-24.809	22.588	1894.116	2001.694
-23.794	22.416	1893.383	1998.878
-22.779	22.500	1891.952	1998.248
-21.765	22.480	1890.687	1996.602
-20.750	22.483	1889.195	1994.975
-19.736	22.350	1888.532	1992.683
-18.721	22.473	1886.722	1992.101
-17.706	22.501	1885.836	1991.401
-16.692	22.491	1884.606	1989.914
-15.677	22.394	1883.440	1987.495
-14.663	22.464	1882.069	1986.763
-13.648	22.484	1881.146	1985.944
-12.633	22.451	1879.960	1984.239
-11.619	22.315	1878.535	1981.116
-10.604	22.328	1877.629	1980.231
-9.590	22.426	1875.327	1978.825
-8.575	22.422	1874.264	1977.578
-7.560	22.444	1873.593	1977.039
-6.546	22.367	1872.374	1974.815
-5.531	22.400	1871.307	1973.983
-4.517	22.430	1869.789	1972.636
-3.502	22.396	1869.488	1971.857
-2.487	22.451	1868.274	1971.117
-1.473	22.596	1863.447	1967.576
-0.458	22.303	1846.263	1946.098
0.556	18.691	1993.937	2046.268
1.571	17.320	2197.851	2237.138
2.586	18.249	2236.186	2288.374
3.600	18.305	2238.177	2290.891
4.615	18.217	2237.681	2288.925
5.629	18.240	2236.237	2287.491
6.644	18.261	2233.685	2284.888
7.659	18.274	2231.266	2282.312
8.673	18.191	2230.567	2280.214
9.688	18.072	2238.541	2286.488
10.702	17.072	2319.412	2354.867
11.717	15.454	2384.445	2397.400
12.731	7.221	2365.521	2260.415
13.746	0.971	2348.834	2154.992
14.761	0.175	2345.407	2140.219
15.775	0.144	2343.607	2137.868
16.790	0.028	2342.298	2134.775
17.804	0.023	2340.561	2132.866
18.819	-0.003	2340.237	2131.933
19.834	0.084	2337.733	2130.636
20.848	0.014	2336.865	2128.604
21.863	0.088	2334.090	2126.868
22.877	0.067	2331.642	2124.081
23.892	-0.065	2330.415	2120.832
24.907	-0.052	2328.493	2119.016
25.921	0.047	2326.876	2118.692
26.936	0.024	2325.024	2116.429
27.950	0.004	2321.289	2112.498
28.965	0.011	2319.063	2110.316
29.980	0.081	2317.701	2109.811
30.994	0.034	2315.806	2107.169
32.009	3.719	2326.833	2169.025
33.023	12.594	2353.668	2320.023
34.038	16.430	2359.481	2379.883
35.053	16.493	2355.902	2376.871
36.067	16.172	2352.054	2368.175
37.082	16.154	2349.809	2365.384
38.096	16.163	2349.445	2364.850
39.111	16.487	2346.665	2366.337
40.126	16.674	2344.885	2366.886
41.140	16.804	2343.456	2366.989
42.155	16.860	2341.778	2365.798
43.169	16.762	2340.091	2362.436
44.184	16.529	2336.700	2355.461
45.199	16.561	2334.205	2353.120
46.213	16.608	2333.713	2352.995
47.228	16.755	2333.506	2354.554
48.242	16.873	2330.213	2352.603
49.257	16.930	2329.590	2352.489
50.271	16.906	2326.884	2349.135
51.286	16.600	2324.668	2342.353
52.301	16.485	2322.084	2337.874
53.315	17.312	2324.386	2351.414
54.330	20.198	2332.897	2399.953
55.344	21.975	2334.634	2426.159
56.359	22.034	2331.190	2423.113
57.374	22.176	2331.061	2424.649
58.388	22.362	2327.686	2423.429
59.403	22.173	2323.555	2416.221
60.417	21.885	2320.163	2408.433
61.432	21.983	2318.711	2407.986
62.447	22.259	2318.103	2410.875
63.461	22.421	2316.436	2411.088
64.476	22.412	2314.545	2408.703
65.490	22.091	2312.231	2401.598
66.505	21.267	2308.404	2386.021
67.520	19.134	2299.902	2347.739
68.534	17.078	2291.286	2310.574
69.549	16.440	2286.150	2296.402
70.563	16.338	2284.723	2293.299
71.578	16.440	2283.121	2292.804
72.593	16.499	2281.541	2291.748
73.607	16.642	2280.607	2292.480
74.622	16.642	2277.406	2288.993
75.636	16.487	2274.803	2283.995
76.651	16.418	2272.580	2280.561
77.666	16.471	2269.840	2278.259
78.680	16.432	2267.828	2275.429
79.695	16.191	2266.448	2270.520
80.709	16.015	2264.580	2265.999
81.724	16.117	2262.227	2264.751
82.739	16.112	2260.568	2262.744
83.753	16.172	2258.119	2260.828
84.768	16.101	2256.066	2257.555
85.782	16.088	2255.038	2256.074
86.797	16.037	2253.166	2253.254
87.812	16.144	2251.270	2252.516
88.826	16.333	2249.328	2252.848
89.841	16.251	2247.153	2249.294
90.855	16.374	2244.734	2248.253
91.870	16.460	2242.817	2247.214
92.884	16.498	2241.151	2245.783
93.899	16.522	2240.259	2244.936
94.914	17.118	2243.988	2256.366
95.928	19.644	2250.719	2296.662
96.943	20.428	2248.638	2304.726
97.957	17.980	2237.687	2260.700
98.972	16.417	2232.372	2234.296
99.987	16.275	2228.720	2228.496
101.001	16.227	2226.334	2225.204
102.016	16.334	2224.839	2224.857
103.030	16.096	2222.934	2219.542
104.045	16.086	2220.361	2216.576
105.060	16.158	2218.205	2215.101
106.074	16.165	2216.131	2212.858
107.089	16.357	2214.016	2213.020
108.103	16.258	2213.165	2210.591
109.118	16.260	2211.614	2208.807
110.133	16.414	2210.467	2209.419
111.147	16.218	2208.082	2204.201
112.162	16.235	2206.997	2203.083
113.176	16.412	2204.588	2202.726
114.191	16.435	2203.158	2201.343
115.206	16.472	2201.476	2199.877
116.220	16.353	2199.521	2196.108
117.235	16.364	2196.675	2193.146
118.249	16.452	2195.592	2192.943
119.264	16.390	2194.390	2190.679
120.279	16.398	2191.971	2188.106
121.293	16.331	2190.067	2185.068
122.308	16.343	2188.698	2183.593
123.322	16.188	2187.771	2180.394
124.337	16.682	2189.824	2188.600
125.352	19.506	2197.780	2233.064
126.366	20.205	2195.295	2239.349
127.381	17.529	2183.885	2192.858
128.395	16.313	2178.813	2171.784
129.410	16.264	2176.486	2168.569
130.424	16.103	2174.961	2164.718
131.439	16.197	2173.840	2164.554
132.454	16.283	2173.128	2164.691
133.468	16.529	2170.067	2164.558
134.483	16.534	2168.865	2163.162
135.497	16.683	2167.546	2163.502
136.512	16.527	2164.513	2158.207
137.527	16.457	2161.885	2154.434
138.541	16.197	2161.624	2150.588
139.556	16.230	2160.363	2149.495
140.570	16.162	2158.920	2146.935
141.585	16.079	2157.418	2144.120
142.600	16.023	2154.973	2140.725
143.614	16.107	2153.530	2140.104
144.629	16.101	2151.239	2137.489
145.643	15.947	2150.363	2134.407
146.658	16.028	2149.083	2133.911
147.673	16.029	2146.180	2130.782
148.687	16.050	2145.304	2129.924
149.702	16.264	2144.475	2131.563
150.716	16.271	2143.381	2130.309
151.731	16.360	2141.704	2129.523
152.746	16.301	2141.462	2128.280
153.760	17.128	2144.886	2141.913
154.775	19.754	2151.635	2181.753
155.789	20.677	2149.397	2190.910
156.804	18.074	2138.593	2146.811
157.819	16.404	2131.488	2118.389
158.833	16.221	2128.039	2112.409
159.848	16.248	2126.566	2111.039
160.862	16.271	2126.245	2110.756
161.877	16.259	2125.100	2109.216
162.892	16.415	2124.062	2109.886
163.906	16.474	2122.693	2109.011
164.921	16.412	2120.349	2105.653
165.935	16.490	2118.269	2104.316
166.950	16.549	2116.916	2103.451
167.964	16.475	2114.078	2099.464
168.979	16.401	2111.756	2095.983
169.994	16.058	2111.566	2091.264
171.008	16.125	2109.412	2089.712
172.023	16.020	2107.803	2086.559
173.037	16.148	2106.601	2086.714
174.052	16.308	2105.442	2087.310
175.067	16.251	2103.835	2084.760
176.081	16.133	2101.703	2080.928
177.096	16.171	2101.465	2080.922
178.110	16.372	2099.142	2080.858
179.125	16.461	2097.657	2080.239
180.140	16.344	2096.285	2077.182
181.154	16.360	2094.444	2075.312
182.169	16.488	2094.996	2077.191
183.183	17.329	2098.160	2090.473
184.198	20.206	2105.670	2133.320
185.213	20.815	2101.625	2136.482
186.227	17.805	2091.725	2089.166
187.242	16.645	2087.798	2070.737
188.256	16.455	2085.086	2065.473
189.271	16.268	2083.683	2061.535
190.286	16.107	2081.992	2057.641
191.300	16.191	2079.644	2056.108
192.315	16.270	2078.392	2055.586
193.329	16.468	2077.177	2056.556
194.344	16.651	2077.609	2058.980
195.359	16.751	2075.503	2057.863
196.373	16.527	2072.821	2052.231
197.388	16.439	2069.514	2047.639
198.402	16.183	2067.755	2042.533
199.417	16.277	2064.816	2040.530
200.432	16.324	2063.749	2039.805
201.446	16.220	2063.262	2037.818
202.461	16.262	2061.196	2036.044
203.475	16.190	2059.659	2033.407
204.490	16.112	2057.737	2030.317
205.504	16.300	2055.901	2030.537
206.519	16.245	2053.254	2027.018
207.534	16.261	2051.930	2025.659
208.548	16.278	2050.477	2024.191
209.563	16.353	2050.314	2024.686
210.577	16.354	2049.359	2023.519
211.592	16.508	2047.657	2023.452
212.607	17.853	2052.786	2044.486
213.621	21.061	2060.811	2090.937
214.636	20.564	2054.303	2078.114
215.650	17.440	2044.838	2030.877
216.665	16.567	2041.041	2016.405
217.680	16.503	2038.546	2012.943
218.694	16.304	2036.550	2008.351
219.709	16.195	2035.915	2006.179
220.723	16.236	2035.900	2006.408
221.738	16.329	2034.124	2005.535
222.753	16.552	2031.462	2005.322
223.767	16.488	2029.757	2002.643
224.782	16.547	2027.267	2000.642
225.796	16.470	2025.382	1997.626
226.811	16.320	2024.605	1994.844
227.826	16.491	2022.496	1994.558
228.840	16.294	2021.412	1990.918
229.855	16.272	2020.188	1989.210
230.869	16.339	2018.328	1987.930
231.884	16.172	2017.153	1984.566
232.899	16.231	2015.814	1983.699
233.913	16.325	2015.256	1984.032
234.928	16.283	2013.104	1981.178
235.942	16.292	2011.741	1979.705
236.957	16.335	2009.518	1977.782
237.972	16.391	2008.403	1977.105
238.986	16.310	2007.350	1974.886
240.001	16.160	2005.385	1970.959
241.015	16.253	2005.583	1972.001
242.030	17.144	2007.380	1984.001
243.045	19.850	2012.887	2021.030
244.059	20.227	2009.025	2021.322
245.074	17.435	2000.583	1979.978
246.088	16.581	1996.894	1966.120
247.103	16.730	1994.814	1965.570
248.117	16.680	1993.530	1963.493
249.132	16.534	1991.073	1959.131
250.147	16.464	1989.471	1956.504
251.161	16.407	1988.753	1954.902
252.176	16.621	1988.248	1956.665
253.190	16.807	1986.238	1956.615
254.205	16.869	1983.945	1954.833
255.220	16.859	1982.428	1952.995
256.234	16.683	1982.048	1950.343
257.249	16.506	1980.897	1946.935
258.263	16.592	1978.593	1945.426
259.278	16.439	1978.186	1943.027
260.293	16.235	1976.375	1938.656
261.307	16.259	1973.813	1936.190
262.322	16.339	1970.913	1934.034
263.336	16.148	1970.056	1930.761
264.351	16.165	1968.815	1929.511
265.366	16.164	1966.312	1926.822
266.380	16.092	1966.510	1925.955
267.395	16.243	1964.222	1925.217
268.409	16.196	1963.692	1923.928
269.424	16.273	1961.842	1922.763
270.439	16.284	1961.025	1921.857
271.453	17.236	1964.617	1936.051
272.468	20.269	1969.165	1975.062
273.482	20.408	1965.303	1972.541
274.497	17.435	1956.083	1929.223
275.512	16.364	1951.962	1912.743
276.526	16.258	1950.510	1909.882
277.541	16.223	1947.953	1906.761
278.555	16.154	1946.560	1904.380
279.570	16.058	1944.701	1901.251
280.585	16.193	1943.048	1900.934
281.599	16.316	1942.541	1901.598
282.614	16.388	1941.274	1900.950
283.628	16.726	1940.386	1903.666
284.643	16.761	1940.609	1904.054
285.657	16.959	1938.389	1903.885
286.672	17.001	1937.324	1903.088
287.687	16.922	1935.648	1900.325
288.701	16.760	1934.635	1897.271
289.716	16.785	1932.873	1895.597
290.730	16.835	1931.620	1894.708
291.745	17.018	1929.669	1894.617
292.760	16.869	1929.491	1892.549
293.774	16.730	1927.687	1888.993
294.789	16.667	1926.806	1887.191
295.803	16.603	1922.777	1882.311
296.818	16.563	1922.059	1880.934
297.833	16.420	1921.909	1878.960
298.847	16.557	1919.503	1877.910
299.862	16.514	1918.159	1875.898
300.876	17.298	1919.955	1886.174
301.891	20.241	1926.272	1925.035
302.906	20.590	1923.755	1926.167
303.920	17.642	1915.907	1885.347
304.935	16.730	1910.710	1869.889
305.949	16.544	1909.352	1866.271
306.964	16.607	1906.726	1864.181
307.979	16.712	1906.467	1864.868
308.993	16.783	1905.832	1864.807
310.008	16.930	1904.244	1864.654
311.022	17.070	1902.290	1864.064
312.037	16.823	1901.074	1859.924
313.052	16.794	1899.339	1857.692
314.066	17.019	1897.179	1857.828
315.081	16.799	1897.249	1855.254
316.095	16.832	1895.648	1853.825
317.110	16.742	1893.175	1850.198
318.125	16.626	1891.865	1847.425
319.139	16.634	1890.567	1846.021
320.154	16.707	1888.825	1844.901
321.168	16.677	1886.843	1842.421
322.183	16.468	1886.179	1839.261
323.197	16.258	1884.817	1835.415
324.212	16.220	1882.374	1832.406
325.227	16.168	1880.803	1830.092
326.241	16.199	1879.087	1828.539
327.256	16.137	1878.280	1826.856
328.270	16.359	1876.696	1827.516
329.285	16.447	1875.866	1827.449
330.300	17.414	1880.692	1842.455
331.314	20.568	1886.590	1882.393
332.329	20.416	1881.907	1875.842
333.343	17.431	1872.736	1834.187
334.358	16.432	1867.928	1818.465
335.373	16.222	1867.106	1815.166
336.387	16.160	1864.071	1811.333
337.402	16.045	1863.396	1809.220
338.416	16.272	1861.980	1810.075
339.431	16.382	1860.785	1809.887
340.446	16.237	1859.677	1807.027
341.460	16.347	1858.714	1807.059
342.475	16.586	1858.226	1808.932
343.489	16.794	1856.274	1809.053
344.504	16.564	1855.385	1805.500
345.519	16.796	1853.837	1806.266
346.533	16.962	1852.585	1806.610
347.548	17.042	1851.523	1806.207
348.562	16.797	1849.645	1801.542
349.577	16.904	1849.497	1802.334
350.592	17.172	1847.491	1803.019
351.606	17.159	1846.674	1801.867
352.621	17.092	1844.560	1798.872
353.635	16.906	1842.730	1794.898
354.650	16.757	1840.847	1791.261
355.665	16.669	1839.187	1788.497
356.679	16.571	1837.364	1785.471
357.694	16.504	1836.181	1783.400
358.708	16.382	1835.114	1780.857
359.723	17.659	1839.635	1798.584
360.738	20.828	1843.896	1836.170
361.752	19.998	1838.905	1822.208
362.767	17.251	1832.046	1786.210
363.781	16.505	1828.262	1774.444
364.796	16.454	1826.884	1772.355
365.810	16.208	1826.000	1768.697
366.825	16.411	1824.620	1769.283
367.840	16.618	1824.058	1770.700
368.854	16.794	1823.062	1771.376
369.869	16.556	1820.214	1765.894
370.883	16.451	1818.757	1763.174
371.898	16.312	1817.937	1760.706
372.913	16.296	1816.803	1759.233
373.927	16.352	1815.986	1758.820
374.942	16.633	1814.926	1760.521
375.956	16.733	1813.238	1759.718
376.971	16.696	1811.039	1756.979
377.986	16.543	1809.710	1753.892
379.000	16.492	1808.089	1751.574
380.015	16.479	1807.188	1750.361
381.029	16.271	1804.999	1745.867
382.044	16.304	1802.309	1743.398
383.059	16.188	1801.554	1741.252
384.073	16.198	1800.853	1740.476
385.088	16.337	1799.811	1740.702
386.102	16.245	1797.508	1737.312
387.117	16.381	1795.398	1736.464
388.132	16.303	1796.115	1736.147
389.146	17.144	1800.478	1748.867
390.161	20.458	1804.948	1787.328
391.175	20.109	1799.095	1777.725
392.190	17.182	1789.770	1738.233
393.205	16.527	1785.948	1727.590
394.219	16.533	1784.491	1726.037
395.234	16.569	1782.804	1724.564
396.248	16.424	1782.382	1722.462
397.263	16.272	1779.656	1718.063
398.278	16.292	1777.925	1716.395
399.292	16.350	1777.034	1715.923
400.307	16.401	1776.198	1715.425
401.321	16.422	1775.140	1714.418
402.336	16.486	1773.938	1713.703
403.350	16.540	1772.663	1712.819
404.365	16.539	1772.163	1712.123
405.380	16.862	1770.983	1714.056
406.394	16.968	1769.620	1713.604
407.409	16.894	1767.969	1711.053
408.423	16.955	1766.778	1710.315
409.438	16.959	1765.274	1708.695
410.453	16.872	1763.825	1706.211
411.467	16.968	1763.137	1706.304
412.482	16.917	1761.555	1704.055
413.496	16.652	1759.850	1699.527
414.511	16.439	1758.210	1695.600
415.526	16.478	1755.875	1693.537
416.540	16.538	1753.634	1691.773
417.555	16.428	1754.038	1690.851
418.569	16.807	1753.231	1693.678
419.584	16.775	1753.860	1693.765
420.599	16.589	1754.017	1691.849
421.613	16.518	1752.142	1689.120
422.628	16.434	1750.238	1686.245
423.642	16.329	1748.549	1683.360
424.657	16.379	1747.484	1682.637
425.672	16.462	1746.181	1682.006
426.686	16.463	1744.402	1680.108
427.701	16.428	1742.923	1678.124
428.715	16.477	1741.870	1677.405
429.730	16.704	1740.761	1678.393
430.745	16.712	1738.630	1676.222
431.759	16.876	1739.186	1678.186
432.774	17.293	1739.103	1682.055
433.788	17.709	1739.923	1686.784
434.803	17.841	1739.716	1687.691
435.818	17.931	1738.733	1687.427
436.832	17.727	1738.361	1684.840
437.847	16.802	1730.669	1668.035
438.861	9.185	1711.226	1574.311
439.876	1.549	1697.188	1486.399
440.890	0.192	1693.072	1469.311
441.905	0.178	1691.745	1467.841
442.920	0.147	1690.021	1465.872
443.934	0.111	1689.758	1465.113
444.949	0.176	1688.004	1464.056
445.963	0.127	1687.659	1463.096
446.978	0.122	1686.716	1462.059
447.993	0.047	1685.000	1459.666
449.007	0.052	1683.041	1457.840
450.022	0.130	1681.075	1456.720
451.036	0.132	1679.428	1455.138
452.051	1.057	1683.959	1467.902
453.066	8.529	1700.436	1555.353
454.080	16.113	1712.024	1640.172
455.095	17.680	1714.261	1657.443
456.109	17.975	1714.346	1660.211
457.124	18.209	1713.611	1661.587
458.139	18.303	1712.725	1661.448
459.153	18.333	1711.574	1660.418
460.168	18.376	1709.890	1659.007
461.182	18.295	1709.006	1657.167
462.197	18.195	1706.774	1653.833
463.212	18.132	1705.429	1651.716
464.226	18.202	1704.186	1650.995
465.241	18.200	1703.555	1650.169
466.255	18.379	1702.141	1650.337
467.270	18.392	1700.141	1648.318
468.285	18.246	1699.008	1645.611
469.299	18.170	1697.544	1643.268
470.314	18.304	1695.806	1642.683
471.328	18.243	1694.872	1640.988
472.343	18.330	1693.560	1640.359
473.358	18.474	1692.856	1640.870
474.372	18.509	1690.923	1639.137
475.387	18.296	1689.261	1635.285
476.401	18.219	1688.328	1633.443
477.416	18.251	1686.814	1632.094
478.430	18.348	1685.632	1631.684
479.445	18.252	1684.192	1629.169
480.460	18.087	1683.119	1626.368
481.474	18.038	1683.253	1625.827
482.489	18.341	1681.666	1626.993
483.503	18.454	1679.647	1625.922
484.518	18.424	1678.147	1623.990
485.533	18.486	1677.406	1623.671
486.547	18.509	1675.998	1622.333
487.562	18.604	1675.045	1622.122
488.576	18.439	1673.750	1619.106
489.591	18.481	1672.650	1618.247
490.606	18.357	1671.286	1615.557
491.620	18.561	1669.231	1615.312
492.635	18.590	1668.086	1614.284
493.649	18.699	1667.475	1614.529
494.664	18.372	1665.278	1609.122
495.679	18.102	1663.456	1604.621
496.693	18.127	1662.459	1603.701
497.708	18.382	1661.789	1605.265
498.722	18.632	1661.199	1606.861
499.737	18.613	1659.202	1604.552
500.752	18.478	1657.285	1601.243
501.766	18.354	1656.142	1598.786
502.781	18.438	1654.849	1598.134
503.795	18.511	1653.194	1597.025
504.810	18.330	1652.947	1594.899
505.825	18.618	1651.843	1596.338
506.839	18.490	1651.075	1594.207
507.854	18.513	1650.017	1593.205
508.868	18.574	1648.406	1592.036
509.883	18.547	1647.244	1590.471
510.898	18.691	1646.269	1590.680
511.912	18.609	1643.616	1587.157
512.927	18.421	1642.387	1584.036
513.941	18.413	1640.900	1582.335
514.956	18.353	1639.863	1580.590
515.971	18.334	1638.403	1578.822
516.985	18.343	1637.709	1578.050
518.000	18.550	1636.222	1578.343
519.014	18.599	1635.935	1578.330
520.029	18.622	1634.742	1577.201
521.043	18.789	1632.893	1576.771
522.058	18.614	1631.546	1573.667
523.073	18.793	1630.883	1574.488
524.087	18.829	1630.069	1573.848
525.102	18.871	1628.740	1572.757
526.116	18.556	1627.416	1568.398
527.131	18.564	1626.284	1567.191
528.146	18.831	1625.313	1568.517
529.160	18.885	1624.237	1567.792
530.175	18.880	1623.160	1566.514
531.189	18.959	1622.325	1566.246
532.204	18.842	1620.964	1563.670
533.219	18.879	1618.797	1561.736
534.233	18.557	1617.853	1557.693
535.248	18.659	1617.929	1558.513
536.262	18.963	1617.019	1560.226
537.277	18.785	1615.996	1557.426
538.292	18.705	1613.108	1553.734
539.306	18.622	1611.667	1551.400
540.321	18.756	1610.591	1551.400
541.335	18.642	1609.620	1549.242
542.350	18.939	1606.836	1549.067
543.365	18.928	1606.535	1548.496
544.379	18.997	1605.075	1547.527
545.394	19.067	1604.131	1547.058
546.408	18.936	1601.599	1543.251
547.423	18.567	1600.729	1538.903
548.438	18.445	1600.280	1537.182
549.452	18.780	1599.267	1539.044
550.467	18.957	1597.398	1538.652
551.481	18.951	1596.434	1537.490
552.496	18.937	1596.476	1537.221
553.511	19.185	1595.660	1538.480
554.525	19.013	1594.403	1535.540
555.540	19.103	1594.006	1535.780
556.554	19.048	1592.610	1533.759
557.569	19.065	1590.836	1532.012
558.583	18.916	1589.099	1528.829
559.598	18.975	1587.573	1527.707
560.613	19.069	1586.667	1527.488
561.627	18.978	1585.532	1525.398
562.642	19.086	1584.284	1524.983
563.656	19.141	1583.503	1524.536
564.671	19.182	1582.323	1523.582
565.686	19.060	1581.111	1521.150
566.700	18.922	1579.349	1518.045
567.715	18.963	1577.984	1516.917
568.729	18.808	1575.537	1513.009
569.744	18.550	1574.351	1509.404
570.759	18.621	1573.115	1508.666
571.773	18.788	1572.860	1509.719
572.788	18.879	1571.799	1509.329
573.802	19.023	1570.489	1509.159
574.817	19.217	1568.986	1509.242
575.832	19.175	1568.401	1508.124
576.846	19.233	1566.650	1506.776
577.861	18.991	1565.883	1503.725
578.875	19.125	1565.230	1504.096
579.890	19.395	1563.817	1504.930
580.905	19.286	1562.791	1502.807
581.919	19.289	1563.118	1502.965
582.934	19.364	1562.119	1502.480
583.948	19.427	1560.587	1501.380
584.963	19.168	1559.481	1497.874
585.978	19.075	1557.586	1495.063
586.992	19.204	1556.997	1495.445
588.007	19.348	1555.928	1495.490
589.021	19.071	1554.488	1491.516
590.036	18.679	1552.601	1486.116
591.051	18.931	1551.697	1487.266
592.065	19.251	1549.836	1488.081
593.080	19.384	1548.502	1487.772
594.094	19.227	1547.850	1485.608
595.109	19.101	1545.038	1481.644
596.123	18.894	1544.020	1478.700
597.138	19.158	1543.069	1479.890
598.153	19.326	1541.929	1480.076
599.167	19.166	1541.089	1477.712
600.182	19.329	1540.665	1478.527
601.196	19.293	1540.011	1477.415
602.211	19.317	1538.343	1475.848
603.226	19.529	1537.055	1476.256
604.240	19.507	1535.883	1474.764
605.255	19.719	1534.349	1474.938
606.269	19.515	1533.881	1472.556
607.284	19.391	1532.662	1470.146
608.299	19.524	1530.757	1469.287
609.313	19.314	1529.819	1466.411
610.328	19.454	1528.338	1466.009
611.342	19.528	1527.466	1465.630
612.357	19.527	1526.906	1464.910
613.372	19.633	1525.512	1464.298
614.386	19.533	1524.485	1462.289
615.401	19.522	1523.707	1461.277
616.415	19.524	1523.501	1460.916
617.430	19.568	1522.024	1459.698
618.445	19.601	1521.069	1458.886
619.459	19.449	1519.911	1456.317
620.474	19.208	1518.601	1452.843
621.488	19.006	1516.581	1449.030
622.503	18.840	1515.296	1446.222
623.518	19.062	1514.914	1447.559
624.532	19.252	1514.284	1448.388
625.547	19.365	1513.283	1448.217
626.561	19.665	1512.318	1449.647
627.576	19.753	1511.887	1449.801
628.591	19.294	1509.298	1443.284
629.605	19.077	1507.933	1439.983
630.620	19.074	1506.773	1438.680
631.634	18.808	1505.568	1435.116
632.649	18.955	1504.707	1435.361
633.663	19.143	1504.060	1436.152
634.678	19.365	1503.085	1436.905
635.693	19.643	1501.440	1437.486
636.707	19.693	1500.409	1436.743
637.722	19.796	1499.869	1436.917
638.736	19.881	1498.432	1436.080
639.751	19.869	1497.192	1434.615
640.766	19.775	1496.078	1432.593
641.780	19.780	1494.391	1430.850
642.795	19.770	1493.369	1429.612
643.809	19.759	1493.354	1429.335
644.824	19.764	1492.210	1428.116
645.839	19.705	1491.218	1426.508
646.853	19.775	1489.765	1425.525
647.868	19.753	1488.198	1423.671
648.882	19.712	1486.856	1421.878
649.897	19.803	1485.390	1421.054
650.912	19.723	1484.240	1419.128
651.926	19.825	1482.259	1417.901
652.941	19.600	1481.235	1414.903
653.955	19.225	1479.878	1410.355
654.970	19.095	1478.128	1407.447
655.985	19.095	1476.603	1405.822
656.999	19.172	1475.513	1405.253
658.014	19.232	1474.899	1404.994
659.028	19.272	1474.841	1405.099
660.043	19.587	1473.242	1405.977
661.058	19.549	1472.145	1404.452
662.072	19.521	1471.627	1403.563
663.087	19.730	1469.401	1402.976
664.101	19.782	1468.305	1402.188
665.116	19.691	1468.072	1401.052
666.131	19.763	1467.965	1401.368
667.145	19.858	1466.572	1400.648
668.160	19.954	1465.188	1399.938
669.174	20.121	1463.299	1399.324
670.189	20.073	1462.341	1397.846
671.204	19.778	1461.514	1394.504
672.218	19.840	1460.978	1394.324
673.233	19.940	1459.952	1393.985
674.247	20.075	1459.010	1394.016
675.262	20.151	1457.901	1393.402
676.276	20.126	1456.863	1392.042
677.291	19.947	1455.951	1389.556
678.306	19.827	1453.928	1386.492
679.320	19.774	1453.091	1385.104
680.335	19.956	1452.823	1386.148
681.349	19.945	1452.685	1385.763
682.364	20.034	1450.690	1384.410
683.379	19.831	1450.008	1381.956
684.393	19.941	1448.206	1380.956
685.408	20.035	1447.348	1380.730
686.422	19.900	1446.198	1378.385
687.437	19.834	1446.232	1377.723
688.452	20.117	1445.608	1379.233
689.466	19.932	1443.401	1375.483
690.481	19.897	1441.533	1373.255
691.495	19.611	1440.614	1369.936
692.510	19.140	1438.696	1364.203
693.525	19.036	1436.817	1361.430
694.539	19.237	1436.390	1362.456
695.554	19.695	1436.292	1365.842
696.568	20.175	1435.338	1368.577
697.583	20.101	1435.122	1367.622
698.598	20.024	1434.676	1366.422
699.612	20.147	1433.188	1365.818
700.627	20.163	1431.646	1364.312
701.641	20.208	1430.740	1363.638
702.656	20.119	1429.628	1361.716
703.671	20.228	1428.929	1361.748
704.685	20.280	1428.217	1361.311
705.700	20.182	1427.323	1359.526
706.714	20.037	1425.607	1356.584
707.729	20.029	1423.768	1354.610
708.744	20.003	1421.922	1352.491
709.758	19.809	1420.998	1349.925
710.773	19.594	1419.904	1347.042
711.787	19.650	1418.150	1345.651
712.802	19.600	1416.984	1343.995
713.816	19.694	1417.333	1344.904
714.831	19.896	1416.208	1345.251
715.846	20.277	1414.731	1346.663
716.860	20.306	1413.460	1345.512
717.875	20.074	1413.430	1343.520
718.889	20.140	1411.569	1342.104
719.904	20.084	1410.735	1340.714
720.919	20.240	1410.355	1341.406
721.933	20.277	1409.742	1340.950
722.948	20.219	1408.460	1339.116
723.962	20.253	1407.412	1338.226
724.977	20.388	1406.318	1338.067
725.992	20.389	1405.254	1336.904
727.006	20.430	1403.458	1335.352
728.021	20.315	1402.725	1333.605
729.035	20.373	1401.470	1332.705
730.050	20.196	1400.407	1330.165
731.065	20.288	1399.346	1329.707
732.079	20.467	1398.059	1329.702
733.094	20.337	1396.996	1327.532
734.108	20.203	1395.185	1324.629
735.123	20.272	1393.615	1323.503
736.138	20.233	1393.788	1323.210
737.152	20.325	1393.151	1323.157
738.167	20.497	1391.730	1322.964
739.181	20.664	1390.151	1322.580
740.196	20.519	1389.980	1321.151
741.211	20.425	1388.794	1319.150
742.225	20.419	1387.572	1317.786
743.240	20.342	1386.955	1316.449
744.254	20.331	1385.666	1314.989
745.269	20.425	1384.242	1314.197
746.284	20.408	1383.211	1312.925
747.298	20.148	1382.508	1310.129
748.313	19.811	1380.993	1305.977
749.327	19.499	1379.944	1302.463
750.342	19.320	1378.284	1299.382
751.356	19.127	1376.595	1296.178
752.371	19.487	1375.391	1297.614
753.386	19.917	1375.790	1301.085
754.400	20.295	1375.390	1303.403
755.415	20.313	1374.993	1303.007
756.429	20.411	1373.649	1302.315
757.444	20.391	1372.333	1300.756
758.459	20.421	1371.718	1300.248
759.473	20.390	1371.132	1299.301
760.488	20.368	1369.797	1297.720
761.502	20.622	1368.038	1297.800
762.517	20.572	1366.625	1295.929
763.532	20.406	1364.770	1292.771
764.546	20.211	1363.550	1290.005
765.561	19.962	1362.104	1286.623
766.575	19.563	1360.944	1282.393
767.590	19.670	1359.697	1281.869
768.605	20.020	1359.289	1283.938
769.619	20.103	1358.894	1284.030
770.634	20.277	1357.978	1284.305
771.648	20.623	1356.803	1285.610
772.663	20.744	1356.048	1285.637
773.678	20.497	1355.762	1283.380
774.692	20.503	1354.912	1282.469
775.707	20.549	1354.901	1282.642
776.721	20.664	1353.637	1282.142
777.736	20.647	1352.362	1280.659
778.751	20.569	1351.702	1279.302
779.765	20.647	1349.980	1278.096
780.780	20.617	1349.548	1277.309
781.794	20.574	1348.960	1276.287
782.809	20.443	1347.463	1273.749
783.824	20.211	1345.882	1270.398
784.838	20.124	1343.124	1267.000
785.853	19.664	1342.715	1263.086
786.867	19.648	1342.642	1262.749
787.882	19.926	1342.241	1264.261
788.897	20.154	1341.204	1264.805
789.911	20.154	1340.692	1264.168
790.926	20.348	1339.447	1264.264
791.940	20.306	1338.483	1262.900
792.955	20.440	1337.215	1262.531
793.969	20.468	1336.541	1261.946
794.984	20.398	1336.159	1260.926
795.999	20.541	1334.323	1260.084
797.013	20.725	1332.386	1259.436
798.028	20.662	1331.393	1257.896
799.042	20.623	1331.233	1257.305
800.057	20.810	1329.846	1257.203
801.072	20.855	1328.480	1256.090
802.086	20.757	1327.532	1254.330
803.101	20.732	1326.899	1253.403
804.115	20.671	1325.685	1251.664
805.130	20.857	1324.384	1251.632
806.145	20.619	1324.240	1249.628
807.159	20.636	1322.783	1248.226
808.174	20.479	1320.764	1245.038
809.188	20.331	1319.665	1242.787
810.203	20.371	1317.809	1241.181
811.218	20.140	1315.710	1237.400
812.232	19.911	1314.247	1234.229
813.247	19.977	1312.846	1233.239
814.261	20.051	1313.320	1234.068
815.276	20.569	1312.037	1236.416
816.291	20.658	1311.652	1236.543
817.305	20.690	1311.123	1236.122
818.320	20.793	1310.008	1235.663
819.334	20.776	1308.680	1234.137
820.349	20.702	1307.837	1232.669
821.364	20.816	1305.792	1231.407
822.378	20.677	1304.862	1229.394
823.393	20.818	1303.276	1228.753
824.407	20.764	1301.935	1226.958
825.422	20.734	1301.316	1226.014
826.437	20.599	1300.436	1224.086
827.451	20.596	1297.489	1221.143
828.466	20.049	1295.550	1215.317
829.480	19.799	1294.707	1212.617
830.495	20.052	1293.546	1213.167
831.509	20.413	1293.035	1215.081
832.524	20.340	1292.915	1214.307
833.539	20.605	1291.914	1215.085
834.553	20.792	1290.647	1215.064
835.568	20.919	1289.313	1214.548
836.582	20.767	1288.361	1212.442
837.597	20.881	1286.765	1211.591
838.612	20.741	1285.520	1209.296
839.626	20.646	1284.738	1207.754
840.641	20.489	1283.316	1205.181
841.655	20.247	1282.424	1202.509
842.670	19.974	1280.760	1198.905
843.685	19.602	1279.437	1194.936
844.699	20.133	1278.855	1197.944
845.714	20.415	1278.211	1199.150
846.728	20.578	1277.452	1199.424
847.743	20.663	1276.802	1199.266
848.758	20.662	1275.551	1197.936
849.772	20.817	1273.742	1197.164
850.787	20.671	1273.468	1195.754
851.801	20.675	1272.899	1195.106
852.816	20.781	1270.114	1193.082
853.831	20.674	1268.463	1190.652
854.845	20.602	1266.801	1188.451
855.860	20.556	1265.460	1186.736
856.874	20.326	1264.260	1183.890
857.889	20.172	1263.028	1181.541
858.904	19.920	1260.843	1177.637
859.918	19.571	1259.280	1173.651
860.933	19.567	1258.054	1172.341
861.947	20.032	1258.119	1175.431
862.962	20.302	1256.833	1175.930
863.977	20.250	1255.945	1174.600
864.991	20.344	1255.730	1174.898
866.006	20.546	1255.537	1175.950
867.020	20.660	1254.136	1175.272
868.035	20.672	1252.939	1174.095
869.049	20.811	1252.547	1174.530
870.064	21.034	1251.372	1174.793
871.079	20.905	1250.261	1172.738
872.093	20.848	1250.024	1171.989
873.108	20.804	1248.722	1170.336
874.122	20.498	1247.490	1166.971
875.137	20.348	1246.389	1164.795
876.152	20.370	1244.946	1163.452
877.166	20.488	1243.209	1162.481
878.181	20.685	1242.885	1163.365
879.195	20.775	1242.404	1163.377
880.210	20.769	1242.087	1162.905
881.225	20.866	1241.240	1162.620
882.239	20.854	1240.295	1161.516
883.254	20.874	1239.022	1160.322
884.268	20.903	1238.462	1159.853
885.283	20.792	1236.846	1157.459
886.298	20.972	1234.993	1156.782
887.312	20.731	1235.236	1155.264
888.327	20.879	1234.129	1155.076
889.341	20.826	1231.831	1152.437
890.356	20.838	1231.090	1151.686
891.371	20.658	1231.486	1150.720
892.385	20.608	1230.381	1149.217
893.400	20.621	1229.100	1147.970
894.414	20.542	1227.361	1145.688
895.429	20.300	1225.179	1141.912
896.444	19.740	1223.090	1136.128
897.458	19.510	1221.967	1133.435
898.473	19.786	1221.417	1134.609
899.487	20.259	1221.716	1137.870
900.502	20.513	1220.993	1138.733
901.517	20.635	1220.146	1138.608
902.531	20.790	1219.218	1138.627
903.546	20.893	1218.685	1138.671
904.560	20.826	1218.323	1137.755
905.575	20.788	1217.378	1136.489
906.589	20.779	1216.422	1135.398
907.604	20.915	1215.064	1134.888
