DTS Sentinel unit serial number:	SN409020Multiplexer serial number:	ORYXHardware model number:	OX4-SRSoftware version number:	ORYX F/W v3.00 Oryx Data Collector v3.7.2.0data status	okinstallation	HaddamTimeLapsedifferential loss correction	single-endedforward channel	channel 3reverse channel	N/Adate	2011/06/21time	16:51:17forward acquisition time	30.00reverse acquisition time	0.00gamma	498.7831k internal	0.1785k external	0.1785temperature offset calibration	1.0074default loss term (dB/km)	0.3790temperature slope calibration	1.3530multiplexer offset coefficient	1.0000multiplexer slope coefficient	1.0000fibre end	0.00T internal ref (°C)	32.44T ext. ref 1 (°C)	27.36T ext. ref 2 (°C)	0.24length (m)	temperature (°C)	Stokes	anti-Stokes-747.200	-85.109	-0.952	-0.387
-746.185	11.563	-0.308	0.308
-745.171	21.460	-0.320	0.339
-744.156	223.436	-0.094	-0.198
-743.142	116.360	-0.214	-0.342
-742.127	657.481	0.193	0.651
-741.112	6.466	0.238	-0.230
-740.098	-117.412	-0.355	-0.083
-739.083	-8.446	-0.337	0.295
-738.069	-200.000	-0.060	0.709
-737.054	-133.178	-0.051	-0.008
-736.039	6.278	-0.392	-0.378
-735.025	-57.161	0.241	-0.138
-734.010	406.208	-0.050	0.139
-732.996	-10.632	-0.237	-0.204
-731.981	800.000	0.076	-0.294
-730.966	-53.765	0.382	0.227
-729.952	-88.673	-0.139	0.054
-728.937	800.000	0.139	0.530
-727.923	-52.469	-0.111	0.067
-726.908	-49.147	-0.234	0.145
-725.894	277.614	0.081	0.188
-724.879	255.651	0.163	0.366
-723.864	-31.895	0.210	0.153
-722.850	171.929	0.091	0.171
-721.835	-45.948	0.042	0.027
-720.821	218.040	0.310	-0.646
-719.806	289.019	-0.059	-0.141
-718.791	800.000	-0.067	0.321
-717.777	738.372	-0.190	-0.667
-716.762	-60.348	0.280	-0.155
-715.748	-46.522	0.260	0.166
-714.733	-105.758	0.180	-0.053
-713.718	3.371	0.257	0.244
-712.704	381.022	0.187	-0.501
-711.689	800.000	-0.049	-0.274
-710.675	41.373	-0.508	-0.598
-709.660	-200.000	0.004	-0.043
-708.645	800.000	0.111	0.404
-707.631	-200.000	-0.035	-0.606
-706.616	-107.636	0.286	-0.081
-705.602	-174.292	0.096	0.004
-704.587	-18.724	-0.172	0.139
-703.572	-18.301	0.091	0.074
-702.558	-70.103	0.186	-0.092
-701.543	-25.903	0.184	0.140
-700.529	-200.000	0.042	-0.336
-699.514	-46.819	0.169	-0.107
-698.499	-200.000	-0.075	-0.484
-697.485	-40.155	-0.467	-0.316
-696.470	-146.624	-0.345	0.038
-695.456	763.044	0.138	-0.491
-694.441	24.550	0.064	-0.069
-693.426	-200.000	-0.084	-0.578
-692.412	-74.355	-0.356	-0.166
-691.397	210.688	0.110	-0.224
-690.383	-106.271	0.315	0.091
-689.368	-200.000	0.044	-0.310
-688.354	-87.509	-0.343	0.134
-687.339	236.561	0.166	-0.359
-686.324	-105.118	0.499	0.147
-685.310	3.297	-0.732	-0.693
-684.295	-62.438	0.294	-0.159
-683.281	-29.277	0.370	0.275
-682.266	61.490	0.065	-0.084
-681.251	-47.051	-0.245	-0.155
-680.237	197.038	-0.055	0.109
-679.222	-71.632	-0.310	0.150
-678.208	-200.000	0.014	-0.201
-677.193	60.002	-0.298	0.383
-676.178	-98.446	-0.238	0.079
-675.164	-22.985	-0.175	0.137
-674.149	-200.000	-0.063	0.560
-673.135	-153.635	-0.256	0.023
-672.120	-128.535	0.409	0.075
-671.105	42.496	0.243	-0.287
-670.091	-200.000	0.046	0.283
-669.076	70.412	0.323	0.434
-668.062	800.000	0.108	0.492
-667.047	-32.642	0.316	0.228
-666.032	-162.141	0.148	0.009
-665.018	-200.000	0.010	-0.230
-664.003	-200.000	-0.062	0.421
-662.989	-76.119	-0.320	0.146
-661.974	-28.910	-0.230	-0.171
-660.959	-135.998	-0.150	-0.023
-659.945	195.262	0.117	-0.231
-658.930	-200.000	-0.017	0.237
-657.916	461.413	-0.162	0.470
-656.901	-142.203	-0.298	0.038
-655.886	-115.287	0.471	0.115
-654.872	411.931	0.144	0.400
-653.857	-35.021	-0.274	-0.193
-652.843	800.000	0.043	0.191
-651.828	-101.733	0.240	0.075
-650.814	-16.479	-0.454	0.373
-649.799	-90.874	-0.295	-0.110
-648.784	33.631	-0.190	-0.215
-647.770	-43.247	-0.171	0.112
-646.755	-26.184	0.482	-0.367
-645.741	-173.551	-0.031	-0.001
-644.726	690.588	-0.021	0.073
-643.711	11.400	0.239	0.237
-642.697	-200.000	0.014	-0.264
-641.682	-140.668	-0.557	-0.074
-640.668	0.945	-0.052	-0.048
-639.653	72.480	0.198	0.269
-638.638	46.193	0.184	-0.221
-637.624	-90.655	-0.239	-0.089
-636.609	164.846	0.053	-0.098
-635.595	-71.498	-0.112	-0.054
-634.580	28.127	0.279	0.306
-633.565	423.836	-0.270	0.756
-632.551	24.554	-0.217	0.233
-631.536	-16.165	0.248	-0.204
-630.522	-140.797	0.370	-0.049
-629.507	-88.468	0.052	-0.020
-628.492	800.000	0.093	0.383
-627.478	26.775	-0.195	0.212
-626.463	156.060	-0.122	-0.220
-625.449	-200.000	0.032	-0.635
-624.434	-32.709	-0.062	-0.045
-623.419	-200.000	0.021	-0.264
-622.405	109.634	-0.091	-0.141
-621.390	-134.708	0.700	-0.109
-620.376	-138.895	0.261	0.036
-619.361	56.962	-0.187	0.236
-618.346	-35.874	-0.278	0.195
-617.332	-21.708	0.512	-0.404
-616.317	-40.360	-0.040	-0.027
-615.303	-158.566	0.371	-0.027
-614.288	23.876	-0.288	-0.308
-613.273	200.506	0.012	-0.025
-612.259	-92.685	0.642	-0.232
-611.244	719.203	-0.089	-0.307
-610.230	-14.337	-0.355	0.296
-609.215	-200.000	-0.035	0.210
-608.201	55.696	0.187	0.235
-607.186	98.177	0.153	0.229
-606.171	251.775	-0.074	0.163
-605.157	800.000	0.094	0.340
-604.142	-78.831	0.324	-0.142
-603.128	-11.798	0.033	-0.028
-602.113	-200.000	0.014	-0.343
-601.098	158.974	0.199	0.360
-600.084	-200.000	0.009	-0.178
-599.069	800.000	0.007	0.025
-598.055	293.648	0.061	-0.144
-597.040	-200.000	-0.009	-0.350
-596.025	800.000	-0.040	-0.152
-595.011	-88.552	0.275	0.105
-593.996	215.812	-0.175	-0.361
-592.982	44.284	-0.306	-0.364
-591.967	116.174	-0.346	-0.550
-590.952	-113.845	-0.748	0.187
-589.938	-167.179	-0.279	-0.014
-588.923	-6.965	0.352	-0.309
-587.909	150.034	-0.098	-0.172
-586.894	-173.787	-0.785	-0.030
-585.879	-138.016	0.141	-0.020
-584.865	800.000	-0.062	0.342
-583.850	243.740	0.069	0.149
-582.836	-54.007	-0.287	0.169
-581.821	-60.475	-0.493	0.271
-580.806	-35.226	0.058	-0.041
-579.792	-132.850	-0.447	-0.073
-578.777	-16.642	-0.263	0.216
-577.763	93.606	-0.187	-0.275
-576.748	-131.941	-0.088	0.015
-575.733	-14.542	0.130	0.108
-574.719	82.288	0.132	-0.185
-573.704	148.617	-0.149	0.260
-572.690	800.000	0.023	0.088
-571.675	-188.839	0.357	0.006
-570.661	-65.258	0.432	-0.224
-569.646	-152.623	0.768	-0.070
-568.631	672.494	-0.178	-0.601
-567.617	-137.979	0.251	-0.036
-566.602	-200.000	-0.003	-0.345
-565.588	68.876	0.198	-0.263
-564.573	197.616	0.043	0.085
-563.558	49.062	-0.227	0.276
-562.544	738.920	-0.052	0.182
-561.529	-59.966	-0.670	0.369
-560.515	775.257	-0.115	0.408
-559.500	36.744	-0.386	-0.441
-558.485	359.659	0.184	-0.478
-557.471	613.907	-0.062	-0.203
-556.456	-99.893	0.247	0.079
-555.442	35.728	0.047	0.054
-554.427	11.686	0.237	-0.235
-553.412	-200.000	0.010	0.146
-552.398	470.235	-0.128	0.375
-551.383	431.763	-0.069	-0.194
-550.369	155.544	-0.056	0.100
-549.354	91.738	-0.174	0.254
-548.339	90.614	0.309	-0.448
-547.325	-200.000	0.041	-0.337
-546.310	39.685	0.032	0.037
-545.296	103.723	-0.196	0.297
-544.281	800.000	-0.053	0.280
-543.266	20.566	0.254	0.265
-542.252	-200.000	-0.001	-0.208
-541.237	109.273	0.227	0.351
-540.223	-200.000	0.025	-0.152
-539.208	173.095	0.204	0.382
-538.193	-200.000	-0.064	0.383
-537.179	-113.909	0.349	0.087
-536.164	505.769	0.191	-0.576
-535.150	-69.568	-0.489	-0.241
-534.135	42.320	-0.127	-0.149
-533.121	-200.000	-0.066	-0.413
-532.106	-66.808	-0.039	-0.020
-531.091	59.278	0.106	-0.135
-530.077	-65.064	0.273	-0.142
-529.062	429.427	-0.189	-0.532
-528.048	-77.892	0.421	0.187
-527.033	311.425	-0.074	0.180
-526.018	102.441	-0.359	0.543
-525.004	-71.982	-0.079	0.038
-523.989	-8.629	-0.270	0.234
-522.975	-23.629	-0.324	-0.251
-521.960	155.931	-0.221	-0.394
-520.945	-200.000	0.022	-0.141
-519.931	456.149	-0.173	-0.497
-518.916	-106.982	0.268	0.076
-517.902	273.079	0.127	0.290
-516.887	-133.523	-0.427	-0.068
-515.872	-122.374	-0.267	-0.056
-514.858	-93.308	-0.178	0.063
-513.843	205.625	0.164	0.331
-512.829	-95.385	0.671	0.231
-511.814	-160.752	0.162	-0.011
-510.799	-81.014	0.412	-0.175
-509.785	429.572	0.085	-0.240
-508.770	231.810	-0.162	0.345
-507.756	361.360	-0.066	-0.173
-506.741	-67.664	-0.261	-0.131
-505.726	140.078	0.027	-0.046
-504.712	-7.433	0.199	0.174
-503.697	0.863	-0.268	-0.248
-502.683	214.705	0.060	-0.124
-501.668	-200.000	0.033	-0.331
-500.653	440.739	0.035	0.100
-499.639	-7.231	-0.324	-0.283
-498.624	87.596	-0.316	0.452
-497.610	800.000	-0.039	0.203
-496.595	-91.838	-0.490	0.179
-495.581	-173.296	0.087	-0.003
-494.566	-78.399	-0.244	-0.107
-493.551	-46.849	-0.366	-0.230
-492.537	76.633	-0.131	0.180
-491.522	-200.000	0.251	-0.001
-490.508	-153.202	-0.601	0.054
-489.493	-77.674	0.270	0.120
-488.478	-64.170	0.266	0.139
-487.464	-117.816	-0.341	0.078
-486.449	-37.866	0.458	0.313
-485.435	-200.000	-0.016	-0.216
-484.420	-114.730	-0.266	0.065
-483.405	-78.490	-0.244	0.107
-482.391	800.000	-0.065	0.358
-481.376	-162.453	0.292	0.018
-480.362	-200.000	0.025	0.378
-479.347	171.835	0.041	-0.075
-478.332	340.568	0.090	0.227
-477.318	-29.353	0.135	-0.099
-476.303	800.000	0.040	0.188
-475.289	-83.762	-0.139	0.057
-474.274	545.894	-0.090	0.280
-473.259	234.046	0.005	-0.010
-472.245	800.000	-0.102	0.466
-471.230	-200.000	-0.025	0.370
-470.216	16.581	0.118	0.120
-469.201	173.724	0.076	-0.142
-468.186	-80.673	-0.314	-0.134
-467.172	-66.384	-0.271	-0.138
-466.157	800.000	0.127	-0.523
-465.143	37.076	0.441	0.504
-464.128	123.361	-0.286	0.463
-463.113	-155.687	-0.343	0.028
-462.099	-168.298	-0.537	0.026
-461.084	-3.123	-0.357	0.321
-460.070	-200.000	-0.029	-0.304
-459.055	0.585	0.120	0.111
-458.040	-81.988	-0.879	0.368
-457.026	800.000	-0.104	-0.580
-456.011	-46.319	0.434	-0.274
-454.997	-54.371	0.142	0.082
-453.982	62.509	0.160	0.206
-452.968	-58.242	-0.190	-0.106
-451.953	110.307	0.223	-0.346
-450.938	-200.000	-0.008	0.374
-449.924	800.000	-0.043	-0.242
-448.909	-200.000	0.020	0.353
-447.895	258.404	0.273	0.607
-446.880	77.539	-0.208	-0.286
-445.865	-78.921	0.381	0.166
-444.851	-35.579	0.339	0.236
-443.836	-43.225	-0.463	-0.301
-442.822	-53.943	0.182	-0.107
-441.807	800.000	0.070	0.266
-440.792	56.764	-0.171	0.214
-439.778	759.299	0.085	-0.299
-438.763	-200.000	-0.017	0.601
-437.749	-172.028	-0.704	0.029
-436.734	-173.162	-0.744	-0.029
-435.719	-43.797	0.350	-0.227
-434.705	-180.709	0.334	-0.009
-433.690	-16.051	0.464	-0.379
-432.676	-41.406	-0.162	0.107
-431.661	-55.330	-0.346	0.200
-430.646	65.318	0.229	0.299
-429.632	-64.549	0.063	0.033
-428.617	49.562	-0.044	-0.054
-427.603	-200.000	0.016	0.160
-426.588	191.157	0.112	-0.217
-425.573	-200.000	0.030	-0.337
-424.559	-126.053	0.435	0.083
-423.544	800.000	0.048	-0.271
-422.530	-13.009	-0.185	0.155
-421.515	-200.000	-0.001	0.413
-420.500	800.000	0.057	0.214
-419.486	44.464	0.382	0.452
-418.471	-152.251	0.187	-0.017
-417.457	181.879	0.162	-0.308
-416.442	-71.791	0.340	-0.162
-415.428	-117.789	0.189	-0.043
-414.413	-20.070	-0.473	-0.375
-413.398	-194.596	-0.240	0.002
-412.384	800.000	-0.034	0.179
-411.369	522.891	-0.050	0.151
-410.355	-32.630	-0.230	-0.164
-409.340	436.997	-0.058	0.163
-408.325	178.637	-0.077	-0.145
-407.311	-104.239	0.423	-0.126
-406.296	-200.000	0.031	0.423
-405.282	58.116	0.342	0.431
-404.267	-86.099	-0.224	0.088
-403.252	-155.203	0.086	0.007
-402.238	-53.192	0.381	0.224
-401.223	800.000	-0.062	-0.249
-400.209	-37.519	-0.086	-0.059
-399.194	-8.419	0.549	-0.474
-398.179	-115.024	0.078	-0.019
-397.165	-191.153	-0.298	0.004
-396.150	63.326	-0.358	-0.462
-395.136	152.902	0.253	-0.445
-394.121	-137.771	-0.146	0.021
-393.106	-14.880	0.328	0.270
-392.092	-32.792	0.340	-0.242
-391.077	-200.000	0.041	0.309
-390.063	-46.764	-0.368	0.231
-389.048	-24.811	-0.355	0.271
-388.033	-75.827	-0.271	0.123
-387.019	-200.000	0.017	0.508
-386.004	50.784	0.008	-0.010
-384.990	-28.690	-0.251	-0.185
-383.975	52.749	0.127	0.156
-382.960	90.637	0.273	-0.394
-381.946	23.669	0.435	0.460
-380.931	-97.447	-0.361	0.120
-379.917	-200.000	0.001	0.016
-378.902	-200.000	0.009	0.237
-377.888	-31.200	-0.138	0.100
-376.873	56.987	-0.195	0.244
-375.858	47.080	-0.098	0.117
-374.844	448.289	-0.185	0.526
-373.829	-181.876	-0.310	-0.007
-372.815	554.251	-0.053	-0.166
-371.800	-126.331	-0.237	0.045
-370.785	800.000	0.040	-0.144
-369.771	-99.620	0.290	-0.093
-368.756	-200.000	-0.036	0.439
-367.742	-200.000	0.043	0.427
-366.727	126.234	0.065	0.106
-365.712	61.909	0.146	-0.187
-364.698	514.671	0.024	-0.071
-363.683	735.228	-0.102	0.354
-362.669	7.024	0.143	0.136
-361.654	-123.020	0.120	0.025
-360.639	13.708	0.247	0.246
-359.625	-54.868	0.620	0.358
-358.610	800.000	0.128	0.544
-357.596	-112.531	0.410	0.104
-356.581	-85.558	-0.185	0.074
-355.566	-68.691	-0.104	0.051
-354.552	-111.016	-0.421	-0.110
-353.537	-133.563	0.592	0.094
-352.523	133.302	0.144	0.239
-351.508	-158.920	-0.180	0.013
-350.493	114.866	-0.150	0.235
-349.479	-140.174	-0.198	-0.026
-348.464	800.000	-0.135	-0.558
-347.450	-74.835	0.416	-0.190
-346.435	800.000	-0.030	0.144
-345.420	-134.391	-0.218	0.034
-344.406	-200.000	0.038	0.444
-343.391	230.056	0.193	0.405
-342.377	398.403	-0.077	0.208
-341.362	800.000	-0.093	0.484
-340.348	-98.662	0.138	0.045
-339.333	1.942	-0.303	-0.281
-338.318	18.608	-0.225	-0.231
-337.304	37.189	-0.239	0.272
-336.289	-178.171	-0.103	-0.003
-335.275	89.448	0.070	0.100
-334.260	282.549	0.241	-0.557
-333.245	103.319	-0.405	-0.611
-332.231	-135.159	0.245	-0.037
-331.216	13.200	0.098	-0.097
-330.202	106.875	0.263	-0.400
-329.187	-30.911	0.379	0.274
-328.172	-100.650	-0.588	0.185
-327.158	-142.148	-0.447	-0.056
-326.143	-65.686	-0.170	0.087
-325.129	33.355	-0.095	-0.106
-324.114	-200.000	-0.062	-0.368
-323.099	-79.750	0.413	-0.177
-322.085	-200.000	-0.021	-0.278
-321.070	800.000	0.077	-0.382
-320.056	328.824	0.363	-0.898
-319.041	143.555	-0.235	-0.403
-318.026	800.000	0.069	-0.391
-317.012	56.683	0.095	-0.119
-315.997	-70.778	-0.177	-0.085
-314.983	-101.219	-0.222	-0.069
-313.968	-10.337	-0.128	0.108
-312.953	-120.245	-0.252	0.055
-311.939	-153.834	0.431	-0.037
-310.924	381.994	0.142	-0.376
-309.910	-139.436	-0.167	-0.023
-308.895	-116.938	0.267	-0.062
-307.880	8.356	0.410	-0.395
-306.866	95.075	0.204	-0.298
-305.851	49.046	0.214	0.258
-304.837	-200.000	-0.005	0.178
-303.822	-59.180	-0.310	-0.170
-302.807	52.959	-0.128	0.157
-301.793	-200.000	0.023	0.304
-300.778	-200.000	0.006	0.039
-299.764	-12.367	-0.130	-0.109
-298.749	-200.000	0.025	0.291
-297.735	800.000	0.103	0.399
-296.720	-108.288	0.365	-0.100
-295.705	33.139	0.069	0.077
-294.691	-47.029	-0.033	0.021
-293.676	-107.714	0.518	0.144
-292.662	-173.905	0.344	0.013
-291.647	-138.597	0.177	0.025
-290.632	800.000	0.066	0.244
-289.618	2.397	-0.191	0.177
-288.603	153.043	-0.242	-0.425
-287.589	96.140	0.175	0.257
-286.574	45.966	0.167	0.198
-285.559	177.078	0.031	-0.058
-284.545	-115.645	-0.192	0.046
-283.530	-26.964	-0.259	0.193
-282.516	800.000	0.076	-0.312
-281.501	0.300	0.493	0.449
-280.486	-81.130	-0.180	0.076
-279.472	11.517	0.175	0.171
-278.457	61.839	0.140	0.179
-277.443	-200.000	-0.037	0.407
-276.428	-110.523	0.112	0.030
-275.413	29.202	-0.214	-0.232
-274.399	-200.000	0.033	0.297
-273.384	-15.994	-0.136	0.111
-272.370	505.102	0.028	-0.085
-271.355	179.402	0.134	-0.252
-270.340	630.320	-0.086	0.280
-269.326	110.558	-0.339	0.522
-268.311	-190.816	-0.183	0.002
-267.297	74.684	0.161	-0.217
-266.282	197.887	-0.158	-0.310
-265.267	-200.000	0.032	-0.307
-264.253	50.919	0.172	0.209
-263.238	-169.951	-0.082	0.004
-262.224	629.180	-0.082	0.266
-261.209	-134.911	0.067	-0.010
-260.195	-42.346	0.137	-0.089
-259.180	-200.000	-0.004	-0.200
-258.165	-121.139	-0.276	0.059
-257.151	-171.430	0.277	0.012
-256.136	535.874	-0.016	0.049
-255.122	144.390	-0.202	-0.345
-254.107	-84.877	-0.059	-0.023
-253.092	-120.560	-0.291	-0.062
-252.078	109.334	-0.139	-0.213
-251.063	-150.473	-0.259	-0.025
-250.049	-178.455	0.151	0.004
-249.034	-83.282	0.389	0.159
-248.019	261.303	0.149	0.331
-247.005	133.036	0.189	-0.312
-245.990	169.057	0.261	-0.477
-244.976	-42.517	-0.322	-0.209
-243.961	-126.515	0.531	-0.100
-242.946	-12.100	-0.153	0.128
-241.932	96.150	0.297	-0.435
-240.917	-66.611	-0.330	-0.166
-239.903	2.330	0.201	-0.185
-238.888	-85.171	0.120	0.048
-237.873	800.000	-0.054	-0.217
-236.859	81.347	0.038	-0.052
-235.844	800.000	-0.051	-0.275
-234.830	500.647	0.103	0.304
-233.815	-200.000	-0.015	-0.133
-232.800	88.877	-0.180	0.256
-231.786	-6.215	-0.081	0.071
-230.771	35.154	0.281	-0.314
-229.757	58.397	0.128	0.160
-228.742	-200.000	-0.007	-0.255
-227.727	308.417	-0.070	0.168
-226.713	446.689	-0.081	0.229
-225.698	-157.260	0.435	-0.033
-224.684	669.022	-0.031	-0.102
-223.669	-47.560	-0.043	0.026
-222.655	124.532	0.211	0.340
-221.640	-43.623	-0.390	0.251
-220.625	164.523	0.164	-0.297
-219.611	-192.363	0.298	-0.004
-218.596	-54.906	-0.163	-0.094
-217.582	-60.780	-0.326	0.176
-216.567	690.164	0.060	0.200
-215.552	655.686	-0.063	0.206
-214.538	134.509	-0.296	0.490
-213.523	-53.297	0.368	-0.215
-212.509	630.299	0.046	0.151
-211.494	36.708	-0.185	-0.208
-210.479	280.915	0.104	-0.239
-209.465	-200.000	-0.027	0.379
-208.450	91.570	0.204	0.293
-207.436	-200.000	-0.014	0.174
-206.421	-89.631	0.262	-0.097
-205.406	187.011	-0.108	0.206
-204.392	-200.000	-0.041	-0.241
-203.377	800.000	-0.106	0.437
-202.363	-200.000	-0.006	0.073
-201.348	30.917	-0.228	-0.249
-200.333	101.098	-0.156	-0.231
-199.319	32.722	0.303	-0.334
-198.304	85.388	0.111	0.156
-197.290	800.000	0.055	-0.289
-196.275	1.949	-0.223	0.205
-195.260	-84.605	-0.323	-0.129
-194.246	-147.893	0.306	0.032
-193.231	-7.565	0.197	-0.169
-192.217	99.136	0.108	-0.159
-191.202	66.608	-0.266	0.346
-190.187	-122.801	-0.257	-0.052
-189.173	-120.134	-0.171	-0.037
-188.158	-14.015	-0.354	-0.291
-187.144	66.424	-0.225	-0.291
-186.129	31.922	-0.244	-0.268
-185.114	-61.892	-0.423	0.225
-184.100	-69.743	-0.186	0.090
-183.085	-153.037	0.131	-0.012
-182.071	-99.544	0.274	-0.087
-181.056	-100.223	0.737	-0.232
-180.042	800.000	0.079	-0.300
-179.027	-33.731	-0.062	-0.044
-178.012	-104.320	0.439	-0.129
-176.998	117.590	-0.176	-0.277
-175.983	-30.148	0.255	-0.184
-174.969	-116.537	0.094	0.022
-173.954	252.106	0.253	-0.550
-172.939	800.000	-0.074	-0.358
-171.925	-167.019	0.169	-0.009
-170.910	584.002	-0.090	0.282
-169.896	2.134	-0.164	0.151
-168.881	112.943	-0.123	-0.190
-167.866	-35.215	-0.474	-0.328
-166.852	-68.955	-0.362	0.177
-165.837	-21.728	0.090	0.070
-164.823	-60.794	-0.088	0.047
-163.808	-148.314	0.374	-0.039
-162.793	-23.340	0.234	-0.178
-161.779	-71.241	-0.720	-0.342
-160.764	106.545	0.161	-0.243
-159.750	-200.000	0.022	0.281
-158.735	-1.979	0.012	0.011
-157.720	-32.254	0.323	-0.229
-156.706	-101.510	0.154	-0.047
-155.691	-133.237	-0.025	0.004
-154.677	-61.876	0.312	0.165
-153.662	-31.769	0.149	0.106
-152.647	-32.981	-0.124	-0.088
-151.633	7.888	0.262	-0.250
-150.618	-200.000	0.663	-0.001
-149.604	-89.154	-0.356	0.133
-148.589	167.759	-0.219	0.397
-147.574	-160.454	0.412	-0.028
-146.560	145.160	-0.071	0.122
-145.545	61.889	0.181	-0.230
-144.531	20.564	-0.204	0.210
-143.516	800.000	-0.013	-0.056
-142.502	66.159	0.043	0.056
-141.487	262.182	0.124	-0.275
-140.472	-64.105	0.316	0.164
-139.458	797.647	-0.067	-0.236
-138.443	-133.252	-0.152	0.024
-137.429	196.696	-0.078	-0.151
-136.414	-34.278	-0.113	-0.079
-135.399	-64.232	0.203	-0.105
-134.385	-40.643	-0.360	-0.237
-133.370	800.000	-0.050	0.274
-132.356	34.023	-0.229	0.253
-131.341	-82.587	0.664	-0.272
-130.326	-200.000	0.233	0.001
-129.312	800.000	-0.118	0.478
-128.297	148.460	-0.201	0.346
-127.283	-117.411	-0.128	0.029
-126.268	-121.229	-0.043	-0.009
-125.253	-200.000	0.030	-0.539
-124.239	-34.507	0.160	0.111
-123.224	-179.647	0.349	-0.009
-122.210	-180.902	0.409	0.010
-121.195	-44.498	0.214	-0.136
-120.180	-12.839	-0.194	-0.161
-119.166	-93.977	-0.428	0.149
-118.151	-74.530	0.489	0.223
-117.137	243.222	0.181	-0.386
-116.122	-200.000	0.052	-0.295
-115.107	-3.885	-0.484	-0.427
-114.093	800.000	0.089	0.343
-113.078	0.743	-0.334	-0.304
-112.064	800.000	-0.105	0.558
-111.049	-30.160	0.625	0.451
-110.034	-200.000	-0.078	0.456
-109.020	-101.802	-0.320	0.098
-108.005	383.487	-0.102	-0.268
-106.991	-25.342	-0.561	0.421
-105.976	143.686	-0.259	0.440
-104.962	-200.000	0.004	0.192
-103.947	-146.668	-0.301	-0.033
-102.932	-41.436	-0.515	-0.336
-101.918	800.000	0.020	-0.097
-100.903	-11.333	-0.129	-0.108
-99.889	-200.000	-0.034	-0.657
-98.874	77.547	-0.108	-0.146
-97.859	250.665	0.228	0.493
-96.845	-130.627	-0.314	-0.053
-95.830	-59.674	-0.172	0.093
-94.816	50.484	-0.317	-0.381
-93.801	280.674	0.154	-0.350
-92.786	-88.229	0.367	0.139
-91.772	-90.528	0.124	-0.045
-90.757	-32.386	-0.215	-0.152
-89.743	618.523	0.018	0.057
-88.728	-58.772	-0.528	-0.289
-87.713	-200.000	-0.001	0.568
-86.699	-41.439	0.213	0.139
-85.684	-55.808	0.059	0.033
-84.670	-200.000	0.007	0.067
-83.655	237.410	0.160	0.338
-82.640	71.286	-0.087	-0.115
-81.626	-124.134	0.129	-0.026
-80.611	-108.195	-0.528	-0.144
-79.597	-33.577	0.162	0.113
-78.582	-93.402	0.800	0.280
-77.567	-65.099	-0.162	0.083
-76.553	57.438	0.063	-0.078
-75.538	161.083	-0.218	0.387
-74.524	800.000	0.029	0.114
-73.509	-200.000	-0.004	0.279
-72.494	-34.995	-0.117	-0.081
-71.480	-56.405	0.461	-0.259
-70.465	215.103	-0.035	0.070
-69.451	394.280	0.128	0.339
-68.436	-107.715	0.243	0.067
-67.422	-114.889	0.369	-0.088
-66.407	800.000	0.127	-0.525
-65.392	-200.000	0.030	0.405
-64.378	-125.992	-0.263	-0.050
-63.363	-200.000	-0.106	0.601
-62.349	-16.150	-0.095	0.076
-61.334	17.877	-1.393	-1.407
-60.319	6.729	0.630	0.594
-59.305	198.762	-3.362	-6.549
-58.290	-5.355	3.138	2.731
-57.276	412.438	3.945	10.683
-56.261	-200.000	16.679	248.467
-55.246	419.949	1214.073	3313.375
-54.232	57.732	2843.793	3529.973
-53.217	63.851	2724.635	3475.777
-52.203	38.051	2454.199	2769.156
-51.188	38.335	2106.373	2380.072
-50.173	34.636	1980.523	2195.125
-49.159	33.268	1969.104	2166.653
-48.144	32.912	1964.828	2157.774
-47.130	32.885	1961.818	2154.072
-46.115	32.792	1960.643	2151.621
-45.100	32.674	1958.905	2148.279
-44.086	32.679	1957.857	2147.106
-43.071	32.569	1956.368	2144.127
-42.057	32.696	1954.890	2143.869
-41.042	32.756	1953.259	2142.683
-40.027	32.677	1952.252	2140.592
-39.013	32.672	1949.873	2137.846
-37.998	32.632	1948.965	2136.304
-36.984	32.503	1948.489	2134.234
-35.969	32.612	1946.475	2133.184
-34.954	32.491	1945.509	2130.658
-33.940	32.658	1944.253	2131.105
-32.925	32.602	1942.833	2128.827
-31.911	32.601	1941.274	2127.015
-30.896	32.593	1939.936	2125.375
-29.881	32.464	1938.060	2121.778
-28.867	32.550	1936.897	2121.399
-27.852	32.394	1936.327	2118.914
-26.838	32.399	1934.844	2117.266
-25.823	32.506	1933.146	2116.539
-24.809	32.494	1931.649	2114.677
-23.794	32.497	1930.769	2113.664
-22.779	32.418	1928.862	2110.602
-21.765	32.414	1927.679	2109.178
-20.750	32.303	1927.057	2107.166
-19.736	32.436	1925.362	2106.726
-18.721	32.383	1924.647	2105.264
-17.706	32.364	1923.625	2103.844
-16.692	32.420	1921.633	2102.210
-15.677	32.402	1921.276	2101.539
-14.663	32.284	1920.383	2099.157
-13.648	32.471	1917.119	2097.599
-12.633	32.318	1916.727	2095.375
-11.619	32.262	1916.050	2093.922
-10.604	32.347	1913.880	2092.415
-9.590	32.318	1912.793	2090.822
-8.575	32.353	1911.570	2089.789
-7.560	32.341	1910.635	2088.554
-6.546	32.294	1909.226	2086.404
-5.531	32.293	1908.529	2085.554
-4.517	32.333	1906.912	2084.145
-3.502	32.288	1906.056	2082.627
-2.487	32.318	1904.816	2081.519
-1.473	32.270	1902.360	2078.222
-0.458	32.300	1881.775	2055.985
0.556	28.779	2020.869	2153.635
1.571	27.563	2234.933	2365.631
2.586	28.767	2280.189	2429.252
3.600	28.871	2282.876	2433.210
4.615	28.920	2282.927	2433.632
5.629	28.968	2280.452	2431.328
6.644	29.015	2277.977	2429.035
7.659	28.967	2276.578	2426.611
8.673	28.978	2274.465	2424.213
9.688	28.595	2280.208	2424.962
10.702	26.450	2356.475	2476.284
11.717	23.652	2420.886	2504.058
12.731	11.900	2390.489	2306.828
13.746	1.812	2362.985	2138.242
14.761	0.366	2357.564	2112.710
15.775	0.289	2356.123	2110.094
16.790	0.167	2354.956	2107.074
17.804	0.194	2352.577	2105.072
18.819	0.265	2351.230	2104.609
19.834	0.210	2350.092	2102.571
20.848	0.204	2348.674	2100.966
21.863	0.113	2347.037	2097.973
22.877	0.137	2344.995	2096.236
23.892	0.132	2342.885	2094.027
24.907	0.205	2340.012	2092.225
25.921	0.214	2338.875	2091.091
26.936	0.098	2337.072	2087.613
27.950	0.139	2333.936	2085.121
28.965	0.156	2331.770	2083.181
29.980	0.078	2331.810	2081.874
30.994	0.352	2329.606	2083.464
32.009	6.562	2350.070	2188.348
33.023	20.821	2393.494	2429.863
34.038	27.614	2408.266	2540.063
35.053	28.724	2408.042	2555.050
36.067	28.830	2406.388	2554.478
37.082	28.840	2403.731	2551.490
38.096	28.777	2401.235	2547.646
39.111	29.162	2400.159	2551.571
40.126	29.518	2398.421	2554.362
41.140	29.728	2398.969	2557.565
42.155	29.335	2394.360	2546.886
43.169	28.905	2390.996	2537.044
44.184	28.935	2388.961	2535.001
45.199	28.847	2386.764	2531.140
46.213	28.868	2384.708	2528.952
47.228	28.512	2384.769	2523.785
48.242	28.584	2381.784	2521.320
49.257	28.638	2380.442	2520.352
50.271	28.954	2378.460	2522.297
51.286	28.822	2376.258	2517.850
52.301	28.817	2373.627	2514.688
53.315	28.380	2372.222	2506.900
54.330	28.447	2370.797	2506.003
55.344	28.427	2366.999	2501.420
56.359	28.328	2365.499	2498.176
57.374	28.331	2363.264	2495.561
58.388	28.336	2359.461	2491.318
59.403	28.287	2354.909	2485.535
60.417	28.160	2353.443	2481.967
61.432	28.341	2351.316	2481.895
62.447	28.260	2349.566	2478.648
63.461	28.244	2347.034	2475.457
64.476	28.141	2345.793	2472.451
65.490	28.341	2345.259	2474.309
66.505	28.645	2344.886	2477.743
67.520	28.512	2342.702	2473.340
68.534	27.909	2339.559	2461.563
69.549	28.057	2336.151	2459.685
70.563	28.195	2333.679	2458.647
71.578	28.278	2332.603	2458.336
72.593	28.427	2331.024	2458.388
73.607	28.711	2329.420	2460.226
74.622	28.575	2327.664	2456.251
75.636	28.385	2323.991	2449.523
76.651	28.515	2322.054	2448.932
77.666	28.411	2321.094	2446.241
78.680	28.452	2318.107	2443.343
79.695	28.525	2315.609	2441.403
80.709	28.422	2315.677	2439.804
81.724	28.417	2313.452	2437.093
82.739	28.462	2311.029	2434.852
83.753	28.561	2309.527	2434.300
84.768	28.456	2306.992	2429.939
85.782	28.292	2306.334	2426.768
86.797	28.261	2302.994	2422.554
87.812	28.080	2300.469	2417.207
88.826	27.948	2298.283	2412.868
89.841	28.041	2297.235	2412.704
90.855	28.302	2295.391	2413.938
91.870	28.120	2293.375	2409.125
92.884	28.099	2291.076	2406.147
93.899	28.375	2289.561	2407.909
94.914	28.218	2289.935	2405.935
95.928	27.827	2288.104	2398.561
96.943	27.774	2285.516	2394.871
97.957	27.965	2284.601	2396.133
98.972	28.184	2281.255	2395.223
99.987	27.943	2278.006	2388.356
101.001	27.950	2275.369	2385.405
102.016	27.977	2274.152	2384.188
103.030	28.050	2271.661	2382.257
104.045	28.266	2270.972	2384.073
105.060	28.539	2269.272	2385.569
106.074	28.542	2267.281	2383.229
107.089	28.383	2264.021	2377.442
108.103	28.283	2263.904	2375.739
109.118	28.482	2263.324	2377.441
110.133	28.603	2260.949	2376.236
111.147	28.390	2258.354	2370.447
112.162	28.402	2257.590	2369.526
113.176	28.495	2254.792	2367.506
114.191	28.461	2253.125	2365.029
115.206	28.386	2250.864	2361.402
116.220	28.410	2249.134	2359.622
117.235	28.349	2246.824	2356.128
118.249	28.320	2245.593	2354.175
119.264	28.429	2244.263	2353.906
120.279	28.470	2242.865	2352.688
121.293	28.525	2239.839	2349.944
122.308	28.466	2237.822	2346.779
123.322	28.367	2236.426	2343.766
124.337	27.940	2235.366	2336.885
125.352	28.185	2235.278	2339.659
126.366	28.401	2235.276	2342.154
127.381	28.355	2231.119	2336.934
128.395	28.376	2227.956	2333.608
129.410	28.562	2227.082	2334.795
130.424	28.515	2225.423	2332.178
131.439	28.486	2223.134	2329.127
132.454	28.252	2222.066	2324.744
133.468	28.383	2219.483	2323.433
134.483	28.449	2216.869	2321.255
135.497	28.491	2215.806	2320.392
136.512	28.628	2213.797	2319.755
137.527	28.614	2212.140	2317.562
138.541	28.447	2211.477	2314.474
139.556	28.365	2209.958	2311.562
140.570	28.324	2209.354	2310.142
141.585	28.458	2206.777	2308.868
142.600	28.599	2204.339	2307.820
143.614	28.387	2202.736	2303.190
144.629	28.489	2201.122	2302.510
145.643	28.236	2199.367	2297.206
146.658	28.140	2196.799	2293.041
147.673	28.146	2193.557	2289.459
148.687	28.142	2193.917	2289.512
149.702	28.276	2193.567	2290.559
150.716	28.231	2192.191	2288.280
151.731	28.525	2190.891	2290.342
152.746	28.598	2190.026	2290.081
153.760	28.184	2188.526	2283.047
154.775	27.983	2186.840	2278.496
155.789	27.769	2184.295	2272.896
156.804	27.712	2181.730	2269.241
157.819	27.853	2178.145	2266.994
158.833	28.156	2175.960	2268.223
159.848	28.356	2175.989	2270.480
160.862	28.655	2174.052	2271.906
161.877	28.674	2173.378	2271.167
162.892	28.824	2173.214	2272.581
163.906	29.059	2172.034	2274.000
164.921	29.186	2170.164	2273.344
165.935	29.064	2167.521	2268.798
166.950	28.807	2166.093	2263.843
167.964	28.678	2163.272	2259.033
168.979	28.481	2162.087	2255.093
169.994	28.511	2160.466	2253.500
171.008	28.584	2157.140	2250.654
172.023	28.505	2155.818	2248.034
173.037	28.637	2156.240	2249.838
174.052	28.800	2153.776	2248.993
175.067	28.593	2151.738	2244.061
176.081	28.465	2150.204	2240.617
177.096	28.488	2148.578	2238.931
178.110	28.419	2146.991	2236.174
179.125	28.304	2146.729	2234.216
180.140	28.534	2145.335	2235.321
181.154	28.715	2144.226	2236.113
182.169	28.712	2142.531	2234.043
183.183	28.393	2139.498	2226.718
184.198	28.130	2138.215	2221.905
185.213	28.095	2136.970	2219.913
186.227	28.449	2135.179	2222.098
187.242	28.367	2133.699	2219.294
188.256	28.365	2131.710	2216.940
189.271	28.597	2130.786	2218.532
190.286	28.630	2130.004	2217.858
191.300	28.466	2126.383	2211.822
192.315	28.484	2124.012	2209.311
193.329	28.574	2124.337	2210.475
194.344	28.880	2122.974	2212.495
195.359	29.066	2122.093	2213.559
196.373	29.036	2121.163	2211.972
197.388	29.085	2117.667	2208.649
198.402	28.819	2115.460	2202.872
199.417	28.808	2113.032	2199.949
200.432	28.858	2112.000	2199.212
201.446	28.869	2110.948	2197.985
202.461	28.621	2107.919	2191.592
203.475	28.388	2105.641	2186.172
204.490	28.226	2104.167	2182.432
205.504	28.329	2101.592	2180.743
206.519	28.171	2099.764	2176.695
207.534	28.348	2098.165	2176.888
208.548	28.457	2096.637	2176.341
209.563	27.974	2094.138	2167.734
210.577	28.025	2093.232	2167.140
211.592	28.453	2093.850	2172.621
212.607	28.303	2092.254	2168.916
213.621	27.381	2090.432	2155.806
214.636	27.413	2088.400	2153.826
215.650	27.775	2086.947	2156.373
216.665	28.235	2085.046	2159.605
217.680	28.569	2084.440	2162.677
218.694	28.592	2083.817	2162.046
219.709	28.472	2081.501	2157.960
220.723	28.712	2080.977	2160.003
221.738	28.890	2079.817	2160.642
222.753	28.996	2077.200	2158.912
223.767	28.753	2075.466	2153.989
224.782	28.508	2072.110	2147.362
225.796	28.606	2071.584	2147.714
226.811	28.979	2070.855	2151.090
227.826	29.054	2069.810	2150.621
228.840	29.032	2068.648	2148.904
229.855	28.856	2066.151	2143.991
230.869	28.386	2064.215	2136.221
231.884	28.127	2062.644	2131.304
232.899	28.458	2060.322	2132.517
233.913	28.664	2059.997	2134.338
234.928	28.736	2058.871	2133.756
235.942	28.762	2057.377	2132.251
236.957	28.643	2055.484	2128.647
237.972	28.707	2054.230	2127.841
238.986	28.647	2053.726	2126.363
240.001	28.547	2050.754	2121.872
241.015	28.309	2050.015	2118.091
242.030	28.426	2049.701	2118.873
243.045	28.523	2048.223	2118.216
244.059	28.388	2046.404	2114.512
245.074	28.548	2043.922	2113.553
246.088	28.475	2041.156	2109.587
247.103	28.706	2038.884	2109.662
248.117	28.707	2038.173	2108.681
249.132	28.779	2036.378	2107.400
250.147	28.552	2034.351	2102.442
251.161	28.476	2033.273	2100.197
252.176	28.567	2031.297	2098.951
253.190	28.467	2028.663	2094.824
254.205	28.336	2026.906	2091.260
255.220	28.695	2026.439	2094.644
256.234	28.640	2025.565	2092.858
257.249	28.571	2023.761	2089.961
258.263	28.610	2023.595	2089.986
259.278	28.787	2022.114	2090.224
260.293	28.702	2020.918	2087.770
261.307	28.653	2018.651	2084.620
262.322	28.559	2017.244	2081.840
263.336	28.325	2014.369	2075.964
264.351	28.171	2012.841	2072.383
265.366	28.351	2011.632	2072.939
266.380	28.349	2010.748	2071.755
267.395	28.126	2007.770	2065.912
268.409	28.100	2006.438	2064.003
269.424	28.287	2005.470	2064.874
270.439	28.369	2005.676	2065.766
271.453	28.392	2003.453	2063.489
272.468	27.963	2001.783	2056.667
273.482	27.779	1998.601	2051.080
274.497	27.980	1995.860	2050.292
275.512	28.182	1994.615	2051.037
276.526	28.222	1992.504	2049.076
277.541	28.161	1990.980	2046.570
278.555	28.112	1989.685	2044.449
279.570	28.022	1986.733	2040.159
280.585	27.996	1985.833	2038.699
281.599	28.108	1984.534	2038.375
282.614	28.479	1984.276	2042.025
283.628	28.846	1983.594	2045.186
284.643	28.398	1980.365	2036.609
285.657	26.736	1975.313	2012.637
286.672	25.332	1969.630	1990.964
287.687	24.980	1967.993	1985.146
288.701	25.509	1969.181	1992.007
289.716	26.346	1969.004	2000.899
290.730	25.989	1965.684	1993.323
291.745	25.779	1964.461	1989.516
292.760	26.645	1966.158	2000.620
293.774	27.345	1967.066	2009.069
294.789	28.142	1968.388	2019.028
295.803	28.700	1967.005	2023.548
296.818	28.510	1965.852	2020.018
297.833	28.706	1964.142	2020.181
298.847	28.641	1963.680	2018.752
299.862	28.874	1961.371	2018.712
300.876	28.508	1959.719	2012.731
301.891	28.200	1958.570	2007.915
302.906	28.400	1957.125	2008.394
303.920	28.705	1955.658	2010.007
304.935	28.802	1954.251	2009.383
305.949	28.760	1952.854	2007.242
306.964	28.902	1951.203	2006.868
307.979	28.024	1944.860	1990.498
308.993	25.296	1937.414	1952.847
310.008	23.910	1934.067	1934.101
311.022	24.192	1932.481	1935.365
312.037	24.540	1931.376	1937.825
313.052	24.397	1929.346	1934.000
314.066	24.058	1927.146	1927.874
315.081	24.034	1925.617	1925.850
316.095	24.025	1925.454	1925.351
317.110	24.112	1923.535	1924.157
318.125	24.199	1921.772	1923.101
319.139	24.062	1919.997	1919.614
320.154	24.057	1919.877	1919.204
321.168	24.583	1919.642	1924.434
322.183	26.663	1924.442	1951.569
323.197	28.523	1927.218	1974.302
324.212	28.746	1925.286	1974.498
325.227	28.575	1922.637	1969.697
326.241	28.565	1920.680	1967.346
327.256	28.473	1919.856	1965.280
328.270	28.528	1919.380	1965.145
329.285	28.502	1918.323	1963.551
330.300	28.295	1917.415	1960.154
331.314	27.850	1915.734	1953.422
332.329	27.829	1913.536	1950.717
333.343	28.178	1912.302	1952.972
334.358	28.657	1910.049	1955.568
335.373	28.820	1909.904	1956.928
336.387	28.939	1907.482	1955.486
337.402	28.835	1906.568	1953.203
338.416	28.720	1904.615	1949.743
339.431	28.771	1903.596	1949.008
340.446	28.766	1900.070	1945.121
341.460	26.674	1892.808	1915.245
342.475	24.903	1887.551	1890.914
343.489	24.345	1884.708	1881.916
344.504	24.141	1883.700	1878.528
345.519	24.219	1882.759	1878.190
346.533	24.083	1880.144	1873.922
347.548	23.987	1879.988	1872.517
348.562	24.048	1878.189	1871.155
349.577	24.012	1877.112	1869.475
350.592	24.310	1876.286	1871.571
351.606	24.351	1875.695	1871.192
352.621	24.247	1874.072	1868.255
353.635	24.223	1872.448	1866.161
354.650	24.581	1873.264	1870.512
355.665	26.777	1876.105	1896.248
356.679	28.378	1878.370	1915.148
357.694	28.540	1877.619	1915.848
358.708	28.646	1876.809	1915.909
359.723	28.693	1875.879	1915.219
360.738	28.147	1874.157	1907.510
361.752	28.132	1872.096	1905.028
362.767	28.466	1870.894	1907.073
363.781	28.685	1869.309	1907.512
364.796	28.791	1868.309	1907.376
365.810	28.673	1865.683	1903.236
366.825	27.203	1859.424	1881.340
367.840	24.783	1853.900	1850.402
368.854	24.033	1851.418	1839.914
369.869	24.122	1849.401	1838.612
370.883	24.143	1848.203	1837.419
371.898	24.175	1847.605	1836.935
372.913	24.168	1845.864	1834.909
373.927	24.137	1843.601	1832.125
374.942	24.042	1842.439	1829.768
375.956	24.322	1841.736	1831.743
376.971	24.327	1839.396	1829.239
377.986	23.930	1837.863	1823.415
379.000	23.925	1837.024	1822.305
380.015	24.299	1837.221	1826.138
381.029	26.207	1840.154	1848.482
382.044	28.325	1842.922	1872.841
383.059	28.879	1841.990	1877.354
384.073	28.606	1841.191	1873.512
385.088	28.578	1839.723	1871.511
386.102	28.805	1839.115	1872.991
387.117	28.871	1837.565	1871.870
388.132	28.867	1836.130	1870.142
389.146	28.454	1835.821	1865.373
390.161	27.998	1832.788	1857.411
391.175	27.896	1830.243	1853.575
392.190	28.278	1827.304	1854.266
393.205	28.526	1825.824	1855.061
394.219	28.793	1823.648	1855.339
395.234	28.603	1823.192	1852.730
396.248	28.392	1821.489	1848.635
397.263	28.291	1820.011	1845.893
398.278	28.276	1817.759	1843.228
399.292	28.097	1816.269	1839.688
400.307	27.124	1812.061	1825.392
401.321	25.165	1805.506	1798.835
402.336	24.180	1802.933	1786.139
403.350	24.147	1801.137	1783.815
404.365	24.786	1800.698	1789.590
405.380	24.666	1799.159	1786.647
406.394	24.298	1797.322	1780.915
407.409	24.173	1795.725	1777.861
408.423	24.417	1794.750	1779.129
409.438	24.305	1793.215	1776.277
410.453	24.354	1792.396	1775.745
411.467	24.261	1791.926	1774.137
412.482	24.505	1791.901	1776.338
413.496	26.520	1795.754	1800.115
414.511	28.380	1797.122	1819.855
415.526	28.470	1796.514	1819.923
416.540	29.030	1794.906	1823.654
417.555	28.939	1794.096	1821.710
418.569	28.703	1793.920	1818.965
419.584	28.748	1793.389	1818.650
420.599	28.975	1792.619	1819.911
421.613	28.765	1790.867	1815.826
422.628	28.891	1789.691	1815.668
423.642	29.064	1788.700	1816.158
424.657	28.842	1786.489	1811.501
425.672	28.500	1784.206	1805.587
426.686	28.781	1783.416	1807.349
427.701	28.725	1781.906	1805.048
428.715	28.728	1781.080	1804.021
429.730	29.069	1779.994	1806.072
430.745	29.542	1779.105	1809.614
431.759	29.511	1777.934	1807.899
432.774	28.952	1775.893	1800.112
433.788	27.400	1770.996	1779.695
434.803	26.390	1769.056	1767.617
435.818	26.348	1768.767	1766.706
436.832	26.432	1767.681	1766.234
437.847	25.480	1760.200	1749.241
438.861	15.653	1731.674	1625.621
439.876	3.397	1708.520	1485.522
440.890	0.497	1702.978	1452.496
441.905	0.269	1701.776	1449.098
442.920	0.294	1700.323	1447.929
443.934	0.283	1698.685	1446.246
444.949	0.247	1697.966	1445.118
445.963	0.083	1697.539	1442.999
446.978	0.044	1697.207	1442.170
447.993	0.159	1695.630	1441.766
449.007	0.207	1693.233	1440.014
450.022	0.261	1690.987	1438.451
451.036	0.338	1689.669	1437.900
452.051	1.589	1697.163	1456.147
453.066	12.667	1722.874	1585.773
454.080	23.955	1740.966	1712.070
455.095	26.499	1745.005	1740.463
456.109	27.506	1746.939	1751.922
457.124	27.744	1746.176	1753.247
458.139	27.797	1745.552	1752.927
459.153	27.809	1745.335	1752.618
460.168	28.098	1743.003	1752.845
461.182	28.314	1741.486	1753.192
462.197	28.307	1738.769	1750.174
463.212	28.035	1737.949	1746.536
464.226	28.157	1736.962	1746.498
465.241	28.369	1736.280	1747.643
466.255	28.563	1734.720	1747.716
467.270	28.459	1733.279	1745.066
468.285	28.362	1732.615	1743.258
469.299	28.594	1731.492	1744.135
470.314	28.734	1729.759	1743.513
471.328	28.707	1728.335	1741.612
472.343	28.765	1727.429	1741.049
473.358	28.751	1725.828	1739.095
474.372	28.672	1724.304	1736.591
475.387	28.549	1723.624	1734.537
476.401	28.315	1721.857	1730.325
477.416	28.140	1719.517	1726.106
478.430	28.098	1718.163	1724.147
479.445	28.361	1717.795	1726.056
480.460	28.352	1716.964	1724.937
481.474	28.491	1716.450	1725.521
482.489	28.639	1715.306	1725.568
483.503	28.553	1713.300	1722.528
484.518	28.398	1711.507	1719.059
485.533	28.478	1709.840	1717.929
486.547	28.289	1707.875	1713.974
487.562	28.191	1706.644	1711.611
488.576	28.339	1706.064	1712.223
489.591	28.555	1704.848	1712.823
490.606	28.724	1703.170	1712.511
491.620	28.580	1702.184	1709.965
492.635	28.781	1699.656	1709.108
493.649	28.424	1698.148	1704.048
494.664	28.235	1698.410	1702.341
495.679	28.363	1696.033	1700.945
496.693	28.468	1695.754	1701.448
497.708	28.763	1694.581	1702.813
498.722	28.801	1693.963	1702.343
499.737	28.894	1692.983	1702.017
500.752	28.832	1690.741	1698.987
501.766	28.681	1688.453	1695.083
502.781	28.886	1686.980	1695.302
503.795	28.977	1685.589	1694.542
504.810	28.818	1685.410	1692.687
505.825	28.900	1684.443	1692.277
506.839	28.816	1682.291	1689.130
507.854	28.732	1681.325	1687.186
508.868	28.617	1679.869	1684.459
509.883	28.550	1678.771	1682.535
510.898	28.569	1677.663	1681.403
511.912	28.350	1675.744	1677.262
512.927	28.223	1673.274	1673.427
513.941	28.251	1671.455	1671.660
514.956	28.017	1670.531	1668.388
515.971	28.021	1669.056	1666.755
516.985	28.088	1668.100	1666.214
518.000	28.149	1667.456	1665.930
519.014	28.361	1667.115	1667.332
520.029	28.423	1665.549	1666.134
521.043	28.359	1664.478	1664.275
522.058	28.432	1662.461	1662.721
523.073	28.561	1661.857	1663.098
524.087	28.734	1660.776	1663.391
525.102	28.653	1659.481	1661.159
526.116	28.484	1658.233	1658.175
527.131	28.635	1657.705	1658.815
528.146	28.970	1656.217	1660.172
529.160	28.744	1655.685	1657.393
530.175	28.961	1654.746	1658.215
531.189	28.962	1653.925	1657.201
532.204	29.061	1651.513	1655.482
533.219	28.952	1650.250	1653.040
534.233	28.577	1650.015	1649.212
535.248	28.428	1648.257	1645.913
536.262	28.449	1646.730	1644.384
537.277	28.577	1646.119	1644.727
538.292	28.532	1644.485	1642.494
539.306	28.490	1642.898	1640.339
540.321	28.338	1640.857	1636.740
541.335	28.087	1639.723	1633.161
542.350	28.452	1638.201	1634.714
543.365	28.681	1636.783	1635.155
544.379	28.813	1635.435	1634.793
545.394	28.665	1634.815	1632.654
546.408	28.441	1632.948	1628.595
547.423	28.500	1632.608	1628.592
548.438	28.714	1631.738	1629.436
549.452	28.922	1630.407	1629.767
550.467	28.790	1628.429	1626.414
551.481	28.860	1627.859	1626.279
552.496	28.852	1626.908	1625.060
553.511	28.914	1626.121	1624.633
554.525	28.914	1624.640	1622.955
555.540	29.065	1623.838	1623.302
556.554	29.178	1622.133	1622.401
557.569	29.065	1620.428	1619.508
558.583	28.683	1619.747	1615.252
559.598	28.790	1618.529	1614.786
560.613	28.636	1617.421	1612.130
561.627	28.962	1615.311	1612.710
562.642	28.747	1614.314	1609.629
563.656	28.766	1612.435	1607.723
564.671	28.699	1611.096	1605.607
565.686	28.815	1609.223	1604.573
566.700	28.638	1608.252	1601.857
567.715	28.481	1608.206	1600.243
568.729	28.243	1606.558	1596.324
569.744	28.062	1604.364	1592.372
570.759	28.228	1603.298	1592.572
571.773	28.358	1602.561	1592.787
572.788	28.480	1601.096	1592.208
573.802	28.580	1599.547	1591.348
574.817	28.796	1597.782	1591.283
575.832	28.570	1597.286	1588.629
576.846	28.625	1596.442	1588.076
577.861	28.771	1595.100	1587.820
578.875	28.966	1593.894	1588.125
579.890	29.014	1593.689	1588.142
580.905	28.990	1592.289	1586.350
581.919	28.910	1592.246	1585.427
582.934	29.088	1591.293	1585.824
583.948	28.920	1590.540	1583.432
584.963	29.068	1587.790	1581.789
585.978	28.771	1586.915	1578.157
586.992	28.473	1585.575	1574.065
588.007	28.561	1584.643	1573.713
589.021	28.298	1581.824	1568.460
590.036	27.826	1579.809	1562.219
591.051	28.093	1579.612	1564.135
592.065	28.400	1578.453	1565.431
593.080	28.500	1577.233	1564.895
594.094	28.754	1575.580	1565.239
595.109	28.660	1574.547	1563.221
596.123	28.774	1573.390	1562.858
597.138	29.072	1572.483	1564.317
598.153	28.756	1571.166	1560.125
599.167	28.751	1569.463	1558.208
600.182	28.619	1568.551	1555.992
601.196	28.623	1568.059	1555.344
602.211	29.023	1566.815	1557.330
603.226	28.966	1565.207	1555.064
604.240	29.148	1564.380	1555.602
605.255	29.104	1563.958	1554.621
606.269	29.038	1563.164	1553.084
607.284	29.046	1561.126	1550.944
608.299	29.038	1559.256	1548.829
609.313	28.963	1557.895	1546.659
610.328	28.933	1556.839	1545.173
611.342	29.056	1555.153	1544.356
612.357	28.878	1554.611	1542.126
613.372	28.973	1553.492	1541.638
614.386	28.951	1552.380	1540.158
615.401	28.937	1551.809	1539.290
616.415	29.036	1550.629	1538.767
617.430	28.821	1550.636	1536.784
618.445	28.733	1549.021	1534.261
619.459	28.830	1547.615	1533.497
620.474	28.809	1546.194	1531.730
621.488	28.603	1544.041	1527.696
622.503	28.259	1542.752	1523.359
623.518	28.639	1542.331	1525.935
624.532	28.739	1542.218	1526.473
625.547	28.736	1540.767	1524.830
626.561	28.999	1539.719	1525.802
627.576	28.811	1539.279	1523.622
628.591	28.777	1537.572	1521.464
629.605	28.599	1535.599	1517.848
630.620	28.651	1533.884	1516.405
631.634	28.341	1532.814	1512.598
632.649	28.607	1532.197	1514.008
633.663	28.649	1531.415	1513.406
634.678	28.968	1529.570	1514.040
635.693	29.051	1528.568	1513.550
636.707	28.947	1527.455	1511.414
637.722	29.088	1525.589	1510.549
638.736	29.013	1525.696	1509.854
639.751	29.123	1524.645	1509.537
640.766	29.165	1523.120	1508.193
641.780	29.124	1521.215	1505.793
642.795	29.140	1520.266	1504.803
643.809	29.090	1520.308	1504.250
644.824	29.136	1519.381	1503.535
645.839	29.071	1518.540	1501.984
646.853	29.232	1517.057	1501.661
647.868	29.210	1515.048	1499.312
648.882	29.029	1513.431	1496.051
649.897	28.984	1512.015	1494.104
650.912	28.812	1510.168	1490.704
651.926	28.762	1509.836	1489.785
652.941	28.726	1508.470	1487.970
653.955	28.250	1506.207	1481.688
654.970	27.903	1503.235	1475.766
655.985	27.850	1501.948	1473.900
656.999	27.894	1501.023	1473.168
658.014	27.849	1500.461	1472.081
659.028	28.310	1500.145	1475.324
660.043	28.515	1500.325	1476.983
661.058	28.843	1498.887	1478.042
662.072	28.931	1497.189	1476.900
663.087	28.858	1495.986	1474.956
664.101	28.760	1495.356	1473.365
665.116	28.932	1494.416	1473.650
666.131	28.949	1494.113	1473.305
667.145	29.031	1493.405	1473.092
668.160	29.232	1491.545	1472.697
669.174	29.223	1489.846	1470.775
670.189	29.217	1489.420	1470.125
671.204	29.240	1488.741	1469.468
672.218	29.188	1487.858	1468.000
673.233	29.284	1486.584	1467.334
674.247	29.305	1485.511	1466.272
675.262	29.381	1484.333	1465.541
676.276	29.315	1482.711	1463.237
677.291	29.215	1481.865	1461.431
678.306	29.174	1481.374	1460.443
679.320	29.194	1479.179	1458.263
680.335	29.068	1479.178	1457.082
681.349	29.301	1478.273	1457.872
682.364	29.229	1477.050	1455.916
683.379	29.313	1475.549	1454.930
684.393	29.186	1473.525	1451.759
685.408	29.144	1473.160	1450.892
686.422	29.134	1472.140	1449.631
687.437	29.179	1471.631	1449.315
688.452	29.031	1471.261	1447.607
689.466	29.214	1469.145	1446.795
690.481	29.263	1467.231	1445.119
691.495	29.001	1466.684	1442.347
692.510	28.778	1465.486	1439.237
693.525	28.632	1463.296	1435.765
694.539	28.757	1462.576	1435.873
695.554	29.023	1462.990	1438.194
696.568	29.263	1461.782	1438.721
697.583	29.103	1460.678	1436.206
698.598	29.004	1460.182	1434.769
699.612	29.287	1458.539	1435.202
700.627	29.417	1457.123	1434.654
701.641	29.328	1456.022	1432.701
702.656	29.302	1455.165	1431.483
703.671	29.395	1454.788	1431.667
704.685	29.576	1453.634	1431.771
705.700	29.393	1452.444	1429.006
706.714	29.052	1450.646	1424.414
707.729	29.029	1448.782	1422.233
708.744	28.998	1447.431	1420.491
709.758	28.904	1445.711	1417.906
710.773	28.528	1444.041	1413.186
711.787	28.208	1443.053	1409.576
712.802	28.552	1442.118	1411.152
713.816	28.769	1442.211	1412.752
714.831	29.003	1441.611	1413.805
715.846	29.091	1440.211	1412.940
716.860	29.108	1439.181	1411.889
717.875	29.211	1437.707	1411.072
718.889	29.058	1436.662	1408.700
719.904	28.951	1436.238	1407.293
720.919	29.071	1435.281	1407.110
721.933	29.156	1434.438	1406.765
722.948	29.111	1433.458	1405.289
723.962	29.155	1432.422	1404.443
724.977	29.220	1431.282	1403.660
725.992	29.464	1429.888	1403.990
727.006	29.459	1428.267	1402.192
728.021	29.266	1427.573	1399.866
729.035	29.278	1426.790	1399.021
730.050	29.402	1425.566	1398.598
731.065	29.368	1423.907	1396.546
732.079	29.404	1423.051	1395.815
733.094	29.390	1421.977	1394.490
734.108	29.350	1420.186	1392.257
735.123	29.332	1418.758	1390.555
736.138	29.527	1417.914	1391.039
737.152	29.514	1416.851	1389.729
738.167	29.462	1416.162	1388.495
739.181	29.695	1414.947	1388.897
740.196	29.600	1414.104	1387.192
741.211	29.469	1413.743	1385.682
742.225	29.350	1413.112	1383.996
743.240	29.430	1411.020	1382.384
744.254	29.486	1409.612	1381.260
745.269	29.361	1408.270	1378.843
746.284	29.398	1407.184	1377.895
747.298	29.359	1406.602	1376.865
748.313	29.321	1405.576	1375.412
749.327	29.008	1404.450	1371.796
750.342	28.745	1403.888	1369.113
751.356	28.572	1402.326	1366.132
752.371	28.799	1400.952	1366.327
753.386	29.122	1399.972	1367.621
754.400	29.433	1399.269	1369.092
755.415	29.565	1398.632	1369.289
756.429	29.638	1397.260	1368.322
757.444	29.650	1396.218	1367.230
758.459	29.605	1395.661	1366.186
759.473	29.490	1394.675	1364.198
760.488	29.436	1393.523	1362.511
761.502	29.487	1391.345	1360.599
762.517	29.375	1390.339	1358.624
763.532	29.346	1389.140	1357.068
764.546	29.319	1387.427	1355.038
765.561	28.787	1386.077	1349.627
766.575	28.077	1384.376	1342.576
767.590	28.074	1383.168	1341.216
768.605	28.685	1382.775	1345.176
769.619	29.055	1382.693	1347.661
770.634	29.140	1381.691	1347.149
771.648	29.342	1380.731	1347.533
772.663	29.463	1380.122	1347.665
773.678	29.483	1379.954	1347.489
774.692	29.659	1378.607	1347.301
775.707	29.637	1378.128	1346.509
776.721	29.552	1377.797	1345.408
777.736	29.581	1375.534	1343.246
778.751	29.680	1374.745	1343.036
779.765	29.480	1374.226	1340.909
780.780	29.528	1373.546	1340.439
781.794	29.691	1372.021	1339.973
782.809	29.474	1371.157	1337.391
783.824	29.262	1369.941	1334.501
784.838	29.240	1368.188	1332.473
785.853	28.948	1367.033	1329.067
786.867	29.150	1366.507	1329.862
787.882	29.157	1366.932	1330.174
788.897	29.086	1365.521	1328.125
789.911	29.221	1363.796	1327.263
790.926	29.285	1362.633	1326.438
791.940	29.457	1361.327	1326.249
792.955	29.472	1359.886	1324.794
793.969	29.298	1358.731	1322.258
794.984	29.517	1358.154	1323.114
795.999	29.609	1357.457	1322.939
797.013	29.619	1355.917	1321.352
798.028	29.537	1354.455	1319.184
799.042	29.551	1354.195	1318.872
800.057	29.633	1352.952	1318.087
801.072	29.597	1351.678	1316.435
802.086	29.478	1350.237	1314.020
803.101	29.586	1349.622	1314.034
804.115	29.813	1348.209	1314.124
805.130	29.621	1347.549	1311.954
806.145	29.501	1346.552	1309.968
807.159	29.385	1345.489	1307.950
808.174	29.428	1343.720	1306.380
809.188	29.421	1342.150	1304.647
810.203	29.403	1340.179	1302.454
811.218	29.261	1338.449	1299.604
812.232	28.643	1337.187	1293.848
813.247	28.306	1336.695	1290.833
814.261	28.716	1337.069	1293.945
815.276	29.465	1336.110	1298.161
816.291	29.361	1334.894	1296.085
817.305	29.255	1334.569	1294.863
818.320	29.431	1333.292	1294.714
819.334	29.587	1332.076	1294.474
820.349	29.637	1330.691	1293.325
821.364	29.678	1329.118	1291.931
822.378	29.688	1327.679	1290.452
823.393	29.795	1325.891	1289.305
824.407	29.653	1324.815	1287.112
825.422	29.663	1324.260	1286.488
826.437	29.520	1323.656	1284.746
827.451	29.287	1322.122	1281.479
828.466	29.077	1320.383	1278.175
829.480	29.184	1318.643	1277.082
830.495	29.207	1316.986	1275.486
831.509	29.206	1316.808	1275.152
832.524	29.466	1315.607	1275.641
833.539	29.389	1314.623	1273.999
834.553	29.467	1314.165	1273.945
835.568	29.477	1312.793	1272.532
836.582	29.515	1311.528	1271.417
837.597	29.740	1309.924	1271.269
838.612	29.625	1308.305	1268.747
839.626	29.394	1307.623	1266.339
840.641	29.159	1307.060	1264.024
841.655	29.050	1305.657	1261.765
842.670	28.606	1303.592	1256.566
843.685	28.021	1302.047	1250.901
844.699	28.689	1301.843	1255.150
845.714	29.067	1300.988	1256.765
846.728	29.091	1300.523	1256.334
847.743	29.199	1299.679	1256.107
848.758	29.359	1298.619	1256.031
849.772	29.489	1297.166	1255.361
850.787	29.487	1296.044	1254.109
851.801	29.513	1294.616	1252.754
852.816	29.431	1293.922	1251.373
853.831	29.458	1292.532	1250.064
854.845	29.424	1291.065	1248.263
855.860	29.181	1289.439	1244.892
856.874	29.180	1287.924	1243.274
857.889	29.292	1286.261	1242.284
858.904	29.227	1284.707	1240.188
859.918	28.983	1283.528	1237.254
860.933	28.828	1281.861	1234.454
861.947	28.997	1281.224	1234.833
862.962	29.321	1280.256	1235.935
863.977	29.200	1279.479	1234.224
864.991	29.201	1278.522	1233.161
866.006	29.294	1278.608	1233.719
867.020	29.227	1277.989	1232.525
868.035	29.242	1276.986	1231.509
869.049	29.441	1275.602	1231.365
870.064	29.474	1274.456	1230.329
871.079	29.740	1273.244	1230.795
872.093	29.275	1273.038	1227.335
873.108	29.244	1271.986	1225.966
874.122	29.006	1270.434	1222.738
875.137	28.970	1269.007	1220.977
876.152	28.849	1267.965	1219.017
877.166	28.759	1266.272	1216.645
878.181	28.905	1265.478	1216.709
879.195	29.170	1264.965	1217.830
880.210	29.311	1263.910	1217.605
881.225	29.274	1263.634	1216.947
882.239	29.457	1261.983	1216.426
883.254	29.395	1261.304	1215.218
884.268	29.575	1260.729	1215.705
885.283	29.613	1258.592	1213.750
886.298	29.653	1257.371	1212.692
887.312	29.368	1256.593	1209.919
888.327	29.428	1255.462	1209.081
889.341	29.382	1254.216	1207.433
890.356	29.356	1253.906	1206.817
891.371	29.182	1254.077	1205.694
892.385	29.183	1252.928	1204.452
893.400	29.338	1251.261	1203.726
894.414	29.273	1250.313	1202.239
895.429	29.270	1248.144	1199.991
896.444	29.055	1246.416	1196.779
897.458	28.602	1245.347	1192.651
898.473	28.652	1244.955	1192.459
899.487	29.116	1244.116	1194.542
900.502	29.274	1242.712	1194.076
901.517	29.088	1241.872	1191.920
902.531	29.306	1240.494	1191.869
903.546	29.363	1240.248	1191.864
904.560	29.375	1240.113	1191.667
905.575	29.309	1239.506	1190.510
906.589	29.381	1237.812	1189.208
907.604	29.263	1236.934	1187.463
