DTS Sentinel unit serial number:	SN409020Multiplexer serial number:	ORYXHardware model number:	OX4-SRSoftware version number:	ORYX F/W v3.00 Oryx Data Collector v3.7.2.0data status	okinstallation	HaddamTimeLapsedifferential loss correction	single-endedforward channel	channel 3reverse channel	N/Adate	2011/06/22time	11:26:01forward acquisition time	30.00reverse acquisition time	0.00gamma	498.7831k internal	0.1759k external	0.1759temperature offset calibration	1.0074default loss term (dB/km)	0.3790temperature slope calibration	1.3530multiplexer offset coefficient	1.0000multiplexer slope coefficient	1.0000fibre end	0.00T internal ref (°C)	28.75T ext. ref 1 (°C)	23.76T ext. ref 2 (°C)	-0.09length (m)	temperature (°C)	Stokes	anti-Stokes-747.200	-200.000	0.022	-0.209
-746.185	-71.614	-0.280	0.138
-745.171	-15.502	-0.383	-0.323
-744.156	-123.924	0.114	-0.024
-743.142	94.589	-0.102	0.154
-742.127	800.000	-0.064	0.320
-741.112	-66.150	-0.536	0.281
-740.098	-200.000	-0.090	0.714
-739.083	25.749	0.232	0.256
-738.069	32.969	0.356	0.408
-737.054	27.290	0.229	-0.255
-736.039	-17.730	-0.057	0.047
-735.025	-40.981	0.337	-0.230
-734.010	-26.194	0.323	-0.250
-732.996	55.120	-0.302	0.385
-731.981	505.396	0.195	-0.602
-730.966	-49.543	-0.181	0.113
-729.952	-163.857	-0.185	-0.011
-728.937	51.203	-0.052	0.065
-727.923	800.000	-0.030	-0.169
-726.908	-2.901	-0.215	-0.198
-725.894	800.000	-0.043	0.196
-724.879	341.346	0.137	-0.355
-723.864	-200.000	0.041	0.411
-722.850	-52.171	0.353	0.216
-721.835	-123.691	-0.299	0.062
-720.821	-95.509	0.494	0.174
-719.806	424.848	-0.078	-0.224
-718.791	173.798	0.079	-0.152
-717.777	-71.659	0.298	0.146
-716.762	-37.904	0.168	0.118
-715.748	-141.311	-0.682	-0.091
-714.733	-200.000	-0.009	0.140
-713.718	54.613	-0.170	0.217
-712.704	-10.806	-0.084	-0.073
-711.689	-157.094	-0.142	0.011
-710.675	50.673	-0.166	-0.208
-709.660	-53.974	-0.318	0.191
-708.645	800.000	-0.121	-0.466
-707.631	-25.289	-0.278	-0.217
-706.616	-200.000	-0.002	-0.633
-705.602	-23.592	-0.272	-0.215
-704.587	74.081	-0.198	-0.274
-703.572	800.000	0.146	-0.551
-702.558	95.537	0.226	0.340
-701.543	63.804	-0.099	-0.131
-700.529	217.327	0.204	-0.431
-699.514	38.940	-0.280	0.331
-698.499	189.707	0.167	0.331
-697.485	96.034	0.149	-0.224
-696.470	189.610	-0.281	0.557
-695.456	-63.964	-0.408	0.219
-694.441	-200.000	-0.035	0.407
-693.426	1.058	0.371	0.351
-692.412	-60.983	0.540	0.300
-691.397	-150.048	0.559	-0.057
-690.383	-172.476	-0.182	0.007
-689.368	-200.000	0.225	-0.001
-688.354	-154.174	0.320	0.028
-687.339	-119.662	-0.063	0.014
-686.324	-80.430	-0.145	0.064
-685.310	-88.833	0.106	-0.041
-684.295	-109.258	-0.300	-0.083
-683.281	-200.000	-0.030	-0.320
-682.266	-157.440	-0.197	0.015
-681.251	0.294	-0.294	-0.276
-680.237	22.416	-0.372	-0.401
-679.222	-105.900	-0.387	0.114
-678.208	-200.000	-0.003	0.244
-677.193	-99.477	-0.266	0.088
-676.178	-24.865	0.655	-0.512
-675.164	90.776	-0.051	-0.076
-674.149	446.114	0.138	0.402
-673.135	-113.776	0.462	0.118
-672.120	53.181	-0.022	0.027
-671.105	183.645	-0.100	0.195
-670.091	-200.000	0.020	0.524
-669.076	-95.352	-0.261	0.092
-668.062	54.168	0.265	0.337
-667.047	234.136	-0.071	0.154
-666.032	800.000	0.070	-0.327
-665.018	48.262	-0.290	0.358
-664.003	-53.455	-0.060	0.036
-662.989	-94.974	0.443	-0.157
-661.974	-109.216	-0.125	0.035
-660.959	-22.976	-0.078	-0.062
-659.945	72.581	0.111	-0.153
-658.930	526.745	-0.014	0.042
-657.916	-166.321	0.677	-0.037
-656.901	471.813	-0.118	0.351
-655.886	-158.047	0.337	-0.026
-654.872	116.806	-0.026	0.041
-653.857	205.692	-0.255	-0.523
-652.843	42.867	-0.116	0.140
-651.828	-200.000	-0.079	-0.459
-650.814	800.000	0.080	-0.312
-649.799	-72.257	-0.183	-0.089
-648.784	77.723	-0.158	0.222
-647.770	-178.944	0.166	0.005
-646.755	-200.000	0.009	0.249
-645.741	800.000	0.018	-0.105
-644.726	26.718	-0.152	-0.168
-643.711	-120.706	-0.257	0.057
-642.697	-148.556	-0.659	0.070
-641.682	-118.157	-0.373	0.087
-640.668	-171.338	0.541	0.023
-639.653	-93.582	0.297	0.108
-638.638	264.065	0.104	0.238
-637.624	-168.709	0.220	0.011
-636.609	237.529	-0.127	-0.278
-635.595	-134.243	-0.561	0.090
-634.580	33.651	-0.096	0.110
-633.565	131.360	0.032	0.053
-632.551	-81.980	-0.203	-0.087
-631.536	-117.491	-0.698	-0.165
-630.522	-50.707	-0.493	0.305
-629.507	59.600	-0.254	-0.330
-628.492	800.000	-0.038	-0.207
-627.478	-200.000	-0.020	0.346
-626.463	459.792	-0.167	0.492
-625.449	-152.459	0.234	0.022
-624.434	-200.000	-0.012	0.173
-623.419	8.655	0.233	0.230
-622.405	-200.000	0.041	0.319
-621.390	-200.000	-0.009	0.053
-620.376	-23.648	-0.306	-0.241
-619.361	-177.141	-0.058	0.002
-618.346	37.970	-0.307	-0.359
-617.332	-63.609	-0.340	0.183
-616.317	800.000	-0.070	0.277
-615.303	291.775	0.107	0.258
-614.288	-131.761	0.536	-0.092
-613.273	255.973	-0.081	-0.183
-612.259	-167.914	-0.439	-0.022
-611.244	241.821	0.175	0.387
-610.230	-62.702	-0.243	-0.132
-609.215	24.605	-0.235	-0.256
-608.201	-42.309	-0.434	0.290
-607.186	-200.000	0.021	0.215
-606.171	108.975	0.239	0.377
-605.157	-84.739	-0.309	-0.127
-604.142	73.502	0.411	-0.567
-603.128	284.355	-0.226	0.536
-602.113	-53.842	0.228	-0.136
-601.098	-137.961	-0.294	0.043
-600.084	-154.751	-0.357	-0.031
-599.069	-32.738	0.558	-0.408
-598.055	250.737	-0.130	-0.293
-597.040	124.429	0.129	-0.214
-596.025	-22.952	0.390	-0.308
-595.011	51.329	-0.313	-0.391
-593.996	41.882	-0.095	0.113
-592.982	800.000	-0.050	0.261
-591.967	110.625	0.261	0.414
-590.952	-107.372	-0.642	0.184
-589.938	33.197	0.084	-0.096
-588.923	-200.000	0.039	-0.417
-587.909	-116.833	0.230	-0.055
-586.894	4.980	0.290	-0.280
-585.879	-52.999	0.391	-0.236
-584.865	800.000	0.072	-0.277
-583.850	-200.000	0.003	-0.101
-582.836	598.198	0.072	0.237
-581.821	39.510	0.054	0.064
-580.806	-46.317	0.151	-0.097
-579.792	-145.295	0.128	-0.015
-578.777	800.000	0.045	0.193
-577.763	-121.758	-0.154	-0.033
-576.748	800.000	-0.037	0.159
-575.733	-116.569	0.414	0.099
-574.719	-13.118	0.268	-0.229
-573.704	-17.590	-0.154	0.127
-572.690	-75.378	0.349	-0.162
-571.675	-61.911	-0.583	0.319
-570.661	-144.829	0.228	0.027
-569.646	498.595	-0.068	0.205
-568.631	800.000	0.139	-0.519
-567.617	-144.245	-0.420	-0.051
-566.602	-39.152	-0.200	0.137
-565.588	102.452	-0.072	0.111
-564.573	40.611	0.143	0.169
-563.558	-78.389	-0.135	-0.061
-562.544	800.000	0.053	0.272
-561.529	83.397	0.120	-0.172
-560.515	-118.175	-0.227	0.053
-559.500	-76.290	-0.063	0.029
-558.485	-130.196	-0.374	-0.066
-557.471	-42.107	0.305	-0.204
-556.456	-149.236	-0.590	0.061
-555.442	-200.000	-0.055	-0.370
-554.427	273.600	-0.192	-0.448
-553.412	-61.768	-0.381	-0.209
-552.398	-42.413	-0.339	-0.227
-551.383	-45.752	0.124	0.080
-550.369	47.225	0.329	-0.403
-549.354	50.417	-0.239	0.297
-548.339	159.229	-0.057	-0.104
-547.325	-149.092	0.148	0.015
-546.310	-153.418	-0.112	0.010
-545.296	800.000	-0.073	-0.302
-544.281	-146.000	-0.380	0.044
-543.266	-195.089	0.295	0.003
-542.252	-84.193	-0.262	0.108
-541.237	475.528	0.093	0.276
-540.223	65.013	-0.221	0.293
-539.208	-118.862	0.235	-0.054
-538.193	139.530	0.153	-0.265
-537.179	378.469	0.105	0.284
-536.164	187.067	0.268	-0.526
-535.150	4.107	0.401	-0.385
-534.135	59.025	-0.198	0.256
-533.121	-81.598	-0.134	-0.058
-532.106	-200.000	0.008	-0.395
-531.091	-101.078	0.326	-0.104
-530.077	800.000	-0.073	-0.317
-529.062	-55.500	-0.291	-0.171
-528.048	-139.400	0.205	0.029
-527.033	54.059	-0.200	0.253
-526.018	800.000	0.051	0.239
-525.004	379.816	0.096	-0.260
-523.989	-200.000	0.018	-0.122
-522.975	-108.982	0.323	0.090
-521.960	-77.169	-0.270	-0.123
-520.945	-177.853	-0.594	0.018
-519.931	800.000	-0.008	-0.031
-518.916	128.816	-0.162	0.271
-517.902	223.841	0.256	-0.544
-516.887	-97.994	0.797	-0.268
-515.872	160.398	0.095	-0.174
-514.858	-29.427	0.344	-0.257
-513.843	25.258	0.522	-0.568
-512.829	76.346	0.166	-0.231
-511.814	127.180	0.090	-0.150
-510.799	-121.523	0.355	-0.077
-509.785	800.000	-0.079	0.333
-508.770	288.223	-0.084	-0.200
-507.756	-2.138	-0.255	-0.235
-506.741	407.203	-0.081	0.225
-505.726	-200.000	0.230	-0.001
-504.712	-80.102	0.393	0.172
-503.697	438.417	0.101	0.291
-502.683	-74.746	-0.148	0.069
-501.668	-200.000	-0.041	-0.274
-500.653	19.898	-0.426	0.450
-499.639	-141.288	0.241	-0.032
-498.624	-90.210	0.143	-0.054
-497.610	-65.288	-0.313	0.164
-496.595	-103.001	-0.310	-0.096
-495.581	8.988	-0.319	0.315
-494.566	-38.805	-0.447	0.308
-493.551	-170.170	0.157	-0.007
-492.537	800.000	0.080	-0.304
-491.522	800.000	0.073	-0.330
-490.508	-86.107	0.175	-0.070
-489.493	162.671	0.194	0.357
-488.478	-122.026	0.678	-0.145
-487.464	-126.017	0.216	-0.042
-486.449	249.191	-0.144	0.321
-485.435	-163.790	0.189	-0.011
-484.420	-200.000	0.036	-0.577
-483.405	-146.673	-0.174	-0.020
-482.391	208.863	0.145	-0.298
-481.376	-106.439	-0.298	-0.086
-480.362	21.909	-0.277	-0.295
-479.347	272.437	0.130	0.301
-478.332	800.000	-0.078	-0.330
-477.318	-58.320	0.130	-0.074
-476.303	30.526	-0.244	-0.273
-475.289	-143.831	0.435	0.053
-474.274	115.608	-0.108	0.174
-473.259	800.000	-0.061	0.228
-472.245	75.461	-0.228	-0.315
-471.230	-198.827	-0.478	0.003
-470.216	-200.000	0.096	1.012
-469.201	800.000	-0.122	0.629
-468.186	-2.208	0.404	0.370
-467.172	-200.000	0.028	0.521
-466.157	-170.315	-0.486	-0.022
-465.143	47.040	-0.154	0.188
-464.128	-177.035	-0.294	-0.009
-463.113	-49.369	0.243	0.151
-462.099	292.258	0.088	0.212
-461.084	-191.525	0.558	0.007
-460.070	-122.133	-0.410	-0.087
-459.055	-200.000	-0.130	-0.756
-458.040	263.864	0.291	-0.664
-457.026	357.787	-0.173	-0.455
-456.011	-200.000	0.010	0.095
-454.997	755.114	0.065	-0.233
-453.982	-17.957	0.182	0.149
-452.968	-75.098	-0.326	0.152
-451.953	-139.361	0.403	0.056
-450.938	-129.361	0.196	0.035
-449.924	589.835	-0.036	-0.115
-448.909	-151.089	0.376	0.036
-447.895	-106.107	-0.337	0.098
-446.880	-200.000	-0.023	-0.160
-445.865	291.919	-0.177	-0.424
-444.851	-124.241	0.429	0.087
-443.836	49.599	-0.064	-0.078
-442.822	-200.000	-0.033	0.433
-441.807	-120.519	0.209	-0.046
-440.792	57.227	-0.040	0.051
-439.778	-111.075	-0.348	-0.093
-438.763	-42.341	-0.251	0.167
-437.749	-185.839	0.548	0.010
-436.734	-86.747	-0.384	0.153
-435.719	-47.282	0.427	-0.271
-434.705	189.063	-0.140	-0.275
-433.690	-139.412	-0.067	-0.009
-432.676	-127.853	0.237	-0.044
-431.661	-18.728	-0.308	-0.250
-430.646	-122.261	0.139	-0.029
-429.632	486.451	-0.129	-0.387
-428.617	-89.705	0.133	-0.050
-427.603	230.376	0.052	0.112
-426.588	-3.865	0.270	-0.245
-425.573	-50.308	0.126	0.078
-424.559	219.398	-0.227	0.475
-423.544	646.083	0.086	0.289
-422.530	-160.254	0.380	-0.026
-421.515	57.071	-0.120	0.153
-420.500	-157.204	-0.184	0.014
-419.486	-200.000	0.022	-0.330
-418.471	800.000	0.142	0.593
-417.457	-21.725	-0.189	0.150
-416.442	800.000	-0.089	0.500
-415.428	-200.000	-0.015	0.123
-414.413	522.288	0.128	-0.394
-413.398	216.115	-0.069	0.144
-412.384	-138.350	-0.546	-0.078
-411.369	-118.162	0.533	0.123
-410.355	424.244	0.193	0.545
-409.340	-34.131	-0.321	0.230
-408.325	377.903	0.109	0.292
-407.311	-75.278	-0.582	-0.270
-406.296	-142.727	-0.396	-0.050
-405.282	-111.524	0.485	0.128
-404.267	16.618	0.384	0.396
-403.252	-87.615	-0.226	0.089
-402.238	19.791	-0.269	-0.283
-401.223	44.647	-0.110	-0.132
-400.209	259.338	-0.201	0.454
-399.194	-200.000	0.018	-0.210
-398.179	59.251	-0.152	0.195
-397.165	51.420	-0.089	-0.110
-396.150	164.694	-0.122	-0.226
-395.136	-117.645	0.138	0.032
-394.121	-91.424	0.272	-0.101
-393.106	221.844	0.151	0.317
-392.092	-109.608	0.426	0.116
-391.077	-200.000	0.001	0.195
-390.063	462.779	-0.096	0.280
-389.048	21.080	0.149	0.158
-388.033	10.973	-0.094	0.094
-387.019	-179.978	0.184	0.005
-386.004	-34.682	-0.221	0.157
-384.990	24.808	0.292	-0.315
-383.975	-200.000	-0.004	0.220
-382.960	16.646	-0.212	-0.218
-381.946	800.000	-0.100	-0.384
-380.931	-83.917	-0.291	0.120
-379.917	52.275	-0.094	-0.117
-378.902	71.180	-0.279	-0.377
-377.888	-150.515	-0.530	-0.052
-376.873	44.433	0.085	-0.102
-375.858	-92.848	0.573	-0.208
-374.844	-70.670	0.755	0.370
-373.829	-159.970	-0.184	-0.013
-372.815	201.292	-0.092	-0.185
-371.800	35.681	0.275	-0.315
-370.785	-200.000	-0.022	0.226
-369.771	-47.743	0.452	0.285
-368.756	150.893	-0.141	-0.251
-367.742	800.000	-0.086	0.456
-366.727	-86.180	-0.252	0.101
-365.712	800.000	-0.035	0.172
-364.698	140.294	0.139	0.240
-363.683	-10.795	0.214	0.184
-362.669	88.463	-0.227	-0.330
-361.654	-50.639	-0.219	-0.134
-360.639	-145.046	0.525	-0.062
-359.625	7.589	-0.364	0.355
-358.610	-48.150	-0.072	-0.045
-357.596	-200.000	0.001	-0.078
-356.581	-47.498	0.567	-0.358
-355.566	698.334	-0.091	-0.312
-354.552	-39.305	-0.388	-0.264
-353.537	-200.000	0.086	-0.495
-352.523	20.407	-0.190	-0.200
-351.508	237.973	-0.147	0.319
-350.493	498.072	0.055	0.167
-349.479	-91.664	0.217	-0.080
-348.464	435.596	-0.131	0.374
-347.450	-152.566	0.227	-0.021
-346.435	-50.742	-0.303	0.185
-345.420	-71.078	0.100	-0.049
-344.406	22.026	0.161	0.171
-343.391	130.161	-0.431	0.720
-342.377	-200.000	-0.033	0.234
-341.362	44.894	0.357	-0.428
-340.348	-151.096	0.113	-0.011
-339.333	-200.000	-0.029	0.178
-338.318	759.452	-0.024	-0.085
-337.304	-36.617	0.111	-0.078
-336.289	-75.857	0.141	0.065
-335.275	-200.000	0.069	-0.549
-334.260	-28.358	0.114	0.086
-333.245	-54.849	-0.226	0.132
-332.231	-185.678	-0.364	0.007
-331.216	-110.564	0.452	0.121
-330.202	-92.920	0.288	0.104
-329.187	-22.085	0.295	-0.233
-328.172	-145.448	0.096	-0.011
-327.158	8.671	0.225	0.220
-326.143	-200.000	-0.009	-0.409
-325.129	162.679	-0.152	0.278
-324.114	357.813	-0.044	0.114
-323.099	404.622	0.116	-0.318
-322.085	-200.000	0.047	-0.486
-321.070	800.000	0.121	0.580
-320.056	-13.483	0.142	-0.120
-319.041	313.060	-0.037	0.092
-318.026	-123.999	0.663	0.134
-317.012	18.020	-0.262	-0.271
-315.997	35.578	-0.219	-0.250
-314.983	261.111	-0.214	-0.484
-313.968	-48.044	-0.202	-0.127
-312.953	177.644	0.164	0.313
-311.939	-200.000	-0.052	-0.516
-310.924	-39.361	-0.186	0.127
-309.910	-200.000	0.056	0.478
-308.895	-131.758	-0.283	-0.048
-307.880	448.575	0.086	-0.246
-306.866	9.403	-0.090	-0.088
-305.851	800.000	-0.058	-0.258
-304.837	1.576	0.296	-0.276
-303.822	26.725	-0.140	0.152
-302.807	106.674	-0.082	-0.127
-301.793	-157.189	-0.348	-0.027
-300.778	-124.081	-0.256	-0.052
-299.764	634.115	-0.082	0.272
-298.749	800.000	-0.045	0.187
-297.735	119.840	-0.271	-0.437
-296.720	61.314	-0.071	0.091
-295.705	-129.573	-0.575	-0.102
-294.691	-200.000	-0.062	0.438
-293.676	4.917	-0.094	-0.090
-292.662	-45.891	-0.332	-0.212
-291.647	148.981	0.189	-0.332
-290.632	106.562	-0.109	0.168
-289.618	397.760	0.244	0.666
-288.603	800.000	-0.096	-0.399
-287.589	800.000	0.087	-0.374
-286.574	-162.242	-0.514	0.033
-285.559	50.130	0.225	-0.276
-284.545	-200.000	0.012	0.363
-283.530	-22.714	0.475	0.372
-282.516	-93.263	-0.196	0.070
-281.501	-127.114	-0.283	0.053
-280.486	-95.439	0.386	0.134
-279.472	-45.638	-0.163	-0.104
-278.457	-162.736	0.706	-0.044
-277.443	85.297	0.082	0.118
-276.428	-25.488	0.314	0.240
-275.413	-138.904	0.408	0.057
-274.399	30.468	-0.525	0.583
-273.384	35.260	0.211	-0.240
-272.370	-164.250	0.166	0.010
-271.355	-79.205	-0.211	-0.092
-270.340	-149.270	0.220	-0.022
-269.326	-36.451	0.115	0.080
-268.311	-45.817	-0.186	0.119
-267.297	-117.559	0.152	-0.035
-266.282	130.236	-0.202	0.336
-265.267	-38.873	-0.489	-0.334
-264.253	86.426	-0.086	-0.123
-263.238	-200.000	0.053	0.514
-262.224	-200.000	-0.068	-0.393
-261.209	42.398	-0.043	0.051
-260.195	-77.329	0.130	-0.058
-259.180	-200.000	0.010	0.569
-258.165	342.629	-0.071	-0.180
-257.151	687.713	0.039	0.132
-256.136	-8.779	0.073	-0.063
-255.122	-77.089	-0.075	0.034
-254.107	-130.222	0.354	0.062
-253.092	-200.000	-0.002	-0.241
-252.078	-200.000	0.107	-0.001
-251.063	-127.581	0.463	-0.086
-250.049	-151.205	0.283	-0.027
-249.034	-50.875	-0.239	0.145
-248.019	-141.896	-0.300	-0.038
-247.005	-97.317	-0.291	0.098
-245.990	-22.257	-0.220	-0.173
-244.976	366.503	0.154	0.405
-243.961	3.946	-0.273	0.258
-242.946	-7.575	-0.029	0.025
-241.932	-178.400	0.419	0.012
-240.917	-58.542	-0.279	0.156
-239.903	-200.000	0.027	-0.418
-238.888	437.689	0.099	0.283
-237.873	-189.147	0.213	-0.003
-236.859	-13.540	0.157	-0.132
-235.844	800.000	0.085	-0.426
-234.830	-200.000	-0.016	-0.432
-233.815	-200.000	-0.028	-0.420
-232.800	-14.631	-0.337	0.280
-231.786	473.863	0.105	-0.308
-230.771	436.989	0.102	0.289
-229.757	-73.962	0.063	0.030
-228.742	-19.274	-0.363	0.291
-227.727	800.000	0.155	-0.613
-226.713	261.544	-0.075	-0.169
-225.698	57.395	0.414	-0.524
-224.684	481.623	-0.069	-0.204
-223.669	-200.000	-0.250	0.001
-222.655	-139.567	0.612	-0.084
-221.640	-90.662	-0.416	-0.155
-220.625	576.697	-0.027	-0.086
-219.611	800.000	-0.097	0.452
-218.596	-115.101	-0.541	-0.132
-217.582	243.789	-0.056	-0.123
-216.567	-200.000	0.077	0.472
-215.552	800.000	0.067	-0.249
-214.538	-117.659	-0.434	0.100
-213.523	-92.870	-0.072	0.026
-212.509	239.701	0.072	-0.156
-211.494	-109.644	0.160	0.043
-210.479	-64.856	-0.171	0.089
-209.465	86.966	-0.186	-0.266
-208.450	-200.000	-0.111	0.837
-207.436	-84.796	0.558	0.226
-206.421	99.244	0.105	0.158
-205.406	-37.647	0.298	0.205
-204.392	-142.371	0.076	0.010
-203.377	-169.615	0.642	0.030
-202.363	-38.574	0.207	0.141
-201.348	800.000	-0.070	0.276
-200.333	384.005	-0.048	0.129
-199.319	-100.215	0.465	-0.149
-198.304	-141.112	0.180	0.024
-197.290	-91.078	0.416	0.154
-196.275	-11.009	0.429	-0.366
-195.260	19.167	-0.257	-0.266
-194.246	71.681	-0.088	-0.119
-193.231	143.122	0.230	0.396
-192.217	800.000	-0.015	0.071
-191.202	178.149	-0.180	-0.341
-190.187	-102.973	-0.357	-0.109
-189.173	800.000	-0.052	0.234
-188.158	-164.588	-0.480	-0.028
-187.144	-181.949	-0.359	-0.009
-186.129	214.739	-0.142	-0.292
-185.114	-97.256	0.562	-0.189
-184.100	-134.049	-0.223	0.035
-183.085	62.185	-0.196	-0.254
-182.071	-124.850	0.394	0.078
-181.056	66.843	-0.182	0.240
-180.042	-29.969	0.214	0.157
-179.027	173.509	0.232	-0.434
-178.012	-122.881	0.140	-0.029
-176.998	-200.000	0.010	-0.170
-175.983	50.938	0.090	-0.110
-174.969	155.457	0.171	-0.305
-173.954	-17.763	0.139	-0.113
-172.939	204.061	-0.104	0.209
-171.925	-115.303	0.703	0.170
-170.910	-38.983	0.040	-0.027
-169.896	358.947	-0.077	0.199
-168.881	167.825	-0.050	0.091
-167.866	-43.213	-0.010	-0.007
-166.852	-19.328	0.335	0.268
-165.837	-200.000	0.015	0.161
-164.823	-200.000	0.011	0.235
-163.808	-124.812	-0.150	-0.030
-162.793	73.735	-0.284	0.385
-161.779	-105.092	-0.070	-0.021
-160.764	0.488	-0.321	0.297
-159.750	211.541	0.139	-0.284
-158.735	-122.355	0.185	0.039
-157.720	-67.730	0.216	0.109
-156.706	3.581	-0.273	0.257
-155.691	117.080	0.137	0.218
-154.677	-102.732	-0.226	-0.069
-153.662	90.637	-0.159	0.231
-152.647	124.761	0.148	-0.242
-151.633	-51.152	0.306	0.185
-150.618	-56.048	-0.105	0.060
-149.604	-57.976	-0.299	0.168
-148.589	-8.106	-0.147	-0.128
-147.574	-166.451	0.506	-0.027
-146.560	593.904	0.077	-0.246
-145.545	-173.249	0.151	-0.006
-144.531	-67.978	0.180	0.090
-143.516	218.256	-0.149	0.308
-142.502	-196.147	0.308	0.003
-141.487	800.000	-0.055	0.292
-140.472	-13.613	-0.333	0.278
-139.458	184.406	-0.107	0.206
-138.443	-200.000	-0.043	-0.256
-137.429	-151.034	0.352	-0.034
-136.414	-118.785	-0.260	0.059
-135.399	800.000	0.146	-0.610
-134.385	-173.851	0.186	0.007
-133.370	-60.905	-0.408	0.222
-132.356	171.774	-0.070	0.131
-131.341	-166.312	0.380	0.020
-130.326	-159.883	0.674	0.047
-129.312	-135.205	0.304	-0.047
-128.297	170.801	0.292	-0.542
-127.283	-90.698	0.401	-0.149
-126.268	-21.139	0.421	-0.332
-125.253	-99.269	0.398	-0.129
-124.239	-76.623	-0.208	-0.094
-123.224	200.984	0.193	-0.385
-122.210	-200.000	-0.019	-0.355
-121.195	-56.325	-0.171	-0.098
-120.180	-175.585	-0.180	-0.006
-119.166	800.000	0.132	0.538
-118.151	-119.303	0.144	0.032
-117.137	188.092	-0.082	-0.158
-116.122	-20.143	-0.309	-0.245
-115.107	-23.566	0.397	0.307
-114.093	349.138	0.141	-0.360
-113.078	-89.703	-0.410	-0.154
-112.064	-118.040	0.460	0.105
-111.049	-200.000	0.059	0.342
-110.034	557.324	-0.055	0.172
-109.020	49.218	0.204	0.248
-108.005	44.285	0.179	-0.212
-106.991	-38.648	0.452	0.307
-105.976	-87.850	0.251	-0.097
-104.962	-93.026	-0.399	-0.143
-103.947	104.816	-0.189	-0.287
-102.932	548.669	-0.141	0.438
-101.918	-85.517	-0.281	-0.112
-100.903	-32.749	0.436	0.312
-99.889	373.359	-0.089	-0.235
-98.874	-170.793	-0.350	-0.015
-97.859	800.000	-0.110	-0.519
-96.845	55.563	-0.274	0.342
-95.830	-63.384	0.114	0.060
-94.816	-1.182	0.493	0.449
-93.801	-200.000	0.027	0.277
-92.786	417.629	0.159	-0.439
-91.772	-34.052	0.455	0.322
-90.757	-200.000	-0.094	-0.654
-89.743	-164.928	0.242	-0.014
-88.728	-60.326	-0.315	0.172
-87.713	-130.571	-0.360	0.062
-86.699	-200.000	-0.041	-0.404
-85.684	-200.000	0.095	0.587
-84.670	-4.430	-0.167	0.149
-83.655	-78.092	0.547	-0.242
-82.640	-105.303	-0.778	0.227
-81.626	797.650	0.088	-0.316
-80.611	50.096	0.261	0.318
-79.597	53.749	0.176	-0.218
-78.582	271.298	0.127	-0.288
-77.567	-200.000	-0.036	0.334
-76.553	-156.560	0.401	0.032
-75.538	110.699	-0.052	-0.080
-74.524	-172.836	0.399	-0.016
-73.509	-69.672	-0.315	0.155
-72.494	-98.126	0.432	-0.142
-71.480	-160.469	0.088	0.006
-70.465	746.610	-0.084	-0.293
-69.451	-200.000	0.010	0.114
-68.436	13.173	0.247	0.246
-67.422	-180.716	0.143	0.004
-66.407	-167.108	0.717	-0.037
-65.392	-99.492	-0.606	0.195
-64.378	467.873	0.017	-0.050
-63.363	-101.677	0.378	0.117
-62.349	-151.556	-0.232	0.022
-61.334	4.207	-2.453	-2.311
-60.319	-24.954	1.803	1.375
-59.305	241.795	-3.562	-7.693
-58.290	60.258	3.923	5.000
-57.276	375.852	4.064	10.722
-56.261	-200.000	20.988	309.485
-55.246	375.306	1275.677	3363.027
-54.232	53.127	2857.958	3525.094
-53.217	63.842	2702.721	3499.516
-52.203	35.495	2432.165	2748.815
-51.188	34.823	2092.513	2356.526
-50.173	30.903	1975.445	2178.630
-49.159	29.549	1965.408	2151.634
-48.144	29.141	1961.176	2142.147
-47.130	29.135	1959.126	2139.747
-46.115	29.017	1957.744	2136.784
-45.100	29.002	1955.950	2134.563
-44.086	29.009	1954.806	2133.306
-43.071	28.850	1953.641	2130.103
-42.057	28.984	1951.589	2129.336
-41.042	29.065	1949.569	2127.996
-40.027	29.033	1948.067	2125.898
-39.013	29.042	1946.741	2124.464
-37.998	28.883	1946.629	2122.412
-36.984	29.019	1944.942	2122.072
-35.969	28.940	1944.025	2120.065
-34.954	28.948	1942.241	2118.137
-33.940	28.705	1942.464	2115.477
-32.925	28.958	1940.140	2115.792
-31.911	28.812	1939.157	2112.950
-30.896	28.847	1936.744	2110.635
-29.881	28.713	1936.734	2108.999
-28.867	28.811	1934.373	2107.464
-27.852	28.915	1932.604	2106.652
-26.838	28.917	1931.629	2105.535
-25.823	28.792	1930.414	2102.691
-24.809	28.717	1928.855	2100.039
-23.794	28.869	1927.349	2100.061
-22.779	28.635	1926.668	2096.559
-21.765	28.757	1924.512	2095.528
-20.750	28.643	1923.720	2093.267
-19.736	28.623	1923.670	2092.909
-18.721	28.703	1921.672	2091.571
-17.706	28.809	1919.781	2090.638
-16.692	28.736	1918.681	2088.521
-15.677	28.688	1917.762	2086.889
-14.663	28.628	1917.298	2085.617
-13.648	28.601	1915.534	2083.311
-12.633	28.602	1913.694	2081.237
-11.619	28.652	1912.794	2080.748
-10.604	28.659	1911.169	2078.969
-9.590	28.637	1910.223	2077.611
-8.575	28.641	1908.631	2075.840
-7.560	28.560	1907.653	2073.773
-6.546	28.619	1906.863	2073.502
-5.531	28.644	1904.780	2071.445
-4.517	28.587	1904.237	2070.123
-3.502	28.687	1902.477	2069.253
-2.487	28.616	1901.743	2067.571
-1.473	28.521	1898.931	2063.356
-0.458	28.224	1879.091	2038.400
0.556	24.402	2024.343	2137.147
1.571	22.794	2232.434	2335.189
2.586	23.750	2273.868	2391.183
3.600	23.916	2276.171	2395.564
4.615	24.074	2276.454	2397.717
5.629	24.094	2274.501	2395.643
6.644	24.133	2272.233	2393.498
7.659	24.179	2270.501	2392.002
8.673	24.178	2268.732	2389.836
9.688	23.460	2276.614	2388.134
10.702	21.936	2356.048	2449.792
11.717	20.828	2423.532	2503.664
12.731	11.904	2398.874	2349.718
13.746	2.268	2371.969	2185.126
14.761	0.458	2366.854	2154.187
15.775	0.255	2365.963	2150.209
16.790	0.165	2363.248	2146.203
17.804	0.199	2361.679	2145.002
18.819	0.245	2360.353	2144.192
19.834	0.199	2359.270	2142.300
20.848	0.261	2357.839	2141.632
21.863	0.258	2355.473	2139.180
22.877	0.219	2353.978	2137.018
23.892	0.173	2351.145	2133.532
24.907	0.234	2349.134	2132.315
25.921	0.317	2348.311	2132.497
26.936	0.276	2345.445	2129.049
27.950	0.330	2342.866	2127.226
28.965	0.316	2340.646	2124.762
29.980	0.179	2339.489	2121.506
30.994	0.366	2336.988	2121.639
32.009	5.575	2353.945	2210.848
33.023	17.277	2390.217	2412.476
34.038	22.348	2400.528	2495.047
35.053	23.121	2399.171	2504.345
36.067	23.153	2395.249	2500.412
37.082	23.101	2393.812	2497.869
38.096	23.092	2393.066	2496.664
39.111	23.292	2390.848	2496.884
40.126	23.670	2389.039	2500.052
41.140	23.719	2388.794	2500.190
42.155	23.673	2385.495	2495.788
43.169	23.546	2384.805	2492.969
44.184	23.556	2382.343	2490.236
45.199	23.597	2378.504	2486.514
46.213	23.463	2378.305	2484.110
47.228	23.420	2378.024	2482.919
48.242	23.555	2375.733	2482.127
49.257	23.645	2373.314	2480.573
50.271	23.857	2370.631	2480.441
51.286	23.657	2368.907	2475.540
52.301	23.578	2366.971	2472.106
53.315	23.601	2366.329	2471.473
54.330	23.967	2365.209	2475.115
55.344	24.237	2362.687	2475.956
56.359	24.070	2360.035	2470.545
57.374	23.967	2358.293	2467.000
58.388	24.006	2355.841	2464.681
59.403	24.105	2353.373	2463.179
60.417	24.224	2350.485	2461.519
61.432	24.359	2349.281	2461.825
62.447	24.348	2346.792	2458.780
63.461	24.209	2345.778	2455.500
64.476	24.295	2343.166	2453.654
65.490	24.468	2342.899	2455.480
66.505	24.545	2341.684	2454.965
67.520	24.286	2339.336	2448.638
68.534	23.694	2335.192	2435.852
69.549	23.504	2332.437	2430.068
70.563	23.652	2330.684	2429.994
71.578	23.570	2328.362	2426.156
72.593	23.619	2326.187	2424.270
73.607	23.613	2325.671	2423.357
74.622	23.598	2324.525	2421.659
75.636	23.570	2320.158	2416.439
76.651	23.501	2318.350	2413.330
77.666	23.568	2316.781	2412.324
78.680	23.618	2314.653	2410.505
79.695	23.743	2312.374	2409.539
80.709	23.626	2312.054	2407.320
81.724	23.864	2308.998	2407.099
82.739	23.693	2306.460	2401.830
83.753	23.523	2305.282	2398.012
84.768	23.512	2303.413	2395.627
85.782	23.490	2301.956	2393.534
86.797	23.514	2299.220	2390.723
87.812	23.404	2297.860	2387.533
88.826	23.372	2296.094	2384.978
89.841	23.474	2293.041	2382.899
90.855	23.606	2290.622	2381.885
91.870	23.428	2290.514	2379.087
92.884	23.458	2288.383	2376.994
93.899	23.444	2288.250	2376.373
94.914	23.583	2286.643	2376.295
95.928	23.730	2287.684	2379.071
96.943	23.859	2284.985	2377.721
97.957	23.530	2282.576	2370.501
98.972	23.483	2278.803	2365.679
99.987	23.329	2276.290	2360.725
101.001	23.313	2274.661	2358.536
102.016	23.219	2273.076	2355.344
103.030	23.420	2269.756	2354.312
104.045	23.402	2268.521	2352.506
105.060	23.490	2266.584	2351.398
106.074	23.676	2263.795	2350.689
107.089	23.464	2263.185	2346.963
108.103	23.476	2262.125	2345.733
109.118	23.691	2259.684	2345.778
110.133	23.752	2257.962	2344.523
111.147	23.766	2256.358	2342.760
112.162	23.670	2255.039	2339.834
113.176	23.640	2252.709	2336.739
114.191	23.575	2250.948	2333.779
115.206	23.423	2248.757	2329.226
116.220	23.555	2246.944	2328.808
117.235	23.609	2244.391	2326.589
118.249	23.477	2243.104	2323.247
119.264	23.551	2242.214	2323.020
120.279	23.664	2239.887	2321.817
121.293	23.627	2238.168	2319.260
122.308	23.771	2236.404	2319.048
123.322	23.727	2234.760	2316.488
124.337	23.659	2234.124	2314.661
125.352	23.886	2235.240	2318.519
126.366	24.194	2232.105	2319.018
127.381	23.734	2228.748	2309.250
128.395	23.416	2225.315	2301.266
129.410	23.653	2223.798	2302.508
130.424	23.568	2222.615	2299.893
131.439	23.555	2220.693	2297.466
132.454	23.530	2218.791	2294.903
133.468	23.635	2215.987	2293.090
134.483	23.625	2214.536	2291.183
135.497	23.566	2213.216	2288.776
136.512	23.693	2210.087	2286.913
137.527	23.618	2208.886	2284.419
138.541	23.465	2208.319	2281.590
139.556	23.439	2207.281	2279.898
140.570	23.554	2205.155	2278.926
141.585	23.464	2203.312	2275.575
142.600	23.643	2201.474	2275.718
143.614	23.430	2201.064	2272.271
144.629	23.426	2198.547	2269.351
145.643	23.244	2196.894	2265.041
146.658	23.303	2194.664	2263.219
147.673	23.352	2193.066	2261.939
148.687	23.434	2191.414	2261.016
149.702	23.398	2190.634	2259.473
150.716	23.250	2189.908	2256.562
151.731	23.387	2188.493	2256.585
152.746	23.520	2187.768	2257.264
153.760	23.449	2186.184	2254.451
154.775	23.738	2185.914	2257.604
155.789	23.733	2183.945	2255.230
156.804	23.349	2179.271	2245.249
157.819	23.137	2175.614	2238.513
158.833	23.231	2173.616	2237.389
159.848	23.458	2172.692	2239.041
160.862	23.542	2171.102	2238.211
161.877	23.625	2170.954	2238.837
162.892	23.739	2169.146	2238.154
163.906	23.791	2167.929	2237.279
164.921	23.684	2166.094	2233.767
165.935	23.589	2163.562	2229.696
166.950	23.626	2162.950	2229.263
167.964	23.648	2160.147	2226.380
168.979	23.575	2158.379	2223.376
169.994	23.720	2156.350	2222.838
171.008	23.478	2154.963	2218.106
172.023	23.532	2152.732	2216.216
173.037	23.552	2152.175	2215.631
174.052	23.640	2150.263	2214.508
175.067	23.500	2148.915	2211.093
176.081	23.530	2146.842	2209.072
177.096	23.520	2145.586	2207.395
178.110	23.471	2143.611	2204.479
179.125	23.627	2142.138	2204.652
180.140	23.688	2141.714	2204.717
181.154	23.561	2140.725	2201.849
182.169	23.551	2138.570	2199.243
183.183	23.508	2137.990	2197.840
184.198	23.843	2137.496	2201.240
185.213	23.827	2136.013	2199.259
186.227	23.819	2133.874	2196.687
187.242	23.522	2132.275	2191.090
188.256	23.568	2129.475	2188.526
189.271	23.758	2128.723	2189.849
190.286	23.676	2127.140	2186.937
191.300	23.512	2124.835	2182.277
192.315	23.518	2122.398	2179.587
193.329	23.660	2121.309	2179.965
194.344	23.728	2120.745	2179.961
195.359	23.736	2120.110	2179.144
196.373	23.780	2116.956	2176.180
197.388	23.655	2114.604	2171.974
198.402	23.687	2111.965	2169.390
199.417	23.493	2109.865	2164.594
200.432	23.627	2108.508	2164.584
201.446	23.645	2107.713	2163.733
202.461	23.696	2104.996	2161.311
203.475	23.548	2103.571	2157.771
204.490	23.429	2101.459	2153.902
205.504	23.321	2101.043	2151.897
206.519	23.379	2098.231	2149.462
207.534	23.496	2095.333	2147.670
208.548	23.438	2094.514	2145.864
209.563	23.324	2094.016	2143.713
210.577	23.335	2091.605	2141.117
211.592	23.371	2091.084	2140.765
212.607	23.388	2091.134	2140.761
213.621	23.482	2090.825	2141.338
214.636	23.517	2088.397	2139.012
215.650	23.346	2086.187	2134.419
216.665	23.204	2084.216	2130.433
217.680	23.393	2082.726	2130.944
218.694	23.467	2081.372	2130.199
219.709	23.549	2079.338	2128.852
220.723	23.587	2078.455	2128.149
221.738	23.693	2076.416	2127.080
222.753	23.615	2074.622	2124.054
223.767	23.617	2072.298	2121.435
224.782	23.418	2070.676	2117.138
225.796	23.286	2070.047	2114.656
226.811	23.520	2068.312	2115.430
227.826	23.751	2066.499	2116.099
228.840	23.849	2064.276	2114.737
229.855	23.545	2063.925	2110.494
230.869	23.725	2061.668	2110.083
231.884	23.602	2060.121	2106.772
232.899	23.605	2058.100	2104.491
233.913	23.501	2057.364	2102.252
234.928	23.544	2055.529	2100.637
235.942	23.576	2054.962	2100.186
236.957	23.499	2053.837	2097.869
237.972	23.610	2051.284	2096.329
238.986	23.558	2051.349	2095.520
240.001	23.533	2049.060	2092.634
241.015	23.454	2047.612	2089.969
242.030	23.627	2047.407	2091.567
243.045	24.103	2045.883	2095.390
244.059	24.054	2045.500	2094.168
245.074	23.888	2040.905	2087.248
246.088	23.691	2038.661	2082.386
247.103	23.624	2037.031	2079.681
248.117	23.719	2035.742	2079.232
249.132	23.715	2035.184	2078.372
250.147	23.576	2032.325	2073.571
251.161	23.472	2031.179	2070.925
252.176	23.540	2029.725	2069.998
253.190	23.634	2027.598	2068.686
254.205	23.574	2024.853	2064.932
255.220	23.636	2023.746	2064.279
256.234	23.575	2022.989	2062.553
257.249	23.534	2021.464	2060.271
258.263	23.452	2021.265	2058.865
259.278	23.454	2019.232	2056.563
260.293	23.444	2017.460	2054.394
261.307	23.476	2014.983	2052.006
262.322	23.440	2014.524	2050.875
263.336	23.351	2011.814	2046.835
264.351	23.412	2010.258	2045.708
265.366	23.382	2009.243	2044.086
266.380	23.391	2008.291	2042.981
267.395	23.312	2006.114	2039.600
268.409	23.316	2004.992	2038.265
269.424	23.442	2004.136	2038.605
270.439	23.566	2002.614	2038.251
271.453	23.635	2001.211	2037.378
272.468	23.904	2000.478	2039.485
273.482	23.878	1997.800	2036.214
274.497	23.545	1995.033	2029.317
275.512	23.416	1992.638	2025.155
276.526	23.446	1991.280	2023.875
277.541	23.443	1988.699	2020.981
278.555	23.333	1987.281	2018.034
279.570	23.105	1985.997	2013.881
280.585	23.149	1984.068	2012.184
281.599	23.306	1983.378	2013.037
282.614	23.559	1982.296	2014.587
283.628	23.510	1981.258	2012.740
284.643	23.599	1980.051	2012.282
285.657	23.574	1979.096	2010.788
286.672	23.618	1976.843	2008.763
287.687	23.439	1974.938	2004.548
288.701	23.393	1974.221	2003.060
289.716	23.261	1972.368	1999.435
290.730	23.387	1969.608	1997.825
291.745	23.417	1968.804	1997.112
292.760	23.441	1968.265	1996.605
293.774	23.321	1967.819	1994.546
294.789	23.617	1966.190	1996.003
295.803	23.661	1964.347	1994.393
296.818	23.629	1963.166	1992.599
297.833	23.674	1962.173	1991.854
298.847	23.608	1960.395	1989.066
299.862	23.624	1958.640	1987.229
300.876	23.771	1956.818	1986.801
301.891	23.839	1957.022	1987.535
302.906	24.034	1955.662	1988.103
303.920	23.753	1954.196	1983.225
304.935	23.657	1951.194	1978.866
305.949	23.611	1949.624	1976.517
306.964	23.692	1947.464	1974.998
307.979	23.600	1945.314	1971.549
308.993	23.345	1942.815	1965.934
310.008	23.392	1941.512	1964.906
311.022	23.446	1941.317	1965.077
312.037	23.465	1939.218	1962.932
313.052	23.217	1937.153	1957.852
314.066	23.171	1934.654	1954.572
315.081	23.046	1934.219	1952.515
316.095	23.106	1932.242	1950.953
317.110	22.938	1930.737	1947.342
318.125	23.137	1929.918	1948.487
319.139	23.302	1929.636	1949.787
320.154	23.525	1927.467	1949.829
321.168	23.458	1926.151	1947.525
322.183	23.533	1925.193	1947.154
323.197	23.584	1923.530	1945.799
324.212	23.314	1922.424	1941.470
325.227	23.296	1920.234	1938.826
326.241	23.288	1918.835	1937.095
327.256	23.585	1917.311	1938.585
328.270	23.414	1916.769	1935.927
329.285	23.268	1916.515	1933.845
330.300	23.350	1916.684	1934.678
331.314	23.793	1915.691	1938.305
332.329	23.801	1912.349	1934.776
333.343	23.496	1910.205	1929.041
334.358	23.516	1908.138	1926.943
335.373	23.651	1906.928	1926.967
336.387	23.608	1904.653	1923.968
337.402	23.365	1903.671	1920.096
338.416	23.356	1901.646	1917.728
339.431	23.507	1900.396	1917.882
340.446	23.884	1898.454	1919.781
341.460	23.622	1898.115	1916.363
342.475	23.603	1896.243	1914.043
343.489	23.510	1894.056	1910.597
344.504	23.488	1892.998	1909.065
345.519	23.555	1890.600	1907.135
346.533	23.187	1889.431	1901.759
347.548	23.354	1887.856	1901.743
348.562	23.439	1887.162	1901.740
349.577	23.459	1886.385	1900.937
350.592	23.652	1883.941	1900.324
351.606	23.510	1883.013	1897.642
352.621	23.439	1880.993	1894.608
353.635	23.302	1880.408	1892.329
354.650	23.285	1878.587	1890.087
355.665	23.314	1877.292	1888.860
356.679	23.506	1876.416	1889.815
357.694	23.581	1874.717	1888.683
358.708	23.572	1874.070	1887.709
359.723	23.884	1873.577	1890.320
360.738	23.962	1873.319	1890.667
361.752	23.950	1871.383	1888.354
362.767	23.749	1868.280	1882.852
363.781	23.490	1866.772	1878.354
364.796	23.477	1864.924	1876.133
365.810	23.471	1863.264	1874.178
366.825	23.526	1862.367	1873.635
367.840	23.345	1862.086	1871.208
368.854	23.404	1860.813	1870.328
369.869	23.666	1859.418	1871.477
370.883	23.610	1857.963	1869.193
371.898	23.377	1855.999	1864.534
372.913	23.370	1853.632	1861.857
373.927	23.481	1851.800	1860.961
374.942	23.517	1851.556	1860.875
375.956	23.507	1850.499	1859.482
376.971	23.547	1847.120	1856.287
377.986	23.270	1846.055	1852.088
379.000	23.219	1844.905	1850.177
380.015	23.471	1844.207	1851.892
381.029	23.568	1842.044	1850.524
382.044	23.602	1840.163	1848.767
383.059	23.493	1839.433	1846.667
384.073	23.495	1837.886	1844.919
385.088	23.462	1835.805	1842.265
386.102	23.264	1835.299	1839.469
387.117	23.323	1833.308	1837.868
388.132	23.412	1832.788	1838.049
389.146	23.626	1833.081	1840.355
390.161	23.843	1832.134	1841.442
391.175	23.855	1828.627	1837.823
392.190	23.629	1824.929	1831.546
393.205	23.456	1823.450	1828.044
394.219	23.443	1821.758	1825.998
395.234	23.297	1820.257	1822.764
396.248	23.281	1818.417	1820.541
397.263	23.347	1816.211	1818.790
398.278	23.309	1814.602	1816.575
399.292	23.283	1813.711	1815.197
400.307	23.429	1813.359	1816.128
401.321	23.571	1811.770	1815.787
402.336	23.285	1809.903	1810.751
403.350	23.014	1808.573	1806.423
404.365	23.327	1807.722	1808.574
405.380	23.464	1806.580	1808.611
406.394	23.151	1805.780	1804.388
407.409	23.175	1803.836	1802.481
408.423	23.123	1802.191	1800.090
409.438	23.075	1801.150	1798.343
410.453	23.291	1800.307	1799.493
411.467	23.485	1799.258	1800.211
412.482	23.513	1797.860	1798.881
413.496	23.531	1796.212	1797.197
414.511	23.533	1794.964	1795.755
415.526	23.640	1792.350	1794.014
416.540	23.516	1791.135	1791.315
417.555	23.706	1790.172	1792.074
418.569	23.384	1790.485	1788.900
419.584	23.613	1790.126	1790.654
420.599	23.636	1789.281	1789.823
421.613	23.650	1788.171	1788.639
422.628	23.612	1786.373	1786.246
423.642	23.833	1784.746	1786.640
424.657	23.747	1783.453	1784.257
425.672	23.545	1782.034	1780.587
426.686	23.764	1780.440	1780.987
427.701	23.765	1780.208	1780.561
428.715	23.735	1778.542	1778.370
429.730	23.979	1776.539	1778.613
430.745	23.798	1775.456	1775.492
431.759	23.452	1774.182	1770.535
432.774	23.021	1772.541	1764.363
433.788	22.563	1770.741	1757.769
434.803	22.346	1770.185	1754.838
435.818	22.280	1768.873	1752.665
436.832	22.376	1767.703	1752.258
437.847	21.280	1759.889	1733.376
438.861	11.834	1734.345	1614.746
439.876	2.165	1716.245	1502.454
440.890	0.440	1711.899	1481.449
441.905	0.305	1710.454	1478.693
442.920	0.329	1709.065	1477.551
443.934	0.276	1707.712	1475.683
444.949	0.305	1706.524	1474.761
445.963	0.218	1705.489	1472.841
446.978	0.224	1705.541	1472.767
447.993	0.173	1703.926	1470.697
449.007	0.296	1701.258	1469.425
450.022	0.167	1699.529	1466.489
451.036	0.546	1698.557	1469.183
452.051	1.539	1702.043	1481.748
453.066	8.466	1721.102	1566.598
454.080	18.997	1739.380	1687.403
455.095	22.487	1745.897	1728.003
456.109	23.848	1747.591	1742.893
457.124	24.127	1746.108	1743.953
458.139	23.910	1745.379	1740.880
459.153	23.803	1743.766	1738.017
460.168	23.764	1741.586	1735.251
461.182	23.726	1740.097	1733.192
462.197	23.771	1738.011	1731.341
463.212	23.712	1736.290	1728.849
464.226	23.794	1735.264	1728.421
465.241	23.834	1734.531	1727.867
466.255	23.963	1733.530	1727.927
467.270	23.894	1732.127	1725.650
468.285	23.875	1730.327	1723.464
469.299	23.792	1729.164	1721.295
470.314	23.761	1727.971	1719.598
471.328	23.772	1726.878	1718.406
472.343	23.927	1724.905	1717.744
473.358	23.883	1724.193	1716.399
474.372	23.919	1723.213	1715.572
475.387	23.975	1722.101	1714.799
476.401	23.830	1721.560	1712.657
477.416	23.858	1719.624	1710.794
478.430	23.877	1719.211	1710.363
479.445	23.993	1717.738	1709.809
480.460	23.892	1716.157	1707.056
481.474	23.898	1714.862	1705.629
482.489	23.974	1713.588	1704.885
483.503	24.179	1711.830	1704.907
484.518	24.045	1710.492	1702.079
485.533	24.099	1709.188	1701.098
486.547	24.083	1707.950	1699.512
487.562	24.155	1707.000	1699.053
488.576	24.200	1705.098	1697.388
489.591	24.290	1704.097	1697.046
490.606	24.150	1703.090	1694.498
491.620	24.142	1701.169	1692.312
492.635	24.305	1699.383	1691.884
493.649	24.198	1698.083	1689.367
494.664	23.988	1696.668	1685.759
495.679	23.719	1695.975	1682.312
496.693	23.744	1694.488	1680.870
497.708	23.891	1692.593	1680.186
498.722	24.132	1691.604	1681.290
499.737	23.951	1690.764	1678.541
500.752	23.925	1689.458	1676.797
501.766	23.854	1687.676	1674.150
502.781	23.938	1685.607	1672.691
503.795	23.872	1684.818	1671.081
504.810	23.838	1683.673	1669.433
505.825	24.086	1682.585	1670.493
506.839	24.060	1681.331	1668.798
507.854	23.953	1680.229	1666.499
508.868	23.978	1677.620	1663.948
509.883	23.846	1676.519	1661.420
510.898	23.928	1676.035	1661.506
511.912	23.872	1674.682	1659.442
512.927	23.896	1672.360	1657.169
513.941	23.873	1671.437	1655.835
514.956	24.079	1671.005	1657.137
515.971	24.334	1669.804	1658.136
516.985	24.351	1668.656	1656.951
518.000	24.152	1667.088	1653.345
519.014	24.102	1665.889	1651.494
520.029	24.142	1664.281	1650.073
521.043	24.048	1662.542	1647.278
522.058	23.996	1661.838	1645.900
523.073	23.996	1660.961	1644.832
524.087	24.083	1660.107	1644.594
525.102	24.070	1659.185	1643.361
526.116	23.991	1657.663	1640.924
527.131	24.077	1655.801	1639.686
528.146	24.076	1655.399	1639.084
529.160	24.167	1654.556	1638.892
530.175	24.124	1653.330	1637.085
531.189	24.159	1652.012	1635.906
532.204	24.137	1650.569	1634.076
533.219	24.183	1649.196	1632.946
534.233	24.015	1648.485	1630.499
535.248	24.097	1647.387	1629.977
536.262	24.010	1646.834	1628.435
537.277	24.277	1645.281	1629.157
538.292	24.225	1643.777	1626.996
539.306	24.226	1641.780	1624.832
540.321	24.169	1640.595	1622.945
541.335	24.217	1638.878	1621.490
542.350	24.291	1637.494	1620.595
543.365	24.349	1636.180	1619.637
544.379	24.301	1635.136	1617.970
545.394	24.347	1633.993	1617.062
546.408	24.195	1631.910	1613.429
547.423	24.021	1630.233	1609.997
548.438	23.902	1629.878	1608.371
549.452	23.932	1629.609	1608.182
550.467	24.040	1627.794	1607.178
551.481	23.975	1626.780	1605.392
552.496	24.060	1625.744	1604.954
553.511	24.185	1624.086	1604.254
554.525	24.167	1623.042	1602.870
555.540	24.039	1622.748	1601.230
556.554	24.090	1621.596	1600.361
557.569	24.238	1618.857	1598.800
558.583	24.102	1618.419	1596.951
559.598	24.074	1616.888	1594.998
560.613	24.054	1616.528	1594.270
561.627	24.026	1614.710	1592.032
562.642	24.061	1613.585	1591.054
563.656	24.074	1611.796	1589.209
564.671	24.048	1610.671	1587.683
565.686	24.073	1609.278	1586.343
566.700	24.029	1608.020	1584.519
567.715	24.116	1606.837	1583.936
568.729	24.221	1605.195	1583.071
569.744	24.457	1604.356	1584.156
570.759	24.503	1603.382	1583.416
571.773	24.306	1602.419	1580.519
572.788	24.280	1600.979	1578.683
573.802	24.142	1598.688	1575.004
574.817	24.053	1597.860	1573.208
575.832	24.017	1596.694	1571.553
576.846	24.113	1594.421	1569.980
577.861	24.226	1593.683	1570.068
578.875	24.120	1593.637	1568.898
579.890	24.164	1592.267	1567.751
580.905	24.168	1591.170	1566.518
581.919	24.217	1590.392	1565.996
582.934	24.132	1589.914	1564.584
583.948	24.266	1588.328	1564.016
584.963	24.122	1586.500	1560.767
585.978	24.032	1585.460	1558.757
586.992	24.116	1584.232	1558.106
588.007	24.355	1584.119	1559.911
589.021	24.132	1582.680	1556.350
590.036	24.078	1581.081	1554.114
591.051	24.035	1581.089	1553.560
592.065	24.290	1578.764	1553.322
593.080	24.291	1576.627	1551.038
594.094	24.374	1575.255	1550.229
595.109	24.351	1573.579	1548.198
596.123	24.254	1572.117	1545.726
597.138	24.240	1571.233	1544.551
598.153	24.298	1569.397	1543.068
599.167	24.216	1568.771	1541.549
600.182	24.210	1567.703	1540.267
601.196	24.265	1566.639	1539.512
602.211	24.117	1565.653	1537.074
603.226	24.144	1564.424	1535.925
604.240	24.297	1562.274	1534.949
605.255	24.201	1561.148	1532.834
606.269	24.186	1561.392	1532.753
607.284	24.153	1559.645	1530.571
608.299	24.179	1558.572	1529.565
609.313	24.256	1557.232	1528.723
610.328	24.250	1555.577	1526.869
611.342	24.327	1554.132	1525.925
612.357	24.215	1553.197	1523.868
613.372	24.220	1552.024	1522.576
614.386	24.172	1550.491	1520.478
615.401	24.162	1550.558	1520.276
616.415	24.068	1549.786	1518.530
617.430	24.155	1548.633	1517.963
618.445	24.099	1547.168	1515.868
619.459	24.073	1546.128	1514.448
620.474	24.219	1545.435	1514.831
621.488	24.280	1544.563	1514.318
622.503	24.495	1543.210	1514.646
623.518	24.349	1541.779	1511.809
624.532	24.241	1540.560	1509.516
625.547	24.198	1539.388	1507.826
626.561	24.077	1538.145	1505.392
627.576	24.235	1536.853	1505.290
628.591	24.407	1536.248	1505.981
629.605	24.495	1535.425	1505.740
630.620	24.449	1534.711	1504.469
631.634	24.583	1533.211	1503.955
632.649	24.590	1532.244	1502.885
633.663	24.614	1530.377	1501.077
634.678	24.418	1529.164	1498.047
635.693	24.250	1526.928	1494.263
636.707	24.117	1525.544	1491.614
637.722	24.059	1524.701	1490.119
638.736	24.146	1523.044	1489.052
639.751	24.113	1522.144	1487.723
640.766	23.990	1520.876	1485.269
641.780	24.193	1519.266	1485.220
642.795	24.121	1519.273	1484.448
643.809	24.203	1518.505	1484.204
644.824	24.214	1517.870	1483.500
645.839	24.173	1516.870	1482.003
646.853	24.287	1514.784	1480.737
647.868	24.233	1513.306	1478.662
648.882	24.340	1512.284	1478.381
649.897	24.126	1511.132	1475.295
650.912	24.259	1510.042	1475.159
651.926	24.329	1508.823	1474.376
652.941	24.202	1507.761	1472.104
653.955	24.247	1506.157	1470.742
654.970	24.105	1504.733	1467.996
655.985	23.990	1502.888	1465.070
656.999	23.978	1501.949	1463.876
658.014	24.019	1500.243	1462.379
659.028	24.169	1499.944	1463.152
660.043	24.407	1498.848	1463.870
661.058	24.437	1497.180	1462.314
662.072	24.039	1496.684	1458.379
663.087	24.205	1495.630	1458.536
664.101	24.254	1494.222	1457.395
665.116	24.197	1493.681	1456.224
666.131	24.296	1492.047	1455.269
667.145	24.215	1490.752	1453.170
668.160	24.163	1489.619	1451.464
669.174	24.091	1488.654	1449.763
670.189	24.141	1486.810	1448.196
671.204	24.081	1486.767	1447.493
672.218	24.003	1486.032	1445.971
673.233	24.184	1484.828	1446.098
674.247	24.100	1483.047	1443.510
675.262	24.045	1482.120	1441.984
676.276	24.094	1481.017	1441.137
677.291	24.145	1480.474	1440.855
678.306	24.260	1479.377	1440.549
679.320	24.217	1477.879	1438.570
680.335	24.082	1476.954	1436.398
681.349	24.006	1476.919	1435.577
682.364	24.011	1475.156	1433.728
683.379	23.997	1473.882	1432.205
684.393	24.069	1472.357	1431.134
685.408	24.022	1471.096	1429.362
686.422	23.963	1470.879	1428.506
687.437	23.851	1469.864	1426.445
688.452	23.880	1468.478	1425.164
689.466	23.949	1466.888	1424.006
690.481	24.185	1465.643	1424.522
691.495	24.146	1465.627	1424.025
692.510	24.475	1464.676	1425.568
693.525	24.500	1463.436	1424.389
694.539	24.419	1462.260	1422.430
695.554	24.160	1461.297	1419.247
696.568	23.906	1459.931	1415.720
697.583	23.995	1458.051	1414.438
698.598	23.790	1457.520	1412.115
699.612	24.053	1455.969	1412.536
700.627	24.009	1454.878	1410.962
701.641	24.025	1454.140	1410.206
702.656	24.098	1453.157	1409.663
703.671	23.993	1452.575	1408.099
704.685	23.904	1451.619	1406.289
705.700	24.107	1449.862	1406.036
706.714	24.018	1448.523	1403.864
707.729	24.010	1447.284	1402.428
708.744	24.245	1446.138	1403.013
709.758	24.124	1445.067	1400.846
710.773	24.107	1443.789	1399.304
711.787	23.992	1442.876	1397.343
712.802	24.065	1441.483	1396.404
713.816	24.183	1440.712	1396.419
714.831	24.156	1439.772	1395.133
715.846	24.024	1439.134	1393.308
716.860	24.193	1436.878	1392.283
717.875	24.123	1435.968	1390.682
718.889	24.097	1434.866	1389.246
719.904	23.994	1434.269	1387.694
720.919	24.048	1432.951	1386.673
721.933	23.940	1431.916	1384.660
722.948	24.033	1431.064	1384.400
723.962	24.012	1429.608	1382.662
724.977	23.883	1428.407	1380.327
725.992	23.906	1427.295	1379.266
727.006	24.027	1426.127	1378.915
728.021	23.786	1425.076	1375.859
729.035	23.950	1423.319	1375.276
730.050	24.040	1422.929	1375.428
731.065	23.918	1422.155	1373.574
732.079	23.968	1420.744	1372.430
733.094	24.024	1419.738	1371.731
734.108	24.040	1418.032	1370.045
735.123	23.941	1416.655	1367.786
736.138	23.859	1415.940	1366.295
737.152	24.084	1414.523	1366.500
738.167	23.812	1413.840	1363.576
739.181	23.800	1413.025	1362.537
740.196	24.008	1411.949	1362.940
741.211	23.903	1411.118	1361.168
742.225	23.979	1410.133	1360.636
743.240	24.056	1408.341	1359.335
744.254	23.942	1407.146	1357.146
745.269	23.940	1405.899	1355.761
746.284	23.841	1405.343	1354.311
747.298	23.849	1405.009	1353.887
748.313	24.097	1404.118	1354.762
749.327	24.280	1403.762	1355.658
750.342	24.346	1403.227	1355.476
751.356	24.486	1401.861	1355.068
752.371	24.166	1401.220	1351.842
753.386	24.084	1399.017	1348.929
754.400	23.873	1397.355	1345.566
755.415	23.821	1396.461	1344.146
756.429	23.926	1395.092	1343.469
757.444	24.087	1393.140	1342.648
758.459	23.819	1392.554	1339.891
759.473	23.918	1390.921	1338.905
760.488	23.979	1389.667	1337.999
761.502	23.848	1388.824	1336.039
762.517	23.910	1387.882	1335.440
763.532	24.039	1387.014	1335.418
764.546	24.053	1386.321	1334.694
765.561	24.028	1385.146	1333.218
766.575	23.771	1384.633	1330.628
767.590	23.879	1383.177	1329.881
768.605	24.046	1381.773	1329.628
769.619	24.006	1380.635	1328.076
770.634	24.053	1379.782	1327.448
771.648	23.851	1378.534	1324.573
772.663	23.801	1377.188	1322.751
773.678	23.894	1376.699	1322.819
774.692	23.787	1375.992	1321.180
775.707	23.989	1375.003	1321.577
776.721	23.797	1374.809	1319.798
777.736	23.731	1373.143	1317.555
778.751	23.761	1372.234	1316.746
779.765	23.779	1371.899	1316.403
780.780	23.829	1370.585	1315.352
781.794	23.839	1369.500	1314.228
782.809	23.748	1368.775	1312.700
783.824	23.818	1367.680	1312.016
784.838	23.897	1366.671	1311.475
785.853	24.200	1365.864	1312.789
786.867	24.176	1365.564	1312.167
787.882	24.010	1364.349	1309.614
788.897	24.097	1363.259	1309.053
789.911	23.854	1362.212	1306.098
790.926	23.601	1361.017	1302.929
791.940	23.640	1358.923	1301.053
792.955	23.471	1357.759	1298.538
793.969	23.615	1356.524	1298.257
794.984	23.587	1356.171	1297.562
795.999	23.689	1355.033	1297.065
797.013	23.512	1353.249	1293.905
798.028	23.624	1351.866	1293.248
799.042	23.643	1351.218	1292.613
800.057	23.762	1349.485	1291.669
801.072	23.801	1348.012	1290.390
802.086	23.643	1347.086	1288.198
803.101	23.639	1346.158	1287.130
804.115	23.769	1344.907	1286.724
805.130	23.803	1343.542	1285.508
806.145	23.660	1343.040	1283.837
807.159	23.526	1342.467	1282.161
808.174	23.833	1341.128	1282.957
809.188	23.787	1340.136	1281.522
810.203	23.893	1338.174	1280.257
811.218	24.022	1336.739	1279.663
812.232	23.705	1336.216	1276.724
813.247	23.672	1335.640	1275.779
814.261	23.838	1334.030	1275.288
815.276	23.765	1333.437	1274.039
816.291	23.613	1332.034	1271.452
817.305	23.451	1331.674	1269.790
818.320	23.436	1330.149	1268.079
819.334	23.550	1328.779	1267.436
820.349	23.588	1327.134	1265.988
821.364	23.623	1325.496	1264.529
822.378	23.624	1324.291	1263.234
823.393	23.540	1322.489	1260.765
824.407	23.465	1321.826	1259.443
825.422	23.563	1321.050	1259.255
826.437	23.518	1320.061	1257.840
827.451	23.663	1318.338	1257.080
828.466	23.894	1317.596	1257.863
829.480	24.091	1316.714	1258.273
830.495	23.899	1315.032	1255.151
831.509	23.656	1313.602	1251.914
832.524	23.587	1311.980	1249.727
833.539	23.598	1310.475	1248.220
834.553	23.451	1309.973	1246.557
835.568	23.459	1308.705	1245.261
836.582	23.550	1307.688	1244.782
837.597	23.452	1306.539	1242.849
838.612	23.544	1305.157	1242.034
839.626	23.621	1304.140	1241.459
840.641	23.729	1303.783	1241.728
841.655	23.769	1302.868	1240.990
842.670	23.772	1301.194	1239.266
843.685	23.648	1300.354	1237.449
844.699	23.605	1299.308	1236.003
845.714	23.619	1297.770	1234.492
846.728	23.446	1296.882	1232.292
847.743	23.482	1295.524	1231.103
848.758	23.455	1294.503	1229.796
849.772	23.446	1293.016	1228.180
850.787	23.438	1291.492	1226.530
851.801	23.450	1290.181	1225.217
852.816	23.546	1288.966	1224.587
853.831	23.482	1287.752	1222.841
854.845	23.586	1286.081	1221.828
855.860	23.529	1284.310	1219.607
856.874	23.634	1284.078	1219.961
857.889	23.765	1283.359	1220.041
858.904	23.852	1282.437	1219.618
859.918	24.160	1281.138	1220.356
860.933	24.184	1279.947	1219.238
861.947	23.916	1278.945	1216.301
862.962	23.786	1276.916	1213.333
863.977	23.701	1275.734	1211.482
864.991	23.431	1274.893	1208.683
866.006	23.296	1275.114	1207.822
867.020	23.364	1273.964	1207.060
868.035	23.376	1271.889	1205.029
869.049	23.538	1270.973	1205.122
870.064	23.595	1269.518	1203.989
871.079	23.601	1268.439	1202.858
872.093	23.343	1268.459	1200.977
873.108	23.329	1267.648	1199.974
874.122	23.538	1266.187	1199.868
875.137	23.720	1265.782	1200.578
876.152	23.682	1264.769	1199.213
877.166	23.790	1262.879	1198.009
878.181	23.569	1261.746	1195.296
879.195	23.517	1260.799	1193.904
880.210	23.363	1259.791	1191.765
881.225	23.475	1259.146	1191.767
882.239	23.621	1258.039	1191.562
883.254	23.482	1256.778	1189.288
884.268	23.521	1256.308	1188.963
885.283	23.429	1254.975	1186.944
886.298	23.353	1253.580	1184.966
887.312	23.391	1252.679	1184.232
888.327	23.597	1251.032	1183.917
889.341	23.446	1250.256	1182.025
890.356	23.306	1249.709	1180.429
891.371	23.471	1249.377	1181.079
892.385	23.355	1248.940	1179.750
893.400	23.601	1247.695	1180.077
894.414	23.592	1245.990	1178.260
895.429	23.826	1244.837	1178.587
896.444	24.027	1244.070	1179.059
897.458	24.219	1242.880	1179.068
898.473	24.085	1242.471	1177.649
899.487	23.709	1241.025	1173.639
900.502	23.577	1239.795	1171.458
901.517	23.332	1238.127	1168.120
902.531	23.362	1237.069	1167.183
903.546	23.356	1236.584	1166.545
904.560	23.400	1235.946	1166.098
905.575	23.410	1234.856	1164.991
906.589	23.405	1234.209	1164.207
907.604	23.680	1232.844	1164.599
