DTS Sentinel unit serial number:	SN409020Multiplexer serial number:	ORYXHardware model number:	OX4-SRSoftware version number:	ORYX F/W v3.00 Oryx Data Collector v3.7.2.0data status	okinstallation	HaddamTimeLapsedifferential loss correction	single-endedforward channel	channel 3reverse channel	N/Adate	2011/06/22time	06:51:16forward acquisition time	30.00reverse acquisition time	0.00gamma	498.7831k internal	0.1752k external	0.1752temperature offset calibration	1.0074default loss term (dB/km)	0.3790temperature slope calibration	1.3530multiplexer offset coefficient	1.0000multiplexer slope coefficient	1.0000fibre end	0.00T internal ref (°C)	22.72T ext. ref 1 (°C)	18.85T ext. ref 2 (°C)	0.14length (m)	temperature (°C)	Stokes	anti-Stokes-747.200	-83.760	-0.212	-0.089
-746.185	-36.634	-0.054	0.038
-745.171	-85.391	0.390	0.161
-744.156	200.953	-0.179	0.367
-743.142	-200.000	-0.027	0.198
-742.127	170.273	-0.170	0.325
-741.112	50.816	0.451	0.568
-740.098	15.508	-0.317	0.331
-739.083	-103.013	0.332	0.104
-738.069	-34.246	0.522	-0.380
-737.054	800.000	0.077	0.333
-736.039	800.000	-0.142	0.616
-735.025	-200.000	-0.011	-0.239
-734.010	-129.492	-0.484	-0.088
-732.996	-18.615	0.415	-0.343
-731.981	-30.416	0.475	-0.357
-730.966	-200.000	0.034	-0.291
-729.952	80.480	0.137	0.196
-728.937	-53.853	0.126	-0.076
-727.923	-99.455	-0.549	0.182
-726.908	-200.000	-0.007	-0.138
-725.894	-89.668	-0.421	-0.163
-724.879	-166.203	0.784	0.043
-723.864	-127.341	0.134	-0.026
-722.850	40.637	-0.190	0.227
-721.835	-22.739	-0.326	-0.261
-720.821	82.055	0.204	0.294
-719.806	507.904	0.133	0.413
-718.791	-177.601	0.472	0.015
-717.777	-42.798	-0.179	0.120
-716.762	248.664	0.127	0.285
-715.748	53.391	-0.080	-0.102
-714.733	-118.777	-0.351	0.081
-713.718	98.095	0.110	0.169
-712.704	-40.466	-0.037	0.025
-711.689	-175.468	-0.374	-0.013
-710.675	92.410	0.163	0.244
-709.660	-75.406	-0.012	0.005
-708.645	297.158	0.199	0.486
-707.631	587.038	-0.050	-0.163
-706.616	-169.344	-0.474	-0.023
-705.602	53.537	0.048	0.061
-704.587	-200.000	-0.050	0.421
-703.572	-159.882	0.290	0.021
-702.558	192.213	-0.116	-0.232
-701.543	-96.011	0.137	0.048
-700.529	-93.460	-0.291	0.106
-699.514	-200.000	0.030	-0.265
-698.499	-0.013	0.346	-0.326
-697.485	98.696	-0.112	-0.171
-696.470	-77.757	0.335	0.153
-695.456	-200.000	-0.488	0.002
-694.441	800.000	0.071	0.403
-693.426	-161.130	0.257	0.018
-692.412	-78.136	0.300	-0.136
-691.397	-33.300	0.102	0.075
-690.383	-12.635	-0.131	-0.113
-689.368	-174.262	0.525	-0.020
-688.354	48.880	-0.156	0.194
-687.339	169.719	0.111	0.211
-686.324	-53.081	0.121	0.074
-685.310	-30.100	0.131	-0.099
-684.295	-76.852	0.240	0.111
-683.281	-98.779	0.358	0.120
-682.266	-131.237	0.168	0.029
-681.251	158.045	-0.097	0.179
-680.237	-1.521	0.212	0.198
-679.222	106.065	0.063	-0.099
-678.208	-106.977	-0.536	-0.156
-677.193	800.000	-0.164	0.645
-676.178	175.531	-0.146	-0.282
-675.164	-200.000	0.048	0.631
-674.149	28.369	-0.341	0.382
-673.135	-200.000	0.166	0.001
-672.120	-9.804	-0.475	-0.419
-671.105	132.256	-0.238	0.407
-670.091	57.078	0.237	-0.306
-669.076	259.409	-0.155	0.356
-668.062	-38.196	-0.314	0.220
-667.047	-3.179	-0.071	0.065
-666.032	-177.060	0.459	0.015
-665.018	-200.000	0.004	0.063
-664.003	-200.000	-0.024	-0.520
-662.989	-121.188	-0.395	0.087
-661.974	495.000	-0.060	-0.185
-660.959	-122.805	0.334	0.071
-659.945	33.143	-0.082	0.094
-658.930	84.910	0.124	-0.180
-657.916	-46.698	-0.265	0.171
-656.901	-135.816	0.308	0.048
-655.886	45.128	-0.141	-0.173
-654.872	-102.301	-0.492	0.155
-653.857	251.098	0.038	0.087
-652.843	-57.572	-0.200	0.116
-651.828	252.599	-0.032	-0.073
-650.814	-83.402	0.276	-0.116
-649.799	-200.000	-0.032	-0.436
-648.784	111.217	0.097	0.155
-647.770	800.000	-0.042	-0.168
-646.755	77.446	0.197	-0.278
-645.741	-71.093	0.233	-0.116
-644.726	38.419	0.226	-0.266
-643.711	-200.000	0.038	0.288
-642.697	-24.751	0.328	-0.258
-641.682	-23.598	-0.437	0.346
-640.668	451.054	-0.161	0.474
-639.653	-200.000	-0.099	-0.784
-638.638	-18.309	-0.118	-0.097
-637.624	545.328	-0.133	-0.423
-636.609	-96.421	-0.615	0.214
-635.595	-77.468	0.720	-0.329
-634.580	-47.683	0.472	0.302
-633.565	460.513	0.074	-0.220
-632.551	-25.595	-0.127	0.099
-631.536	147.309	0.090	-0.161
-630.522	-200.000	0.005	-0.322
-629.507	-54.694	0.072	-0.043
-628.492	143.870	0.205	0.362
-627.478	153.042	-0.130	-0.236
-626.463	-95.954	-0.086	-0.030
-625.449	-121.490	-0.117	0.025
-624.434	35.276	-0.366	-0.425
-623.419	32.404	-0.395	-0.451
-622.405	19.140	0.268	-0.284
-621.390	28.327	0.224	-0.250
-620.376	800.000	-0.010	0.043
-619.361	-63.587	-0.560	-0.302
-618.346	44.356	-0.093	0.113
-617.332	324.517	0.168	0.425
-616.317	-96.099	0.255	0.089
-615.303	128.735	0.141	-0.239
-614.288	800.000	-0.088	-0.371
-613.273	800.000	0.072	0.263
-612.259	-150.503	0.239	-0.024
-611.244	-168.235	-0.192	-0.010
-610.230	73.121	-0.177	0.244
-609.215	-84.728	0.208	0.086
-608.201	12.748	-0.225	0.229
-607.186	-108.071	0.129	0.037
-606.171	44.510	-0.177	-0.215
-605.157	800.000	0.059	-0.279
-604.142	-200.000	0.011	-0.123
-603.128	-125.025	0.111	-0.022
-602.113	54.782	-0.334	0.425
-601.098	-200.000	-0.012	0.472
-600.084	-64.977	-0.453	0.241
-599.069	-115.635	0.252	-0.062
-598.055	-24.803	0.521	-0.408
-597.040	311.997	0.086	0.213
-596.025	228.054	0.072	-0.155
-595.011	-200.000	0.472	-0.002
-593.996	54.685	-0.137	0.175
-592.982	107.160	0.103	0.161
-591.967	-200.000	-0.030	0.214
-590.952	-111.879	0.270	0.072
-589.938	60.090	0.239	-0.313
-588.923	800.000	0.101	-0.441
-587.909	435.539	0.091	-0.262
-586.894	96.539	0.031	0.047
-585.879	-147.923	0.193	-0.021
-584.865	13.408	0.120	-0.123
-583.850	-15.879	0.071	0.060
-582.836	126.154	-0.081	0.136
-581.821	-40.351	-0.161	0.110
-580.806	-80.436	0.375	-0.164
-579.792	-17.058	-0.293	0.244
-578.777	-66.598	0.209	-0.109
-577.763	-92.179	0.438	-0.162
-576.748	13.679	0.196	0.201
-575.733	113.901	0.115	-0.185
-574.719	762.753	0.028	0.102
-573.704	800.000	0.075	-0.419
-572.690	648.730	0.013	-0.045
-571.675	800.000	0.046	0.193
-570.661	800.000	-0.021	0.088
-569.646	-29.267	-0.325	0.245
-568.631	29.207	-0.403	-0.452
-567.617	-25.631	-0.137	-0.107
-566.602	5.914	0.461	-0.450
-565.588	470.033	-0.153	-0.454
-564.573	-200.000	-0.043	0.349
-563.558	-97.948	0.681	0.230
-562.544	607.427	0.071	-0.234
-561.529	68.345	0.207	-0.280
-560.515	-28.702	0.425	0.322
-559.500	185.649	-0.100	0.197
-558.485	106.623	0.300	0.470
-557.471	15.370	0.147	0.152
-556.456	800.000	0.030	0.132
-555.442	113.660	0.047	0.075
-554.427	-85.175	0.258	-0.106
-553.412	0.978	-0.250	-0.237
-552.398	-29.923	0.035	0.026
-551.383	-115.572	-0.244	0.060
-550.369	-42.458	0.216	-0.145
-549.354	606.966	-0.132	0.436
-548.339	-7.301	-0.190	0.170
-547.325	52.141	0.170	0.214
-546.310	228.368	0.137	-0.296
-545.296	34.726	0.180	-0.207
-544.281	52.967	0.155	0.195
-543.266	-145.527	0.530	-0.062
-542.252	-200.000	0.031	-0.213
-541.237	-32.470	-0.280	0.205
-540.223	-200.000	0.016	-0.100
-539.208	40.642	-0.238	0.282
-538.193	-71.385	0.171	0.084
-537.179	800.000	0.025	0.091
-536.164	-23.490	0.053	-0.042
-535.150	110.397	0.043	0.067
-534.135	-70.863	0.318	-0.157
-533.121	-106.066	0.469	-0.138
-532.106	169.127	0.140	0.263
-531.091	-200.000	-0.020	-0.386
-530.077	-67.376	0.229	-0.118
-529.062	558.743	-0.120	0.385
-528.048	-127.714	0.330	0.062
-527.033	-68.503	0.241	-0.123
-526.018	77.608	-0.154	-0.216
-525.004	800.000	-0.150	-0.571
-523.989	-84.368	0.465	-0.193
-522.975	-120.039	0.432	0.097
-521.960	-42.435	0.039	-0.026
-520.945	255.825	-0.154	-0.348
-519.931	-200.000	0.009	-0.108
-518.916	800.000	-0.030	0.130
-517.902	-41.545	0.175	0.118
-516.887	-176.001	0.240	-0.008
-515.872	149.030	0.075	0.134
-514.858	154.235	0.014	-0.025
-513.843	479.718	-0.126	-0.379
-512.829	-200.000	-0.010	-0.199
-511.814	-67.708	-0.163	-0.084
-510.799	86.700	0.285	-0.414
-509.785	65.658	0.177	0.237
-508.770	-59.017	-0.430	0.244
-507.756	-121.864	-0.412	0.089
-506.741	-119.733	0.307	0.069
-505.726	-7.279	0.027	0.024
-504.712	-200.000	-0.004	0.366
-503.697	-0.801	0.256	0.238
-502.683	-113.670	0.379	-0.097
-501.668	17.562	-0.280	-0.293
-500.653	-84.547	0.524	-0.216
-499.639	-6.006	-0.180	0.161
-498.624	-116.151	0.414	-0.100
-497.610	119.885	-0.127	0.207
-496.595	-161.068	0.480	0.033
-495.581	-200.000	0.529	0.002
-494.566	-119.584	-0.511	0.115
-493.551	800.000	0.005	-0.023
-492.537	800.000	-0.044	0.191
-491.522	-24.284	-0.406	0.318
-490.508	-71.589	0.195	0.095
-489.493	-162.433	-0.230	-0.015
-488.478	-200.000	-0.037	-0.578
-487.464	-140.701	-0.321	-0.043
-486.449	-59.772	-0.498	0.279
-485.435	-92.229	0.395	0.146
-484.420	-41.275	-0.277	-0.187
-483.405	18.140	0.126	0.132
-482.391	-200.000	-0.024	0.208
-481.376	36.921	0.421	0.489
-480.362	-200.000	-0.024	0.294
-479.347	-200.000	-0.002	0.035
-478.332	224.056	-0.054	0.115
-477.318	-46.680	0.371	-0.238
-476.303	-200.000	-0.119	0.721
-475.289	-46.847	-0.095	0.061
-474.274	-200.000	0.043	-0.319
-473.259	-105.399	0.511	0.152
-472.245	-19.557	-0.226	0.183
-471.230	500.453	-0.073	0.223
-470.216	-16.693	-0.079	-0.065
-469.201	-200.000	0.041	-0.563
-468.186	-4.997	0.183	-0.166
-467.172	-91.136	-0.271	-0.102
-466.157	282.324	-0.060	0.143
-465.143	-200.000	-0.236	0.001
-464.128	101.402	-0.031	0.048
-463.113	-176.816	0.410	-0.013
-462.099	800.000	-0.006	0.029
-461.084	262.078	-0.204	0.467
-460.070	10.288	-0.333	0.333
-459.055	258.370	-0.195	0.442
-458.040	-154.744	0.356	0.031
-457.026	-111.846	-0.539	-0.142
-456.011	-59.103	-0.071	-0.040
-454.997	-193.651	0.214	-0.002
-453.982	-164.046	0.292	-0.018
-452.968	-155.422	-0.423	-0.035
-451.953	81.324	-0.080	0.113
-450.938	-56.385	-0.477	0.277
-449.924	2.164	0.182	-0.173
-448.909	-23.942	0.181	-0.142
-447.895	-61.268	-0.065	0.036
-446.880	-10.192	-0.124	0.108
-445.865	529.602	-0.172	-0.534
-444.851	-71.949	-0.112	-0.054
-443.836	-113.588	0.377	-0.096
-442.822	800.000	0.072	-0.365
-441.807	-144.922	-0.716	-0.085
-440.792	507.740	-0.124	0.381
-439.778	94.886	-0.082	0.122
-438.763	76.582	0.068	0.094
-437.749	-7.774	0.204	-0.180
-436.734	156.901	0.344	-0.625
-435.719	475.393	0.079	-0.237
-434.705	4.539	-0.190	-0.183
-433.690	-200.000	0.037	-0.222
-432.676	-0.672	0.201	0.186
-431.661	-33.144	-0.161	0.117
-430.646	-200.000	0.007	-0.477
-429.632	-88.684	-0.381	-0.148
-428.617	24.346	-0.175	0.190
-427.603	42.882	-0.101	-0.121
-426.588	-105.758	-0.134	-0.039
-425.573	-75.812	-0.233	-0.108
-424.559	278.820	0.030	-0.071
-423.544	-107.711	-0.365	0.104
-422.530	800.000	0.035	-0.172
-421.515	38.210	-0.187	-0.219
-420.500	-42.402	0.229	-0.152
-419.486	88.006	0.198	-0.288
-418.471	-82.507	0.470	-0.199
-417.457	-108.992	-0.043	-0.012
-416.442	302.535	-0.090	0.218
-415.428	-56.795	0.235	0.136
-414.413	-55.726	-0.191	-0.111
-413.398	-76.662	-0.483	0.221
-412.384	800.000	-0.082	0.298
-411.369	91.977	0.140	0.207
-410.355	800.000	0.098	-0.460
-409.340	-101.957	-0.016	-0.005
-408.325	69.043	0.260	0.351
-407.311	-200.000	0.022	-0.543
-406.296	171.564	0.158	-0.297
-405.282	26.760	-0.440	-0.483
-404.267	106.715	0.170	-0.265
-403.252	-71.775	0.377	-0.183
-402.238	-55.312	-0.187	0.110
-401.223	128.804	0.255	-0.427
-400.209	197.441	-0.247	-0.496
-399.194	-128.520	-0.711	-0.131
-398.179	77.100	0.126	-0.175
-397.165	-157.860	0.278	-0.021
-396.150	576.213	-0.070	0.227
-395.136	-200.000	0.001	0.292
-394.121	-72.938	-0.178	0.085
-393.106	-188.794	-0.349	-0.005
-392.092	20.300	-0.364	-0.385
-391.077	-37.883	0.066	0.046
-390.063	-74.991	-0.311	-0.145
-389.048	-200.000	0.010	-0.204
-388.033	521.788	0.070	0.215
-387.019	-171.093	-0.267	0.012
-386.004	-60.918	-0.261	0.144
-384.990	-108.697	-0.387	0.108
-383.975	124.885	0.159	-0.263
-382.960	-200.000	0.009	0.184
-381.946	-167.920	-0.727	-0.037
-380.931	-103.049	0.150	0.046
-379.917	771.935	0.044	-0.159
-378.902	-134.019	-0.522	0.084
-377.888	-132.778	0.244	0.040
-376.873	5.714	-0.336	0.325
-375.858	-29.866	0.078	0.058
-374.844	-18.412	0.294	0.240
-373.829	-127.299	0.161	0.030
-372.815	6.600	-0.164	-0.159
-371.800	243.715	0.065	0.143
-370.785	-131.191	0.142	-0.024
-369.771	-76.152	-0.609	0.280
-368.756	380.163	0.131	-0.353
-367.742	-49.972	-0.271	0.168
-366.727	2.658	0.279	-0.264
-365.712	-162.015	0.134	-0.009
-364.698	213.686	0.091	0.188
-363.683	103.744	0.260	0.401
-362.669	-200.000	0.030	0.338
-361.654	-92.536	0.379	0.138
-360.639	-180.549	0.398	0.011
-359.625	6.364	-0.372	-0.361
-358.610	449.845	-0.125	0.363
-357.596	-57.849	-0.427	0.243
-356.581	6.881	0.113	-0.110
-355.566	302.128	-0.122	0.295
-354.552	-182.247	0.242	-0.006
-353.537	66.855	0.273	0.363
-352.523	-118.518	0.430	-0.099
-351.508	29.630	0.239	-0.266
-350.493	-200.000	0.030	-0.256
-349.479	345.496	0.152	0.392
-348.464	46.647	-0.368	0.447
-347.450	-95.976	0.251	-0.087
-346.435	6.313	0.443	0.429
-345.420	332.006	0.152	0.386
-344.406	-159.351	0.429	-0.031
-343.391	800.000	0.072	-0.300
-342.377	-71.055	-0.205	-0.100
-341.362	752.269	-0.040	0.143
-340.348	-11.371	-0.239	-0.205
-339.333	123.200	0.129	-0.212
-338.318	103.355	-0.038	0.058
-337.304	23.899	0.392	-0.422
-336.289	-3.981	-0.298	0.269
-335.275	22.851	-0.440	0.471
-334.260	-200.000	-0.022	0.261
-333.245	-200.000	-0.004	-0.228
-332.231	417.453	-0.109	0.304
-331.216	800.000	-0.071	0.262
-330.202	152.264	-0.048	-0.086
-329.187	-200.000	0.014	-0.173
-328.172	188.666	0.033	-0.066
-327.158	461.963	-0.088	-0.259
-326.143	-200.000	0.003	0.027
-325.129	-200.000	0.045	0.459
-324.114	8.773	-0.191	-0.188
-323.099	-109.392	0.253	-0.069
-322.085	15.146	-0.044	0.045
-321.070	800.000	-0.056	-0.257
-320.056	-154.367	0.476	0.041
-319.041	459.430	-0.148	-0.433
-318.026	-200.000	-0.024	-0.418
-317.012	13.908	0.066	0.067
-315.997	-20.657	0.107	0.085
-314.983	36.771	-0.258	0.298
-313.968	-103.889	0.382	0.116
-312.953	-181.182	-0.130	-0.003
-311.939	800.000	-0.033	0.165
-310.924	-157.405	-0.093	-0.007
-309.910	-53.769	-0.108	-0.064
-308.895	261.971	-0.241	0.547
-307.880	800.000	-0.157	0.644
-306.866	800.000	-0.110	0.505
-305.851	-101.937	0.269	-0.084
-304.837	-60.437	-0.178	0.099
-303.822	5.117	-0.136	0.130
-302.807	-138.874	-0.133	-0.019
-301.793	344.354	0.074	-0.191
-300.778	-200.000	-0.018	-0.104
-299.764	-39.476	0.073	-0.050
-298.749	104.124	-0.221	-0.339
-297.735	-16.979	-0.467	0.384
-296.720	-200.000	-0.016	0.224
-295.705	-86.866	0.417	-0.165
-294.691	-105.731	0.302	-0.088
-293.676	-91.915	0.236	0.087
-292.662	314.376	-0.244	-0.601
-291.647	-148.376	-0.058	0.006
-290.632	-166.743	0.248	0.013
-289.618	181.769	0.161	-0.309
-288.603	-10.414	-0.259	0.224
-287.589	800.000	0.069	-0.358
-286.574	-103.201	0.244	-0.075
-285.559	800.000	-0.056	0.244
-284.545	-200.000	-0.019	-0.333
-283.530	-137.326	-0.290	-0.043
-282.516	-57.479	0.240	-0.137
-281.501	-169.302	0.519	0.025
-280.486	23.791	0.341	0.366
-279.472	-127.014	0.145	-0.027
-278.457	-58.592	-0.212	-0.119
-277.443	782.577	0.124	0.445
-276.428	187.241	0.082	0.161
-275.413	24.936	-0.329	-0.355
-274.399	58.489	-0.278	0.355
-273.384	395.160	-0.114	0.312
-272.370	-26.837	-0.165	0.125
-271.355	-200.000	-0.025	0.602
-270.340	119.530	-0.205	-0.332
-269.326	-70.596	-0.360	-0.177
-268.311	-200.000	-0.001	0.303
-267.297	-118.063	-0.452	-0.104
-266.282	165.620	-0.156	0.288
-265.267	24.847	0.321	0.347
-264.253	260.284	-0.216	-0.488
-263.238	452.151	-0.064	0.185
-262.224	-200.000	0.003	-0.065
-261.209	130.384	0.125	-0.210
-260.195	92.989	0.224	0.330
-259.180	-200.000	-0.015	0.212
-258.165	-200.000	-0.026	0.289
-257.151	-200.000	0.008	0.076
-256.136	-107.253	-0.578	-0.165
-255.122	-83.796	-0.195	0.081
-254.107	800.000	-0.010	0.037
-253.092	-200.000	0.071	0.486
-252.078	-200.000	-0.046	-0.283
-251.063	-167.497	0.272	-0.014
-250.049	129.968	0.139	0.232
-249.034	-58.110	-0.407	0.230
-248.019	-124.143	-0.214	-0.043
-247.005	-128.526	-0.693	-0.127
-245.990	-200.000	-0.027	0.305
-244.976	192.203	-0.076	0.151
-243.961	-135.611	-0.268	0.041
-242.946	35.251	-0.425	-0.485
-241.932	-158.610	-0.285	-0.021
-240.917	269.091	0.052	-0.119
-239.903	-179.770	-0.312	0.009
-238.888	-42.373	0.391	0.259
-237.873	-13.721	-0.524	0.441
-236.859	85.664	0.115	-0.164
-235.844	-110.930	-0.237	-0.063
-234.830	-45.923	-0.439	0.281
-233.815	57.100	0.101	-0.128
-232.800	87.340	-0.312	-0.450
-231.786	127.826	0.126	0.208
-230.771	-33.743	-0.265	-0.190
-229.757	52.529	-0.190	-0.236
-228.742	-122.433	0.189	0.040
-227.727	66.270	-0.069	-0.091
-226.713	-155.608	0.120	-0.010
-225.698	-74.091	0.237	0.111
-224.684	43.161	-0.213	-0.253
-223.669	-152.090	-0.102	-0.010
-222.655	89.833	-0.199	-0.289
-221.640	-73.665	0.106	-0.050
-220.625	-120.488	-0.303	0.066
-219.611	92.386	-0.082	0.121
-218.596	-63.398	0.101	0.054
-217.582	800.000	-0.042	-0.233
-216.567	800.000	-0.098	-0.419
-215.552	210.224	-0.147	0.302
-214.538	-98.815	0.474	-0.156
-213.523	800.000	-0.064	0.274
-212.509	-200.000	-0.032	0.292
-211.494	297.905	-0.157	0.377
-210.479	-65.473	0.224	-0.117
-209.465	-136.381	0.551	-0.083
-208.450	6.455	0.434	0.419
-207.436	-200.000	0.012	-0.103
-206.421	-75.685	0.749	0.344
-205.406	-57.128	-0.468	-0.267
-204.392	-0.340	-0.097	-0.090
-203.377	800.000	-0.120	0.469
-202.363	-200.000	-0.038	0.306
-201.348	800.000	0.087	0.332
-200.333	114.815	0.233	0.369
-199.319	-86.397	0.094	-0.037
-198.304	-138.359	-0.535	-0.076
-197.290	-107.483	0.268	0.076
-196.275	-92.059	0.229	0.084
-195.260	471.890	-0.088	0.258
-194.246	-102.073	-0.119	-0.037
-193.231	213.340	-0.205	0.423
-192.217	152.706	-0.170	-0.302
-191.202	89.049	-0.222	-0.322
-190.187	87.164	-0.315	-0.453
-189.173	235.176	-0.081	0.174
-188.158	800.000	0.044	0.171
-187.144	-51.710	0.116	0.070
-186.129	-110.727	0.278	0.074
-185.114	206.543	-0.287	-0.583
-184.100	406.806	0.139	-0.384
-183.085	-120.458	0.522	0.114
-182.071	297.958	-0.202	0.484
-181.056	-131.503	-0.382	-0.065
-180.042	0.459	0.389	0.361
-179.027	-81.687	-0.149	-0.063
-178.012	-14.201	0.351	-0.294
-176.998	53.966	0.328	-0.410
-175.983	462.371	-0.049	0.143
-174.969	150.464	-0.135	-0.238
-173.954	9.028	-0.345	-0.338
-172.939	11.983	-0.173	-0.173
-171.925	-6.635	0.034	0.030
-170.910	-66.826	0.205	0.105
-169.896	232.388	-0.220	-0.472
-168.881	57.685	0.062	-0.079
-167.866	800.000	-0.022	-0.089
-166.852	344.455	-0.086	0.220
-165.837	-200.000	-0.001	0.157
-164.823	-200.000	-0.004	0.125
-163.808	-200.000	-0.006	-0.364
-162.793	299.819	0.177	-0.425
-161.779	-200.000	-0.010	0.112
-160.764	-54.731	-0.233	-0.136
-159.750	329.839	0.123	-0.308
-158.735	800.000	0.042	0.190
-157.720	-139.429	0.635	0.087
-156.706	145.885	0.157	-0.274
-155.691	-150.127	-0.472	0.047
-154.677	-71.534	-0.320	0.155
-153.662	-130.239	0.352	-0.062
-152.647	521.902	0.199	0.608
-151.633	-82.140	-0.545	0.229
-150.618	81.405	-0.239	0.336
-149.604	800.000	-0.158	-0.671
-148.589	-200.000	-0.006	-0.302
-147.574	174.465	0.023	0.044
-146.560	-55.651	0.093	-0.054
-145.545	289.798	0.065	-0.154
-144.531	142.831	-0.172	0.297
-143.516	-152.447	0.205	0.019
-142.502	94.325	-0.157	-0.231
-141.487	43.717	-0.122	0.145
-140.472	-26.083	0.264	0.201
-139.458	-81.481	-0.407	0.173
-138.443	445.714	-0.073	0.209
-137.429	37.626	0.117	-0.135
-136.414	-50.437	-0.247	-0.151
-135.399	-158.936	-0.300	0.022
-134.385	-106.674	0.311	0.089
-133.370	113.629	0.057	0.090
-132.356	143.245	0.137	0.237
-131.341	243.663	-0.081	0.178
-130.326	-200.000	0.040	0.492
-129.312	529.932	0.077	-0.238
-128.297	-99.157	0.295	0.096
-127.283	-32.954	-0.175	-0.125
-126.268	-128.437	-0.682	-0.124
-125.253	-191.509	-0.122	0.002
-124.239	-11.088	0.207	-0.176
-123.224	-114.638	0.096	0.024
-122.210	-85.819	0.418	0.167
-121.195	-106.161	0.301	0.087
-120.180	-121.469	-0.181	0.039
-119.166	-114.220	0.253	0.063
-118.151	-115.527	0.350	0.085
-117.137	-16.307	-0.267	-0.219
-116.122	51.701	-0.279	-0.344
-115.107	-26.594	-0.188	0.142
-114.093	-96.556	0.353	0.120
-113.078	-44.479	-0.345	-0.223
-112.064	173.190	-0.208	-0.390
-111.049	286.685	0.171	-0.401
-110.034	-188.831	-0.299	-0.005
-109.020	20.169	-0.376	0.393
-108.005	-3.737	-0.538	0.484
-106.991	5.371	0.084	0.080
-105.976	-72.485	0.147	0.070
-104.962	-63.495	-0.394	0.209
-103.947	-9.566	0.247	-0.213
-102.932	124.738	0.163	-0.266
-101.918	107.597	0.198	0.306
-100.903	-200.000	0.026	0.677
-99.889	342.248	-0.222	0.566
-98.874	-200.000	-0.050	-0.686
-97.859	-182.131	0.401	0.010
-96.845	166.037	0.213	0.392
-95.830	-200.000	-0.025	-0.648
-94.816	-116.563	0.436	0.103
-93.801	-106.274	-0.464	-0.134
-92.786	130.328	0.093	-0.154
-91.772	558.983	0.183	0.575
-90.757	-113.306	-0.393	0.099
-89.743	510.632	-0.079	0.238
-88.728	-170.328	-0.279	-0.012
-87.713	-200.000	0.008	0.407
-86.699	284.475	0.159	0.372
-85.684	-188.059	-0.104	-0.002
-84.670	-8.362	0.398	-0.346
-83.655	243.324	0.027	-0.059
-82.640	-143.401	0.241	0.029
-81.626	138.087	-0.158	-0.268
-80.611	11.596	0.633	0.628
-79.597	66.481	-0.455	0.599
-78.582	-103.829	0.375	0.113
-77.567	-73.220	-0.249	0.117
-76.553	401.247	0.103	-0.280
-75.538	-44.089	-0.341	0.221
-74.524	373.241	-0.043	-0.113
-73.509	-165.264	-0.472	-0.026
-72.494	131.092	0.146	-0.244
-71.480	-28.966	0.209	-0.155
-70.465	-158.527	-0.349	0.026
-69.451	-63.555	0.429	0.227
-68.436	-176.673	0.339	-0.011
-67.422	324.309	0.150	0.371
-66.407	-28.615	0.281	0.209
-65.392	-46.337	-0.179	0.113
-64.378	-200.000	-0.010	-0.073
-63.363	-122.201	-0.226	-0.047
-62.349	125.829	-0.105	0.171
-61.334	84.831	-1.863	-2.642
-60.319	4.420	1.848	1.751
-59.305	182.379	-3.924	-7.499
-58.290	61.914	3.901	5.029
-57.276	403.215	3.881	10.605
-56.261	-200.000	23.086	318.677
-55.246	360.840	1294.254	3366.190
-54.232	53.910	2835.793	3524.768
-53.217	51.939	2657.666	3272.838
-52.203	32.231	2388.789	2664.292
-51.188	27.788	2055.783	2238.163
-50.173	24.644	1941.337	2076.813
-49.159	23.458	1930.206	2051.044
-48.144	23.058	1925.397	2041.208
-47.130	22.878	1923.038	2036.542
-46.115	22.975	1920.755	2035.169
-45.100	22.986	1919.955	2034.361
-44.086	22.946	1917.594	2031.320
-43.071	22.765	1917.323	2028.866
-42.057	22.759	1915.634	2026.929
-41.042	22.880	1913.453	2025.935
-40.027	22.914	1912.701	2025.445
-39.013	22.903	1910.833	2023.260
-37.998	22.980	1908.497	2021.592
-36.984	22.819	1908.629	2019.806
-35.969	22.861	1906.202	2017.633
-34.954	22.858	1905.217	2016.475
-33.940	22.821	1904.732	2015.458
-32.925	22.747	1903.734	2013.474
-31.911	22.849	1902.209	2012.947
-30.896	22.749	1901.329	2010.791
-29.881	22.771	1899.724	2009.269
-28.867	22.865	1898.003	2008.443
-27.852	22.701	1896.630	2005.038
-26.838	22.802	1894.700	2004.073
-25.823	22.676	1893.994	2001.807
-24.809	22.732	1892.705	2001.005
-23.794	22.683	1891.928	1999.540
-22.779	22.720	1890.572	1998.460
-21.765	22.722	1888.891	1996.618
-20.750	22.609	1888.264	1994.589
-19.736	22.777	1885.982	1994.014
-18.721	22.703	1884.586	1991.616
-17.706	22.719	1884.283	1991.397
-16.692	22.677	1882.524	1988.983
-15.677	22.696	1881.452	1987.990
-14.663	22.683	1880.647	1986.911
-13.648	22.642	1878.910	1984.535
-12.633	22.681	1878.120	1984.062
-11.619	22.621	1876.803	1981.917
-10.604	22.639	1874.682	1979.801
-9.590	22.656	1873.774	1978.954
-8.575	22.510	1873.125	1976.540
-7.560	22.579	1871.900	1975.953
-6.546	22.607	1870.745	1974.970
-5.531	22.592	1868.985	1972.858
-4.517	22.664	1867.740	1972.282
-3.502	22.628	1866.733	1970.735
-2.487	22.469	1866.575	1968.701
-1.473	22.648	1862.192	1966.008
-0.458	22.542	1844.607	1946.185
0.556	19.437	1991.392	2051.713
1.571	18.378	2195.046	2247.304
2.586	19.127	2234.342	2297.315
3.600	19.350	2236.600	2302.358
4.615	19.170	2235.423	2298.449
5.629	19.251	2234.206	2298.009
6.644	19.252	2231.785	2295.257
7.659	19.203	2230.089	2292.584
8.673	19.230	2227.011	2289.513
9.688	18.959	2236.948	2295.812
10.702	17.937	2316.664	2363.134
11.717	16.441	2381.061	2407.133
12.731	8.181	2360.479	2268.371
13.746	1.071	2342.542	2149.731
14.761	0.182	2338.845	2133.427
15.775	0.155	2335.660	2129.885
16.790	0.075	2334.452	2127.391
17.804	-0.064	2334.219	2124.945
18.819	0.109	2332.272	2125.378
19.834	0.128	2330.458	2123.742
20.848	-0.031	2329.579	2120.436
21.863	0.042	2327.614	2119.417
22.877	0.086	2325.529	2117.895
23.892	0.019	2323.305	2114.667
24.907	-0.017	2321.962	2112.677
25.921	-0.076	2320.362	2110.140
26.936	0.010	2317.482	2108.476
27.950	-0.011	2315.148	2105.815
28.965	-0.009	2313.534	2104.125
29.980	-0.066	2313.031	2102.608
30.994	0.135	2308.725	2101.258
32.009	4.017	2320.669	2166.560
33.023	13.822	2349.984	2332.784
34.038	18.470	2357.634	2405.832
35.053	18.914	2356.295	2410.433
36.067	19.137	2355.114	2412.071
37.082	19.026	2353.091	2408.159
38.096	19.053	2349.403	2404.474
39.111	19.078	2349.086	2404.206
40.126	19.176	2347.350	2403.523
41.140	19.349	2345.488	2403.750
42.155	19.194	2342.994	2398.733
43.169	19.088	2341.452	2395.391
44.184	19.172	2338.360	2393.112
45.199	19.070	2336.978	2389.988
46.213	19.021	2336.035	2388.056
47.228	19.098	2334.529	2387.308
48.242	19.073	2332.737	2384.830
49.257	19.123	2330.879	2383.352
50.271	19.080	2327.594	2379.103
51.286	18.924	2325.905	2374.931
52.301	18.966	2324.655	2373.949
53.315	19.077	2324.622	2375.172
54.330	20.186	2327.401	2393.122
55.344	21.046	2325.445	2402.732
56.359	21.214	2320.931	2400.108
57.374	21.110	2321.723	2399.201
58.388	21.312	2318.644	2398.521
59.403	21.301	2315.512	2394.841
60.417	21.183	2313.612	2390.970
61.432	21.377	2311.159	2390.815
62.447	21.454	2310.717	2391.127
63.461	21.667	2307.439	2390.371
64.476	21.603	2305.940	2387.653
65.490	21.505	2304.730	2384.777
66.505	21.275	2302.923	2379.466
67.520	20.212	2299.046	2360.648
68.534	19.200	2293.559	2340.910
69.549	19.103	2289.388	2335.044
70.563	19.251	2287.644	2335.005
71.578	19.263	2285.728	2332.930
72.593	19.192	2284.613	2330.554
73.607	19.274	2283.564	2330.318
74.622	19.216	2281.769	2327.417
75.636	19.168	2277.316	2321.952
76.651	19.159	2275.426	2319.625
77.666	19.212	2273.795	2318.397
78.680	19.301	2271.506	2316.984
79.695	19.240	2269.747	2314.099
80.709	19.280	2269.227	2313.822
81.724	19.372	2266.338	2311.841
82.739	19.166	2264.164	2306.575
83.753	19.346	2261.754	2306.265
84.768	19.289	2260.394	2303.839
85.782	19.182	2259.781	2301.499
86.797	19.148	2257.962	2298.918
87.812	19.059	2255.919	2295.370
88.826	19.113	2253.268	2293.117
89.841	19.228	2251.411	2292.487
90.855	19.345	2247.532	2289.833
91.870	19.171	2247.125	2286.811
92.884	19.131	2245.286	2284.135
93.899	19.096	2243.124	2281.198
94.914	19.175	2245.121	2284.010
95.928	20.210	2247.860	2300.325
96.943	20.602	2246.036	2303.408
97.957	19.671	2239.499	2284.059
98.972	19.221	2236.087	2274.336
99.987	19.082	2232.041	2268.117
101.001	18.944	2230.422	2264.367
102.016	18.991	2229.602	2263.890
103.030	19.044	2227.807	2262.495
104.045	19.133	2224.862	2260.401
105.060	19.250	2222.738	2259.519
106.074	19.100	2221.106	2255.616
107.089	19.045	2220.042	2253.538
108.103	19.061	2218.574	2251.987
109.118	19.137	2216.446	2250.558
110.133	19.235	2215.453	2250.574
111.147	19.294	2213.302	2248.885
112.162	19.263	2211.440	2246.327
113.176	19.256	2208.952	2243.438
114.191	19.211	2206.957	2240.554
115.206	19.192	2205.838	2238.904
116.220	19.304	2203.836	2238.064
117.235	19.114	2201.622	2233.073
118.249	19.107	2199.723	2230.776
119.264	19.153	2198.785	2230.157
120.279	19.252	2197.484	2229.864
121.293	19.249	2195.109	2227.142
122.308	19.176	2194.278	2225.088
123.322	19.259	2192.437	2224.034
124.337	19.364	2191.922	2224.612
125.352	20.376	2195.181	2240.783
126.366	20.677	2193.230	2242.426
127.381	19.505	2186.665	2220.294
128.395	19.032	2182.670	2209.876
129.410	19.024	2182.375	2209.205
130.424	19.100	2180.071	2207.593
131.439	19.057	2178.438	2205.118
132.454	18.990	2176.723	2202.254
133.468	19.105	2173.848	2200.564
134.483	19.106	2172.327	2198.773
135.497	19.028	2170.828	2195.987
136.512	19.210	2167.788	2194.984
137.527	19.153	2167.103	2193.289
138.541	19.288	2165.364	2193.004
139.556	19.130	2164.612	2189.952
140.570	19.134	2163.560	2188.678
141.585	19.139	2161.032	2185.919
142.600	19.126	2159.823	2184.271
143.614	19.037	2157.996	2181.032
144.629	19.089	2156.315	2179.733
145.643	19.011	2154.252	2176.397
146.658	18.934	2153.259	2174.150
147.673	19.066	2151.211	2173.505
148.687	19.100	2149.955	2172.402
149.702	19.115	2149.212	2171.578
150.716	19.083	2147.272	2168.956
151.731	19.197	2145.837	2168.693
152.746	19.267	2145.303	2168.777
153.760	19.363	2146.344	2170.778
154.775	20.401	2148.440	2185.776
155.789	20.694	2144.971	2185.696
156.804	19.524	2139.492	2165.108
157.819	19.055	2135.395	2154.799
158.833	19.149	2132.658	2152.957
159.848	19.396	2130.982	2154.107
160.862	19.219	2130.454	2151.096
161.877	19.183	2129.815	2149.749
162.892	19.358	2127.019	2148.859
163.906	19.290	2126.333	2147.052
164.921	19.198	2124.827	2144.130
165.935	19.244	2121.913	2141.505
166.950	19.301	2120.536	2140.570
167.964	19.175	2118.488	2136.668
168.979	19.164	2116.338	2134.119
169.994	19.307	2115.313	2134.601
171.008	19.220	2113.812	2131.749
172.023	19.117	2112.284	2128.674
173.037	19.147	2111.260	2127.767
174.052	19.070	2109.919	2125.197
175.067	19.031	2108.278	2122.811
176.081	19.188	2107.133	2123.343
177.096	19.144	2105.246	2120.641
178.110	19.052	2101.994	2115.977
179.125	19.115	2101.094	2115.599
180.140	19.153	2100.878	2115.602
181.154	19.231	2099.023	2114.435
182.169	19.065	2097.618	2110.726
183.183	19.270	2097.331	2112.711
184.198	20.434	2099.427	2128.919
185.213	20.692	2098.629	2131.022
186.227	19.640	2093.659	2112.795
187.242	19.176	2090.683	2103.849
188.256	19.094	2089.518	2101.418
189.271	19.206	2087.688	2100.701
190.286	19.250	2086.217	2099.507
191.300	19.128	2083.551	2095.084
192.315	19.098	2081.367	2092.265
193.329	19.189	2080.919	2092.682
194.344	19.405	2079.449	2093.587
195.359	19.241	2078.357	2090.230
196.373	19.209	2076.293	2087.516
197.388	19.124	2073.878	2083.801
198.402	19.167	2071.834	2082.027
199.417	19.066	2069.448	2078.148
200.432	19.123	2068.304	2077.453
201.446	19.196	2068.116	2077.892
202.461	19.195	2066.631	2076.139
203.475	19.112	2064.971	2073.217
204.490	19.229	2062.172	2071.578
205.504	19.239	2059.148	2068.416
206.519	19.145	2057.747	2065.622
207.534	19.179	2056.321	2064.352
208.548	19.120	2055.414	2062.489
209.563	19.021	2054.159	2059.786
210.577	18.988	2052.711	2057.693
211.592	19.189	2051.371	2058.518
212.607	19.746	2052.689	2066.285
213.621	20.866	2055.506	2082.343
214.636	20.600	2051.081	2074.417
215.650	19.402	2047.253	2055.961
216.665	19.106	2045.848	2050.755
217.680	19.438	2043.869	2052.493
218.694	19.365	2042.077	2049.576
219.709	19.362	2040.298	2047.516
220.723	19.423	2038.990	2046.683
221.738	19.313	2037.429	2043.564
222.753	19.215	2034.819	2039.527
223.767	19.244	2033.609	2038.412
224.782	19.181	2031.585	2035.391
225.796	19.183	2030.188	2033.776
226.811	19.390	2028.710	2034.509
227.826	19.348	2027.054	2032.104
228.840	19.300	2026.936	2031.172
229.855	19.122	2025.326	2027.217
230.869	19.196	2023.395	2025.917
231.884	19.181	2021.924	2024.014
232.899	19.131	2020.811	2022.067
233.913	19.209	2018.325	2020.260
234.928	19.232	2017.204	2019.168
235.942	19.096	2016.158	2016.274
236.957	19.179	2013.575	2014.438
237.972	19.141	2013.250	2013.423
238.986	19.210	2012.129	2012.868
240.001	19.165	2010.415	2010.378
241.015	18.970	2009.321	2006.766
242.030	19.329	2008.962	2010.375
243.045	20.461	2010.373	2024.811
244.059	20.391	2008.937	2022.306
245.074	19.529	2002.603	2005.629
246.088	19.091	2000.044	1997.716
247.103	19.157	1998.472	1996.678
248.117	19.182	1997.761	1996.013
249.132	19.179	1995.574	1993.552
250.147	19.135	1993.374	1990.606
251.161	19.088	1991.551	1987.997
252.176	19.082	1990.919	1987.065
253.190	19.276	1988.601	1986.760
254.205	19.299	1987.395	1985.583
255.220	19.180	1986.358	1982.934
256.234	19.318	1985.380	1983.317
257.249	19.346	1983.927	1981.951
258.263	19.246	1982.636	1979.271
259.278	19.347	1981.637	1979.201
260.293	19.225	1979.989	1975.908
261.307	19.176	1978.021	1973.147
262.322	19.068	1976.650	1970.303
263.336	18.942	1974.564	1966.532
264.351	19.086	1972.602	1965.997
265.366	19.099	1971.545	1964.858
266.380	19.171	1970.502	1964.417
267.395	19.225	1968.611	1962.911
268.409	19.128	1966.992	1959.953
269.424	19.259	1966.372	1960.598
270.439	19.309	1965.452	1960.022
271.453	19.563	1965.164	1962.402
272.468	20.446	1966.435	1973.520
273.482	20.556	1963.026	1971.118
274.497	19.504	1958.808	1954.674
275.512	19.266	1955.550	1948.487
276.526	19.339	1953.271	1946.814
277.541	19.113	1951.605	1942.354
278.555	19.007	1951.352	1940.665
279.570	19.027	1948.038	1937.362
280.585	18.993	1947.071	1935.791
281.599	19.064	1945.736	1935.035
282.614	19.235	1944.611	1935.610
283.628	19.247	1944.142	1935.044
284.643	19.251	1942.569	1933.296
285.657	19.573	1941.865	1935.995
286.672	19.724	1941.376	1936.970
287.687	19.658	1937.974	1932.607
288.701	19.402	1937.308	1928.833
289.716	19.293	1935.695	1925.775
290.730	19.249	1934.267	1923.623
291.745	19.374	1932.966	1923.509
292.760	19.216	1932.272	1920.809
293.774	19.049	1931.536	1917.980
294.789	19.275	1929.473	1918.237
295.803	19.353	1927.053	1916.469
296.818	19.247	1925.805	1913.813
297.833	19.067	1924.729	1910.503
298.847	19.177	1923.240	1910.026
299.862	19.096	1921.534	1907.202
300.876	19.369	1920.485	1908.968
301.891	20.488	1922.648	1923.352
302.906	20.866	1921.983	1926.662
303.920	19.788	1917.661	1910.127
304.935	19.253	1914.868	1901.189
305.949	19.346	1912.449	1899.593
306.964	19.260	1910.455	1896.430
307.979	19.231	1908.856	1894.298
308.993	19.202	1907.080	1891.990
310.008	19.125	1906.569	1890.408
311.022	19.275	1905.438	1890.706
312.037	19.411	1904.053	1890.604
313.052	19.306	1902.156	1887.344
314.066	19.250	1900.047	1884.412
315.081	19.486	1899.712	1886.448
316.095	19.751	1899.479	1888.902
317.110	19.628	1897.707	1885.563
318.125	19.303	1895.523	1879.606
319.139	19.349	1893.500	1877.880
320.154	19.386	1892.142	1876.703
321.168	19.353	1890.590	1874.584
322.183	19.297	1889.137	1872.312
323.197	19.176	1887.884	1869.524
324.212	19.149	1885.512	1866.650
325.227	18.923	1884.957	1863.422
326.241	19.125	1882.325	1862.788
327.256	19.284	1881.492	1863.470
328.270	19.082	1881.112	1860.677
329.285	19.161	1880.714	1860.922
330.300	19.618	1882.611	1867.544
331.314	20.749	1883.568	1880.551
332.329	20.726	1878.915	1875.432
333.343	19.410	1874.805	1856.880
334.358	19.123	1872.428	1851.196
335.373	19.209	1870.591	1850.095
336.387	19.199	1869.465	1848.649
337.402	19.213	1866.882	1846.027
338.416	19.070	1865.909	1843.304
339.431	19.271	1864.276	1843.627
340.446	19.385	1862.509	1842.882
341.460	19.502	1860.779	1842.210
342.475	19.278	1860.445	1839.254
343.489	19.361	1858.380	1837.880
344.504	19.344	1858.351	1837.447
345.519	19.502	1857.000	1837.586
346.533	19.545	1854.469	1835.324
347.548	19.669	1853.944	1835.903
348.562	19.617	1852.644	1833.847
349.577	19.385	1851.924	1830.440
350.592	19.436	1850.232	1829.085
351.606	19.456	1847.981	1826.854
352.621	19.264	1845.973	1822.612
353.635	19.154	1844.709	1819.975
354.650	19.066	1843.610	1817.739
355.665	19.023	1842.037	1815.520
356.679	19.012	1841.448	1814.598
357.694	19.179	1839.504	1814.236
358.708	19.124	1838.269	1812.223
359.723	19.701	1839.922	1819.747
360.738	20.780	1841.090	1832.102
361.752	20.435	1837.423	1824.589
362.767	19.302	1833.758	1808.785
363.781	19.026	1830.728	1802.679
364.796	19.073	1829.386	1801.636
365.810	19.077	1828.349	1800.441
366.825	19.005	1827.364	1798.496
367.840	19.155	1826.098	1798.613
368.854	18.993	1825.728	1796.324
369.869	18.956	1823.044	1793.081
370.883	19.070	1821.785	1792.830
371.898	18.975	1821.076	1790.923
372.913	19.101	1820.675	1791.630
373.927	19.211	1820.025	1791.927
374.942	19.260	1819.213	1791.420
375.956	19.442	1816.804	1790.731
376.971	19.243	1814.155	1785.835
377.986	18.992	1812.391	1781.279
379.000	19.123	1811.095	1781.154
380.015	19.327	1810.609	1782.577
381.029	19.412	1809.057	1781.724
382.044	19.389	1806.965	1779.211
383.059	19.270	1804.471	1775.309
384.073	19.181	1803.205	1772.933
385.088	19.056	1802.711	1770.941
386.102	19.120	1800.991	1769.692
387.117	18.984	1799.089	1766.214
388.132	19.039	1798.749	1766.238
389.146	19.454	1800.940	1772.458
390.161	20.704	1801.684	1785.882
391.175	20.634	1796.334	1779.644
392.190	19.464	1790.839	1761.984
393.205	19.135	1788.223	1755.832
394.219	19.197	1787.926	1755.966
395.234	19.039	1787.324	1753.544
396.248	19.079	1785.002	1751.469
397.263	19.065	1783.318	1749.465
398.278	19.071	1781.625	1747.649
399.292	19.183	1780.947	1747.926
400.307	19.381	1780.150	1748.953
401.321	19.498	1778.547	1748.357
402.336	19.277	1778.041	1745.401
403.350	19.313	1775.335	1742.900
404.365	19.492	1774.684	1743.871
405.380	19.671	1773.933	1744.736
406.394	19.619	1773.044	1743.130
407.409	19.448	1771.637	1739.803
408.423	19.561	1769.283	1738.428
409.438	19.486	1767.277	1735.496
410.453	19.458	1766.286	1734.025
411.467	19.421	1765.712	1732.878
412.482	19.370	1763.648	1730.131
413.496	19.285	1762.695	1728.136
414.511	19.207	1761.096	1725.581
415.526	18.962	1758.836	1720.688
416.540	19.073	1757.217	1720.017
417.555	19.030	1756.313	1718.499
418.569	18.848	1756.564	1716.708
419.584	19.095	1755.942	1718.374
420.599	19.309	1756.281	1720.646
421.613	19.317	1755.285	1719.545
422.628	19.219	1753.811	1716.912
423.642	19.326	1752.118	1716.123
424.657	19.424	1750.261	1715.077
425.672	19.139	1748.873	1710.666
426.686	19.113	1747.173	1708.535
427.701	19.012	1745.675	1705.859
428.715	18.904	1743.641	1702.598
429.730	19.072	1742.769	1703.212
430.745	19.027	1742.136	1701.944
431.759	19.082	1741.908	1702.063
432.774	18.997	1741.170	1700.295
433.788	18.769	1739.501	1696.196
434.803	18.848	1737.857	1695.168
435.818	18.868	1737.440	1694.760
436.832	18.487	1737.587	1690.923
437.847	17.555	1729.157	1673.316
438.861	9.603	1706.848	1573.736
439.876	1.696	1693.058	1483.598
440.890	0.252	1689.314	1466.016
441.905	0.205	1688.251	1464.459
442.920	0.239	1687.445	1463.921
443.934	0.101	1686.460	1461.541
444.949	0.118	1685.020	1460.281
445.963	0.153	1683.664	1459.280
446.978	0.169	1683.270	1458.912
447.993	0.203	1681.444	1457.493
449.007	0.108	1679.616	1454.809
450.022	0.060	1677.889	1452.673
451.036	0.133	1676.528	1452.031
452.051	0.722	1678.317	1459.120
453.066	7.608	1695.870	1541.544
454.080	16.300	1709.343	1638.738
455.095	18.191	1712.528	1660.056
456.109	18.450	1712.394	1662.255
457.124	18.535	1710.874	1661.411
458.139	18.477	1710.439	1660.229
459.153	18.492	1708.989	1658.769
460.168	18.561	1707.441	1657.737
461.182	18.475	1706.213	1655.513
462.197	18.660	1703.113	1654.092
463.212	18.600	1702.635	1652.853
464.226	18.487	1702.032	1650.974
465.241	18.656	1699.966	1650.404
466.255	18.644	1699.489	1649.631
467.270	18.520	1698.816	1647.585
468.285	18.550	1696.956	1645.874
469.299	18.589	1695.598	1644.734
470.314	18.532	1693.762	1642.206
471.328	18.576	1692.002	1640.730
472.343	18.608	1691.189	1640.049
473.358	18.713	1689.659	1639.377
474.372	18.558	1688.656	1636.719
475.387	18.566	1688.255	1636.215
476.401	18.667	1685.956	1634.759
477.416	18.538	1685.631	1633.009
478.430	18.648	1683.391	1631.698
479.445	18.609	1682.991	1630.743
480.460	18.602	1681.052	1628.596
481.474	18.738	1680.384	1629.056
482.489	18.566	1679.593	1626.450
483.503	18.621	1676.808	1624.088
484.518	18.625	1675.469	1622.627
485.533	18.536	1675.285	1621.411
486.547	18.496	1673.404	1619.023
487.562	18.608	1672.388	1618.908
488.576	18.591	1671.372	1617.568
489.591	18.646	1669.492	1616.076
490.606	18.667	1667.992	1614.627
491.620	18.691	1666.258	1612.987
492.635	18.725	1664.106	1611.021
493.649	18.581	1663.441	1608.833
494.664	18.528	1663.057	1607.769
495.679	18.669	1660.908	1606.825
496.693	18.610	1659.757	1604.966
497.708	18.567	1658.858	1603.499
498.722	18.664	1657.167	1602.579
499.737	18.506	1656.059	1599.836
500.752	18.642	1654.591	1599.504
501.766	18.538	1653.610	1597.386
502.781	18.616	1651.759	1596.140
503.795	18.490	1650.344	1593.400
504.810	18.524	1649.296	1592.520
505.825	18.624	1649.002	1592.980
506.839	18.657	1647.557	1591.701
507.854	18.623	1645.554	1589.257
508.868	18.646	1644.205	1587.976
509.883	18.555	1644.092	1586.827
510.898	18.455	1642.690	1584.363
511.912	18.393	1640.947	1581.917
512.927	18.523	1639.202	1581.249
513.941	18.486	1637.911	1579.467
514.956	18.403	1637.189	1577.820
515.971	18.663	1635.239	1578.154
516.985	18.610	1633.941	1576.224
518.000	18.523	1633.114	1574.431
519.014	18.551	1632.431	1573.839
520.029	18.469	1630.615	1571.150
521.043	18.593	1628.920	1570.469
522.058	18.575	1628.347	1569.565
523.073	18.465	1627.650	1567.690
524.087	18.626	1625.982	1567.379
525.102	18.526	1624.956	1565.282
526.116	18.429	1624.575	1563.838
527.131	18.616	1623.003	1563.851
528.146	18.712	1621.607	1563.194
529.160	18.623	1620.870	1561.481
530.175	18.657	1619.120	1559.918
531.189	18.692	1618.281	1559.247
532.204	18.668	1616.702	1557.318
533.219	18.591	1615.920	1555.677
534.233	18.617	1615.189	1555.023
535.248	18.672	1613.650	1553.861
536.262	18.720	1612.446	1552.951
537.277	18.665	1611.133	1550.994
538.292	18.586	1610.452	1549.438
539.306	18.635	1608.333	1547.663
540.321	18.469	1607.373	1545.045
541.335	18.609	1605.844	1544.656
542.350	18.666	1603.179	1542.427
543.365	18.552	1602.516	1540.578
544.379	18.672	1601.247	1540.253
545.394	18.558	1600.408	1538.234
546.408	18.600	1598.731	1536.819
547.423	18.512	1598.871	1535.975
548.438	18.607	1597.097	1534.939
549.452	18.568	1595.861	1533.219
550.467	18.579	1594.405	1531.737
551.481	18.438	1593.263	1529.189
552.496	18.633	1591.959	1529.500
553.511	18.477	1591.382	1527.369
554.525	18.342	1590.618	1525.242
555.540	18.591	1589.297	1526.020
556.554	18.639	1587.773	1524.806
557.569	18.539	1587.236	1523.210
558.583	18.598	1585.655	1522.036
559.598	18.515	1584.529	1520.036
560.613	18.434	1583.716	1518.355
561.627	18.424	1581.756	1516.205
562.642	18.549	1579.399	1514.873
563.656	18.526	1578.570	1513.688
564.671	18.362	1578.314	1511.811
565.686	18.414	1576.756	1510.595
566.700	18.455	1575.226	1509.318
567.715	18.382	1573.540	1506.874
568.729	18.422	1572.207	1505.772
569.744	18.596	1570.948	1505.918
570.759	18.451	1569.910	1503.468
571.773	18.568	1568.797	1503.249
572.788	18.375	1568.310	1500.903
573.802	18.388	1566.295	1498.911
574.817	18.431	1564.964	1497.833
575.832	18.435	1563.999	1496.766
576.846	18.543	1562.431	1496.031
577.861	18.557	1561.788	1495.359
578.875	18.470	1561.552	1494.193
579.890	18.661	1559.111	1493.346
580.905	18.503	1559.013	1491.694
581.919	18.505	1558.585	1491.124
582.934	18.440	1557.637	1489.473
583.948	18.399	1555.826	1487.200
584.963	18.463	1554.356	1486.179
585.978	18.580	1552.995	1485.719
586.992	18.402	1552.490	1483.509
588.007	18.528	1551.542	1483.522
589.021	18.544	1550.839	1482.811
590.036	18.682	1548.761	1481.845
591.051	18.418	1547.954	1478.604
592.065	18.465	1546.595	1477.538
593.080	18.563	1544.569	1476.275
594.094	18.546	1543.123	1474.570
595.109	18.489	1542.097	1472.913
596.123	18.622	1539.985	1471.871
597.138	18.531	1539.656	1470.596
598.153	18.435	1538.342	1468.335
599.167	18.431	1537.147	1466.984
600.182	18.589	1535.615	1466.706
601.196	18.512	1534.923	1465.206
602.211	18.501	1533.629	1463.703
603.226	18.526	1532.127	1462.308
604.240	18.581	1530.592	1461.143
605.255	18.724	1528.804	1460.483
606.269	18.586	1528.542	1458.880
607.284	18.546	1527.982	1457.828
608.299	18.566	1526.570	1456.476
609.313	18.614	1524.785	1455.003
610.328	18.544	1524.143	1453.620
611.342	18.492	1522.595	1451.534
612.357	18.541	1522.327	1451.518
613.372	18.480	1520.575	1449.157
614.386	18.524	1519.380	1448.216
615.401	18.480	1519.231	1447.525
616.415	18.415	1518.898	1446.483
617.430	18.437	1517.280	1444.955
618.445	18.466	1515.860	1443.679
619.459	18.404	1515.043	1442.200
620.474	18.460	1514.046	1441.557
621.488	18.418	1512.955	1439.986
622.503	18.491	1511.589	1439.130
623.518	18.371	1510.753	1437.154
624.532	18.486	1508.814	1436.105
625.547	18.549	1507.149	1434.874
626.561	18.322	1507.056	1432.706
627.576	18.512	1505.903	1433.034
628.591	18.397	1505.412	1431.435
629.605	18.466	1503.497	1430.017
630.620	18.563	1502.410	1429.625
631.634	18.521	1501.536	1428.268
632.649	18.542	1499.817	1426.641
633.663	18.515	1498.416	1424.908
634.678	18.449	1497.688	1423.500
635.693	18.405	1495.592	1420.967
636.707	18.495	1494.341	1420.356
637.722	18.496	1493.858	1419.741
638.736	18.493	1492.841	1418.575
639.751	18.581	1491.797	1418.148
640.766	18.547	1490.243	1416.218
641.780	18.596	1489.106	1415.373
642.795	18.638	1488.642	1415.110
643.809	18.514	1488.548	1413.829
644.824	18.426	1487.548	1411.980
645.839	18.529	1486.379	1411.554
646.853	18.480	1484.671	1409.353
647.868	18.493	1483.221	1407.920
648.882	18.481	1482.030	1406.519
649.897	18.572	1480.345	1405.502
650.912	18.575	1479.117	1404.194
651.926	18.555	1478.672	1403.440
652.941	18.523	1476.988	1401.411
653.955	18.535	1475.477	1399.907
654.970	18.621	1474.214	1399.248
655.985	18.538	1473.358	1397.588
656.999	18.557	1472.013	1396.295
658.014	18.757	1469.986	1395.844
659.028	18.650	1469.512	1394.348
660.043	18.638	1468.901	1393.503
661.058	18.518	1468.390	1391.875
662.072	18.588	1466.797	1390.767
663.087	18.513	1465.661	1388.913
664.101	18.534	1464.624	1387.934
665.116	18.467	1463.874	1386.512
666.131	18.525	1462.626	1385.641
667.145	18.529	1460.842	1383.814
668.160	18.470	1460.061	1382.429
669.174	18.462	1458.925	1381.124
670.189	18.577	1457.222	1380.274
671.204	18.481	1456.725	1378.864
672.218	18.568	1455.501	1378.247
673.233	18.622	1454.367	1377.438
674.247	18.598	1453.067	1375.848
675.262	18.581	1452.361	1374.880
676.276	18.492	1451.283	1372.979
677.291	18.477	1450.531	1371.983
678.306	18.711	1448.787	1372.046
679.320	18.584	1447.148	1369.312
680.335	18.440	1447.216	1368.061
681.349	18.551	1446.582	1368.186
682.364	18.413	1445.617	1366.002
683.379	18.559	1444.011	1365.495
684.393	18.437	1443.109	1363.500
685.408	18.436	1441.956	1362.239
686.422	18.514	1440.836	1361.644
687.437	18.369	1441.035	1360.510
688.452	18.457	1439.710	1359.799
689.466	18.535	1437.419	1358.094
690.481	18.530	1435.707	1356.269
691.495	18.472	1435.393	1355.351
692.510	18.508	1434.299	1354.438
693.525	18.547	1433.093	1353.450
694.539	18.557	1431.756	1352.100
695.554	18.364	1431.360	1350.040
696.568	18.512	1430.271	1350.024
697.583	18.429	1429.498	1348.478
698.598	18.410	1428.864	1347.561
699.612	18.401	1427.638	1346.176
700.627	18.647	1426.017	1346.423
701.641	18.593	1424.663	1344.561
702.656	18.523	1423.778	1343.012
703.671	18.591	1423.138	1342.786
704.685	18.510	1423.060	1341.910
705.700	18.589	1421.255	1340.669
706.714	18.620	1419.708	1339.297
707.729	18.533	1418.648	1337.449
708.744	18.568	1417.535	1336.520
709.758	18.451	1416.603	1334.562
710.773	18.578	1415.023	1333.906
711.787	18.698	1413.596	1333.336
712.802	18.628	1412.394	1331.497
713.816	18.575	1411.459	1330.049
714.831	18.592	1410.988	1329.576
715.846	18.575	1409.203	1327.602
716.860	18.536	1408.296	1326.282
717.875	18.655	1406.955	1325.786
718.889	18.435	1406.376	1323.376
719.904	18.478	1405.871	1323.077
720.919	18.577	1404.368	1322.269
721.933	18.507	1403.864	1321.095
722.948	18.639	1402.114	1320.310
723.962	18.594	1401.006	1318.760
724.977	18.571	1400.393	1317.851
725.992	18.556	1398.509	1315.805
727.006	18.631	1397.225	1315.018
728.021	18.672	1396.042	1314.058
729.035	18.617	1394.636	1312.159
730.050	18.677	1393.883	1311.752
731.065	18.590	1393.224	1310.309
732.079	18.657	1392.175	1309.677
733.094	18.682	1391.049	1308.651
734.108	18.609	1389.398	1306.387
735.123	18.611	1388.148	1305.067
736.138	18.497	1387.626	1303.548
737.152	18.557	1386.662	1302.949
738.167	18.628	1385.078	1301.844
739.181	18.539	1384.403	1300.375
740.196	18.694	1383.464	1300.521
741.211	18.472	1382.525	1297.794
742.225	18.495	1382.119	1297.427
743.240	18.552	1380.242	1295.943
744.254	18.619	1379.257	1295.373
745.269	18.474	1378.390	1293.305
746.284	18.458	1377.753	1292.429
747.298	18.504	1376.700	1291.635
748.313	18.264	1376.295	1289.284
749.327	18.275	1375.622	1288.581
750.342	18.468	1374.658	1288.981
751.356	18.622	1372.432	1287.908
752.371	18.509	1371.603	1286.123
753.386	18.476	1370.785	1284.949
754.400	18.500	1369.694	1283.959
755.415	18.550	1368.448	1283.011
756.429	18.614	1366.754	1281.746
757.444	18.458	1366.269	1279.967
758.459	18.532	1365.523	1279.673
759.473	18.684	1364.003	1279.236
760.488	18.659	1363.258	1278.196
761.502	18.714	1361.792	1277.081
762.517	18.774	1361.222	1276.843
763.532	18.635	1359.814	1274.332
764.546	18.694	1358.427	1273.317
765.561	18.587	1358.477	1272.412
766.575	18.623	1357.156	1271.291
767.590	18.618	1355.678	1269.720
768.605	18.624	1354.490	1268.499
769.619	18.737	1353.071	1267.853
770.634	18.663	1352.420	1266.541
771.648	18.526	1351.874	1264.865
772.663	18.728	1350.506	1264.931
773.678	18.573	1349.996	1263.154
774.692	18.573	1349.135	1262.195
775.707	18.566	1348.926	1261.799
776.721	18.652	1348.244	1261.643
777.736	18.726	1346.131	1260.064
778.751	18.526	1345.658	1257.998
779.765	18.611	1344.584	1257.468
780.780	18.601	1344.029	1256.724
781.794	18.615	1342.622	1255.358
782.809	18.414	1341.925	1253.084
783.824	18.346	1340.755	1251.339
784.838	18.536	1338.902	1250.855
785.853	18.462	1337.542	1248.892
786.867	18.478	1337.164	1248.505
787.882	18.379	1337.148	1247.613
788.897	18.357	1336.632	1246.823
789.911	18.504	1335.007	1246.232
790.926	18.516	1333.491	1244.754
791.940	18.342	1332.123	1242.063
792.955	18.551	1331.238	1242.609
793.969	18.455	1330.269	1240.860
794.984	18.386	1329.925	1239.885
795.999	18.545	1328.812	1239.860
797.013	18.543	1326.799	1237.818
798.028	18.635	1324.566	1236.250
799.042	18.559	1324.839	1235.804
800.057	18.592	1323.627	1234.764
801.072	18.711	1321.763	1233.738
802.086	18.693	1320.749	1232.518
803.101	18.593	1320.242	1231.173
804.115	18.709	1319.274	1230.964
805.130	18.727	1318.069	1229.817
806.145	18.616	1317.660	1228.491
807.159	18.657	1315.551	1226.675
808.174	18.725	1314.221	1225.774
809.188	18.743	1312.996	1224.615
810.203	18.674	1311.863	1222.918
811.218	18.520	1310.570	1220.462
812.232	18.528	1309.233	1219.125
813.247	18.607	1308.452	1218.816
814.261	18.605	1307.676	1217.934
815.276	18.674	1306.650	1217.326
816.291	18.692	1305.670	1216.393
817.305	18.679	1304.826	1215.370
818.320	18.508	1303.533	1212.807
819.334	18.528	1302.412	1211.760
820.349	18.573	1301.111	1210.725
821.364	18.349	1299.684	1207.663
822.378	18.537	1298.483	1207.736
823.393	18.649	1296.111	1206.177
824.407	18.564	1295.527	1204.889
825.422	18.565	1294.905	1204.174
826.437	18.649	1293.847	1203.638
827.451	18.486	1292.375	1200.976
828.466	18.570	1290.380	1199.567
829.480	18.389	1289.038	1196.906
830.495	18.582	1287.274	1196.474
831.509	18.387	1287.269	1194.960
832.524	18.497	1286.224	1194.617
833.539	18.494	1284.605	1192.950
834.553	18.592	1284.021	1192.950
835.568	18.613	1283.334	1192.319
836.582	18.591	1282.175	1190.946
837.597	18.766	1280.648	1190.602
838.612	18.762	1279.194	1189.078
839.626	18.576	1278.548	1187.045
840.641	18.772	1277.182	1186.998
841.655	18.728	1276.401	1185.819
842.670	18.818	1275.767	1185.717
843.685	18.609	1274.323	1182.782
844.699	18.634	1273.978	1182.492
845.714	18.709	1272.203	1181.222
846.728	18.621	1271.641	1179.957
847.743	18.713	1270.437	1179.332
848.758	18.777	1268.596	1177.923
849.772	18.527	1267.645	1175.173
850.787	18.648	1266.463	1174.773
851.801	18.534	1265.307	1172.775
852.816	18.617	1264.113	1172.097
853.831	18.566	1262.314	1169.940
854.845	18.548	1261.063	1168.517
855.860	18.519	1259.326	1166.567
856.874	18.500	1257.900	1164.981
857.889	18.578	1257.133	1164.662
858.904	18.409	1256.239	1162.541
859.918	18.370	1254.393	1160.428
860.933	18.406	1253.191	1159.425
861.947	18.406	1252.450	1158.595
862.962	18.718	1250.869	1159.118
863.977	18.514	1249.633	1156.445
864.991	18.580	1249.041	1156.206
866.006	18.497	1249.350	1155.794
867.020	18.569	1247.703	1154.616
868.035	18.492	1246.860	1153.179
869.049	18.595	1245.930	1152.874
870.064	18.542	1245.261	1151.762
871.079	18.668	1244.706	1151.958
872.093	18.705	1243.762	1151.199
873.108	18.728	1242.486	1150.034
874.122	18.763	1241.198	1148.944
875.137	18.922	1240.579	1149.301
876.152	18.859	1239.586	1147.819
877.166	18.675	1238.022	1144.999
878.181	18.863	1236.561	1144.770
879.195	18.768	1236.248	1143.710
880.210	18.609	1235.430	1141.750
881.225	18.755	1233.909	1141.185
882.239	18.807	1233.465	1140.985
883.254	18.757	1231.865	1139.029
884.268	18.791	1231.093	1138.407
885.283	18.708	1230.173	1136.869
886.298	18.776	1228.401	1135.545
887.312	18.724	1227.731	1134.450
888.327	18.883	1226.879	1134.581
889.341	18.919	1225.319	1133.242
890.356	18.595	1224.997	1130.662
891.371	18.611	1224.836	1130.481
892.385	18.712	1223.818	1130.075
893.400	18.723	1222.638	1128.922
894.414	18.591	1221.726	1127.072
895.429	18.680	1219.951	1125.887
896.444	18.702	1218.210	1124.290
897.458	18.541	1217.515	1122.454
898.473	18.621	1217.158	1122.522
899.487	18.642	1216.171	1121.612
900.502	18.684	1214.556	1120.268
901.517	18.589	1213.829	1118.834
902.531	18.598	1212.954	1117.952
903.546	18.746	1212.400	1118.279
904.560	18.757	1211.393	1117.287
905.575	18.780	1210.876	1116.827
906.589	18.797	1210.195	1116.181
907.604	18.813	1208.961	1115.013
