DTS Sentinel unit serial number:	SN409020Multiplexer serial number:	ORYXHardware model number:	OX4-SRSoftware version number:	ORYX F/W v3.00 Oryx Data Collector v3.7.2.0data status	okinstallation	HaddamTimeLapsedifferential loss correction	single-endedforward channel	channel 3reverse channel	N/Adate	2011/06/22time	08:21:16forward acquisition time	30.00reverse acquisition time	0.00gamma	498.7831k internal	0.1776k external	0.1776temperature offset calibration	1.0074default loss term (dB/km)	0.3790temperature slope calibration	1.3530multiplexer offset coefficient	1.0000multiplexer slope coefficient	1.0000fibre end	0.00T internal ref (°C)	25.53T ext. ref 1 (°C)	23.53T ext. ref 2 (°C)	0.17length (m)	temperature (°C)	Stokes	anti-Stokes-747.200	-42.173	-0.203	0.135
-746.185	168.376	0.131	0.244
-745.171	47.536	0.508	-0.621
-744.156	456.707	-0.065	-0.189
-743.142	-36.348	0.159	0.112
-742.127	323.547	-0.243	0.611
-741.112	-24.104	-0.358	0.279
-740.098	-27.642	0.079	0.060
-739.083	121.146	-0.156	-0.255
-738.069	-146.174	0.059	-0.007
-737.054	205.305	-0.155	-0.316
-736.039	-61.155	-0.430	0.237
-735.025	-23.832	0.268	0.210
-734.010	800.000	0.125	0.609
-732.996	800.000	0.154	0.777
-731.981	-91.137	0.368	-0.138
-730.966	-200.000	-0.098	-0.584
-729.952	-99.447	0.189	0.062
-728.937	800.000	0.025	0.128
-727.923	-17.392	0.277	0.228
-726.908	-200.000	0.009	-0.179
-725.894	-161.750	-0.291	0.019
-724.879	-66.178	-0.243	0.126
-723.864	-63.378	-0.510	0.273
-722.850	36.158	0.148	0.171
-721.835	234.285	-0.079	0.170
-720.821	-62.913	0.347	0.187
-719.806	-60.253	-0.386	0.214
-718.791	30.592	-0.206	-0.230
-717.777	-0.733	-0.360	-0.333
-716.762	-122.973	-0.711	0.148
-715.748	632.992	-0.064	0.212
-714.733	-79.218	0.123	0.054
-713.718	-103.678	-0.299	-0.091
-712.704	-60.087	-0.110	-0.061
-711.689	-24.564	-0.100	-0.077
-710.675	-43.817	0.205	0.135
-709.660	293.242	0.175	-0.418
-708.645	-200.000	-0.010	0.427
-707.631	39.870	-0.151	-0.178
-706.616	-195.932	0.222	0.002
-705.602	-150.092	0.343	0.034
-704.587	692.083	0.173	-0.595
-703.572	800.000	-0.038	0.194
-702.558	-18.383	0.359	-0.293
-701.543	185.090	0.099	-0.193
-700.529	-200.000	-0.014	0.331
-699.514	-200.000	-0.020	0.601
-698.499	-65.468	-0.329	-0.172
-697.485	800.000	0.048	0.184
-696.470	800.000	-0.096	0.445
-695.456	151.557	-0.073	-0.131
-694.441	68.254	0.390	-0.523
-693.426	-55.610	-0.230	0.134
-692.412	-151.159	-0.591	0.057
-691.397	21.030	-0.083	-0.088
-690.383	68.909	-0.240	-0.322
-689.368	-130.045	-0.660	0.117
-688.354	17.012	0.182	0.188
-687.339	-200.000	-0.015	-0.239
-686.324	-200.000	0.415	0.002
-685.310	-79.354	0.146	0.064
-684.295	756.482	0.017	0.060
-683.281	59.501	0.210	-0.271
-682.266	-196.896	-0.340	0.003
-681.251	-26.507	0.175	-0.134
-680.237	-135.192	-0.506	-0.079
-679.222	495.582	0.127	0.385
-678.208	-61.638	-0.273	-0.149
-677.193	90.063	-0.065	0.095
-676.178	-158.014	-0.314	-0.024
-675.164	-48.424	-0.149	-0.094
-674.149	244.608	0.101	0.222
-673.135	422.037	-0.179	0.504
-672.120	263.633	0.137	0.312
-671.105	800.000	0.105	-0.539
-670.091	647.134	-0.107	-0.359
-669.076	-200.000	-0.003	-0.486
-668.062	-195.269	0.107	0.001
-667.047	-94.029	-0.269	-0.096
-666.032	54.143	-0.336	-0.422
-665.018	-35.023	0.210	-0.149
-664.003	443.263	-0.134	0.386
-662.989	-25.620	-0.592	-0.455
-661.974	128.357	-0.250	-0.417
-660.959	-200.000	0.002	0.425
-659.945	-26.070	-0.085	0.065
-658.930	76.436	0.012	-0.017
-657.916	-85.222	0.233	0.094
-656.901	-56.876	0.333	0.192
-655.886	-105.084	0.448	-0.133
-654.872	-130.871	0.109	-0.019
-653.857	42.678	0.201	0.238
-652.843	127.074	0.169	0.280
-651.828	-3.804	0.251	-0.227
-650.814	-68.949	-0.125	0.063
-649.799	-200.000	0.002	0.296
-648.784	265.936	0.115	-0.264
-647.770	-200.000	-0.017	-0.182
-646.755	190.765	-0.060	0.119
-645.741	214.448	-0.037	-0.076
-644.726	143.265	-0.254	-0.442
-643.711	98.793	-0.072	-0.108
-642.697	11.102	-0.056	0.056
-641.682	-200.000	-0.000	0.693
-640.668	39.064	0.333	0.388
-639.653	-200.000	0.013	0.393
-638.638	434.685	-0.066	-0.188
-637.624	-97.074	-0.200	-0.068
-636.609	-72.403	0.309	-0.148
-635.595	-89.062	0.248	-0.095
-634.580	164.603	-0.083	0.154
-633.565	-57.146	-0.205	-0.117
-632.551	-44.063	-0.446	-0.291
-631.536	73.400	-0.079	-0.109
-630.522	-200.000	0.078	0.638
-629.507	800.000	-0.150	-0.544
-628.492	63.892	0.028	0.037
-627.478	-35.534	-0.065	-0.046
-626.463	-52.787	0.587	0.352
-625.449	-69.544	-0.309	-0.154
-624.434	-87.093	0.173	0.068
-623.419	231.097	0.062	-0.133
-622.405	-109.123	-0.280	0.077
-621.390	72.818	-0.189	-0.258
-620.376	-147.136	0.195	-0.021
-619.361	-41.532	0.282	-0.189
-618.346	-74.037	-0.169	0.080
-617.332	-200.000	-0.030	-0.194
-616.317	287.061	0.182	-0.431
-615.303	-128.803	0.332	0.060
-614.288	71.809	0.402	0.545
-613.273	-105.275	-0.342	0.101
-612.259	-135.410	-0.118	-0.018
-611.244	-176.524	-0.406	0.013
-610.230	-102.721	0.167	-0.051
-609.215	-16.395	-0.253	0.209
-608.201	800.000	-0.143	0.621
-607.186	-77.068	-0.230	-0.104
-606.171	-72.379	-0.279	0.134
-605.157	-27.313	0.229	-0.174
-604.142	103.232	0.177	-0.271
-603.128	53.602	0.246	-0.308
-602.113	-200.000	-0.414	-0.001
-601.098	37.493	-0.185	-0.214
-600.084	-27.996	0.191	-0.143
-599.069	82.299	-0.055	-0.078
-598.055	-113.209	0.629	0.160
-597.040	800.000	0.063	0.239
-596.025	211.588	0.265	-0.545
-595.011	-26.394	-0.110	-0.084
-593.996	-40.734	0.170	0.114
-592.982	-4.896	-0.286	-0.256
-591.967	-11.153	0.151	-0.129
-590.952	800.000	0.128	-0.662
-589.938	800.000	-0.048	0.260
-588.923	-75.523	0.294	0.135
-587.909	-106.563	-0.085	0.025
-586.894	-86.964	0.182	0.072
-585.879	-97.498	-0.776	-0.261
-584.865	-200.000	-0.024	-0.162
-583.850	114.904	-0.180	-0.286
-582.836	-47.676	0.279	-0.175
-581.821	-56.853	-0.259	0.149
-580.806	-75.558	-0.146	-0.067
-579.792	-137.159	-0.211	0.031
-578.777	-128.918	0.187	0.034
-577.763	416.544	-0.112	-0.311
-576.748	-200.000	-0.002	0.210
-575.733	-200.000	0.004	0.264
-574.719	16.583	0.054	-0.055
-573.704	-200.000	0.035	-0.725
-572.690	-200.000	0.018	-0.182
-571.675	215.717	0.098	0.203
-570.661	-83.184	0.381	0.158
-569.646	-55.493	0.152	0.088
-568.631	-86.616	0.332	0.132
-567.617	405.142	0.085	0.235
-566.602	-182.596	-0.126	-0.003
-565.588	86.430	-0.293	-0.420
-564.573	-108.068	-0.388	0.109
-563.558	-22.584	0.420	-0.330
-562.544	-200.000	-0.024	-0.194
-561.529	800.000	-0.033	0.119
-560.515	194.358	-0.151	0.299
-559.500	128.862	0.271	-0.450
-558.485	-200.000	-0.003	-0.126
-557.471	75.775	-0.234	-0.322
-556.456	63.058	0.299	-0.389
-555.442	-80.779	0.470	0.202
-554.427	111.251	0.257	0.403
-553.412	134.374	0.191	0.323
-552.398	-20.586	-0.246	-0.196
-551.383	-153.483	0.276	-0.025
-550.369	116.574	-0.175	0.280
-549.354	800.000	0.084	0.465
-548.339	12.415	0.211	0.212
-547.325	-153.727	0.385	0.034
-546.310	-78.553	0.053	-0.024
-545.296	-18.566	0.177	-0.143
-544.281	800.000	-0.035	0.164
-543.266	738.604	0.088	-0.308
-542.252	-200.000	-0.020	0.247
-541.237	-71.520	-0.589	0.285
-540.223	99.974	0.057	-0.086
-539.208	-104.057	0.776	-0.233
-538.193	-53.024	-0.455	-0.271
-537.179	-69.550	-0.157	-0.078
-536.164	-169.184	-0.406	-0.019
-535.150	-200.000	-0.035	-0.492
-534.135	-43.952	0.419	-0.273
-533.121	-130.735	-0.201	-0.035
-532.106	-167.161	-0.329	-0.017
-531.091	514.211	0.122	0.373
-530.077	201.720	-0.127	0.256
-529.062	124.173	-0.375	0.613
-528.048	-151.048	-0.254	-0.025
-527.033	-117.357	-0.271	-0.063
-526.018	-89.139	-0.304	0.116
-525.004	408.077	-0.093	-0.258
-523.989	470.072	-0.090	-0.265
-522.975	-12.327	-0.201	0.170
-521.960	15.702	-0.471	0.481
-520.945	-53.399	-0.356	0.211
-519.931	-44.894	0.281	0.181
-518.916	-200.000	0.007	-0.244
-517.902	-36.259	0.401	0.280
-516.887	-78.699	-0.285	-0.126
-515.872	448.688	-0.042	-0.120
-514.858	-163.750	-0.472	0.028
-513.843	-126.209	-0.316	-0.061
-512.829	6.787	0.246	-0.238
-511.814	-168.128	0.283	0.014
-510.799	-200.000	0.073	0.802
-509.785	800.000	0.087	0.457
-508.770	-90.144	0.310	0.116
-507.756	235.806	-0.230	0.494
-506.741	128.198	0.268	-0.443
-505.726	-56.122	0.673	-0.387
-504.712	244.918	0.220	-0.481
-503.697	-136.809	0.605	-0.089
-502.683	-8.385	0.187	0.163
-501.668	-0.243	0.072	0.067
-500.653	33.739	-0.059	0.067
-499.639	214.570	0.130	-0.269
-498.624	-83.510	-0.335	0.138
-497.610	64.772	0.131	0.171
-496.595	390.122	-0.061	-0.164
-495.581	-18.211	0.089	-0.072
-494.566	-83.444	-0.461	0.191
-493.551	-200.000	0.004	-0.084
-492.537	-200.000	-0.026	-0.336
-491.522	296.432	-0.046	-0.111
-490.508	30.069	0.275	0.304
-489.493	-171.814	0.277	0.012
-488.478	294.209	0.125	0.298
-487.464	75.265	0.277	-0.379
-486.449	-122.516	-0.264	-0.055
-485.435	-140.315	0.425	0.057
-484.420	-14.545	-0.252	-0.210
-483.405	322.466	-0.141	-0.350
-482.391	130.152	-0.103	0.171
-481.376	101.681	-0.305	0.461
-480.362	237.666	0.048	0.104
-479.347	659.178	-0.155	-0.519
-478.332	-200.000	-0.008	-0.264
-477.318	-104.968	-0.225	0.066
-476.303	-27.264	0.112	0.084
-475.289	198.437	0.201	0.399
-474.274	180.306	-0.026	-0.050
-473.259	215.208	0.157	0.324
-472.245	800.000	-0.106	0.439
-471.230	-114.683	-0.530	0.130
-470.216	-190.404	0.586	-0.008
-469.201	-15.878	0.490	-0.404
-468.186	-200.000	-0.072	-0.521
-467.172	-200.000	-0.052	-0.402
-466.157	800.000	0.056	-0.286
-465.143	-82.353	0.168	-0.070
-464.128	-76.391	-0.525	-0.238
-463.113	-51.968	-0.216	-0.130
-462.099	-44.777	0.332	0.214
-461.084	402.905	-0.058	-0.159
-460.070	183.859	0.224	-0.430
-459.055	150.844	-0.155	-0.273
-458.040	-130.319	-0.072	-0.013
-457.026	-197.408	-0.442	0.003
-456.011	-62.482	0.226	-0.121
-454.997	-173.525	0.268	0.010
-453.982	-159.319	0.046	-0.003
-452.968	-200.000	-0.051	-0.322
-451.953	237.737	-0.290	-0.626
-450.938	-2.111	0.131	-0.119
-449.924	-53.633	0.356	-0.210
-448.909	202.605	-0.158	0.317
-447.895	136.750	0.175	-0.297
-446.880	-200.000	0.013	0.312
-445.865	-25.647	-0.106	0.081
-444.851	372.911	-0.091	0.240
-443.836	-41.989	-0.109	0.072
-442.822	-36.882	0.242	0.168
-441.807	84.104	-0.103	-0.146
-440.792	-128.528	0.456	-0.083
-439.778	-200.000	-0.019	0.274
-438.763	-97.039	0.181	0.061
-437.749	-47.473	0.099	0.062
-436.734	-76.014	0.443	0.202
-435.719	520.383	-0.027	-0.083
-434.705	0.532	0.084	-0.078
-433.690	4.564	0.366	-0.347
-432.676	202.725	0.138	-0.276
-431.661	70.020	0.120	-0.160
-430.646	-82.310	-0.348	-0.146
-429.632	363.972	-0.018	-0.046
-428.617	-164.331	-0.128	0.007
-427.603	-18.935	-0.142	0.114
-426.588	-66.367	0.153	0.079
-425.573	302.265	0.097	-0.233
-424.559	-145.173	-0.247	0.029
-423.544	-198.806	0.073	-0.001
-422.530	71.120	-0.301	-0.404
-421.515	-43.929	-0.373	-0.242
-420.500	-117.570	-0.361	-0.084
-419.486	-74.933	0.292	-0.135
-418.471	76.447	-0.136	-0.187
-417.457	6.310	-0.184	0.177
-416.442	-200.000	-0.006	0.224
-415.428	-145.699	-0.166	-0.019
-414.413	108.113	0.085	0.131
-413.398	-53.701	0.112	0.066
-412.384	310.984	-0.089	-0.217
-411.369	-65.314	0.236	-0.122
-410.355	57.039	-0.167	0.211
-409.340	-200.000	-0.004	0.190
-408.325	-56.830	-0.193	0.110
-407.311	800.000	-0.081	-0.382
-406.296	108.555	0.146	0.226
-405.282	-62.263	-0.219	0.118
-404.267	-125.097	-0.157	-0.031
-403.252	-109.747	-0.811	0.219
-402.238	-91.939	-0.343	0.125
-401.223	33.643	0.330	0.370
-400.209	372.256	0.145	-0.382
-399.194	166.773	-0.243	0.446
-398.179	-109.493	-0.673	-0.182
-397.165	-77.576	-0.266	0.119
-396.150	-47.579	0.303	0.190
-395.136	88.262	-0.061	-0.088
-394.121	-67.204	-0.430	-0.218
-393.106	-200.000	-0.019	0.156
-392.092	-8.546	-0.150	-0.130
-391.077	-74.261	0.426	0.198
-390.063	-200.000	0.019	-0.354
-389.048	-90.944	-0.301	0.111
-388.033	374.840	0.104	-0.275
-387.019	67.885	-0.307	-0.405
-386.004	-200.000	0.015	-0.388
-384.990	-200.000	0.023	-0.237
-383.975	800.000	-0.031	-0.164
-382.960	46.682	-0.139	0.166
-381.946	58.478	0.272	0.344
-380.931	-28.080	0.259	-0.193
-379.917	-110.025	0.454	-0.122
-378.902	129.716	0.113	0.187
-377.888	-200.000	0.053	-0.345
-376.873	220.492	0.206	0.428
-375.858	-200.000	0.007	-0.162
-374.844	-122.581	-0.092	0.019
-373.829	-21.283	0.395	-0.311
-372.815	-46.955	-0.302	-0.190
-371.800	-138.006	0.049	0.007
-370.785	-63.703	0.135	-0.071
-369.771	800.000	-0.115	-0.442
-368.756	-37.987	0.329	-0.225
-367.742	20.162	-0.200	0.208
-366.727	99.606	-0.345	-0.516
-365.712	-88.800	0.738	-0.281
-364.698	371.759	0.209	-0.549
-363.683	14.824	0.278	0.280
-362.669	-20.228	0.448	-0.355
-361.654	-96.314	-0.249	0.085
-360.639	-177.135	-0.334	-0.011
-359.625	-58.609	0.054	-0.030
-358.610	-10.961	-0.304	-0.258
-357.596	-75.064	-0.396	0.182
-356.581	-91.035	-0.082	-0.030
-355.566	-100.141	0.424	0.135
-354.552	800.000	-0.053	-0.274
-353.537	27.317	0.199	-0.216
-352.523	-100.574	0.385	0.122
-351.508	137.315	-0.199	0.337
-350.493	-125.486	-0.251	-0.049
-349.479	3.532	-0.176	0.166
-348.464	-151.271	-0.142	-0.014
-347.450	222.858	0.084	0.175
-346.435	-91.297	-0.507	-0.186
-345.420	-119.190	-0.085	-0.019
-344.406	-200.000	0.012	-0.193
-343.391	161.133	0.342	-0.617
-342.377	-71.092	-0.133	0.064
-341.362	-143.074	0.340	-0.042
-340.348	-51.387	-0.145	-0.087
-339.333	-122.198	-0.039	0.008
-338.318	-91.956	-0.475	-0.172
-337.304	-200.000	0.002	-0.198
-336.289	35.959	-0.061	0.069
-335.275	799.979	-0.124	0.445
-334.260	2.499	-0.104	-0.097
-333.245	-70.555	0.472	-0.229
-332.231	-200.000	0.073	0.481
-331.216	-200.000	0.041	0.613
-330.202	-12.855	0.094	-0.079
-329.187	-131.678	0.111	0.019
-328.172	42.317	0.215	-0.252
-327.158	-6.459	-0.289	-0.253
-326.143	370.281	-0.137	-0.360
-325.129	59.729	-0.254	-0.323
-324.114	-174.310	-0.365	-0.013
-323.099	242.326	-0.045	-0.097
-322.085	-110.543	0.164	-0.043
-321.070	484.991	-0.086	-0.252
-320.056	-13.575	-0.053	0.044
-319.041	-2.789	0.253	0.227
-318.026	-4.642	0.438	-0.389
-317.012	8.096	0.350	0.338
-315.997	-68.814	-0.221	0.110
-314.983	-31.803	-0.200	0.144
-313.968	92.898	0.216	0.315
-312.953	24.058	0.184	0.195
-311.939	49.775	0.127	-0.154
-310.924	-200.000	-0.056	0.341
-309.910	250.633	0.295	0.648
-308.895	-200.000	-0.039	0.397
-307.880	800.000	-0.105	0.580
-306.866	341.996	-0.175	-0.442
-305.851	621.755	0.105	0.341
-304.837	-38.016	-0.543	0.370
-303.822	-154.323	-0.075	0.006
-302.807	33.469	-0.136	-0.152
-301.793	-115.698	0.266	-0.064
-300.778	-200.000	0.010	-0.156
-299.764	13.425	-0.351	0.350
-298.749	-6.148	-0.265	0.233
-297.735	283.293	0.012	-0.028
-296.720	290.444	-0.125	-0.292
-295.705	-30.255	0.303	-0.221
-294.691	-200.000	0.061	0.508
-293.676	-134.265	0.188	-0.029
-292.662	-28.276	0.103	0.076
-291.647	353.075	0.086	-0.220
-290.632	-23.494	-0.293	0.226
-289.618	-200.000	-0.018	0.218
-288.603	-7.682	0.273	-0.237
-287.589	127.903	-0.182	0.297
-286.574	-141.897	-0.270	-0.034
-285.559	101.273	0.301	0.451
-284.545	-12.574	0.103	0.087
-283.530	-103.104	0.551	-0.167
-282.516	-73.859	0.445	0.207
-281.501	203.555	-0.202	0.403
-280.486	373.638	0.108	0.283
-279.472	202.948	0.169	0.337
-278.457	800.000	0.112	-0.410
-277.443	-57.697	0.358	0.201
-276.428	-200.000	0.002	-0.044
-275.413	-200.000	0.019	0.166
-274.399	-35.310	0.106	-0.074
-273.384	-70.086	-0.283	0.138
-272.370	-187.998	-0.251	-0.004
-271.355	18.902	0.084	-0.086
-270.340	-44.356	0.368	-0.236
-269.326	28.519	-0.250	-0.272
-268.311	-68.487	0.260	-0.129
-267.297	119.884	0.136	-0.217
-266.282	-105.347	0.453	-0.132
-265.267	-200.000	-0.040	0.367
-264.253	800.000	0.094	-0.431
-263.238	-39.444	0.256	0.172
-262.224	800.000	0.108	0.406
-261.209	-16.100	-0.105	0.085
-260.195	134.813	0.129	0.215
-259.180	70.063	-0.244	0.324
-258.165	-37.441	0.190	0.130
-257.151	241.155	0.176	0.379
-256.136	-200.000	0.041	0.345
-255.122	-56.648	-0.639	-0.362
-254.107	-115.400	0.405	-0.097
-253.092	84.503	-0.098	-0.137
-252.078	-200.000	0.002	0.334
-251.063	741.271	0.097	-0.337
-250.049	-65.142	0.237	-0.122
-249.034	-78.592	0.150	-0.066
-248.019	-200.000	-0.005	-0.314
-247.005	-200.000	0.001	-0.090
-245.990	-159.243	0.114	0.008
-244.976	-74.339	0.017	-0.008
-243.961	-15.245	-0.186	0.153
-242.946	-109.787	0.218	-0.058
-241.932	-56.904	0.303	0.171
-240.917	-200.000	0.009	0.167
-239.903	210.518	-0.059	-0.119
-238.888	627.307	-0.068	0.221
-237.873	-103.557	-0.161	-0.048
-236.859	-116.534	-0.407	0.096
-235.844	92.230	-0.237	0.344
-234.830	-200.000	0.020	-0.594
-233.815	-3.746	0.071	-0.063
-232.800	-29.786	-0.163	0.119
-231.786	368.155	0.169	0.441
-230.771	-200.000	0.004	0.179
-229.757	-52.114	-0.377	0.224
-228.742	-107.220	-0.231	0.065
-227.727	30.354	-0.337	0.369
-226.713	411.720	0.222	0.608
-225.698	800.000	0.071	-0.265
-224.684	-13.420	0.304	0.253
-223.669	-112.572	0.358	-0.091
-222.655	-44.959	0.218	0.139
-221.640	-200.000	0.035	0.500
-220.625	492.835	-0.164	-0.485
-219.611	365.882	-0.191	-0.495
-218.596	667.364	0.081	-0.270
-217.582	42.219	-0.274	0.320
-216.567	-57.480	0.109	0.061
-215.552	800.000	-0.042	0.162
-214.538	800.000	-0.011	-0.041
-213.523	4.443	-0.178	0.167
-212.509	-46.865	-0.480	-0.300
-211.494	119.211	-0.249	0.396
-210.479	-34.461	0.202	0.141
-209.465	673.524	-0.037	-0.123
-208.450	-200.000	-0.035	0.331
-207.436	-123.099	-0.154	0.031
-206.421	-38.929	0.184	-0.124
-205.406	-41.375	-0.034	0.022
-204.392	76.221	0.026	-0.036
-203.377	-32.095	0.160	-0.114
-202.363	-141.026	0.108	-0.014
-201.348	-6.531	0.190	0.166
-200.333	-200.000	0.007	0.221
-199.319	-188.848	0.429	-0.007
-198.304	-79.401	-0.145	-0.063
-197.290	-21.090	0.335	0.262
-196.275	-191.536	0.458	0.006
-195.260	114.759	0.190	0.298
-194.246	800.000	-0.106	0.534
-193.231	-119.797	-0.278	0.061
-192.217	259.561	0.048	0.106
-191.202	117.103	0.174	0.274
-190.187	-200.000	0.069	0.415
-189.173	-145.399	-0.412	-0.047
-188.158	-79.551	-0.392	0.169
-187.144	-133.678	-0.331	-0.053
-186.129	463.853	0.092	0.264
-185.114	-0.076	-0.287	-0.261
-184.100	-50.388	-0.201	-0.121
-183.085	-10.005	-0.072	-0.061
-182.071	477.050	-0.087	0.255
-181.056	73.644	-0.186	-0.250
-180.042	359.535	0.059	0.153
-179.027	-200.000	-0.064	0.517
-178.012	758.646	-0.092	0.321
-176.998	231.046	0.031	-0.064
-175.983	11.683	0.131	0.129
-174.969	52.568	-0.131	-0.160
-173.954	-120.112	0.228	-0.050
-172.939	261.285	-0.256	0.569
-171.925	145.121	-0.152	-0.261
-170.910	30.849	0.289	0.317
-169.896	-200.000	-0.052	0.361
-168.881	548.788	-0.131	-0.405
-167.866	800.000	0.021	-0.109
-166.852	17.857	-0.137	0.140
-165.837	273.424	0.104	0.236
-164.823	-3.933	0.162	-0.143
-163.808	110.539	0.234	-0.361
-162.793	-116.552	-0.477	-0.112
-161.779	-64.171	-0.406	-0.211
-160.764	317.372	0.157	-0.382
-159.750	198.246	-0.196	-0.384
-158.735	-50.857	-0.279	-0.167
-157.720	210.324	-0.055	-0.110
-156.706	112.267	0.129	0.199
-155.691	-200.000	0.007	0.054
-154.677	251.547	-0.096	-0.210
-153.662	-64.877	0.593	-0.306
-152.647	147.184	-0.140	0.242
-151.633	-118.131	-0.455	0.103
-150.618	675.367	-0.193	0.644
-149.604	-91.843	0.498	-0.180
-148.589	679.480	-0.091	0.304
-147.574	800.000	0.055	-0.287
-146.560	-166.513	-0.284	-0.015
-145.545	-64.727	-0.156	0.080
-144.531	-49.882	-0.297	-0.179
-143.516	86.859	-0.064	0.091
-142.502	-64.755	-0.278	-0.143
-141.487	-50.771	-0.125	0.075
-140.472	800.000	0.071	-0.392
-139.458	-55.933	-0.131	-0.074
-138.443	-115.012	-0.397	-0.096
-137.429	414.996	0.147	0.402
-136.414	28.109	0.291	0.314
-135.399	304.529	-0.153	0.365
-134.385	-48.100	-0.262	0.161
-133.370	731.934	-0.068	0.235
-132.356	344.634	-0.058	-0.147
-131.341	218.605	0.091	0.186
-130.326	219.161	0.154	0.317
-129.312	800.000	-0.047	-0.173
-128.297	47.664	0.283	-0.338
-127.283	-25.862	0.280	-0.211
-126.268	613.988	-0.102	0.330
-125.253	-200.000	-0.015	0.197
-124.239	327.829	-0.168	-0.414
-123.224	-125.361	-0.261	-0.050
-122.210	-144.515	0.396	-0.046
-121.195	325.342	0.095	-0.232
-120.180	-108.051	0.310	-0.085
-119.166	610.291	-0.031	-0.098
-118.151	-74.883	-0.325	-0.148
-117.137	-112.926	0.249	-0.062
-116.122	219.881	0.161	0.331
-115.107	253.902	-0.169	0.370
-114.093	-200.000	0.032	0.180
-113.078	6.998	0.252	0.240
-112.064	268.603	-0.013	-0.030
-111.049	-143.535	-0.363	-0.044
-110.034	168.624	0.081	0.148
-109.020	-127.574	-0.404	0.074
-108.005	446.907	-0.202	0.570
-106.991	-6.746	0.239	0.208
-105.976	-200.000	-0.112	0.660
-104.962	92.122	-0.224	0.323
-103.947	-100.099	-0.098	-0.031
-102.932	-7.208	0.055	0.048
-101.918	800.000	-0.060	0.291
-100.903	800.000	-0.019	0.084
-99.889	266.381	-0.100	0.224
-98.874	-131.309	-0.161	0.027
-97.859	-122.069	-0.181	0.038
-96.845	-85.835	0.125	0.049
-95.830	560.427	0.113	0.349
-94.816	-91.172	0.197	0.072
-93.801	328.075	0.124	0.304
-92.786	539.139	-0.060	-0.183
-91.772	-50.391	0.392	0.236
-90.757	-96.733	-0.306	-0.102
-89.743	800.000	-0.042	-0.216
-88.728	376.515	0.085	0.222
-87.713	-75.853	-0.051	0.023
-86.699	-93.823	0.530	0.185
-85.684	259.712	0.118	-0.261
-84.670	14.940	0.191	-0.191
-83.655	-12.743	-0.191	-0.159
-82.640	-200.000	0.014	-0.157
-81.626	-3.954	0.253	0.224
-80.611	411.659	-0.110	0.299
-79.597	-151.741	0.298	-0.028
-78.582	86.437	0.197	0.277
-77.567	-132.317	0.268	-0.044
-76.553	153.012	-0.336	0.587
-75.538	226.395	-0.081	0.167
-74.524	800.000	-0.053	0.270
-73.509	-138.037	0.144	-0.020
-72.494	-200.000	-0.001	0.155
-71.480	748.567	0.063	0.219
-70.465	-6.850	0.225	-0.195
-69.451	-84.532	0.314	0.126
-68.436	71.862	-0.231	0.307
-67.422	-200.000	-0.006	0.339
-66.407	152.882	0.110	0.192
-65.392	-13.973	-0.266	0.219
-64.378	800.000	0.124	-0.520
-63.363	-95.412	0.197	-0.067
-62.349	253.013	0.270	0.590
-61.334	20.888	-2.115	-2.184
-60.319	-46.228	1.689	1.056
-59.305	184.253	-3.626	-6.864
-58.290	66.409	3.677	4.768
-57.276	439.969	4.003	11.204
-56.261	-200.000	19.725	278.392
-55.246	395.559	1244.252	3324.050
-54.232	58.926	2812.265	3527.089
-53.217	67.962	2670.909	3485.638
-52.203	32.610	2403.026	2648.150
-51.188	31.333	2061.164	2255.840
-50.173	27.896	1941.142	2085.031
-49.159	26.446	1931.210	2057.713
-48.144	26.015	1926.500	2047.695
-47.130	25.797	1924.632	2043.139
-46.115	25.849	1922.123	2040.986
-45.100	25.761	1920.684	2038.380
-44.086	25.802	1919.877	2037.908
-43.071	25.768	1918.252	2035.721
-42.057	25.776	1916.995	2034.390
-41.042	25.732	1916.072	2032.836
-40.027	25.783	1914.391	2031.543
-39.013	25.767	1912.406	2029.178
-37.998	25.682	1911.948	2027.653
-36.984	25.729	1909.975	2026.008
-35.969	25.807	1907.720	2024.418
-34.954	25.647	1907.411	2022.201
-33.940	25.778	1905.839	2021.930
-32.925	25.678	1904.561	2019.375
-31.911	25.596	1903.610	2017.354
-30.896	25.474	1903.049	2015.309
-29.881	25.576	1901.055	2014.264
-28.867	25.635	1899.494	2013.191
-27.852	25.688	1897.808	2011.920
-26.838	25.567	1897.132	2009.768
-25.823	25.632	1894.761	2007.909
-24.809	25.522	1894.191	2005.982
-23.794	25.569	1892.727	2004.883
-22.779	25.537	1891.428	2003.074
-21.765	25.567	1890.881	2002.743
-20.750	25.475	1888.893	1999.531
-19.736	25.520	1887.589	1998.572
-18.721	25.460	1887.078	1997.286
-17.706	25.451	1885.687	1995.630
-16.692	25.438	1884.982	1994.659
-15.677	25.357	1884.717	1993.401
-14.663	25.519	1882.194	1992.462
-13.648	25.462	1881.266	1990.761
-12.633	25.288	1879.744	1987.141
-11.619	25.522	1878.615	1988.462
-10.604	25.501	1877.181	1986.631
-9.590	25.411	1876.143	1984.454
-8.575	25.407	1874.707	1982.817
-7.560	25.348	1874.027	1981.368
-6.546	25.285	1873.207	1979.716
-5.531	25.383	1871.752	1979.185
-4.517	25.324	1870.652	1977.293
-3.502	25.450	1869.558	1977.459
-2.487	25.468	1868.121	1976.050
-1.473	25.665	1864.611	1974.435
-0.458	25.745	1847.949	1957.585
0.556	23.000	1994.128	2067.862
1.571	22.425	2202.439	2276.129
2.586	23.653	2243.715	2334.748
3.600	23.670	2246.637	2337.732
4.615	23.652	2246.370	2336.939
5.629	23.750	2243.798	2335.282
6.644	23.758	2241.569	2332.784
7.659	23.776	2239.962	2331.079
8.673	23.816	2238.033	2329.309
9.688	23.483	2245.253	2332.143
10.702	21.801	2322.045	2388.604
11.717	20.001	2386.853	2429.615
12.731	10.072	2362.250	2265.067
13.746	1.667	2338.292	2124.277
14.761	0.372	2334.558	2102.479
15.775	0.175	2333.805	2098.787
16.790	0.176	2331.627	2096.599
17.804	0.139	2329.736	2094.133
18.819	0.207	2328.902	2094.080
19.834	0.031	2327.858	2090.424
20.848	0.108	2325.877	2089.482
21.863	0.188	2323.927	2088.586
22.877	0.067	2322.626	2085.483
23.892	0.101	2320.823	2084.094
24.907	0.173	2316.971	2081.385
25.921	0.098	2315.973	2079.197
26.936	0.086	2313.547	2076.604
27.950	0.105	2310.958	2074.295
28.965	0.172	2309.198	2073.387
29.980	0.115	2307.989	2071.271
30.994	0.281	2305.718	2071.282
32.009	5.291	2321.768	2155.033
33.023	17.800	2359.768	2365.377
34.038	23.994	2372.094	2463.940
35.053	25.014	2373.147	2478.934
36.067	25.054	2370.490	2476.413
37.082	25.047	2368.298	2473.726
38.096	24.866	2365.957	2468.484
39.111	24.919	2362.836	2465.659
40.126	24.860	2362.169	2463.852
41.140	25.136	2359.549	2464.636
42.155	24.709	2357.258	2456.052
43.169	24.585	2356.324	2453.078
44.184	25.097	2354.640	2458.094
45.199	25.021	2351.900	2453.887
46.213	24.841	2350.289	2449.442
47.228	24.650	2349.375	2445.565
48.242	24.733	2346.949	2443.893
49.257	24.922	2344.117	2443.247
50.271	24.756	2342.260	2438.743
51.286	24.853	2340.541	2437.978
52.301	24.795	2338.658	2434.942
53.315	23.964	2336.096	2420.623
54.330	22.839	2330.610	2399.286
55.344	22.271	2326.299	2386.820
56.359	22.282	2322.559	2382.838
57.374	22.208	2320.703	2379.652
58.388	22.250	2318.246	2377.411
59.403	22.420	2316.211	2377.345
60.417	22.706	2313.963	2378.634
61.432	22.764	2313.691	2378.854
62.447	22.787	2311.496	2376.633
63.461	22.774	2309.022	2373.618
64.476	22.820	2306.988	2371.866
65.490	23.244	2306.861	2377.173
66.505	23.530	2307.872	2381.792
67.520	23.861	2308.853	2386.994
68.534	24.238	2305.848	2388.675
69.549	24.672	2303.988	2392.308
70.563	24.798	2302.664	2392.333
71.578	24.655	2300.962	2388.364
72.593	24.845	2298.981	2388.570
73.607	25.162	2297.435	2390.924
74.622	25.181	2296.898	2390.331
75.636	25.025	2293.524	2384.448
76.651	24.745	2290.714	2377.507
77.666	24.838	2288.978	2376.659
78.680	24.869	2286.523	2374.238
79.695	24.768	2284.769	2370.795
80.709	24.868	2283.799	2370.832
81.724	25.102	2282.287	2372.084
82.739	24.950	2279.873	2367.283
83.753	24.905	2277.261	2363.690
84.768	24.925	2275.500	2361.844
85.782	25.038	2274.807	2362.332
86.797	25.204	2271.721	2361.050
87.812	24.805	2270.576	2354.294
88.826	24.671	2268.537	2350.124
89.841	24.990	2267.353	2352.829
90.855	25.436	2265.960	2356.988
91.870	25.040	2263.363	2348.790
92.884	24.690	2260.081	2340.492
93.899	24.740	2259.733	2340.509
94.914	24.482	2257.924	2334.967
95.928	23.521	2254.561	2318.590
96.943	23.177	2251.488	2310.635
97.957	24.049	2251.683	2321.999
98.972	24.613	2250.714	2328.115
99.987	24.320	2247.424	2320.595
101.001	24.202	2244.870	2316.136
102.016	24.473	2242.776	2317.237
103.030	24.675	2240.723	2317.476
104.045	24.939	2240.567	2320.478
105.060	25.263	2239.214	2323.011
106.074	24.974	2236.564	2316.229
107.089	24.449	2233.914	2306.386
108.103	24.856	2233.686	2311.158
109.118	24.997	2232.389	2311.370
110.133	24.890	2230.852	2308.119
111.147	25.147	2228.718	2308.959
112.162	25.293	2227.353	2309.165
113.176	24.933	2223.245	2299.976
114.191	24.853	2221.577	2296.949
115.206	24.887	2220.215	2295.694
116.220	24.892	2218.604	2293.821
117.235	24.687	2216.862	2289.116
118.249	24.613	2214.445	2285.392
119.264	24.796	2213.560	2286.558
120.279	25.015	2212.472	2287.967
121.293	24.829	2209.746	2282.489
122.308	24.759	2208.352	2279.878
123.322	24.723	2206.065	2276.784
124.337	24.126	2203.151	2265.878
125.352	23.371	2201.573	2254.329
126.366	23.405	2199.582	2252.455
127.381	23.879	2198.453	2257.072
128.395	24.149	2196.742	2258.493
129.410	24.599	2195.831	2263.022
130.424	24.890	2194.534	2265.109
131.439	24.625	2191.990	2258.848
132.454	24.635	2190.711	2257.385
133.468	24.856	2188.934	2258.091
134.483	24.725	2186.472	2253.622
135.497	24.418	2184.669	2247.610
136.512	24.605	2181.851	2246.799
137.527	24.629	2181.053	2246.012
138.541	24.618	2181.215	2245.766
139.556	24.559	2179.217	2242.705
140.570	24.637	2176.981	2241.108
141.585	24.659	2175.114	2239.195
142.600	24.768	2174.518	2239.693
143.614	24.657	2173.909	2237.395
144.629	25.093	2172.001	2240.649
145.643	24.661	2169.642	2232.529
146.658	24.559	2167.805	2229.090
147.673	24.660	2165.607	2227.822
148.687	24.720	2164.412	2227.079
149.702	24.619	2162.391	2223.464
150.716	24.351	2162.192	2219.649
151.731	24.877	2162.596	2226.380
152.746	25.624	2162.419	2235.261
153.760	24.773	2158.512	2220.340
154.775	23.353	2152.940	2196.656
155.789	22.617	2150.192	2184.425
156.804	23.564	2149.657	2195.413
157.819	24.276	2149.692	2204.028
158.833	24.587	2147.222	2205.093
159.848	24.657	2145.036	2203.453
160.862	25.080	2144.848	2208.234
161.877	25.170	2145.003	2209.241
162.892	25.015	2143.378	2205.395
163.906	25.165	2141.097	2204.636
164.921	25.053	2139.407	2201.244
165.935	25.021	2137.015	2198.134
166.950	24.811	2134.989	2193.193
167.964	24.632	2132.265	2187.929
168.979	24.411	2130.795	2183.443
169.994	24.717	2129.801	2185.919
171.008	25.039	2128.530	2188.312
172.023	24.746	2126.891	2182.772
173.037	24.698	2126.129	2181.133
174.052	24.805	2123.062	2179.039
175.067	24.420	2120.469	2171.408
176.081	24.334	2119.495	2169.103
177.096	24.771	2118.435	2173.094
178.110	24.492	2116.666	2167.612
179.125	24.318	2115.779	2164.330
180.140	24.598	2113.587	2165.234
181.154	24.563	2111.892	2162.811
182.169	24.324	2110.729	2158.455
183.183	23.939	2108.462	2151.207
184.198	22.914	2104.065	2134.018
185.213	22.663	2102.984	2129.622
186.227	23.801	2104.080	2144.289
187.242	24.387	2103.967	2151.020
188.256	24.686	2103.659	2154.067
189.271	25.331	2103.634	2161.586
190.286	25.381	2101.529	2159.771
191.300	24.822	2097.156	2148.278
192.315	24.587	2095.426	2143.412
193.329	24.668	2093.958	2142.628
194.344	24.827	2093.361	2143.674
195.359	24.820	2092.453	2142.403
196.373	25.250	2090.982	2145.814
197.388	25.155	2089.238	2142.631
198.402	24.797	2084.898	2133.629
199.417	24.746	2083.097	2130.924
200.432	24.873	2082.678	2131.759
201.446	25.078	2082.328	2133.600
202.461	25.283	2081.008	2134.443
203.475	25.163	2077.660	2129.322
204.490	24.952	2076.414	2125.273
205.504	24.821	2074.074	2121.058
206.519	24.613	2071.140	2115.334
207.534	24.630	2068.542	2112.625
208.548	24.501	2068.958	2111.266
209.563	24.503	2066.869	2108.908
210.577	24.326	2065.181	2104.829
211.592	24.528	2064.742	2106.522
212.607	24.170	2062.159	2099.399
213.621	22.698	2057.814	2077.318
214.636	22.675	2057.085	2076.062
215.650	24.095	2058.583	2094.120
216.665	24.646	2057.143	2098.914
217.680	24.877	2056.274	2100.491
218.694	25.096	2055.295	2101.824
219.709	24.696	2053.581	2095.113
220.723	24.785	2051.723	2094.013
221.738	24.861	2050.666	2093.571
222.753	24.850	2048.260	2090.743
223.767	24.865	2046.940	2089.321
224.782	24.544	2044.400	2082.709
225.796	24.394	2043.179	2079.470
226.811	24.577	2041.610	2079.759
227.826	24.934	2040.757	2082.814
228.840	25.196	2039.528	2084.373
229.855	24.845	2038.116	2078.581
230.869	24.683	2036.096	2074.383
231.884	24.726	2034.495	2073.010
232.899	24.588	2033.011	2069.642
233.913	24.633	2031.776	2068.660
234.928	24.756	2030.818	2068.863
235.942	24.895	2028.695	2068.074
236.957	24.870	2027.340	2066.150
237.972	24.932	2027.069	2066.348
238.986	25.227	2026.824	2069.271
240.001	24.987	2024.527	2063.901
241.015	24.509	2021.040	2054.571
242.030	24.313	2019.387	2050.376
243.045	23.322	2015.980	2035.240
244.059	23.111	2014.640	2031.207
245.074	24.286	2014.467	2044.341
246.088	24.793	2012.099	2047.527
247.103	24.665	2010.532	2044.215
248.117	24.738	2009.607	2043.865
249.132	25.064	2009.379	2047.132
250.147	24.839	2006.478	2041.350
251.161	24.456	2003.438	2033.632
252.176	24.182	2003.297	2030.106
253.190	24.070	1999.900	2025.140
254.205	23.746	1997.043	2018.301
255.220	23.906	1996.111	2018.951
256.234	23.742	1995.285	2016.003
257.249	23.833	1993.505	2014.994
258.263	23.763	1993.063	2013.507
259.278	23.809	1991.417	2012.128
260.293	23.726	1989.840	2009.358
261.307	24.149	1989.146	2013.216
262.322	24.413	1989.198	2016.024
263.336	24.391	1986.937	2013.241
264.351	24.446	1984.731	2011.396
265.366	24.642	1983.964	2012.597
266.380	24.634	1982.663	2010.937
267.395	24.466	1980.623	2006.736
268.409	24.487	1979.030	2005.123
269.424	24.754	1978.575	2007.428
270.439	24.940	1978.062	2008.761
271.453	24.546	1974.891	2000.872
272.468	23.115	1970.005	1979.592
273.482	22.803	1968.580	1974.418
274.497	24.183	1969.153	1990.267
275.512	24.805	1968.278	1996.115
276.526	25.035	1966.522	1996.675
277.541	24.935	1964.330	1993.096
278.555	24.817	1963.204	1990.397
279.570	24.285	1960.109	1981.075
280.585	24.141	1959.280	1978.394
281.599	24.718	1958.632	1983.944
282.614	24.729	1956.199	1981.359
283.628	24.147	1953.316	1971.730
284.643	23.899	1951.692	1967.096
285.657	23.780	1950.778	1964.623
286.672	23.449	1948.139	1958.048
287.687	22.829	1945.604	1948.392
288.701	22.722	1944.327	1945.689
289.716	22.627	1942.001	1942.086
290.730	22.194	1940.202	1935.261
291.745	22.532	1939.246	1937.809
292.760	22.980	1939.556	1942.840
293.774	23.370	1939.702	1947.060
294.789	23.766	1939.804	1951.305
295.803	24.098	1938.057	1952.972
296.818	24.484	1936.907	1955.841
297.833	24.852	1936.695	1959.439
298.847	24.839	1935.965	1958.322
299.862	24.984	1933.461	1957.152
300.876	24.337	1930.639	1946.963
301.891	23.237	1925.798	1929.798
302.906	23.181	1927.774	1930.929
303.920	24.644	1929.267	1948.246
304.935	25.085	1927.686	1951.243
305.949	24.888	1923.954	1945.076
306.964	24.883	1923.181	1944.004
307.979	24.577	1918.748	1935.959
308.993	23.417	1915.501	1919.832
310.008	23.423	1914.896	1919.062
311.022	23.778	1913.138	1920.924
312.037	23.300	1910.627	1912.991
313.052	22.614	1908.122	1902.808
314.066	22.280	1905.517	1896.369
315.081	22.236	1905.523	1895.665
316.095	22.379	1903.718	1895.195
317.110	22.259	1902.762	1892.714
318.125	22.634	1902.029	1895.812
319.139	22.985	1901.065	1898.416
320.154	23.498	1901.133	1903.800
321.168	23.929	1900.063	1907.142
322.183	24.354	1899.377	1910.807
323.197	24.394	1899.269	1910.895
324.212	24.550	1896.975	1910.038
325.227	24.411	1896.795	1908.131
326.241	24.815	1895.552	1910.987
327.256	25.046	1893.941	1911.613
328.270	24.741	1893.352	1907.525
329.285	24.897	1892.820	1908.436
330.300	24.683	1891.499	1904.575
331.314	23.213	1886.612	1883.722
332.329	23.116	1884.343	1880.190
333.343	24.576	1885.642	1896.860
334.358	25.433	1885.401	1905.532
335.373	25.166	1883.575	1900.616
336.387	24.934	1881.972	1896.296
337.402	25.171	1880.616	1897.226
338.416	24.998	1879.394	1893.928
339.431	25.054	1877.540	1892.428
340.446	25.259	1876.093	1892.918
341.460	24.715	1873.456	1884.264
342.475	24.153	1870.696	1875.315
343.489	23.541	1867.916	1865.835
344.504	23.140	1865.313	1858.779
345.519	22.903	1862.861	1853.614
346.533	22.563	1860.772	1847.736
347.548	22.895	1859.642	1849.884
348.562	22.906	1858.776	1848.921
349.577	22.863	1857.231	1846.710
350.592	22.690	1856.180	1843.623
351.606	22.971	1856.699	1846.875
352.621	23.204	1855.194	1847.604
353.635	23.235	1853.303	1845.825
354.650	23.132	1851.752	1842.974
355.665	23.573	1851.539	1847.159
356.679	24.315	1851.020	1854.175
357.694	24.554	1851.659	1857.096
358.708	25.038	1850.541	1860.808
359.723	24.554	1848.950	1853.935
360.738	23.229	1844.789	1835.735
361.752	23.183	1844.676	1834.927
362.767	24.296	1845.025	1846.650
363.781	24.625	1842.712	1847.527
364.796	24.448	1840.827	1843.584
365.810	24.350	1839.443	1840.962
366.825	24.458	1838.985	1841.400
367.840	24.707	1837.995	1842.773
368.854	24.689	1836.212	1840.570
369.869	24.273	1834.804	1834.640
370.883	23.843	1832.325	1827.497
371.898	23.741	1830.213	1824.123
372.913	23.661	1828.604	1821.472
373.927	23.611	1827.879	1820.016
374.942	23.638	1826.445	1818.652
375.956	23.946	1825.895	1821.052
376.971	24.664	1824.652	1826.980
377.986	24.667	1823.981	1826.123
379.000	24.788	1822.626	1825.781
380.015	24.764	1821.868	1824.558
381.029	24.910	1820.206	1824.170
382.044	24.952	1818.562	1822.732
383.059	25.057	1816.896	1821.923
384.073	24.934	1815.364	1818.912
385.088	24.515	1813.780	1812.828
386.102	24.427	1811.300	1809.236
387.117	24.137	1809.461	1804.235
388.132	24.054	1808.974	1802.683
389.146	24.070	1808.634	1802.295
390.161	23.094	1804.865	1788.407
391.175	23.192	1801.549	1785.906
392.190	23.938	1800.492	1792.196
393.205	24.218	1799.758	1794.086
394.219	24.577	1798.909	1796.661
395.234	24.867	1798.736	1799.197
396.248	24.952	1797.163	1798.267
397.263	24.954	1794.640	1795.551
398.278	24.597	1793.029	1790.131
399.292	24.386	1791.714	1786.478
400.307	24.387	1791.257	1785.823
401.321	24.390	1789.590	1783.972
402.336	23.994	1786.355	1776.561
403.350	23.565	1784.417	1770.119
404.365	23.775	1784.393	1771.994
405.380	24.300	1782.594	1775.245
406.394	24.225	1782.472	1774.166
407.409	24.239	1780.379	1772.006
408.423	23.861	1777.426	1765.080
409.438	23.329	1775.008	1757.167
410.453	23.159	1774.565	1754.822
411.467	23.188	1773.999	1754.346
412.482	23.384	1773.195	1755.295
413.496	24.060	1773.865	1762.473
414.511	24.306	1771.255	1762.110
415.526	24.334	1769.120	1760.056
416.540	24.470	1768.277	1760.361
417.555	24.326	1766.617	1757.069
418.569	23.986	1767.345	1754.209
419.584	24.339	1767.340	1757.493
420.599	24.567	1767.097	1759.295
421.613	24.546	1766.603	1758.389
422.628	24.564	1764.883	1756.639
423.642	24.845	1763.039	1757.373
424.657	24.520	1760.961	1751.888
425.672	24.129	1758.251	1745.132
426.686	24.044	1757.145	1742.985
427.701	24.037	1754.611	1740.199
428.715	23.981	1753.072	1737.914
429.730	24.157	1752.883	1739.243
430.745	24.343	1751.693	1739.676
431.759	23.872	1749.853	1733.030
432.774	23.252	1747.905	1724.826
433.788	22.925	1745.198	1718.748
434.803	22.642	1744.144	1714.737
435.818	22.450	1744.420	1712.925
436.832	22.428	1744.342	1712.435
437.847	21.320	1735.429	1692.696
438.861	12.117	1709.903	1578.916
439.876	2.260	1692.212	1467.621
440.890	0.346	1687.501	1444.930
441.905	0.227	1686.585	1442.823
442.920	0.227	1684.724	1441.063
443.934	0.202	1683.707	1439.778
444.949	0.281	1682.151	1439.036
445.963	0.141	1681.309	1436.795
446.978	0.179	1680.473	1436.273
447.993	0.100	1679.392	1434.418
449.007	0.226	1677.838	1434.132
450.022	0.386	1674.904	1432.981
451.036	0.188	1674.518	1430.586
452.051	0.642	1677.484	1437.290
453.066	8.866	1697.071	1533.229
454.080	19.073	1712.936	1645.983
455.095	21.698	1717.870	1675.793
456.109	22.541	1720.474	1686.248
457.124	22.630	1718.834	1685.295
458.139	22.582	1717.857	1683.672
459.153	22.618	1717.158	1683.135
460.168	22.570	1714.769	1680.123
461.182	22.809	1713.238	1680.713
462.197	22.828	1711.582	1679.075
463.212	22.994	1710.483	1679.378
464.226	23.039	1709.939	1679.067
465.241	23.005	1708.789	1677.414
466.255	22.819	1707.443	1674.125
467.270	22.807	1705.806	1672.204
468.285	22.884	1705.078	1672.016
469.299	22.817	1703.433	1669.568
470.314	22.983	1700.367	1667.939
471.328	22.706	1699.577	1664.343
472.343	22.618	1698.624	1662.371
473.358	22.301	1697.122	1657.704
474.372	22.048	1696.385	1654.389
475.387	22.147	1694.115	1652.911
476.401	22.114	1691.546	1649.902
477.416	22.068	1689.638	1647.409
478.430	21.732	1689.514	1643.920
479.445	21.995	1688.341	1645.056
480.460	22.085	1687.363	1644.754
481.474	22.199	1686.974	1645.254
482.489	22.105	1684.564	1641.824
483.503	21.806	1683.062	1637.359
484.518	21.872	1680.964	1635.741
485.533	21.852	1679.973	1634.390
486.547	21.754	1678.569	1631.909
487.562	21.386	1676.520	1626.284
488.576	21.574	1675.560	1626.913
489.591	21.713	1674.203	1626.698
490.606	21.701	1674.297	1626.482
491.620	22.007	1672.061	1626.965
492.635	21.807	1669.687	1622.599
493.649	21.673	1667.714	1619.241
494.664	21.990	1667.891	1622.172
495.679	22.270	1667.819	1624.504
496.693	22.397	1667.262	1624.943
497.708	22.560	1666.057	1625.085
498.722	22.226	1664.729	1620.502
499.737	22.456	1662.292	1620.063
500.752	22.643	1661.642	1620.970
501.766	22.717	1660.970	1620.798
502.781	22.731	1659.127	1618.937
503.795	22.657	1657.486	1616.456
504.810	22.767	1656.633	1616.451
505.825	22.630	1655.699	1614.085
506.839	22.732	1654.287	1613.453
507.854	22.793	1652.730	1612.294
508.868	22.568	1651.700	1609.039
509.883	22.588	1650.114	1607.479
510.898	22.306	1648.441	1603.078
511.912	22.390	1647.365	1602.609
512.927	22.509	1645.800	1601.981
513.941	22.477	1645.186	1600.897
514.956	22.537	1643.686	1599.798
515.971	22.407	1642.237	1597.011
516.985	22.706	1640.618	1597.965
518.000	22.456	1640.679	1595.556
519.014	22.172	1639.234	1591.373
520.029	22.145	1636.681	1588.462
521.043	22.226	1635.784	1588.139
522.058	22.290	1635.361	1588.119
523.073	22.253	1633.736	1586.011
524.087	22.057	1632.187	1582.546
525.102	21.969	1631.463	1580.852
526.116	22.455	1631.217	1584.825
527.131	22.745	1629.822	1585.898
528.146	22.548	1628.674	1582.820
529.160	22.276	1627.056	1578.603
530.175	22.225	1625.117	1576.074
531.189	22.111	1624.728	1574.476
532.204	22.004	1622.614	1571.282
533.219	22.007	1621.530	1570.067
534.233	21.978	1621.420	1569.517
535.248	21.785	1619.113	1565.362
536.262	21.356	1616.821	1559.108
537.277	21.335	1615.830	1557.782
538.292	21.489	1614.717	1557.899
539.306	21.532	1612.216	1555.689
540.321	21.482	1611.515	1554.373
541.335	21.487	1609.672	1552.455
542.350	21.474	1608.258	1550.787
543.365	21.330	1607.336	1548.432
544.379	21.431	1604.949	1546.844
545.394	21.387	1603.396	1544.774
546.408	21.434	1603.641	1545.244
547.423	21.925	1603.758	1549.528
548.438	22.065	1602.560	1549.432
549.452	21.919	1601.259	1546.696
550.467	21.842	1599.413	1544.043
551.481	22.003	1598.975	1544.862
552.496	21.834	1598.032	1542.268
553.511	21.713	1596.527	1539.567
554.525	21.877	1595.231	1539.573
555.540	21.617	1594.748	1536.635
556.554	21.544	1594.125	1535.209
557.569	21.922	1591.471	1535.795
558.583	22.122	1590.781	1536.703
559.598	22.010	1590.380	1535.148
560.613	22.009	1589.269	1533.880
561.627	21.864	1587.013	1530.244
562.642	21.665	1584.557	1525.955
563.656	21.394	1582.916	1521.817
564.671	21.267	1581.736	1519.392
565.686	21.341	1580.744	1518.905
566.700	21.599	1580.026	1520.281
567.715	21.679	1578.567	1519.395
568.729	21.756	1577.963	1519.302
569.744	21.917	1576.919	1519.518
570.759	21.746	1575.122	1516.116
571.773	21.721	1574.055	1514.694
572.788	21.616	1572.005	1511.628
573.802	21.495	1570.827	1509.268
574.817	21.311	1568.933	1505.674
575.832	21.192	1567.810	1503.382
576.846	21.279	1566.861	1503.044
577.861	21.686	1566.055	1505.611
578.875	21.755	1565.208	1505.208
579.890	21.476	1564.035	1501.496
580.905	21.411	1563.302	1500.052
581.919	21.452	1562.322	1499.281
582.934	21.294	1561.107	1496.579
583.948	21.235	1559.122	1493.993
584.963	21.155	1557.621	1491.689
585.978	21.318	1556.687	1492.016
586.992	21.062	1555.418	1488.424
588.007	20.695	1554.661	1484.374
589.021	21.112	1553.658	1486.811
590.036	21.256	1552.427	1486.686
591.051	20.947	1550.928	1482.430
592.065	20.927	1548.701	1479.959
593.080	20.757	1546.818	1476.531
594.094	20.604	1546.823	1475.057
595.109	21.207	1545.029	1478.301
596.123	21.605	1543.937	1480.462
597.138	21.428	1543.302	1478.172
598.153	21.045	1542.168	1473.652
599.167	21.139	1540.353	1472.540
600.182	21.052	1539.207	1470.531
601.196	21.104	1538.305	1469.935
602.211	21.248	1536.382	1469.138
603.226	21.085	1535.508	1466.749
604.240	20.978	1533.594	1463.843
605.255	20.854	1533.030	1462.082
606.269	21.020	1532.525	1462.830
607.284	21.329	1531.546	1464.323
608.299	21.127	1530.690	1461.625
609.313	21.438	1529.564	1462.993
610.328	21.354	1527.872	1460.495
611.342	21.194	1526.454	1457.617
612.357	21.147	1525.300	1455.947
613.372	21.073	1524.248	1454.148
614.386	20.898	1523.619	1451.913
615.401	20.919	1522.303	1450.659
616.415	20.796	1521.293	1448.493
617.430	20.919	1519.747	1447.879
618.445	20.670	1517.795	1443.763
619.459	20.776	1517.642	1444.333
620.474	21.135	1517.084	1446.620
621.488	21.410	1517.130	1448.782
622.503	21.359	1515.474	1446.601
623.518	21.001	1513.793	1441.849
624.532	20.596	1512.006	1436.614
625.547	20.576	1510.842	1435.168
626.561	20.326	1509.525	1431.674
627.576	20.145	1508.842	1429.355
628.591	20.568	1507.883	1431.775
629.605	20.907	1506.946	1433.516
630.620	20.895	1505.218	1431.603
631.634	21.170	1504.440	1432.960
632.649	20.949	1503.083	1429.676
633.663	20.727	1501.381	1426.059
634.678	20.373	1500.066	1421.725
635.693	20.175	1498.318	1418.268
636.707	20.313	1496.632	1417.640
637.722	20.046	1495.688	1414.385
638.736	20.261	1494.962	1415.288
639.751	20.594	1493.621	1416.576
640.766	20.614	1493.283	1416.254
641.780	20.619	1491.367	1414.309
642.795	20.856	1490.570	1415.321
643.809	20.737	1490.136	1413.767
644.824	20.686	1489.354	1412.442
645.839	20.901	1488.606	1413.315
646.853	20.670	1486.775	1409.524
647.868	20.752	1484.942	1408.285
648.882	20.667	1484.246	1406.768
649.897	20.674	1483.294	1405.747
650.912	20.541	1481.534	1402.832
651.926	20.549	1479.685	1400.979
652.941	20.599	1478.532	1400.125
653.955	20.705	1477.739	1400.064
654.970	20.923	1476.588	1400.571
655.985	20.979	1474.755	1399.115
656.999	20.848	1473.860	1397.042
658.014	20.698	1472.435	1394.317
659.028	20.295	1471.622	1390.137
660.043	20.435	1471.060	1390.563
661.058	20.387	1469.377	1388.419
662.072	20.392	1468.347	1387.322
663.087	20.619	1467.136	1387.837
664.101	20.597	1466.602	1386.983
665.116	20.540	1465.150	1384.991
666.131	20.560	1463.991	1383.884
667.145	20.565	1463.212	1383.022
668.160	20.414	1461.709	1380.234
669.174	20.242	1460.260	1377.325
670.189	20.373	1458.944	1376.966
671.204	20.730	1458.411	1379.143
672.218	20.613	1457.715	1377.387
673.233	20.407	1456.344	1374.291
674.247	20.228	1454.764	1371.213
675.262	20.175	1453.467	1369.405
676.276	20.275	1452.153	1368.795
677.291	20.481	1452.139	1370.250
678.306	20.600	1451.590	1370.515
679.320	20.656	1450.077	1369.365
680.335	20.378	1449.164	1366.140
681.349	20.395	1448.354	1365.346
682.364	20.386	1447.052	1363.882
683.379	20.291	1445.593	1361.591
684.393	20.335	1443.575	1359.879
685.408	20.147	1443.094	1357.785
686.422	20.310	1442.096	1357.959
687.437	20.053	1441.512	1355.229
688.452	19.947	1439.918	1352.736
689.466	20.040	1438.683	1352.142
690.481	19.968	1437.238	1350.059
691.495	20.135	1436.769	1350.765
692.510	20.434	1436.757	1352.932
693.525	20.639	1435.260	1352.965
694.539	20.365	1433.425	1348.937
695.554	19.990	1432.264	1344.751
696.568	19.768	1431.236	1341.892
697.583	19.766	1430.297	1340.838
698.598	19.852	1429.706	1340.796
699.612	19.718	1428.671	1338.617
700.627	20.099	1426.563	1339.449
701.641	20.055	1426.202	1338.601
702.656	20.168	1425.063	1338.256
703.671	19.871	1424.642	1335.390
704.685	19.969	1423.841	1335.238
705.700	20.070	1422.052	1334.186
706.714	20.183	1420.452	1333.396
707.729	20.146	1419.973	1332.505
708.744	20.164	1417.827	1330.470
709.758	20.102	1417.089	1329.143
710.773	20.194	1416.936	1329.545
711.787	20.291	1415.466	1328.752
712.802	20.149	1413.644	1325.793
713.816	20.092	1412.678	1324.290
714.831	20.025	1412.299	1323.263
715.846	20.054	1410.416	1321.560
716.860	19.886	1408.896	1318.693
717.875	19.957	1408.649	1318.846
718.889	20.041	1407.814	1318.551
719.904	20.155	1406.277	1317.829
720.919	20.036	1404.174	1314.786
721.933	19.941	1404.179	1313.910
722.948	19.943	1403.255	1312.904
723.962	20.063	1401.402	1311.929
724.977	19.901	1400.651	1309.837
725.992	19.861	1399.954	1308.725
727.006	19.943	1398.841	1308.146
728.021	19.899	1396.879	1305.826
729.035	19.914	1395.822	1304.791
730.050	19.963	1395.283	1304.504
731.065	20.067	1394.063	1303.990
732.079	19.924	1392.697	1301.480
733.094	19.959	1392.258	1301.176
734.108	20.095	1390.368	1300.278
735.123	20.038	1388.828	1298.253
736.138	20.050	1388.692	1298.066
737.152	19.965	1387.800	1296.433
738.167	19.862	1386.290	1294.096
739.181	19.950	1385.362	1293.734
740.196	19.819	1384.751	1292.024
741.211	19.839	1384.062	1291.379
742.225	19.788	1382.845	1289.706
743.240	19.773	1381.460	1288.147
744.254	19.816	1379.272	1286.275
745.269	19.685	1378.212	1284.154
746.284	19.694	1378.048	1283.916
747.298	19.584	1377.386	1282.325
748.313	19.791	1376.719	1283.092
749.327	19.897	1376.336	1283.372
750.342	20.114	1376.608	1285.090
751.356	20.325	1375.206	1285.197
752.371	20.324	1373.047	1283.015
753.386	20.006	1371.152	1278.733
754.400	19.873	1370.286	1276.785
755.415	19.796	1369.286	1275.135
756.429	19.715	1368.060	1273.240
757.444	19.796	1367.007	1272.701
758.459	19.683	1365.302	1270.131
759.473	19.820	1364.675	1270.406
760.488	19.696	1363.418	1268.172
761.502	19.732	1361.809	1266.786
762.517	19.742	1361.220	1266.159
763.532	19.962	1359.148	1265.699
764.546	19.888	1358.871	1264.744
765.561	19.861	1359.626	1265.095
766.575	20.363	1358.835	1267.893
767.590	20.433	1357.101	1266.642
768.605	20.066	1355.471	1262.281
769.619	19.756	1354.480	1258.940
770.634	19.692	1353.667	1257.562
771.648	19.804	1351.239	1255.972
772.663	19.699	1350.416	1254.295
773.678	19.762	1349.900	1254.122
774.692	19.625	1349.559	1252.659
775.707	19.482	1348.952	1250.905
776.721	19.601	1347.733	1250.489
777.736	19.706	1346.489	1249.950
778.751	19.790	1345.266	1249.272
779.765	19.574	1344.959	1247.272
780.780	19.542	1344.671	1246.621
781.794	19.676	1343.019	1245.910
782.809	19.724	1341.835	1245.008
783.824	19.513	1340.833	1242.410
784.838	19.681	1339.990	1242.688
785.853	19.961	1338.968	1243.618
786.867	19.969	1338.278	1242.888
787.882	19.760	1337.159	1240.191
788.897	19.618	1336.441	1238.354
789.911	19.472	1335.372	1236.158
790.926	19.356	1334.340	1234.225
791.940	19.602	1332.517	1234.155
792.955	19.594	1330.433	1232.025
793.969	19.403	1330.254	1230.342
794.984	19.455	1329.511	1229.875
795.999	19.516	1328.374	1229.113
797.013	19.551	1326.831	1227.792
798.028	19.575	1325.743	1226.811
799.042	19.616	1324.615	1225.912
800.057	19.462	1323.759	1223.875
801.072	19.563	1321.733	1222.573
802.086	19.486	1321.125	1221.315
803.101	19.376	1320.820	1220.106
804.115	19.563	1319.163	1219.757
805.130	19.780	1317.550	1219.657
806.145	19.641	1316.629	1217.675
807.159	19.592	1315.516	1216.154
808.174	19.478	1314.974	1214.701
809.188	19.623	1313.723	1214.426
810.203	19.905	1311.797	1214.488
811.218	19.836	1310.780	1212.915
812.232	19.859	1310.516	1212.686
813.247	20.020	1309.305	1212.556
814.261	19.876	1308.364	1210.523
815.276	19.858	1306.336	1208.375
816.291	19.770	1305.073	1206.447
817.305	19.657	1304.689	1205.157
818.320	19.589	1303.434	1203.376
819.334	19.490	1302.449	1201.630
820.349	19.502	1300.631	1199.893
821.364	19.562	1299.236	1198.879
822.378	19.420	1297.559	1196.203
823.393	19.540	1295.712	1195.193
824.407	19.509	1295.518	1194.652
825.422	19.340	1295.264	1193.099
826.437	19.455	1293.529	1192.159
827.451	19.451	1292.362	1190.909
828.466	19.742	1291.618	1192.101
829.480	19.995	1289.435	1191.692
830.495	19.619	1287.439	1187.107
831.509	19.469	1286.765	1185.308
832.524	19.474	1286.007	1184.501
833.539	19.505	1285.090	1183.732
834.553	19.429	1283.909	1181.976
835.568	19.536	1282.372	1181.156
836.582	19.445	1281.617	1179.694
837.597	19.501	1280.589	1178.990
838.612	19.459	1279.578	1177.633
839.626	19.494	1278.702	1176.922
840.641	19.616	1277.796	1176.788
841.655	19.785	1276.578	1176.679
842.670	20.135	1276.607	1178.960
843.685	20.336	1275.444	1179.113
844.699	19.933	1273.943	1174.837
845.714	19.778	1272.351	1172.176
846.728	19.745	1271.455	1170.981
847.743	19.714	1270.058	1169.349
848.758	19.742	1268.576	1168.035
849.772	19.486	1267.141	1164.835
850.787	19.360	1266.065	1162.854
851.801	19.434	1264.542	1161.813
852.816	19.503	1263.317	1161.017
853.831	19.396	1261.635	1158.612
854.845	19.441	1260.289	1157.536
855.860	19.232	1258.934	1154.748
856.874	19.430	1258.234	1155.302
857.889	19.589	1256.997	1155.093
858.904	19.719	1255.952	1154.867
859.918	19.758	1255.006	1154.125
860.933	20.008	1253.921	1154.664
861.947	19.769	1252.591	1151.698
862.962	19.677	1250.939	1149.428
863.977	19.551	1249.677	1147.292
864.991	19.464	1249.143	1146.078
866.006	19.494	1249.127	1146.130
867.020	19.459	1247.530	1144.294
868.035	19.352	1246.258	1142.277
869.049	19.367	1245.593	1141.630
870.064	19.458	1244.372	1140.980
871.079	19.397	1243.662	1139.787
872.093	19.553	1243.326	1140.378
873.108	19.632	1242.203	1139.735
874.122	19.717	1241.310	1139.344
875.137	19.995	1241.355	1141.087
876.152	20.066	1239.855	1140.045
877.166	19.950	1238.525	1137.917
878.181	19.647	1237.185	1134.552
879.195	19.708	1235.925	1133.663
880.210	19.638	1234.574	1131.826
881.225	19.598	1234.031	1130.929
882.239	19.503	1233.107	1129.322
883.254	19.553	1232.141	1128.629
884.268	19.541	1231.589	1127.915
885.283	19.599	1229.968	1126.672
886.298	19.438	1228.551	1124.182
887.312	19.434	1228.094	1123.604
888.327	19.568	1226.395	1122.796
889.341	19.638	1224.919	1121.766
890.356	19.384	1224.932	1119.987
891.371	19.568	1224.172	1120.359
892.385	19.599	1223.775	1120.061
893.400	19.476	1222.442	1117.906
894.414	19.500	1220.925	1116.543
895.429	19.736	1219.994	1117.086
896.444	20.064	1219.128	1118.289
897.458	20.499	1218.206	1120.130
898.473	20.191	1216.901	1116.804
899.487	20.012	1215.521	1114.247
900.502	19.747	1215.076	1111.992
901.517	19.583	1213.664	1109.504
902.531	19.542	1212.533	1108.074
903.546	19.620	1212.181	1108.121
904.560	19.623	1211.638	1107.512
905.575	19.702	1210.387	1106.748
906.589	19.673	1209.907	1105.986
907.604	19.756	1209.173	1105.721
