DTS Sentinel unit serial number:	SN409020Multiplexer serial number:	ORYXHardware model number:	OX4-SRSoftware version number:	ORYX F/W v3.00 Oryx Data Collector v3.7.2.0data status	okinstallation	HaddamTimeLapsedifferential loss correction	single-endedforward channel	channel 3reverse channel	N/Adate	2011/06/21time	20:56:16forward acquisition time	30.00reverse acquisition time	0.00gamma	498.7831k internal	0.1768k external	0.1768temperature offset calibration	1.0074default loss term (dB/km)	0.3790temperature slope calibration	1.3530multiplexer offset coefficient	1.0000multiplexer slope coefficient	1.0000fibre end	0.00T internal ref (°C)	28.12T ext. ref 1 (°C)	20.92T ext. ref 2 (°C)	0.02length (m)	temperature (°C)	Stokes	anti-Stokes-747.200	267.716	0.124	-0.286
-746.185	-1.341	0.126	0.117
-745.171	-80.723	-0.453	0.197
-744.156	334.005	0.128	0.326
-743.142	-148.204	0.377	0.040
-742.127	-8.430	0.211	0.186
-741.112	-195.154	-0.416	-0.004
-740.098	800.000	0.019	0.081
-739.083	19.837	-0.141	0.149
-738.069	-11.251	-0.259	0.224
-737.054	-200.000	0.050	0.328
-736.039	7.223	0.149	0.146
-735.025	800.000	0.081	-0.420
-734.010	391.059	-0.149	-0.410
-732.996	-27.007	0.545	-0.417
-731.981	35.242	0.066	-0.076
-730.966	723.555	-0.105	-0.368
-729.952	800.000	0.008	0.040
-728.937	3.402	-0.227	0.218
-727.923	16.624	0.352	-0.366
-726.908	549.291	0.057	-0.180
-725.894	-45.843	-0.251	-0.162
-724.879	-96.601	-0.082	-0.028
-723.864	-178.146	-0.617	0.019
-722.850	331.703	0.147	-0.374
-721.835	-200.000	-0.314	-0.000
-720.821	-146.197	-0.068	0.008
-719.806	-133.257	-0.227	-0.037
-718.791	-45.517	0.249	0.161
-717.777	-79.683	0.288	-0.127
-716.762	-200.000	0.053	0.351
-715.748	224.808	0.151	0.322
-714.733	-200.000	0.016	0.171
-713.718	153.988	0.092	-0.166
-712.704	316.295	-0.173	-0.432
-711.689	170.272	0.178	-0.335
-710.675	800.000	0.119	-0.439
-709.660	124.515	0.068	0.113
-708.645	-41.129	-0.206	0.140
-707.631	-61.166	-0.090	-0.050
-706.616	-131.719	0.265	-0.045
-705.602	-159.258	-0.079	-0.006
-704.587	-114.736	0.328	0.082
-703.572	48.599	0.059	-0.072
-702.558	-68.145	-0.254	-0.129
-701.543	-59.940	0.382	0.214
-700.529	800.000	0.055	0.217
-699.514	137.539	-0.017	0.030
-698.499	-200.000	0.024	-0.207
-697.485	115.815	-0.105	-0.170
-696.470	204.234	0.116	-0.238
-695.456	800.000	0.052	0.263
-694.441	-56.615	-0.558	-0.323
-693.426	-200.000	0.025	-0.190
-692.412	11.863	-0.153	-0.155
-691.397	183.936	-0.069	-0.134
-690.383	-200.000	-0.073	0.443
-689.368	172.571	0.189	-0.358
-688.354	-79.890	0.700	-0.308
-687.339	-200.000	-0.053	0.336
-686.324	-130.486	0.182	0.032
-685.310	-36.913	-0.196	-0.138
-684.295	-114.588	0.132	0.033
-683.281	-121.033	-0.410	0.090
-682.266	-138.737	-0.334	-0.047
-681.251	106.131	0.184	-0.286
-680.237	-90.716	-0.344	0.130
-679.222	-94.537	0.163	-0.058
-678.208	-27.019	0.105	0.080
-677.193	-48.567	-0.636	-0.400
-676.178	-180.847	0.350	-0.009
-675.164	-200.000	-0.043	0.464
-674.149	-142.918	0.207	0.026
-673.135	229.479	-0.170	0.365
-672.120	-146.109	-0.385	0.044
-671.105	34.883	0.493	-0.566
-670.091	-200.000	0.085	-0.618
-669.076	-97.500	0.083	0.028
-668.062	-56.347	-0.086	0.050
-667.047	800.000	-0.047	0.225
-666.032	-72.809	-0.298	0.143
-665.018	-143.190	-0.371	-0.046
-664.003	-67.216	-0.116	-0.060
-662.989	-200.000	-0.373	0.001
-661.974	9.255	-0.151	0.149
-660.959	169.898	-0.158	0.297
-659.945	123.238	-0.097	-0.160
-658.930	-200.000	0.013	-0.346
-657.916	123.479	-0.180	0.297
-656.901	-120.837	0.300	-0.066
-655.886	-177.320	0.137	-0.004
-654.872	-152.207	-0.187	0.017
-653.857	800.000	0.023	-0.101
-652.843	-80.305	-0.213	-0.093
-651.828	-43.848	0.252	-0.166
-650.814	-44.463	-0.096	-0.063
-649.799	234.178	-0.189	0.410
-648.784	310.090	0.093	0.229
-647.770	-88.527	-0.267	-0.104
-646.755	-163.335	0.459	-0.028
-645.741	12.260	-0.236	-0.238
-644.726	108.871	-0.157	-0.247
-643.711	-200.000	0.021	0.471
-642.697	-85.070	0.450	-0.184
-641.682	-158.525	0.308	0.023
-640.668	35.597	0.266	-0.306
-639.653	-61.889	-0.114	-0.063
-638.638	-200.000	-0.049	-0.519
-637.624	46.591	0.212	-0.258
-636.609	-114.683	0.399	0.099
-635.595	-86.152	0.449	-0.180
-634.580	-53.645	-0.093	0.056
-633.565	12.465	-0.131	0.133
-632.551	-177.481	0.210	0.007
-631.536	-151.936	0.268	0.025
-630.522	-200.000	-0.032	0.280
-629.507	8.290	0.097	-0.096
-628.492	-74.580	0.104	-0.049
-627.478	-200.000	-0.023	0.226
-626.463	-69.382	-0.432	0.216
-625.449	-112.629	-0.249	-0.064
-624.434	-31.043	-0.114	-0.084
-623.419	638.096	-0.067	-0.225
-622.405	-128.836	-0.137	-0.025
-621.390	118.150	0.263	-0.425
-620.376	204.151	-0.027	0.055
-619.361	21.391	-0.241	0.257
-618.346	-102.568	0.243	0.075
-617.332	131.229	-0.037	0.062
-616.317	25.715	-0.218	0.238
-615.303	-200.000	-0.012	-0.232
-614.288	-65.862	-0.520	0.271
-613.273	-107.235	0.260	-0.075
-612.259	-117.681	0.099	-0.023
-611.244	-200.000	0.009	-0.566
-610.230	-50.622	-0.249	-0.153
-609.215	122.994	-0.117	-0.192
-608.201	800.000	-0.027	-0.103
-607.186	15.900	-0.320	-0.329
-606.171	262.872	-0.210	-0.479
-605.157	12.325	-0.446	-0.449
-604.142	-153.580	-0.544	-0.049
-603.128	171.710	-0.113	0.212
-602.113	-200.000	0.071	0.418
-601.098	-21.152	-0.212	-0.170
-600.084	-112.653	-0.268	0.069
-599.069	54.146	0.185	0.233
-598.055	-28.524	0.386	0.290
-597.040	80.814	-0.152	0.215
-596.025	-74.501	-0.404	0.190
-595.011	-43.022	-0.583	0.386
-593.996	-189.698	0.092	0.001
-592.982	-62.889	-0.276	0.149
-591.967	335.010	-0.124	-0.316
-590.952	83.177	-0.163	-0.232
-589.938	-103.701	0.391	0.119
-588.923	-92.658	0.298	-0.109
-587.909	-200.000	-0.027	-0.318
-586.894	40.959	-0.162	0.191
-585.879	-121.130	0.298	0.065
-584.865	-114.981	0.153	-0.038
-583.850	75.815	0.418	-0.578
-582.836	8.826	0.363	-0.357
-581.821	197.238	0.064	-0.129
-580.806	4.168	0.319	-0.305
-579.792	-68.771	0.415	-0.209
-578.777	-200.000	-0.036	-0.413
-577.763	-200.000	0.042	-0.332
-576.748	-65.637	-0.280	-0.146
-575.733	-120.692	-0.735	-0.161
-574.719	37.415	-0.071	-0.082
-573.704	183.014	-0.145	0.281
-572.690	363.940	0.077	0.203
-571.675	-29.187	0.107	-0.080
-570.661	81.753	-0.197	-0.279
-569.646	-84.219	0.242	-0.100
-568.631	775.790	0.094	0.338
-567.617	121.728	0.088	0.144
-566.602	-200.000	0.025	-0.183
-565.588	-200.000	0.006	0.105
-564.573	-90.880	0.235	0.088
-563.558	3.567	0.151	0.144
-562.544	-91.307	0.717	-0.266
-561.529	661.746	0.136	0.460
-560.515	-58.203	0.562	0.318
-559.500	243.019	0.137	0.302
-558.485	66.497	0.079	-0.105
-557.471	208.073	0.065	0.133
-556.456	244.499	-0.156	-0.344
-555.442	-138.194	-0.255	0.037
-554.427	153.532	-0.088	0.159
-553.412	-155.928	0.079	0.006
-552.398	6.398	-0.453	0.439
-551.383	40.750	0.081	-0.096
-550.369	89.240	0.198	-0.288
-549.354	-56.010	-0.309	-0.179
-548.339	-31.372	-0.043	0.031
-547.325	-54.805	-0.333	-0.196
-546.310	81.257	0.012	0.017
-545.296	164.974	0.112	0.207
-544.281	-82.084	-0.424	0.180
-543.266	58.754	-0.318	-0.408
-542.252	160.139	0.042	0.077
-541.237	-125.467	-0.349	0.069
-540.223	5.085	0.427	-0.410
-539.208	-57.712	0.446	-0.254
-538.193	-200.000	-0.017	0.130
-537.179	800.000	-0.009	0.034
-536.164	-200.000	0.044	-0.274
-535.150	-65.169	0.265	-0.139
-534.135	-40.950	0.158	-0.106
-533.121	-200.000	-0.056	0.389
-532.106	-29.390	-0.289	-0.215
-531.091	127.865	0.326	-0.542
-530.077	-111.027	0.451	-0.120
-529.062	-64.734	0.212	-0.112
-528.048	-134.390	-0.251	-0.040
-527.033	-112.388	0.261	-0.068
-526.018	385.180	0.116	0.314
-525.004	50.262	0.398	0.491
-523.989	-93.565	0.164	0.059
-522.975	-200.000	0.013	-0.281
-521.960	-47.221	-0.030	0.019
-520.945	800.000	0.062	0.247
-519.931	-83.566	-0.283	0.117
-518.916	-136.677	-0.050	-0.007
-517.902	-200.000	-0.033	0.203
-516.887	-200.000	0.003	-0.420
-515.872	-70.581	-0.362	0.178
-514.858	30.914	-0.310	0.346
-513.843	663.898	-0.066	0.222
-512.829	-200.000	0.008	0.100
-511.814	-15.522	-0.155	-0.129
-510.799	220.660	-0.139	0.291
-509.785	-69.920	0.513	0.254
-508.770	-91.401	0.276	0.102
-507.756	2.334	-0.266	0.250
-506.741	-7.543	-0.539	-0.474
-505.726	-72.261	-0.324	-0.156
-504.712	-112.988	0.131	0.033
-503.697	308.427	0.014	-0.035
-502.683	-102.549	-0.212	-0.066
-501.668	-148.577	0.426	-0.045
-500.653	-200.000	-0.029	-0.375
-499.639	7.921	0.325	0.318
-498.624	-153.105	-0.454	-0.041
-497.610	-156.248	-0.482	-0.039
-496.595	107.799	-0.136	0.211
-495.581	800.000	-0.169	0.675
-494.566	-173.609	-0.391	0.015
-493.551	163.030	0.137	-0.252
-492.537	-103.385	-0.060	-0.018
-491.522	-112.582	-0.397	-0.102
-490.508	-173.431	0.310	-0.012
-489.493	-17.248	-0.129	-0.106
-488.478	-188.838	0.465	-0.007
-487.464	81.647	-0.112	-0.158
-486.449	-50.278	-0.474	-0.291
-485.435	351.102	0.219	-0.566
-484.420	46.451	0.263	-0.318
-483.405	-123.938	0.717	-0.146
-482.391	-14.558	0.242	-0.202
-481.376	71.032	-0.166	0.224
-480.362	-182.527	-0.273	-0.006
-479.347	-200.000	0.001	-0.213
-478.332	-200.000	-0.013	0.231
-477.318	-145.669	-0.191	0.022
-476.303	42.561	-0.216	-0.256
-475.289	3.430	-0.171	-0.162
-474.274	800.000	-0.004	0.019
-473.259	-78.121	-0.454	-0.203
-472.245	-137.236	-0.358	0.052
-471.230	-200.000	0.040	0.527
-470.216	-200.000	0.001	-0.151
-469.201	-178.742	-0.443	0.013
-468.186	-75.408	0.248	-0.115
-467.172	-79.237	-0.279	0.122
-466.157	-56.535	-0.311	0.179
-465.143	21.231	-0.238	-0.251
-464.128	-92.488	-0.259	-0.094
-463.113	41.044	-0.195	-0.229
-462.099	-93.276	0.286	-0.103
-461.084	-30.217	0.334	-0.246
-460.070	166.045	0.076	0.140
-459.055	-200.000	0.025	0.331
-458.040	167.428	-0.138	-0.255
-457.026	800.000	0.078	-0.398
-456.011	-81.145	0.294	-0.126
-454.997	800.000	0.039	-0.211
-453.982	800.000	-0.120	-0.548
-452.968	190.958	0.043	-0.084
-451.953	30.474	0.329	-0.366
-450.938	3.019	0.123	0.116
-449.924	-1.887	0.200	-0.183
-448.909	487.548	-0.079	-0.234
-447.895	-42.026	-0.292	-0.194
-446.880	-99.467	-0.070	0.023
-445.865	414.672	0.104	0.290
-444.851	-102.183	0.402	-0.125
-443.836	-125.041	0.262	0.052
-442.822	-134.379	-0.093	-0.015
-441.807	-61.991	0.074	-0.040
-440.792	270.907	0.190	-0.436
-439.778	-59.162	-0.231	-0.129
-438.763	32.189	0.233	0.262
-437.749	272.269	-0.087	-0.200
-436.734	-56.135	-0.322	0.186
-435.719	-88.826	0.256	0.098
-434.705	2.638	-0.332	-0.313
-433.690	800.000	0.048	-0.215
-432.676	-28.505	-0.135	0.101
-431.661	-92.742	0.257	-0.093
-430.646	93.819	0.201	-0.296
-429.632	-157.420	0.489	0.038
-428.617	122.734	-0.042	-0.068
-427.603	-166.026	0.438	0.024
-426.588	-200.000	-0.079	0.474
-425.573	-172.289	0.609	0.025
-424.559	460.938	0.176	-0.513
-423.544	-55.931	0.062	-0.036
-422.530	331.255	0.087	-0.218
-421.515	284.798	-0.127	0.297
-420.500	-200.000	0.016	-0.249
-419.486	-200.000	0.049	-0.287
-418.471	-79.927	-0.406	0.176
-417.457	310.119	0.057	-0.138
-416.442	-116.705	0.308	-0.073
-415.428	-144.156	-0.642	0.077
-414.413	-126.277	-0.284	-0.055
-413.398	-200.000	0.013	0.097
-412.384	16.588	-0.301	-0.309
-411.369	-154.883	-0.448	0.038
-410.355	-80.285	-0.138	-0.060
-409.340	-135.874	-0.284	-0.043
-408.325	146.416	0.379	0.662
-407.311	-200.000	0.011	0.306
-406.296	-200.000	-0.003	0.225
-405.282	18.763	0.109	0.114
-404.267	6.840	-0.031	-0.030
-403.252	472.795	-0.046	0.136
-402.238	-144.783	-0.237	0.028
-401.223	-163.228	0.416	0.026
-400.209	-83.351	0.422	0.175
-399.194	289.873	0.196	0.464
-398.179	-200.000	-0.005	-0.203
-397.165	339.532	0.229	0.581
-396.150	-153.068	-0.314	0.028
-395.136	-98.255	0.191	0.063
-394.121	417.765	0.113	0.315
-393.106	-167.546	0.489	0.025
-392.092	144.772	-0.341	0.594
-391.077	-64.799	0.392	0.205
-390.063	-182.871	0.256	0.006
-389.048	-30.276	0.140	-0.103
-388.033	800.000	-0.125	-0.487
-387.019	-89.770	-0.309	-0.117
-386.004	-0.188	-0.195	0.180
-384.990	-171.759	-0.386	0.016
-383.975	169.100	0.030	0.055
-382.960	-42.248	0.222	-0.147
-381.946	-104.085	0.136	0.041
-380.931	19.311	0.270	0.281
-379.917	62.585	0.127	-0.165
-378.902	34.136	0.122	-0.138
-377.888	-116.768	0.394	0.093
-376.873	-200.000	-0.001	0.219
-375.858	609.960	-0.043	-0.142
-374.844	-36.256	-0.391	0.273
-373.829	489.711	0.107	0.319
-372.815	800.000	-0.049	0.256
-371.800	569.809	-0.142	-0.450
-370.785	213.238	-0.092	0.190
-369.771	-87.446	-0.153	0.060
-368.756	-106.422	0.155	0.044
-367.742	-200.000	0.032	0.186
-366.727	-18.859	-0.540	-0.435
-365.712	-154.707	-0.172	0.015
-364.698	686.655	0.022	0.074
-363.683	-83.971	0.179	-0.073
-362.669	-144.633	0.388	0.046
-361.654	188.092	0.168	0.326
-360.639	-13.358	0.252	-0.212
-359.625	325.337	0.109	0.271
-358.610	495.507	-0.211	0.632
-357.596	259.712	-0.104	-0.233
-356.581	-200.000	0.001	0.177
-355.566	-95.944	-0.486	0.167
-354.552	-133.874	-0.086	0.014
-353.537	343.612	-0.134	0.341
-352.523	444.733	0.052	0.148
-351.508	-178.904	0.340	-0.010
-350.493	60.165	-0.030	-0.039
-349.479	40.395	-0.507	0.592
-348.464	64.022	0.153	0.199
-347.450	-85.007	0.356	0.144
-346.435	-14.699	-0.179	0.149
-345.420	-85.591	0.522	-0.209
-344.406	160.939	0.092	0.168
-343.391	800.000	0.158	0.643
-342.377	418.044	-0.227	-0.631
-341.362	-200.000	-0.008	-0.428
-340.348	51.189	0.278	0.342
-339.333	46.756	-0.154	-0.186
-338.318	-127.144	0.215	-0.040
-337.304	-42.669	-0.204	0.134
-336.289	800.000	0.084	0.419
-335.275	768.957	-0.088	-0.311
-334.260	-200.000	-0.005	0.313
-333.245	59.480	-0.110	0.141
-332.231	-200.000	-0.026	0.199
-331.216	553.833	-0.131	0.409
-330.202	-48.862	-0.230	-0.142
-329.187	-144.401	0.885	0.105
-328.172	-31.819	0.335	-0.242
-327.158	-200.000	-0.032	-0.228
-326.143	-36.948	0.163	-0.113
-325.129	28.952	0.065	0.071
-324.114	42.618	0.384	0.452
-323.099	-114.795	0.280	0.069
-322.085	71.774	0.174	-0.235
-321.070	317.264	0.154	-0.379
-320.056	30.826	-0.211	0.233
-319.041	-149.129	0.145	-0.015
-318.026	-108.024	-0.190	0.053
-317.012	42.224	-0.258	-0.304
-315.997	-200.000	0.013	0.342
-314.983	-24.479	-0.106	0.081
-313.968	800.000	0.027	0.153
-312.953	660.457	0.028	-0.094
-311.939	-87.594	0.371	-0.144
-310.924	-172.017	-0.465	-0.019
-309.910	340.398	0.227	-0.576
-308.895	-127.418	-0.198	0.037
-307.880	-40.749	0.101	-0.067
-306.866	-123.190	-0.213	0.044
-305.851	-180.477	-0.243	-0.006
-304.837	33.713	0.180	0.202
-303.822	349.170	0.236	0.605
-302.807	-35.212	-0.189	0.133
-301.793	204.263	-0.104	-0.209
-300.778	-200.000	-0.001	-0.404
-299.764	-93.413	-0.143	0.051
-298.749	-85.693	-0.352	-0.140
-297.735	-10.597	0.238	0.204
-296.720	-200.000	-0.037	0.294
-295.705	-137.613	0.325	0.047
-294.691	-200.000	0.022	0.220
-293.676	-200.000	0.032	0.426
-292.662	-41.459	0.344	0.229
-291.647	-157.786	-0.264	0.020
-290.632	-200.000	0.022	-0.312
-289.618	-200.000	-0.041	-0.267
-288.603	800.000	-0.059	-0.222
-287.589	-200.000	0.020	0.138
-286.574	-200.000	0.004	0.093
-285.559	102.045	0.070	0.106
-284.545	-200.000	0.020	-0.381
-283.530	-134.323	-0.161	0.025
-282.516	-200.000	0.019	-0.117
-281.501	404.799	-0.037	-0.101
-280.486	-10.622	-0.356	-0.304
-279.472	668.965	-0.015	0.052
-278.457	-77.820	-0.200	-0.089
-277.443	145.352	0.040	0.070
-276.428	-148.948	-0.188	0.019
-275.413	-177.111	-0.380	0.012
-274.399	-28.756	0.377	0.280
-273.384	-24.214	0.268	0.206
-272.370	210.080	-0.168	-0.342
-271.355	-200.000	0.006	-0.285
-270.340	-3.051	0.437	-0.394
-269.326	-187.506	-0.311	-0.005
-268.311	-155.906	0.387	0.031
-267.297	-77.719	-0.081	0.036
-266.282	-33.980	0.214	0.152
-265.267	-5.767	0.204	-0.180
-264.253	-103.593	0.197	-0.059
-263.238	-100.549	-0.537	-0.170
-262.224	-140.457	-0.382	0.051
-261.209	-187.621	-0.126	-0.002
-260.195	-99.414	0.338	0.109
-259.180	6.165	-0.458	-0.438
-258.165	-125.157	0.200	0.039
-257.151	-48.635	0.210	0.130
-256.136	-113.306	0.418	0.105
-255.122	226.027	-0.240	-0.503
-254.107	115.549	-0.207	-0.327
-253.092	-125.212	-0.464	0.091
-252.078	-189.787	0.155	0.002
-251.063	30.824	-0.287	0.317
-250.049	-123.458	-0.283	0.058
-249.034	-62.531	0.387	0.207
-248.019	-92.736	0.228	0.082
-247.005	-109.401	-0.253	0.069
-245.990	-16.249	-0.324	0.265
-244.976	96.708	0.191	-0.283
-243.961	-66.146	-0.376	0.193
-242.946	-100.367	-0.807	-0.256
-241.932	-135.153	0.475	-0.073
-240.917	570.609	-0.207	-0.654
-239.903	-23.493	-0.427	-0.330
-238.888	-43.168	0.226	0.147
-237.873	-11.265	-0.161	0.137
-236.859	-83.871	-0.073	0.030
-235.844	208.389	-0.035	-0.070
-234.830	8.865	0.065	0.064
-233.815	124.172	0.067	0.109
-232.800	80.602	-0.182	-0.254
-231.786	-57.386	0.443	-0.250
-230.771	51.014	-0.210	-0.256
-229.757	-200.000	-0.055	0.430
-228.742	-99.401	0.338	0.109
-227.727	-93.351	0.280	-0.100
-226.713	-79.707	-0.210	0.091
-225.698	-20.369	0.173	0.137
-224.684	-187.969	-0.109	-0.002
-223.669	800.000	0.057	-0.277
-222.655	-94.319	-0.195	-0.068
-221.640	-188.659	0.217	-0.003
-220.625	-200.000	0.006	0.107
-219.611	-36.796	-0.536	0.370
-218.596	98.535	0.245	0.365
-217.582	248.079	-0.273	0.598
-216.567	-20.867	-0.220	0.174
-215.552	-200.000	-0.033	-0.360
-214.538	-200.000	-0.012	-0.258
-213.523	404.787	-0.031	0.084
-212.509	-43.039	0.268	-0.175
-211.494	329.562	-0.157	0.391
-210.479	-200.000	0.037	-0.713
-209.465	-195.534	0.384	-0.004
-208.450	-29.972	0.138	0.101
-207.436	-153.754	0.452	-0.039
-206.421	-200.000	-0.004	0.111
-205.406	122.908	-0.071	-0.114
-204.392	-11.175	-0.441	0.374
-203.377	11.161	-0.069	0.068
-202.363	-137.410	0.471	0.068
-201.348	366.263	0.045	0.119
-200.333	-161.288	-0.157	-0.010
-199.319	-118.076	0.153	-0.035
-198.304	-44.108	-0.387	-0.249
-197.290	-200.000	-0.050	-0.346
-196.275	-3.245	-0.528	-0.474
-195.260	-200.000	-0.104	0.656
-194.246	1.186	0.189	-0.174
-193.231	617.801	-0.200	0.651
-192.217	-70.193	-0.149	-0.073
-191.202	-16.230	0.208	0.170
-190.187	-141.472	0.475	0.061
-189.173	800.000	-0.037	0.177
-188.158	800.000	-0.123	0.546
-187.144	502.251	0.113	-0.336
-186.129	-200.000	-0.007	-0.073
-185.114	242.797	0.075	0.162
-184.100	-79.521	0.232	-0.100
-183.085	-89.249	-0.227	0.086
-182.071	145.234	-0.059	0.101
-181.056	-93.099	0.355	0.126
-180.042	-46.432	-0.373	0.235
-179.027	800.000	0.027	0.104
-178.012	710.789	0.018	-0.061
-176.998	-1.040	0.136	-0.123
-175.983	81.465	0.099	0.138
-174.969	456.093	0.177	0.509
-173.954	575.319	0.073	0.231
-172.939	431.114	0.048	-0.134
-171.925	800.000	-0.014	0.078
-170.910	46.446	0.316	0.378
-169.896	203.191	-0.242	0.483
-168.881	39.171	0.129	0.148
-167.866	584.500	0.083	0.263
-166.852	-119.764	-0.411	-0.091
-165.837	-84.731	-0.229	-0.092
-164.823	-200.000	0.011	-0.271
-163.808	-200.000	-0.013	-0.118
-162.793	-200.000	-0.030	0.224
-161.779	-200.000	-0.006	-0.111
-160.764	-67.210	-0.500	0.252
-159.750	-53.387	0.088	0.052
-158.735	-16.580	0.444	-0.361
-157.720	2.829	-0.294	-0.275
-156.706	37.162	0.124	-0.141
-155.691	-82.337	0.541	-0.225
-154.677	-141.951	0.141	0.018
-153.662	353.180	-0.127	0.326
-152.647	100.596	-0.123	-0.183
-151.633	47.508	-0.165	0.198
-150.618	-23.776	0.178	0.137
-149.604	-123.647	0.079	-0.016
-148.589	-94.844	-0.176	-0.061
-147.574	-110.775	-0.683	-0.180
-146.560	-200.000	0.044	-0.270
-145.545	34.697	-0.123	-0.138
-144.531	101.760	0.151	-0.227
-143.516	-21.942	0.286	-0.223
-142.502	409.619	0.066	-0.180
-141.487	-68.430	-0.385	0.191
-140.472	800.000	-0.030	-0.114
-139.458	486.942	-0.110	-0.325
-138.443	70.756	-0.106	0.141
-137.429	-64.174	-0.747	0.390
-136.414	681.641	0.048	0.163
-135.399	6.325	-0.411	0.391
-134.385	-25.652	-0.171	-0.130
-133.370	800.000	0.023	-0.092
-132.356	-24.895	0.237	-0.180
-131.341	-33.325	-0.195	0.138
-130.326	-199.646	-0.090	-0.001
-129.312	-73.545	0.426	-0.199
-128.297	-73.268	0.384	0.180
-127.283	67.583	0.297	0.390
-126.268	5.522	-0.507	-0.481
-125.253	394.828	0.151	-0.405
-124.239	48.159	-0.301	0.362
-123.224	-48.385	0.063	0.039
-122.210	39.625	0.006	-0.007
-121.195	-200.000	-0.037	-0.222
-120.180	-74.544	0.246	-0.113
-119.166	21.116	-0.404	-0.421
-118.151	662.017	-0.050	-0.167
-117.137	-7.009	0.263	0.229
-116.122	800.000	-0.150	0.773
-115.107	-200.000	0.029	0.237
-114.093	-132.680	0.477	-0.078
-113.078	36.041	0.052	0.058
-112.064	-64.538	0.214	0.111
-111.049	22.327	-0.295	-0.310
-110.034	800.000	-0.033	0.153
-109.020	-74.972	-0.198	0.090
-108.005	44.578	0.284	-0.335
-106.991	-60.056	-0.087	0.048
-105.976	-126.320	-0.292	0.055
-104.962	-62.516	0.230	0.122
-103.947	-71.692	0.480	-0.229
-102.932	25.632	0.070	0.075
-101.918	-90.265	0.445	0.165
-100.903	-200.000	0.048	0.344
-99.889	-193.013	-0.447	0.005
-98.874	-142.710	0.275	-0.034
-97.859	279.790	-0.103	-0.236
-96.845	-200.000	-0.003	-0.147
-95.830	-123.611	0.377	0.076
-94.816	-101.536	0.222	0.069
-93.801	-9.271	0.231	0.198
-92.786	-200.000	-0.056	-0.480
-91.772	88.169	0.357	0.509
-90.757	-200.000	-0.043	0.444
-89.743	81.853	-0.353	0.491
-88.728	-200.000	-0.017	-0.113
-87.713	-113.817	0.193	0.048
-86.699	-115.879	-0.338	-0.080
-85.684	36.833	-0.283	0.321
-84.670	-121.485	0.241	-0.051
-83.655	-1.211	-0.158	-0.143
-82.640	26.778	0.115	-0.123
-81.626	-124.386	0.267	0.053
-80.611	800.000	-0.221	-0.885
-79.597	199.657	0.053	-0.104
-78.582	-56.018	0.325	-0.185
-77.567	-56.159	-0.236	0.134
-76.553	73.006	0.212	0.284
-75.538	-200.000	0.039	0.259
-74.524	-1.951	-0.171	0.154
-73.509	131.803	0.110	0.182
-72.494	44.132	-0.172	-0.202
-71.480	-147.481	0.455	-0.049
-70.465	-167.721	-0.159	0.008
-69.451	-39.856	-0.368	0.246
-68.436	-129.503	0.237	-0.042
-67.422	2.795	-0.357	-0.332
-66.407	800.000	0.052	-0.278
-65.392	800.000	-0.103	-0.434
-64.378	800.000	-0.182	-0.684
-63.363	-20.364	-0.349	0.275
-62.349	-137.227	-0.615	-0.089
-61.334	8.293	-2.500	-2.405
-60.319	42.186	0.798	0.929
-59.305	187.491	-3.594	-6.889
-58.290	60.786	3.623	4.605
-57.276	328.761	4.202	10.383
-56.261	-200.000	19.440	287.610
-55.246	386.515	1260.114	3348.032
-54.232	55.196	2844.944	3524.414
-53.217	53.862	2699.571	3323.515
-52.203	38.031	2427.945	2765.836
-51.188	34.124	2083.964	2325.988
-50.173	30.199	1962.737	2145.071
-49.159	28.808	1952.254	2117.435
-48.144	28.530	1947.750	2109.245
-47.130	28.456	1946.292	2106.726
-46.115	28.521	1943.594	2104.481
-45.100	28.462	1943.317	2103.417
-44.086	28.528	1940.948	2101.527
-43.071	28.464	1940.357	2100.067
-42.057	28.255	1939.196	2096.324
-41.042	28.206	1937.612	2093.955
-40.027	28.292	1935.501	2092.588
-39.013	28.289	1933.835	2090.666
-37.998	28.387	1931.792	2089.494
-36.984	28.218	1931.784	2087.468
-35.969	28.292	1930.019	2086.330
-34.954	28.177	1929.214	2084.058
-33.940	28.282	1927.694	2083.528
-32.925	28.270	1926.085	2081.578
-31.911	28.253	1924.986	2080.107
-30.896	28.222	1923.999	2078.601
-29.881	28.234	1921.941	2076.434
-28.867	28.227	1921.579	2075.879
-27.852	28.223	1920.100	2074.158
-26.838	28.164	1918.527	2071.702
-25.823	28.164	1916.434	2069.365
-24.809	28.087	1914.908	2066.758
-23.794	28.164	1914.469	2067.077
-22.779	28.156	1912.553	2064.832
-21.765	28.163	1911.308	2063.491
-20.750	28.153	1909.690	2061.551
-19.736	28.250	1908.772	2061.573
-18.721	28.055	1907.768	2058.199
-17.706	28.064	1906.874	2057.259
-16.692	28.043	1906.084	2056.086
-15.677	28.056	1904.202	2054.114
-14.663	28.016	1903.377	2052.700
-13.648	28.055	1901.131	2050.631
-12.633	28.017	1900.300	2049.224
-11.619	27.946	1898.994	2046.938
-10.604	28.100	1897.804	2047.309
-9.590	27.993	1896.735	2044.864
-8.575	28.033	1895.657	2044.076
-7.560	27.994	1895.013	2042.858
-6.546	27.841	1894.401	2040.403
-5.531	27.889	1892.523	2038.831
-4.517	27.960	1890.799	2037.689
-3.502	28.076	1890.145	2038.213
-2.487	28.029	1888.697	2036.040
-1.473	28.169	1884.378	2032.867
-0.458	27.373	1865.290	2003.389
0.556	22.841	2005.529	2087.685
1.571	20.647	2214.703	2276.324
2.586	21.568	2255.715	2330.539
3.600	21.707	2258.760	2335.261
4.615	21.756	2257.528	2334.372
5.629	21.529	2256.086	2329.561
6.644	21.619	2253.126	2327.425
7.659	21.708	2251.937	2327.113
8.673	21.622	2250.534	2324.230
9.688	21.422	2257.221	2328.184
10.702	19.788	2335.264	2385.749
11.717	17.828	2399.827	2423.460
12.731	8.583	2378.994	2270.750
13.746	1.151	2358.241	2145.249
14.761	0.253	2353.438	2127.884
15.775	0.115	2352.336	2124.677
16.790	0.111	2350.237	2122.460
17.804	0.077	2348.667	2120.307
18.819	0.147	2347.983	2120.436
19.834	0.098	2346.207	2117.878
20.848	0.074	2344.938	2116.150
21.863	0.036	2343.157	2113.752
22.877	-0.025	2341.863	2111.467
23.892	0.050	2338.991	2109.686
24.907	0.024	2336.342	2106.679
25.921	-0.038	2335.854	2105.111
26.936	0.058	2332.574	2103.244
27.950	0.007	2330.246	2100.179
28.965	-0.047	2328.958	2098.019
29.980	0.059	2327.005	2097.481
30.994	0.179	2324.809	2096.932
32.009	4.282	2337.555	2165.845
33.023	14.407	2367.268	2336.432
34.038	18.598	2373.829	2401.740
35.053	18.563	2370.808	2397.906
36.067	18.587	2367.828	2394.945
37.082	18.424	2366.993	2391.525
38.096	18.488	2364.793	2389.915
39.111	18.746	2362.890	2391.310
40.126	18.940	2360.621	2391.449
41.140	18.874	2361.279	2390.898
42.155	19.050	2358.991	2390.761
43.169	19.007	2356.665	2387.516
44.184	18.804	2352.622	2380.296
45.199	18.885	2349.971	2378.465
46.213	18.778	2350.319	2377.040
47.228	18.937	2348.951	2377.578
48.242	18.939	2347.867	2376.225
49.257	19.102	2345.564	2375.871
50.271	19.047	2343.078	2372.305
51.286	18.922	2339.813	2366.985
52.301	18.768	2338.172	2362.924
53.315	19.584	2341.440	2377.240
54.330	22.718	2350.934	2430.048
55.344	24.819	2352.802	2460.774
56.359	25.064	2349.714	2460.632
57.374	25.121	2349.481	2460.871
58.388	25.199	2346.343	2458.371
59.403	24.913	2341.757	2449.343
60.417	24.626	2337.562	2440.712
61.432	24.572	2336.120	2438.173
62.447	24.891	2334.691	2440.764
63.461	25.027	2333.318	2440.905
64.476	25.077	2331.695	2439.591
65.490	24.843	2329.498	2433.804
66.505	24.105	2325.910	2419.697
67.520	21.786	2316.927	2378.472
68.534	19.504	2307.783	2337.762
69.549	18.775	2302.932	2322.669
70.563	18.680	2300.199	2318.346
71.578	18.638	2299.315	2316.608
72.593	18.626	2297.672	2314.501
73.607	18.968	2295.847	2317.031
74.622	18.864	2293.963	2313.439
75.636	18.674	2290.500	2307.103
76.651	18.575	2287.893	2302.867
77.666	18.679	2285.862	2301.945
78.680	18.559	2284.048	2298.226
79.695	18.376	2282.067	2293.499
80.709	18.371	2281.064	2292.143
81.724	18.334	2279.177	2289.475
82.739	18.323	2276.244	2286.118
83.753	18.328	2274.374	2284.033
84.768	18.392	2272.457	2282.682
85.782	18.397	2270.832	2280.844
86.797	18.371	2269.883	2279.269
87.812	18.368	2267.859	2276.926
88.826	18.547	2266.279	2277.461
89.841	18.611	2262.969	2274.715
90.855	18.547	2261.298	2271.911
91.870	18.598	2259.778	2270.785
92.884	18.459	2258.986	2267.869
93.899	18.557	2257.884	2267.801
94.914	19.233	2260.482	2279.130
95.928	21.828	2268.161	2321.176
96.943	22.943	2266.259	2333.763
97.957	20.307	2255.776	2287.807
98.972	18.762	2249.257	2260.488
99.987	18.450	2246.245	2253.078
101.001	18.546	2243.143	2250.963
102.016	18.585	2241.977	2250.032
103.030	18.456	2239.096	2245.177
104.045	18.361	2237.693	2242.250
105.060	18.467	2234.339	2240.012
106.074	18.442	2232.831	2237.899
107.089	18.377	2231.645	2235.588
108.103	18.462	2230.447	2235.241
109.118	18.486	2228.648	2233.488
110.133	18.613	2226.622	2232.853
111.147	18.433	2224.304	2227.906
112.162	18.354	2223.499	2225.795
113.176	18.616	2220.352	2225.799
114.191	18.629	2219.415	2224.768
115.206	18.526	2218.351	2222.094
116.220	18.499	2216.439	2219.560
117.235	18.623	2213.787	2218.246
118.249	18.633	2212.503	2216.823
119.264	18.702	2211.002	2215.952
120.279	18.584	2209.130	2212.282
121.293	18.569	2206.821	2209.508
122.308	18.719	2204.869	2209.226
123.322	18.597	2203.439	2205.956
124.337	18.977	2205.932	2213.101
125.352	21.880	2214.453	2259.015
126.366	22.712	2212.745	2267.758
127.381	19.957	2200.658	2219.652
128.395	18.519	2195.188	2195.375
129.410	18.467	2192.649	2191.906
130.424	18.351	2192.165	2189.673
131.439	18.491	2189.718	2188.758
132.454	18.531	2188.478	2187.763
133.468	18.689	2185.913	2186.963
134.483	18.760	2185.564	2187.264
135.497	18.817	2183.876	2186.043
136.512	18.691	2180.836	2181.126
137.527	18.687	2177.730	2177.711
138.541	18.333	2177.467	2172.671
139.556	18.372	2176.364	2171.805
140.570	18.333	2174.972	2169.663
141.585	18.270	2172.821	2166.458
142.600	18.396	2170.560	2165.545
143.614	18.360	2170.254	2164.526
144.629	18.315	2167.923	2161.372
145.643	18.281	2167.014	2159.776
146.658	18.327	2165.247	2158.336
147.673	18.498	2162.363	2157.360
148.687	18.410	2161.003	2154.639
149.702	18.446	2160.405	2154.238
150.716	18.444	2159.967	2153.513
151.731	18.512	2159.080	2153.229
152.746	18.570	2157.994	2152.621
153.760	19.248	2161.019	2163.947
154.775	22.232	2168.817	2209.241
155.789	23.202	2167.668	2220.035
156.804	20.642	2154.352	2174.022
157.819	18.786	2147.224	2143.303
158.833	18.450	2144.661	2136.284
159.848	18.592	2142.708	2135.867
160.862	18.660	2141.236	2134.989
161.877	18.577	2141.964	2134.419
162.892	18.613	2140.273	2132.928
163.906	18.682	2138.499	2131.771
164.921	18.612	2135.779	2127.930
165.935	18.544	2133.841	2124.898
166.950	18.639	2132.064	2124.060
167.964	18.595	2130.631	2121.823
168.979	18.317	2128.249	2115.749
169.994	18.230	2126.307	2112.481
171.008	18.226	2124.242	2110.131
172.023	18.171	2123.469	2108.433
173.037	18.338	2122.434	2109.219
174.052	18.496	2121.422	2109.908
175.067	18.515	2119.047	2107.530
176.081	18.532	2117.878	2106.329
177.096	18.631	2116.408	2105.835
178.110	18.649	2114.441	2103.846
179.125	18.558	2113.252	2101.295
180.140	18.505	2112.203	2099.344
181.154	18.580	2111.233	2099.055
182.169	18.800	2110.565	2100.840
183.183	19.530	2113.440	2112.435
184.198	22.724	2121.787	2159.889
185.213	23.427	2118.686	2165.108
186.227	20.131	2108.579	2114.183
187.242	18.904	2103.347	2093.673
188.256	18.621	2101.245	2087.877
189.271	18.501	2099.306	2084.227
190.286	18.465	2097.311	2081.555
191.300	18.442	2095.262	2078.998
192.315	18.445	2093.263	2076.804
193.329	18.696	2092.847	2079.192
194.344	18.849	2091.770	2079.736
195.359	18.883	2090.149	2078.292
196.373	18.630	2087.660	2072.493
197.388	18.468	2085.667	2068.301
198.402	18.446	2083.037	2065.182
199.417	18.419	2079.817	2061.410
200.432	18.389	2078.819	2059.822
201.446	18.330	2078.408	2058.447
202.461	18.311	2076.915	2056.497
203.475	18.289	2075.117	2054.203
204.490	18.378	2072.231	2052.178
205.504	18.447	2069.938	2050.482
206.519	18.332	2068.972	2047.899
207.534	18.357	2067.382	2046.384
208.548	18.325	2066.511	2044.897
209.563	18.516	2065.480	2045.917
210.577	18.713	2063.674	2046.248
211.592	18.759	2063.069	2045.954
212.607	19.916	2068.997	2065.473
213.621	23.327	2076.676	2113.882
214.636	22.993	2069.515	2102.346
215.650	19.919	2059.022	2054.807
216.665	18.731	2056.041	2037.427
217.680	18.688	2053.752	2034.402
218.694	18.497	2051.791	2029.946
219.709	18.345	2050.280	2026.401
220.723	18.414	2049.622	2026.326
221.738	18.466	2047.736	2024.833
222.753	18.600	2045.544	2024.013
223.767	18.558	2043.997	2021.742
224.782	18.642	2042.016	2020.537
225.796	18.519	2040.027	2016.870
226.811	18.642	2039.017	2017.083
227.826	18.638	2037.517	2015.315
228.840	18.433	2036.065	2011.216
229.855	18.329	2035.123	2008.815
230.869	18.455	2033.937	2008.888
231.884	18.448	2031.861	2006.516
232.899	18.480	2031.135	2005.943
233.913	18.496	2030.331	2005.096
234.928	18.524	2028.198	2003.076
235.942	18.534	2026.816	2001.588
236.957	18.604	2024.628	2000.012
237.972	18.560	2023.998	1998.636
238.986	18.594	2023.402	1998.207
240.001	18.539	2021.504	1995.447
241.015	18.644	2020.287	1995.234
242.030	19.482	2022.169	2006.645
243.045	22.297	2029.320	2046.469
244.059	22.867	2026.035	2049.569
245.074	19.923	2016.391	2005.328
246.088	18.903	2011.569	1988.447
247.103	18.987	2009.679	1987.308
248.117	18.893	2008.507	1984.823
249.132	18.738	2006.045	1980.353
250.147	18.778	2003.863	1978.431
251.161	18.515	2004.050	1975.334
252.176	18.855	2001.829	1976.842
253.190	18.954	2000.225	1976.167
254.205	19.004	1999.167	1975.453
255.220	19.033	1997.095	1973.504
256.234	18.905	1996.872	1971.580
257.249	18.618	1995.010	1966.191
258.263	18.441	1993.642	1962.570
259.278	18.453	1991.727	1960.587
260.293	18.525	1989.693	1959.181
261.307	18.478	1987.996	1956.734
262.322	18.275	1987.194	1953.389
263.336	18.331	1983.873	1950.534
264.351	18.271	1983.013	1948.764
265.366	18.232	1982.014	1947.096
266.380	18.361	1980.760	1947.116
267.395	18.226	1978.801	1943.406
268.409	18.173	1977.804	1941.598
269.424	18.298	1976.936	1941.932
270.439	18.347	1976.301	1941.640
271.453	19.554	1978.594	1957.420
272.468	22.696	1985.172	1999.557
273.482	22.885	1981.253	1997.519
274.497	19.929	1970.472	1952.938
275.512	18.528	1966.208	1932.618
276.526	18.321	1963.856	1927.731
277.541	18.320	1961.730	1925.397
278.555	18.187	1960.316	1922.278
279.570	18.268	1957.878	1920.575
280.585	18.281	1957.702	1920.315
281.599	18.265	1956.559	1918.784
282.614	18.574	1955.606	1921.104
283.628	18.852	1954.927	1923.330
284.643	18.920	1953.906	1922.860
285.657	19.106	1952.333	1923.169
286.672	19.044	1951.893	1921.813
287.687	19.210	1949.943	1921.529
288.701	19.280	1948.841	1920.999
289.716	19.078	1947.168	1916.859
290.730	19.143	1946.315	1916.517
291.745	19.122	1944.917	1914.667
292.760	19.298	1943.985	1915.491
293.774	19.192	1943.875	1913.964
294.789	19.137	1941.719	1911.001
295.803	18.928	1937.159	1903.956
296.818	18.687	1936.055	1899.967
297.833	18.767	1935.084	1899.676
298.847	18.815	1933.855	1898.776
299.862	18.813	1931.756	1896.468
300.876	19.454	1934.686	1906.240
301.891	22.613	1942.634	1949.000
302.906	23.318	1939.644	1953.581
303.920	20.072	1930.790	1908.558
304.935	18.981	1924.815	1890.375
305.949	18.800	1922.701	1886.073
306.964	18.715	1920.601	1882.857
307.979	18.821	1919.958	1883.161
308.993	18.912	1919.758	1883.740
310.008	19.319	1917.410	1885.691
311.022	19.286	1916.137	1883.854
312.037	19.118	1914.636	1880.303
313.052	19.150	1912.067	1877.914
314.066	19.191	1911.214	1877.297
315.081	19.121	1910.798	1875.893
316.095	19.193	1908.815	1874.507
317.110	18.817	1907.060	1868.457
318.125	18.714	1904.519	1864.614
319.139	18.426	1903.303	1860.062
320.154	18.751	1902.293	1862.400
321.168	18.603	1901.293	1859.585
322.183	18.609	1899.230	1857.402
323.197	18.453	1897.895	1854.181
324.212	18.347	1895.867	1850.822
325.227	18.356	1893.620	1848.507
326.241	18.257	1892.586	1846.209
327.256	18.422	1891.667	1846.873
328.270	18.336	1890.754	1844.836
329.285	18.333	1890.058	1843.901
330.300	19.421	1894.870	1860.175
331.314	22.848	1901.114	1903.279
332.329	23.008	1895.862	1899.524
333.343	19.564	1886.237	1852.577
334.358	18.451	1882.374	1836.573
335.373	18.401	1879.590	1833.102
336.387	18.283	1878.210	1830.271
337.402	18.266	1876.661	1828.353
338.416	18.491	1875.708	1829.622
339.431	18.537	1874.521	1828.742
340.446	18.344	1873.113	1825.083
341.460	18.536	1872.035	1825.867
342.475	18.786	1870.414	1826.739
343.489	18.872	1868.590	1825.653
344.504	18.752	1868.546	1824.110
345.519	18.945	1865.852	1823.325
346.533	19.041	1864.903	1823.204
347.548	19.125	1864.961	1823.936
348.562	19.477	1864.851	1827.351
349.577	20.257	1865.684	1836.250
350.592	20.113	1863.026	1831.892
351.606	19.431	1861.384	1822.818
352.621	19.316	1858.223	1818.276
353.635	18.971	1857.051	1813.258
354.650	19.009	1855.045	1811.484
355.665	18.709	1853.080	1806.174
356.679	18.791	1851.003	1804.802
357.694	18.817	1849.797	1803.683
358.708	18.751	1848.878	1801.877
359.723	19.995	1853.533	1819.346
360.738	23.144	1860.139	1858.926
361.752	22.844	1854.083	1849.489
362.767	19.768	1845.299	1808.228
363.781	18.789	1841.288	1793.807
364.796	18.722	1839.547	1791.192
365.810	18.621	1838.610	1789.003
366.825	18.628	1837.619	1787.898
367.840	18.901	1837.049	1789.995
368.854	19.131	1836.523	1791.674
369.869	19.065	1833.804	1788.117
370.883	19.097	1833.262	1787.712
371.898	19.354	1833.445	1790.354
372.913	19.786	1833.274	1794.479
373.927	19.948	1831.871	1794.574
374.942	19.324	1829.100	1785.161
375.956	19.032	1826.586	1779.451
376.971	18.870	1824.201	1775.236
377.986	18.746	1822.400	1771.989
379.000	18.680	1821.839	1770.543
380.015	18.664	1820.026	1768.400
381.029	18.531	1818.312	1765.146
382.044	18.444	1816.579	1762.352
383.059	18.584	1813.884	1760.978
384.073	18.485	1814.045	1759.900
385.088	18.451	1813.600	1758.910
386.102	18.349	1812.065	1756.159
387.117	18.447	1809.734	1754.691
388.132	18.375	1809.652	1753.667
389.146	19.486	1813.297	1768.433
390.161	22.811	1818.338	1807.419
391.175	22.747	1811.180	1799.433
392.190	19.675	1803.151	1759.845
393.205	18.756	1799.559	1746.741
394.219	18.566	1797.738	1742.817
395.234	18.505	1796.924	1741.197
396.248	18.471	1794.742	1738.524
397.263	18.336	1792.947	1735.211
398.278	18.517	1790.935	1734.894
399.292	18.443	1790.438	1733.448
400.307	18.516	1789.341	1732.923
401.321	18.732	1787.834	1733.446
402.336	18.638	1787.058	1731.539
403.350	18.641	1786.192	1730.516
404.365	18.888	1784.918	1731.580
405.380	18.921	1783.638	1730.469
406.394	19.121	1783.566	1732.211
407.409	19.290	1782.726	1732.898
408.423	19.463	1781.166	1732.922
409.438	19.364	1778.870	1729.476
410.453	19.168	1777.612	1726.075
411.467	19.229	1776.618	1725.523
412.482	18.993	1774.448	1720.829
413.496	18.691	1773.419	1716.596
414.511	18.756	1771.315	1715.001
415.526	18.688	1768.603	1711.490
416.540	18.578	1767.624	1709.231
417.555	18.529	1766.349	1707.312
418.569	18.779	1766.887	1710.129
419.584	18.706	1766.581	1708.892
420.599	18.864	1766.016	1709.724
421.613	18.749	1764.855	1707.242
422.628	18.695	1762.705	1704.421
423.642	18.641	1761.102	1702.128
424.657	18.400	1759.759	1698.228
425.672	18.668	1758.510	1699.490
426.686	18.844	1757.211	1699.782
427.701	18.684	1755.773	1696.588
428.715	18.715	1754.827	1695.784
429.730	18.961	1753.216	1696.464
430.745	18.856	1752.178	1694.220
431.759	18.857	1752.272	1694.110
432.774	19.123	1752.448	1696.718
433.788	19.630	1752.361	1701.449
434.803	19.779	1751.577	1701.963
435.818	19.767	1750.989	1701.065
436.832	19.626	1750.544	1699.032
437.847	18.982	1742.987	1685.161
438.861	10.930	1721.336	1585.409
439.876	2.059	1704.640	1483.470
440.890	0.262	1701.016	1462.606
441.905	0.108	1699.588	1459.705
442.920	0.151	1697.541	1458.195
443.934	0.147	1696.318	1456.929
444.949	0.177	1694.763	1455.709
445.963	0.097	1695.054	1455.007
446.978	0.007	1694.330	1453.334
447.993	0.058	1692.778	1452.327
449.007	0.086	1689.895	1449.953
450.022	0.145	1688.561	1449.208
451.036	0.013	1687.353	1446.720
452.051	1.007	1691.819	1460.011
453.066	9.355	1710.642	1557.604
454.080	18.203	1724.262	1656.278
455.095	20.567	1728.578	1683.264
456.109	21.710	1731.221	1696.766
457.124	22.284	1731.079	1702.015
458.139	22.312	1730.345	1701.353
459.153	22.566	1729.014	1702.312
460.168	22.485	1726.694	1699.034
461.182	22.239	1725.390	1695.166
462.197	22.249	1723.431	1693.138
463.212	22.136	1721.365	1689.809
464.226	22.082	1720.658	1688.397
465.241	22.468	1719.638	1690.917
466.255	22.687	1718.927	1692.127
467.270	22.674	1717.634	1690.529
468.285	22.408	1715.457	1685.620
469.299	22.241	1713.846	1682.233
470.314	22.411	1712.480	1682.327
471.328	22.364	1712.000	1681.199
472.343	22.405	1710.799	1680.211
473.358	22.389	1710.058	1679.133
474.372	22.450	1709.004	1678.482
475.387	22.318	1706.096	1674.158
476.401	22.165	1704.453	1670.884
477.416	22.191	1703.716	1670.208
478.430	22.212	1702.873	1669.382
479.445	22.121	1700.839	1666.320
480.460	21.849	1699.672	1662.394
481.474	22.040	1699.605	1663.940
482.489	22.417	1699.112	1666.852
483.503	22.829	1697.562	1669.045
484.518	22.807	1696.751	1667.838
485.533	22.728	1694.581	1664.757
486.547	22.794	1693.683	1664.303
487.562	23.187	1693.978	1668.114
488.576	23.090	1691.311	1664.372
489.591	23.019	1689.937	1662.153
490.606	22.741	1689.098	1658.498
491.620	22.834	1687.371	1657.488
492.635	23.389	1685.178	1660.365
493.649	23.472	1684.154	1659.937
494.664	22.805	1682.296	1651.636
495.679	21.962	1679.938	1641.202
496.693	22.164	1679.230	1642.208
497.708	22.696	1678.303	1646.099
498.722	23.216	1678.089	1650.565
499.737	23.175	1677.254	1649.159
500.752	22.979	1674.573	1644.494
501.766	22.702	1672.845	1640.016
502.781	22.766	1671.910	1639.499
503.795	22.981	1670.423	1639.851
504.810	22.815	1670.562	1638.239
505.825	23.159	1670.335	1641.029
506.839	23.111	1668.254	1638.347
507.854	23.063	1665.775	1635.265
508.868	23.140	1665.077	1635.104
509.883	23.107	1663.694	1633.241
510.898	23.224	1663.736	1634.171
511.912	23.056	1661.660	1630.380
512.927	22.721	1658.883	1624.357
513.941	22.772	1657.620	1623.403
514.956	22.670	1656.336	1621.010
515.971	22.757	1655.432	1620.734
516.985	22.914	1654.469	1621.046
518.000	23.007	1653.723	1620.979
519.014	23.322	1653.686	1623.648
520.029	23.312	1652.533	1622.228
521.043	23.327	1650.265	1619.952
522.058	23.197	1649.165	1617.480
523.073	23.365	1649.131	1618.792
524.087	23.788	1648.158	1621.531
525.102	23.636	1646.041	1617.856
526.116	23.095	1643.667	1610.378
527.131	23.096	1642.894	1609.442
528.146	23.480	1643.673	1613.526
529.160	23.855	1642.140	1615.253
530.175	23.715	1641.673	1613.324
531.189	23.987	1640.311	1614.270
532.204	23.941	1638.502	1611.876
533.219	23.367	1636.822	1604.806
534.233	22.789	1635.602	1598.160
535.248	23.293	1635.194	1602.151
536.262	23.871	1635.965	1607.973
537.277	23.923	1633.455	1605.782
538.292	23.455	1631.387	1599.316
539.306	23.514	1629.462	1597.771
540.321	23.545	1627.913	1596.342
541.335	23.327	1626.794	1593.084
542.350	23.693	1625.255	1594.693
543.365	23.941	1624.592	1596.085
544.379	24.045	1623.383	1595.643
545.394	24.214	1621.682	1595.305
546.408	23.484	1619.813	1586.713
547.423	22.840	1617.654	1578.617
548.438	22.852	1616.838	1577.743
549.452	23.205	1616.221	1580.126
550.467	23.497	1615.549	1581.889
551.481	23.448	1615.004	1580.736
552.496	23.781	1614.847	1583.371
553.511	24.294	1613.818	1586.762
554.525	24.200	1613.286	1585.209
555.540	24.324	1611.969	1584.838
556.554	24.322	1610.486	1583.169
557.569	24.308	1608.744	1581.138
558.583	24.006	1606.866	1576.416
559.598	23.870	1605.418	1573.599
560.613	23.895	1604.424	1572.660
561.627	23.913	1603.936	1572.155
562.642	24.159	1602.928	1573.159
563.656	24.505	1601.947	1575.074
564.671	24.422	1600.717	1572.948
565.686	24.358	1598.935	1570.442
566.700	24.103	1596.379	1565.487
567.715	23.838	1595.474	1562.072
568.729	23.568	1592.797	1556.885
569.744	23.386	1591.256	1553.585
570.759	23.459	1590.924	1553.722
571.773	23.626	1590.504	1554.597
572.788	23.989	1589.935	1557.045
573.802	24.001	1588.489	1555.546
574.817	24.123	1587.314	1555.286
575.832	24.504	1586.540	1557.682
576.846	24.494	1584.901	1555.793
577.861	24.295	1583.226	1552.223
578.875	24.272	1583.664	1552.263
579.890	24.591	1583.041	1554.256
580.905	24.672	1581.861	1553.625
581.919	24.864	1581.074	1554.345
582.934	24.999	1580.636	1554.902
583.948	24.952	1579.036	1552.729
584.963	24.745	1577.427	1549.165
585.978	24.354	1574.832	1543.027
586.992	24.461	1574.911	1543.853
588.007	24.826	1574.435	1546.369
589.021	24.037	1571.587	1536.545
590.036	23.360	1569.856	1528.798
591.051	23.988	1569.666	1533.875
592.065	24.479	1569.018	1537.309
593.080	24.772	1567.069	1537.752
594.094	24.806	1565.567	1536.384
595.109	24.240	1562.730	1528.541
596.123	23.692	1561.274	1522.214
597.138	24.275	1560.779	1526.563
598.153	24.520	1560.102	1527.829
599.167	24.504	1559.125	1526.550
600.182	24.480	1558.728	1525.774
601.196	24.746	1557.920	1527.088
602.211	24.611	1556.144	1524.006
603.226	24.882	1555.358	1525.370
604.240	25.031	1554.465	1525.590
605.255	25.180	1553.232	1525.472
606.269	25.213	1552.728	1525.071
607.284	24.965	1551.181	1521.259
608.299	25.194	1548.907	1520.791
609.313	24.716	1547.566	1515.221
610.328	24.869	1546.686	1515.483
611.342	24.997	1545.047	1514.785
612.357	25.056	1545.573	1515.619
613.372	25.066	1544.528	1514.501
614.386	24.958	1542.897	1511.806
615.401	25.045	1542.689	1512.156
616.415	24.972	1541.518	1510.208
617.430	25.246	1540.624	1511.470
618.445	25.259	1539.489	1510.288
619.459	25.047	1538.155	1507.005
620.474	24.539	1536.243	1500.666
621.488	24.046	1533.792	1493.931
622.503	23.596	1533.219	1489.401
623.518	24.506	1532.669	1496.355
624.532	24.985	1532.669	1500.215
625.547	25.060	1531.795	1499.808
626.561	25.381	1531.444	1501.980
627.576	25.463	1530.159	1501.234
628.591	24.981	1527.289	1494.195
629.605	24.658	1525.481	1489.543
630.620	24.482	1523.374	1485.833
631.634	24.188	1521.582	1481.450
632.649	24.341	1521.352	1482.332
633.663	24.647	1521.403	1484.759
634.678	25.110	1521.098	1488.143
635.693	25.607	1519.386	1490.432
636.707	25.546	1518.941	1489.313
637.722	25.827	1517.503	1490.056
638.736	25.774	1516.860	1488.807
639.751	25.828	1515.408	1487.650
640.766	25.634	1514.765	1485.238
641.780	25.720	1513.349	1484.377
642.795	25.613	1511.816	1481.814
643.809	25.667	1511.613	1481.884
644.824	25.738	1510.703	1481.402
645.839	25.469	1509.432	1477.755
646.853	25.710	1507.544	1477.721
647.868	25.666	1506.094	1475.756
648.882	25.488	1504.910	1472.953
649.897	25.392	1503.050	1470.170
650.912	25.331	1502.946	1469.393
651.926	25.482	1501.671	1469.208
652.941	25.138	1499.143	1463.734
653.955	24.700	1496.704	1457.589
654.970	24.162	1494.340	1450.714
655.985	24.005	1493.164	1448.110
656.999	24.180	1492.030	1448.268
658.014	24.568	1491.515	1450.768
659.028	25.023	1491.823	1454.607
660.043	25.319	1491.869	1456.887
661.058	25.484	1490.246	1456.474
662.072	25.687	1489.117	1456.849
663.087	25.548	1488.169	1454.613
664.101	25.372	1487.013	1451.881
665.116	25.479	1486.369	1451.946
666.131	25.505	1485.886	1451.516
667.145	25.566	1484.048	1450.044
668.160	25.879	1483.292	1451.665
669.174	26.028	1482.671	1452.085
670.189	26.051	1480.806	1450.274
671.204	25.922	1480.086	1448.348
672.218	25.956	1479.083	1447.471
673.233	26.018	1478.128	1446.863
674.247	26.398	1477.700	1449.337
675.262	26.432	1476.840	1448.590
676.276	26.244	1475.313	1445.407
677.291	26.146	1473.754	1442.916
678.306	25.745	1471.992	1437.800
679.320	25.714	1471.401	1436.809
680.335	25.979	1471.422	1438.781
681.349	26.071	1470.975	1438.907
682.364	25.982	1469.720	1436.792
683.379	26.112	1467.523	1435.513
684.393	26.069	1466.675	1434.171
685.408	26.120	1465.515	1433.268
686.422	26.018	1464.020	1430.827
687.437	25.964	1463.845	1430.055
688.452	26.254	1463.618	1431.970
689.466	26.077	1461.616	1428.430
690.481	25.963	1459.541	1425.327
691.495	25.633	1458.398	1421.423
692.510	25.036	1455.674	1413.862
693.525	24.524	1453.996	1408.007
694.539	24.778	1454.559	1410.391
695.554	25.527	1454.767	1416.362
696.568	26.128	1454.584	1420.771
697.583	26.240	1453.577	1420.503
698.598	26.233	1452.674	1419.393
699.612	26.350	1452.155	1419.640
700.627	26.526	1450.199	1418.947
701.641	26.365	1448.788	1416.127
702.656	26.338	1447.940	1414.918
703.671	26.684	1448.088	1417.617
704.685	26.563	1447.623	1416.038
705.700	26.445	1445.800	1413.163
706.714	26.086	1443.471	1407.895
707.729	26.022	1441.692	1405.495
708.744	25.873	1440.377	1402.876
709.758	25.858	1438.732	1400.990
710.773	25.366	1436.505	1394.817
711.787	25.141	1435.370	1391.790
712.802	25.637	1434.519	1394.666
713.816	25.907	1434.300	1396.386
714.831	26.278	1433.215	1398.052
715.846	26.442	1432.668	1398.623
716.860	26.370	1432.029	1397.274
717.875	26.429	1430.985	1396.544
718.889	26.168	1429.556	1392.962
719.904	26.295	1428.868	1393.110
720.919	26.516	1427.266	1393.090
721.933	26.474	1426.773	1392.118
722.948	26.593	1426.375	1392.482
723.962	26.404	1425.659	1390.150
724.977	26.555	1425.185	1390.695
725.992	26.696	1423.492	1389.963
727.006	26.597	1421.684	1387.267
728.021	26.876	1419.872	1387.473
729.035	26.833	1419.651	1386.761
730.050	26.677	1419.040	1384.804
731.065	26.700	1417.301	1383.120
732.079	26.903	1416.914	1384.133
733.094	26.667	1415.035	1380.323
734.108	26.521	1413.176	1377.225
735.123	26.703	1411.286	1376.609
736.138	26.615	1410.771	1375.269
737.152	26.651	1410.617	1375.232
738.167	26.844	1409.905	1375.848
739.181	26.981	1409.141	1375.976
740.196	26.922	1408.091	1374.342
741.211	26.781	1407.088	1372.125
742.225	26.660	1406.248	1370.219
743.240	26.580	1404.874	1368.106
744.254	26.765	1403.259	1367.778
745.269	26.682	1402.138	1365.890
746.284	26.477	1401.413	1363.469
747.298	26.644	1399.646	1362.847
748.313	26.091	1397.892	1356.803
749.327	25.488	1396.998	1351.218
750.342	25.053	1395.193	1346.025
751.356	24.801	1392.473	1341.340
752.371	25.081	1392.346	1343.165
753.386	26.002	1393.493	1351.049
754.400	26.601	1393.486	1355.393
755.415	26.823	1392.590	1356.026
756.429	26.930	1391.680	1355.784
757.444	26.918	1389.972	1353.862
758.459	27.029	1389.416	1353.991
759.473	27.185	1388.088	1353.706
760.488	27.009	1386.631	1350.808
761.502	27.034	1385.411	1349.640
762.517	26.911	1384.460	1347.636
763.532	26.767	1382.597	1344.591
764.546	26.372	1381.235	1340.162
765.561	25.869	1379.202	1334.286
766.575	24.846	1377.535	1324.905
767.590	24.777	1377.042	1323.759
768.605	25.794	1375.937	1330.090
769.619	26.343	1375.899	1333.967
770.634	26.624	1375.409	1335.420
771.648	26.814	1375.001	1336.267
772.663	27.012	1374.019	1336.619
773.678	27.066	1373.224	1336.088
774.692	27.145	1372.649	1335.952
775.707	27.163	1372.562	1335.835
776.721	27.060	1372.101	1334.471
777.736	27.287	1370.417	1334.346
778.751	27.072	1369.532	1331.735
779.765	27.063	1368.777	1330.782
780.780	27.062	1368.103	1329.958
781.794	27.083	1366.361	1328.261
782.809	27.032	1365.336	1326.731
783.824	26.664	1364.111	1322.678
784.838	26.284	1361.272	1316.987
785.853	25.443	1359.939	1309.380
786.867	25.804	1359.832	1311.765
787.882	26.165	1359.778	1314.196
788.897	26.318	1359.350	1314.741
789.911	26.445	1358.107	1314.313
790.926	26.727	1356.931	1315.077
791.940	26.994	1355.602	1315.574
792.955	26.928	1354.918	1314.275
793.969	27.163	1353.823	1314.764
794.984	27.063	1353.790	1313.844
795.999	27.075	1352.787	1312.801
797.013	27.274	1351.065	1312.417
798.028	27.389	1349.056	1311.139
799.042	27.303	1348.807	1310.121
800.057	27.448	1347.812	1310.043
801.072	27.375	1346.436	1308.026
802.086	27.161	1345.436	1305.349
803.101	27.297	1344.370	1305.141
804.115	27.406	1343.652	1305.074
805.130	27.165	1342.570	1302.133
806.145	27.194	1341.509	1301.151
807.159	27.226	1339.499	1299.276
808.174	27.134	1337.782	1296.798
809.188	26.982	1336.606	1294.415
810.203	26.786	1334.501	1290.817
811.218	26.327	1332.640	1285.582
812.232	25.781	1330.766	1279.722
813.247	25.441	1329.517	1275.938
814.261	26.294	1330.145	1282.480
815.276	26.977	1329.809	1286.870
816.291	27.026	1329.039	1286.317
817.305	27.066	1328.682	1286.106
818.320	27.275	1327.418	1286.211
819.334	27.401	1326.251	1285.822
820.349	27.424	1324.765	1284.396
821.364	27.376	1323.823	1282.984
822.378	27.340	1322.850	1281.631
823.393	27.465	1321.211	1280.775
824.407	27.413	1319.912	1278.993
825.422	27.303	1319.210	1277.387
826.437	27.219	1318.329	1275.789
827.451	26.976	1316.126	1271.793
828.466	25.941	1313.858	1262.172
829.480	25.943	1312.128	1260.370
830.495	26.063	1311.221	1260.191
831.509	26.568	1310.928	1263.301
832.524	26.950	1310.432	1265.349
833.539	27.092	1309.835	1265.616
834.553	27.415	1308.618	1266.547
835.568	27.508	1307.012	1265.492
836.582	27.362	1306.531	1263.856
837.597	27.308	1304.703	1261.557
838.612	27.226	1302.968	1259.157
839.626	27.119	1301.729	1257.071
840.641	26.816	1300.645	1253.767
841.655	26.392	1299.643	1249.708
842.670	25.746	1297.282	1242.804
843.685	25.093	1295.720	1236.632
844.699	25.987	1295.454	1242.427
845.714	26.756	1295.029	1247.186
846.728	26.846	1294.417	1247.074
847.743	26.929	1294.211	1247.300
848.758	27.199	1293.014	1247.856
849.772	27.514	1292.057	1248.956
850.787	27.410	1290.803	1246.876
851.801	27.415	1289.684	1245.682
852.816	27.306	1288.300	1243.448
853.831	27.297	1286.818	1241.807
854.845	27.069	1285.669	1238.985
855.860	27.064	1283.293	1236.513
856.874	26.626	1281.966	1232.092
857.889	26.508	1280.513	1229.741
858.904	26.036	1278.923	1224.853
859.918	25.852	1276.113	1220.758
860.933	25.510	1274.932	1217.156
861.947	25.976	1275.337	1220.569
862.962	26.409	1275.162	1223.202
863.977	26.605	1273.730	1223.009
864.991	26.799	1272.906	1223.389
866.006	27.013	1272.929	1224.713
867.020	27.149	1272.083	1224.677
868.035	27.193	1271.287	1224.060
869.049	27.411	1270.510	1224.638
870.064	27.507	1269.314	1223.987
871.079	27.394	1267.738	1221.563
872.093	27.193	1267.346	1219.683
873.108	27.073	1265.890	1217.328
874.122	26.793	1264.358	1213.822
875.137	26.307	1262.939	1209.046
876.152	26.261	1261.564	1207.277
877.166	26.331	1260.146	1206.244
878.181	26.646	1259.557	1207.646
879.195	26.888	1260.036	1209.590
880.210	27.075	1259.523	1210.202
881.225	27.241	1258.425	1210.114
882.239	27.286	1257.232	1209.117
883.254	27.509	1256.027	1209.302
884.268	27.398	1255.091	1207.520
885.283	27.374	1254.072	1206.233
886.298	27.373	1253.039	1205.088
887.312	27.472	1251.259	1203.890
888.327	27.452	1250.494	1202.877
889.341	27.411	1249.084	1201.105
890.356	27.360	1248.625	1200.186
891.371	27.279	1248.000	1198.904
892.385	27.086	1247.344	1196.850
893.400	26.836	1246.263	1194.016
894.414	26.820	1244.891	1192.451
895.429	26.553	1242.259	1188.031
896.444	25.829	1239.445	1180.431
897.458	25.109	1238.354	1174.505
898.473	25.714	1238.357	1178.350
899.487	26.327	1238.136	1182.031
900.502	26.805	1237.733	1184.646
901.517	26.973	1237.003	1184.910
902.531	27.111	1236.503	1185.193
903.546	27.154	1235.805	1184.660
904.560	27.347	1235.172	1185.175
905.575	27.223	1234.145	1183.237
906.589	27.161	1233.037	1181.633
907.604	27.219	1232.067	1180.939
