DTS Sentinel unit serial number:	SN409020Multiplexer serial number:	ORYXHardware model number:	OX4-SRSoftware version number:	ORYX F/W v3.00 Oryx Data Collector v3.7.2.0data status	okinstallation	HaddamTimeLapsedifferential loss correction	single-endedforward channel	channel 3reverse channel	N/Adate	2011/06/21time	23:21:17forward acquisition time	30.00reverse acquisition time	0.00gamma	498.7831k internal	0.1753k external	0.1753temperature offset calibration	1.0074default loss term (dB/km)	0.3790temperature slope calibration	1.3530multiplexer offset coefficient	1.0000multiplexer slope coefficient	1.0000fibre end	0.00T internal ref (°C)	23.31T ext. ref 1 (°C)	18.76T ext. ref 2 (°C)	0.05length (m)	temperature (°C)	Stokes	anti-Stokes-747.200	26.244	-0.205	0.227
-746.185	326.445	-0.148	0.378
-745.171	32.327	0.177	0.203
-744.156	-53.835	0.653	0.394
-743.142	-200.000	-0.021	-0.156
-742.127	-71.326	0.235	0.116
-741.112	800.000	-0.042	0.201
-740.098	119.160	-0.222	-0.364
-739.083	159.605	-0.106	-0.196
-738.069	76.184	0.214	0.300
-737.054	-88.033	-0.362	0.143
-736.039	-60.132	-0.604	-0.341
-735.025	84.433	0.399	-0.579
-734.010	193.454	-0.290	-0.584
-732.996	-59.703	-0.383	0.217
-731.981	-156.277	-0.154	-0.013
-730.966	-200.000	0.008	0.103
-729.952	148.973	0.171	0.307
-728.937	74.827	0.283	-0.395
-727.923	-200.000	-0.005	0.325
-726.908	-59.800	-0.197	-0.111
-725.894	306.191	-0.188	-0.465
-724.879	506.004	0.044	-0.137
-723.864	-200.000	-0.006	0.221
-722.850	52.719	0.043	-0.055
-721.835	-112.983	-0.457	0.119
-720.821	788.827	0.047	0.173
-719.806	102.233	-0.346	-0.536
-718.791	241.851	0.266	-0.591
-717.777	-13.048	0.242	0.208
-716.762	-105.565	0.172	-0.051
-715.748	-66.870	0.359	-0.187
-714.733	310.390	0.126	0.314
-713.718	800.000	-0.032	-0.123
-712.704	153.224	-0.170	-0.310
-711.689	-13.689	-0.167	-0.143
-710.675	-94.733	0.715	0.256
-709.660	-200.000	0.018	0.294
-708.645	-133.465	0.421	0.069
-707.631	-52.454	0.510	0.312
-706.616	238.004	-0.087	-0.193
-705.602	-200.000	-0.039	0.276
-704.587	6.730	-0.179	-0.177
-703.572	128.632	-0.065	0.110
-702.558	-14.079	0.174	-0.149
-701.543	-64.857	0.366	0.195
-700.529	-13.079	0.090	0.078
-699.514	539.776	-0.096	0.305
-698.499	79.450	-0.126	-0.179
-697.485	29.402	-0.077	0.087
-696.470	111.117	0.277	0.443
-695.456	-74.742	0.297	0.140
-694.441	-149.635	-0.251	-0.026
-693.426	29.240	0.296	-0.332
-692.412	800.000	-0.084	-0.435
-691.397	-76.588	-0.229	0.106
-690.383	-186.211	0.105	0.002
-689.368	-83.233	0.561	0.237
-688.354	-89.114	-0.300	0.117
-687.339	-52.788	-0.233	0.141
-686.324	274.918	0.172	0.404
-685.310	-7.735	0.182	-0.162
-684.295	-200.000	0.037	-0.853
-683.281	-108.610	-0.158	-0.045
-682.266	-107.591	-0.403	-0.116
-681.251	228.979	-0.015	-0.031
-680.237	-4.838	0.230	0.209
-679.222	209.197	-0.086	-0.180
-678.208	94.176	-0.227	-0.341
-677.193	12.770	0.198	-0.202
-676.178	-95.532	-0.337	0.119
-675.164	-200.000	-0.081	0.655
-674.149	-109.239	0.259	0.072
-673.135	-94.896	-0.336	-0.120
-672.120	-200.000	0.007	0.153
-671.105	367.520	-0.188	0.505
-670.091	-178.499	0.148	0.004
-669.076	286.481	0.225	-0.540
-668.062	77.172	0.117	0.165
-667.047	-200.000	0.002	-0.320
-666.032	654.838	-0.072	-0.247
-665.018	-117.882	0.338	0.080
-664.003	-14.356	0.091	0.078
-662.989	-110.619	-0.199	-0.054
-661.974	-68.842	0.705	-0.358
-660.959	115.849	0.405	-0.656
-659.945	134.035	-0.384	-0.659
-658.930	-110.005	0.345	0.095
-657.916	3.168	-0.161	-0.155
-656.901	-119.390	0.724	-0.165
-655.886	-200.000	0.028	-0.393
-654.872	-64.230	-0.164	0.088
-653.857	8.949	-0.017	0.017
-652.843	379.421	-0.018	-0.049
-651.828	-49.945	-0.422	-0.264
-650.814	-63.667	0.233	0.126
-649.799	651.673	0.173	0.589
-648.784	-97.308	-0.324	-0.111
-647.770	128.115	-0.350	-0.590
-646.755	800.000	0.059	-0.294
-645.741	-49.557	-0.363	0.228
-644.726	-120.143	0.311	-0.070
-643.711	800.000	-0.052	-0.245
-642.697	-37.369	0.162	0.114
-641.682	-58.054	-0.461	-0.265
-640.668	243.865	-0.167	0.371
-639.653	52.517	0.439	-0.554
-638.638	800.000	-0.052	-0.294
-637.624	800.000	-0.068	-0.317
-636.609	-152.399	-0.304	0.029
-635.595	-94.377	-0.224	-0.080
-634.580	-150.915	-0.287	-0.028
-633.565	-12.029	-0.305	-0.264
-632.551	800.000	-0.108	0.490
-631.536	-121.327	-0.246	-0.054
-630.522	-113.213	-0.283	-0.073
-629.507	-132.741	-0.164	0.028
-628.492	-95.596	0.396	0.139
-627.478	-49.053	-0.096	0.060
-626.463	19.304	0.265	-0.281
-625.449	365.326	-0.082	-0.220
-624.434	-73.983	0.167	0.080
-623.419	-200.000	-0.047	-0.437
-622.405	800.000	0.045	0.232
-621.390	535.087	0.079	-0.249
-620.376	28.322	0.168	-0.188
-619.361	26.795	0.100	0.110
-618.346	545.853	-0.043	0.138
-617.332	116.198	-0.100	0.162
-616.317	-200.000	-0.059	-0.457
-615.303	-121.232	0.302	0.066
-614.288	-46.279	0.096	-0.062
-613.273	-118.851	0.617	-0.142
-612.259	-99.101	-0.282	-0.094
-611.244	-109.637	-0.299	-0.083
-610.230	-8.798	-0.172	0.152
-609.215	-2.961	-0.113	0.104
-608.201	-107.980	-0.310	0.088
-607.186	-200.000	-0.018	0.476
-606.171	-28.198	0.337	0.256
-605.157	-11.028	0.145	-0.126
-604.142	758.918	-0.041	0.148
-603.128	-157.704	-0.023	-0.002
-602.113	-200.000	-0.003	-0.081
-601.098	-143.054	-0.317	0.040
-600.084	-64.450	0.535	0.286
-599.069	-129.421	-0.218	0.040
-598.055	-119.930	0.349	0.079
-597.040	52.042	0.220	-0.276
-596.025	-54.222	-0.127	-0.076
-595.011	-118.958	0.569	-0.130
-593.996	96.807	0.112	0.169
-592.982	-63.845	-0.080	0.043
-591.967	84.886	0.086	0.125
-590.952	-21.041	-0.323	0.260
-589.938	217.470	-0.162	-0.341
-588.923	-62.568	0.402	0.219
-587.909	194.673	0.214	-0.429
-586.894	-76.412	-0.250	-0.115
-585.879	-65.448	0.389	0.205
-584.865	-200.000	0.002	0.088
-583.850	-51.762	0.082	-0.050
-582.836	-59.602	-0.385	-0.217
-581.821	-79.870	0.283	-0.125
-580.806	74.405	-0.450	0.624
-579.792	-200.000	-0.033	0.261
-578.777	758.612	0.079	0.283
-577.763	-103.343	-0.322	-0.099
-576.748	-100.064	0.331	0.108
-575.733	-87.402	0.255	0.101
-574.719	15.715	-0.214	0.222
-573.704	-51.015	0.108	0.067
-572.690	132.122	0.343	0.584
-571.675	182.310	-0.121	0.236
-570.661	800.000	0.070	-0.270
-569.646	-81.973	-0.149	-0.064
-568.631	170.803	-0.249	-0.472
-567.617	112.797	-0.177	-0.283
-566.602	-93.783	-0.225	-0.081
-565.588	628.954	-0.057	0.190
-564.573	50.857	-0.114	-0.142
-563.558	-99.844	0.362	-0.119
-562.544	-21.382	-0.368	0.295
-561.529	-89.925	-0.297	0.114
-560.515	-132.553	0.308	-0.052
-559.500	-120.415	-0.286	-0.064
-558.485	47.720	-0.371	0.456
-557.471	88.807	0.049	-0.072
-556.456	82.900	-0.083	0.120
-555.442	-77.591	-0.169	0.077
-554.427	61.605	-0.277	-0.364
-553.412	88.077	-0.262	0.384
-552.398	257.765	-0.120	-0.272
-551.383	73.781	-0.227	-0.313
-550.369	-9.516	-0.249	0.218
-549.354	-95.421	0.293	0.103
-548.339	785.726	0.043	-0.156
-547.325	-200.000	-0.007	0.089
-546.310	6.543	-0.210	0.206
-545.296	-40.935	-0.434	0.295
-544.281	-140.651	-0.298	0.040
-543.266	800.000	-0.089	0.384
-542.252	-29.473	0.137	0.103
-541.237	-143.193	-0.517	-0.065
-540.223	-200.000	-0.026	0.151
-539.208	-90.277	-0.278	-0.106
-538.193	109.867	0.078	0.123
-537.179	-200.000	0.019	0.224
-536.164	800.000	0.073	-0.269
-535.150	30.484	-0.324	-0.364
-534.135	2.095	0.077	-0.073
-533.121	-91.834	0.209	-0.078
-532.106	-5.731	-0.166	-0.149
-531.091	800.000	0.100	-0.445
-530.077	-113.916	0.221	0.056
-529.062	-177.797	-0.281	-0.009
-528.048	-89.210	0.213	0.082
-527.033	-200.000	0.046	0.379
-526.018	95.070	-0.092	0.138
-525.004	121.255	0.282	0.463
-523.989	-99.263	-0.158	0.052
-522.975	-200.000	0.001	-0.020
-521.960	800.000	0.075	0.378
-520.945	31.745	0.176	0.199
-519.931	741.642	-0.075	0.266
-518.916	638.984	-0.068	-0.228
-517.902	-200.000	0.010	-0.140
-516.887	-141.984	0.078	0.010
-515.872	193.147	0.037	-0.073
-514.858	-200.000	-0.005	-0.182
-513.843	-144.064	0.267	0.033
-512.829	-8.691	-0.233	0.205
-511.814	-181.580	0.368	0.009
-510.799	-122.840	-0.250	-0.053
-509.785	-92.515	-0.191	0.070
-508.770	-87.943	0.169	0.067
-507.756	-151.166	0.347	0.034
-506.741	-158.802	0.389	-0.029
-505.726	800.000	-0.074	-0.311
-504.712	-95.393	-0.615	-0.216
-503.697	153.340	-0.100	-0.181
-502.683	-1.515	0.464	-0.430
-501.668	147.980	0.019	-0.033
-500.653	-143.599	-0.299	0.037
-499.639	-200.000	-0.004	0.683
-498.624	-6.979	-0.245	-0.218
-497.610	163.265	0.218	-0.404
-496.595	-137.253	0.232	0.034
-495.581	502.651	0.066	-0.200
-494.566	27.864	0.248	-0.274
-493.551	-61.776	-0.298	0.163
-492.537	-33.072	-0.282	0.205
-491.522	79.590	0.199	-0.281
-490.508	-16.964	0.384	0.318
-489.493	131.304	-0.236	0.399
-488.478	-121.987	0.187	0.040
-487.464	390.123	-0.147	-0.401
-486.449	67.092	0.284	0.380
-485.435	-51.580	0.030	-0.018
-484.420	748.826	0.043	0.152
-483.405	-200.000	-0.004	-0.235
-482.391	-110.736	0.182	0.049
-481.376	-36.723	0.729	-0.513
-480.362	-134.168	-0.147	0.024
-479.347	273.364	-0.085	0.197
-478.332	800.000	0.053	0.204
-477.318	40.071	-0.526	0.621
-476.303	-0.417	0.250	0.233
-475.289	32.649	0.174	0.198
-474.274	533.030	0.146	0.456
-473.259	525.376	-0.116	0.362
-472.245	-174.850	0.549	-0.020
-471.230	625.603	0.086	0.286
-470.216	800.000	-0.047	-0.228
-469.201	-175.230	0.306	-0.011
-468.186	-76.318	-0.077	0.035
-467.172	268.860	0.112	0.258
-466.157	-7.996	0.078	-0.069
-465.143	-200.000	-0.062	-0.537
-464.128	47.332	-0.134	-0.164
-463.113	-62.336	0.321	-0.175
-462.099	-81.977	-0.200	0.085
-461.084	165.329	-0.207	0.386
-460.070	-101.459	0.361	0.114
-459.055	229.828	-0.080	-0.173
-458.040	-44.601	-0.113	-0.074
-457.026	-131.606	0.202	-0.035
-456.011	126.781	-0.100	-0.166
-454.997	-198.878	0.374	0.003
-453.982	-125.872	-0.275	0.054
-452.968	97.343	-0.191	-0.288
-451.953	67.410	-0.136	-0.182
-450.938	199.654	-0.104	-0.209
-449.924	-143.037	-0.114	0.014
-448.909	22.733	-0.071	-0.076
-447.895	-73.813	0.513	0.243
-446.880	100.270	0.303	0.461
-445.865	-104.168	0.141	0.043
-444.851	330.870	-0.050	-0.126
-443.836	-82.474	0.084	-0.036
-442.822	-13.697	-0.322	-0.273
-441.807	451.478	-0.084	-0.245
-440.792	-2.521	0.115	-0.105
-439.778	-138.869	0.798	-0.113
-438.763	80.718	-0.064	-0.090
-437.749	16.771	0.099	-0.102
-436.734	58.023	0.191	0.245
-435.719	-105.841	-0.416	0.122
-434.705	294.521	-0.065	0.157
-433.690	-53.453	0.242	0.145
-432.676	-119.378	0.195	0.044
-431.661	-54.621	0.444	0.262
-430.646	155.988	-0.115	-0.208
-429.632	31.276	0.221	-0.249
-428.617	-200.000	0.030	-0.194
-427.603	-80.336	-0.154	-0.067
-426.588	139.366	-0.340	-0.587
-425.573	5.573	0.135	-0.130
-424.559	-102.322	0.315	-0.098
-423.544	-200.000	0.057	-0.393
-422.530	122.472	-0.219	-0.359
-421.515	180.075	-0.192	0.370
-420.500	-200.000	-0.030	-0.288
-419.486	-200.000	-0.009	-0.131
-418.471	-127.098	-0.235	0.045
-417.457	800.000	0.065	-0.303
-416.442	-82.145	-0.385	-0.164
-415.428	71.330	0.274	-0.373
-414.413	248.648	-0.190	-0.422
-413.398	-117.618	-0.503	0.118
-412.384	208.228	-0.165	0.338
-411.369	-200.000	0.262	-0.001
-410.355	-15.537	-0.091	-0.076
-409.340	5.813	-0.063	-0.061
-408.325	-99.160	0.454	-0.149
-407.311	-134.299	-0.095	-0.015
-406.296	86.402	-0.157	-0.227
-405.282	1.279	0.087	-0.082
-404.267	-101.536	0.247	-0.078
-403.252	-200.000	-0.050	-0.306
-402.238	147.552	-0.194	-0.343
-401.223	499.422	-0.062	-0.188
-400.209	-200.000	0.018	-0.499
-399.194	123.193	-0.239	-0.392
-398.179	178.802	0.122	-0.234
-397.165	-52.911	0.130	0.078
-396.150	13.187	0.192	-0.194
-395.136	9.995	0.320	0.318
-394.121	-140.011	0.718	0.098
-393.106	-9.050	0.259	-0.227
-392.092	-17.578	0.415	0.341
-391.077	-115.633	-0.420	0.102
-390.063	-92.618	-0.293	-0.107
-389.048	-200.000	0.039	-0.444
-388.033	-92.137	0.716	-0.263
-387.019	-139.152	-0.397	0.056
-386.004	32.251	0.327	-0.369
-384.990	68.029	0.239	0.320
-383.975	-6.026	0.109	0.098
-382.960	-142.695	0.356	-0.045
-381.946	-191.064	0.509	-0.007
-380.931	-88.694	0.193	-0.075
-379.917	-79.872	0.326	-0.143
-378.902	-29.554	-0.313	-0.234
-377.888	-18.861	0.062	-0.051
-376.873	-51.449	-0.035	0.021
-375.858	-57.156	0.080	0.046
-374.844	11.965	-0.096	-0.097
-373.829	-14.180	-0.510	0.430
-372.815	-200.000	-0.010	0.147
-371.800	70.994	0.115	0.156
-370.785	-158.443	-0.152	-0.011
-369.771	-72.000	0.457	0.221
-368.756	-12.759	0.555	0.472
-367.742	673.207	0.078	0.267
-366.727	197.407	-0.080	0.161
-365.712	-55.301	-0.358	-0.210
-364.698	40.559	0.190	0.224
-363.683	-200.000	-0.013	-0.444
-362.669	-113.529	0.129	-0.033
-361.654	-27.206	-0.497	-0.378
-360.639	-47.427	-0.376	-0.238
-359.625	632.588	0.091	-0.304
-358.610	-200.000	-0.006	-0.707
-357.596	72.247	-0.030	-0.041
-356.581	-68.382	0.308	0.156
-355.566	-135.200	0.561	0.087
-354.552	707.500	0.088	0.305
-353.537	-200.000	-0.008	0.209
-352.523	-96.236	-0.377	-0.130
-351.508	-51.120	0.231	0.141
-350.493	-110.352	0.532	-0.143
-349.479	-9.545	0.222	0.193
-348.464	-41.666	0.263	0.176
-347.450	153.460	-0.108	0.194
-346.435	-86.795	-0.317	-0.126
-345.420	-167.092	0.397	-0.021
-344.406	364.076	0.158	-0.417
-343.391	-157.393	-0.297	0.023
-342.377	-38.224	-0.218	0.150
-341.362	-108.318	-0.346	0.097
-340.348	-58.177	0.354	-0.201
-339.333	27.469	0.202	0.222
-338.318	-200.000	-0.226	0.001
-337.304	-85.760	0.525	0.211
-336.289	-101.556	-0.346	-0.109
-335.275	-119.048	-0.753	-0.171
-334.260	-120.870	-0.269	-0.059
-333.245	800.000	0.055	-0.273
-332.231	25.528	0.552	0.599
-331.216	-106.728	0.377	0.109
-330.202	2.808	0.144	0.136
-329.187	-91.241	-0.380	0.141
-328.172	-165.405	-0.056	0.003
-327.158	-163.281	-0.332	-0.020
-326.143	35.310	-0.363	-0.415
-325.129	-51.737	-0.391	0.237
-324.114	-122.505	0.510	-0.107
-323.099	-200.000	0.028	-0.187
-322.085	96.510	-0.157	-0.234
-321.070	136.452	0.215	0.367
-320.056	-200.000	0.011	-0.064
-319.041	33.703	-0.162	-0.184
-318.026	800.000	0.021	-0.102
-317.012	-200.000	0.024	-0.456
-315.997	-42.952	-0.336	0.222
-314.983	-91.759	-0.376	0.139
-313.968	-62.726	0.187	-0.101
-312.953	-102.573	0.231	-0.071
-311.939	-22.586	-0.178	-0.140
-310.924	-70.957	0.421	0.206
-309.910	402.656	0.045	0.125
-308.895	-7.401	-0.301	0.266
-307.880	-164.019	-0.362	0.022
-306.866	-30.965	0.344	-0.253
-305.851	146.788	-0.149	0.261
-304.837	248.595	0.159	-0.352
-303.822	-119.050	0.300	-0.068
-302.807	205.813	0.236	0.479
-301.793	-200.000	0.079	-0.488
-300.778	61.955	-0.418	-0.544
-299.764	214.770	0.127	0.264
-298.749	-49.426	-0.269	-0.167
-297.735	-61.728	-0.224	-0.122
-296.720	30.491	-0.346	0.386
-295.705	-51.542	0.090	-0.054
-294.691	-111.570	-0.187	0.049
-293.676	544.164	-0.154	0.481
-292.662	186.643	0.233	0.454
-291.647	321.066	0.126	-0.314
-290.632	-150.089	0.496	0.050
-289.618	23.414	0.351	0.376
-288.603	366.237	-0.043	-0.114
-287.589	-167.724	0.458	0.023
-286.574	-200.000	0.007	0.268
-285.559	-196.179	-0.857	-0.008
-284.545	260.998	0.128	0.290
-283.530	-163.010	0.429	0.027
-282.516	166.721	-0.129	-0.239
-281.501	2.083	-0.229	0.215
-280.486	-102.222	0.296	0.092
-279.472	288.607	0.256	0.607
-278.457	800.000	-0.176	0.782
-277.443	71.678	-0.127	-0.171
-276.428	89.041	0.049	-0.070
-275.413	64.063	0.350	-0.459
-274.399	374.568	-0.039	-0.103
-273.384	-81.289	-0.194	-0.083
-272.370	-153.276	-0.503	-0.045
-271.355	15.142	0.042	-0.043
-270.340	-200.000	0.000	0.051
-269.326	-109.862	-0.135	-0.037
-268.311	118.942	0.110	-0.178
-267.297	320.376	-0.029	-0.072
-266.282	20.715	0.361	-0.380
-265.267	-142.810	0.509	-0.064
-264.253	-123.167	0.140	0.029
-263.238	800.000	-0.142	0.529
-262.224	107.560	-0.397	0.616
-261.209	29.969	-0.250	0.278
-260.195	8.932	0.294	0.288
-259.180	72.154	-0.152	-0.207
-258.165	77.768	-0.193	0.268
-257.151	-145.096	-0.206	0.024
-256.136	428.527	-0.122	-0.344
-255.122	800.000	0.052	-0.233
-254.107	800.000	-0.025	0.128
-253.092	-27.873	-0.196	0.147
-252.078	99.229	0.356	-0.536
-251.063	-133.582	0.310	0.050
-250.049	125.345	-0.101	-0.167
-249.034	-169.907	0.395	0.018
-248.019	-146.932	0.185	0.020
-247.005	144.258	-0.100	0.175
-245.990	-200.000	-0.032	0.275
-244.976	-119.423	0.124	-0.028
-243.961	76.382	0.158	0.218
-242.946	-98.489	0.280	0.093
-241.932	-167.672	-0.136	-0.007
-240.917	-80.485	-0.143	-0.062
-239.903	-108.616	0.358	0.099
-238.888	276.600	0.173	-0.400
-237.873	192.480	0.115	0.226
-236.859	-200.000	0.020	-0.123
-235.844	32.809	0.148	-0.167
-234.830	-59.092	0.260	0.145
-233.815	19.904	0.242	0.254
-232.800	800.000	-0.011	-0.044
-231.786	3.048	-0.149	-0.140
-230.771	367.254	-0.138	-0.364
-229.757	800.000	0.085	-0.313
-228.742	-77.674	-0.258	0.115
-227.727	800.000	-0.013	0.067
-226.713	-83.785	-0.501	-0.207
-225.698	-22.077	-0.285	-0.225
-224.684	561.832	-0.199	0.629
-223.669	-30.162	-0.297	0.219
-222.655	-3.582	-0.095	-0.086
-221.640	-108.185	0.385	0.108
-220.625	133.548	-0.214	0.361
-219.611	68.047	-0.121	0.161
-218.596	-137.707	-0.376	0.054
-217.582	-200.000	0.023	0.282
-216.567	-161.316	0.265	-0.018
-215.552	-200.000	-0.039	0.455
-214.538	-140.281	-0.371	-0.050
-213.523	33.256	-0.416	-0.469
-212.509	-162.299	0.325	-0.021
-211.494	-200.000	0.010	-0.082
-210.479	-37.931	-0.426	0.293
-209.465	-200.000	0.028	0.542
-208.450	-82.917	-0.327	-0.137
-207.436	-54.471	-0.527	0.309
-206.421	-200.000	-0.034	0.415
-205.406	-200.000	0.298	0.002
-204.392	800.000	0.144	-0.588
-203.377	-90.595	-0.322	0.120
-202.363	-68.242	-0.281	0.141
-201.348	-142.157	-0.200	0.026
-200.333	-8.794	-0.143	0.125
-199.319	-38.430	0.116	0.079
-198.304	66.320	-0.067	-0.089
-197.290	-126.725	-0.338	0.064
-196.275	-12.598	0.099	0.084
-195.260	-91.069	0.291	-0.108
-194.246	-71.158	-0.380	0.184
-193.231	-200.000	0.045	-0.551
-192.217	-54.917	0.232	0.135
-191.202	-103.157	-0.353	0.108
-190.187	352.428	-0.081	-0.209
-189.173	175.188	-0.328	0.619
-188.158	-49.998	-0.322	0.198
-187.144	64.310	-0.071	0.093
-186.129	-44.109	0.524	-0.340
-185.114	-87.217	-0.197	-0.077
-184.100	551.696	0.110	-0.343
-183.085	-125.728	-0.338	-0.066
-182.071	-16.379	-0.482	-0.396
-181.056	-200.000	0.084	-0.857
-180.042	117.905	-0.268	0.430
-179.027	-5.369	-0.169	0.150
-178.012	-105.275	0.525	0.154
-176.998	-64.159	0.291	0.154
-175.983	242.674	0.033	0.072
-174.969	-111.618	-0.158	-0.041
-173.954	-141.720	-0.542	-0.070
-172.939	-200.000	-0.011	0.260
-171.925	-75.896	0.316	0.144
-170.910	-143.237	0.211	-0.026
-169.896	-77.023	0.180	-0.081
-168.881	-200.000	-0.009	-0.264
-167.866	371.851	-0.124	-0.329
-166.852	-89.230	0.105	0.040
-165.837	-93.400	-0.116	-0.041
-164.823	-200.000	-0.022	0.219
-163.808	-200.000	0.077	0.522
-162.793	-161.050	-0.189	-0.013
-161.779	119.033	-0.137	0.221
-160.764	-96.269	0.512	0.175
-159.750	-60.737	0.174	-0.095
-158.735	-53.744	-0.293	0.173
-157.720	-119.799	-0.256	-0.057
-156.706	-19.286	0.382	-0.307
-155.691	-34.911	-0.215	-0.152
-154.677	-166.879	0.669	0.035
-153.662	305.132	0.145	-0.351
-152.647	-200.000	-0.020	0.292
-151.633	-132.342	-0.240	-0.040
-150.618	-174.383	-0.328	-0.012
-149.604	61.845	0.346	0.447
-148.589	-35.134	0.309	-0.217
-147.574	5.240	-0.473	-0.452
-146.560	73.709	-0.317	-0.431
-145.545	-135.009	0.218	-0.034
-144.531	561.169	-0.060	0.187
-143.516	-105.884	-0.151	-0.044
-142.502	35.047	0.117	0.133
-141.487	491.554	0.137	-0.410
-140.472	-48.218	-0.341	0.213
-139.458	-101.595	0.218	0.068
-138.443	148.233	0.031	-0.054
-137.429	490.704	0.095	-0.282
-136.414	-84.104	0.306	0.125
-135.399	115.086	0.323	0.512
-134.385	-118.266	-0.579	0.132
-133.370	-21.440	-0.332	-0.262
-132.356	-100.416	-0.172	0.055
-131.341	-85.218	0.281	0.113
-130.326	-21.957	-0.165	-0.129
-129.312	-168.116	-0.525	-0.026
-128.297	583.030	-0.047	-0.151
-127.283	-145.139	-0.598	0.070
-126.268	-165.974	0.133	0.007
-125.253	-60.174	-0.464	-0.255
-124.239	8.538	0.207	-0.202
-123.224	-81.954	0.259	0.109
-122.210	73.257	0.135	-0.183
-121.195	-62.986	-0.264	0.140
-120.180	9.664	-0.328	0.321
-119.166	-200.000	-0.019	0.472
-118.151	10.962	-0.351	-0.347
-117.137	-12.961	-0.411	-0.346
-116.122	-116.271	-0.235	0.056
-115.107	34.631	-0.135	0.153
-114.093	-88.898	-0.387	0.148
-113.078	-174.664	0.511	0.018
-112.064	-71.992	0.300	0.144
-111.049	401.109	-0.051	0.140
-110.034	-140.272	-0.505	-0.068
-109.020	-164.054	-0.410	0.024
-108.005	-96.958	-0.398	-0.134
-106.991	362.379	-0.025	-0.065
-105.976	-200.000	-0.043	-0.378
-104.962	-104.398	0.508	-0.151
-103.947	-82.341	0.257	0.108
-102.932	633.381	-0.032	-0.107
-101.918	-131.033	-0.209	-0.036
-100.903	-21.910	0.525	0.412
-99.889	328.259	0.155	-0.386
-98.874	73.562	-0.219	0.296
-97.859	-94.296	-0.395	-0.139
-96.845	-49.004	-0.472	0.292
-95.830	-82.689	-0.252	0.105
-94.816	40.138	0.040	-0.046
-93.801	-150.284	0.366	-0.036
-92.786	45.745	0.403	-0.482
-91.772	-175.199	-0.080	0.003
-90.757	46.347	-0.079	-0.095
-89.743	211.579	-0.060	-0.123
-88.728	-117.010	0.231	0.054
-87.713	62.542	0.094	-0.122
-86.699	46.422	-0.156	-0.188
-85.684	-200.000	0.016	-0.714
-84.670	-131.925	-0.334	-0.056
-83.655	-50.553	-0.349	-0.212
-82.640	-42.601	-0.307	-0.202
-81.626	800.000	-0.071	0.338
-80.611	101.352	-0.230	-0.347
-79.597	37.060	-0.136	-0.155
-78.582	21.000	0.344	0.360
-77.567	800.000	0.045	-0.214
-76.553	3.445	-0.310	-0.292
-75.538	-123.706	0.287	0.058
-74.524	250.232	0.188	0.413
-73.509	47.892	0.105	0.127
-72.494	-200.000	0.010	0.147
-71.480	800.000	-0.061	-0.221
-70.465	-51.468	-0.343	-0.206
-69.451	-123.971	-0.319	-0.064
-68.436	-8.586	0.269	-0.233
-67.422	-26.810	-0.296	-0.223
-66.407	-200.000	0.028	0.527
-65.392	53.798	-0.152	0.188
-64.378	-200.000	-0.003	-0.040
-63.363	-47.378	0.289	0.181
-62.349	-16.074	0.404	0.331
-61.334	87.412	-1.696	-2.427
-60.319	92.945	1.037	1.515
-59.305	181.271	-3.923	-7.471
-58.290	107.311	3.709	5.707
-57.276	577.891	3.379	10.732
-56.261	-200.000	22.369	316.378
-55.246	361.238	1292.329	3359.747
-54.232	53.145	2843.916	3519.012
-53.217	51.870	2663.252	3275.630
-52.203	32.725	2393.017	2673.593
-51.188	28.534	2059.030	2248.827
-50.173	25.171	1945.321	2085.327
-49.159	23.938	1934.474	2059.279
-48.144	23.725	1928.945	2050.832
-47.130	23.568	1927.011	2046.882
-46.115	23.564	1924.828	2044.425
-45.100	23.610	1923.061	2043.011
-44.086	23.619	1922.473	2042.407
-43.071	23.559	1920.206	2039.219
-42.057	23.463	1919.329	2037.098
-41.042	23.476	1918.288	2036.067
-40.027	23.465	1916.167	2033.600
-39.013	23.381	1914.932	2031.246
-37.998	23.574	1913.271	2031.623
-36.984	23.455	1912.203	2029.038
-35.969	23.452	1910.910	2027.550
-34.954	23.391	1910.136	2025.949
-33.940	23.522	1908.216	2025.342
-32.925	23.452	1906.786	2022.935
-31.911	23.345	1906.795	2021.644
-30.896	23.372	1904.625	2019.566
-29.881	23.270	1903.492	2017.114
-28.867	23.489	1901.088	2016.994
-27.852	23.331	1901.175	2015.195
-26.838	23.293	1899.380	2012.789
-25.823	23.353	1897.365	2011.256
-24.809	23.397	1896.270	2010.519
-23.794	23.253	1896.226	2008.749
-22.779	23.361	1893.657	2007.179
-21.765	23.327	1892.233	2005.200
-20.750	23.393	1891.981	2005.606
-19.736	23.384	1889.556	2002.852
-18.721	23.478	1888.983	2003.235
-17.706	23.248	1888.358	1999.881
-16.692	23.246	1886.553	1997.859
-15.677	23.225	1885.801	1996.748
-14.663	23.185	1883.802	1994.101
-13.648	23.213	1882.570	1993.039
-12.633	23.193	1881.781	1991.899
-11.619	23.203	1879.901	1989.939
-10.604	23.219	1879.320	1989.420
-9.590	23.154	1878.006	1987.221
-8.575	23.132	1877.386	1986.242
-7.560	23.156	1875.091	1983.998
-6.546	23.209	1873.858	1983.213
-5.531	23.170	1872.922	1981.712
-4.517	23.159	1871.778	1980.296
-3.502	23.205	1870.386	1979.261
-2.487	23.220	1870.010	1978.949
-1.473	23.369	1865.726	1976.015
-0.458	23.016	1848.381	1953.642
0.556	19.563	1994.551	2054.579
1.571	18.250	2197.974	2246.540
2.586	18.986	2237.178	2296.224
3.600	18.983	2239.736	2298.535
4.615	19.081	2239.041	2298.860
5.629	18.957	2237.493	2295.332
6.644	18.936	2235.421	2292.644
7.659	19.019	2233.453	2291.473
8.673	18.965	2230.742	2287.685
9.688	18.835	2239.571	2294.722
10.702	17.741	2320.619	2362.261
11.717	16.081	2382.849	2401.559
12.731	7.434	2363.232	2258.243
13.746	1.110	2344.962	2150.540
14.761	0.277	2341.957	2135.653
15.775	0.089	2340.752	2131.621
16.790	-0.009	2340.119	2129.392
17.804	0.072	2337.093	2127.535
18.819	0.062	2336.612	2126.704
19.834	0.073	2333.914	2124.148
20.848	0.053	2333.385	2123.131
21.863	0.076	2330.918	2120.965
22.877	0.067	2329.878	2119.634
23.892	0.058	2326.733	2116.393
24.907	0.006	2325.573	2114.354
25.921	0.044	2323.562	2112.797
26.936	0.021	2321.734	2110.568
27.950	0.009	2319.006	2107.667
28.965	0.076	2316.123	2105.725
29.980	0.019	2314.734	2103.416
30.994	0.104	2312.964	2102.752
32.009	3.926	2324.814	2167.156
33.023	13.143	2352.561	2323.589
34.038	17.102	2358.179	2384.867
35.053	17.120	2354.509	2381.123
36.067	17.114	2352.128	2378.348
37.082	16.967	2351.473	2375.324
38.096	17.141	2349.428	2375.430
39.111	17.381	2346.837	2375.897
40.126	17.533	2345.306	2376.191
41.140	17.627	2343.758	2375.650
42.155	17.747	2341.193	2374.450
43.169	17.626	2339.867	2371.134
44.184	17.424	2335.819	2363.918
45.199	17.384	2335.029	2362.288
46.213	17.442	2333.709	2361.473
47.228	17.588	2333.117	2362.621
48.242	17.639	2330.900	2360.816
49.257	17.826	2329.924	2362.141
50.271	17.799	2326.566	2358.081
51.286	17.534	2323.309	2350.820
52.301	17.284	2322.581	2346.330
53.315	18.151	2325.108	2360.637
54.330	21.085	2332.893	2409.048
55.344	22.871	2334.251	2434.933
56.359	22.989	2331.611	2433.517
57.374	23.278	2330.157	2435.706
58.388	23.450	2327.157	2434.652
59.403	23.047	2323.669	2425.166
60.417	22.714	2320.237	2416.702
61.432	22.790	2318.746	2415.905
62.447	23.016	2317.971	2417.912
63.461	23.309	2315.714	2419.297
64.476	23.337	2313.925	2417.520
65.490	22.938	2312.292	2410.060
66.505	22.171	2307.437	2394.211
67.520	19.986	2299.664	2356.010
68.534	17.791	2291.227	2317.146
69.549	17.202	2285.908	2303.473
70.563	17.068	2283.703	2299.149
71.578	17.185	2281.678	2298.428
72.593	17.142	2280.570	2296.445
73.607	17.336	2279.571	2297.805
74.622	17.447	2277.259	2296.707
75.636	17.258	2274.813	2291.406
76.651	17.179	2272.880	2288.116
77.666	17.167	2270.689	2285.474
78.680	17.151	2268.223	2282.495
79.695	17.019	2265.898	2278.105
80.709	16.814	2264.835	2273.999
81.724	16.831	2262.976	2272.093
82.739	16.976	2258.914	2269.680
83.753	16.824	2257.313	2265.766
84.768	16.808	2255.843	2263.805
85.782	16.692	2254.732	2260.857
86.797	16.609	2252.718	2257.451
87.812	16.756	2250.592	2257.027
88.826	16.962	2248.618	2257.531
89.841	17.051	2246.009	2255.830
90.855	17.045	2244.597	2254.066
91.870	17.087	2243.208	2252.962
92.884	17.082	2241.313	2250.713
93.899	16.992	2241.146	2249.087
94.914	17.706	2243.845	2261.039
95.928	20.400	2251.342	2304.308
96.943	21.350	2248.194	2313.459
97.957	18.642	2238.445	2267.234
98.972	17.063	2232.084	2239.587
99.987	16.955	2228.611	2234.403
101.001	16.936	2225.913	2231.188
102.016	16.993	2224.657	2230.407
103.030	16.849	2221.798	2225.371
104.045	16.870	2219.166	2222.752
105.060	17.009	2217.297	2222.441
106.074	16.949	2215.186	2219.267
107.089	17.027	2213.568	2218.409
108.103	16.974	2212.246	2216.117
109.118	17.125	2210.657	2216.246
110.133	17.158	2209.374	2215.122
111.147	17.025	2207.509	2211.252
112.162	16.960	2206.712	2209.332
113.176	17.262	2205.075	2211.379
114.191	17.337	2203.398	2210.416
115.206	17.260	2201.782	2207.523
116.220	17.110	2198.866	2202.384
117.235	17.177	2197.323	2201.452
118.249	17.296	2195.009	2200.412
119.264	17.129	2193.884	2196.848
120.279	17.112	2192.985	2195.466
121.293	17.238	2190.233	2194.081
122.308	17.172	2188.479	2191.211
123.322	16.998	2187.510	2187.718
124.337	17.553	2188.578	2195.718
125.352	20.450	2197.322	2241.862
126.366	21.124	2195.250	2248.217
127.381	18.241	2184.333	2199.565
128.395	17.116	2178.886	2179.318
129.410	17.115	2176.902	2177.060
130.424	17.122	2175.439	2175.418
131.439	17.113	2173.793	2173.397
132.454	17.077	2172.364	2171.251
133.468	17.292	2170.247	2171.636
134.483	17.419	2168.827	2171.585
135.497	17.413	2167.867	2170.280
136.512	17.404	2164.662	2166.701
137.527	17.312	2162.258	2162.857
138.541	17.120	2161.686	2159.570
139.556	17.062	2160.861	2157.752
140.570	16.918	2160.160	2154.945
141.585	16.888	2156.924	2151.088
142.600	17.011	2154.382	2149.862
143.614	16.852	2153.467	2146.667
144.629	16.786	2152.284	2144.387
145.643	16.682	2149.951	2140.489
146.658	16.799	2148.466	2140.233
147.673	16.641	2145.859	2135.379
148.687	16.786	2144.376	2135.487
149.702	16.847	2143.982	2135.607
150.716	16.959	2144.016	2136.808
151.731	16.903	2142.420	2134.246
152.746	17.051	2140.845	2134.298
153.760	17.682	2144.452	2145.617
154.775	20.623	2150.921	2189.103
155.789	21.490	2148.873	2197.702
156.804	18.726	2139.034	2152.601
157.819	17.092	2131.049	2123.775
158.833	16.832	2128.542	2117.756
159.848	16.790	2126.450	2114.895
160.862	16.902	2125.618	2115.217
161.877	16.998	2124.898	2115.450
162.892	17.041	2123.826	2114.667
163.906	17.125	2122.533	2114.175
164.921	17.171	2120.033	2112.011
165.935	17.257	2118.318	2111.121
166.950	17.309	2117.093	2110.294
167.964	17.355	2113.967	2107.505
168.979	17.110	2111.802	2102.050
169.994	17.043	2110.703	2099.863
171.008	16.972	2108.497	2096.537
172.023	16.921	2108.178	2095.331
173.037	17.177	2106.548	2096.638
174.052	17.173	2105.214	2095.018
175.067	17.156	2103.774	2093.120
176.081	16.849	2102.668	2087.965
177.096	17.012	2101.247	2088.324
178.110	17.069	2099.694	2087.238
179.125	17.156	2098.522	2086.894
180.140	17.094	2097.297	2084.662
181.154	17.121	2095.371	2082.829
182.169	17.252	2094.803	2083.624
183.183	18.148	2097.041	2096.655
184.198	21.145	2104.605	2140.969
185.213	21.742	2101.809	2145.221
186.227	18.691	2091.627	2097.159
187.242	17.410	2087.400	2076.964
188.256	17.287	2085.306	2073.123
189.271	17.033	2084.219	2068.684
190.286	17.114	2082.330	2067.555
191.300	17.053	2080.131	2064.368
192.315	17.039	2078.491	2062.330
193.329	17.323	2076.965	2064.033
194.344	17.434	2076.669	2064.846
195.359	17.566	2074.702	2064.251
196.373	17.378	2072.678	2059.703
197.388	17.219	2069.420	2054.286
198.402	17.097	2066.735	2049.898
199.417	16.933	2065.263	2046.203
200.432	17.120	2063.985	2046.952
201.446	17.089	2063.514	2045.868
202.461	17.111	2060.784	2043.178
203.475	17.064	2058.845	2040.445
204.490	16.912	2057.049	2036.585
205.504	16.878	2055.583	2034.481
206.519	16.883	2053.740	2032.478
207.534	16.984	2051.591	2031.316
208.548	16.923	2051.029	2029.792
209.563	16.963	2049.579	2028.592
210.577	17.009	2048.385	2027.723
211.592	17.176	2048.007	2029.106
212.607	18.501	2053.000	2049.748
213.621	21.943	2060.313	2098.239
214.636	21.284	2053.642	2083.301
215.650	18.091	2044.536	2035.648
216.665	17.296	2039.637	2021.043
217.680	17.185	2038.221	2018.069
218.694	16.896	2036.187	2012.358
219.709	16.874	2035.208	2010.892
220.723	16.983	2033.242	2010.006
221.738	17.182	2032.548	2011.445
222.753	17.141	2031.750	2009.931
223.767	17.106	2029.761	2007.313
224.782	17.183	2027.512	2005.759
225.796	17.243	2025.167	2003.910
226.811	17.051	2024.499	2000.731
227.826	17.017	2023.394	1999.001
228.840	17.122	2022.072	1998.695
229.855	16.972	2020.935	1995.563
230.869	17.183	2018.126	1995.034
231.884	17.094	2016.996	1992.627
232.899	17.087	2015.734	1991.068
233.913	17.136	2014.228	1989.917
234.928	17.044	2013.067	1987.450
235.942	17.070	2011.419	1985.891
236.957	17.137	2009.326	1984.365
237.972	17.109	2008.863	1983.345
238.986	16.924	2007.497	1979.587
240.001	17.066	2006.262	1979.794
241.015	17.167	2005.062	1979.567
242.030	17.963	2007.645	1991.204
243.045	20.676	2014.157	2029.273
244.059	21.175	2009.922	2030.608
245.074	18.296	2000.823	1987.610
246.088	17.351	1996.914	1972.484
247.103	17.462	1995.633	1972.270
248.117	17.512	1993.762	1970.776
249.132	17.200	1991.589	1964.757
250.147	17.233	1989.804	1963.153
251.161	17.124	1988.193	1960.059
252.176	17.416	1987.868	1962.886
253.190	17.767	1985.669	1964.552
254.205	17.646	1985.154	1962.409
255.220	17.771	1983.039	1961.521
256.234	17.588	1981.798	1957.941
257.249	17.385	1980.215	1953.806
258.263	17.367	1978.321	1951.500
259.278	17.284	1977.956	1949.947
260.293	16.999	1975.432	1943.941
261.307	16.854	1973.171	1939.816
262.322	16.929	1971.128	1938.433
263.336	16.873	1970.060	1936.510
264.351	16.699	1967.912	1932.174
265.366	16.676	1966.253	1930.049
266.380	16.710	1966.517	1930.460
267.395	16.792	1964.236	1928.933
268.409	16.901	1962.594	1928.333
269.424	16.918	1961.565	1927.287
270.439	16.959	1961.069	1927.041
271.453	17.977	1963.660	1940.989
272.468	20.995	1969.749	1981.302
273.482	21.092	1965.372	1977.764
274.497	18.183	1955.627	1934.694
275.512	16.970	1951.392	1916.506
276.526	16.923	1948.589	1912.991
277.541	16.748	1947.128	1909.351
278.555	16.718	1945.991	1907.658
279.570	16.633	1944.022	1904.540
280.585	16.856	1942.623	1905.461
281.599	16.968	1941.560	1905.454
282.614	17.071	1941.108	1905.944
283.628	17.303	1940.617	1907.860
284.643	17.599	1938.796	1909.172
285.657	17.823	1938.370	1911.040
286.672	17.848	1936.393	1909.150
287.687	17.690	1934.628	1905.404
288.701	17.495	1933.802	1902.171
289.716	17.611	1931.847	1901.327
290.730	17.607	1930.344	1899.573
291.745	17.575	1929.283	1897.945
292.760	17.678	1928.313	1897.910
293.774	17.287	1928.240	1893.244
294.789	17.342	1925.585	1891.016
295.803	17.160	1922.861	1886.088
296.818	17.188	1922.079	1885.402
297.833	17.381	1920.992	1886.264
298.847	17.246	1920.160	1883.715
299.862	17.223	1918.683	1881.794
300.876	17.966	1920.141	1891.267
301.891	21.012	1927.540	1932.311
302.906	21.529	1923.549	1933.817
303.920	18.504	1915.096	1891.584
304.935	17.612	1910.344	1876.794
305.949	17.211	1908.893	1870.709
306.964	17.149	1907.285	1868.230
307.979	17.305	1905.739	1868.206
308.993	17.435	1905.184	1868.874
310.008	17.929	1903.936	1872.877
311.022	17.992	1902.287	1871.729
312.037	17.675	1900.964	1866.706
313.052	17.814	1899.322	1866.402
314.066	18.325	1898.981	1871.463
315.081	17.935	1897.080	1865.081
316.095	17.684	1895.108	1860.167
317.110	17.470	1892.906	1855.441
318.125	17.350	1890.483	1851.526
319.139	17.369	1888.635	1849.708
320.154	17.333	1888.832	1849.284
321.168	17.339	1886.488	1846.830
322.183	17.278	1883.842	1843.351
323.197	17.080	1883.445	1840.589
324.212	16.909	1881.289	1836.398
325.227	16.774	1879.567	1833.026
326.241	16.867	1877.871	1832.167
327.256	16.753	1877.840	1830.682
328.270	16.716	1876.600	1828.846
329.285	16.754	1877.213	1829.643
330.300	17.977	1880.884	1846.291
331.314	21.254	1887.287	1888.020
332.329	21.199	1881.492	1881.403
333.343	18.135	1871.522	1838.149
334.358	16.944	1867.455	1821.088
335.373	16.818	1865.986	1818.077
336.387	16.605	1864.420	1814.046
337.402	16.593	1862.781	1812.104
338.416	16.870	1860.842	1812.975
339.431	16.996	1860.272	1813.554
340.446	16.933	1859.174	1811.590
341.460	17.254	1858.181	1813.854
342.475	17.493	1857.299	1815.342
343.489	17.580	1856.333	1815.108
344.504	17.618	1854.484	1813.492
345.519	17.549	1853.522	1811.598
346.533	17.847	1852.012	1813.088
347.548	18.057	1853.379	1816.452
348.562	19.057	1853.717	1827.248
349.577	19.111	1851.469	1825.382
350.592	18.134	1848.909	1812.239
351.606	17.945	1846.826	1807.971
352.621	17.946	1844.264	1805.250
353.635	17.579	1843.402	1800.298
354.650	17.591	1840.988	1797.847
355.665	17.442	1838.962	1794.074
356.679	17.250	1838.180	1791.066
357.694	17.305	1836.035	1789.341
358.708	17.229	1834.779	1787.103
359.723	18.483	1838.834	1804.117
360.738	21.602	1845.466	1843.466
361.752	21.079	1840.568	1832.833
362.767	18.217	1831.181	1793.158
363.781	17.538	1827.480	1782.175
364.796	17.280	1826.391	1778.190
365.810	17.229	1824.792	1775.882
366.825	17.134	1824.162	1774.058
367.840	17.375	1823.454	1775.686
368.854	17.336	1822.630	1774.261
369.869	17.590	1821.881	1775.989
370.883	18.424	1823.246	1785.850
371.898	19.042	1822.470	1791.344
372.913	18.483	1818.996	1781.874
373.927	18.271	1817.904	1778.379
374.942	18.451	1817.499	1779.642
375.956	18.294	1814.640	1774.997
376.971	17.824	1811.543	1766.870
377.986	17.526	1809.639	1761.701
379.000	17.549	1808.149	1760.270
380.015	17.375	1807.009	1757.146
381.029	17.080	1805.068	1751.993
382.044	16.858	1802.430	1746.918
383.059	16.940	1800.830	1746.005
384.073	16.801	1800.717	1744.253
385.088	16.979	1799.303	1744.516
386.102	16.962	1797.880	1742.748
387.117	16.871	1795.843	1739.628
388.132	16.832	1796.335	1739.496
389.146	17.885	1800.811	1754.505
390.161	21.243	1805.604	1793.683
391.175	21.050	1797.752	1783.687
392.190	17.870	1789.045	1742.257
393.205	17.050	1786.200	1730.879
394.219	17.014	1784.195	1728.359
395.234	17.042	1782.833	1727.120
396.248	16.931	1781.648	1724.633
397.263	16.947	1779.006	1722.029
398.278	17.065	1777.700	1721.765
399.292	17.093	1776.704	1720.875
400.307	17.138	1775.708	1720.169
401.321	17.157	1775.717	1720.162
402.336	17.234	1774.360	1719.428
403.350	17.314	1773.045	1718.755
404.365	17.733	1772.691	1722.465
405.380	18.219	1772.229	1726.736
406.394	18.309	1770.439	1725.699
407.409	17.990	1769.695	1721.534
408.423	18.169	1768.449	1721.930
409.438	18.424	1767.574	1723.452
410.453	18.524	1765.946	1722.669
411.467	18.345	1764.078	1718.832
412.482	17.789	1762.690	1711.666
413.496	17.409	1760.275	1705.295
414.511	17.347	1757.795	1702.059
415.526	17.227	1755.782	1698.703
416.540	17.216	1753.383	1696.074
417.555	17.115	1753.560	1695.019
418.569	17.366	1754.240	1698.001
419.584	17.533	1753.482	1698.730
420.599	17.431	1752.988	1697.031
421.613	17.423	1751.311	1695.122
422.628	17.381	1749.698	1692.943
423.642	17.232	1748.239	1689.832
424.657	17.280	1747.344	1689.248
425.672	17.398	1745.416	1688.356
426.686	17.331	1744.534	1686.632
427.701	17.268	1743.332	1684.643
428.715	17.510	1741.804	1685.377
429.730	17.665	1741.279	1686.201
430.745	17.640	1739.916	1684.434
431.759	17.711	1739.232	1684.278
432.774	17.965	1739.627	1686.978
433.788	18.371	1739.264	1690.450
434.803	18.682	1738.841	1692.922
435.818	18.596	1737.850	1690.907
436.832	18.585	1737.160	1689.925
437.847	17.516	1730.326	1672.522
438.861	9.640	1708.920	1574.559
439.876	1.651	1695.217	1483.684
440.890	0.411	1690.903	1467.608
441.905	0.269	1688.977	1464.371
442.920	0.184	1688.903	1463.298
443.934	0.153	1687.760	1461.834
444.949	0.178	1686.269	1460.606
445.963	0.052	1686.339	1459.264
446.978	-0.014	1685.712	1457.905
447.993	0.109	1683.670	1457.159
449.007	0.145	1681.294	1455.279
450.022	0.174	1679.068	1453.465
451.036	0.164	1678.135	1452.381
452.051	1.163	1681.999	1465.255
453.066	9.047	1699.928	1557.857
454.080	16.901	1712.258	1645.892
455.095	18.478	1715.083	1663.809
456.109	19.129	1715.522	1670.389
457.124	19.360	1714.263	1671.214
458.139	19.562	1713.728	1672.453
459.153	19.591	1713.066	1671.890
460.168	19.614	1711.040	1669.936
461.182	19.471	1709.697	1667.036
462.197	19.555	1707.580	1665.588
463.212	19.468	1704.786	1661.823
464.226	19.417	1704.242	1660.604
465.241	19.481	1704.881	1661.645
466.255	19.504	1703.872	1660.686
467.270	19.698	1701.726	1660.270
468.285	19.403	1700.140	1655.673
469.299	19.345	1698.526	1653.348
470.314	19.488	1697.128	1653.167
471.328	19.500	1695.787	1651.780
472.343	19.457	1695.374	1650.766
473.358	19.671	1693.946	1651.228
474.372	19.722	1691.798	1649.432
475.387	19.537	1690.088	1645.794
476.401	19.251	1689.330	1642.120
477.416	19.395	1688.516	1642.504
478.430	19.625	1686.196	1642.254
479.445	19.115	1686.306	1637.283
480.460	18.983	1685.114	1634.676
481.474	19.351	1683.611	1636.533
482.489	19.615	1681.539	1636.834
483.503	19.793	1680.394	1637.222
484.518	19.730	1679.750	1635.800
485.533	19.707	1677.820	1633.502
486.547	19.670	1676.680	1631.844
487.562	19.875	1676.381	1633.304
488.576	19.825	1674.646	1630.946
489.591	19.899	1672.949	1629.794
490.606	19.654	1671.358	1625.733
491.620	19.671	1670.390	1624.763
492.635	19.967	1669.106	1626.111
493.649	20.101	1668.000	1626.107
494.664	19.679	1666.135	1620.117
495.679	19.325	1664.646	1615.139
496.693	19.438	1663.450	1614.848
497.708	19.639	1662.865	1615.980
498.722	19.847	1662.475	1617.358
499.737	19.911	1660.523	1615.869
500.752	19.798	1658.659	1612.805
501.766	19.656	1657.415	1610.065
502.781	19.734	1655.559	1608.805
503.795	19.819	1654.386	1608.268
504.810	19.840	1653.012	1606.935
505.825	19.957	1653.740	1608.538
506.839	19.859	1652.575	1606.306
507.854	19.916	1650.765	1604.880
508.868	19.883	1649.801	1603.446
509.883	19.923	1648.083	1601.960
510.898	20.155	1646.695	1602.570
511.912	20.102	1644.930	1600.172
512.927	19.714	1643.543	1595.031
513.941	19.755	1642.236	1593.953
514.956	19.516	1641.062	1590.402
515.971	19.670	1638.882	1589.526
516.985	19.646	1638.612	1588.852
518.000	19.753	1638.015	1589.071
519.014	19.974	1637.601	1590.525
520.029	20.162	1635.796	1590.308
521.043	20.218	1634.271	1589.157
522.058	20.035	1632.875	1585.922
523.073	20.162	1632.555	1586.589
524.087	20.396	1632.149	1588.162
525.102	20.307	1630.217	1585.267
526.116	20.035	1628.052	1580.481
527.131	19.986	1626.829	1578.655
528.146	20.409	1626.128	1581.657
529.160	20.357	1625.515	1580.399
530.175	20.236	1624.749	1578.357
531.189	20.325	1624.342	1578.589
532.204	20.391	1622.904	1577.604
533.219	20.078	1620.248	1571.976
534.233	19.883	1619.262	1569.055
535.248	20.193	1618.348	1570.807
536.262	20.449	1618.325	1572.923
537.277	20.372	1616.542	1570.301
538.292	20.035	1614.733	1565.301
539.306	20.004	1612.725	1562.882
540.321	19.971	1611.742	1561.448
541.335	19.866	1610.330	1558.942
542.350	20.243	1608.914	1560.797
543.365	20.328	1607.777	1560.271
544.379	20.321	1606.838	1559.109
545.394	20.412	1605.829	1558.766
546.408	20.073	1603.616	1553.373
547.423	19.712	1602.656	1549.008
548.438	19.883	1600.609	1548.384
549.452	20.094	1600.400	1549.890
550.467	20.152	1599.242	1549.107
551.481	20.200	1598.337	1548.479
552.496	20.473	1598.106	1550.519
553.511	20.609	1597.647	1551.103
554.525	20.422	1596.351	1547.987
555.540	20.603	1595.951	1549.033
556.554	20.767	1593.805	1548.231
557.569	20.591	1592.232	1544.945
558.583	20.454	1590.541	1541.901
559.598	20.473	1589.174	1540.555
560.613	20.456	1588.968	1540.020
561.627	20.467	1587.903	1538.903
562.642	20.535	1586.608	1538.069
563.656	20.845	1584.814	1538.898
564.671	20.840	1583.818	1537.700
565.686	20.778	1582.277	1535.474
566.700	20.506	1581.379	1532.005
567.715	20.284	1578.926	1527.485
568.729	20.263	1576.874	1525.129
569.744	19.923	1575.275	1520.397
570.759	20.016	1574.602	1520.388
571.773	20.083	1574.000	1520.220
572.788	20.346	1573.167	1521.549
573.802	20.463	1571.273	1520.562
574.817	20.548	1571.109	1520.971
575.832	20.696	1570.388	1521.395
576.846	20.850	1568.469	1520.700
577.861	20.687	1567.077	1517.739
578.875	20.719	1567.542	1518.294
579.890	20.996	1565.578	1518.631
580.905	20.852	1564.974	1516.605
581.919	20.943	1565.200	1517.439
582.934	21.066	1563.316	1516.506
583.948	21.052	1561.760	1514.692
584.963	20.793	1560.737	1511.254
585.978	20.597	1559.141	1507.822
586.992	20.743	1558.749	1508.539
588.007	20.909	1557.901	1508.979
589.021	20.543	1555.275	1503.080
590.036	20.103	1554.158	1497.994
591.051	20.424	1553.010	1499.494
592.065	20.633	1551.522	1499.693
593.080	20.859	1550.032	1500.026
594.094	20.909	1548.506	1498.801
595.109	20.564	1546.154	1493.370
596.123	20.295	1545.734	1490.459
597.138	20.599	1545.448	1492.633
598.153	20.830	1544.250	1493.283
599.167	20.777	1542.943	1491.389
600.182	20.899	1541.755	1491.110
601.196	20.921	1541.285	1490.670
602.211	20.930	1539.658	1488.988
603.226	21.081	1538.414	1488.906
604.240	21.217	1536.861	1488.390
605.255	21.175	1536.993	1487.980
606.269	21.109	1535.839	1486.119
607.284	21.106	1534.435	1484.557
608.299	21.091	1533.465	1483.313
609.313	21.058	1531.777	1481.224
610.328	21.023	1530.667	1479.672
611.342	20.989	1528.925	1477.519
612.357	21.239	1528.970	1479.512
613.372	21.322	1527.673	1478.790
614.386	21.211	1526.169	1476.210
615.401	21.196	1526.017	1475.760
616.415	21.052	1525.891	1474.242
617.430	21.176	1524.974	1474.230
618.445	21.293	1523.325	1473.453
619.459	21.182	1521.445	1470.518
620.474	20.865	1519.254	1465.543
621.488	20.416	1517.744	1460.120
622.503	20.315	1515.720	1457.142
623.518	20.534	1516.586	1459.655
624.532	21.023	1515.879	1462.918
625.547	21.202	1514.677	1463.096
626.561	21.390	1514.502	1464.332
627.576	21.377	1513.751	1463.319
628.591	21.034	1510.424	1457.053
629.605	20.663	1509.162	1452.541
630.620	20.405	1508.042	1449.132
631.634	20.370	1506.422	1447.108
632.649	20.523	1506.011	1447.817
633.663	20.625	1505.113	1447.636
634.678	20.960	1504.354	1449.538
635.693	21.340	1503.202	1451.420
636.707	21.438	1501.663	1450.581
637.722	21.678	1500.513	1451.295
638.736	21.641	1500.355	1450.658
639.751	21.646	1499.637	1449.833
640.766	21.616	1497.850	1447.681
641.780	21.551	1496.538	1445.699
642.795	21.447	1495.717	1443.870
643.809	21.531	1494.879	1443.588
644.824	21.507	1493.885	1442.259
645.839	21.433	1492.495	1440.129
646.853	21.560	1491.301	1439.855
647.868	21.521	1489.775	1437.884
648.882	21.407	1488.785	1435.822
649.897	21.443	1487.319	1434.531
650.912	21.408	1486.292	1433.079
651.926	21.290	1484.716	1430.418
652.941	21.004	1483.182	1426.418
653.955	20.725	1481.102	1421.955
654.970	20.414	1479.284	1417.488
655.985	20.470	1477.517	1416.087
656.999	20.577	1476.333	1415.657
658.014	20.779	1475.828	1416.650
659.028	20.904	1475.585	1417.270
660.043	21.056	1475.594	1418.354
661.058	21.350	1473.199	1418.285
662.072	21.472	1472.760	1418.682
663.087	21.293	1472.519	1416.819
664.101	21.310	1471.219	1415.543
665.116	21.573	1470.060	1416.398
666.131	21.555	1469.662	1415.692
667.145	21.531	1468.079	1413.809
668.160	21.550	1467.651	1413.382
669.174	21.746	1466.361	1413.554
670.189	21.742	1465.298	1412.333
671.204	21.576	1463.965	1409.537
672.218	21.483	1463.209	1407.881
673.233	21.823	1461.567	1408.881
674.247	22.016	1461.025	1409.752
675.262	22.061	1460.344	1409.284
676.276	21.987	1458.636	1406.874
677.291	21.767	1457.338	1403.683
678.306	21.593	1456.424	1401.231
679.320	21.549	1455.269	1399.605
680.335	21.788	1455.162	1401.249
681.349	21.959	1454.502	1401.822
682.364	21.921	1453.428	1400.317
683.379	21.979	1451.552	1398.806
684.393	21.791	1450.006	1395.640
685.408	21.776	1449.598	1394.962
686.422	21.721	1448.471	1393.272
687.437	21.753	1448.496	1393.386
688.452	21.959	1447.024	1393.441
689.466	21.904	1444.659	1390.566
690.481	21.645	1443.726	1387.436
691.495	21.215	1442.785	1382.945
692.510	20.752	1440.028	1376.454
693.525	20.644	1438.451	1373.927
694.539	20.802	1438.174	1374.752
695.554	21.340	1438.872	1379.522
696.568	21.833	1437.768	1382.204
697.583	21.979	1437.475	1382.918
698.598	21.844	1436.835	1381.062
699.612	22.172	1434.734	1381.473
700.627	22.048	1434.014	1379.637
701.641	21.972	1432.799	1377.702
702.656	21.927	1431.683	1376.107
703.671	22.249	1431.670	1378.472
704.685	22.266	1431.213	1377.995
705.700	22.074	1429.156	1374.343
706.714	21.897	1427.296	1371.001
707.729	21.726	1425.617	1367.883
708.744	21.669	1424.428	1366.133
709.758	21.394	1423.224	1362.657
710.773	21.193	1421.648	1359.417
711.787	21.074	1419.275	1356.048
712.802	21.384	1418.150	1357.237
713.816	21.522	1418.226	1358.216
714.831	21.803	1417.415	1359.468
715.846	21.939	1416.672	1359.659
716.860	22.099	1415.964	1360.063
717.875	21.892	1415.291	1357.638
718.889	22.079	1413.794	1357.495
719.904	22.059	1412.764	1356.188
720.919	22.097	1411.823	1355.415
721.933	22.278	1411.094	1355.959
722.948	22.378	1410.195	1355.702
723.962	22.279	1408.955	1353.583
724.977	22.385	1408.113	1353.433
725.992	22.325	1407.253	1351.982
727.006	22.304	1405.866	1350.327
728.021	22.369	1404.345	1349.201
729.035	22.365	1403.629	1348.320
730.050	22.291	1402.266	1346.286
731.065	22.276	1401.550	1345.320
732.079	22.337	1400.931	1345.032
733.094	22.235	1399.273	1342.494
734.108	22.203	1397.252	1340.154
735.123	22.340	1396.164	1339.997
736.138	22.120	1395.370	1337.389
737.152	22.237	1395.000	1337.770
738.167	22.415	1393.610	1337.639
739.181	22.583	1392.707	1337.890
740.196	22.312	1392.687	1335.647
741.211	22.341	1391.772	1334.829
742.225	22.191	1390.454	1332.264
743.240	22.352	1389.274	1332.195
744.254	22.320	1387.895	1330.473
745.269	22.217	1387.212	1328.875
746.284	22.214	1385.277	1326.844
747.298	22.035	1383.573	1323.698
748.313	21.619	1382.055	1318.935
749.327	21.301	1380.934	1315.304
750.342	20.938	1379.706	1311.227
751.356	20.668	1378.167	1307.573
752.371	20.912	1377.684	1308.795
753.386	21.670	1377.592	1314.273
754.400	22.170	1378.202	1318.467
755.415	22.409	1376.747	1318.720
756.429	22.653	1374.956	1318.681
757.444	22.415	1374.176	1315.983
758.459	22.497	1373.241	1315.549
759.473	22.591	1372.822	1315.698
760.488	22.621	1371.496	1314.490
761.502	22.641	1370.732	1313.750
762.517	22.342	1369.228	1309.916
763.532	22.403	1367.175	1308.251
764.546	22.074	1365.435	1303.977
765.561	21.538	1364.137	1298.584
766.575	21.221	1363.040	1295.018
767.590	21.138	1361.948	1293.209
768.605	21.525	1360.942	1294.982
769.619	21.990	1360.188	1297.561
770.634	22.293	1359.504	1299.004
771.648	22.491	1359.471	1300.284
772.663	22.569	1359.029	1300.284
773.678	22.632	1358.506	1300.098
774.692	22.507	1357.577	1298.129
775.707	22.741	1356.606	1298.777
776.721	22.602	1355.581	1296.611
777.736	22.515	1354.926	1295.186
778.751	22.600	1354.073	1294.840
779.765	22.698	1351.985	1293.413
780.780	22.676	1351.768	1292.890
781.794	22.500	1351.424	1291.106
782.809	22.398	1350.044	1288.881
783.824	22.342	1347.898	1286.271
784.838	21.893	1345.269	1280.313
785.853	21.235	1344.065	1274.192
786.867	21.382	1344.057	1275.111
787.882	21.691	1344.211	1277.369
788.897	21.973	1343.383	1278.495
789.911	22.204	1342.514	1279.200
790.926	22.354	1341.851	1279.515
791.940	22.476	1340.909	1279.351
792.955	22.448	1339.346	1277.506
793.969	22.551	1338.413	1277.213
794.984	22.629	1337.410	1276.669
795.999	22.747	1336.932	1276.920
797.013	22.718	1335.488	1275.176
798.028	22.663	1333.754	1272.970
799.042	22.771	1333.127	1273.000
800.057	22.867	1332.182	1272.645
801.072	22.768	1331.165	1270.805
802.086	22.718	1329.906	1269.087
803.101	22.990	1328.119	1269.195
804.115	23.013	1327.575	1268.689
805.130	22.872	1326.702	1266.683
806.145	22.822	1325.376	1264.910
807.159	22.806	1324.033	1263.356
808.174	22.623	1322.332	1260.273
809.188	22.436	1321.130	1257.628
810.203	22.260	1319.120	1254.308
811.218	22.077	1317.666	1251.464
812.232	21.733	1316.026	1247.292
813.247	21.434	1315.127	1244.152
814.261	21.937	1314.909	1247.398
815.276	22.444	1314.322	1250.308
816.291	22.567	1314.253	1250.972
817.305	22.772	1313.491	1251.559
818.320	22.778	1312.630	1250.626
819.334	22.755	1311.075	1248.832
820.349	22.827	1309.756	1247.938
821.364	22.874	1308.601	1247.024
822.378	22.848	1307.630	1245.762
823.393	22.937	1305.526	1244.239
824.407	22.944	1304.788	1243.436
825.422	22.695	1304.695	1241.440
826.437	22.669	1302.818	1239.322
827.451	22.648	1300.349	1236.679
828.466	21.779	1298.261	1228.427
829.480	21.459	1296.973	1224.810
830.495	21.796	1295.717	1225.842
831.509	22.110	1295.805	1227.986
832.524	22.495	1295.402	1230.162
833.539	22.799	1294.393	1231.184
834.553	22.859	1292.891	1230.032
835.568	22.964	1292.585	1230.325
836.582	22.917	1291.395	1228.718
837.597	23.008	1289.529	1227.429
838.612	22.830	1288.224	1224.800
839.626	22.705	1286.882	1222.510
840.641	22.453	1285.552	1219.347
841.655	22.213	1284.381	1216.417
842.670	21.746	1282.916	1211.644
843.685	21.370	1281.466	1207.519
844.699	21.940	1280.926	1210.818
845.714	22.458	1280.079	1213.460
846.728	22.456	1279.921	1213.150
847.743	22.736	1278.746	1213.829
848.758	22.916	1277.568	1213.811
849.772	23.064	1276.348	1213.528
850.787	22.934	1275.300	1211.488
851.801	22.802	1274.243	1209.433
852.816	22.854	1273.145	1208.602
853.831	22.648	1271.664	1205.633
854.845	22.791	1269.373	1204.300
855.860	22.696	1267.442	1201.674
856.874	22.376	1267.113	1199.030
857.889	22.139	1264.565	1194.855
858.904	21.792	1262.497	1190.390
859.918	21.427	1260.975	1186.324
860.933	21.112	1260.563	1183.647
861.947	21.655	1259.942	1186.619
862.962	22.070	1258.925	1188.344
863.977	22.127	1258.655	1188.336
864.991	22.238	1258.661	1188.947
866.006	22.627	1257.698	1190.538
867.020	22.885	1256.708	1191.212
868.035	22.858	1255.780	1190.007
869.049	22.846	1255.027	1189.066
870.064	22.952	1254.179	1188.837
871.079	22.942	1252.839	1187.357
872.093	22.931	1252.447	1186.772
873.108	22.745	1251.450	1184.428
874.122	22.532	1250.004	1181.480
875.137	22.138	1248.920	1177.664
876.152	22.043	1247.664	1175.700
877.166	22.095	1246.209	1174.536
878.181	22.576	1245.240	1176.713
879.195	22.831	1245.112	1178.158
880.210	22.973	1244.584	1178.474
881.225	22.958	1243.126	1176.852
882.239	22.959	1242.900	1176.501
883.254	22.879	1242.059	1175.031
884.268	23.101	1240.865	1175.245
885.283	23.124	1238.940	1173.430
886.298	22.845	1237.962	1170.509
887.312	23.035	1237.055	1170.776
888.327	23.162	1235.662	1170.161
889.341	23.000	1234.532	1167.876
890.356	22.810	1234.243	1166.196
891.371	22.825	1233.554	1165.504
892.385	22.740	1232.729	1164.022
893.400	22.565	1231.826	1161.872
894.414	22.471	1228.956	1158.405
895.429	22.362	1227.164	1155.860
896.444	21.616	1224.737	1148.515
897.458	21.039	1223.833	1143.733
898.473	21.438	1224.159	1146.529
899.487	22.037	1223.641	1149.848
900.502	22.455	1223.848	1152.656
901.517	22.638	1222.354	1152.311
902.531	22.792	1221.577	1152.456
903.546	22.935	1221.059	1152.766
904.560	22.916	1220.263	1151.750
905.575	22.908	1219.380	1150.729
906.589	22.960	1218.905	1150.484
907.604	22.810	1218.131	1148.636
