DTS Sentinel unit serial number:	SN409020Multiplexer serial number:	ORYXHardware model number:	OX4-SRSoftware version number:	ORYX F/W v3.00 Oryx Data Collector v3.7.2.0data status	okinstallation	HaddamTimeLapsedifferential loss correction	single-endedforward channel	channel 3reverse channel	N/Adate	2011/06/21time	21:41:17forward acquisition time	30.00reverse acquisition time	0.00gamma	498.7831k internal	0.1761k external	0.1761temperature offset calibration	1.0074default loss term (dB/km)	0.3790temperature slope calibration	1.3530multiplexer offset coefficient	1.0000multiplexer slope coefficient	1.0000fibre end	0.00T internal ref (°C)	25.75T ext. ref 1 (°C)	19.42T ext. ref 2 (°C)	0.03length (m)	temperature (°C)	Stokes	anti-Stokes-747.200	87.078	-0.211	-0.308
-746.185	219.202	-0.131	0.279
-745.171	115.776	0.179	0.290
-744.156	-100.205	0.167	-0.055
-743.142	-121.071	-0.150	0.033
-742.127	-200.000	0.030	0.569
-741.112	447.913	-0.131	-0.384
-740.098	-200.000	-0.015	-0.160
-739.083	367.092	0.066	0.176
-738.069	-200.000	-0.035	0.693
-737.054	-77.714	-0.315	0.143
-736.039	-140.632	-0.278	0.038
-735.025	-157.097	0.740	-0.059
-734.010	-9.203	-0.485	-0.428
-732.996	-123.167	0.168	-0.035
-731.981	99.751	0.236	-0.362
-730.966	59.861	0.211	0.275
-729.952	370.010	0.166	-0.445
-728.937	-149.004	0.139	-0.015
-727.923	-200.000	0.104	0.723
-726.908	431.098	0.160	0.461
-725.894	-89.861	-0.411	-0.158
-724.879	-122.111	0.115	-0.025
-723.864	-116.168	-0.506	-0.123
-722.850	-110.999	0.173	0.047
-721.835	114.422	-0.278	-0.447
-720.821	-75.563	-0.047	-0.022
-719.806	-32.788	-0.340	0.249
-718.791	-74.314	0.376	-0.179
-717.777	800.000	-0.060	-0.255
-716.762	28.681	0.137	0.153
-715.748	209.168	0.023	-0.048
-714.733	177.436	-0.222	0.429
-713.718	-171.277	-0.492	0.021
-712.704	70.861	0.183	-0.250
-711.689	-125.967	-0.256	0.050
-710.675	8.744	0.223	0.222
-709.660	-200.000	0.315	0.000
-708.645	599.440	-0.141	-0.464
-707.631	-179.767	0.173	0.005
-706.616	-47.831	0.055	0.035
-705.602	5.167	-0.340	0.330
-704.587	-34.361	-0.394	0.285
-703.572	-113.021	0.488	0.126
-702.558	-104.686	0.222	0.067
-701.543	-23.326	0.129	0.102
-700.529	29.083	0.285	0.318
-699.514	-200.000	0.026	0.430
-698.499	-200.000	0.021	0.527
-697.485	92.388	-0.139	0.207
-696.470	-128.365	0.390	-0.073
-695.456	-84.773	-0.458	0.189
-694.441	-77.056	-0.049	0.023
-693.426	93.172	0.121	-0.181
-692.412	-143.315	-0.126	0.016
-691.397	-8.010	-0.119	-0.106
-690.383	-33.402	0.280	0.204
-689.368	-100.735	0.205	0.066
-688.354	55.310	-0.105	0.134
-687.339	-140.290	0.212	0.029
-686.324	67.088	-0.184	0.247
-685.310	-31.551	0.489	0.361
-684.295	-140.516	-0.379	-0.051
-683.281	-21.264	0.071	-0.057
-682.266	672.137	0.011	0.038
-681.251	-200.000	-0.026	-0.310
-680.237	24.450	-0.030	0.033
-679.222	83.985	-0.047	-0.068
-678.208	57.474	0.038	-0.048
-677.193	-46.975	0.349	-0.224
-676.178	319.240	-0.151	-0.378
-675.164	-200.000	-0.030	0.493
-674.149	39.575	-0.259	-0.306
-673.135	-200.000	-0.031	-0.284
-672.120	23.626	-0.308	0.333
-671.105	253.156	-0.218	-0.491
-670.091	-13.736	-0.255	0.217
-669.076	468.338	-0.127	-0.379
-668.062	-88.692	-0.111	0.043
-667.047	-53.781	-0.109	-0.065
-666.032	45.330	-0.310	0.377
-665.018	185.636	0.179	0.352
-664.003	147.774	0.242	-0.431
-662.989	-30.308	-0.258	-0.193
-661.974	-40.935	0.342	0.232
-660.959	-83.035	-0.395	0.167
-659.945	-72.620	0.021	0.010
-658.930	91.336	-0.123	0.183
-657.916	-70.351	-0.349	0.174
-656.901	-121.803	-0.133	-0.029
-655.886	-57.468	0.435	-0.250
-654.872	-171.268	0.535	0.023
-653.857	87.851	-0.074	-0.108
-652.843	14.320	-0.357	0.366
-651.828	14.085	0.466	0.477
-650.814	12.286	-0.154	0.156
-649.799	74.241	0.167	0.231
-648.784	-5.356	-0.064	0.058
-647.770	374.549	0.083	-0.224
-646.755	95.689	-0.077	-0.116
-645.741	64.909	-0.168	-0.223
-644.726	-85.998	0.182	-0.074
-643.711	60.300	-0.201	0.262
-642.697	-168.946	0.355	-0.017
-641.682	-108.552	0.189	0.053
-640.668	-77.985	-0.147	-0.066
-639.653	-30.868	-0.117	0.087
-638.638	-91.591	0.378	0.141
-637.624	-75.674	0.451	0.210
-636.609	381.623	-0.116	-0.314
-635.595	800.000	0.065	-0.329
-634.580	-96.882	-0.208	-0.071
-633.565	-128.570	-0.198	0.037
-632.551	540.467	-0.067	0.213
-631.536	-52.546	-0.477	0.289
-630.522	88.861	-0.405	-0.593
-629.507	178.704	0.105	-0.202
-628.492	-150.043	-0.060	-0.006
-627.478	-31.344	-0.264	-0.195
-626.463	164.328	0.035	0.065
-625.449	-139.026	0.581	0.082
-624.434	-200.000	0.007	-0.230
-623.419	-50.471	0.124	0.077
-622.405	-200.000	-0.031	0.301
-621.390	-20.594	-0.041	0.033
-620.376	88.525	-0.179	0.263
-619.361	-176.885	0.491	0.016
-618.346	-68.986	-0.455	-0.230
-617.332	-114.323	-0.140	0.035
-616.317	-145.276	0.503	-0.059
-615.303	193.778	-0.185	-0.370
-614.288	-141.359	-0.479	-0.063
-613.273	-116.951	0.447	-0.107
-612.259	-103.741	0.305	-0.093
-611.244	-135.569	0.717	-0.111
-610.230	-114.160	0.340	0.086
-609.215	2.218	-0.294	0.279
-608.201	-52.283	-0.269	0.163
-607.186	-84.342	0.449	-0.186
-606.171	-160.751	0.237	-0.016
-605.157	800.000	0.076	0.337
-604.142	33.336	-0.319	-0.363
-603.128	-17.681	-0.197	-0.162
-602.113	-155.191	-0.429	0.036
-601.098	800.000	0.099	-0.531
-600.084	-113.361	0.346	0.089
-599.069	-140.694	-0.246	0.033
-598.055	225.271	-0.104	0.222
-597.040	800.000	-0.158	0.642
-596.025	337.353	0.051	-0.130
-595.011	193.793	-0.105	-0.210
-593.996	-45.748	0.322	-0.208
-592.982	-157.571	-0.543	0.042
-591.967	-174.515	-0.355	-0.013
-590.952	-115.380	0.144	-0.035
-589.938	-200.000	0.016	0.127
-588.923	550.124	-0.071	-0.224
-587.909	800.000	-0.081	-0.300
-586.894	800.000	0.065	-0.330
-585.879	-49.529	0.179	0.112
-584.865	78.577	0.082	-0.115
-583.850	457.380	0.088	-0.258
-582.836	208.340	0.139	-0.287
-581.821	-95.199	0.238	0.084
-580.806	152.483	0.081	-0.146
-579.792	-200.000	-0.013	-0.098
-578.777	-200.000	0.002	0.130
-577.763	-163.820	0.491	0.030
-576.748	36.057	0.452	0.523
-575.733	-137.907	-0.281	-0.041
-574.719	174.436	0.304	0.579
-573.704	-96.900	-0.396	0.135
-572.690	77.556	0.334	-0.467
-571.675	-106.488	0.342	0.100
-570.661	-4.900	0.209	0.188
-569.646	4.578	-0.457	0.440
-568.631	-172.886	0.293	0.012
-567.617	138.070	-0.263	0.454
-566.602	800.000	-0.062	-0.316
-565.588	114.494	-0.088	-0.141
-564.573	-7.378	-0.415	0.369
-563.558	439.947	0.154	0.445
-562.544	165.405	0.141	-0.263
-561.529	39.924	0.051	0.060
-560.515	-91.173	-0.268	0.100
-559.500	145.654	0.210	0.370
-558.485	-142.281	-0.366	-0.047
-557.471	40.635	-0.468	-0.553
-556.456	772.521	0.141	-0.507
-555.442	71.795	-0.106	-0.145
-554.427	114.471	-0.274	0.438
-553.412	-147.390	-0.079	-0.009
-552.398	65.100	-0.093	0.123
-551.383	-44.439	0.275	-0.180
-550.369	-180.620	-0.339	0.009
-549.354	-200.000	-0.069	-0.405
-548.339	-14.416	0.151	-0.127
-547.325	412.693	-0.052	-0.147
-546.310	-187.332	0.203	0.004
-545.296	1.752	0.310	0.293
-544.281	11.302	0.292	0.293
-543.266	-200.000	0.026	0.151
-542.252	26.536	0.105	0.115
-541.237	34.410	0.073	-0.083
-540.223	-90.911	0.291	0.109
-539.208	28.194	0.201	0.223
-538.193	-93.413	-0.329	0.119
-537.179	-96.429	-0.051	-0.018
-536.164	-143.989	0.203	0.025
-535.150	251.339	0.178	0.399
-534.135	-133.862	-0.293	0.047
-533.121	31.941	-0.280	0.317
-532.106	30.968	-0.158	0.178
-531.091	-200.000	0.004	0.093
-530.077	-44.488	-0.198	-0.130
-529.062	-48.400	0.587	0.369
-528.048	-74.824	0.383	0.179
-527.033	50.360	0.202	-0.251
-526.018	-130.340	-0.354	-0.062
-525.004	689.671	0.100	-0.344
-523.989	667.351	0.101	-0.343
-522.975	-200.000	0.088	0.541
-521.960	-104.419	0.141	-0.043
-520.945	-126.274	-0.669	-0.130
-519.931	301.425	-0.024	0.058
-518.916	692.568	0.043	0.148
-517.902	85.231	-0.108	-0.155
-516.887	-10.078	-0.319	-0.277
-515.872	-125.840	-0.254	-0.050
-514.858	179.566	0.350	-0.674
-513.843	-37.102	0.316	-0.221
-512.829	-48.830	-0.193	0.121
-511.814	-186.949	-0.423	-0.008
-510.799	323.864	-0.053	0.133
-509.785	115.019	-0.363	0.581
-508.770	170.842	0.137	-0.257
-507.756	-5.684	0.056	0.050
-506.741	-124.324	0.265	-0.054
-505.726	800.000	0.102	-0.416
-504.712	-144.931	0.346	-0.041
-503.697	-200.000	-0.006	0.427
-502.683	87.016	0.153	0.222
-501.668	339.560	0.073	0.187
-500.653	-40.552	0.598	0.405
-499.639	201.738	0.069	0.139
-498.624	-4.084	-0.070	-0.064
-497.610	62.020	-0.099	0.129
-496.595	24.252	-0.156	0.169
-495.581	-200.000	-0.020	-0.364
-494.566	-138.408	0.197	-0.028
-493.551	-100.433	0.373	-0.120
-492.537	-200.000	-0.007	0.155
-491.522	-114.221	-0.448	0.112
-490.508	321.284	-0.024	-0.059
-489.493	-77.912	-0.148	0.066
-488.478	-170.340	0.738	0.033
-487.464	-112.237	0.534	-0.139
-486.449	324.022	0.099	-0.249
-485.435	87.645	-0.228	0.331
-484.420	-48.666	0.048	-0.030
-483.405	144.159	0.214	-0.374
-482.391	62.701	-0.210	-0.274
-481.376	800.000	-0.110	-0.411
-480.362	57.101	0.244	0.312
-479.347	-45.165	0.145	-0.094
-478.332	120.700	0.117	0.191
-477.318	-24.820	-0.121	0.094
-476.303	-200.000	0.530	0.001
-475.289	-126.197	-0.456	-0.088
-474.274	800.000	-0.058	0.227
-473.259	263.150	-0.088	-0.200
-472.245	-200.000	0.010	0.511
-471.230	-174.208	-0.316	-0.012
-470.216	-32.995	-0.318	0.230
-469.201	800.000	-0.049	-0.232
-468.186	-86.319	0.109	0.044
-467.172	-141.054	-0.113	0.015
-466.157	310.221	-0.064	0.158
-465.143	-200.000	-0.013	-0.187
-464.128	-148.899	-0.360	-0.037
-463.113	-123.464	0.186	-0.038
-462.099	800.000	0.077	0.310
-461.084	95.371	0.244	0.365
-460.070	268.263	0.106	0.244
-459.055	575.602	0.022	-0.071
-458.040	-36.193	0.190	0.134
-457.026	-34.286	0.169	-0.121
-456.011	-200.000	-0.055	-0.349
-454.997	-13.864	-0.260	0.219
-453.982	405.848	0.162	-0.450
-452.968	-200.000	0.008	-0.122
-451.953	-70.875	-0.313	0.153
-450.938	-36.670	-0.030	-0.021
-449.924	-91.822	-0.465	0.171
-448.909	800.000	0.063	0.262
-447.895	1.288	0.093	-0.088
-446.880	-150.558	-0.338	0.033
-445.865	-20.126	-0.282	0.227
-444.851	800.000	-0.059	0.217
-443.836	-125.691	-0.467	-0.092
-442.822	-61.194	0.364	-0.200
-441.807	-20.883	-0.290	0.232
-440.792	-139.366	-0.198	0.027
-439.778	800.000	-0.055	0.268
-438.763	122.388	-0.197	0.323
-437.749	22.785	0.169	0.181
-436.734	148.759	0.082	-0.145
-435.719	-113.287	0.365	-0.093
-434.705	93.307	-0.133	0.197
-433.690	82.222	-0.038	-0.054
-432.676	172.143	-0.098	0.185
-431.661	74.314	0.174	-0.239
-430.646	-93.034	0.227	0.082
-429.632	-200.000	0.037	-0.445
-428.617	-200.000	0.058	0.553
-427.603	800.000	-0.099	-0.418
-426.588	17.870	-0.188	0.196
-425.573	-96.308	0.458	0.157
-424.559	-79.270	-0.213	0.094
-423.544	-200.000	-0.013	0.185
-422.530	-163.622	0.398	-0.024
-421.515	-200.000	-0.008	0.127
-420.500	-146.565	-0.158	-0.018
-419.486	800.000	-0.013	-0.050
-418.471	-123.566	-0.525	-0.108
-417.457	-107.661	0.053	0.015
-416.442	-113.830	0.107	0.027
-415.428	28.436	-0.210	-0.232
-414.413	-169.384	0.173	-0.008
-413.398	238.608	0.092	0.201
-412.384	-16.532	0.117	0.097
-411.369	-72.891	-0.125	0.060
-410.355	-175.562	0.055	-0.002
-409.340	800.000	0.115	-0.525
-408.325	231.066	-0.211	0.451
-407.311	-200.000	-0.018	0.121
-406.296	-130.848	0.400	-0.069
-405.282	61.473	0.177	0.229
-404.267	-154.275	0.092	0.008
-403.252	250.633	-0.186	-0.413
-402.238	-112.302	0.229	-0.059
-401.223	-18.830	-0.357	0.290
-400.209	120.512	0.195	0.317
-399.194	-200.000	-0.010	-0.085
-398.179	-104.511	0.339	-0.101
-397.165	800.000	0.100	0.560
-396.150	-200.000	-0.005	-0.309
-395.136	-35.606	0.326	-0.230
-394.121	-200.000	0.055	-0.358
-393.106	-107.174	0.147	0.042
-392.092	-126.412	-0.361	-0.069
-391.077	565.159	0.135	-0.429
-390.063	-41.620	-0.147	0.098
-389.048	215.892	-0.171	-0.355
-388.033	-200.000	0.004	-0.505
-387.019	8.336	-0.155	-0.152
-386.004	240.964	0.291	-0.636
-384.990	-33.717	0.357	0.256
-383.975	197.670	-0.240	-0.479
-382.960	-200.000	-0.056	-0.682
-381.946	84.082	0.153	-0.218
-380.931	800.000	0.115	0.462
-379.917	-158.976	-0.272	-0.020
-378.902	-190.555	-0.388	0.005
-377.888	-161.002	0.358	-0.024
-376.873	117.119	0.218	-0.349
-375.858	-115.486	0.314	0.076
-374.844	-116.783	0.185	-0.044
-373.829	69.416	-0.139	0.186
-372.815	109.720	-0.042	0.065
-371.800	-178.318	0.312	-0.009
-370.785	-24.983	0.353	-0.273
-369.771	-174.149	0.240	0.009
-368.756	-200.000	-0.003	-0.056
-367.742	-137.666	0.417	0.060
-366.727	-116.226	0.614	-0.147
-365.712	-188.890	-0.113	-0.002
-364.698	128.001	-0.035	-0.058
-363.683	800.000	0.049	-0.246
-362.669	-171.030	0.554	0.024
-361.654	343.916	-0.012	0.032
-360.639	-48.881	-0.449	0.279
-359.625	64.429	-0.385	0.505
-358.610	-125.254	-0.498	-0.098
-357.596	71.021	-0.159	0.214
-356.581	-200.000	-0.030	-0.305
-355.566	169.603	0.089	-0.165
-354.552	21.294	0.215	0.228
-353.537	-78.792	-0.353	0.156
-352.523	19.715	0.137	0.144
-351.508	-10.577	0.296	-0.255
-350.493	-159.778	-0.496	-0.035
-349.479	774.167	-0.184	-0.658
-348.464	-80.593	0.131	-0.057
-347.450	-118.784	0.373	0.085
-346.435	-9.313	-0.183	-0.159
-345.420	-136.526	-0.443	0.066
-344.406	36.969	0.149	0.171
-343.391	-58.398	0.240	-0.135
-342.377	151.544	0.073	-0.129
-341.362	800.000	0.061	-0.290
-340.348	-200.000	-0.012	0.282
-339.333	233.395	-0.077	-0.165
-338.318	-200.000	-0.007	-0.349
-337.304	-37.500	0.133	0.092
-336.289	140.280	-0.233	0.401
-335.275	-37.594	-0.388	-0.268
-334.260	-127.322	0.349	0.066
-333.245	-140.442	0.508	0.068
-332.231	-44.415	-0.356	0.231
-331.216	744.282	0.114	0.400
-330.202	-16.208	-0.130	0.107
-329.187	189.247	0.135	-0.263
-328.172	-1.926	0.247	-0.226
-327.158	-133.658	-0.447	0.072
-326.143	-129.376	0.211	0.038
-325.129	-59.399	-0.244	-0.136
-324.114	-152.705	-0.448	0.041
-323.099	800.000	-0.125	0.609
-322.085	800.000	0.052	-0.201
-321.070	-99.203	0.310	-0.101
-320.056	380.531	0.185	0.496
-319.041	44.734	-0.162	0.194
-318.026	-41.239	0.293	-0.196
-317.012	3.103	-0.084	0.079
-315.997	46.870	-0.137	-0.165
-314.983	800.000	-0.050	0.267
-313.968	-200.000	0.013	0.295
-312.953	-136.558	0.314	-0.047
-311.939	51.229	0.251	0.309
-310.924	-169.823	0.077	-0.004
-309.910	-181.987	-0.391	0.009
-308.895	-104.428	0.132	0.039
-307.880	153.966	0.165	0.294
-306.866	-160.205	-0.350	0.024
-305.851	-115.093	-0.181	-0.044
-304.837	-19.349	-0.393	0.316
-303.822	-146.546	-0.221	-0.025
-302.807	-200.000	0.019	-0.170
-301.793	-109.287	-0.182	0.050
-300.778	38.970	0.351	-0.408
-299.764	-200.000	0.013	0.209
-298.749	800.000	0.066	-0.261
-297.735	786.738	-0.077	0.276
-296.720	-200.000	-0.052	-0.414
-295.705	-41.504	-0.324	-0.216
-294.691	469.624	0.087	0.254
-293.676	-144.533	-0.317	0.038
-292.662	63.906	-0.156	0.204
-291.647	-32.720	-0.241	0.174
-290.632	-53.647	-0.165	-0.097
-289.618	557.752	0.012	0.038
-288.603	-2.247	-0.185	0.169
-287.589	104.979	-0.272	-0.417
-286.574	800.000	0.034	0.162
-285.559	-129.378	-0.065	-0.012
-284.545	-187.619	-0.270	-0.005
-283.530	-32.047	0.214	0.155
-282.516	-28.024	0.491	0.368
-281.501	-5.041	0.303	-0.271
-280.486	-200.000	0.019	0.565
-279.472	-200.000	0.024	-0.302
-278.457	69.078	-0.141	-0.189
-277.443	-83.203	-0.383	0.159
-276.428	98.586	0.382	0.572
-275.413	1.016	0.317	0.295
-274.399	800.000	0.083	-0.351
-273.384	-67.682	0.229	-0.116
-272.370	212.010	0.035	-0.073
-271.355	-40.839	-0.524	-0.351
-270.340	85.657	0.175	-0.250
-269.326	-9.029	-0.368	-0.319
-268.311	-200.000	-0.000	-0.180
-267.297	61.573	0.498	0.643
-266.282	194.138	0.187	0.368
-265.267	85.996	-0.516	0.737
-264.253	-83.880	-0.302	0.124
-263.238	-0.208	-0.357	0.329
-262.224	800.000	-0.098	-0.419
-261.209	12.345	0.261	-0.260
-260.195	-4.535	-0.532	0.476
-259.180	-29.380	0.489	0.362
-258.165	-123.653	-0.656	-0.134
-257.151	-24.262	-0.215	-0.166
-256.136	173.724	0.061	-0.115
-255.122	-124.995	0.372	-0.074
-254.107	-85.439	0.479	0.193
-253.092	-77.798	-0.359	-0.160
-252.078	-91.831	-0.394	-0.144
-251.063	-2.972	-0.256	-0.231
-250.049	-200.000	-0.031	0.233
-249.034	-111.682	0.242	-0.063
-248.019	-9.959	-0.326	0.280
-247.005	-165.442	0.470	0.026
-245.990	-96.079	0.298	-0.102
-244.976	-30.731	-0.196	0.143
-243.961	-20.418	-0.370	-0.294
-242.946	-125.353	-0.139	0.027
-241.932	-112.283	-0.253	0.065
-240.917	296.937	-0.189	-0.451
-239.903	138.746	-0.097	0.165
-238.888	105.597	-0.074	0.113
-237.873	-5.980	-0.381	-0.337
-236.859	-200.000	0.028	-0.261
-235.844	210.283	0.174	-0.354
-234.830	119.311	0.023	0.038
-233.815	800.000	-0.165	-0.634
-232.800	56.132	-0.291	0.366
-231.786	-108.536	-0.198	-0.055
-230.771	567.640	-0.012	0.038
-229.757	-200.000	-0.073	0.627
-228.742	-93.860	-0.318	0.113
-227.727	-80.969	-0.324	-0.138
-226.713	146.147	0.162	-0.282
-225.698	-64.363	0.207	-0.109
-224.684	285.312	-0.152	-0.356
-223.669	71.430	0.425	0.572
-222.655	17.348	-0.575	0.591
-221.640	-60.075	-0.155	-0.085
-220.625	-128.316	-0.406	-0.074
-219.611	55.242	-0.146	0.183
-218.596	28.791	0.373	0.409
-217.582	-88.705	0.179	-0.068
-216.567	-105.462	0.140	0.041
-215.552	-23.346	0.250	0.194
-214.538	-35.048	0.249	-0.175
-213.523	-200.000	0.059	-0.393
-212.509	39.684	-0.297	-0.345
-211.494	-40.978	-0.327	-0.218
-210.479	-130.315	0.223	-0.039
-209.465	121.528	0.025	-0.040
-208.450	-144.693	0.282	-0.033
-207.436	-30.024	-0.481	0.354
-206.421	-151.536	-0.229	-0.022
-205.406	-38.118	0.431	-0.295
-204.392	98.972	-0.044	-0.065
-203.377	26.894	0.220	-0.239
-202.363	-103.305	0.359	0.109
-201.348	346.375	0.084	0.215
-200.333	-200.000	-0.011	0.295
-199.319	-104.557	0.591	0.175
-198.304	-200.000	0.001	-0.103
-197.290	26.112	-0.223	0.241
-196.275	144.281	-0.134	0.231
-195.260	-69.960	-0.420	0.206
-194.246	-136.102	0.206	0.031
-193.231	-70.753	-0.507	0.247
-192.217	746.322	0.060	-0.210
-191.202	-136.454	-0.382	-0.057
-190.187	-133.238	0.187	-0.030
-189.173	-46.061	0.214	0.136
-188.158	267.303	0.240	-0.545
-187.144	-112.111	0.377	-0.097
-186.129	190.062	-0.103	-0.201
-185.114	39.566	0.341	0.396
-184.100	-122.203	-0.287	0.060
-183.085	90.910	-0.273	-0.397
-182.071	-85.771	-0.417	-0.166
-181.056	683.202	0.120	-0.406
-180.042	139.164	0.295	0.502
-179.027	-74.442	0.188	0.087
-178.012	95.917	0.148	-0.218
-176.998	-67.803	-0.236	-0.119
-175.983	-200.000	-0.057	-0.404
-174.969	-151.828	0.527	0.049
-173.954	12.814	0.194	-0.193
-172.939	103.632	0.167	0.253
-171.925	-17.224	0.294	-0.239
-170.910	-75.518	0.353	-0.161
-169.896	5.240	-0.109	-0.104
-168.881	-148.263	-0.419	0.044
-167.866	-50.276	-0.204	-0.124
-166.852	-41.428	0.042	0.028
-165.837	-200.000	-0.029	0.258
-164.823	800.000	-0.051	0.227
-163.808	-38.196	-0.297	-0.203
-162.793	198.181	-0.225	-0.446
-161.779	800.000	0.078	-0.442
-160.764	800.000	-0.039	-0.165
-159.750	-200.000	-0.020	0.153
-158.735	-145.402	0.527	-0.061
-157.720	53.715	-0.118	-0.146
-156.706	46.900	-0.069	-0.083
-155.691	-168.596	-0.246	0.012
-154.677	-52.055	-0.162	0.097
-153.662	79.108	0.203	0.281
-152.647	-200.000	0.012	0.095
-151.633	800.000	0.092	-0.356
-150.618	-23.944	0.134	-0.103
-149.604	-160.335	-0.304	-0.021
-148.589	-96.682	-0.286	0.097
-147.574	-116.245	-0.277	0.066
-146.560	194.407	0.216	-0.424
-145.545	-200.000	0.037	-0.224
-144.531	181.061	-0.043	-0.081
-143.516	-200.000	0.042	-0.538
-142.502	-125.364	-0.310	-0.061
-141.487	142.754	-0.318	0.547
-140.472	-109.505	-0.241	-0.065
-139.458	-169.637	0.392	-0.018
-138.443	-131.828	-0.126	0.021
-137.429	-95.377	-0.068	0.024
-136.414	28.690	-0.156	-0.171
-135.399	-19.609	0.121	-0.096
-134.385	129.876	0.091	-0.151
-133.370	71.628	0.330	-0.443
-132.356	-91.101	0.190	0.070
-131.341	-165.903	-0.271	-0.015
-130.326	-75.860	0.459	-0.209
-129.312	-140.451	0.357	-0.047
-128.297	493.895	-0.127	0.378
-127.283	-17.710	0.476	0.385
-126.268	-170.300	0.323	-0.014
-125.253	-200.000	-0.032	0.457
-124.239	-45.725	0.328	-0.208
-123.224	201.500	-0.083	-0.165
-122.210	172.239	-0.077	0.143
-121.195	-9.145	-0.163	-0.140
-120.180	-49.877	0.366	0.223
-119.166	-80.933	0.261	0.111
-118.151	77.796	0.387	-0.532
-117.137	78.241	0.171	-0.236
-116.122	-89.477	0.370	-0.140
-115.107	23.742	0.151	-0.160
-114.093	8.412	0.212	-0.206
-113.078	-70.139	0.156	0.076
-112.064	-88.652	0.356	0.136
-111.049	46.333	-0.190	0.227
-110.034	-134.464	-0.451	0.070
-109.020	-101.125	0.449	-0.141
-108.005	-10.714	0.029	-0.025
-106.991	-2.010	-0.211	-0.191
-105.976	-27.237	-0.029	0.021
-104.962	-200.000	0.040	-0.251
-103.947	183.671	-0.102	-0.196
-102.932	-34.526	0.186	-0.131
-101.918	-139.275	-0.497	-0.068
-100.903	-200.000	-0.197	-0.001
-99.889	53.428	0.151	-0.186
-98.874	227.084	-0.158	-0.332
-97.859	42.893	0.240	0.282
-96.845	-102.105	0.164	0.051
-95.830	-199.579	-0.214	0.001
-94.816	-53.211	-0.254	0.150
-93.801	-200.000	0.014	0.460
-92.786	0.778	-0.364	-0.336
-91.772	-35.298	0.353	0.246
-90.757	272.898	0.004	-0.008
-89.743	-100.935	0.308	-0.097
-88.728	800.000	0.138	0.520
-87.713	-76.180	0.258	-0.117
-86.699	-103.061	0.227	-0.069
-85.684	122.304	0.212	-0.341
-84.670	43.295	0.136	-0.160
-83.655	800.000	0.085	-0.355
-82.640	173.440	0.211	-0.393
-81.626	10.422	0.232	0.227
-80.611	-181.790	0.318	-0.008
-79.597	800.000	0.079	-0.400
-78.582	-200.000	-0.046	0.277
-77.567	-116.140	0.578	0.137
-76.553	-78.009	0.434	-0.192
-75.538	488.715	0.081	-0.240
-74.524	-1.002	-0.349	-0.317
-73.509	-51.067	0.130	0.078
-72.494	-19.961	0.596	0.473
-71.480	800.000	-0.046	-0.205
-70.465	800.000	-0.083	-0.314
-69.451	-68.642	0.312	-0.155
-68.436	-180.890	-0.351	0.009
-67.422	11.084	-0.269	-0.265
-66.407	-118.643	0.272	-0.061
-65.392	-126.765	0.121	-0.023
-64.378	53.649	0.049	-0.061
-63.363	-200.000	0.045	-0.520
-62.349	800.000	-0.038	-0.204
-61.334	-28.549	-2.375	-1.757
-60.319	25.267	1.117	1.193
-59.305	203.989	-3.784	-7.560
-58.290	41.307	3.868	4.500
-57.276	460.415	3.488	10.043
-56.261	-200.000	20.685	297.762
-55.246	364.802	1289.399	3352.645
-54.232	53.124	2862.521	3526.702
-53.217	53.749	2679.318	3310.515
-52.203	35.821	2408.086	2723.183
-51.188	31.267	2074.300	2289.664
-50.173	27.660	1960.661	2122.035
-49.159	26.459	1950.268	2096.718
-48.144	26.180	1944.901	2087.619
-47.130	26.179	1941.931	2084.335
-46.115	26.211	1940.944	2083.566
-45.100	25.984	1940.733	2080.631
-44.086	26.021	1938.949	2079.063
-43.071	26.002	1936.977	2076.646
-42.057	25.917	1936.125	2074.671
-41.042	25.963	1934.797	2073.690
-40.027	26.007	1932.936	2072.120
-39.013	26.061	1931.250	2070.853
-37.998	25.997	1929.713	2068.392
-36.984	26.006	1927.813	2066.377
-35.969	25.978	1926.869	2064.957
-34.954	25.897	1925.587	2062.565
-33.940	25.790	1924.901	2060.522
-32.925	25.879	1922.617	2059.019
-31.911	25.800	1922.363	2057.752
-30.896	25.944	1920.417	2057.248
-29.881	25.873	1919.319	2055.176
-28.867	25.869	1917.852	2053.478
-27.852	25.861	1916.657	2052.017
-26.838	25.635	1916.482	2049.166
-25.823	25.721	1914.263	2047.698
-24.809	25.721	1913.496	2046.787
-23.794	25.697	1912.241	2045.091
-22.779	25.676	1910.617	2043.042
-21.765	25.699	1909.326	2041.834
-20.750	25.736	1908.256	2041.031
-19.736	25.731	1907.719	2040.327
-18.721	25.720	1905.689	2037.943
-17.706	25.697	1904.341	2036.158
-16.692	25.720	1903.149	2035.064
-15.677	25.791	1902.045	2034.609
-14.663	25.582	1900.951	2030.989
-13.648	25.692	1898.994	2030.067
-12.633	25.753	1897.387	2028.954
-11.619	25.618	1896.689	2026.597
-10.604	25.677	1895.309	2025.719
-9.590	25.599	1894.356	2023.738
-8.575	25.628	1892.855	2022.376
-7.560	25.556	1891.490	2020.022
-6.546	25.471	1891.032	2018.494
-5.531	25.647	1888.992	2018.221
-4.517	25.557	1888.412	2016.507
-3.502	25.538	1887.697	2015.455
-2.487	25.589	1886.635	2014.816
-1.473	25.623	1882.407	2010.603
-0.458	25.202	1863.549	1985.691
0.556	21.056	2008.399	2077.985
1.571	19.074	2214.439	2264.706
2.586	19.773	2254.693	2315.010
3.600	19.812	2258.345	2319.009
4.615	19.858	2257.517	2318.495
5.629	19.794	2254.732	2314.502
6.644	19.735	2253.004	2311.649
7.659	19.806	2251.413	2310.695
8.673	19.827	2250.057	2309.308
9.688	19.691	2257.275	2314.613
10.702	18.606	2337.448	2381.403
11.717	16.797	2401.530	2420.441
12.731	7.962	2380.807	2272.988
13.746	1.125	2363.075	2158.191
14.761	0.304	2358.490	2142.018
15.775	0.077	2357.364	2137.509
16.790	0.058	2355.012	2134.844
17.804	0.045	2354.158	2133.623
18.819	-0.011	2352.540	2131.104
19.834	0.062	2351.283	2130.750
20.848	0.084	2348.913	2128.667
21.863	0.105	2347.774	2127.682
22.877	0.056	2345.912	2125.031
23.892	0.113	2343.690	2123.581
24.907	-0.002	2343.019	2121.083
25.921	0.016	2339.702	2118.078
26.936	-0.026	2337.346	2115.108
27.950	0.014	2335.503	2113.742
28.965	0.171	2332.748	2113.212
29.980	0.085	2331.311	2110.443
30.994	0.103	2329.563	2108.870
32.009	3.906	2341.358	2173.056
33.023	13.519	2369.301	2335.559
34.038	17.683	2377.269	2402.237
35.053	17.688	2372.923	2397.630
36.067	17.548	2370.474	2392.892
37.082	17.360	2368.275	2387.728
38.096	17.592	2365.467	2387.881
39.111	17.817	2364.272	2389.556
40.126	18.063	2362.671	2391.122
41.140	18.177	2360.985	2390.722
42.155	18.154	2359.698	2388.816
43.169	18.107	2357.401	2385.536
44.184	17.832	2354.389	2378.356
45.199	17.827	2352.264	2375.849
46.213	17.820	2352.139	2375.353
47.228	17.944	2350.704	2375.342
48.242	18.096	2348.795	2375.253
49.257	18.221	2347.100	2375.002
50.271	18.238	2345.476	2373.316
51.286	18.004	2341.657	2365.913
52.301	17.781	2339.501	2360.342
53.315	18.651	2343.354	2376.057
54.330	22.054	2352.480	2432.497
55.344	24.100	2354.465	2462.724
56.359	24.261	2351.765	2461.837
57.374	24.458	2349.878	2462.302
58.388	24.670	2347.533	2462.491
59.403	24.245	2343.259	2451.833
60.417	23.840	2339.063	2441.566
61.432	23.807	2338.614	2440.343
62.447	24.100	2336.479	2441.862
63.461	24.234	2336.009	2442.930
64.476	24.500	2333.071	2443.218
65.490	24.225	2331.587	2437.598
66.505	23.161	2328.158	2419.106
67.520	20.852	2318.141	2376.783
68.534	18.458	2308.756	2334.139
69.549	17.810	2303.153	2319.343
70.563	17.616	2301.244	2314.491
71.578	17.507	2300.285	2311.764
72.593	17.794	2297.950	2313.046
73.607	17.894	2297.205	2313.389
74.622	17.797	2294.576	2309.137
75.636	17.635	2291.753	2303.826
76.651	17.602	2289.251	2300.590
77.666	17.591	2286.397	2297.294
78.680	17.502	2284.632	2294.034
79.695	17.133	2282.287	2286.424
80.709	17.114	2279.909	2283.507
81.724	17.070	2278.702	2281.431
82.739	17.040	2276.563	2278.614
83.753	17.234	2274.202	2278.594
84.768	17.083	2272.666	2274.739
85.782	17.001	2271.710	2272.413
86.797	16.905	2268.083	2267.219
87.812	16.905	2266.922	2265.784
88.826	17.034	2266.131	2266.452
89.841	17.139	2263.133	2264.596
90.855	17.271	2260.506	2263.460
91.870	17.119	2259.810	2260.463
92.884	17.250	2258.237	2260.362
93.899	17.340	2256.308	2259.364
94.914	18.083	2259.882	2272.615
95.928	20.988	2269.056	2320.486
96.943	22.077	2267.064	2332.717
97.957	19.220	2255.083	2282.122
98.972	17.358	2247.758	2249.704
99.987	17.229	2245.012	2244.970
101.001	17.164	2242.762	2241.590
102.016	17.210	2240.252	2239.425
103.030	17.059	2238.528	2235.424
104.045	17.081	2236.064	2232.997
105.060	17.147	2233.971	2231.502
106.074	17.154	2232.551	2229.910
107.089	17.143	2231.204	2228.156
108.103	17.217	2230.395	2228.060
109.118	17.473	2228.252	2229.015
110.133	17.400	2227.775	2227.313
111.147	17.267	2223.459	2220.987
112.162	17.117	2223.034	2218.322
113.176	17.502	2221.520	2221.604
114.191	17.542	2220.754	2221.094
115.206	17.574	2218.512	2219.003
116.220	17.455	2217.141	2215.807
117.235	17.676	2214.209	2215.502
118.249	17.659	2212.068	2212.874
119.264	17.518	2211.075	2209.772
120.279	17.461	2209.985	2207.684
121.293	17.589	2208.029	2207.133
122.308	17.656	2206.020	2205.730
123.322	17.533	2204.654	2202.491
124.337	18.031	2206.372	2210.421
125.352	20.998	2215.603	2258.091
126.366	21.884	2213.200	2266.880
127.381	18.940	2201.344	2216.377
128.395	17.642	2195.736	2193.682
129.410	17.491	2193.864	2189.594
130.424	17.419	2191.596	2186.143
131.439	17.540	2189.705	2185.552
132.454	17.580	2188.887	2184.990
133.468	17.588	2186.871	2182.829
134.483	17.956	2185.736	2186.162
135.497	17.955	2183.724	2183.877
136.512	17.753	2181.374	2178.671
137.527	17.598	2178.848	2173.909
138.541	17.353	2177.396	2169.058
139.556	17.286	2176.527	2167.067
140.570	17.403	2173.917	2165.711
141.585	17.173	2172.783	2161.372
142.600	17.096	2171.498	2158.862
143.614	17.133	2170.255	2157.832
144.629	17.056	2166.878	2153.233
145.643	16.957	2165.601	2150.452
146.658	17.013	2164.302	2149.612
147.673	16.860	2161.599	2144.727
148.687	16.971	2160.939	2145.226
149.702	17.211	2160.237	2147.324
150.716	17.107	2159.601	2145.108
151.731	17.205	2158.060	2144.568
152.746	17.389	2156.914	2145.511
153.760	18.188	2160.913	2159.367
154.775	21.310	2169.448	2207.347
155.789	22.358	2167.755	2218.649
156.804	19.298	2155.715	2167.437
157.819	17.447	2147.395	2135.484
158.833	17.183	2143.761	2128.295
159.848	17.142	2142.587	2126.356
160.862	17.276	2140.497	2125.719
161.877	17.413	2140.016	2126.710
162.892	17.426	2139.389	2125.997
163.906	17.408	2138.843	2124.973
164.921	17.316	2137.085	2121.813
165.935	17.370	2134.624	2119.788
166.950	17.566	2132.735	2120.121
167.964	17.322	2131.461	2115.544
168.979	17.200	2127.501	2109.832
169.994	17.050	2126.186	2106.414
171.008	17.030	2124.155	2103.898
172.023	17.020	2123.633	2103.007
173.037	17.321	2122.467	2105.339
174.052	17.541	2121.496	2106.868
175.067	17.614	2119.509	2105.543
176.081	17.477	2118.038	2102.125
177.096	17.557	2117.685	2102.526
178.110	17.670	2115.595	2101.601
179.125	17.681	2115.647	2101.527
180.140	17.582	2113.389	2097.810
181.154	17.707	2111.706	2097.440
182.169	17.898	2111.742	2099.581
183.183	18.816	2114.100	2113.036
184.198	21.937	2123.422	2160.782
185.213	22.678	2119.691	2165.875
186.227	19.377	2108.534	2113.627
187.242	17.980	2103.894	2091.534
188.256	17.752	2101.448	2086.049
189.271	17.573	2099.540	2081.710
190.286	17.220	2098.369	2075.965
191.300	17.526	2095.323	2076.454
192.315	17.632	2093.823	2076.021
193.329	17.755	2093.279	2076.729
194.344	17.993	2092.354	2078.481
195.359	18.088	2090.829	2077.879
196.373	17.774	2088.778	2071.752
197.388	17.566	2085.115	2065.346
198.402	17.263	2082.224	2058.545
199.417	17.193	2080.603	2055.845
200.432	17.245	2079.714	2055.351
201.446	17.295	2078.281	2054.290
202.461	17.146	2077.191	2051.161
203.475	17.144	2074.886	2048.620
204.490	17.138	2071.989	2045.435
205.504	17.185	2070.773	2044.559
206.519	17.262	2068.356	2042.866
207.534	17.253	2066.867	2041.036
208.548	17.136	2066.354	2038.869
209.563	17.238	2064.854	2038.376
210.577	17.557	2063.383	2040.532
211.592	17.502	2063.759	2039.985
212.607	19.019	2069.077	2063.302
213.621	22.594	2078.098	2115.252
214.636	22.102	2071.157	2102.023
215.650	18.614	2059.925	2048.580
216.665	17.626	2055.789	2032.385
217.680	17.580	2053.445	2029.272
218.694	17.307	2051.515	2023.859
219.709	17.259	2050.323	2021.861
220.723	17.348	2048.771	2021.155
221.738	17.536	2047.624	2022.026
222.753	17.708	2045.756	2021.987
223.767	17.546	2043.797	2017.886
224.782	17.495	2042.688	2015.940
225.796	17.499	2040.362	2013.451
226.811	17.395	2038.602	2010.231
227.826	17.461	2037.569	2009.757
228.840	17.419	2036.160	2007.633
229.855	17.336	2034.963	2005.230
230.869	17.450	2033.179	2004.578
231.884	17.470	2032.016	2003.427
232.899	17.669	2031.525	2005.064
233.913	17.654	2031.059	2004.185
234.928	17.730	2029.545	2003.347
235.942	17.614	2027.083	1999.306
236.957	17.726	2025.724	1999.045
237.972	17.738	2024.581	1997.823
238.986	17.588	2023.096	1994.347
240.001	17.519	2021.889	1992.108
241.015	17.682	2021.326	1993.232
242.030	18.539	2024.163	2005.870
243.045	21.524	2030.433	2046.994
244.059	21.953	2027.356	2048.692
245.074	19.124	2015.971	2003.880
246.088	18.127	2012.247	1988.290
247.103	18.202	2010.232	1986.942
248.117	18.035	2009.489	1984.015
249.132	17.779	2007.618	1978.949
250.147	17.889	2004.487	1976.908
251.161	17.892	2003.825	1976.052
252.176	18.154	2002.573	1977.632
253.190	18.338	2000.780	1977.763
254.205	18.343	1998.737	1975.560
255.220	18.246	1998.075	1973.548
256.234	17.984	1997.668	1969.864
257.249	17.795	1995.463	1965.268
258.263	17.481	1994.102	1960.060
259.278	17.421	1992.401	1957.457
260.293	17.354	1990.245	1954.331
261.307	17.298	1988.215	1951.464
262.322	17.141	1986.692	1947.919
263.336	17.086	1985.023	1945.416
264.351	17.065	1982.648	1942.615
265.366	16.965	1981.671	1940.276
266.380	17.018	1981.030	1940.022
267.395	17.059	1979.794	1939.058
268.409	17.112	1977.562	1937.242
269.424	17.258	1976.604	1937.753
270.439	17.344	1975.089	1937.021
271.453	18.594	1978.130	1954.089
272.468	21.857	1985.563	1998.639
273.482	22.007	1981.550	1996.065
274.497	18.836	1970.832	1948.938
275.512	17.499	1965.596	1928.312
276.526	17.267	1963.192	1923.084
277.541	17.128	1961.832	1919.941
278.555	17.143	1960.256	1918.348
279.570	17.088	1958.561	1915.836
280.585	17.180	1957.744	1915.848
281.599	17.284	1956.577	1915.657
282.614	17.499	1955.828	1917.130
283.628	17.935	1955.458	1921.468
284.643	18.020	1954.647	1921.397
285.657	18.207	1953.298	1921.953
286.672	18.279	1951.832	1921.095
287.687	18.103	1949.484	1916.575
288.701	18.039	1948.605	1914.751
289.716	18.033	1947.752	1913.624
290.730	18.249	1945.670	1913.771
291.745	18.332	1944.304	1913.139
292.760	18.355	1944.028	1912.897
293.774	18.108	1942.806	1908.692
294.789	18.138	1941.112	1907.135
295.803	17.984	1938.858	1902.969
296.818	17.814	1937.822	1899.816
297.833	17.913	1936.614	1899.515
298.847	17.868	1934.739	1896.950
299.862	17.914	1932.914	1895.437
300.876	18.724	1935.243	1906.540
301.891	21.866	1943.307	1949.415
302.906	22.473	1939.772	1952.403
303.920	19.220	1929.442	1905.664
304.935	17.951	1925.859	1887.806
305.949	17.909	1923.300	1884.607
306.964	17.881	1922.153	1882.947
307.979	17.954	1920.854	1882.258
308.993	18.089	1920.371	1883.052
310.008	18.381	1918.755	1884.472
311.022	18.434	1918.032	1884.124
312.037	18.192	1916.244	1879.464
313.052	18.307	1914.173	1878.474
314.066	18.357	1912.061	1876.728
315.081	18.251	1912.003	1875.287
316.095	18.142	1910.034	1871.929
317.110	18.023	1907.534	1867.947
318.125	17.760	1906.124	1863.451
319.139	17.681	1905.174	1861.432
320.154	17.762	1903.389	1860.353
321.168	17.722	1901.120	1857.476
322.183	17.503	1899.765	1853.536
323.197	17.275	1898.031	1849.124
324.212	17.243	1896.094	1846.668
325.227	17.123	1894.066	1843.170
326.241	17.208	1892.141	1841.995
327.256	17.190	1891.530	1840.983
328.270	17.303	1890.019	1840.525
329.285	17.290	1889.772	1839.921
330.300	18.314	1895.099	1856.050
331.314	22.125	1902.546	1904.730
332.329	22.166	1896.471	1898.865
333.343	18.551	1886.347	1849.388
334.358	17.301	1882.110	1831.490
335.373	17.257	1880.364	1829.089
336.387	17.181	1877.717	1825.480
337.402	17.201	1876.051	1823.849
338.416	17.293	1875.707	1824.291
339.431	17.357	1874.624	1823.716
340.446	17.292	1873.198	1821.406
341.460	17.515	1872.233	1822.645
342.475	17.841	1871.743	1825.460
343.489	18.037	1869.939	1825.588
344.504	18.133	1868.926	1825.413
345.519	18.520	1868.805	1829.223
346.533	18.711	1867.758	1830.030
347.548	18.749	1866.205	1828.697
348.562	19.229	1867.039	1834.433
349.577	20.060	1867.578	1843.632
350.592	19.490	1864.387	1834.173
351.606	19.010	1862.448	1826.924
352.621	18.678	1860.106	1820.871
353.635	18.171	1857.324	1812.528
354.650	17.973	1855.945	1808.857
355.665	17.941	1853.332	1805.756
356.679	17.801	1852.546	1803.283
357.694	17.724	1851.020	1800.769
358.708	17.564	1849.597	1797.470
359.723	18.940	1854.524	1816.662
360.738	22.517	1860.613	1860.452
361.752	22.039	1854.381	1848.942
362.767	19.029	1845.195	1807.814
363.781	17.906	1842.315	1792.935
364.796	17.749	1840.896	1789.678
365.810	17.734	1839.063	1787.528
366.825	17.634	1838.390	1785.604
367.840	17.881	1837.442	1787.074
368.854	17.979	1837.438	1787.881
369.869	18.246	1835.347	1788.443
370.883	18.326	1833.554	1787.322
371.898	18.415	1832.565	1787.078
372.913	18.207	1831.929	1784.062
373.927	18.198	1831.198	1783.037
374.942	18.283	1829.874	1782.429
375.956	18.452	1827.883	1782.037
376.971	18.515	1825.491	1780.154
377.986	18.013	1823.624	1772.880
379.000	17.580	1822.731	1767.286
380.015	17.820	1820.330	1767.251
381.029	17.687	1818.037	1763.433
382.044	17.442	1815.898	1758.598
383.059	17.234	1814.821	1755.187
384.073	17.414	1813.480	1755.546
385.088	17.415	1813.268	1755.136
386.102	17.381	1811.565	1752.927
387.117	17.316	1809.968	1750.504
388.132	17.353	1809.638	1750.356
389.146	18.426	1814.365	1765.841
390.161	22.024	1820.018	1808.444
391.175	22.005	1812.108	1800.179
392.190	18.608	1803.408	1756.415
393.205	17.683	1800.826	1744.183
394.219	17.558	1798.832	1740.756
395.234	17.365	1796.777	1736.588
396.248	17.364	1795.375	1735.009
397.263	17.468	1792.045	1732.645
398.278	17.421	1791.625	1731.554
399.292	17.466	1789.790	1730.029
400.307	17.539	1789.310	1730.107
401.321	17.653	1789.468	1731.220
402.336	17.804	1787.032	1730.192
403.350	17.965	1786.549	1731.156
404.365	18.341	1786.456	1734.690
405.380	18.446	1784.716	1733.856
406.394	18.564	1784.254	1734.406
407.409	18.577	1783.166	1733.270
408.423	18.898	1782.403	1735.585
409.438	18.653	1780.597	1731.128
410.453	18.612	1778.613	1728.574
411.467	18.638	1777.929	1727.972
412.482	18.184	1775.943	1721.239
413.496	17.849	1773.355	1715.143
414.511	17.791	1771.924	1712.971
415.526	17.651	1769.225	1708.746
416.540	17.693	1767.417	1707.212
417.555	17.586	1767.107	1705.637
418.569	17.787	1767.595	1707.928
419.584	17.857	1767.238	1708.076
420.599	17.951	1766.031	1707.654
421.613	17.715	1765.155	1704.229
422.628	17.746	1762.985	1702.245
423.642	17.603	1761.736	1699.404
424.657	17.661	1760.024	1698.128
425.672	17.803	1759.174	1698.520
426.686	17.900	1757.488	1697.663
427.701	17.915	1755.801	1695.979
428.715	18.024	1755.109	1696.199
429.730	18.094	1754.722	1696.319
430.745	18.150	1752.710	1694.729
431.759	18.166	1752.342	1694.330
432.774	18.484	1753.219	1698.142
433.788	19.005	1753.421	1703.317
434.803	19.024	1752.692	1702.600
435.818	18.939	1752.295	1701.157
436.832	18.943	1751.445	1700.171
437.847	18.205	1744.150	1685.578
438.861	10.299	1722.855	1587.173
439.876	1.906	1707.004	1490.183
440.890	0.375	1703.375	1471.824
441.905	0.188	1702.581	1469.130
442.920	0.229	1701.217	1468.170
443.934	0.134	1700.204	1466.197
444.949	0.171	1698.121	1464.579
445.963	0.154	1697.445	1463.656
446.978	0.167	1696.439	1462.739
447.993	0.105	1695.317	1460.993
449.007	0.140	1692.789	1458.987
450.022	0.229	1690.994	1458.127
451.036	0.241	1689.426	1456.716
452.051	1.115	1693.874	1468.896
453.066	9.125	1711.993	1563.044
454.080	17.300	1725.266	1655.280
455.095	19.444	1729.909	1680.555
456.109	20.426	1730.925	1690.954
457.124	20.747	1730.105	1693.088
458.139	20.984	1729.747	1694.853
459.153	21.212	1728.614	1695.765
460.168	21.127	1726.718	1692.874
461.182	20.882	1725.759	1689.343
462.197	20.848	1722.836	1685.947
463.212	20.803	1720.171	1682.702
464.226	20.780	1719.939	1682.050
465.241	21.075	1719.013	1683.809
466.255	21.281	1718.785	1685.382
467.270	21.290	1717.216	1683.727
468.285	21.063	1715.557	1679.699
469.299	20.780	1713.859	1675.107
470.314	20.935	1712.306	1674.884
471.328	20.997	1711.259	1674.260
472.343	20.935	1711.084	1673.284
473.358	21.047	1709.093	1672.219
474.372	21.135	1708.256	1672.044
475.387	20.849	1706.406	1667.280
476.401	20.741	1704.157	1663.850
477.416	20.667	1703.421	1662.221
478.430	20.881	1702.292	1662.973
479.445	20.775	1700.666	1660.169
480.460	20.475	1699.319	1655.786
481.474	20.748	1698.852	1657.740
482.489	21.103	1698.572	1660.674
483.503	21.448	1697.000	1662.231
484.518	21.308	1696.046	1659.756
485.533	21.343	1694.164	1658.054
486.547	21.250	1693.436	1656.258
487.562	21.592	1692.699	1658.591
488.576	21.686	1690.059	1656.706
489.591	21.435	1689.512	1653.580
490.606	21.448	1686.987	1651.040
491.620	21.310	1686.107	1648.671
492.635	21.564	1684.968	1649.761
493.649	21.906	1684.151	1652.007
494.664	21.410	1681.869	1644.880
495.679	20.770	1679.555	1636.371
496.693	20.785	1679.415	1636.181
497.708	21.200	1678.061	1638.585
498.722	21.599	1678.356	1642.436
499.737	21.631	1676.635	1640.859
500.752	21.500	1674.010	1636.864
501.766	21.216	1672.158	1632.188
502.781	21.398	1670.799	1632.373
503.795	21.416	1669.580	1631.155
504.810	21.360	1669.256	1630.123
505.825	21.516	1669.554	1631.677
506.839	21.602	1667.438	1630.220
507.854	21.687	1665.599	1629.023
508.868	21.566	1664.684	1626.800
509.883	21.648	1663.877	1626.583
510.898	21.830	1662.658	1626.898
511.912	21.607	1660.747	1622.756
512.927	21.356	1658.572	1618.096
513.941	21.478	1657.135	1617.641
514.956	21.313	1655.114	1613.943
515.971	21.144	1653.988	1611.081
516.985	21.392	1653.994	1613.198
518.000	21.401	1653.734	1612.830
519.014	21.783	1652.575	1615.044
520.029	21.996	1651.208	1615.482
521.043	21.841	1649.480	1612.170
522.058	21.774	1648.755	1610.652
523.073	21.871	1648.850	1611.449
524.087	22.328	1647.348	1614.001
525.102	22.154	1645.774	1610.665
526.116	21.632	1643.469	1603.408
527.131	21.565	1642.531	1601.690
528.146	22.134	1642.345	1606.541
529.160	22.236	1641.338	1606.305
530.175	22.354	1639.781	1605.670
531.189	22.485	1638.143	1605.076
532.204	22.345	1637.341	1602.815
533.219	21.896	1635.679	1596.885
534.233	21.524	1634.481	1592.128
535.248	21.864	1634.608	1595.171
536.262	22.350	1634.322	1599.141
537.277	22.253	1632.502	1596.281
538.292	21.930	1630.042	1590.745
539.306	21.938	1627.659	1588.303
540.321	22.066	1626.704	1588.339
541.335	21.690	1625.477	1583.536
542.350	21.954	1624.873	1585.152
543.365	22.136	1623.974	1585.743
544.379	22.343	1622.370	1585.856
545.394	22.492	1621.273	1585.942
546.408	21.922	1619.007	1578.389
547.423	21.472	1616.742	1571.928
548.438	21.556	1615.638	1571.426
549.452	21.828	1615.503	1573.559
550.467	21.877	1614.767	1573.095
551.481	22.092	1613.338	1573.446
552.496	22.339	1613.305	1575.452
553.511	22.757	1611.917	1577.666
554.525	22.587	1611.184	1575.234
555.540	22.578	1611.349	1575.120
556.554	22.750	1609.581	1574.754
557.569	22.689	1607.302	1571.783
558.583	22.408	1606.670	1568.462
559.598	22.399	1605.278	1566.838
560.613	22.494	1603.535	1565.795
561.627	22.325	1602.882	1563.460
562.642	22.604	1601.565	1564.478
563.656	22.985	1600.469	1566.614
564.671	22.934	1600.045	1565.563
565.686	22.798	1598.608	1562.760
566.700	22.541	1595.979	1557.713
567.715	22.328	1594.701	1554.390
568.729	22.100	1592.451	1549.987
569.744	21.885	1590.128	1545.639
570.759	21.940	1589.876	1545.698
571.773	22.028	1589.390	1545.818
572.788	22.373	1588.727	1548.039
573.802	22.585	1586.786	1547.830
574.817	22.708	1586.626	1548.573
575.832	22.841	1586.219	1549.166
576.846	22.850	1584.515	1547.397
577.861	22.589	1582.776	1543.213
578.875	22.667	1583.036	1543.970
579.890	23.076	1581.687	1546.064
580.905	22.947	1580.540	1543.632
581.919	23.105	1580.130	1544.428
582.934	23.228	1579.750	1544.948
583.948	23.233	1578.505	1543.590
584.963	22.918	1576.085	1538.290
585.978	22.768	1573.469	1534.237
586.992	22.932	1574.150	1536.148
588.007	23.136	1573.759	1537.371
589.021	22.290	1570.954	1527.061
590.036	21.866	1568.574	1520.871
591.051	22.292	1568.112	1523.953
592.065	22.861	1567.150	1527.785
593.080	23.132	1566.293	1529.127
594.094	23.079	1564.090	1526.330
595.109	22.568	1560.983	1518.688
596.123	22.253	1560.220	1515.041
597.138	22.683	1560.100	1518.466
598.153	22.934	1559.343	1519.718
599.167	22.870	1557.758	1517.436
600.182	23.022	1557.097	1517.923
601.196	23.034	1556.441	1517.205
602.211	23.001	1555.278	1515.603
603.226	23.321	1554.452	1517.376
604.240	23.524	1552.923	1517.443
605.255	23.543	1552.160	1516.680
606.269	23.590	1550.432	1515.214
607.284	23.414	1550.186	1513.284
608.299	23.328	1548.725	1510.940
609.313	23.000	1547.303	1506.560
610.328	23.160	1546.201	1506.678
611.342	23.474	1544.228	1507.257
612.357	23.711	1543.899	1508.782
613.372	23.643	1542.779	1506.929
614.386	23.389	1541.626	1503.454
615.401	23.540	1541.243	1504.189
616.415	23.604	1540.074	1503.408
617.430	23.714	1539.232	1503.348
618.445	23.798	1538.369	1503.036
619.459	23.627	1537.029	1500.097
620.474	22.931	1535.786	1492.791
621.488	22.547	1532.633	1486.298
622.503	22.225	1530.759	1481.574
623.518	22.922	1531.722	1488.230
624.532	23.484	1531.373	1492.467
625.547	23.717	1529.891	1492.814
626.561	23.984	1530.546	1495.536
627.576	24.058	1528.782	1494.255
628.591	23.502	1525.868	1486.544
629.605	23.081	1523.982	1480.984
630.620	22.827	1522.098	1476.842
631.634	22.373	1520.796	1471.590
632.649	22.640	1520.563	1473.431
633.663	22.910	1520.331	1475.296
634.678	23.508	1520.001	1479.813
635.693	23.985	1519.018	1482.673
636.707	24.047	1517.648	1481.683
637.722	24.268	1517.526	1483.233
638.736	24.251	1516.001	1481.426
639.751	24.220	1514.510	1479.530
640.766	24.060	1513.235	1476.772
641.780	24.138	1511.790	1475.834
642.795	24.062	1510.778	1474.043
643.809	23.949	1510.477	1472.631
644.824	23.956	1509.624	1471.681
645.839	23.886	1507.856	1469.200
646.853	24.000	1506.628	1468.773
647.868	23.938	1505.133	1466.625
648.882	23.860	1503.167	1463.888
649.897	23.815	1501.892	1462.094
650.912	23.844	1500.954	1461.248
651.926	23.703	1500.332	1459.303
652.941	23.499	1497.808	1454.993
653.955	22.934	1495.529	1447.949
654.970	22.446	1493.042	1441.357
655.985	22.726	1491.612	1442.105
656.999	22.637	1491.046	1440.654
658.014	22.796	1490.814	1441.563
659.028	23.306	1490.228	1445.007
660.043	23.617	1490.269	1447.426
661.058	23.751	1489.059	1447.175
662.072	23.912	1488.572	1447.840
663.087	23.791	1487.267	1445.413
664.101	23.692	1486.398	1443.584
665.116	23.983	1485.324	1444.742
666.131	24.130	1484.658	1445.125
667.145	24.064	1483.745	1443.523
668.160	24.121	1482.817	1442.909
669.174	24.513	1481.483	1444.628
670.189	24.263	1480.593	1441.558
671.204	24.163	1478.667	1438.695
672.218	24.158	1478.156	1437.991
673.233	24.291	1477.611	1438.364
674.247	24.399	1476.787	1438.261
675.262	24.700	1475.615	1439.387
676.276	24.688	1474.082	1437.623
677.291	24.412	1473.006	1434.168
678.306	24.157	1471.261	1430.246
679.320	24.172	1469.770	1428.742
680.335	24.358	1469.638	1429.944
681.349	24.569	1469.328	1431.168
682.364	24.609	1468.225	1430.246
683.379	24.471	1466.605	1427.387
684.393	24.339	1465.539	1425.121
685.408	24.571	1464.444	1425.749
686.422	24.278	1463.502	1422.308
687.437	24.376	1463.838	1423.250
688.452	24.606	1462.718	1423.834
689.466	24.674	1460.605	1422.147
690.481	24.308	1459.394	1417.880
691.495	23.994	1456.962	1412.840
692.510	23.409	1453.943	1405.084
693.525	22.775	1453.003	1398.958
694.539	23.197	1453.037	1402.184
695.554	24.141	1453.874	1410.341
696.568	24.425	1453.622	1412.183
697.583	24.527	1452.737	1411.966
698.598	24.612	1451.821	1411.581
699.612	24.786	1450.603	1411.613
700.627	24.836	1449.284	1410.551
701.641	24.851	1448.260	1409.507
702.656	24.677	1446.998	1406.737
703.671	25.048	1446.656	1409.166
704.685	24.898	1445.986	1407.158
705.700	24.718	1444.507	1404.130
706.714	24.634	1442.471	1401.324
707.729	24.350	1440.577	1397.079
708.744	24.423	1438.943	1395.904
709.758	24.209	1437.265	1392.426
710.773	23.666	1435.635	1386.414
711.787	23.396	1434.398	1382.936
712.802	23.764	1433.654	1384.942
713.816	24.189	1433.587	1388.036
714.831	24.502	1433.169	1389.914
715.846	24.599	1432.044	1389.421
716.860	24.716	1430.745	1388.903
717.875	24.868	1429.310	1388.532
718.889	24.654	1428.024	1385.447
719.904	24.826	1427.172	1385.794
720.919	24.815	1426.739	1385.120
721.933	25.024	1426.264	1386.122
722.948	24.908	1425.387	1384.202
723.962	24.971	1424.768	1383.923
724.977	25.044	1423.547	1383.136
725.992	25.109	1422.380	1382.346
727.006	25.052	1420.797	1380.196
728.021	25.204	1419.282	1379.734
729.035	25.096	1418.927	1378.396
730.050	24.981	1417.872	1376.311
731.065	25.173	1416.280	1376.082
732.079	25.247	1415.837	1376.060
733.094	25.024	1413.851	1372.245
734.108	24.964	1411.886	1369.716
735.123	25.077	1411.047	1369.605
736.138	25.019	1410.137	1368.118
737.152	25.093	1409.528	1367.925
738.167	25.279	1408.670	1368.356
739.181	25.425	1407.491	1368.162
740.196	25.278	1406.704	1366.113
741.211	25.243	1405.978	1364.979
742.225	25.148	1405.045	1363.184
743.240	25.257	1403.197	1362.055
744.254	25.175	1402.509	1360.598
745.269	24.957	1401.957	1358.242
746.284	25.016	1400.734	1357.344
747.298	24.801	1399.501	1354.346
748.313	24.444	1397.575	1349.613
749.327	23.827	1395.372	1342.639
750.342	23.461	1393.690	1338.084
751.356	23.078	1392.011	1333.405
752.371	23.216	1392.667	1334.922
753.386	24.390	1393.079	1344.053
754.400	24.970	1392.502	1347.725
755.415	25.190	1391.563	1348.319
756.429	25.320	1390.476	1348.080
757.444	25.282	1389.000	1346.203
758.459	25.309	1388.485	1345.747
759.473	25.443	1387.806	1345.934
760.488	25.411	1386.630	1344.395
761.502	25.407	1384.991	1342.612
762.517	25.346	1383.367	1340.424
763.532	25.163	1381.437	1337.024
764.546	24.924	1379.493	1333.187
765.561	24.187	1378.275	1326.342
766.575	23.365	1376.314	1318.154
767.590	23.452	1374.874	1317.263
768.605	24.102	1375.113	1322.191
769.619	24.655	1374.991	1326.037
770.634	24.834	1374.607	1326.842
771.648	25.255	1374.229	1329.459
772.663	25.473	1374.005	1330.702
773.678	25.396	1373.222	1329.210
774.692	25.372	1372.230	1327.916
775.707	25.647	1371.418	1329.011
776.721	25.585	1370.797	1327.791
777.736	25.738	1369.006	1327.028
778.751	25.690	1368.319	1325.848
779.765	25.573	1367.284	1323.821
780.780	25.628	1366.541	1323.349
781.794	25.394	1366.098	1321.032
782.809	25.453	1364.118	1319.397
783.824	25.119	1362.385	1315.102
784.838	24.666	1359.764	1309.078
785.853	23.988	1357.654	1301.906
786.867	24.020	1358.673	1302.963
787.882	24.416	1359.071	1306.105
788.897	24.806	1357.866	1307.653
789.911	25.003	1357.336	1308.432
790.926	25.072	1356.540	1308.016
791.940	25.345	1354.544	1307.933
792.955	25.582	1353.225	1308.236
793.969	25.510	1352.897	1307.237
794.984	25.549	1352.273	1306.761
795.999	25.527	1351.419	1305.623
797.013	25.665	1349.542	1304.656
798.028	25.520	1348.972	1302.896
799.042	25.619	1348.013	1302.534
800.057	25.745	1346.570	1301.902
801.072	25.871	1344.991	1301.129
802.086	25.755	1344.318	1299.481
803.101	25.881	1343.181	1299.139
804.115	25.736	1342.690	1297.462
805.130	25.517	1341.667	1294.732
806.145	25.775	1339.943	1294.780
807.159	25.618	1338.693	1292.277
808.174	25.522	1337.264	1290.053
809.188	25.404	1335.752	1287.592
810.203	25.269	1333.901	1284.678
811.218	24.660	1332.163	1278.476
812.232	24.157	1329.971	1272.611
813.247	24.001	1328.661	1270.085
814.261	24.703	1329.397	1275.669
815.276	25.250	1329.157	1279.209
816.291	25.482	1328.432	1280.019
817.305	25.439	1327.768	1278.922
818.320	25.692	1326.556	1279.408
819.334	25.817	1325.644	1279.266
820.349	25.755	1324.194	1277.270
821.364	25.939	1322.422	1276.724
822.378	25.909	1321.155	1275.134
823.393	25.809	1320.367	1273.506
824.407	25.850	1319.088	1272.413
825.422	25.789	1318.760	1271.510
826.437	25.587	1317.986	1269.183
827.451	25.327	1315.116	1264.425
828.466	24.578	1312.433	1256.400
829.480	24.277	1309.954	1251.750
830.495	24.818	1309.206	1254.703
831.509	25.043	1309.804	1256.712
832.524	25.408	1309.506	1258.845
833.539	25.690	1307.911	1259.144
834.553	25.895	1306.934	1259.496
835.568	25.891	1306.876	1259.260
836.582	25.902	1305.833	1258.184
837.597	25.932	1303.265	1255.765
838.612	25.881	1301.277	1253.345
839.626	25.730	1300.480	1251.371
840.641	25.265	1299.681	1247.207
841.655	24.938	1298.377	1243.525
842.670	24.252	1295.852	1236.176
843.685	23.649	1294.173	1230.226
844.699	24.634	1294.473	1237.223
845.714	25.171	1294.243	1240.589
846.728	25.222	1293.751	1240.323
847.743	25.531	1293.136	1241.733
848.758	25.712	1291.728	1241.483
849.772	25.832	1290.354	1240.847
850.787	25.991	1289.009	1240.506
851.801	25.809	1288.697	1238.801
852.816	25.714	1287.355	1236.701
853.831	25.747	1285.794	1235.284
854.845	25.636	1283.877	1232.528
855.860	25.355	1282.509	1229.140
856.874	25.237	1281.002	1226.734
857.889	25.002	1278.955	1223.014
858.904	24.402	1276.992	1216.878
859.918	24.212	1275.069	1213.604
860.933	23.846	1273.969	1209.903
861.947	24.221	1274.255	1212.595
862.962	24.840	1273.005	1215.491
863.977	25.071	1271.663	1215.637
864.991	25.275	1271.864	1217.079
866.006	25.548	1271.618	1218.553
867.020	25.620	1270.421	1217.755
868.035	25.763	1269.386	1217.585
869.049	25.779	1268.748	1216.939
870.064	25.802	1268.316	1216.536
871.079	25.769	1267.379	1215.266
872.093	25.564	1266.998	1213.362
873.108	25.747	1264.973	1212.520
874.122	25.300	1262.987	1207.451
875.137	24.720	1262.090	1202.530
876.152	24.484	1261.115	1199.861
877.166	24.779	1259.341	1200.021
878.181	25.253	1258.636	1202.397
879.195	25.394	1259.068	1203.616
880.210	25.795	1258.030	1205.173
881.225	25.723	1256.985	1203.544
882.239	25.747	1256.188	1202.799
883.254	25.951	1255.287	1203.160
884.268	25.877	1254.457	1201.726
885.283	25.840	1252.815	1199.761
886.298	25.929	1250.780	1198.264
887.312	25.948	1250.048	1197.548
888.327	25.913	1249.129	1196.291
889.341	25.767	1248.171	1194.253
890.356	25.692	1247.813	1193.268
891.371	25.618	1247.187	1192.032
892.385	25.572	1245.950	1190.408
893.400	25.418	1244.706	1188.050
894.414	25.331	1243.001	1185.703
895.429	24.755	1241.060	1179.889
896.444	23.909	1237.894	1171.143
897.458	23.498	1236.552	1167.013
898.473	24.011	1237.532	1171.192
899.487	24.835	1236.903	1175.905
900.502	25.269	1235.790	1177.566
901.517	25.496	1235.667	1178.806
902.531	25.484	1235.067	1178.014
903.546	25.558	1234.285	1177.615
904.560	25.789	1233.579	1178.322
905.575	25.734	1233.248	1177.500
906.589	25.713	1231.771	1175.811
907.604	25.735	1231.091	1175.164
