DTS Sentinel unit serial number:	SN409020Multiplexer serial number:	ORYXHardware model number:	OX4-SRSoftware version number:	ORYX F/W v3.00 Oryx Data Collector v3.7.2.0data status	okinstallation	HaddamTimeLapsedifferential loss correction	single-endedforward channel	channel 3reverse channel	N/Adate	2011/06/22time	07:56:17forward acquisition time	30.00reverse acquisition time	0.00gamma	498.7831k internal	0.1766k external	0.1766temperature offset calibration	1.0074default loss term (dB/km)	0.3790temperature slope calibration	1.3530multiplexer offset coefficient	1.0000multiplexer slope coefficient	1.0000fibre end	0.00T internal ref (°C)	24.44T ext. ref 1 (°C)	21.84T ext. ref 2 (°C)	0.14length (m)	temperature (°C)	Stokes	anti-Stokes-747.200	-111.390	-0.529	0.141
-746.185	7.383	0.093	-0.091
-745.171	-57.312	0.363	-0.209
-744.156	9.689	0.208	0.208
-743.142	-72.109	-0.270	0.132
-742.127	-64.650	-0.394	0.210
-741.112	-122.238	0.700	-0.150
-740.098	112.356	0.229	0.365
-739.083	-63.871	0.161	0.086
-738.069	-61.997	0.646	0.354
-737.054	343.827	0.224	0.582
-736.039	-124.789	0.282	0.057
-735.025	382.113	-0.033	-0.091
-734.010	86.932	0.216	0.314
-732.996	416.000	-0.094	-0.266
-731.981	-24.844	-0.357	0.278
-730.966	17.746	-0.352	0.369
-729.952	103.544	-0.268	-0.415
-728.937	-74.968	-0.476	0.224
-727.923	16.599	0.159	-0.165
-726.908	179.407	-0.070	-0.135
-725.894	-93.407	0.223	0.081
-724.879	39.729	-0.224	0.264
-723.864	223.260	-0.220	-0.470
-722.850	-32.632	0.415	-0.304
-721.835	-68.072	-0.357	-0.183
-720.821	-114.649	-0.250	-0.062
-719.806	-81.857	0.128	-0.055
-718.791	-112.991	0.069	-0.018
-717.777	800.000	-0.024	-0.132
-716.762	-77.827	-0.249	0.112
-715.748	16.902	-0.152	-0.158
-714.733	-200.000	0.030	0.273
-713.718	7.914	-0.380	-0.374
-712.704	-63.057	-0.173	-0.094
-711.689	-141.814	-0.227	0.030
-710.675	47.122	0.183	-0.225
-709.660	124.215	0.181	-0.300
-708.645	249.357	-0.099	-0.222
-707.631	-122.238	-0.027	-0.006
-706.616	-74.245	-0.228	-0.108
-705.602	-52.412	0.254	0.154
-704.587	499.059	-0.014	-0.043
-703.572	243.502	-0.155	0.342
-702.558	-69.750	-0.357	-0.179
-701.543	-45.876	0.414	-0.268
-700.529	-121.895	0.527	-0.113
-699.514	745.306	0.068	0.244
-698.499	10.372	-0.225	-0.225
-697.485	-86.266	-0.778	-0.313
-696.470	298.042	-0.065	-0.157
-695.456	-136.698	-0.119	0.018
-694.441	230.091	-0.144	-0.309
-693.426	-90.602	-0.318	-0.120
-692.412	-118.142	0.389	-0.091
-691.397	-200.000	-0.072	-0.427
-690.383	516.857	-0.014	0.044
-689.368	-97.334	-0.339	0.115
-688.354	-70.890	0.201	-0.099
-687.339	-69.917	-0.378	0.189
-686.324	-200.000	0.027	0.285
-685.310	-86.431	0.169	0.068
-684.295	405.806	-0.119	0.333
-683.281	380.595	0.065	-0.177
-682.266	-200.000	0.011	-0.094
-681.251	-82.967	-0.232	0.098
-680.237	-21.326	-0.426	0.342
-679.222	-200.000	-0.003	-0.330
-678.208	139.710	-0.092	-0.160
-677.193	800.000	0.038	0.214
-676.178	-200.000	0.017	-0.254
-675.164	-112.719	-0.603	0.156
-674.149	-200.000	-0.285	-0.002
-673.135	800.000	0.043	0.156
-672.120	800.000	0.040	0.195
-671.105	-100.940	0.451	-0.145
-670.091	-66.079	0.259	0.135
-669.076	118.040	-0.207	-0.337
-668.062	-126.715	-0.162	-0.031
-667.047	-76.297	-0.190	0.088
-666.032	-157.941	-0.502	0.038
-665.018	800.000	0.075	-0.292
-664.003	-82.411	-0.287	-0.122
-662.989	66.745	-0.236	0.316
-661.974	-200.000	0.071	0.505
-660.959	91.541	-0.111	-0.165
-659.945	-148.931	-0.444	0.046
-658.930	-34.502	0.427	0.306
-657.916	-115.445	0.520	0.128
-656.901	31.078	0.138	-0.156
-655.886	-200.000	0.009	-0.427
-654.872	-48.026	0.104	-0.066
-653.857	35.889	0.231	-0.267
-652.843	81.034	-0.196	0.278
-651.828	-200.000	-0.008	-0.405
-650.814	73.019	0.235	-0.323
-649.799	-117.556	0.219	0.051
-648.784	94.371	0.225	-0.336
-647.770	-13.242	-0.344	0.293
-646.755	-52.566	-0.292	-0.177
-645.741	-68.226	0.233	0.119
-644.726	11.520	-0.182	0.183
-643.711	-57.164	0.138	0.079
-642.697	95.831	0.070	-0.105
-641.682	22.599	-0.234	-0.252
-640.668	135.897	0.214	0.367
-639.653	800.000	-0.040	0.215
-638.638	-90.903	-0.657	-0.247
-637.624	70.027	-0.153	0.208
-636.609	185.852	-0.325	0.635
-635.595	800.000	0.021	-0.081
-634.580	-47.469	-0.345	-0.220
-633.565	231.714	-0.075	-0.163
-632.551	-99.091	-0.412	-0.136
-631.536	-93.968	-0.089	0.032
-630.522	201.936	0.153	0.309
-629.507	309.990	-0.223	-0.549
-628.492	800.000	-0.066	-0.246
-627.478	124.085	0.166	0.275
-626.463	85.098	0.175	0.251
-625.449	355.152	-0.206	0.540
-624.434	-68.309	-0.169	-0.086
-623.419	-54.916	0.407	-0.240
-622.405	76.423	0.173	0.241
-621.390	800.000	-0.077	-0.320
-620.376	148.307	0.339	-0.601
-619.361	224.935	-0.036	0.077
-618.346	-131.410	0.275	0.047
-617.332	-200.000	0.014	0.346
-616.317	-200.000	-0.030	-0.245
-615.303	-109.869	0.334	-0.091
-614.288	-200.000	-0.037	-0.254
-613.273	-26.378	0.141	-0.108
-612.259	539.017	-0.157	0.492
-611.244	368.671	-0.202	-0.538
-610.230	506.599	-0.033	-0.101
-609.215	32.240	-0.284	-0.321
-608.201	-74.529	0.475	-0.223
-607.186	-200.000	0.035	-0.416
-606.171	-200.000	-0.027	-0.345
-605.157	20.051	0.307	0.324
-604.142	-134.168	0.140	0.022
-603.128	594.263	-0.137	0.445
-602.113	-53.560	0.206	-0.123
-601.098	350.658	0.161	0.418
-600.084	207.109	0.035	0.071
-599.069	-39.280	-0.238	0.163
-598.055	-200.000	0.014	-0.355
-597.040	-45.174	-0.311	0.202
-596.025	-9.797	-0.298	-0.260
-595.011	26.276	-0.285	-0.312
-593.996	-48.991	0.386	-0.241
-592.982	-79.754	0.264	0.116
-591.967	-28.903	-0.346	-0.259
-590.952	299.256	0.136	0.329
-589.938	-86.654	0.150	-0.060
-588.923	-49.630	0.276	0.172
-587.909	18.416	-0.383	-0.400
-586.894	-200.000	-0.088	-0.608
-585.879	129.752	0.105	-0.176
-584.865	14.952	0.335	-0.343
-583.850	-200.000	0.010	0.074
-582.836	-4.172	0.156	-0.142
-581.821	-57.086	0.349	0.201
-580.806	115.520	-0.282	-0.451
-579.792	-200.000	-0.049	-0.296
-578.777	-110.049	-0.070	-0.019
-577.763	59.595	-0.129	0.166
-576.748	791.894	-0.137	0.496
-575.733	-200.000	0.009	0.544
-574.719	-54.646	0.286	0.169
-573.704	87.826	-0.173	0.252
-572.690	-200.000	0.037	-0.275
-571.675	27.850	-0.354	-0.390
-570.661	-52.189	0.063	0.038
-569.646	618.921	0.139	-0.460
-568.631	-165.327	0.312	-0.018
-567.617	-35.210	0.332	-0.236
-566.602	-124.351	-0.587	0.119
-565.588	47.431	-0.040	0.049
-564.573	-159.672	0.174	-0.012
-563.558	116.241	0.121	0.195
-562.544	-174.412	0.623	0.023
-561.529	-200.000	-0.016	0.347
-560.515	32.232	0.218	-0.246
-559.500	27.176	-0.402	0.441
-558.485	800.000	-0.075	-0.287
-557.471	228.534	0.111	-0.238
-556.456	510.467	-0.074	-0.226
-555.442	-167.642	0.352	-0.018
-554.427	-117.012	0.279	-0.066
-553.412	-200.000	0.004	0.243
-552.398	54.671	-0.190	0.240
-551.383	-82.120	-0.314	-0.133
-550.369	96.728	-0.410	-0.615
-549.354	-101.300	0.294	-0.093
-548.339	718.856	0.137	0.479
-547.325	-200.000	0.054	0.571
-546.310	-138.225	-0.522	-0.075
-545.296	-200.000	0.008	-0.207
-544.281	-150.119	-0.286	-0.029
-543.266	-41.540	-0.381	0.256
-542.252	-124.694	0.149	-0.030
-541.237	800.000	0.057	-0.316
-540.223	-84.361	0.260	-0.107
-539.208	293.139	-0.078	0.187
-538.193	-200.000	-0.390	-0.002
-537.179	-112.639	0.663	0.171
-536.164	107.757	0.281	0.438
-535.150	-94.085	-0.433	0.154
-534.135	800.000	-0.064	0.275
-533.121	339.592	-0.123	-0.314
-532.106	-118.820	-0.340	0.077
-531.091	-83.316	-0.242	-0.101
-530.077	-152.785	-0.732	-0.067
-529.062	-39.789	-0.353	-0.240
-528.048	118.082	0.258	0.417
-527.033	-14.182	-0.414	-0.349
-526.018	800.000	0.070	-0.345
-525.004	-94.244	0.243	-0.086
-523.989	-171.923	0.200	0.008
-522.975	6.121	0.204	0.198
-521.960	-131.869	0.168	0.028
-520.945	69.863	-0.129	0.174
-519.931	259.733	0.236	0.535
-518.916	-108.905	-0.159	0.044
-517.902	-142.226	-0.339	0.043
-516.887	-109.938	0.220	-0.060
-515.872	205.178	0.209	-0.426
-514.858	-76.319	-0.385	-0.176
-513.843	-23.167	0.263	-0.207
-512.829	-128.254	0.592	-0.109
-511.814	35.072	-0.272	0.311
-510.799	-22.221	-0.038	-0.030
-509.785	-103.339	-0.265	-0.081
-508.770	56.133	0.034	-0.044
-507.756	-52.078	-0.057	0.035
-506.741	-118.343	0.263	-0.060
-505.726	-3.320	-0.128	-0.116
-504.712	800.000	-0.059	0.291
-503.697	-46.730	-0.153	0.097
-502.683	-82.588	0.190	0.080
-501.668	-99.847	0.524	0.170
-500.653	-200.000	-0.045	0.289
-499.639	-101.108	-0.072	0.023
-498.624	-34.679	-0.332	-0.236
-497.610	-3.554	0.445	0.404
-496.595	-73.398	0.361	-0.171
-495.581	-93.273	0.294	-0.106
-494.566	-123.488	-0.119	-0.025
-493.551	157.678	0.213	-0.386
-492.537	225.185	0.085	0.180
-491.522	-10.938	0.348	-0.300
-490.508	76.568	-0.116	-0.161
-489.493	361.183	-0.079	0.208
-488.478	4.096	-0.340	0.325
-487.464	-50.452	-0.411	0.252
-486.449	-84.196	0.194	-0.080
-485.435	-26.303	-0.210	0.160
-484.420	-67.940	-0.206	-0.104
-483.405	-51.676	0.112	-0.068
-482.391	-43.001	0.231	-0.153
-481.376	-200.000	-0.030	-0.323
-480.362	-35.270	0.538	-0.381
-479.347	-32.661	-0.206	-0.149
-478.332	-54.238	-0.480	0.283
-477.318	143.564	-0.196	0.341
-476.303	-37.734	0.581	0.402
-475.289	800.000	0.011	0.046
-474.274	-200.000	0.040	-0.315
-473.259	-115.507	0.300	0.073
-472.245	7.686	0.220	-0.214
-471.230	-128.608	-0.264	-0.048
-470.216	39.014	0.128	-0.150
-469.201	-134.907	0.326	0.051
-468.186	62.758	0.161	0.211
-467.172	173.815	0.233	-0.439
-466.157	-200.000	-0.017	0.245
-465.143	-117.116	0.506	-0.119
-464.128	-200.000	-0.054	-0.549
-463.113	-200.000	-0.049	0.365
-462.099	-55.833	0.407	0.236
-461.084	186.005	0.180	0.350
-460.070	13.749	0.406	0.411
-459.055	182.508	0.050	-0.096
-458.040	-173.192	0.047	-0.002
-457.026	19.761	0.276	-0.289
-456.011	-200.000	-0.031	-0.214
-454.997	-88.543	0.467	-0.180
-453.982	-150.826	-0.191	-0.019
-452.968	-200.000	-0.029	0.536
-451.953	35.263	-0.247	-0.282
-450.938	-68.456	0.054	0.027
-449.924	-37.705	0.354	0.245
-448.909	800.000	-0.145	-0.532
-447.895	128.252	0.124	-0.206
-446.880	38.252	-0.156	0.181
-445.865	-200.000	0.030	0.443
-444.851	-127.702	0.422	0.079
-443.836	291.258	0.100	0.238
-442.822	617.795	-0.130	0.428
-441.807	-73.596	-0.115	-0.054
-440.792	-129.106	-0.281	0.051
-439.778	-15.200	-0.234	-0.195
-438.763	9.809	-0.092	-0.090
-437.749	46.050	0.318	-0.383
-436.734	-69.909	0.338	-0.167
-435.719	-7.207	0.147	0.129
-434.705	323.168	0.024	0.060
-433.690	331.738	0.155	0.390
-432.676	32.461	0.251	-0.282
-431.661	-84.267	0.316	0.129
-430.646	-26.815	0.160	-0.121
-429.632	24.812	0.229	-0.247
-428.617	-184.863	0.091	-0.002
-427.603	-13.473	-0.489	-0.412
-426.588	-86.187	0.169	0.067
-425.573	-53.021	-0.231	0.138
-424.559	-128.879	-0.464	-0.084
-423.544	47.732	0.218	-0.264
-422.530	-78.406	0.019	0.008
-421.515	193.595	-0.204	0.403
-420.500	-46.667	-0.217	0.138
-419.486	-97.706	-0.250	0.084
-418.471	-133.385	-0.467	-0.076
-417.457	96.854	-0.192	0.286
-416.442	-73.443	0.494	-0.234
-415.428	-55.637	-0.339	0.197
-414.413	-13.347	-0.314	-0.265
-413.398	183.218	-0.165	0.318
-412.384	-26.411	-0.131	-0.099
-411.369	155.062	-0.119	0.213
-410.355	-200.000	0.038	-0.270
-409.340	-106.893	0.671	0.192
-408.325	800.000	0.098	-0.381
-407.311	-115.218	0.488	0.119
-406.296	-62.641	0.405	-0.217
-405.282	-54.133	0.251	0.148
-404.267	-6.459	-0.313	-0.277
-403.252	347.169	0.118	0.304
-402.238	-19.308	0.283	-0.228
-401.223	-20.735	0.230	-0.183
-400.209	-20.341	-0.070	-0.056
-399.194	-97.599	-0.328	0.110
-398.179	-200.000	-0.087	0.790
-397.165	-26.760	0.264	0.200
-396.150	-93.135	0.211	-0.076
-395.136	-19.836	0.126	0.101
-394.121	113.620	-0.147	0.233
-393.106	32.403	-0.458	0.514
-392.092	98.034	-0.091	0.136
-391.077	-40.659	-0.335	-0.225
-390.063	800.000	-0.081	-0.436
-389.048	-200.000	-0.009	0.389
-388.033	-200.000	0.042	0.741
-387.019	82.599	-0.122	0.173
-386.004	602.699	-0.095	-0.308
-384.990	-81.862	0.291	0.123
-383.975	240.253	0.230	0.499
-382.960	-83.120	-0.657	-0.273
-381.946	-74.803	0.446	-0.207
-380.931	-146.281	-0.256	-0.029
-379.917	-111.771	-0.091	0.024
-378.902	-127.180	-0.543	-0.102
-377.888	8.911	-0.146	0.143
-376.873	47.255	-0.422	0.511
-375.858	-42.439	-0.214	0.141
-374.844	-68.753	0.176	-0.088
-373.829	-200.000	-0.027	-0.449
-372.815	63.383	0.148	-0.192
-371.800	-96.964	-0.302	-0.102
-370.785	91.537	-0.036	-0.052
-369.771	239.398	-0.203	0.440
-368.756	-128.310	0.413	-0.076
-367.742	761.683	0.083	-0.294
-366.727	-146.511	-0.214	0.024
-365.712	-30.415	-0.344	-0.253
-364.698	-77.039	-0.190	-0.086
-363.683	-200.000	-0.008	-0.103
-362.669	-200.000	-0.025	0.193
-361.654	550.685	-0.178	0.557
-360.639	191.415	0.100	-0.197
-359.625	63.254	0.049	0.063
-358.610	689.556	-0.028	-0.096
-357.596	15.824	0.372	-0.379
-356.581	11.358	0.249	-0.247
-355.566	-89.738	0.354	-0.134
-354.552	-200.000	0.015	-0.249
-353.537	800.000	0.076	0.292
-352.523	103.212	0.123	0.187
-351.508	-97.858	-0.724	0.241
-350.493	-200.000	-0.003	-0.264
-349.479	175.374	0.272	0.513
-348.464	-13.221	0.019	-0.016
-347.450	-68.312	-0.113	-0.057
-346.435	490.208	-0.085	0.254
-345.420	800.000	-0.105	-0.445
-344.406	-142.927	-0.333	0.041
-343.391	137.649	0.041	-0.070
-342.377	-59.627	-0.097	0.054
-341.362	-62.448	0.550	0.295
-340.348	-110.804	0.199	0.053
-339.333	22.842	-0.141	0.150
-338.318	-55.678	0.578	0.334
-337.304	-72.141	-0.421	0.202
-336.289	-8.195	-0.411	-0.359
-335.275	-40.535	0.258	0.173
-334.260	137.577	0.225	0.383
-333.245	800.000	-0.054	-0.245
-332.231	47.313	-0.284	-0.343
-331.216	-66.561	0.253	-0.130
-330.202	800.000	-0.071	0.338
-329.187	-196.454	-0.559	-0.005
-328.172	-146.958	0.412	-0.045
-327.158	146.319	-0.062	0.109
-326.143	-82.492	0.240	-0.100
-325.129	518.814	-0.234	-0.714
-324.114	-88.575	0.618	-0.237
-323.099	800.000	-0.070	0.299
-322.085	175.776	0.124	-0.234
-321.070	-66.213	0.240	0.123
-320.056	800.000	0.026	-0.143
-319.041	-48.954	0.132	0.082
-318.026	86.339	0.138	-0.197
-317.012	546.281	-0.122	0.379
-315.997	-52.220	-0.232	-0.139
-314.983	-89.017	0.364	0.139
-313.968	-200.000	-0.008	-0.270
-312.953	-46.878	0.421	0.266
-311.939	70.037	-0.143	-0.192
-310.924	-120.294	0.341	-0.075
-309.910	-8.647	-0.127	0.111
-308.895	-16.266	-0.345	-0.284
-307.880	-79.619	0.906	0.394
-306.866	25.760	-0.135	-0.146
-305.851	453.982	0.112	0.321
-304.837	800.000	0.011	0.041
-303.822	102.968	-0.163	-0.248
-302.807	-54.131	-0.367	0.215
-301.793	-29.043	0.284	0.210
-300.778	-200.000	0.012	-0.148
-299.764	-94.512	0.543	-0.190
-298.749	-136.801	0.575	-0.085
-297.735	87.112	-0.173	0.248
-296.720	-162.942	-0.204	0.013
-295.705	-53.683	0.326	-0.192
-294.691	-140.854	-0.077	0.010
-293.676	186.493	0.099	-0.190
-292.662	484.591	0.166	0.492
-291.647	-163.555	0.253	0.015
-290.632	-71.986	-0.271	0.130
-289.618	-36.402	-0.363	-0.252
-288.603	-83.221	-0.439	-0.182
-287.589	-200.000	0.152	-0.000
-286.574	350.582	0.138	0.355
-285.559	-200.000	0.053	0.309
-284.545	-96.366	0.084	-0.029
-283.530	-86.264	-0.399	-0.158
-282.516	2.678	-0.188	0.176
-281.501	-53.407	-0.279	-0.165
-280.486	256.842	-0.042	-0.095
-279.472	200.759	0.172	0.343
-278.457	19.719	-0.260	-0.270
-277.443	-200.000	0.006	-0.496
-276.428	-93.193	-0.675	-0.241
-275.413	-136.954	-0.274	0.040
-274.399	-143.561	-0.357	-0.044
-273.384	-139.087	0.134	0.019
-272.370	-161.816	0.138	-0.009
-271.355	-142.790	0.275	-0.034
-270.340	178.834	-0.212	-0.402
-269.326	-49.694	0.204	0.125
-268.311	149.772	0.232	0.408
-267.297	-130.007	-0.075	0.013
-266.282	-200.000	0.042	-0.403
-265.267	195.161	0.225	0.443
-264.253	800.000	-0.064	0.347
-263.238	-200.000	-0.014	-0.374
-262.224	800.000	-0.079	-0.288
-261.209	-174.006	-0.379	0.014
-260.195	36.607	0.274	-0.313
-259.180	-116.033	-0.465	0.111
-258.165	62.808	-0.098	-0.127
-257.151	-2.359	-0.271	-0.245
-256.136	86.241	-0.149	0.212
-255.122	-84.249	-0.501	-0.204
-254.107	-111.881	0.284	0.074
-253.092	-78.375	-0.264	0.117
-252.078	34.566	-0.302	0.341
-251.063	-200.000	-0.047	0.269
-250.049	-103.401	0.288	-0.087
-249.034	140.583	-0.178	0.304
-248.019	-103.884	0.059	-0.018
-247.005	-59.915	0.440	0.242
-245.990	283.369	-0.271	0.631
-244.976	-200.000	0.012	0.197
-243.961	555.489	0.254	0.795
-242.946	-107.937	0.530	0.148
-241.932	-200.000	0.019	0.168
-240.917	-13.870	0.100	-0.084
-239.903	108.202	0.171	0.264
-238.888	445.120	0.157	-0.447
-237.873	28.855	-0.074	0.081
-236.859	257.133	0.083	0.184
-235.844	-38.804	0.088	-0.059
-234.830	800.000	0.053	0.257
-233.815	-86.656	-0.351	0.138
-232.800	800.000	-0.045	0.219
-231.786	7.924	0.232	0.224
-230.771	369.353	-0.064	0.168
-229.757	-29.378	-0.084	-0.062
-228.742	-136.268	0.437	0.065
-227.727	-99.603	0.404	-0.130
-226.713	-43.749	0.167	-0.109
-225.698	-28.607	-0.251	-0.186
-224.684	800.000	0.100	0.456
-223.669	-200.000	0.003	-0.185
-222.655	289.500	0.160	-0.377
-221.640	-104.053	-0.119	-0.035
-220.625	-150.213	-0.197	0.019
-219.611	-50.783	-0.208	-0.126
-218.596	545.027	-0.010	-0.030
-217.582	-77.084	0.529	0.237
-216.567	-94.268	-0.197	0.069
-215.552	196.298	0.085	-0.168
-214.538	-8.056	-0.234	-0.203
-213.523	800.000	-0.053	-0.249
-212.509	81.829	-0.196	0.274
-211.494	-150.316	-0.514	0.051
-210.479	-166.474	-0.601	0.032
-209.465	800.000	0.067	-0.376
-208.450	233.184	0.218	-0.465
-207.436	452.621	-0.159	0.456
-206.421	800.000	0.072	-0.272
-205.406	-128.105	0.500	-0.091
-204.392	-56.969	-0.160	0.091
-203.377	-49.763	0.070	-0.043
-202.363	-200.000	-0.052	0.371
-201.348	-200.000	-0.012	-0.163
-200.333	-5.716	-0.217	-0.192
-199.319	400.742	0.038	-0.105
-198.304	-200.000	-0.019	-0.128
-197.290	381.587	-0.212	0.564
-196.275	-5.554	-0.482	-0.426
-195.260	-140.437	-0.612	-0.081
-194.246	-113.655	-0.209	-0.052
-193.231	730.779	-0.137	-0.474
-192.217	-65.716	-0.562	0.289
-191.202	800.000	0.058	0.242
-190.187	-44.599	0.351	0.226
-189.173	-200.000	0.016	-0.104
-188.158	-162.208	-0.044	-0.003
-187.144	-77.566	0.120	0.054
-186.129	11.007	0.239	0.235
-185.114	4.816	0.222	0.210
-184.100	55.627	0.111	0.138
-183.085	105.616	-0.133	-0.202
-182.071	149.433	-0.229	-0.400
-181.056	-137.084	0.499	-0.073
-180.042	109.751	-0.241	-0.373
-179.027	-10.195	0.506	0.433
-178.012	-94.620	0.522	0.182
-176.998	-200.000	0.008	-0.065
-175.983	792.506	-0.122	0.434
-174.969	-0.770	0.268	0.244
-173.954	-200.000	-0.013	0.145
-172.939	316.015	-0.126	-0.308
-171.925	-53.408	-0.195	0.115
-170.910	-200.000	-0.009	-0.622
-169.896	34.916	-0.070	-0.079
-168.881	-158.684	-0.319	-0.023
-167.866	24.244	-0.223	-0.237
-166.852	-200.000	0.054	-0.361
-165.837	14.394	-0.092	-0.093
-164.823	-45.917	0.214	0.136
-163.808	-134.723	-0.295	0.046
-162.793	-52.748	-0.307	-0.182
-161.779	43.220	-0.130	-0.153
-160.764	561.648	0.139	-0.435
-159.750	-30.291	0.124	-0.091
-158.735	-35.511	-0.425	-0.296
-157.720	-57.038	0.174	0.099
-156.706	-89.332	-0.210	-0.079
-155.691	19.848	-0.190	-0.197
-154.677	-200.000	0.014	0.348
-153.662	800.000	-0.027	-0.141
-152.647	518.746	-0.121	-0.366
-151.633	-173.376	0.115	0.004
-150.618	20.209	0.188	0.195
-149.604	170.461	0.071	0.131
-148.589	59.966	0.234	-0.297
-147.574	-110.304	-0.601	-0.160
-146.560	-66.337	-0.537	0.274
-145.545	-159.426	0.270	0.019
-144.531	-141.760	-0.502	0.064
-143.516	-64.723	-0.322	0.167
-142.502	52.808	0.023	0.028
-141.487	675.939	0.137	-0.460
-140.472	276.717	-0.241	-0.554
-139.458	75.946	-0.174	0.237
-138.443	-90.737	0.462	-0.171
-137.429	-88.780	0.402	-0.153
-136.414	176.025	-0.127	0.237
-135.399	142.567	0.159	-0.273
-134.385	800.000	-0.121	0.623
-133.370	-112.039	0.418	0.107
-132.356	-200.000	0.011	-0.427
-131.341	-52.151	0.055	0.033
-130.326	-89.499	-0.378	0.142
-129.312	-89.421	-0.396	0.149
-128.297	-44.653	0.536	-0.343
-127.283	-149.039	-0.292	0.030
-126.268	-120.291	0.294	-0.064
-125.253	152.885	-0.320	0.565
-124.239	800.000	0.027	-0.136
-123.224	3.226	-0.214	-0.200
-122.210	-200.000	0.021	0.407
-121.195	14.118	0.294	0.294
-120.180	334.012	-0.135	-0.338
-119.166	-179.986	-0.761	-0.020
-118.151	-38.472	-0.198	-0.134
-117.137	-88.076	0.226	0.087
-116.122	800.000	-0.070	-0.250
-115.107	310.046	0.117	-0.283
-114.093	-200.000	0.000	0.486
-113.078	-139.287	-0.574	0.079
-112.064	643.510	0.114	0.376
-111.049	-200.000	-0.045	-0.387
-110.034	-200.000	0.012	0.136
-109.020	-9.368	-0.366	-0.314
-108.005	96.216	0.252	0.371
-106.991	-183.218	-0.668	0.015
-105.976	-53.374	0.428	0.251
-104.962	45.625	0.262	0.311
-103.947	121.713	0.195	-0.313
-102.932	231.692	0.062	-0.130
-101.918	-108.869	0.027	0.007
-100.903	133.316	-0.153	-0.255
-99.889	1.719	0.078	-0.072
-98.874	82.262	0.267	-0.373
-97.859	-85.650	-0.330	0.131
-96.845	138.748	-0.224	0.378
-95.830	-55.975	0.537	0.306
-94.816	300.557	-0.081	-0.192
-93.801	-190.777	-0.336	-0.004
-92.786	-73.069	-0.239	-0.112
-91.772	62.529	0.138	-0.177
-90.757	27.175	-0.224	-0.242
-89.743	263.101	0.069	0.154
-88.728	-101.653	0.458	-0.142
-87.713	-11.609	-0.382	0.321
-86.699	-200.000	-0.056	-0.357
-85.684	-200.000	-0.015	0.116
-84.670	81.841	-0.142	0.198
-83.655	-42.422	0.226	-0.147
-82.640	-73.218	0.399	0.187
-81.626	-97.928	0.474	-0.156
-80.611	-200.000	-0.025	-0.377
-79.597	174.921	-0.212	-0.394
-78.582	149.147	-0.256	-0.445
-77.567	-47.925	0.284	0.176
-76.553	-147.693	0.088	0.009
-75.538	800.000	-0.024	-0.100
-74.524	-24.566	-0.274	-0.209
-73.509	34.632	-0.184	-0.206
-72.494	-48.646	-0.416	0.256
-71.480	-99.534	0.279	0.090
-70.465	-10.287	0.175	-0.149
-69.451	-107.608	0.190	0.053
-68.436	-129.640	-0.267	0.047
-67.422	-145.964	0.575	0.065
-66.407	800.000	0.055	0.232
-65.392	92.023	-0.064	0.092
-64.378	-200.000	-0.090	-0.578
-63.363	-73.604	-0.331	0.154
-62.349	-200.000	-0.010	0.558
-61.334	-7.263	-1.928	-1.674
-60.319	227.629	0.900	1.884
-59.305	226.057	-3.484	-7.270
-58.290	38.700	3.910	4.477
-57.276	375.686	4.017	10.555
-56.261	-200.000	21.536	293.969
-55.246	375.343	1275.256	3348.839
-54.232	55.398	2842.729	3529.617
-53.217	58.363	2667.875	3357.669
-52.203	31.312	2401.650	2644.293
-51.188	30.424	2069.272	2267.352
-50.173	26.517	1956.317	2098.070
-49.159	25.317	1944.581	2071.491
-48.144	24.936	1940.022	2062.142
-47.130	24.921	1936.942	2058.607
-46.115	24.628	1936.560	2054.742
-45.100	24.717	1935.431	2054.482
-44.086	24.605	1933.547	2051.112
-43.071	24.581	1932.665	2049.823
-42.057	24.661	1930.123	2047.961
-41.042	24.582	1929.312	2046.112
-40.027	24.583	1928.054	2044.709
-39.013	24.701	1925.765	2043.553
-37.998	24.649	1924.508	2041.538
-36.984	24.588	1923.513	2039.707
-35.969	24.598	1922.560	2038.726
-34.954	24.541	1921.038	2036.379
-33.940	24.558	1920.276	2035.690
-32.925	24.666	1918.023	2034.457
-31.911	24.609	1917.309	2032.960
-30.896	24.706	1915.117	2031.669
-29.881	24.551	1913.784	2028.404
-28.867	24.482	1913.887	2027.639
-27.852	24.572	1911.229	2025.768
-26.838	24.493	1910.712	2024.246
-25.823	24.468	1908.939	2021.999
-24.809	24.431	1907.890	2020.394
-23.794	24.442	1906.611	2019.080
-22.779	24.519	1904.325	2017.452
-21.765	24.456	1903.612	2015.906
-20.750	24.432	1902.393	2014.259
-19.736	24.387	1901.559	2012.784
-18.721	24.339	1900.135	2010.659
-17.706	24.281	1899.095	2008.818
-16.692	24.251	1898.024	2007.260
-15.677	24.404	1895.753	2006.511
-14.663	24.234	1895.083	2003.800
-13.648	24.246	1894.824	2003.586
-12.633	24.256	1893.127	2001.827
-11.619	24.293	1891.825	2000.790
-10.604	24.307	1889.853	1998.777
-9.590	24.303	1889.123	1997.879
-8.575	24.321	1887.945	1996.762
-7.560	24.311	1887.653	1996.255
-6.546	24.337	1885.452	1994.148
-5.531	24.345	1884.308	1992.945
-4.517	24.349	1883.075	1991.603
-3.502	24.321	1882.744	1990.867
-2.487	24.356	1882.347	1990.761
-1.473	24.385	1878.703	1987.148
-0.458	24.500	1861.109	1969.742
0.556	21.676	2008.791	2079.956
1.571	20.766	2217.521	2283.816
2.586	21.823	2258.212	2339.618
3.600	21.796	2260.609	2341.470
4.615	21.869	2259.263	2340.765
5.629	21.815	2258.187	2338.656
6.644	21.974	2255.194	2337.405
7.659	21.858	2253.522	2333.833
8.673	21.905	2251.814	2332.420
9.688	21.598	2259.744	2336.236
10.702	20.412	2338.503	2400.896
11.717	18.592	2404.115	2441.942
12.731	9.162	2380.277	2283.252
13.746	1.440	2358.327	2152.290
14.761	0.273	2354.754	2132.178
15.775	0.192	2352.172	2128.431
16.790	0.189	2349.922	2126.101
17.804	0.180	2349.116	2124.989
18.819	0.024	2349.228	2122.626
19.834	0.076	2347.328	2121.381
20.848	0.076	2345.712	2119.673
21.863	0.107	2343.643	2117.994
22.877	-0.019	2342.271	2114.711
23.892	0.127	2339.028	2113.593
24.907	0.039	2337.508	2110.721
25.921	0.074	2335.734	2109.358
26.936	0.019	2333.689	2106.493
27.950	0.051	2331.257	2104.495
28.965	0.056	2328.626	2101.930
29.980	0.065	2327.192	2100.516
30.994	0.286	2323.953	2100.432
32.009	4.716	2339.320	2176.465
33.023	16.184	2373.360	2370.677
34.038	21.300	2383.687	2453.096
35.053	21.857	2382.781	2459.717
36.067	21.763	2379.419	2454.629
37.082	21.490	2377.450	2448.464
38.096	21.603	2376.330	2448.610
39.111	21.881	2373.308	2449.109
40.126	22.127	2372.000	2450.904
41.140	22.517	2371.534	2455.606
42.155	22.410	2368.932	2451.110
43.169	22.516	2367.007	2450.307
44.184	22.684	2364.867	2450.151
45.199	22.594	2363.889	2447.581
46.213	22.290	2362.356	2441.466
47.228	22.154	2360.121	2436.967
48.242	22.457	2359.432	2440.186
49.257	22.634	2357.638	2440.499
50.271	22.403	2354.254	2433.502
51.286	22.441	2351.259	2430.639
52.301	22.680	2350.851	2433.242
53.315	22.251	2349.280	2425.373
54.330	21.669	2346.990	2414.664
55.344	21.787	2343.107	2412.002
56.359	21.798	2340.288	2408.966
57.374	21.694	2338.158	2405.048
58.388	21.775	2336.219	2403.883
59.403	21.895	2332.821	2401.759
60.417	21.985	2330.659	2400.475
61.432	22.145	2329.134	2400.823
62.447	22.240	2327.668	2400.316
63.461	22.210	2325.787	2397.678
64.476	22.213	2324.224	2395.820
65.490	22.394	2323.975	2397.760
66.505	22.575	2323.464	2399.431
67.520	22.383	2321.571	2394.557
68.534	22.206	2319.029	2389.228
69.549	22.516	2315.596	2389.637
70.563	22.497	2313.284	2386.701
71.578	22.494	2311.427	2384.460
72.593	22.181	2309.347	2377.779
73.607	22.283	2307.766	2377.245
74.622	22.446	2306.552	2377.924
75.636	22.568	2304.678	2377.363
76.651	22.606	2302.713	2375.569
77.666	22.608	2300.208	2372.721
78.680	22.511	2297.333	2368.165
79.695	22.564	2297.271	2368.536
80.709	22.860	2295.544	2370.473
81.724	22.803	2293.229	2367.024
82.739	22.497	2290.832	2360.150
83.753	22.423	2288.010	2355.959
84.768	22.701	2288.219	2359.638
85.782	22.991	2286.794	2361.775
86.797	22.844	2284.386	2357.034
87.812	22.587	2281.810	2350.649
88.826	22.977	2280.842	2354.600
89.841	22.913	2278.862	2351.416
90.855	22.809	2275.256	2346.017
91.870	22.655	2274.348	2342.742
92.884	22.870	2272.269	2343.193
93.899	22.900	2270.750	2341.744
94.914	22.590	2270.473	2337.046
95.928	22.357	2268.490	2331.629
96.943	22.166	2265.717	2325.959
97.957	22.302	2264.786	2326.530
98.972	22.567	2263.828	2328.785
99.987	22.438	2260.633	2323.515
101.001	22.631	2257.848	2322.931
102.016	22.677	2255.989	2321.340
103.030	22.600	2253.211	2317.191
104.045	22.438	2250.316	2311.802
105.060	22.406	2247.720	2308.428
106.074	22.373	2246.627	2306.601
107.089	22.339	2245.255	2304.466
108.103	22.391	2244.424	2304.028
109.118	22.455	2242.739	2302.867
110.133	22.515	2240.574	2301.142
111.147	22.573	2239.240	2300.259
112.162	22.974	2238.136	2304.112
113.176	22.744	2235.400	2298.009
114.191	22.380	2233.198	2290.715
115.206	22.351	2230.712	2287.507
116.220	22.190	2228.957	2283.334
117.235	22.154	2226.210	2279.770
118.249	22.075	2223.582	2275.784
119.264	22.366	2223.048	2278.745
120.279	22.477	2223.272	2280.149
121.293	22.510	2220.377	2277.343
122.308	22.350	2219.133	2273.717
123.322	22.441	2218.025	2273.486
124.337	22.372	2216.671	2270.936
125.352	22.203	2216.456	2268.244
126.366	22.438	2213.937	2268.446
127.381	22.369	2210.569	2263.831
128.395	22.057	2207.867	2256.761
129.410	22.359	2206.404	2258.894
130.424	22.579	2205.232	2260.256
131.439	22.332	2202.640	2254.153
132.454	22.155	2201.093	2250.018
133.468	22.129	2197.699	2245.945
134.483	22.167	2195.271	2243.684
135.497	22.163	2194.134	2242.195
136.512	22.208	2192.494	2240.837
137.527	22.205	2192.053	2240.071
138.541	22.258	2191.008	2239.416
139.556	22.208	2189.337	2236.802
140.570	22.313	2187.242	2235.741
141.585	22.286	2186.574	2234.444
142.600	22.352	2184.738	2233.141
143.614	22.197	2183.108	2229.229
144.629	22.175	2181.093	2226.631
145.643	22.165	2178.975	2224.066
146.658	22.128	2177.423	2221.747
147.673	22.317	2175.464	2221.886
148.687	22.500	2176.324	2224.822
149.702	22.777	2175.555	2227.284
150.716	22.845	2173.778	2226.054
151.731	22.930	2172.493	2225.556
152.746	22.756	2171.053	2221.607
153.760	22.407	2170.339	2216.199
154.775	21.977	2168.491	2208.611
155.789	21.825	2164.604	2202.467
156.804	21.769	2162.177	2199.019
157.819	22.160	2160.476	2201.962
158.833	22.539	2158.970	2204.930
159.848	22.775	2156.572	2205.174
160.862	22.613	2154.619	2200.887
161.877	22.514	2153.623	2198.361
162.892	22.475	2152.321	2196.286
163.906	22.497	2150.865	2194.812
164.921	22.374	2148.209	2190.294
165.935	22.381	2145.669	2187.534
166.950	22.332	2144.636	2185.602
167.964	22.286	2141.686	2181.768
168.979	22.308	2140.134	2180.195
169.994	22.339	2138.845	2179.008
171.008	22.422	2138.364	2179.296
172.023	22.549	2137.375	2179.603
173.037	22.619	2135.362	2178.158
174.052	22.231	2133.463	2171.147
175.067	22.078	2131.309	2166.794
176.081	22.285	2130.558	2168.336
177.096	22.276	2128.439	2165.806
178.110	22.154	2125.842	2161.404
179.125	22.342	2125.538	2163.160
180.140	22.646	2124.953	2166.055
181.154	22.615	2123.330	2163.762
182.169	22.020	2121.979	2154.787
183.183	21.928	2119.882	2151.263
184.198	21.852	2117.815	2147.974
185.213	21.869	2117.773	2147.880
186.227	22.382	2116.491	2152.633
187.242	22.345	2115.080	2150.487
188.256	22.383	2112.425	2147.997
189.271	22.553	2111.768	2149.154
190.286	22.621	2111.191	2149.140
191.300	22.445	2107.380	2142.850
192.315	22.174	2106.159	2138.042
193.329	22.234	2104.273	2136.601
194.344	22.312	2104.299	2137.328
195.359	22.397	2102.068	2135.839
196.373	22.228	2099.859	2131.287
197.388	22.240	2097.024	2128.293
198.402	22.312	2095.100	2126.967
199.417	22.171	2093.439	2123.312
200.432	22.282	2092.345	2123.290
201.446	22.398	2091.173	2123.261
202.461	22.349	2089.111	2120.319
203.475	22.493	2087.337	2120.005
204.490	22.407	2085.599	2116.947
205.504	22.269	2082.774	2112.161
206.519	22.282	2079.574	2108.819
207.534	22.173	2078.419	2106.084
208.548	22.340	2077.989	2107.411
209.563	22.458	2077.976	2108.558
210.577	22.248	2076.048	2103.828
211.592	22.290	2074.863	2102.875
212.607	22.160	2073.979	2100.174
213.621	21.907	2072.958	2095.843
214.636	21.656	2070.885	2090.485
215.650	21.770	2068.867	2089.564
216.665	21.928	2067.708	2090.044
217.680	22.375	2066.591	2094.008
218.694	22.917	2065.586	2099.213
219.709	23.153	2065.108	2101.293
220.723	22.916	2063.576	2096.653
221.738	22.651	2060.406	2090.031
222.753	22.482	2058.300	2085.628
223.767	22.265	2057.293	2081.779
224.782	22.254	2054.753	2078.827
225.796	22.387	2053.154	2078.539
226.811	22.593	2052.285	2079.851
227.826	22.677	2050.268	2078.556
228.840	22.650	2048.057	2075.743
229.855	22.506	2046.920	2072.651
230.869	22.560	2046.652	2072.765
231.884	22.329	2044.510	2067.618
232.899	22.125	2042.244	2062.673
233.913	22.202	2040.814	2061.889
234.928	22.209	2040.047	2060.950
235.942	22.537	2038.031	2062.529
236.957	22.398	2037.666	2060.276
237.972	22.312	2036.474	2057.815
238.986	22.390	2035.033	2057.025
240.001	22.504	2032.847	2055.903
241.015	22.457	2031.554	2053.801
242.030	22.420	2030.436	2051.991
243.045	22.193	2028.582	2047.216
244.059	22.001	2026.841	2042.969
245.074	22.154	2023.868	2041.513
246.088	22.043	2021.895	2037.990
247.103	22.176	2020.323	2037.706
248.117	22.391	2018.475	2038.106
249.132	22.426	2018.377	2038.171
250.147	22.320	2016.277	2034.568
251.161	22.200	2014.607	2031.243
252.176	22.176	2014.200	2030.314
253.190	22.536	2012.214	2032.245
254.205	22.646	2009.993	2031.033
255.220	22.854	2008.769	2031.954
256.234	22.730	2008.678	2030.194
257.249	22.644	2007.006	2027.257
258.263	22.506	2006.379	2024.794
259.278	22.503	2004.363	2022.476
260.293	22.369	2001.713	2018.024
261.307	22.475	1999.461	2016.734
262.322	22.174	1998.808	2012.369
263.336	22.312	1996.841	2011.726
264.351	22.430	1994.805	2010.790
265.366	22.282	1994.127	2008.172
266.380	22.483	1993.512	2009.615
267.395	22.375	1991.015	2005.624
268.409	22.162	1989.562	2001.476
269.424	22.323	1989.548	2003.064
270.439	22.549	1987.205	2003.051
271.453	22.265	1985.715	1998.062
272.468	21.968	1983.254	1991.961
273.482	21.899	1981.842	1989.520
274.497	22.218	1979.287	1990.349
275.512	22.412	1977.882	1990.904
276.526	22.456	1975.820	1989.087
277.541	22.365	1974.799	1986.792
278.555	22.490	1972.333	1985.484
279.570	22.400	1970.171	1982.052
280.585	22.198	1967.993	1977.340
281.599	22.079	1967.305	1975.066
282.614	22.026	1965.885	1972.809
283.628	22.249	1964.857	1974.059
284.643	22.061	1964.071	1970.916
285.657	22.137	1962.477	1969.937
286.672	22.161	1960.478	1967.961
287.687	21.891	1958.337	1962.538
288.701	21.867	1957.293	1960.994
289.716	21.867	1956.066	1959.526
290.730	21.847	1954.083	1957.087
291.745	21.735	1952.355	1953.858
292.760	21.950	1951.777	1955.455
293.774	22.186	1951.399	1957.483
294.789	22.139	1950.339	1955.662
295.803	22.086	1948.121	1952.616
296.818	22.287	1947.430	1953.935
297.833	22.393	1946.769	1954.219
298.847	22.388	1944.911	1952.063
299.862	22.209	1943.450	1948.371
300.876	22.169	1941.007	1945.245
301.891	22.012	1939.958	1942.212
302.906	22.091	1939.614	1942.512
303.920	22.301	1938.018	1943.007
304.935	22.224	1935.835	1939.736
305.949	22.131	1933.144	1935.784
306.964	22.159	1931.609	1934.318
307.979	22.441	1930.287	1935.880
308.993	22.235	1928.771	1931.853
310.008	22.444	1927.303	1932.455
311.022	22.590	1925.674	1932.206
312.037	22.261	1924.341	1927.015
313.052	22.109	1921.425	1922.194
314.066	21.941	1919.841	1918.529
315.081	21.981	1918.485	1917.386
316.095	21.869	1917.582	1915.018
317.110	21.952	1916.549	1914.672
318.125	22.066	1915.982	1915.123
319.139	22.376	1914.771	1917.083
320.154	22.305	1913.750	1915.049
321.168	22.423	1911.540	1913.899
322.183	22.516	1910.164	1913.313
323.197	22.446	1908.769	1910.923
324.212	22.163	1906.276	1905.109
325.227	22.217	1905.271	1904.464
326.241	22.355	1903.799	1904.275
327.256	22.460	1903.097	1904.484
328.270	22.498	1902.120	1903.687
329.285	22.487	1901.122	1902.346
330.300	22.320	1901.511	1900.689
331.314	22.108	1899.179	1895.829
332.329	21.823	1897.449	1890.793
333.343	22.036	1894.813	1890.240
334.358	22.507	1893.437	1893.736
335.373	22.620	1891.964	1893.251
336.387	22.564	1890.230	1890.684
337.402	22.553	1889.133	1889.241
338.416	22.330	1887.334	1884.821
339.431	22.486	1885.869	1884.805
340.446	22.719	1883.836	1885.056
341.460	22.530	1882.507	1881.472
342.475	22.360	1880.471	1877.390
343.489	22.345	1879.992	1876.526
344.504	22.373	1878.156	1874.770
345.519	22.171	1876.076	1870.310
346.533	22.172	1873.862	1867.885
347.548	22.162	1873.940	1867.631
348.562	22.330	1872.641	1867.906
349.577	22.341	1871.039	1866.204
350.592	22.025	1869.392	1860.968
351.606	22.133	1868.273	1860.787
352.621	22.154	1866.944	1859.456
353.635	22.056	1865.102	1856.366
354.650	21.974	1863.515	1853.692
355.665	22.266	1862.361	1855.420
356.679	22.346	1861.686	1855.367
357.694	22.397	1859.754	1853.762
358.708	22.357	1858.937	1852.299
359.723	22.417	1858.547	1852.328
360.738	22.134	1856.811	1847.387
361.752	22.117	1855.051	1845.237
362.767	22.133	1853.173	1843.319
363.781	21.908	1851.861	1839.418
364.796	22.470	1851.155	1844.414
365.810	22.851	1850.683	1847.729
366.825	22.543	1848.497	1842.088
367.840	22.680	1847.289	1842.103
368.854	22.675	1847.217	1841.758
369.869	22.562	1845.283	1838.422
370.883	22.548	1842.405	1835.188
371.898	22.342	1840.765	1831.188
372.913	22.232	1840.306	1829.358
373.927	22.368	1839.914	1830.169
374.942	22.436	1838.357	1829.111
375.956	22.523	1837.254	1828.702
376.971	22.609	1834.861	1827.004
377.986	22.589	1833.521	1825.243
379.000	22.568	1832.495	1823.776
380.015	22.893	1831.121	1825.570
381.029	22.930	1829.664	1824.281
382.044	22.743	1827.746	1820.212
383.059	22.781	1826.012	1818.667
384.073	22.564	1824.287	1814.488
385.088	22.411	1823.319	1811.723
386.102	22.354	1821.050	1808.656
387.117	22.495	1819.516	1808.373
388.132	22.292	1819.072	1805.626
389.146	22.315	1819.835	1806.399
390.161	22.159	1817.306	1802.071
391.175	22.100	1814.340	1798.306
392.190	22.245	1810.967	1796.231
393.205	22.125	1808.560	1792.403
394.219	22.008	1807.600	1790.035
395.234	22.162	1806.992	1790.803
396.248	22.314	1805.051	1790.220
397.263	22.359	1802.152	1787.582
398.278	22.065	1800.615	1782.843
399.292	22.071	1800.531	1782.617
400.307	22.338	1799.680	1784.283
401.321	22.400	1798.142	1783.166
402.336	22.177	1796.118	1778.678
403.350	22.332	1795.406	1779.338
404.365	22.720	1794.604	1782.277
405.380	22.937	1793.946	1783.610
406.394	23.076	1793.250	1784.116
407.409	23.077	1791.537	1782.204
408.423	22.693	1789.058	1775.640
409.438	22.406	1787.119	1770.606
410.453	22.335	1786.649	1769.207
411.467	22.387	1785.678	1768.555
412.482	22.429	1784.732	1767.831
413.496	22.533	1782.485	1766.444
414.511	22.563	1780.646	1764.710
415.526	22.392	1778.459	1760.617
416.540	22.278	1777.865	1758.674
417.555	22.445	1775.976	1758.273
418.569	22.228	1775.936	1755.841
419.584	22.371	1775.285	1756.425
420.599	22.481	1776.515	1758.534
421.613	22.882	1775.651	1761.487
422.628	22.818	1774.647	1759.639
423.642	22.710	1772.820	1756.531
424.657	22.738	1769.818	1753.633
425.672	22.787	1767.840	1751.951
426.686	22.375	1767.072	1746.868
427.701	22.097	1764.995	1741.840
428.715	21.882	1763.147	1737.669
429.730	22.069	1761.225	1737.426
430.745	21.996	1760.439	1735.712
431.759	21.856	1758.676	1732.376
432.774	21.521	1757.403	1727.595
433.788	21.205	1756.261	1723.130
434.803	20.930	1755.239	1719.193
435.818	21.022	1754.821	1719.493
436.832	21.054	1754.078	1718.872
437.847	19.957	1746.022	1699.949
438.861	11.081	1721.647	1589.285
439.876	1.962	1704.880	1484.687
440.890	0.415	1700.468	1465.571
441.905	0.367	1699.552	1464.134
442.920	0.270	1698.470	1462.087
443.934	0.180	1697.582	1460.268
444.949	0.191	1696.785	1459.507
445.963	0.199	1694.846	1457.748
446.978	0.264	1693.777	1457.284
447.993	0.113	1693.390	1455.308
449.007	0.102	1691.384	1453.303
450.022	0.221	1688.868	1452.124
451.036	0.182	1688.052	1450.871
452.051	0.642	1690.437	1457.209
453.066	8.267	1709.899	1548.378
454.080	17.904	1725.270	1656.527
455.095	20.299	1729.322	1683.606
456.109	20.734	1730.175	1688.479
457.124	20.864	1728.657	1688.057
458.139	20.963	1726.578	1686.790
459.153	20.805	1725.649	1684.144
460.168	20.847	1723.886	1682.635
461.182	20.833	1722.356	1680.801
462.197	21.104	1720.329	1681.246
463.212	20.879	1720.234	1678.776
464.226	21.200	1718.844	1680.318
465.241	20.996	1717.492	1676.820
466.255	20.916	1716.239	1674.632
467.270	20.922	1715.208	1673.476
468.285	21.065	1713.458	1672.949
469.299	21.000	1712.412	1671.104
470.314	20.968	1710.782	1669.001
471.328	20.928	1709.038	1666.717
472.343	21.075	1707.688	1666.613
473.358	20.943	1706.744	1664.222
474.372	20.896	1705.758	1662.613
475.387	20.890	1704.366	1661.005
476.401	20.758	1702.982	1658.190
477.416	20.743	1701.020	1655.940
478.430	20.576	1700.018	1653.169
479.445	20.654	1699.771	1653.479
480.460	20.766	1698.589	1653.199
481.474	20.869	1697.102	1652.537
482.489	20.834	1695.824	1650.758
483.503	20.792	1693.190	1647.593
484.518	20.591	1692.373	1644.693
485.533	20.718	1690.246	1643.636
486.547	20.665	1688.091	1640.845
487.562	20.173	1688.420	1636.299
488.576	20.388	1686.506	1636.288
489.591	20.622	1685.247	1637.084
490.606	20.758	1683.899	1636.859
491.620	20.798	1682.148	1635.341
492.635	20.592	1680.040	1631.151
493.649	20.430	1679.214	1628.626
494.664	20.539	1679.707	1629.938
495.679	20.890	1677.515	1630.926
496.693	20.825	1676.590	1629.217
497.708	20.826	1675.240	1627.720
498.722	20.756	1673.446	1625.124
499.737	20.665	1672.602	1623.258
500.752	20.850	1670.815	1623.058
501.766	20.890	1670.253	1622.690
502.781	20.924	1667.777	1620.412
503.795	20.946	1666.740	1619.414
504.810	20.847	1665.768	1617.351
505.825	20.874	1665.224	1616.889
506.839	20.847	1664.460	1615.697
507.854	20.870	1662.383	1613.707
508.868	20.737	1661.016	1610.941
509.883	20.759	1659.746	1609.725
510.898	20.747	1657.514	1607.257
511.912	20.531	1656.516	1604.091
512.927	20.543	1655.607	1603.130
513.941	20.582	1653.490	1601.250
514.956	20.816	1652.454	1602.223
515.971	20.752	1651.209	1600.233
516.985	20.798	1650.354	1599.634
518.000	20.700	1649.404	1597.615
519.014	20.542	1647.699	1594.323
520.029	20.500	1646.367	1592.448
521.043	20.527	1644.953	1591.144
522.058	20.505	1644.139	1589.963
523.073	20.579	1642.252	1588.629
524.087	20.339	1641.902	1585.894
525.102	20.531	1640.493	1586.108
526.116	20.734	1639.966	1587.263
527.131	20.887	1639.087	1587.630
528.146	20.804	1637.655	1585.287
529.160	20.547	1636.530	1581.658
530.175	20.609	1635.129	1580.687
531.189	20.596	1633.842	1579.132
532.204	20.458	1632.543	1576.428
533.219	20.534	1631.555	1575.981
534.233	20.768	1630.395	1576.797
535.248	20.637	1629.611	1574.666
536.262	20.406	1627.795	1570.618
537.277	20.331	1626.187	1568.199
538.292	20.326	1624.940	1566.766
539.306	20.386	1623.052	1565.299
540.321	20.241	1622.149	1562.926
541.335	20.250	1620.593	1561.318
542.350	20.352	1619.065	1560.585
543.365	20.334	1617.412	1558.644
544.379	20.292	1615.762	1556.486
545.394	20.218	1615.031	1554.929
546.408	20.358	1614.395	1555.392
547.423	20.694	1613.311	1557.185
548.438	20.733	1612.686	1556.747
549.452	20.614	1611.172	1554.031
550.467	20.562	1609.379	1551.644
551.481	20.617	1608.723	1551.320
552.496	20.475	1607.239	1548.434
553.511	20.405	1605.737	1546.170
554.525	20.394	1604.989	1545.170
555.540	20.409	1604.055	1544.218
556.554	20.393	1602.648	1542.540
557.569	20.332	1601.717	1540.909
558.583	20.650	1599.146	1541.088
559.598	20.548	1598.759	1539.622
560.613	20.443	1598.082	1537.850
561.627	20.363	1596.659	1535.584
562.642	20.293	1594.623	1532.822
563.656	20.087	1592.851	1529.113
564.671	19.992	1591.954	1527.223
565.686	20.028	1590.797	1526.251
566.700	20.158	1589.414	1525.890
567.715	20.104	1588.102	1523.974
568.729	20.371	1587.091	1525.172
569.744	20.433	1585.342	1523.863
570.759	20.394	1584.515	1522.542
571.773	20.325	1583.808	1521.068
572.788	19.999	1583.068	1517.307
573.802	20.049	1580.474	1515.075
574.817	20.052	1577.985	1512.537
575.832	19.974	1577.237	1510.951
576.846	20.071	1576.710	1511.118
577.861	20.360	1575.513	1512.324
578.875	20.284	1575.795	1511.746
579.890	20.193	1573.832	1508.887
580.905	20.148	1572.570	1507.102
581.919	20.125	1572.674	1506.821
582.934	20.074	1570.846	1504.440
583.948	20.040	1570.018	1503.179
584.963	19.961	1568.481	1500.833
585.978	20.158	1567.070	1501.016
586.992	20.193	1565.976	1500.098
588.007	19.951	1565.244	1497.114
589.021	20.082	1564.544	1497.400
590.036	20.143	1562.789	1496.075
591.051	20.028	1561.066	1493.246
592.065	19.879	1559.794	1490.563
593.080	19.814	1558.069	1488.172
594.094	19.963	1556.706	1487.983
595.109	20.216	1555.350	1488.692
596.123	20.346	1554.353	1488.677
597.138	20.203	1553.340	1486.295
598.153	20.250	1551.788	1485.037
599.167	20.189	1550.312	1482.922
600.182	20.155	1549.141	1481.330
601.196	20.074	1548.637	1479.981
602.211	20.069	1547.663	1478.829
603.226	20.004	1545.320	1475.852
604.240	19.929	1544.241	1474.010
605.255	19.865	1543.130	1472.222
606.269	19.946	1542.291	1471.936
607.284	20.098	1541.175	1471.995
608.299	20.131	1539.654	1470.649
609.313	20.123	1539.223	1469.993
610.328	20.176	1537.655	1468.771
611.342	20.179	1535.953	1466.994
612.357	20.118	1534.732	1465.135
613.372	19.917	1534.261	1462.800
614.386	19.925	1532.625	1461.134
615.401	19.790	1531.861	1459.084
616.415	19.678	1531.650	1457.761
617.430	19.714	1529.610	1455.946
618.445	19.673	1528.648	1454.515
619.459	19.644	1528.659	1454.103
620.474	19.778	1527.855	1454.295
621.488	20.082	1526.761	1455.646
622.503	20.300	1524.866	1455.506
623.518	19.939	1523.567	1451.051
624.532	19.752	1521.577	1447.406
625.547	19.554	1520.996	1445.019
626.561	19.495	1519.756	1443.174
627.576	19.544	1517.913	1441.661
628.591	19.665	1517.717	1442.317
629.605	19.801	1516.819	1442.428
630.620	19.974	1515.848	1442.779
631.634	20.140	1514.246	1442.471
632.649	19.946	1513.107	1439.598
633.663	19.679	1511.803	1435.956
634.678	19.432	1510.786	1432.752
635.693	19.436	1508.222	1430.180
636.707	19.406	1506.743	1428.362
637.722	19.426	1505.822	1427.484
638.736	19.438	1505.129	1426.754
639.751	19.645	1504.801	1427.989
640.766	19.749	1502.886	1426.864
641.780	19.776	1501.629	1425.730
642.795	19.738	1501.841	1425.442
643.809	19.821	1499.911	1424.123
644.824	19.878	1499.042	1423.600
645.839	19.978	1497.988	1423.257
646.853	19.858	1496.879	1421.043
647.868	19.864	1495.735	1419.839
648.882	19.737	1494.725	1417.664
649.897	19.830	1493.621	1417.211
650.912	19.820	1491.674	1415.112
651.926	19.695	1490.252	1412.564
652.941	19.691	1489.536	1411.684
653.955	19.803	1488.290	1411.255
654.970	19.801	1487.064	1409.908
655.985	19.929	1485.637	1409.427
656.999	19.778	1484.443	1406.893
658.014	19.748	1482.341	1404.490
659.028	19.740	1481.052	1403.033
660.043	19.681	1480.519	1401.882
661.058	19.606	1479.678	1400.303
662.072	19.640	1478.732	1399.521
663.087	19.773	1477.466	1399.233
664.101	19.752	1476.767	1398.238
665.116	19.712	1475.838	1396.866
666.131	19.720	1474.407	1395.404
667.145	19.639	1473.537	1393.762
668.160	19.659	1471.911	1392.219
669.174	19.561	1469.726	1389.188
670.189	19.602	1469.544	1389.184
671.204	19.787	1468.428	1389.456
672.218	19.761	1467.324	1388.036
673.233	19.723	1466.194	1386.495
674.247	19.678	1464.388	1384.258
675.262	19.510	1463.539	1381.940
676.276	19.516	1462.927	1381.246
677.291	19.631	1462.010	1381.135
678.306	19.742	1461.007	1380.915
679.320	19.812	1459.503	1379.890
680.335	19.524	1458.890	1376.836
681.349	19.460	1458.676	1375.958
682.364	19.585	1457.149	1375.352
683.379	19.600	1455.440	1373.695
684.393	19.327	1454.824	1370.768
685.408	19.420	1453.061	1369.684
686.422	19.417	1451.614	1368.130
687.437	19.399	1451.512	1367.727
688.452	19.349	1450.159	1365.889
689.466	19.321	1448.373	1363.822
690.481	19.397	1446.988	1362.964
691.495	19.354	1447.022	1362.489
692.510	19.635	1447.124	1364.648
693.525	19.805	1445.039	1363.867
694.539	19.578	1443.486	1360.442
695.554	19.334	1442.748	1357.656
696.568	19.266	1441.103	1355.409
697.583	19.257	1440.506	1354.614
698.598	19.274	1439.407	1353.549
699.612	19.240	1437.915	1351.715
700.627	19.271	1437.041	1350.974
701.641	19.419	1436.832	1351.787
702.656	19.348	1435.607	1349.912
703.671	19.262	1434.257	1347.802
704.685	19.351	1434.080	1348.178
705.700	19.429	1432.941	1347.557
706.714	19.566	1430.852	1346.505
707.729	19.763	1428.974	1346.117
708.744	19.479	1428.224	1343.031
709.758	19.428	1427.283	1341.582
710.773	19.442	1426.835	1341.113
711.787	19.601	1425.376	1340.819
712.802	19.500	1424.074	1338.646
713.816	19.352	1423.154	1336.471
714.831	19.528	1421.612	1336.234
715.846	19.450	1420.623	1334.539
716.860	19.422	1419.202	1332.824
717.875	19.397	1418.825	1332.120
718.889	19.463	1417.675	1331.388
719.904	19.377	1416.833	1329.772
720.919	19.314	1415.461	1327.841
721.933	19.391	1414.247	1327.135
722.948	19.324	1413.159	1325.437
723.962	19.327	1412.152	1324.356
724.977	19.225	1410.984	1322.315
725.992	19.336	1409.624	1321.743
727.006	19.497	1408.720	1321.971
728.021	19.438	1406.961	1319.713
729.035	19.316	1406.263	1317.963
730.050	19.424	1405.015	1317.460
731.065	19.348	1404.378	1316.127
732.079	19.304	1403.624	1314.925
733.094	19.375	1402.363	1314.125
734.108	19.606	1400.425	1313.921
735.123	19.363	1398.998	1310.571
736.138	19.438	1398.706	1310.710
737.152	19.307	1397.401	1308.335
738.167	19.291	1396.546	1307.252
739.181	19.280	1395.573	1306.103
740.196	19.187	1394.764	1304.480
741.211	19.213	1394.573	1304.342
742.225	19.256	1392.999	1303.043
743.240	19.140	1391.068	1300.197
744.254	19.119	1389.279	1298.212
745.269	19.135	1388.750	1297.681
746.284	19.055	1388.755	1296.927
747.298	19.223	1387.341	1296.725
748.313	19.351	1386.196	1296.467
749.327	19.467	1385.747	1296.768
750.342	19.580	1385.207	1296.959
751.356	19.760	1384.441	1297.443
752.371	19.702	1382.690	1295.214
753.386	19.398	1380.909	1291.102
754.400	19.169	1380.105	1288.474
755.415	19.233	1379.084	1287.849
756.429	19.381	1377.826	1287.629
757.444	19.267	1376.552	1285.425
758.459	19.153	1376.142	1284.038
759.473	19.196	1375.172	1283.302
760.488	19.249	1373.324	1281.818
761.502	19.151	1371.851	1279.559
762.517	19.333	1371.031	1280.000
763.532	19.285	1370.007	1278.530
764.546	19.288	1369.323	1277.760
765.561	19.505	1368.827	1278.765
766.575	19.687	1368.165	1279.347
767.590	19.582	1367.232	1277.541
768.605	19.438	1365.561	1274.756
769.619	19.172	1364.115	1271.282
770.634	19.258	1362.950	1270.681
771.648	19.342	1362.003	1270.269
772.663	19.273	1360.767	1268.448
773.678	19.155	1359.612	1266.354
774.692	19.166	1359.542	1266.214
775.707	19.141	1358.667	1265.067
776.721	19.229	1357.592	1264.558
777.736	19.159	1356.212	1262.611
778.751	19.265	1355.549	1262.619
779.765	19.223	1354.242	1260.940
780.780	19.174	1353.496	1259.736
781.794	19.089	1353.110	1258.600
782.809	19.027	1351.872	1256.844
783.824	18.951	1350.787	1255.128
784.838	18.999	1349.373	1254.013
785.853	19.327	1348.571	1255.519
786.867	19.177	1348.320	1254.038
787.882	19.011	1347.137	1251.577
788.897	19.106	1345.787	1250.863
789.911	18.998	1344.759	1248.974
790.926	19.007	1343.571	1247.787
791.940	19.009	1342.366	1246.530
792.955	19.054	1340.960	1245.407
793.969	18.992	1339.516	1243.460
794.984	18.976	1339.296	1242.991
795.999	19.086	1337.828	1242.284
797.013	19.101	1336.817	1241.301
798.028	18.941	1335.504	1238.773
799.042	19.188	1334.585	1239.561
800.057	19.065	1333.315	1237.346
801.072	19.015	1331.840	1235.466
802.086	19.171	1330.535	1235.233
803.101	19.153	1330.174	1234.617
804.115	19.003	1329.096	1232.390
805.130	19.180	1327.708	1232.233
806.145	19.150	1326.757	1230.987
807.159	19.139	1326.206	1230.246
808.174	19.045	1324.808	1228.132
809.188	19.259	1323.028	1227.867
810.203	19.320	1321.564	1226.797
811.218	19.165	1320.204	1224.280
812.232	19.142	1320.013	1223.793
813.247	19.275	1318.829	1223.498
814.261	19.172	1318.322	1222.146
815.276	19.286	1316.086	1220.738
816.291	19.220	1314.655	1218.794
817.305	19.255	1314.258	1218.530
818.320	19.097	1313.072	1216.161
819.334	18.948	1312.445	1214.376
820.349	19.094	1311.023	1213.950
821.364	19.002	1309.806	1212.026
822.378	18.943	1307.785	1209.593
823.393	19.148	1305.983	1209.232
824.407	19.057	1305.145	1207.671
825.422	18.956	1304.746	1206.442
826.437	18.895	1304.018	1205.194
827.451	19.010	1301.836	1203.846
828.466	19.199	1300.250	1203.558
829.480	19.346	1298.773	1203.078
830.495	19.002	1297.154	1199.030
831.509	18.938	1296.559	1197.887
832.524	18.882	1295.970	1196.804
833.539	19.013	1294.406	1196.133
834.553	19.074	1292.974	1195.095
835.568	19.008	1292.381	1193.943
836.582	18.915	1291.542	1192.374
837.597	19.177	1290.021	1192.650
838.612	19.185	1288.428	1191.094
839.626	19.189	1287.673	1190.279
840.641	19.267	1286.910	1189.972
841.655	19.439	1286.374	1190.526
842.670	19.372	1285.779	1189.370
843.685	19.534	1284.756	1189.402
844.699	19.320	1282.776	1185.951
845.714	19.368	1281.860	1185.293
846.728	19.218	1280.652	1182.996
847.743	19.290	1279.129	1181.947
848.758	19.303	1277.770	1180.637
849.772	19.032	1276.705	1177.647
850.787	18.970	1275.200	1175.691
851.801	19.178	1274.025	1175.897
852.816	19.026	1273.198	1173.951
853.831	18.931	1272.107	1172.155
854.845	19.048	1270.031	1170.901
855.860	18.816	1268.185	1167.471
856.874	19.002	1267.596	1168.061
857.889	19.043	1266.441	1167.133
858.904	19.109	1265.392	1166.483
859.918	19.336	1263.827	1166.443
860.933	19.329	1262.902	1165.403
861.947	19.197	1261.972	1163.508
862.962	19.075	1260.540	1161.220
863.977	19.032	1259.363	1159.707
864.991	18.902	1259.133	1158.474
866.006	18.969	1258.640	1158.336
867.020	19.163	1256.315	1157.366
868.035	18.985	1255.684	1155.448
869.049	19.236	1254.539	1155.950
870.064	19.044	1253.666	1153.708
871.079	19.174	1252.678	1153.536
872.093	19.148	1252.739	1153.284
873.108	19.279	1250.925	1152.352
874.122	19.286	1250.443	1151.817
875.137	19.355	1250.277	1151.989
876.152	19.454	1249.447	1151.750
877.166	19.543	1247.113	1150.060
878.181	19.530	1245.473	1148.322
879.195	19.238	1244.981	1145.777
880.210	19.293	1244.409	1145.487
881.225	19.197	1243.318	1143.700
882.239	19.256	1242.299	1143.019
883.254	19.203	1241.368	1141.677
884.268	19.262	1240.539	1141.171
885.283	19.145	1239.357	1139.165
886.298	19.141	1237.586	1137.379
887.312	19.169	1236.833	1136.732
888.327	19.186	1235.675	1135.647
889.341	19.104	1234.407	1133.800
890.356	18.938	1234.060	1132.248
891.371	19.008	1233.884	1132.414
892.385	19.175	1232.937	1132.512
893.400	19.029	1231.970	1130.524
894.414	19.167	1230.302	1129.772
895.429	19.216	1228.984	1128.750
896.444	19.630	1227.774	1130.222
897.458	19.551	1227.188	1129.027
898.473	19.376	1226.300	1126.931
899.487	19.274	1225.285	1125.190
900.502	19.180	1224.353	1123.586
901.517	19.056	1222.940	1121.341
902.531	19.169	1221.423	1120.558
903.546	19.261	1221.173	1120.796
904.560	19.352	1220.387	1120.532
905.575	19.314	1219.390	1119.236
906.589	19.417	1218.288	1118.762
907.604	19.246	1218.033	1117.279
