DTS Sentinel unit serial number:	SN409020Multiplexer serial number:	ORYXHardware model number:	OX4-SRSoftware version number:	ORYX F/W v3.00 Oryx Data Collector v3.7.2.0data status	okinstallation	HaddamTimeLapsedifferential loss correction	single-endedforward channel	channel 3reverse channel	N/Adate	2011/06/21time	20:11:17forward acquisition time	30.00reverse acquisition time	0.00gamma	498.7831k internal	0.1783k external	0.1783temperature offset calibration	1.0074default loss term (dB/km)	0.3790temperature slope calibration	1.3530multiplexer offset coefficient	1.0000multiplexer slope coefficient	1.0000fibre end	0.00T internal ref (°C)	31.56T ext. ref 1 (°C)	23.09T ext. ref 2 (°C)	0.02length (m)	temperature (°C)	Stokes	anti-Stokes-747.200	144.037	-0.138	-0.241
-746.185	-41.632	0.231	0.154
-745.171	-58.260	0.140	-0.079
-744.156	-62.544	0.129	0.070
-743.142	258.356	-0.132	-0.297
-742.127	316.138	0.192	0.476
-741.112	168.203	0.223	-0.416
-740.098	-80.889	0.277	0.119
-739.083	79.631	0.200	-0.280
-738.069	-200.000	-0.009	0.395
-737.054	-55.714	0.371	0.216
-736.039	-102.844	-0.467	0.144
-735.025	14.924	0.120	0.122
-734.010	-113.578	0.048	0.012
-732.996	-200.000	-0.027	0.405
-731.981	84.651	0.409	0.585
-730.966	-106.635	-0.338	0.098
-729.952	-200.000	0.020	-0.266
-728.937	-22.667	-0.096	-0.075
-727.923	47.453	-0.207	-0.252
-726.908	-93.382	-0.347	-0.125
-725.894	-200.000	0.380	0.002
-724.879	-59.656	-0.241	-0.134
-723.864	636.091	-0.071	0.238
-722.850	89.688	0.159	0.231
-721.835	188.042	-0.190	-0.371
-720.821	-132.727	-0.258	0.043
-719.806	168.380	-0.248	-0.462
-718.791	-200.000	0.030	-0.236
-717.777	800.000	0.142	0.590
-716.762	389.306	-0.177	-0.479
-715.748	40.092	-0.051	0.059
-714.733	-19.949	0.216	-0.174
-713.718	-200.000	0.009	-0.092
-712.704	800.000	-0.021	-0.098
-711.689	20.525	0.353	-0.372
-710.675	-161.391	0.497	0.033
-709.660	-200.000	-0.050	0.308
-708.645	2.105	0.288	0.270
-707.631	-185.257	0.104	-0.002
-706.616	303.189	-0.170	-0.412
-705.602	-200.000	0.034	-0.303
-704.587	130.202	-0.298	-0.499
-703.572	18.854	0.107	-0.112
-702.558	56.528	0.175	-0.222
-701.543	-38.764	-0.144	0.099
-700.529	178.779	0.286	-0.546
-699.514	-117.442	0.335	0.078
-698.499	800.000	-0.059	0.300
-697.485	-200.000	0.019	-0.515
-696.470	-135.147	0.347	0.054
-695.456	107.453	0.283	0.440
-694.441	3.926	0.273	0.260
-693.426	89.060	-0.034	0.050
-692.412	-154.968	-0.383	-0.032
-691.397	-119.298	0.447	0.101
-690.383	15.946	-0.180	-0.184
-689.368	-38.473	-0.573	-0.394
-688.354	707.645	0.208	-0.718
-687.339	-90.823	-0.465	-0.174
-686.324	-128.210	0.279	-0.051
-685.310	-130.054	-0.087	-0.015
-684.295	19.024	0.174	0.182
-683.281	-96.470	0.390	-0.133
-682.266	-92.613	0.201	-0.073
-681.251	175.398	0.236	0.447
-680.237	-182.975	0.305	0.007
-679.222	-136.117	0.272	-0.041
-678.208	48.067	-0.224	0.273
-677.193	-66.633	0.170	0.088
-676.178	-100.960	0.279	0.089
-675.164	-52.531	-0.333	0.200
-674.149	39.504	-0.496	0.578
-673.135	-200.000	-0.043	0.350
-672.120	-32.275	0.422	0.306
-671.105	-135.759	0.403	-0.061
-670.091	-70.072	0.274	0.135
-669.076	68.010	-0.124	-0.165
-668.062	-200.000	0.021	0.138
-667.047	623.172	0.082	-0.271
-666.032	109.130	-0.315	0.492
-665.018	-143.104	-0.133	0.017
-664.003	-26.380	0.202	0.154
-662.989	24.854	-0.196	-0.212
-661.974	-56.156	-0.100	-0.058
-660.959	-180.457	-0.215	0.006
-659.945	17.533	-0.327	-0.338
-658.930	-200.000	-0.006	-0.124
-657.916	65.761	-0.119	-0.157
-656.901	-59.553	0.468	-0.260
-655.886	252.710	-0.316	-0.703
-654.872	311.339	-0.112	0.274
-653.857	-200.000	0.027	0.436
-652.843	24.880	-0.148	-0.160
-651.828	-26.100	0.395	-0.301
-650.814	-81.693	0.037	-0.016
-649.799	-6.059	-0.161	-0.143
-648.784	-90.379	0.012	-0.005
-647.770	-91.604	-0.291	-0.107
-646.755	800.000	-0.134	-0.537
-645.741	-200.000	0.012	0.188
-644.726	-29.533	-0.170	-0.126
-643.711	800.000	0.038	0.162
-642.697	112.054	-0.136	-0.214
-641.682	601.501	0.037	-0.121
-640.668	-21.347	-0.195	0.155
-639.653	-83.219	-0.294	-0.122
-638.638	-60.928	-0.422	-0.231
-637.624	-144.940	0.251	-0.029
-636.609	-58.876	-0.335	0.187
-635.595	191.268	0.150	-0.294
-634.580	-78.350	-0.048	0.021
-633.565	172.841	-0.272	0.509
-632.551	-34.201	0.252	0.179
-631.536	-43.490	-0.371	-0.243
-630.522	-35.081	-0.380	0.269
-629.507	68.775	0.123	0.165
-628.492	377.207	0.087	-0.232
-627.478	-138.727	-0.281	-0.039
-626.463	765.829	0.097	-0.345
-625.449	243.693	-0.090	-0.196
-624.434	-119.498	-0.196	-0.044
-623.419	191.811	0.183	-0.359
-622.405	-72.934	0.277	-0.132
-621.390	-27.311	0.016	0.012
-620.376	75.302	0.375	-0.515
-619.361	-126.884	0.166	-0.031
-618.346	-99.422	0.189	-0.062
-617.332	-83.811	-0.167	-0.069
-616.317	-73.074	0.347	0.164
-615.303	-112.985	0.279	0.071
-614.288	-87.070	-0.445	-0.175
-613.273	-193.639	-0.186	0.002
-612.259	356.937	-0.116	0.302
-611.244	-33.429	-0.519	-0.371
-610.230	-37.253	-0.259	0.179
-609.215	250.849	-0.097	0.215
-608.201	16.918	-0.047	0.048
-607.186	-174.512	-0.310	-0.011
-606.171	-155.069	0.484	-0.041
-605.157	-95.551	-0.246	-0.085
-604.142	-103.709	0.235	-0.071
-603.128	381.044	-0.082	0.219
-602.113	14.947	-0.280	0.284
-601.098	-47.470	-0.337	-0.212
-600.084	29.905	-0.017	0.019
-599.069	-104.309	0.514	-0.154
-598.055	-62.106	0.164	-0.089
-597.040	-135.086	0.423	-0.065
-596.025	-0.711	-0.226	0.207
-595.011	91.667	0.276	-0.403
-593.996	-49.687	-0.261	0.160
-592.982	800.000	0.014	0.068
-591.967	32.106	0.090	0.101
-590.952	-20.477	-0.239	0.190
-589.938	-148.669	-0.219	-0.023
-588.923	56.057	0.057	-0.071
-587.909	-27.329	0.059	0.045
-586.894	-200.000	-0.069	0.525
-585.879	-19.757	0.327	0.261
-584.865	-40.465	0.244	-0.164
-583.850	714.103	-0.122	0.423
-582.836	-160.546	-0.236	-0.016
-581.821	-38.558	0.172	0.118
-580.806	-164.639	0.574	0.033
-579.792	31.646	-0.256	0.285
-578.777	-156.364	-0.545	-0.044
-577.763	-200.000	-0.057	0.513
-576.748	-200.000	0.007	0.193
-575.733	-74.427	-0.322	0.150
-574.719	-153.391	0.022	-0.002
-573.704	-106.727	0.143	0.041
-572.690	14.452	-0.218	0.220
-571.675	-200.000	0.009	0.137
-570.661	-134.942	0.789	-0.122
-569.646	-26.505	-0.156	-0.118
-568.631	800.000	0.103	0.416
-567.617	-25.897	0.508	-0.387
-566.602	-200.000	0.065	0.514
-565.588	267.181	-0.113	0.258
-564.573	-200.000	-0.005	0.282
-563.558	47.025	-0.015	0.018
-562.544	-43.704	-0.053	-0.034
-561.529	284.063	-0.109	-0.255
-560.515	-119.666	-0.117	-0.026
-559.500	-106.467	-0.278	-0.080
-558.485	-11.523	-0.204	-0.173
-557.471	-65.262	0.321	0.167
-556.456	105.829	-0.237	0.364
-555.442	-50.744	0.481	-0.293
-554.427	44.154	-0.110	-0.131
-553.412	-59.516	-0.476	-0.264
-552.398	22.408	-0.297	0.315
-551.383	-200.000	-0.005	-0.664
-550.369	-141.309	0.377	-0.049
-549.354	800.000	-0.126	-0.511
-548.339	-163.279	-0.220	-0.013
-547.325	463.238	0.073	-0.213
-546.310	396.599	-0.123	0.335
-545.296	105.110	-0.225	-0.344
-544.281	74.381	0.110	0.149
-543.266	55.747	-0.317	0.398
-542.252	400.248	0.242	0.659
-541.237	-28.636	-0.235	0.175
-540.223	-46.333	0.062	-0.039
-539.208	-69.844	0.177	-0.087
-538.193	-46.801	-0.401	-0.253
-537.179	175.275	-0.220	-0.414
-536.164	-57.285	-0.340	-0.193
-535.150	466.780	-0.064	-0.188
-534.135	-79.133	0.495	-0.217
-533.121	800.000	0.052	-0.226
-532.106	-162.154	-0.280	-0.018
-531.091	-58.615	0.410	-0.229
-530.077	137.351	0.158	0.268
-529.062	-200.000	0.004	0.064
-528.048	-33.645	0.057	-0.041
-527.033	49.637	0.108	0.132
-526.018	-200.000	-0.045	0.318
-525.004	-58.477	-0.197	-0.110
-523.989	-44.176	0.180	-0.116
-522.975	485.202	0.041	0.121
-521.960	196.468	-0.342	-0.676
-520.945	-200.000	0.015	-0.262
-519.931	225.290	0.163	-0.342
-518.916	-144.082	-0.188	0.022
-517.902	-111.428	-0.108	0.028
-516.887	-178.370	-0.398	-0.012
-515.872	-92.260	0.437	0.158
-514.858	-79.491	-0.117	-0.051
-513.843	-200.000	-0.002	0.256
-512.829	227.879	-0.210	-0.444
-511.814	-200.000	-0.003	0.330
-510.799	-141.321	0.228	0.030
-509.785	717.653	-0.058	-0.201
-508.770	-120.128	0.256	0.056
-507.756	-26.248	0.256	-0.194
-506.741	213.096	-0.155	0.317
-505.726	800.000	-0.046	0.253
-504.712	2.117	-0.209	-0.195
-503.697	-153.562	0.274	-0.024
-502.683	489.725	0.053	0.159
-501.668	-200.000	-0.004	0.163
-500.653	-57.269	-0.084	0.048
-499.639	-11.421	-0.121	-0.103
-498.624	273.873	-0.009	0.020
-497.610	117.257	0.247	-0.393
-496.595	-1.062	0.204	-0.187
-495.581	-7.079	-0.283	-0.248
-494.566	-130.818	0.250	0.043
-493.551	29.629	0.149	0.164
-492.537	743.151	0.092	0.321
-491.522	-45.324	0.083	-0.053
-490.508	-200.000	-0.039	-0.243
-489.493	-22.375	-0.359	0.281
-488.478	-109.727	0.547	-0.147
-487.464	113.693	0.323	-0.507
-486.449	-200.000	0.013	0.172
-485.435	97.632	0.304	0.452
-484.420	-105.801	0.290	-0.084
-483.405	-46.082	-0.294	-0.186
-482.391	-11.628	-0.254	0.215
-481.376	-120.125	-0.485	0.106
-480.362	607.589	-0.089	-0.287
-479.347	-54.782	-0.351	0.204
-478.332	-90.928	-0.302	0.112
-477.318	-87.057	0.269	0.105
-476.303	157.033	-0.125	0.224
-475.289	-176.436	-0.372	0.012
-474.274	-121.081	0.346	0.074
-473.259	566.760	-0.078	-0.245
-472.245	160.663	0.160	0.290
-471.230	-72.069	-0.257	0.123
-470.216	168.532	-0.133	0.245
-469.201	-12.209	0.099	0.084
-468.186	94.236	-0.038	-0.055
-467.172	800.000	-0.063	-0.343
-466.157	-64.946	-0.244	0.127
-465.143	-200.000	-0.059	-0.384
-464.128	-73.360	0.489	0.230
-463.113	227.166	0.085	-0.179
-462.099	-165.183	0.432	0.024
-461.084	-200.000	0.016	-0.208
-460.070	-200.000	0.006	-0.184
-459.055	-86.404	0.311	-0.123
-458.040	181.084	0.136	-0.259
-457.026	-100.414	-0.341	-0.108
-456.011	4.000	-0.104	-0.098
-454.997	-17.428	-0.287	-0.233
-453.982	176.461	-0.271	0.510
-452.968	117.742	-0.094	0.150
-451.953	302.299	-0.146	-0.349
-450.938	127.778	0.409	-0.672
-449.924	-150.190	-0.427	-0.042
-448.909	-15.212	-0.119	-0.098
-447.895	203.795	0.158	0.316
-446.880	-97.331	-0.247	0.083
-445.865	66.338	0.150	-0.196
-444.851	22.122	-0.114	-0.120
-443.836	683.971	-0.133	-0.451
-442.822	-200.000	0.046	0.306
-441.807	-200.000	-0.004	-0.253
-440.792	-150.451	-0.170	-0.017
-439.778	-188.215	0.282	0.005
-438.763	-147.594	-0.155	-0.017
-437.749	341.673	0.085	-0.215
-436.734	216.951	-0.183	-0.377
-435.719	-176.111	-0.417	-0.014
-434.705	25.255	0.066	-0.071
-433.690	-49.133	0.179	0.110
-432.676	-39.032	-0.224	0.151
-431.661	-124.691	0.281	0.056
-430.646	800.000	0.072	0.260
-429.632	-139.711	-0.120	-0.016
-428.617	80.716	-0.176	-0.244
-427.603	342.020	-0.062	0.158
-426.588	-136.261	0.263	-0.039
-425.573	10.563	0.438	0.430
-424.559	631.612	-0.100	0.329
-423.544	143.344	-0.234	0.403
-422.530	39.893	0.202	0.234
-421.515	-46.596	0.345	-0.217
-420.500	177.654	-0.145	0.273
-419.486	-108.541	0.366	-0.101
-418.471	-16.007	0.412	-0.337
-417.457	17.783	0.231	0.237
-416.442	428.399	0.158	-0.441
-415.428	-87.920	-0.455	-0.175
-414.413	-139.415	-0.442	0.060
-413.398	-97.448	-0.442	-0.147
-412.384	-90.232	0.306	-0.114
-411.369	200.532	0.221	-0.438
-410.355	800.000	0.023	-0.123
-409.340	-80.672	0.206	-0.088
-408.325	-83.150	0.470	0.194
-407.311	500.779	0.097	-0.289
-406.296	101.943	0.209	-0.314
-405.282	-18.954	-0.357	-0.286
-404.267	170.713	0.348	-0.644
-403.252	800.000	-0.063	0.255
-402.238	-168.781	-0.230	-0.011
-401.223	800.000	0.117	-0.526
-400.209	219.489	0.209	-0.433
-399.194	-163.811	0.132	0.008
-398.179	46.136	0.364	-0.435
-397.165	-182.991	0.596	-0.013
-396.150	-96.936	0.280	-0.094
-395.136	-50.068	0.672	-0.409
-394.121	-200.000	0.018	-0.553
-393.106	-109.813	0.156	0.042
-392.092	88.784	0.095	-0.136
-391.077	248.978	-0.084	-0.185
-390.063	-56.009	-0.360	-0.206
-389.048	-88.816	-0.234	0.089
-388.033	-200.000	-0.015	0.294
-387.019	-18.416	-0.027	-0.021
-386.004	-181.156	-0.178	0.004
-384.990	57.184	-0.183	-0.229
-383.975	-81.661	-0.128	0.054
-382.960	-121.201	0.562	-0.120
-381.946	19.159	-0.047	-0.049
-380.931	-200.000	0.017	0.359
-379.917	52.481	0.211	0.259
-378.902	-64.251	-0.270	0.141
-377.888	-137.970	0.238	-0.034
-376.873	48.263	0.130	0.157
-375.858	17.395	0.155	0.158
-374.844	-137.671	0.373	0.053
-373.829	55.189	-0.145	-0.181
-372.815	22.285	-0.415	0.436
-371.800	-117.655	-0.273	-0.063
-370.785	735.853	0.028	0.097
-369.771	-47.392	0.204	-0.127
-368.756	-200.000	-0.017	0.345
-367.742	-200.000	0.025	0.523
-366.727	-92.958	0.263	0.094
-365.712	800.000	0.041	0.156
-364.698	-200.000	0.001	0.172
-363.683	26.002	-0.281	-0.301
-362.669	-129.395	0.229	0.040
-361.654	-77.345	0.316	0.140
-360.639	-200.000	-0.029	-0.284
-359.625	800.000	0.120	0.454
-358.610	-106.326	-0.304	0.087
-357.596	191.243	0.140	-0.272
-356.581	247.975	-0.208	-0.454
-355.566	20.534	0.355	-0.369
-354.552	-107.490	-0.345	-0.096
-353.537	77.520	-0.151	-0.207
-352.523	206.978	-0.110	0.221
-351.508	21.341	0.251	0.262
-350.493	466.924	0.144	-0.416
-349.479	298.485	-0.148	-0.352
-348.464	-68.172	-0.249	-0.124
-347.450	260.933	0.093	-0.207
-346.435	444.544	0.072	0.203
-345.420	138.563	-0.387	-0.654
-344.406	800.000	-0.172	-0.633
-343.391	183.644	0.324	0.618
-342.377	-34.411	0.017	-0.012
-341.362	-200.000	0.043	0.318
-340.348	157.445	0.180	-0.321
-339.333	-38.928	-0.537	-0.362
-338.318	-78.876	-0.302	0.132
-337.304	-185.668	0.163	-0.003
-336.289	-109.128	0.269	0.073
-335.275	-200.000	-0.025	-0.278
-334.260	4.121	0.143	0.134
-333.245	92.355	-0.298	0.432
-332.231	-129.104	-0.305	0.054
-331.216	-200.000	0.053	0.000
-330.202	281.522	-0.121	0.279
-329.187	204.816	0.299	0.598
-328.172	-12.725	0.145	0.121
-327.158	-7.369	-0.263	0.229
-326.143	-200.000	-0.002	-0.328
-325.129	-132.967	0.406	-0.066
-324.114	-135.807	-0.074	-0.011
-323.099	-200.000	0.005	-0.152
-322.085	-46.607	0.249	-0.156
-321.070	1.163	0.346	0.319
-320.056	-200.000	-0.029	0.513
-319.041	-200.000	0.034	0.380
-318.026	115.361	0.244	0.383
-317.012	-128.628	0.369	-0.066
-315.997	800.000	0.058	-0.214
-314.983	-31.184	-0.180	0.130
-313.968	800.000	0.070	0.276
-312.953	-52.750	-0.274	-0.162
-311.939	-82.538	-0.426	0.176
-310.924	-61.835	-0.237	0.127
-309.910	80.515	-0.096	0.133
-308.895	-200.000	0.073	-0.510
-307.880	-185.696	0.161	-0.003
-306.866	-66.150	0.090	-0.046
-305.851	96.145	0.204	0.299
-304.837	-186.348	0.107	-0.002
-303.822	-200.000	0.080	0.455
-302.807	-3.196	-0.013	0.012
-301.793	720.678	0.171	0.586
-300.778	188.690	0.258	0.497
-299.764	-200.000	0.062	0.452
-298.749	123.154	0.134	-0.216
-297.735	193.437	-0.099	-0.192
-296.720	-169.630	-0.258	-0.012
-295.705	-4.427	-0.072	0.064
-294.691	91.998	0.226	0.326
-293.676	212.925	-0.088	0.179
-292.662	461.255	-0.110	-0.315
-291.647	-200.000	-0.008	-0.216
-290.632	-39.078	-0.116	0.078
-289.618	-200.000	-0.003	0.040
-288.603	-116.156	-0.220	0.052
-287.589	258.676	0.118	-0.262
-286.574	-61.239	0.175	0.094
-285.559	-143.921	0.380	-0.045
-284.545	-73.157	-0.181	-0.085
-283.530	-24.002	-0.479	-0.366
-282.516	800.000	-0.073	-0.411
-281.501	60.813	0.035	-0.044
-280.486	118.511	-0.087	0.138
-279.472	-77.436	0.441	-0.195
-278.457	203.812	0.080	-0.159
-277.443	34.610	0.251	-0.281
-276.428	-154.088	-0.309	-0.026
-275.413	68.471	-0.209	-0.274
-274.399	-97.096	0.365	-0.122
-273.384	204.554	0.182	-0.362
-272.370	-200.000	-0.109	0.786
-271.355	-200.000	-0.007	0.465
-270.340	95.088	-0.104	0.151
-269.326	-200.000	0.003	-0.140
-268.311	148.426	0.072	-0.124
-267.297	-34.352	0.329	-0.230
-266.282	-29.713	-0.422	0.308
-265.267	-109.177	-0.127	0.034
-264.253	235.437	-0.158	-0.336
-263.238	-164.903	0.311	-0.018
-262.224	210.151	0.067	0.135
-261.209	91.689	-0.319	0.459
-260.195	90.290	-0.346	0.496
-259.180	-77.622	0.288	0.127
-258.165	-52.669	0.702	-0.414
-257.151	-147.482	-0.380	-0.041
-256.136	-200.000	-0.000	0.072
-255.122	-124.801	-0.160	0.031
-254.107	-89.210	0.298	0.112
-253.092	12.824	0.289	0.285
-252.078	553.313	0.170	0.525
-251.063	-46.962	-0.546	0.340
-250.049	-3.846	0.266	0.236
-249.034	433.105	0.143	0.399
-248.019	79.982	-0.167	-0.230
-247.005	-84.470	0.122	-0.049
-245.990	-70.575	0.156	0.075
-244.976	-133.813	-0.139	0.022
-243.961	-123.354	0.213	0.043
-242.946	269.524	0.117	0.263
-241.932	-50.955	0.565	0.338
-240.917	-70.541	0.283	0.136
-239.903	-93.004	-0.440	0.156
-238.888	-53.610	-0.351	-0.205
-237.873	-200.000	-0.015	0.135
-236.859	-30.803	-0.393	0.283
-235.844	-57.050	-0.303	-0.171
-234.830	800.000	-0.156	0.555
-233.815	-128.250	0.423	-0.077
-232.800	-200.000	-0.000	-0.012
-231.786	-200.000	-0.004	0.144
-230.771	54.139	0.567	-0.699
-229.757	54.284	0.383	-0.472
-228.742	-84.655	-0.386	0.155
-227.727	800.000	0.108	-0.437
-226.713	-99.256	0.441	-0.142
-225.698	5.761	-0.083	-0.079
-224.684	-122.940	0.399	-0.081
-223.669	-47.253	0.138	-0.085
-222.655	-55.691	0.591	0.337
-221.640	438.171	-0.058	0.162
-220.625	8.667	-0.272	0.261
-219.611	41.611	-0.174	0.201
-218.596	72.165	0.169	-0.225
-217.582	-177.142	0.590	0.018
-216.567	46.756	0.219	0.260
-215.552	204.989	0.098	-0.195
-214.538	59.648	0.218	-0.276
-213.523	72.456	0.110	-0.147
-212.509	-131.085	-0.499	-0.084
-211.494	-118.360	-0.259	0.058
-210.479	-80.280	0.204	0.087
-209.465	-127.758	-0.607	0.111
-208.450	96.867	-0.227	0.333
-207.436	17.146	-0.341	0.345
-206.421	31.458	0.469	-0.515
-205.406	-54.117	-0.329	-0.191
-204.392	681.708	-0.033	-0.112
-203.377	-200.000	0.023	-0.192
-202.363	-153.720	-0.470	-0.041
-201.348	314.231	-0.085	0.204
-200.333	200.836	0.024	0.047
-199.319	-200.000	-0.029	0.178
-198.304	-39.355	0.333	0.223
-197.290	-26.712	0.378	0.282
-196.275	-44.731	-0.354	-0.225
-195.260	-200.000	-0.046	-0.328
-194.246	8.574	-0.278	-0.267
-193.231	338.899	0.098	0.244
-192.217	-147.156	-0.726	0.078
-191.202	329.190	-0.169	-0.417
-190.187	-75.591	-0.435	0.197
-189.173	158.646	-0.038	0.068
-188.158	-14.096	0.190	0.157
-187.144	-104.822	-0.351	-0.102
-186.129	113.304	-0.132	0.205
-185.114	663.782	-0.161	-0.534
-184.100	-172.353	-0.377	-0.015
-183.085	800.000	0.139	0.563
-182.071	658.965	0.107	-0.354
-181.056	-62.965	-0.256	0.135
-180.042	-158.496	0.232	0.017
-179.027	-200.000	0.145	0.000
-178.012	87.583	-0.218	-0.308
-176.998	-114.978	-0.331	0.080
-175.983	-73.397	0.390	-0.181
-174.969	-24.999	-0.126	0.095
-173.954	109.382	0.075	-0.115
-172.939	-134.289	0.244	0.038
-171.925	-122.316	-0.422	0.087
-170.910	-127.024	0.272	-0.051
-169.896	374.495	0.023	-0.059
-168.881	-155.051	0.384	-0.032
-167.866	367.851	-0.044	-0.115
-166.852	295.341	-0.242	0.566
-165.837	-103.074	0.346	0.104
-164.823	736.103	0.104	0.356
-163.808	-159.043	-0.602	-0.043
-162.793	-200.000	-0.003	-0.164
-161.779	-26.890	-0.405	0.301
-160.764	106.709	0.167	-0.253
-159.750	-89.036	-0.278	-0.105
-158.735	40.966	-0.201	0.231
-157.720	-179.020	0.301	0.008
-156.706	429.957	0.119	0.330
-155.691	6.723	0.384	0.364
-154.677	800.000	-0.071	0.268
-153.662	50.111	0.110	0.132
-152.647	800.000	-0.044	-0.195
-151.633	-44.156	0.025	0.016
-150.618	-129.098	0.582	0.103
-149.604	-120.919	-0.096	-0.020
-148.589	208.112	-0.094	0.188
-147.574	-131.600	-0.126	-0.021
-146.560	-129.798	0.116	-0.020
-145.545	261.543	-0.145	0.321
-144.531	-24.455	-0.232	0.176
-143.516	70.636	-0.053	-0.071
-142.502	51.317	-0.253	-0.307
-141.487	13.543	0.100	-0.098
-140.472	18.674	0.072	-0.073
-139.458	12.420	-0.255	0.251
-138.443	800.000	0.037	0.148
-137.429	-89.634	-0.285	-0.106
-136.414	-15.807	-0.211	0.171
-135.399	-151.972	-0.491	0.045
-134.385	58.864	0.247	0.310
-133.370	-129.267	0.348	0.061
-132.356	116.736	-0.135	-0.211
-131.341	-0.242	0.401	-0.363
-130.326	-132.103	0.107	-0.018
-129.312	-95.155	-0.260	0.089
-128.297	-200.000	0.020	0.537
-127.283	172.481	-0.154	0.283
-126.268	321.117	-0.116	-0.282
-125.253	51.158	-0.187	-0.226
-124.239	-184.439	0.128	-0.003
-123.224	126.971	-0.219	-0.354
-122.210	-122.893	-0.144	0.029
-121.195	-50.337	0.175	-0.105
-120.180	711.947	-0.185	-0.627
-119.166	-119.558	-0.392	0.086
-118.151	612.389	-0.118	0.377
-117.137	-200.000	-0.062	-0.426
-116.122	58.336	-0.238	0.297
-115.107	-19.087	-0.101	0.080
-114.093	513.859	0.177	-0.530
-113.078	-200.000	-0.027	-0.551
-112.064	-121.187	-0.281	-0.059
-111.049	-111.472	-0.361	0.093
-110.034	215.227	-0.087	-0.177
-109.020	-23.340	0.030	-0.023
-108.005	-13.465	0.221	0.182
-106.991	-200.000	0.094	-0.549
-105.976	-74.577	-0.094	0.043
-104.962	112.053	-0.106	-0.163
-103.947	452.632	-0.147	-0.415
-102.932	-110.223	-0.212	0.056
-101.918	-49.118	0.527	-0.320
-100.903	-29.798	0.049	0.036
-99.889	26.404	-0.213	-0.226
-98.874	26.365	-0.262	-0.279
-97.859	-200.000	-0.031	-0.290
-96.845	800.000	0.072	-0.313
-95.830	33.019	-0.223	0.246
-94.816	81.988	0.153	-0.211
-93.801	164.256	-0.155	0.279
-92.786	-20.077	-0.109	-0.086
-91.772	-181.580	0.461	-0.011
-90.757	279.009	0.178	0.405
-89.743	173.069	0.180	0.331
-88.728	-200.000	-0.035	0.333
-87.713	-5.186	0.501	-0.438
-86.699	-89.604	-0.138	0.051
-85.684	44.107	-0.189	0.220
-84.670	198.711	-0.044	-0.086
-83.655	-53.214	0.283	0.165
-82.640	96.696	0.475	0.693
-81.626	510.074	-0.112	-0.333
-80.611	95.764	-0.334	-0.486
-79.597	-131.113	-0.290	0.049
-78.582	-136.670	0.437	0.063
-77.567	39.340	0.176	0.200
-76.553	-80.959	0.197	-0.083
-75.538	-200.000	-0.014	0.497
-74.524	208.791	-0.062	-0.124
-73.509	1.877	-0.516	0.472
-72.494	-70.329	-0.398	-0.191
-71.480	-109.312	0.178	-0.048
-70.465	-147.544	0.357	0.038
-69.451	-33.791	0.205	-0.144
-68.436	-85.847	-0.259	0.101
-67.422	-117.955	-0.547	-0.123
-66.407	-68.161	0.163	-0.080
-65.392	40.533	-0.051	-0.059
-64.378	10.153	0.409	0.394
-63.363	-115.502	0.331	0.079
-62.349	-71.487	-0.332	0.157
-61.334	-18.233	-1.615	-1.282
-60.319	53.480	0.835	1.018
-59.305	191.478	-3.243	-6.222
-58.290	37.932	3.345	3.778
-57.276	394.971	3.900	10.376
-56.261	-200.000	19.190	262.629
-55.246	410.042	1230.648	3328.323
-54.232	56.224	2858.387	3528.547
-53.217	59.539	2732.210	3423.931
-52.203	37.498	2461.598	2773.403
-51.188	37.528	2117.204	2385.666
-50.173	33.636	1993.209	2200.579
-49.159	32.347	1981.271	2172.358
-48.144	32.035	1976.964	2163.929
-47.130	31.984	1974.582	2160.648
-46.115	32.011	1973.526	2159.724
-45.100	31.921	1972.369	2157.328
-44.086	31.880	1970.764	2155.007
-43.071	31.849	1968.998	2152.643
-42.057	31.882	1967.346	2151.123
-41.042	31.921	1966.532	2150.596
-40.027	31.803	1964.915	2147.390
-39.013	31.796	1963.716	2145.917
-37.998	31.721	1962.775	2143.936
-36.984	31.645	1961.596	2141.684
-35.969	31.736	1959.925	2140.824
-34.954	31.563	1959.630	2138.428
-33.940	31.751	1956.216	2136.774
-32.925	31.730	1955.843	2136.040
-31.911	31.607	1955.163	2133.809
-30.896	31.675	1953.023	2132.167
-29.881	31.713	1951.874	2131.260
-28.867	31.727	1950.417	2129.742
-27.852	31.660	1948.953	2127.293
-26.838	31.603	1947.954	2125.473
-25.823	31.704	1945.840	2124.236
-24.809	31.614	1944.835	2122.021
-23.794	31.615	1943.833	2120.862
-22.779	31.643	1942.412	2119.539
-21.765	31.611	1941.083	2117.650
-20.750	31.605	1939.305	2115.550
-19.736	31.495	1938.435	2113.269
-18.721	31.482	1937.799	2112.341
-17.706	31.521	1935.750	2110.468
-16.692	31.594	1934.999	2110.394
-15.677	31.548	1933.676	2108.349
-14.663	31.422	1932.645	2105.718
-13.648	31.394	1931.015	2103.531
-12.633	31.357	1929.331	2101.197
-11.619	31.471	1927.642	2100.565
-10.604	31.391	1925.903	2097.688
-9.590	31.415	1924.768	2096.641
-8.575	31.348	1924.377	2095.371
-7.560	31.391	1922.697	2093.946
-6.546	31.427	1922.081	2093.594
-5.531	31.362	1920.934	2091.534
-4.517	31.370	1919.598	2090.079
-3.502	31.385	1919.106	2089.637
-2.487	31.576	1916.761	2089.140
-1.473	31.481	1913.754	2084.715
-0.458	30.972	1892.500	2055.836
0.556	25.828	2029.666	2130.969
1.571	23.583	2242.223	2324.327
2.586	24.649	2286.376	2384.115
3.600	24.491	2290.123	2385.616
4.615	24.776	2288.798	2387.772
5.629	24.521	2286.935	2382.123
6.644	24.654	2284.877	2381.472
7.659	24.663	2282.688	2379.033
8.673	24.884	2281.858	2380.842
9.688	24.439	2287.905	2380.896
10.702	22.291	2363.936	2429.934
11.717	19.639	2428.364	2457.977
12.731	9.671	2404.094	2291.330
13.746	1.466	2381.666	2153.190
14.761	0.275	2377.563	2132.279
15.775	0.126	2376.434	2128.890
16.790	0.062	2374.183	2125.708
17.804	0.146	2372.868	2125.480
18.819	0.106	2371.044	2123.016
19.834	0.083	2369.587	2121.130
20.848	0.114	2367.895	2119.808
21.863	0.180	2365.427	2118.271
22.877	0.007	2364.900	2115.106
23.892	-0.024	2363.099	2112.797
24.907	0.069	2360.456	2111.496
25.921	0.037	2359.098	2109.577
26.936	0.103	2356.776	2108.183
27.950	0.051	2353.876	2104.601
28.965	0.198	2350.607	2103.486
29.980	0.102	2349.893	2101.249
30.994	0.142	2348.521	2100.331
32.009	4.912	2363.422	2180.626
33.023	16.035	2396.380	2368.680
34.038	20.242	2404.166	2435.599
35.053	20.369	2400.340	2433.222
36.067	20.419	2397.999	2431.262
37.082	20.449	2396.895	2430.263
38.096	20.421	2395.679	2428.345
39.111	20.623	2392.572	2427.745
40.126	20.669	2389.203	2424.676
41.140	20.764	2388.168	2424.672
42.155	20.745	2387.541	2423.483
43.169	20.797	2384.624	2420.947
44.184	20.633	2382.767	2416.494
45.199	20.574	2380.422	2412.999
46.213	20.636	2378.785	2411.911
47.228	20.668	2378.022	2411.292
48.242	20.692	2375.866	2409.156
49.257	20.743	2374.239	2407.928
50.271	20.773	2371.731	2405.506
51.286	20.628	2368.139	2399.574
52.301	20.305	2366.707	2393.360
53.315	21.254	2370.455	2410.022
54.330	23.960	2377.774	2454.765
55.344	25.735	2378.603	2479.933
56.359	25.960	2376.456	2480.512
57.374	26.037	2374.726	2479.468
58.388	26.182	2371.884	2478.204
59.403	25.997	2367.214	2470.477
60.417	25.547	2364.252	2460.903
61.432	25.712	2361.359	2459.864
62.447	25.732	2360.608	2459.056
63.461	25.862	2358.248	2458.086
64.476	26.001	2356.378	2457.759
65.490	25.852	2355.178	2454.172
66.505	25.112	2350.922	2439.326
67.520	23.229	2343.043	2405.164
68.534	21.194	2335.541	2369.446
69.549	20.487	2330.353	2354.282
70.563	20.264	2327.204	2347.776
71.578	20.007	2326.407	2343.196
72.593	20.183	2323.971	2342.851
73.607	20.321	2322.959	2343.432
74.622	20.416	2320.548	2342.003
75.636	20.263	2317.635	2336.713
76.651	20.228	2315.853	2334.159
77.666	20.204	2314.146	2331.841
78.680	20.158	2311.125	2327.892
79.695	20.107	2307.968	2323.750
80.709	19.978	2306.218	2319.978
81.724	20.006	2304.747	2318.598
82.739	20.001	2301.812	2315.300
83.753	20.087	2300.194	2314.538
84.768	19.899	2299.700	2311.245
85.782	19.980	2298.050	2310.404
86.797	20.011	2295.483	2307.950
87.812	20.042	2293.231	2305.827
88.826	19.981	2292.412	2303.912
89.841	20.109	2289.868	2302.799
90.855	20.213	2286.440	2300.450
91.870	20.111	2285.353	2297.723
92.884	20.187	2283.625	2296.725
93.899	20.085	2283.509	2294.974
94.914	20.645	2285.935	2304.604
95.928	22.983	2293.106	2342.740
96.943	23.981	2291.825	2354.444
97.957	21.886	2281.090	2315.372
98.972	20.158	2275.401	2286.430
99.987	20.103	2271.730	2281.735
101.001	20.144	2268.139	2278.404
102.016	20.127	2266.395	2276.146
103.030	20.042	2263.963	2272.314
104.045	20.036	2261.204	2269.202
105.060	20.076	2259.455	2267.695
106.074	20.197	2257.276	2266.828
107.089	20.200	2256.558	2265.874
108.103	19.995	2256.590	2262.935
109.118	20.050	2253.906	2260.697
110.133	20.255	2251.835	2261.045
111.147	20.058	2250.599	2256.946
112.162	20.157	2249.253	2256.627
113.176	20.254	2246.662	2255.022
114.191	20.293	2245.260	2253.847
115.206	20.286	2243.844	2252.071
116.220	20.263	2241.681	2249.331
117.235	20.243	2240.949	2248.072
118.249	20.414	2237.572	2246.634
119.264	20.212	2236.296	2242.460
120.279	20.249	2234.666	2241.041
121.293	20.194	2233.536	2238.926
122.308	20.301	2231.168	2237.669
123.322	20.184	2230.283	2234.989
124.337	20.475	2231.146	2239.365
125.352	22.998	2238.504	2279.227
126.366	24.041	2237.479	2291.407
127.381	21.547	2226.388	2247.632
128.395	20.446	2220.500	2227.235
129.410	20.301	2218.378	2222.978
130.424	20.241	2216.613	2220.167
131.439	20.267	2216.032	2219.652
132.454	20.372	2213.280	2217.980
133.468	20.380	2212.014	2216.547
134.483	20.545	2210.604	2216.989
135.497	20.592	2208.721	2215.428
136.512	20.366	2206.506	2210.050
137.527	20.325	2204.283	2207.042
138.541	20.219	2203.489	2204.623
139.556	20.199	2202.532	2203.145
140.570	20.153	2200.297	2200.064
141.585	20.052	2197.774	2195.985
142.600	20.022	2196.707	2194.274
143.614	19.890	2194.687	2190.322
144.629	20.000	2193.055	2189.833
145.643	19.921	2191.322	2186.835
146.658	19.993	2189.503	2185.668
147.673	19.973	2187.035	2182.686
148.687	19.830	2186.818	2180.404
149.702	20.072	2185.009	2181.403
150.716	20.014	2184.173	2179.570
151.731	20.063	2182.945	2178.700
152.746	20.114	2181.790	2177.936
153.760	20.724	2185.155	2188.746
154.775	23.266	2191.430	2226.941
155.789	24.329	2190.228	2238.883
156.804	21.911	2180.211	2197.967
157.819	20.286	2172.015	2169.036
158.833	20.045	2168.856	2162.599
159.848	19.946	2167.406	2159.656
160.862	20.040	2166.207	2159.384
161.877	20.252	2164.486	2160.062
162.892	20.249	2164.098	2159.374
163.906	20.218	2162.949	2157.581
164.921	20.218	2160.354	2154.739
165.935	20.056	2159.124	2151.230
166.950	20.207	2157.471	2151.213
167.964	20.284	2154.625	2149.066
168.979	20.141	2152.885	2145.301
169.994	19.969	2151.832	2141.860
171.008	19.881	2149.952	2138.635
172.023	19.945	2148.473	2137.700
173.037	20.177	2147.301	2139.154
174.052	20.245	2146.018	2138.467
175.067	20.184	2144.352	2135.795
176.081	20.154	2142.662	2133.481
177.096	20.230	2142.183	2133.691
178.110	20.331	2139.908	2132.420
179.125	20.299	2139.350	2131.205
180.140	20.214	2137.417	2127.976
181.154	20.350	2136.463	2128.454
182.169	20.550	2134.980	2129.185
183.183	21.163	2136.914	2138.403
184.198	23.837	2144.187	2178.414
185.213	24.461	2141.571	2183.177
186.227	21.692	2132.487	2139.705
187.242	20.411	2128.565	2119.807
188.256	20.294	2125.647	2115.219
189.271	20.081	2124.317	2111.028
190.286	20.092	2121.877	2108.485
191.300	20.086	2119.197	2105.499
192.315	20.172	2117.170	2104.281
193.329	20.375	2116.189	2105.536
194.344	20.391	2116.124	2105.411
195.359	20.620	2114.584	2106.411
196.373	20.418	2112.804	2101.930
197.388	20.220	2109.367	2095.850
198.402	20.249	2106.817	2093.429
199.417	20.275	2104.760	2091.448
200.432	20.207	2103.138	2088.754
201.446	20.014	2102.888	2085.921
202.461	20.072	2101.226	2084.725
203.475	19.979	2099.099	2081.244
204.490	19.920	2097.316	2078.518
205.504	20.139	2094.925	2078.538
206.519	20.038	2093.172	2075.326
207.534	20.061	2091.333	2073.541
208.548	19.980	2090.089	2071.078
209.563	20.105	2088.430	2070.686
210.577	20.085	2088.059	2069.832
211.592	20.200	2086.587	2069.506
212.607	21.219	2090.938	2085.820
213.621	24.101	2097.615	2126.879
214.636	23.953	2092.818	2119.986
215.650	21.341	2083.617	2079.230
216.665	20.396	2078.901	2062.995
217.680	20.230	2077.203	2059.081
218.694	20.015	2075.589	2054.665
219.709	19.940	2074.011	2051.969
220.723	20.156	2072.826	2053.117
221.738	20.221	2071.189	2052.020
222.753	20.337	2068.918	2050.905
223.767	20.279	2067.768	2048.838
224.782	20.287	2065.730	2046.659
225.796	20.247	2064.617	2044.842
226.811	20.250	2062.493	2042.527
227.826	20.269	2061.110	2041.143
228.840	20.081	2060.071	2037.643
229.855	20.091	2059.176	2036.638
230.869	20.202	2056.551	2035.101
231.884	20.258	2055.001	2033.983
232.899	20.252	2054.406	2033.083
233.913	20.199	2052.927	2030.755
234.928	20.187	2052.034	2029.480
235.942	20.177	2049.923	2027.030
236.957	20.267	2048.028	2025.973
237.972	20.166	2047.683	2024.212
238.986	20.199	2045.879	2022.574
240.001	20.027	2043.953	2018.412
241.015	20.115	2043.197	2018.454
242.030	20.896	2044.676	2028.818
243.045	23.492	2050.864	2065.140
244.059	24.254	2048.059	2070.972
245.074	21.644	2038.958	2031.140
246.088	20.513	2035.570	2014.351
247.103	20.547	2033.136	2012.095
248.117	20.622	2032.156	2011.753
249.132	20.322	2030.005	2005.901
250.147	20.171	2027.551	2001.482
251.161	20.193	2025.873	1999.842
252.176	20.327	2024.805	2000.107
253.190	20.285	2023.070	1997.660
254.205	20.227	2020.257	1993.974
255.220	20.299	2018.613	1992.948
256.234	20.187	2017.695	1990.508
257.249	20.071	2017.979	1989.207
258.263	20.025	2016.805	1987.281
259.278	20.184	2014.845	1986.944
260.293	20.122	2013.289	1984.461
261.307	20.127	2010.995	1982.022
262.322	20.124	2009.540	1980.317
263.336	20.108	2007.842	1978.218
264.351	20.022	2006.580	1975.758
265.366	19.915	2004.849	1972.586
266.380	20.053	2004.061	1973.158
267.395	20.069	2002.646	1971.714
268.409	19.923	2001.405	1968.579
269.424	20.093	1999.308	1968.226
270.439	20.078	1998.444	1966.971
271.453	21.022	2001.533	1980.557
272.468	23.829	2006.201	2017.001
273.482	24.064	2002.892	2016.110
274.497	21.519	1993.337	1977.379
275.512	20.202	1989.262	1958.168
276.526	20.113	1986.678	1954.385
277.541	19.997	1984.933	1951.121
278.555	20.007	1982.558	1948.657
279.570	19.932	1981.231	1946.281
280.585	20.059	1980.263	1946.532
281.599	20.075	1979.513	1945.734
282.614	20.288	1977.871	1946.292
283.628	20.464	1977.341	1947.519
284.643	20.486	1976.781	1946.986
285.657	20.402	1975.067	1944.112
286.672	20.553	1973.007	1943.555
287.687	20.451	1971.089	1940.286
288.701	20.312	1969.857	1937.284
289.716	20.377	1968.409	1936.357
290.730	20.479	1966.468	1935.353
291.745	20.525	1965.268	1934.461
292.760	20.385	1964.587	1931.990
293.774	20.139	1964.113	1928.542
294.789	20.057	1962.392	1925.703
295.803	20.237	1959.464	1924.609
296.818	20.275	1958.986	1924.336
297.833	20.317	1957.912	1923.520
298.847	20.245	1956.006	1920.609
299.862	20.415	1954.025	1920.323
300.876	20.984	1956.392	1928.757
301.891	23.700	1963.414	1965.707
302.906	24.432	1960.197	1970.378
303.920	21.685	1951.895	1931.402
304.935	20.489	1947.518	1913.603
305.949	20.373	1944.578	1909.206
306.964	20.248	1943.652	1906.686
307.979	20.276	1940.897	1904.060
308.993	20.178	1939.881	1901.759
310.008	20.348	1938.522	1902.074
311.022	20.443	1936.833	1901.229
312.037	20.269	1935.881	1898.157
313.052	20.285	1933.846	1896.116
314.066	20.209	1932.696	1893.924
315.081	20.410	1931.300	1894.532
316.095	20.367	1929.301	1891.870
317.110	20.014	1927.727	1886.240
318.125	19.851	1926.261	1882.793
319.139	19.811	1925.629	1881.517
320.154	19.990	1924.014	1881.669
321.168	19.972	1922.444	1879.710
322.183	19.950	1921.136	1877.970
323.197	20.065	1920.711	1878.578
324.212	19.922	1918.895	1875.026
325.227	20.082	1916.219	1873.927
326.241	19.984	1914.835	1871.281
327.256	20.032	1913.316	1870.094
328.270	20.152	1912.121	1869.998
329.285	19.941	1912.470	1867.833
330.300	20.739	1916.773	1880.480
331.314	23.798	1921.778	1918.415
332.329	24.130	1916.967	1916.977
333.343	21.342	1907.481	1877.207
334.358	20.138	1903.384	1859.972
335.373	20.004	1901.766	1856.719
336.387	19.910	1900.045	1853.805
337.402	19.947	1898.480	1852.459
338.416	20.085	1897.247	1852.515
339.431	20.155	1896.372	1852.185
340.446	20.150	1894.073	1849.670
341.460	20.136	1892.821	1848.070
342.475	20.359	1891.095	1848.556
343.489	20.134	1889.070	1843.950
344.504	20.097	1888.882	1843.148
345.519	20.093	1887.372	1841.412
346.533	20.241	1885.239	1840.690
347.548	20.273	1884.439	1840.029
348.562	20.161	1883.281	1837.487
349.577	20.328	1882.785	1838.563
350.592	20.440	1882.042	1838.810
351.606	20.392	1880.666	1836.728
352.621	20.428	1878.129	1834.412
353.635	20.124	1877.341	1830.199
354.650	20.035	1876.067	1827.798
355.665	20.157	1874.596	1827.440
356.679	20.332	1872.622	1827.146
357.694	20.332	1871.383	1825.714
358.708	20.229	1870.967	1824.009
359.723	21.278	1873.767	1837.607
360.738	24.063	1879.772	1872.777
361.752	24.031	1875.068	1867.522
362.767	21.458	1867.141	1832.351
363.781	20.540	1863.095	1818.516
364.796	20.360	1860.824	1814.188
365.810	20.209	1860.261	1811.835
366.825	20.233	1858.466	1810.120
367.840	20.088	1857.874	1807.812
368.854	19.929	1856.610	1804.701
369.869	19.907	1854.803	1802.496
370.883	20.074	1853.255	1802.518
371.898	20.185	1852.674	1802.899
372.913	20.217	1849.986	1800.399
373.927	20.194	1847.911	1797.931
374.942	19.978	1847.987	1795.535
375.956	20.143	1847.722	1796.780
376.971	20.284	1844.296	1794.707
377.986	20.248	1842.576	1792.444
379.000	20.165	1842.235	1791.028
380.015	20.187	1841.147	1789.988
381.029	20.120	1839.698	1787.672
382.044	20.116	1837.148	1784.940
383.059	20.029	1835.668	1782.381
384.073	20.099	1834.733	1781.983
385.088	20.105	1834.130	1781.247
386.102	20.075	1832.208	1778.864
387.117	20.064	1831.001	1777.359
388.132	20.040	1830.274	1776.192
389.146	20.837	1834.193	1788.016
390.161	23.791	1838.281	1822.280
391.175	23.887	1833.206	1818.023
392.190	21.247	1824.134	1781.773
393.205	20.402	1820.320	1769.186
394.219	20.161	1819.087	1765.313
395.234	20.080	1818.364	1763.573
396.248	20.118	1816.317	1761.765
397.263	20.116	1814.165	1759.446
398.278	20.176	1812.366	1758.100
399.292	20.162	1811.596	1757.000
400.307	20.037	1811.086	1755.017
401.321	20.121	1809.478	1754.109
402.336	20.160	1807.969	1752.826
403.350	20.237	1805.584	1751.089
404.365	20.361	1804.888	1751.464
405.380	20.314	1803.517	1749.448
406.394	20.327	1801.953	1747.854
407.409	20.231	1801.337	1746.074
408.423	20.396	1799.403	1745.655
409.438	20.333	1798.520	1743.960
410.453	20.242	1797.293	1741.642
411.467	20.346	1796.058	1741.286
412.482	20.261	1794.234	1738.445
413.496	20.183	1793.185	1736.441
414.511	20.245	1792.012	1735.724
415.526	20.417	1789.328	1734.642
416.540	20.290	1787.646	1731.525
417.555	20.270	1787.381	1730.863
418.569	20.515	1787.996	1733.708
419.584	20.503	1787.062	1732.476
420.599	20.358	1787.133	1730.884
421.613	20.277	1784.622	1727.431
422.628	20.318	1783.135	1726.199
423.642	20.176	1781.299	1722.795
424.657	20.085	1779.644	1720.081
425.672	20.303	1778.174	1720.628
426.686	20.351	1777.561	1720.302
427.701	20.314	1776.508	1718.716
428.715	20.597	1775.150	1720.010
429.730	20.717	1773.888	1719.770
430.745	20.548	1772.707	1716.745
431.759	20.695	1772.004	1717.317
432.774	20.933	1772.950	1720.386
433.788	21.264	1771.767	1722.313
434.803	21.270	1771.140	1721.559
435.818	21.171	1770.183	1719.442
436.832	21.156	1770.645	1719.536
437.847	20.501	1763.395	1705.827
438.861	12.287	1739.495	1602.242
439.876	2.317	1721.142	1487.997
440.890	0.262	1716.847	1464.047
441.905	0.191	1715.359	1461.912
442.920	0.150	1713.994	1460.170
443.934	0.112	1712.904	1458.696
444.949	0.164	1711.132	1457.522
445.963	0.175	1709.543	1456.105
446.978	0.204	1709.523	1456.193
447.993	0.143	1708.535	1454.587
449.007	0.050	1706.652	1451.904
450.022	0.193	1704.096	1450.944
451.036	0.220	1703.114	1450.194
452.051	1.134	1707.905	1462.966
453.066	10.527	1729.414	1573.137
454.080	19.824	1744.150	1677.382
455.095	22.271	1749.662	1706.381
456.109	23.844	1752.688	1724.474
457.124	24.307	1752.589	1728.685
458.139	24.370	1751.073	1727.600
459.153	24.259	1750.489	1725.729
460.168	24.286	1748.353	1723.686
461.182	24.159	1746.930	1720.844
462.197	24.373	1744.829	1720.642
463.212	24.055	1742.427	1714.990
464.226	24.146	1741.413	1714.663
465.241	24.414	1741.546	1717.182
466.255	24.784	1740.163	1719.185
467.270	24.927	1738.864	1719.079
468.285	24.370	1737.296	1711.950
469.299	24.254	1735.464	1708.822
470.314	24.557	1734.288	1710.382
471.328	24.628	1732.549	1709.139
472.343	24.562	1732.068	1707.825
473.358	24.590	1730.732	1706.578
474.372	24.733	1729.877	1706.898
475.387	24.491	1728.770	1703.283
476.401	24.502	1726.222	1700.670
477.416	24.444	1725.121	1698.828
478.430	24.590	1724.901	1699.803
479.445	24.470	1723.270	1696.852
480.460	24.107	1721.700	1691.634
481.474	24.290	1720.445	1691.943
482.489	24.889	1720.015	1697.030
483.503	25.164	1718.694	1698.144
484.518	25.248	1717.250	1697.307
485.533	25.213	1715.827	1695.368
486.547	25.211	1714.715	1694.043
487.562	25.484	1715.006	1696.718
488.576	25.508	1713.132	1694.891
489.591	25.413	1711.038	1691.720
490.606	25.190	1709.482	1687.866
491.620	25.248	1708.153	1686.903
492.635	25.514	1707.319	1688.390
493.649	25.687	1705.867	1688.384
494.664	25.054	1702.987	1679.374
495.679	24.146	1701.136	1668.792
496.693	24.403	1699.939	1669.838
497.708	24.820	1699.879	1673.507
498.722	25.376	1700.143	1678.786
499.737	25.567	1697.901	1678.163
500.752	25.210	1695.879	1672.622
501.766	24.783	1694.757	1667.317
502.781	25.057	1692.107	1667.072
503.795	25.071	1690.874	1665.786
504.810	25.140	1689.719	1665.097
505.825	25.335	1690.002	1666.991
506.839	25.294	1688.416	1664.844
507.854	25.137	1687.429	1662.209
508.868	25.184	1685.536	1660.583
509.883	25.143	1684.148	1658.637
510.898	25.263	1683.250	1658.673
511.912	25.167	1680.573	1654.944
512.927	24.721	1678.614	1648.687
513.941	24.624	1677.232	1646.233
514.956	24.678	1676.233	1645.551
515.971	24.919	1675.335	1646.699
516.985	25.029	1673.945	1646.158
518.000	25.006	1673.817	1645.620
519.014	25.212	1673.429	1646.940
520.029	25.416	1671.497	1646.724
521.043	25.235	1670.237	1643.614
522.058	25.123	1668.914	1641.094
523.073	25.335	1668.557	1642.495
524.087	25.825	1668.145	1646.396
525.102	25.694	1666.951	1643.817
526.116	25.157	1664.590	1636.366
527.131	25.074	1663.716	1634.546
528.146	25.603	1663.834	1639.322
529.160	25.995	1662.285	1641.182
530.175	25.922	1661.452	1639.499
531.189	26.236	1660.005	1640.738
532.204	26.374	1659.325	1641.126
533.219	25.744	1657.041	1632.935
534.233	25.020	1656.027	1625.141
535.248	25.381	1655.690	1627.901
536.262	26.216	1655.080	1634.710
537.277	26.183	1653.858	1633.008
538.292	26.065	1651.276	1629.188
539.306	25.913	1649.334	1625.701
540.321	25.788	1648.307	1623.362
541.335	25.565	1646.913	1619.775
542.350	25.949	1645.716	1621.875
543.365	26.253	1644.839	1623.564
544.379	26.429	1644.112	1624.245
545.394	26.418	1642.968	1622.817
546.408	25.876	1640.096	1614.904
547.423	25.230	1637.540	1606.387
548.438	24.932	1636.252	1602.254
549.452	25.464	1636.257	1606.845
550.467	25.655	1635.824	1607.946
551.481	25.706	1635.025	1607.425
552.496	26.020	1635.373	1610.389
553.511	26.459	1634.200	1612.982
554.525	26.418	1632.258	1610.503
555.540	26.371	1632.451	1610.082
556.554	26.498	1630.150	1608.750
557.569	26.312	1628.146	1604.922
558.583	26.063	1626.275	1600.665
559.598	25.992	1624.983	1598.572
560.613	25.861	1624.839	1597.070
561.627	26.047	1623.163	1596.888
562.642	26.071	1622.396	1596.157
563.656	26.401	1621.532	1598.042
564.671	26.378	1619.717	1595.862
565.686	26.238	1618.170	1592.905
566.700	25.905	1616.034	1587.668
567.715	25.692	1614.831	1584.412
568.729	25.650	1612.859	1581.915
569.744	25.526	1610.778	1578.586
570.759	25.864	1609.282	1579.910
571.773	25.803	1609.330	1579.233
572.788	26.019	1609.372	1580.986
573.802	25.876	1607.960	1578.154
574.817	26.116	1605.861	1578.015
575.832	26.392	1605.293	1579.692
576.846	26.491	1604.307	1579.400
577.861	26.209	1602.742	1575.198
578.875	26.376	1602.883	1576.612
579.890	26.745	1602.252	1579.034
580.905	26.911	1600.764	1578.833
581.919	26.947	1601.185	1579.371
582.934	27.069	1600.501	1579.576
583.948	27.134	1598.745	1578.217
584.963	26.929	1596.488	1574.015
585.978	26.556	1594.393	1568.512
586.992	26.581	1594.568	1568.716
588.007	26.938	1593.779	1570.857
589.021	26.391	1591.071	1563.250
590.036	25.541	1588.909	1553.556
591.051	26.134	1589.809	1559.408
592.065	26.907	1587.226	1563.385
593.080	27.190	1586.433	1564.861
594.094	27.268	1584.985	1563.923
595.109	26.366	1582.484	1553.483
596.123	25.793	1580.525	1546.432
597.138	26.301	1581.197	1551.281
598.153	26.665	1579.657	1552.728
599.167	26.664	1578.156	1551.055
600.182	26.673	1578.086	1550.881
601.196	26.804	1576.942	1550.697
602.211	26.858	1575.370	1549.429
603.226	26.959	1574.695	1549.444
604.240	27.210	1573.548	1550.279
605.255	27.361	1572.249	1550.113
606.269	27.300	1571.614	1548.773
607.284	27.204	1570.059	1546.235
608.299	27.247	1568.537	1544.917
609.313	26.994	1567.121	1541.178
610.328	26.986	1565.270	1539.106
611.342	27.113	1564.854	1539.599
612.357	27.126	1563.909	1538.595
613.372	27.245	1562.160	1537.703
614.386	27.014	1561.064	1534.475
615.401	26.977	1561.010	1533.922
616.415	27.056	1560.091	1533.513
617.430	26.991	1559.590	1532.279
618.445	27.125	1557.652	1531.325
619.459	26.762	1556.241	1526.686
620.474	26.490	1554.224	1522.220
621.488	26.158	1551.857	1516.923
622.503	25.874	1550.891	1513.402
623.518	26.424	1551.178	1518.136
624.532	26.746	1550.748	1520.253
625.547	26.881	1549.678	1520.156
626.561	27.028	1549.538	1521.074
627.576	27.206	1548.429	1521.302
628.591	26.821	1545.956	1515.457
629.605	26.821	1543.673	1513.040
630.620	26.704	1542.139	1510.373
631.634	26.264	1541.518	1505.900
632.649	26.572	1540.405	1507.210
633.663	26.925	1539.552	1509.148
634.678	26.993	1539.209	1509.197
635.693	27.243	1538.014	1509.929
636.707	27.337	1535.871	1508.426
637.722	27.348	1536.360	1508.820
638.736	27.512	1535.180	1508.845
639.751	27.754	1533.759	1509.284
640.766	27.741	1531.533	1506.807
641.780	27.613	1530.081	1504.131
642.795	27.733	1529.326	1504.203
643.809	27.685	1529.924	1504.217
644.824	27.699	1529.205	1503.440
645.839	27.688	1527.539	1501.532
646.853	27.778	1526.546	1501.125
647.868	27.739	1525.025	1499.125
648.882	27.530	1523.305	1495.530
649.897	27.503	1522.462	1494.305
650.912	27.551	1521.040	1493.126
651.926	27.739	1519.449	1492.929
652.941	27.352	1518.310	1488.450
653.955	26.774	1515.175	1480.453
654.970	26.239	1512.382	1473.168
655.985	26.177	1511.011	1471.150
656.999	26.254	1509.845	1470.468
658.014	26.583	1510.397	1473.520
659.028	27.147	1510.455	1478.009
660.043	27.552	1509.754	1480.457
661.058	27.713	1508.554	1480.417
662.072	27.689	1508.219	1479.711
663.087	27.485	1506.734	1476.422
664.101	27.419	1505.207	1474.204
665.116	27.693	1504.212	1475.289
666.131	27.745	1503.127	1474.469
667.145	27.776	1502.164	1473.595
668.160	28.022	1500.968	1474.241
669.174	28.135	1500.041	1474.072
670.189	28.160	1499.122	1473.190
671.204	27.741	1498.560	1469.072
672.218	27.796	1497.591	1468.392
673.233	28.025	1496.095	1468.604
674.247	28.281	1495.514	1469.916
675.262	28.493	1493.907	1469.874
676.276	28.254	1492.526	1466.411
677.291	28.094	1492.042	1464.472
678.306	27.956	1490.039	1461.223
679.320	27.735	1488.991	1458.248
680.335	27.677	1488.966	1457.584
681.349	27.912	1488.448	1458.790
682.364	27.980	1486.490	1457.239
683.379	27.913	1485.410	1455.467
684.393	27.761	1483.271	1451.985
685.408	28.005	1482.347	1452.855
686.422	27.781	1480.843	1449.415
687.437	27.637	1480.935	1448.185
688.452	27.679	1480.394	1447.817
689.466	27.539	1478.792	1444.959
690.481	27.638	1476.811	1443.639
691.495	27.394	1475.110	1439.868
692.510	27.020	1473.662	1435.308
693.525	26.608	1471.780	1430.034
694.539	26.981	1470.984	1432.050
695.554	27.308	1472.055	1435.513
696.568	27.696	1470.893	1437.285
697.583	27.793	1469.850	1436.864
698.598	27.848	1469.752	1437.026
699.612	28.032	1468.669	1437.251
700.627	28.182	1466.945	1436.571
701.641	28.246	1465.880	1435.861
702.656	28.130	1465.384	1434.296
703.671	28.402	1465.575	1436.450
704.685	28.694	1464.578	1437.598
705.700	28.369	1462.047	1432.389
706.714	28.029	1460.733	1428.259
707.729	27.786	1459.624	1425.104
708.744	27.924	1458.410	1424.828
709.758	27.831	1456.209	1421.775
710.773	27.187	1454.165	1414.574
711.787	26.822	1453.070	1410.490
712.802	27.368	1452.148	1413.692
713.816	27.761	1451.988	1416.427
714.831	28.044	1451.392	1417.886
715.846	28.163	1450.368	1417.646
716.860	28.293	1449.105	1417.247
717.875	28.220	1447.700	1415.140
718.889	28.064	1446.317	1412.411
719.904	28.063	1445.525	1411.455
720.919	28.158	1444.697	1411.219
721.933	28.246	1443.647	1410.706
722.948	28.227	1443.188	1409.938
723.962	28.181	1442.093	1408.341
724.977	28.523	1440.052	1408.822
725.992	28.599	1439.891	1409.084
727.006	28.573	1438.728	1407.577
728.021	28.445	1437.548	1405.268
729.035	28.552	1436.435	1404.837
730.050	28.498	1435.112	1402.961
731.065	28.364	1434.507	1401.168
732.079	28.482	1433.341	1400.769
733.094	28.445	1431.559	1398.576
734.108	28.159	1430.615	1395.297
735.123	28.430	1428.783	1395.416
736.138	28.273	1427.865	1393.149
737.152	28.279	1426.874	1392.062
738.167	28.491	1426.451	1393.100
739.181	28.623	1425.154	1392.675
740.196	28.591	1424.623	1391.746
741.211	28.487	1423.482	1389.674
742.225	28.591	1421.740	1388.600
743.240	28.409	1420.677	1386.005
744.254	28.290	1419.188	1383.485
745.269	28.052	1418.524	1380.870
746.284	27.916	1417.268	1378.445
747.298	27.787	1415.644	1375.724
748.313	27.782	1414.331	1374.244
749.327	27.444	1413.749	1370.958
750.342	27.071	1412.267	1366.542
751.356	26.830	1410.103	1362.462
752.371	27.034	1410.037	1363.778
753.386	27.668	1409.874	1368.237
754.400	28.077	1409.372	1370.666
755.415	28.666	1408.487	1374.074
756.429	28.756	1407.148	1373.280
757.444	28.630	1405.915	1370.966
758.459	28.744	1405.172	1370.933
759.473	28.820	1403.706	1369.908
760.488	28.593	1402.542	1366.909
761.502	28.559	1401.464	1365.445
762.517	28.553	1400.420	1364.215
763.532	28.415	1399.202	1361.836
764.546	28.306	1397.055	1358.772
765.561	27.546	1394.664	1350.620
766.575	26.749	1393.182	1343.094
767.590	26.614	1392.544	1341.314
768.605	27.515	1392.934	1348.232
769.619	28.082	1392.091	1351.467
770.634	28.321	1390.780	1351.806
771.648	28.408	1390.756	1352.267
772.663	28.278	1390.621	1351.007
773.678	28.654	1389.516	1352.557
774.692	28.699	1388.478	1351.718
775.707	28.711	1388.757	1351.917
776.721	28.844	1387.360	1351.377
777.736	28.715	1386.134	1349.069
778.751	28.713	1384.984	1347.772
779.765	28.778	1383.750	1346.896
780.780	28.790	1382.940	1346.033
781.794	28.673	1382.137	1344.229
782.809	28.373	1380.524	1340.297
783.824	28.019	1378.593	1335.661
784.838	27.704	1376.290	1330.961
785.853	27.117	1376.188	1326.390
786.867	27.456	1375.354	1327.917
787.882	27.720	1375.463	1329.800
788.897	27.628	1374.219	1327.761
789.911	27.822	1372.784	1327.636
790.926	27.941	1372.153	1327.735
791.940	28.078	1371.283	1327.730
792.955	28.333	1369.524	1327.728
793.969	28.342	1369.184	1327.303
794.984	28.546	1368.298	1327.776
795.999	28.647	1367.582	1327.656
797.013	28.565	1366.110	1325.470
798.028	28.698	1364.738	1324.947
799.042	28.789	1363.788	1324.526
800.057	28.784	1362.948	1323.513
801.072	28.831	1361.255	1322.050
802.086	28.863	1359.597	1320.513
803.101	28.732	1359.166	1318.989
804.115	28.864	1357.640	1318.302
805.130	28.879	1356.752	1317.392
806.145	28.684	1355.587	1314.702
807.159	28.436	1354.293	1311.502
808.174	28.583	1353.166	1311.315
809.188	28.392	1352.318	1308.960
810.203	28.299	1350.236	1306.124
811.218	28.083	1347.996	1302.255
812.232	27.499	1346.245	1296.234
813.247	27.012	1345.469	1291.845
814.261	27.809	1345.584	1297.502
815.276	28.270	1345.915	1300.959
816.291	28.421	1345.060	1301.051
817.305	28.443	1343.754	1299.789
818.320	28.586	1342.653	1299.589
819.334	28.663	1342.055	1299.399
820.349	28.760	1340.068	1298.010
821.364	28.837	1338.805	1297.179
822.378	28.649	1337.877	1294.795
823.393	28.608	1336.322	1292.838
824.407	28.728	1334.834	1292.099
825.422	28.646	1334.302	1290.847
826.437	28.576	1332.589	1288.538
827.451	28.347	1330.400	1284.654
828.466	27.736	1328.054	1277.936
829.480	27.682	1326.187	1275.610
830.495	27.802	1324.717	1274.880
831.509	27.902	1325.410	1276.103
832.524	28.233	1325.182	1278.053
833.539	28.421	1323.919	1278.000
834.553	28.834	1322.931	1279.781
835.568	28.675	1321.537	1277.171
836.582	28.668	1320.750	1276.209
837.597	28.868	1319.494	1276.237
838.612	28.771	1317.339	1273.325
839.626	28.490	1316.516	1270.418
840.641	28.251	1315.321	1267.450
841.655	27.989	1314.103	1264.302
842.670	27.373	1311.665	1257.527
843.685	26.637	1310.160	1250.831
844.699	27.512	1310.303	1256.891
845.714	28.177	1309.830	1260.893
846.728	28.147	1309.514	1260.232
847.743	28.313	1308.663	1260.406
848.758	28.396	1307.383	1259.594
849.772	28.616	1306.553	1260.162
850.787	28.643	1305.372	1259.061
851.801	28.623	1303.961	1257.413
852.816	28.594	1302.808	1255.949
853.831	28.466	1301.319	1253.483
854.845	28.503	1299.656	1251.987
855.860	28.187	1297.983	1248.061
856.874	28.054	1296.007	1245.099
857.889	27.931	1295.167	1243.300
858.904	27.972	1293.164	1241.514
859.918	27.576	1291.428	1236.997
860.933	27.387	1290.115	1234.301
861.947	27.658	1289.234	1235.156
862.962	27.885	1288.759	1236.099
863.977	27.907	1287.396	1234.793
864.991	28.125	1287.203	1235.939
866.006	28.097	1287.420	1235.807
867.020	28.418	1285.870	1236.350
868.035	28.577	1285.002	1236.442
869.049	28.711	1284.244	1236.474
870.064	28.784	1283.016	1235.636
871.079	28.619	1282.605	1233.979
872.093	28.416	1281.773	1231.658
873.108	28.335	1280.360	1229.610
874.122	28.045	1278.468	1225.692
875.137	27.628	1277.447	1221.761
876.152	27.516	1276.757	1220.200
877.166	27.601	1274.748	1218.701
878.181	27.907	1274.209	1220.094
879.195	28.277	1273.417	1221.671
880.210	28.446	1273.156	1222.411
881.225	28.574	1272.053	1222.064
882.239	28.577	1271.124	1221.040
883.254	28.564	1270.098	1219.822
884.268	28.654	1269.366	1219.577
885.283	28.720	1267.499	1218.075
886.298	28.723	1265.887	1216.402
887.312	28.609	1265.467	1215.094
888.327	28.650	1264.375	1214.170
889.341	28.668	1263.203	1213.019
890.356	28.443	1262.382	1210.591
891.371	28.391	1262.076	1209.810
892.385	28.394	1260.799	1208.464
893.400	28.177	1259.316	1205.456
894.414	28.262	1257.840	1204.464
895.429	27.970	1255.970	1200.599
896.444	27.476	1253.796	1195.123
897.458	27.200	1252.291	1191.724
898.473	27.265	1252.380	1192.094
899.487	27.780	1252.538	1195.494
900.502	27.855	1252.137	1195.465
901.517	28.072	1250.886	1195.553
902.531	28.312	1250.106	1196.242
903.546	28.254	1249.305	1194.950
904.560	28.339	1248.566	1194.655
905.575	28.466	1247.582	1194.401
906.589	28.437	1246.192	1192.741
907.604	28.297	1245.023	1190.561
