DTS Sentinel unit serial number:	SN409020Multiplexer serial number:	ORYXHardware model number:	OX4-SRSoftware version number:	ORYX F/W v3.00 Oryx Data Collector v3.7.2.0data status	okinstallation	HaddamTimeLapsedifferential loss correction	single-endedforward channel	channel 3reverse channel	N/Adate	2011/06/22time	09:36:17forward acquisition time	30.00reverse acquisition time	0.00gamma	498.7831k internal	0.1793k external	0.1793temperature offset calibration	1.0074default loss term (dB/km)	0.3790temperature slope calibration	1.3530multiplexer offset coefficient	1.0000multiplexer slope coefficient	1.0000fibre end	0.00T internal ref (°C)	27.84T ext. ref 1 (°C)	23.12T ext. ref 2 (°C)	0.19length (m)	temperature (°C)	Stokes	anti-Stokes-747.200	-49.904	-0.284	0.175
-746.185	-47.297	-0.337	0.212
-745.171	-172.445	0.174	0.007
-744.156	371.495	-0.188	0.496
-743.142	-114.865	0.166	0.041
-742.127	-200.000	0.037	0.432
-741.112	-170.464	-0.195	0.009
-740.098	-200.000	-0.033	-0.495
-739.083	-138.933	0.105	0.015
-738.069	270.405	0.290	0.664
-737.054	-44.279	-0.281	-0.182
-736.039	209.657	-0.095	0.194
-735.025	-105.359	-0.428	0.126
-734.010	-200.000	0.082	-0.762
-732.996	-200.000	-0.028	-0.187
-731.981	765.459	-0.101	-0.359
-730.966	250.938	-0.105	-0.231
-729.952	-22.013	0.130	-0.102
-728.937	-82.231	-0.303	0.127
-727.923	496.093	0.099	-0.296
-726.908	13.001	-0.067	-0.068
-725.894	-200.000	-0.043	-0.399
-724.879	244.881	-0.223	-0.488
-723.864	44.297	-0.147	-0.175
-722.850	-166.547	-0.402	0.021
-721.835	-200.000	0.032	-0.191
-720.821	-163.628	-0.349	0.021
-719.806	331.144	-0.059	-0.148
-718.791	142.157	0.185	0.319
-717.777	49.949	-0.264	-0.323
-716.762	-200.000	-0.027	-0.170
-715.748	-29.957	0.344	0.253
-714.733	83.292	0.234	-0.331
-713.718	161.374	-0.194	-0.353
-712.704	800.000	0.113	-0.549
-711.689	-118.566	-0.155	0.035
-710.675	-43.928	-0.183	0.119
-709.660	-200.000	0.001	0.243
-708.645	-150.684	-0.633	0.062
-707.631	-139.652	-0.209	-0.028
-706.616	-200.000	0.013	0.082
-705.602	38.582	-0.219	-0.254
-704.587	-142.510	-0.092	-0.012
-703.572	-72.512	-0.212	-0.101
-702.558	-11.588	-0.175	-0.149
-701.543	-100.021	-0.340	-0.109
-700.529	-4.500	-0.279	0.249
-699.514	-52.538	0.363	0.217
-698.499	-16.065	-0.179	0.147
-697.485	-137.755	0.270	-0.039
-696.470	13.405	-0.305	-0.306
-695.456	800.000	0.060	-0.316
-694.441	-105.320	0.161	-0.047
-693.426	154.730	-0.077	-0.137
-692.412	31.305	-0.218	-0.242
-691.397	-200.000	0.005	-0.044
-690.383	-138.338	0.123	0.017
-689.368	492.178	-0.164	-0.490
-688.354	2.724	-0.013	-0.012
-687.339	-42.814	-0.219	0.144
-686.324	109.253	0.087	-0.134
-685.310	601.045	-0.009	0.028
-684.295	-146.251	-0.479	0.054
-683.281	-52.397	-0.400	-0.239
-682.266	773.845	-0.086	-0.306
-681.251	-200.000	0.001	0.027
-680.237	-43.662	0.152	-0.099
-679.222	40.905	0.197	-0.230
-678.208	-123.374	-0.255	-0.052
-677.193	25.278	-0.421	-0.452
-676.178	5.696	-0.123	-0.118
-675.164	-132.759	-0.517	-0.085
-674.149	4.871	0.333	-0.317
-673.135	-200.000	-0.018	0.111
-672.120	-136.700	0.390	0.058
-671.105	117.066	-0.099	0.158
-670.091	41.784	0.227	0.267
-669.076	21.550	0.384	-0.404
-668.062	-200.000	0.006	0.423
-667.047	-127.059	-0.302	-0.057
-666.032	-154.875	-0.466	-0.039
-665.018	-98.756	0.341	0.112
-664.003	81.876	-0.360	0.504
-662.989	-64.834	0.337	0.176
-661.974	-57.519	-0.361	-0.204
-660.959	278.967	-0.227	0.525
-659.945	-7.130	-0.095	0.083
-658.930	-200.000	-0.004	0.218
-657.916	-42.026	0.190	0.125
-656.901	800.000	0.104	-0.521
-655.886	-114.823	0.342	0.084
-654.872	800.000	-0.076	-0.330
-653.857	-124.985	-0.305	-0.060
-652.843	-123.670	-0.347	-0.070
-651.828	-93.050	-0.343	0.123
-650.814	57.204	-0.352	0.444
-649.799	70.226	0.196	0.262
-648.784	-116.933	-0.294	0.069
-647.770	-195.101	-0.089	-0.001
-646.755	-33.279	0.176	-0.126
-645.741	213.562	0.177	0.362
-644.726	-135.623	0.679	0.103
-643.711	800.000	0.041	-0.149
-642.697	-88.550	-0.214	0.082
-641.682	-42.725	0.222	-0.145
-640.668	-92.141	0.325	-0.118
-639.653	-121.084	0.282	-0.061
-638.638	455.749	-0.078	-0.224
-637.624	-97.799	-0.420	-0.139
-636.609	225.798	0.124	0.260
-635.595	69.351	0.185	-0.246
-634.580	-16.815	-0.042	-0.035
-633.565	-200.000	-0.027	-0.210
-632.551	-80.584	-0.411	-0.176
-631.536	800.000	-0.033	-0.164
-630.522	-113.493	-0.268	-0.067
-629.507	264.338	-0.135	-0.306
-628.492	260.433	0.193	0.432
-627.478	-29.095	0.350	-0.259
-626.463	-186.055	0.407	0.008
-625.449	169.489	-0.104	-0.192
-624.434	-83.698	-0.194	0.080
-623.419	-68.843	-0.388	0.193
-622.405	88.730	-0.334	0.480
-621.390	5.057	0.217	0.206
-620.376	-189.644	-0.454	-0.007
-619.361	235.212	0.069	0.148
-618.346	800.000	0.057	-0.234
-617.332	629.587	0.096	0.316
-616.317	-122.008	-0.287	-0.060
-615.303	159.039	-0.246	0.443
-614.288	800.000	-0.137	0.590
-613.273	-31.977	-0.237	-0.171
-612.259	796.800	0.066	-0.235
-611.244	375.245	0.191	0.505
-610.230	800.000	-0.062	-0.225
-609.215	2.712	-0.344	0.321
-608.201	15.098	0.178	0.180
-607.186	-200.000	-0.001	0.204
-606.171	8.987	0.553	-0.539
-605.157	-128.040	0.725	-0.133
-604.142	-200.000	-0.015	-0.431
-603.128	-200.000	-0.044	-0.300
-602.113	35.836	-0.500	0.568
-601.098	-10.613	-0.243	0.207
-600.084	-200.000	0.062	0.637
-599.069	800.000	-0.171	-0.650
-598.055	-127.683	-0.177	0.033
-597.040	-114.534	0.324	0.080
-596.025	-16.284	-0.149	-0.122
-595.011	8.047	-0.176	-0.170
-593.996	-93.084	-0.310	0.111
-592.982	-95.649	0.121	0.041
-591.967	-173.715	-0.122	0.005
-590.952	800.000	0.037	0.145
-589.938	92.541	0.255	0.372
-588.923	-47.027	0.198	-0.124
-587.909	54.949	0.202	0.252
-586.894	-161.804	0.329	-0.021
-585.879	227.282	0.037	-0.077
-584.865	800.000	0.098	0.385
-583.850	-200.000	0.023	-0.283
-582.836	-164.899	-0.305	-0.017
-581.821	14.580	-0.115	0.115
-580.806	778.575	-0.037	-0.130
-579.792	-36.455	-0.263	0.182
-578.777	-200.000	0.077	-0.474
-577.763	-15.922	0.077	-0.063
-576.748	-88.970	0.071	-0.027
-575.733	-53.002	-0.334	-0.197
-574.719	-86.930	-0.508	0.199
-573.704	-159.696	0.369	-0.026
-572.690	-200.000	-0.035	0.248
-571.675	-200.000	-0.029	-0.461
-570.661	-200.000	0.028	0.315
-569.646	-146.225	-0.490	-0.055
-568.631	-200.000	-0.021	-0.192
-567.617	329.981	-0.063	-0.157
-566.602	306.755	0.183	-0.440
-565.588	-152.536	0.430	-0.039
-564.573	800.000	0.037	-0.149
-563.558	-49.928	-0.292	-0.178
-562.544	-167.566	0.486	-0.025
-561.529	261.346	0.163	-0.366
-560.515	474.393	0.163	-0.476
-559.500	354.662	-0.086	-0.220
-558.485	-74.665	-0.235	-0.108
-557.471	173.018	0.244	-0.454
-556.456	-46.487	-0.296	0.186
-555.442	446.435	0.139	-0.396
-554.427	-200.000	0.067	-0.395
-553.412	800.000	0.051	-0.260
-552.398	-46.941	-0.289	0.181
-551.383	-16.089	-0.304	-0.249
-550.369	-200.000	-0.015	0.093
-549.354	-200.000	0.067	-0.486
-548.339	-200.000	0.052	0.327
-547.325	-53.893	-0.534	0.312
-546.310	62.580	-0.105	-0.135
-545.296	-56.735	0.162	0.092
-544.281	800.000	-0.044	0.199
-543.266	-19.604	0.211	-0.168
-542.252	-46.371	0.192	-0.121
-541.237	-43.321	0.240	-0.156
-540.223	10.269	0.185	0.181
-539.208	-88.051	0.281	0.108
-538.193	800.000	0.029	-0.135
-537.179	-43.429	-0.487	0.316
-536.164	-80.542	0.329	-0.140
-535.150	374.365	0.289	0.762
-534.135	-78.056	0.439	0.194
-533.121	177.309	0.158	-0.297
-532.106	-74.576	-0.280	0.129
-531.091	304.533	0.085	-0.204
-530.077	364.682	-0.058	0.152
-529.062	-100.803	-0.378	0.119
-528.048	3.645	-0.143	-0.134
-527.033	-33.183	-0.372	-0.265
-526.018	-170.970	-0.253	-0.011
-525.004	282.314	0.164	0.380
-523.989	-64.217	0.380	-0.198
-522.975	-2.399	-0.160	-0.144
-521.960	-85.228	0.173	0.069
-520.945	551.898	-0.057	0.178
-519.931	262.734	0.137	0.307
-518.916	-19.247	0.159	-0.127
-517.902	800.000	-0.120	0.478
-516.887	31.293	-0.047	-0.052
-515.872	-152.417	-0.191	0.017
-514.858	722.136	-0.034	0.116
-513.843	-98.133	-0.763	-0.251
-512.829	-92.178	-0.346	0.125
-511.814	426.044	0.119	0.332
-510.799	-48.083	0.332	-0.206
-509.785	-32.817	-0.374	-0.266
-508.770	-40.636	0.060	-0.040
-507.756	-200.000	0.001	0.312
-506.741	-32.251	-0.129	-0.093
-505.726	253.710	0.217	-0.478
-504.712	-56.413	0.182	0.103
-503.697	36.657	0.128	-0.146
-502.683	367.239	-0.033	0.086
-501.668	-200.000	-0.011	-0.203
-500.653	253.983	0.113	-0.249
-499.639	-200.000	0.025	-0.227
-498.624	-25.226	0.417	-0.316
-497.610	148.617	-0.215	0.375
-496.595	-71.390	-0.545	0.261
-495.581	-28.188	-0.256	0.190
-494.566	185.253	0.239	-0.457
-493.551	311.173	-0.246	-0.595
-492.537	-59.445	-0.107	0.059
-491.522	77.851	-0.132	-0.181
-490.508	-40.535	-0.406	-0.270
-489.493	800.000	-0.017	0.064
-488.478	-28.090	0.357	0.264
-487.464	-55.170	0.081	-0.047
-486.449	77.619	-0.084	0.115
-485.435	35.308	0.079	0.089
-484.420	314.154	0.111	-0.268
-483.405	-157.505	0.392	0.030
-482.391	-149.491	-0.106	0.011
-481.376	-46.452	0.047	0.029
-480.362	50.233	0.257	0.312
-479.347	71.343	-0.314	0.418
-478.332	-70.851	0.181	0.087
-477.318	125.766	0.177	-0.288
-476.303	358.343	0.186	-0.478
-475.289	52.033	0.129	-0.158
-474.274	-121.962	-0.344	-0.072
-473.259	-163.237	-0.495	-0.030
-472.245	-18.943	0.221	-0.177
-471.230	493.284	0.033	-0.098
-470.216	800.000	-0.069	0.254
-469.201	-70.291	0.185	0.090
-468.186	-140.670	-0.303	0.040
-467.172	31.491	-0.095	0.105
-466.157	82.976	-0.194	0.272
-465.143	-200.000	0.061	0.369
-464.128	-23.215	0.221	-0.170
-463.113	800.000	-0.030	-0.110
-462.099	-200.000	0.001	0.249
-461.084	647.736	0.049	-0.161
-460.070	407.616	-0.087	-0.236
-459.055	-92.814	0.098	-0.035
-458.040	-80.769	0.127	0.054
-457.026	-95.059	0.313	0.108
-456.011	-51.900	-0.094	0.056
-454.997	-31.226	-0.043	-0.031
-453.982	800.000	-0.056	0.297
-452.968	391.990	-0.213	0.569
-451.953	-200.000	-0.062	0.427
-450.938	317.910	0.022	-0.054
-449.924	800.000	0.008	0.037
-448.909	39.744	0.164	-0.189
-447.895	-200.000	0.026	-0.720
-446.880	68.579	0.279	0.367
-445.865	-192.701	0.229	0.003
-444.851	-200.000	-0.041	0.582
-443.836	-100.122	0.196	-0.062
-442.822	800.000	-0.066	-0.343
-441.807	203.521	0.129	-0.257
-440.792	-165.440	-0.187	0.010
-439.778	196.276	0.051	-0.099
-438.763	800.000	0.078	-0.442
-437.749	-200.000	0.001	0.201
-436.734	122.840	0.191	0.307
-435.719	-135.712	0.228	0.034
-434.705	441.731	-0.030	-0.086
-433.690	602.089	0.170	-0.546
-432.676	-200.000	0.020	-0.200
-431.661	-71.200	0.519	0.249
-430.646	229.140	-0.070	-0.148
-429.632	800.000	0.098	0.487
-428.617	-152.865	-0.491	-0.044
-427.603	120.797	-0.249	-0.397
-426.588	-100.266	0.304	0.096
-425.573	800.000	-0.020	0.092
-424.559	-96.286	-0.324	0.109
-423.544	-84.064	0.323	0.131
-422.530	-175.884	0.197	-0.007
-421.515	-99.353	-0.087	0.028
-420.500	-53.863	0.280	0.163
-419.486	800.000	0.121	0.497
-418.471	-200.000	-0.046	0.374
-417.457	-136.708	0.258	-0.038
-416.442	609.962	0.082	-0.262
-415.428	-200.000	-0.030	0.323
-414.413	-130.035	-0.142	-0.025
-413.398	514.855	-0.077	0.232
-412.384	-32.976	-0.247	0.175
-411.369	-73.941	0.357	-0.165
-410.355	-56.424	0.445	0.252
-409.340	-14.547	0.299	0.246
-408.325	27.941	0.638	0.688
-407.311	395.155	-0.062	0.166
-406.296	-29.793	-0.402	0.293
-405.282	-113.011	-0.300	0.075
-404.267	131.421	0.206	-0.339
-403.252	800.000	-0.058	-0.285
-402.238	186.167	-0.163	0.312
-401.223	26.738	-0.236	-0.253
-400.209	153.242	-0.210	-0.369
-399.194	72.229	-0.178	-0.238
-398.179	-90.311	-0.495	0.183
-397.165	-121.746	0.123	-0.026
-396.150	30.004	0.091	-0.099
-395.136	-61.942	-0.585	-0.312
-394.121	-83.876	-0.214	-0.087
-393.106	-29.711	0.150	-0.110
-392.092	-174.755	-0.069	0.002
-391.077	133.221	-0.037	-0.061
-390.063	800.000	0.065	-0.239
-389.048	-135.314	0.766	-0.116
-388.033	293.977	0.032	0.075
-387.019	-29.754	-0.334	-0.243
-386.004	6.901	-0.309	0.294
-384.990	103.725	0.075	0.112
-383.975	-23.806	-0.074	0.057
-382.960	-200.000	0.015	-0.119
-381.946	-73.651	0.623	0.289
-380.931	372.226	-0.087	0.226
-379.917	-31.724	0.267	0.192
-378.902	800.000	0.048	-0.186
-377.888	-105.483	-0.333	-0.096
-376.873	277.240	-0.112	-0.255
-375.858	135.511	-0.230	0.384
-374.844	-112.685	0.194	-0.049
-373.829	-48.058	-0.315	-0.194
-372.815	-5.596	0.105	-0.092
-371.800	80.437	0.140	-0.193
-370.785	-126.331	-0.110	-0.021
-369.771	499.598	0.086	-0.254
-368.756	-57.303	-0.469	0.263
-367.742	-52.794	-0.185	-0.109
-366.727	166.597	-0.226	-0.411
-365.712	-52.799	-0.202	-0.119
-364.698	93.423	0.077	0.111
-363.683	-3.345	-0.272	-0.242
-362.669	800.000	-0.077	-0.368
-361.654	-29.429	-0.254	-0.185
-360.639	-14.607	0.332	-0.273
-359.625	632.157	0.148	-0.482
-358.610	-44.645	-0.363	-0.231
-357.596	800.000	-0.113	-0.432
-356.581	105.481	0.115	0.174
-355.566	800.000	0.132	0.521
-354.552	-200.000	-0.007	0.550
-353.537	-67.956	-0.139	0.069
-352.523	124.257	-0.101	0.163
-351.508	-111.415	0.343	0.089
-350.493	800.000	0.127	-0.540
-349.479	-109.776	-0.169	0.045
-348.464	-84.426	-0.254	0.102
-347.450	-44.555	0.325	0.207
-346.435	-84.439	0.509	-0.204
-345.420	-147.359	0.134	0.014
-344.406	-131.566	-0.212	0.035
-343.391	-200.000	-0.010	-0.305
-342.377	-200.000	0.003	-0.272
-341.362	-41.266	-0.076	-0.050
-340.348	800.000	0.071	-0.357
-339.333	-124.375	0.063	-0.012
-338.318	-200.000	-0.030	-0.389
-337.304	-123.318	0.516	0.104
-336.289	-57.557	-0.434	0.242
-335.275	-200.000	-0.016	0.180
-334.260	-102.919	-0.148	0.045
-333.245	115.820	0.105	-0.164
-332.231	18.140	0.105	-0.107
-331.216	101.078	0.270	-0.402
-330.202	-118.980	-0.236	0.052
-329.187	-63.078	0.473	0.248
-328.172	20.316	0.382	-0.394
-327.158	-26.257	-0.184	-0.137
-326.143	72.623	-0.161	0.214
-325.129	-72.692	0.353	-0.166
-324.114	-142.417	0.211	0.026
-323.099	-72.315	-0.167	0.079
-322.085	203.016	-0.130	0.256
-321.070	-200.000	-0.024	-0.234
-320.056	-93.678	-0.505	0.177
-319.041	-35.654	0.171	0.118
-318.026	-161.705	0.359	-0.023
-317.012	-9.766	0.152	0.129
-315.997	40.777	-0.219	-0.252
-314.983	219.431	0.247	0.506
-313.968	-144.918	0.146	0.017
-312.953	390.034	-0.168	-0.446
-311.939	-12.075	-0.093	0.078
-310.924	205.179	-0.089	-0.178
-309.910	800.000	0.068	0.269
-308.895	-200.000	-0.051	0.407
-307.880	108.863	0.245	0.375
-306.866	-191.326	-0.400	0.005
-305.851	-104.396	0.097	-0.028
-304.837	-16.924	0.388	0.312
-303.822	-200.000	0.036	-0.410
-302.807	5.643	0.376	0.354
-301.793	-59.506	0.471	0.257
-300.778	-123.594	0.410	0.082
-299.764	-148.024	-0.458	-0.048
-298.749	35.087	0.224	-0.251
-297.735	-200.000	-0.024	0.177
-296.720	-200.000	0.019	-0.115
-295.705	-100.439	0.318	-0.100
-294.691	-144.492	-0.235	-0.027
-293.676	187.923	0.328	-0.626
-292.662	800.000	0.094	-0.422
-291.647	-75.269	-0.218	0.099
-290.632	-164.414	-0.492	-0.028
-289.618	135.118	0.192	0.319
-288.603	800.000	0.056	0.281
-287.589	493.389	0.031	0.090
-286.574	-71.547	-0.308	-0.146
-285.559	431.214	0.230	0.637
-284.545	-167.752	-0.200	-0.010
-283.530	-200.000	0.009	0.128
-282.516	-40.376	0.428	-0.283
-281.501	-3.490	-0.273	0.242
-280.486	-130.912	-0.206	0.035
-279.472	23.744	0.112	-0.118
-278.457	352.898	-0.064	-0.163
-277.443	-8.576	0.393	-0.336
-276.428	800.000	-0.046	-0.187
-275.413	-200.000	0.000	0.226
-274.399	800.000	0.126	0.513
-273.384	694.014	-0.191	0.641
-272.370	183.846	-0.175	-0.330
-271.355	93.874	0.129	-0.186
-270.340	100.961	-0.136	-0.202
-269.326	127.748	0.105	-0.169
-268.311	544.084	-0.037	-0.113
-267.297	-200.000	0.023	0.259
-266.282	39.165	-0.170	0.193
-265.267	-200.000	0.004	-0.026
-264.253	-98.258	-0.560	0.182
-263.238	-200.000	0.016	0.375
-262.224	33.736	0.184	0.204
-261.209	800.000	0.007	-0.033
-260.195	-118.247	0.519	0.117
-259.180	-59.111	-0.228	0.125
-258.165	-79.030	-0.235	-0.101
-257.151	5.576	-0.225	0.211
-256.136	-51.536	0.312	0.185
-255.122	-177.850	-0.280	0.008
-254.107	-104.956	-0.229	0.067
-253.092	625.403	-0.161	-0.518
-252.078	328.916	-0.143	-0.352
-251.063	373.011	0.066	-0.172
-250.049	-81.113	-0.282	-0.118
-249.034	-100.425	-0.709	0.222
-248.019	222.116	0.150	0.308
-247.005	170.219	0.131	0.239
-245.990	29.321	-0.143	-0.154
-244.976	-131.453	0.461	-0.077
-243.961	-110.376	0.245	0.064
-242.946	104.872	-0.297	0.447
-241.932	-200.000	-0.004	0.138
-240.917	-200.000	0.027	0.364
-239.903	124.787	0.147	-0.237
-238.888	69.748	0.139	0.183
-237.873	-160.107	-0.102	-0.007
-236.859	2.925	-0.168	-0.155
-235.844	-74.545	0.136	-0.062
-234.830	-50.277	0.179	0.107
-233.815	123.481	0.077	0.124
-232.800	4.334	-0.143	0.133
-231.786	94.185	-0.128	-0.185
-230.771	-46.344	0.214	-0.134
-229.757	40.830	0.238	-0.273
-228.742	-200.000	0.054	0.408
-227.727	202.115	-0.221	-0.435
-226.713	68.927	-0.053	0.069
-225.698	-200.000	-0.007	-0.099
-224.684	800.000	-0.098	-0.519
-223.669	-139.162	0.517	-0.070
-222.655	-0.504	0.356	0.321
-221.640	-200.000	-0.022	0.191
-220.625	45.249	0.117	0.137
-219.611	112.352	0.220	0.338
-218.596	-118.895	0.597	-0.132
-217.582	-161.120	-0.380	0.025
-216.567	8.196	-0.159	0.152
-215.552	74.166	-0.382	0.510
-214.538	-181.620	0.253	-0.006
-213.523	-21.196	-0.399	0.309
-212.509	-13.882	0.246	0.202
-211.494	81.982	-0.124	0.171
-210.479	800.000	0.051	0.199
-209.465	178.939	-0.089	0.167
-208.450	-2.942	-0.254	-0.225
-207.436	-38.997	-0.008	0.005
-206.421	-19.465	-0.566	0.445
-205.406	-153.667	0.130	-0.011
-204.392	-94.115	0.550	-0.190
-203.377	-16.222	0.336	-0.271
-202.363	104.866	0.194	0.292
-201.348	-183.462	-0.098	0.002
-200.333	800.000	0.089	0.384
-199.319	-182.907	0.156	-0.003
-198.304	-128.708	0.343	-0.061
-197.290	506.284	-0.132	0.391
-196.275	800.000	-0.091	0.360
-195.260	-21.966	-0.342	0.263
-194.246	-200.000	0.008	-0.286
-193.231	-140.888	0.166	-0.021
-192.217	-1.659	-0.203	-0.182
-191.202	192.576	-0.167	0.321
-190.187	41.532	0.249	-0.286
-189.173	-88.649	0.255	-0.096
-188.158	-9.835	-0.176	-0.148
-187.144	26.108	-0.116	-0.123
-186.129	488.123	-0.092	-0.268
-185.114	-200.000	0.008	0.344
-184.100	0.792	-0.284	-0.258
-183.085	-200.000	0.018	-0.200
-182.071	82.886	-0.138	0.191
-181.056	183.866	-0.065	-0.122
-180.042	-147.090	-0.306	-0.033
-179.027	800.000	-0.080	0.380
-178.012	800.000	0.078	0.277
-176.998	-176.406	-0.524	0.017
-175.983	-156.396	-0.278	-0.022
-174.969	61.348	-0.072	0.091
-173.954	800.000	-0.024	-0.092
-172.939	261.944	-0.032	0.071
-171.925	379.528	-0.114	-0.298
-170.910	92.279	-0.152	-0.218
-169.896	256.732	-0.077	-0.168
-168.881	442.004	-0.215	-0.600
-167.866	158.608	-0.057	-0.100
-166.852	140.760	0.317	-0.533
-165.837	-200.000	0.075	-0.457
-164.823	-106.546	0.376	0.106
-163.808	-200.000	0.030	0.408
-162.793	800.000	0.085	0.398
-161.779	-90.024	-0.345	0.127
-160.764	-200.000	-0.087	-0.490
-159.750	10.724	0.366	-0.354
-158.735	60.976	0.242	-0.304
-157.720	253.835	-0.108	0.236
-156.706	174.822	0.213	-0.392
-155.691	577.214	0.103	0.320
-154.677	-113.180	0.137	-0.034
-153.662	-163.515	0.092	-0.005
-152.647	-100.047	-0.584	-0.184
-151.633	34.657	-0.354	0.392
-150.618	180.501	0.153	0.285
-149.604	-139.791	0.490	0.065
-148.589	-37.665	-0.104	0.070
-147.574	7.249	-0.062	0.059
-146.560	-67.756	-0.222	0.109
-145.545	441.200	0.110	-0.308
-144.531	24.636	-0.153	0.161
-143.516	-172.763	-0.440	0.017
-142.502	38.833	-0.047	-0.054
-141.487	145.090	-0.063	-0.108
-140.472	-78.739	-0.089	0.039
-139.458	-84.502	0.407	0.162
-138.443	-3.081	0.192	0.169
-137.429	54.676	-0.170	0.208
-136.414	88.607	-0.411	0.579
-135.399	365.046	0.132	0.337
-134.385	-62.484	-0.300	0.157
-133.370	0.887	0.335	-0.304
-132.356	-100.141	-0.322	-0.101
-131.341	-92.884	-0.693	0.244
-130.326	-122.088	-0.298	0.061
-129.312	-15.993	-0.150	-0.121
-128.297	84.259	0.124	0.173
-127.283	-27.104	0.206	0.152
-126.268	-45.506	0.238	-0.149
-125.253	-101.451	0.190	-0.058
-124.239	7.169	-0.264	0.249
-123.224	-27.436	-0.144	0.106
-122.210	800.000	-0.160	-0.653
-121.195	88.183	-0.203	-0.286
-120.180	800.000	-0.094	0.417
-119.166	-162.838	0.374	0.023
-118.151	-107.502	0.251	-0.069
-117.137	-146.324	0.458	-0.050
-116.122	800.000	0.096	0.433
-115.107	800.000	0.039	-0.173
-114.093	-172.237	0.281	-0.011
-113.078	143.199	0.161	-0.271
-112.064	-94.268	-0.368	0.127
-111.049	-165.771	0.110	0.006
-110.034	-35.281	-0.651	-0.448
-109.020	642.326	-0.138	-0.447
-108.005	-104.598	-0.434	0.126
-106.991	-164.296	-0.132	0.008
-105.976	-113.701	-0.229	-0.056
-104.962	38.244	-0.282	0.318
-103.947	-101.960	-0.196	-0.059
-102.932	255.614	-0.217	-0.472
-101.918	-114.643	-0.380	0.091
-100.903	-41.501	0.204	0.132
-99.889	-2.437	-0.132	0.117
-98.874	-163.642	0.048	-0.003
-97.859	800.000	-0.204	-0.903
-96.845	208.874	-0.296	-0.588
-95.830	800.000	0.017	-0.065
-94.816	-160.743	0.162	-0.011
-93.801	618.061	0.084	0.270
-92.786	-200.000	0.007	0.257
-91.772	-55.639	-0.149	0.084
-90.757	800.000	-0.096	0.385
-89.743	800.000	-0.133	0.530
-88.728	-40.627	-0.276	0.181
-87.713	800.000	-0.076	0.411
-86.699	2.342	0.416	-0.380
-85.684	444.108	0.166	0.464
-84.670	348.168	-0.083	-0.208
-83.655	-38.249	0.285	0.191
-82.640	-200.000	0.019	0.240
-81.626	49.017	-0.217	-0.257
-80.611	187.652	-0.141	-0.267
-79.597	454.353	-0.130	-0.365
-78.582	-11.579	-0.331	-0.275
-77.567	-55.094	0.391	-0.222
-76.553	673.367	-0.046	0.152
-75.538	-155.622	-0.379	-0.030
-74.524	800.000	-0.055	0.247
-73.509	591.251	0.196	0.616
-72.494	-95.073	-0.680	-0.231
-71.480	72.567	-0.309	0.408
-70.465	-70.670	0.559	0.266
-69.451	-95.905	-0.128	-0.043
-68.436	-53.843	0.265	0.152
-67.422	129.715	-0.106	0.172
-66.407	800.000	-0.037	-0.171
-65.392	-151.244	0.233	-0.022
-64.378	-200.000	-0.031	-0.187
-63.363	-67.329	-0.259	0.128
-62.349	-58.357	0.060	0.033
-61.334	4.894	-1.519	-1.411
-60.319	63.478	1.154	1.463
-59.305	278.538	-3.118	-7.046
-58.290	47.107	3.506	4.123
-57.276	418.488	3.677	9.978
-56.261	-200.000	17.658	274.868
-55.246	417.181	1228.650	3329.110
-54.232	59.207	2832.340	3524.131
-53.217	69.864	2701.146	3521.170
-52.203	44.253	2435.063	2822.772
-51.188	37.422	2094.901	2345.858
-50.173	30.228	1975.685	2129.597
-49.159	28.879	1965.324	2102.848
-48.144	28.344	1961.556	2092.593
-47.130	28.331	1959.582	2090.258
-46.115	28.192	1957.720	2086.590
-45.100	28.156	1956.957	2085.283
-44.086	28.138	1954.705	2082.592
-43.071	28.147	1952.899	2080.696
-42.057	27.986	1951.907	2077.720
-41.042	28.040	1950.441	2076.692
-40.027	28.107	1948.911	2075.740
-39.013	28.166	1947.038	2074.331
-37.998	28.040	1945.389	2071.068
-36.984	28.104	1944.508	2070.772
-35.969	27.923	1943.678	2067.744
-34.954	28.009	1942.223	2067.095
-33.940	27.995	1941.128	2065.681
-32.925	28.096	1939.664	2065.195
-31.911	27.946	1938.505	2062.172
-30.896	27.939	1937.041	2060.458
-29.881	27.855	1935.745	2058.041
-28.867	27.800	1934.626	2056.152
-27.852	27.868	1933.731	2055.883
-26.838	27.957	1930.936	2053.842
-25.823	27.841	1930.336	2051.810
-24.809	27.820	1928.967	2050.039
-23.794	27.847	1927.585	2048.789
-22.779	27.834	1925.999	2046.881
-21.765	27.819	1924.992	2045.558
-20.750	27.889	1923.118	2044.269
-19.736	27.749	1922.880	2042.364
-18.721	27.770	1922.171	2041.763
-17.706	27.759	1920.512	2039.799
-16.692	27.858	1918.457	2038.647
-15.677	27.905	1917.390	2037.957
-14.663	27.775	1916.590	2035.574
-13.648	27.739	1915.455	2033.874
-12.633	27.764	1913.078	2031.552
-11.619	27.717	1912.203	2030.021
-10.604	27.674	1911.804	2029.031
-9.590	27.678	1910.820	2027.956
-8.575	27.741	1908.806	2026.439
-7.560	27.739	1907.514	2024.960
-6.546	27.617	1906.791	2022.758
-5.531	27.670	1905.968	2022.398
-4.517	27.817	1904.433	2022.319
-3.502	27.706	1903.366	2019.871
-2.487	27.781	1902.262	2019.459
-1.473	27.916	1898.663	2017.053
-0.458	27.883	1879.042	1995.763
0.556	24.503	2023.922	2097.247
1.571	23.545	2235.257	2303.461
2.586	24.619	2279.144	2362.693
3.600	24.569	2281.979	2364.677
4.615	24.650	2280.636	2364.078
5.629	24.635	2278.791	2361.687
6.644	24.734	2276.830	2360.690
7.659	24.697	2274.709	2357.715
8.673	24.736	2273.116	2356.305
9.688	24.371	2279.922	2358.222
10.702	22.506	2357.245	2412.268
11.717	20.523	2422.199	2450.371
12.731	10.357	2396.337	2280.698
13.746	1.640	2372.141	2134.863
14.761	0.365	2368.263	2113.154
15.775	0.244	2365.632	2108.862
16.790	0.266	2363.577	2107.081
17.804	0.157	2363.570	2105.288
18.819	0.152	2361.649	2103.251
19.834	0.219	2360.366	2102.800
20.848	0.162	2359.221	2100.736
21.863	0.186	2356.592	2098.473
22.877	0.096	2354.995	2095.537
23.892	0.190	2352.267	2094.178
24.907	0.147	2349.654	2091.002
25.921	0.072	2348.920	2089.045
26.936	0.135	2346.150	2087.209
27.950	0.061	2343.464	2083.548
28.965	0.117	2341.605	2082.426
29.980	0.189	2340.449	2082.142
30.994	0.214	2337.993	2080.063
32.009	5.167	2354.337	2163.465
33.023	17.926	2393.131	2378.555
34.038	24.814	2408.907	2490.689
35.053	26.302	2410.426	2512.765
36.067	26.354	2407.823	2510.482
37.082	25.904	2404.592	2500.544
38.096	25.804	2402.122	2496.274
39.111	25.906	2400.136	2495.341
40.126	26.250	2397.790	2497.380
41.140	26.525	2398.822	2501.973
42.155	26.463	2396.498	2498.395
43.169	26.353	2394.761	2494.754
44.184	26.649	2391.276	2494.933
45.199	26.513	2389.245	2490.629
46.213	25.993	2387.101	2480.903
47.228	25.986	2386.484	2479.875
48.242	26.134	2385.520	2480.614
49.257	26.245	2383.031	2479.264
50.271	26.406	2381.868	2479.978
51.286	26.603	2379.508	2479.939
52.301	26.361	2376.939	2473.636
53.315	25.542	2374.393	2459.429
54.330	24.089	2367.525	2432.091
55.344	23.217	2361.909	2414.076
56.359	23.127	2357.596	2408.159
57.374	22.928	2356.329	2403.848
58.388	23.073	2353.362	2402.514
59.403	23.187	2351.088	2401.456
60.417	23.435	2348.740	2402.147
61.432	23.539	2347.523	2402.031
62.447	23.552	2345.210	2399.559
63.461	23.466	2343.714	2396.578
64.476	23.574	2340.558	2394.520
65.490	23.907	2340.281	2398.466
66.505	24.211	2341.997	2404.058
67.520	25.137	2343.717	2418.094
68.534	25.831	2343.742	2427.239
69.549	26.380	2341.611	2432.164
70.563	26.454	2339.891	2431.089
71.578	26.536	2338.934	2430.908
72.593	26.653	2338.056	2431.286
73.607	26.688	2336.376	2429.725
74.622	26.902	2333.506	2429.328
75.636	26.711	2331.340	2424.214
76.651	26.667	2327.807	2419.653
77.666	26.765	2327.352	2420.212
78.680	26.889	2325.276	2419.421
79.695	27.061	2323.276	2419.355
80.709	27.208	2322.398	2420.117
81.724	27.369	2321.496	2421.043
82.739	27.246	2318.543	2416.035
83.753	27.323	2316.011	2414.125
84.768	27.018	2314.939	2408.663
85.782	26.864	2312.131	2403.392
86.797	26.857	2309.804	2400.592
87.812	26.832	2307.693	2397.781
88.826	26.721	2306.059	2394.327
89.841	26.828	2305.039	2394.402
90.855	27.120	2302.544	2395.392
91.870	26.729	2300.057	2387.341
92.884	26.485	2298.182	2381.875
93.899	26.745	2296.563	2383.359
94.914	26.020	2294.687	2371.548
95.928	24.301	2289.028	2342.729
96.943	23.665	2286.365	2331.328
97.957	25.170	2287.650	2352.220
98.972	26.318	2288.408	2367.853
99.987	26.221	2286.311	2364.114
101.001	26.368	2283.501	2362.861
102.016	26.611	2282.412	2364.643
103.030	26.751	2280.449	2364.162
104.045	26.839	2276.857	2361.309
105.060	26.904	2276.585	2361.587
106.074	26.979	2275.131	2360.777
107.089	26.874	2272.546	2356.446
108.103	26.847	2270.929	2354.134
109.118	26.775	2269.450	2351.380
110.133	26.977	2269.096	2353.367
111.147	27.229	2267.298	2354.501
112.162	27.094	2266.168	2351.280
113.176	26.931	2262.074	2344.641
114.191	26.694	2259.866	2338.998
115.206	26.713	2259.012	2338.084
116.220	26.762	2256.426	2335.758
117.235	26.605	2253.081	2329.984
118.249	26.545	2251.894	2327.707
119.264	26.821	2251.240	2330.310
120.279	26.856	2248.306	2327.443
121.293	26.667	2245.950	2322.303
122.308	26.474	2246.302	2319.890
123.322	26.460	2243.906	2316.964
124.337	25.714	2240.026	2303.088
125.352	24.478	2234.635	2281.404
126.366	24.279	2235.027	2278.977
127.381	25.740	2235.532	2297.977
128.395	26.372	2235.022	2305.284
129.410	26.521	2233.505	2305.341
130.424	26.609	2231.857	2304.494
131.439	26.623	2229.761	2302.231
132.454	26.488	2228.343	2298.775
133.468	26.719	2225.239	2298.239
134.483	26.661	2224.019	2295.962
135.497	26.520	2223.309	2293.166
136.512	26.731	2219.783	2291.933
137.527	26.742	2218.729	2290.716
138.541	26.722	2217.716	2289.132
139.556	26.575	2217.211	2286.479
140.570	26.695	2215.243	2285.689
141.585	26.972	2213.353	2286.981
142.600	26.893	2211.281	2283.564
143.614	26.656	2210.176	2279.149
144.629	26.821	2207.915	2278.632
145.643	26.706	2206.627	2275.579
146.658	26.676	2204.461	2272.690
147.673	26.639	2203.271	2270.734
148.687	26.770	2200.822	2269.580
149.702	26.466	2200.238	2264.884
150.716	26.403	2198.933	2262.479
151.731	26.589	2198.229	2263.823
152.746	26.823	2197.357	2265.584
153.760	26.029	2193.213	2251.094
154.775	24.270	2186.659	2222.081
155.789	23.500	2184.615	2210.085
156.804	24.851	2186.363	2228.512
157.819	26.034	2185.710	2242.383
158.833	26.448	2184.145	2245.670
159.848	26.716	2182.141	2246.675
160.862	26.946	2180.742	2247.831
161.877	27.003	2179.526	2247.024
162.892	26.917	2179.246	2245.401
163.906	26.890	2178.060	2243.566
164.921	27.042	2174.931	2241.968
165.935	26.846	2173.610	2237.900
166.950	26.773	2170.772	2233.805
167.964	26.832	2168.483	2231.921
168.979	26.803	2167.752	2230.534
169.994	27.101	2166.451	2232.618
171.008	26.864	2164.945	2227.873
172.023	26.734	2163.361	2224.369
173.037	26.813	2162.381	2224.072
174.052	26.843	2158.828	2220.519
175.067	26.603	2157.583	2216.019
176.081	26.605	2156.802	2214.976
177.096	26.735	2155.792	2215.277
178.110	26.480	2152.967	2208.976
179.125	26.504	2152.439	2208.468
180.140	26.674	2151.246	2209.055
181.154	26.585	2149.475	2205.883
182.169	26.471	2148.080	2202.798
183.183	25.793	2144.226	2190.298
184.198	24.170	2137.782	2163.648
185.213	23.821	2137.634	2158.981
186.227	25.776	2139.945	2184.933
187.242	26.502	2139.995	2193.565
188.256	26.676	2139.337	2194.752
189.271	26.869	2137.508	2194.956
190.286	26.868	2135.721	2192.849
191.300	26.827	2133.835	2190.145
192.315	26.708	2131.037	2185.570
193.329	26.627	2131.231	2184.525
194.344	26.744	2129.397	2183.808
195.359	26.834	2128.613	2183.833
196.373	27.004	2126.061	2183.009
197.388	26.925	2123.514	2179.170
198.402	26.830	2121.666	2175.873
199.417	26.774	2120.253	2173.490
200.432	26.770	2118.268	2171.138
201.446	26.852	2117.428	2171.005
202.461	26.928	2115.537	2169.720
203.475	26.580	2113.697	2163.396
204.490	26.729	2111.173	2162.339
205.504	26.508	2108.049	2156.243
206.519	26.541	2106.441	2154.726
207.534	26.467	2104.228	2151.318
208.548	26.557	2104.185	2152.095
209.563	26.424	2102.851	2148.884
210.577	26.418	2100.681	2146.344
211.592	26.474	2100.215	2146.274
212.607	25.776	2096.341	2133.749
213.621	23.751	2090.516	2103.496
214.636	23.747	2090.300	2102.969
215.650	25.715	2093.957	2129.833
216.665	26.610	2093.010	2139.254
217.680	26.785	2091.166	2139.189
218.694	26.736	2090.568	2137.732
219.709	26.755	2087.715	2134.783
220.723	26.629	2086.919	2132.221
221.738	26.633	2085.463	2130.526
222.753	26.739	2083.257	2129.279
223.767	26.766	2080.655	2126.673
224.782	26.662	2079.729	2124.250
225.796	26.514	2078.917	2121.423
226.811	26.879	2076.085	2122.568
227.826	26.907	2075.597	2122.146
228.840	26.954	2073.550	2120.351
229.855	26.724	2072.580	2116.403
230.869	26.811	2070.762	2115.325
231.884	26.704	2068.959	2111.966
232.899	26.729	2067.592	2110.620
233.913	26.811	2067.019	2110.734
234.928	26.809	2064.967	2108.363
235.942	26.939	2063.741	2108.375
236.957	26.907	2061.747	2105.720
237.972	26.771	2061.338	2103.459
238.986	26.723	2059.632	2100.907
240.001	26.668	2057.520	2097.865
241.015	26.477	2055.088	2092.911
242.030	25.992	2053.402	2085.305
243.045	24.510	2048.140	2062.523
244.059	24.142	2047.258	2057.116
245.074	25.869	2047.832	2077.477
246.088	26.476	2046.168	2082.566
247.103	26.529	2045.207	2081.947
248.117	26.628	2043.973	2081.594
249.132	26.715	2043.690	2082.061
250.147	26.773	2041.120	2079.866
251.161	26.664	2038.506	2075.698
252.176	26.545	2036.811	2072.349
253.190	25.697	2032.250	2057.714
254.205	25.060	2028.206	2046.077
255.220	24.923	2028.621	2044.677
256.234	25.170	2028.654	2047.291
257.249	25.398	2026.671	2047.664
258.263	25.038	2024.640	2041.241
259.278	24.759	2021.857	2035.008
260.293	24.834	2020.870	2034.625
261.307	25.742	2021.665	2045.560
262.322	26.389	2021.706	2052.738
263.336	26.362	2020.315	2050.776
264.351	26.381	2018.724	2049.126
265.366	26.490	2018.533	2049.933
266.380	26.639	2016.976	2049.802
267.395	26.451	2015.579	2045.998
268.409	26.626	2012.923	2045.040
269.424	26.915	2011.367	2046.492
270.439	26.741	2011.594	2044.510
271.453	26.153	2007.012	2032.946
272.468	24.205	2001.007	2004.617
273.482	23.666	2001.142	1998.416
274.497	25.444	2002.665	2019.806
275.512	26.739	2001.185	2032.684
276.526	26.943	1999.228	2032.749
277.541	26.645	1997.851	2027.761
278.555	26.600	1995.755	2024.875
279.570	26.454	1993.935	2021.155
280.585	26.404	1991.675	2018.063
281.599	26.353	1991.110	2016.675
282.614	26.203	1989.332	2012.948
283.628	25.188	1985.205	1997.183
284.643	24.562	1983.537	1988.263
285.657	24.733	1982.204	1988.602
286.672	24.710	1980.269	1986.164
287.687	24.548	1979.122	1982.962
288.701	24.644	1976.690	1981.358
289.716	24.744	1975.287	1980.831
290.730	24.680	1974.269	1978.861
291.745	24.817	1971.757	1977.633
292.760	24.776	1972.271	1977.452
293.774	24.880	1972.490	1978.593
294.789	25.945	1973.168	1990.862
295.803	26.538	1971.792	1995.812
296.818	26.747	1971.488	1997.575
297.833	26.932	1970.188	1998.071
298.847	26.797	1968.524	1994.647
299.862	26.717	1967.337	1992.323
300.876	26.268	1963.131	1982.873
301.891	24.441	1957.532	1956.870
302.906	23.973	1957.936	1951.873
303.920	26.015	1960.164	1976.380
304.935	26.698	1959.091	1982.581
305.949	26.650	1957.764	1980.469
306.964	26.987	1956.195	1982.343
307.979	26.704	1953.948	1976.729
308.993	25.934	1950.485	1964.553
310.008	25.327	1946.400	1953.570
311.022	24.987	1944.717	1947.936
312.037	24.985	1943.987	1946.950
313.052	24.786	1940.444	1940.996
314.066	24.374	1937.615	1933.443
315.081	24.308	1936.738	1931.617
316.095	24.153	1935.883	1928.845
317.110	24.315	1934.355	1928.858
318.125	24.583	1933.155	1930.344
319.139	24.576	1932.564	1929.439
320.154	24.811	1931.046	1930.250
321.168	24.986	1930.019	1930.885
322.183	25.725	1930.454	1939.094
323.197	26.409	1930.898	1946.713
324.212	26.626	1929.756	1947.676
325.227	26.561	1928.941	1945.912
326.241	26.850	1927.285	1947.130
327.256	26.825	1926.450	1945.779
328.270	26.743	1924.851	1943.053
329.285	26.637	1924.177	1940.993
330.300	26.031	1921.926	1931.972
331.314	24.071	1915.738	1904.474
332.329	23.974	1915.369	1902.831
333.343	25.897	1917.672	1925.564
334.358	26.808	1917.346	1934.786
335.373	27.011	1915.542	1934.904
336.387	26.995	1914.183	1933.129
337.402	27.066	1912.126	1931.576
338.416	26.866	1910.521	1927.596
339.431	26.850	1909.082	1925.734
340.446	27.011	1906.827	1924.953
341.460	25.954	1903.269	1909.880
342.475	25.086	1899.542	1896.685
343.489	24.651	1897.123	1889.418
344.504	24.569	1895.497	1886.702
345.519	24.606	1894.376	1885.760
346.533	24.594	1891.872	1882.904
347.548	24.692	1891.788	1883.639
348.562	24.748	1891.634	1883.851
349.577	24.584	1889.530	1879.799
350.592	24.548	1888.116	1877.786
351.606	24.546	1886.315	1875.751
352.621	24.440	1884.752	1872.848
353.635	25.163	1885.802	1881.297
354.650	25.970	1885.997	1889.767
355.665	26.299	1884.515	1891.518
356.679	26.666	1883.951	1894.583
357.694	26.834	1883.178	1895.353
358.708	27.066	1882.434	1896.813
359.723	26.342	1878.927	1885.462
360.738	24.271	1873.375	1857.996
361.752	24.451	1873.291	1859.574
362.767	26.201	1875.169	1879.535
363.781	26.725	1874.356	1883.977
364.796	26.834	1872.795	1883.318
365.810	26.745	1872.306	1881.674
366.825	26.954	1870.339	1881.644
367.840	26.951	1869.230	1880.278
368.854	26.298	1867.979	1871.997
369.869	25.404	1864.451	1858.944
370.883	24.824	1860.540	1848.800
371.898	24.551	1859.165	1844.373
372.913	24.720	1858.351	1845.106
373.927	24.680	1857.557	1843.676
374.942	24.843	1855.039	1842.648
375.956	24.792	1853.437	1840.306
376.971	24.468	1850.037	1833.363
377.986	24.077	1847.880	1826.975
379.000	24.351	1848.563	1830.263
380.015	25.746	1850.327	1846.175
381.029	26.788	1850.852	1857.218
382.044	26.971	1848.664	1856.678
383.059	27.098	1846.771	1855.856
384.073	26.885	1845.095	1851.766
385.088	26.657	1843.720	1847.825
386.102	26.680	1843.297	1847.424
387.117	26.489	1840.875	1842.811
388.132	26.478	1840.095	1841.699
389.146	26.129	1838.518	1836.337
390.161	24.164	1833.520	1811.069
391.175	23.993	1830.659	1806.279
392.190	25.614	1830.877	1822.804
393.205	26.405	1830.814	1830.576
394.219	26.526	1830.310	1831.084
395.234	26.586	1828.936	1830.093
396.248	26.780	1827.222	1830.134
397.263	26.669	1825.095	1826.654
398.278	26.475	1822.557	1821.933
399.292	26.350	1821.522	1819.420
400.307	26.487	1821.320	1820.387
401.321	26.228	1819.205	1815.436
402.336	24.912	1813.789	1796.546
403.350	24.199	1811.519	1786.899
404.365	24.753	1811.073	1791.827
405.380	24.877	1811.400	1793.186
406.394	24.854	1810.026	1791.377
407.409	24.676	1807.952	1787.320
408.423	24.512	1806.215	1783.749
409.438	24.612	1805.623	1783.954
410.453	25.514	1805.661	1792.823
411.467	26.236	1806.107	1800.289
412.482	26.577	1805.645	1803.021
413.496	26.923	1805.268	1805.893
414.511	26.742	1803.177	1801.777
415.526	26.637	1800.335	1797.674
416.540	26.694	1799.272	1796.970
417.555	26.561	1798.318	1794.476
418.569	26.393	1797.186	1791.460
419.584	26.259	1797.135	1789.852
420.599	26.411	1797.399	1791.416
421.613	26.387	1795.820	1789.389
422.628	26.356	1793.970	1787.023
423.642	26.612	1792.336	1787.729
424.657	26.432	1789.941	1783.343
425.672	25.909	1787.957	1775.972
426.686	26.369	1787.955	1780.312
427.701	26.738	1786.598	1782.394
428.715	26.824	1784.748	1781.184
429.730	26.826	1783.911	1780.155
430.745	27.064	1782.658	1781.038
431.759	26.705	1780.928	1775.563
432.774	25.618	1778.414	1762.150
433.788	24.150	1773.301	1742.443
434.803	23.184	1771.117	1730.602
435.818	23.143	1770.090	1728.992
436.832	23.223	1769.362	1728.856
437.847	21.950	1761.657	1708.667
438.861	12.364	1735.145	1589.918
439.876	2.357	1715.969	1475.501
440.890	0.407	1710.742	1451.972
441.905	0.351	1709.708	1450.377
442.920	0.361	1708.970	1449.672
443.934	0.136	1708.168	1446.651
444.949	0.212	1706.559	1445.845
445.963	0.132	1705.602	1444.091
446.978	0.139	1705.775	1444.132
447.993	0.067	1704.340	1442.044
449.007	0.230	1701.308	1440.875
450.022	0.265	1698.971	1439.061
451.036	0.208	1698.388	1437.845
452.051	0.716	1700.872	1444.663
453.066	8.996	1721.931	1542.661
454.080	19.770	1740.693	1664.043
455.095	22.561	1745.356	1695.329
456.109	22.995	1745.357	1699.317
457.124	23.063	1743.686	1698.145
458.139	23.076	1742.993	1697.396
459.153	23.033	1742.228	1696.031
460.168	23.007	1740.766	1694.155
461.182	23.224	1738.772	1694.098
462.197	23.128	1737.363	1691.599
463.212	23.353	1735.952	1692.187
464.226	23.465	1734.903	1692.035
465.241	23.428	1734.132	1690.726
466.255	23.452	1732.176	1688.842
467.270	23.243	1730.891	1685.385
468.285	23.374	1730.466	1686.028
469.299	23.585	1729.094	1686.507
470.314	23.408	1728.154	1683.692
471.328	23.464	1726.341	1682.266
472.343	23.420	1725.810	1681.121
473.358	23.542	1723.927	1680.248
474.372	23.431	1723.353	1678.427
475.387	23.817	1721.196	1679.801
476.401	23.675	1720.135	1677.211
477.416	23.666	1718.065	1674.905
478.430	23.476	1717.035	1671.907
479.445	23.672	1716.700	1673.232
480.460	23.749	1715.402	1672.502
481.474	23.760	1714.527	1671.544
482.489	23.532	1712.822	1667.535
483.503	23.227	1710.310	1662.008
484.518	23.189	1708.553	1659.748
485.533	23.383	1707.263	1660.122
486.547	23.305	1705.546	1657.517
487.562	23.009	1704.467	1653.490
488.576	23.196	1703.235	1653.850
489.591	23.158	1702.925	1652.995
490.606	23.401	1701.838	1654.017
491.620	23.469	1699.712	1652.399
492.635	23.186	1696.506	1646.435
493.649	22.767	1695.018	1640.880
494.664	23.208	1695.271	1645.049
495.679	23.524	1694.664	1647.214
496.693	23.439	1692.881	1644.490
497.708	23.439	1690.791	1642.265
498.722	23.020	1689.744	1637.148
499.737	23.000	1689.001	1636.049
500.752	23.279	1687.584	1637.076
501.766	23.375	1685.936	1636.171
502.781	23.290	1684.514	1633.802
503.795	23.267	1683.159	1632.080
504.810	23.485	1681.836	1632.619
505.825	23.226	1681.177	1629.385
506.839	23.155	1679.646	1627.055
507.854	23.053	1678.776	1625.075
508.868	23.020	1676.456	1622.326
509.883	22.983	1675.152	1620.534
510.898	22.770	1674.340	1617.589
511.912	22.902	1671.898	1616.251
512.927	22.899	1670.121	1614.314
513.941	22.974	1668.943	1613.674
514.956	22.994	1668.195	1612.933
515.971	22.910	1666.948	1610.766
516.985	22.961	1665.909	1610.043
518.000	22.896	1665.164	1608.533
519.014	22.789	1663.685	1605.934
520.029	22.656	1662.169	1603.065
521.043	22.659	1660.744	1601.520
522.058	22.778	1660.006	1601.702
523.073	22.764	1658.671	1600.093
524.087	22.727	1656.673	1597.638
525.102	22.645	1656.155	1596.205
526.116	22.934	1655.648	1598.149
527.131	23.155	1654.470	1598.834
528.146	23.026	1653.094	1596.139
529.160	22.930	1651.722	1593.749
530.175	22.869	1651.252	1592.552
531.189	22.765	1649.179	1589.424
532.204	22.761	1648.128	1588.183
533.219	23.000	1646.955	1589.024
534.233	23.156	1647.076	1590.358
535.248	23.070	1644.582	1586.986
536.262	22.620	1643.324	1581.526
537.277	22.826	1642.216	1582.126
538.292	22.786	1641.219	1580.620
539.306	23.037	1638.493	1580.056
540.321	22.921	1637.496	1577.869
541.335	22.840	1636.197	1575.694
542.350	22.986	1634.267	1574.955
543.365	22.826	1633.359	1572.463
544.379	22.805	1631.603	1570.400
545.394	22.655	1631.533	1568.804
546.408	22.860	1630.357	1569.316
547.423	23.225	1629.729	1571.777
548.438	23.436	1628.564	1572.345
549.452	23.075	1626.545	1566.996
550.467	23.036	1625.190	1565.156
551.481	22.947	1624.887	1563.882
552.496	22.716	1623.213	1560.030
553.511	22.570	1621.488	1556.895
554.525	22.612	1620.612	1556.238
555.540	22.555	1619.937	1554.899
556.554	22.734	1618.173	1554.604
557.569	22.748	1616.006	1552.459
558.583	22.779	1615.343	1551.914
559.598	22.721	1614.365	1550.272
560.613	22.638	1613.919	1548.931
561.627	22.527	1612.070	1545.992
562.642	22.537	1610.029	1543.936
563.656	22.336	1608.845	1540.842
564.671	22.260	1606.999	1538.227
565.686	22.332	1606.163	1537.869
566.700	22.432	1604.877	1537.338
567.715	22.427	1603.499	1535.787
568.729	22.553	1602.584	1535.829
569.744	22.675	1601.176	1535.366
570.759	22.714	1599.531	1533.943
571.773	22.647	1598.592	1532.272
572.788	22.600	1597.810	1530.929
573.802	22.542	1596.089	1528.591
574.817	22.327	1594.366	1524.888
575.832	22.284	1592.593	1522.640
576.846	22.315	1591.522	1521.696
577.861	22.592	1590.298	1522.754
578.875	22.542	1590.411	1522.241
579.890	22.436	1588.843	1519.641
580.905	22.478	1588.055	1519.070
581.919	22.446	1587.299	1517.887
582.934	22.420	1585.865	1516.111
583.948	22.377	1584.343	1514.103
584.963	22.515	1583.204	1514.024
585.978	22.645	1582.468	1514.265
586.992	22.560	1580.725	1511.682
588.007	22.410	1580.184	1509.684
589.021	22.480	1579.647	1509.595
590.036	22.586	1578.348	1509.090
591.051	22.600	1576.910	1507.652
592.065	22.492	1575.105	1504.822
593.080	22.348	1573.466	1501.842
594.094	22.497	1571.732	1501.276
595.109	22.661	1570.458	1501.285
596.123	22.897	1568.947	1501.683
597.138	22.704	1568.328	1499.259
598.153	22.594	1566.419	1496.317
599.167	22.425	1565.033	1493.367
600.182	22.378	1564.467	1492.248
601.196	22.413	1564.011	1491.933
602.211	22.344	1562.554	1489.779
603.226	22.378	1560.670	1488.097
604.240	22.222	1559.895	1485.854
605.255	22.285	1558.069	1484.472
606.269	22.213	1557.397	1483.040
607.284	22.262	1556.908	1482.819
608.299	22.359	1554.959	1481.605
609.313	22.371	1554.121	1480.725
610.328	22.310	1552.787	1478.760
611.342	22.409	1550.720	1477.452
612.357	22.210	1549.980	1474.894
613.372	22.333	1548.623	1474.465
614.386	22.361	1547.157	1473.128
615.401	22.298	1546.484	1471.781
616.415	22.173	1546.299	1470.372
617.430	22.142	1544.631	1468.353
618.445	21.988	1543.525	1465.836
619.459	22.160	1541.910	1465.565
620.474	22.187	1542.025	1465.728
621.488	22.494	1541.264	1467.396
622.503	22.637	1540.219	1467.426
623.518	22.368	1538.799	1463.651
624.532	22.203	1536.967	1460.350
625.547	22.104	1535.867	1458.304
626.561	21.993	1534.214	1455.634
627.576	21.846	1534.024	1454.060
628.591	22.325	1531.663	1455.627
629.605	22.503	1531.799	1457.064
630.620	22.482	1530.942	1455.900
631.634	22.650	1530.257	1456.470
632.649	22.572	1529.332	1454.770
633.663	22.559	1527.020	1452.286
634.678	22.285	1525.249	1448.162
635.693	22.000	1523.335	1443.816
636.707	22.067	1521.433	1442.390
637.722	21.888	1520.904	1440.243
638.736	21.900	1520.290	1439.584
639.751	22.000	1518.758	1438.786
640.766	22.220	1517.507	1439.240
641.780	22.133	1516.208	1437.124
642.795	22.146	1515.565	1436.449
643.809	22.075	1514.911	1435.070
644.824	22.107	1514.187	1434.480
645.839	22.227	1512.820	1433.995
646.853	22.194	1511.596	1432.389
647.868	22.245	1509.543	1430.690
648.882	22.124	1509.049	1429.067
649.897	22.241	1507.695	1428.562
650.912	22.186	1506.160	1426.493
651.926	22.150	1505.030	1424.957
652.941	22.220	1504.224	1424.594
653.955	22.496	1502.472	1425.012
654.970	22.415	1500.977	1422.762
655.985	22.357	1499.536	1420.752
656.999	22.151	1499.096	1418.494
658.014	22.032	1498.324	1416.635
659.028	22.158	1497.020	1416.248
660.043	22.211	1496.270	1415.796
661.058	22.230	1494.171	1413.797
662.072	22.109	1493.000	1411.539
663.087	22.113	1492.162	1410.617
664.101	22.047	1490.876	1408.699
665.116	21.992	1489.378	1406.669
666.131	22.051	1488.103	1405.773
667.145	22.057	1487.746	1405.313
668.160	21.930	1486.190	1402.658
669.174	21.946	1484.747	1401.254
670.189	21.925	1483.796	1400.020
671.204	22.068	1482.257	1399.548
672.218	22.160	1481.541	1399.440
673.233	22.200	1480.069	1398.206
674.247	22.048	1478.792	1395.614
675.262	21.889	1478.325	1393.740
676.276	21.942	1477.620	1393.333
677.291	22.046	1476.129	1392.582
678.306	22.216	1475.844	1393.507
679.320	22.146	1473.919	1390.966
680.335	21.980	1473.510	1389.090
681.349	22.061	1472.160	1388.296
682.364	21.869	1471.239	1385.736
683.379	21.991	1469.982	1385.350
684.393	22.025	1468.167	1383.747
685.408	21.919	1466.992	1381.633
686.422	21.940	1466.446	1381.121
687.437	21.788	1466.000	1379.337
688.452	21.669	1464.972	1377.264
689.466	21.815	1462.869	1376.270
690.481	21.915	1461.149	1375.272
691.495	21.936	1461.864	1375.953
692.510	22.221	1461.720	1377.892
693.525	22.407	1459.801	1377.385
694.539	22.292	1458.167	1374.773
695.554	21.817	1457.072	1369.846
696.568	21.704	1456.276	1368.051
697.583	21.622	1455.269	1366.295
698.598	21.627	1454.437	1365.390
699.612	21.794	1452.145	1364.382
700.627	21.775	1451.423	1363.390
701.641	21.861	1450.447	1362.984
702.656	22.008	1448.847	1362.467
703.671	21.794	1448.192	1360.019
704.685	21.834	1448.347	1360.310
705.700	21.868	1446.578	1358.751
706.714	21.947	1445.041	1357.759
707.729	21.895	1444.523	1356.704
708.744	22.014	1442.618	1355.679
709.758	22.055	1440.865	1354.184
710.773	22.087	1440.793	1354.201
711.787	22.189	1439.627	1353.736
712.802	22.238	1437.403	1351.860
713.816	22.007	1436.589	1349.146
714.831	21.868	1436.414	1347.749
715.846	21.877	1434.482	1345.842
716.860	21.744	1432.914	1343.192
717.875	21.874	1432.181	1343.343
718.889	21.822	1431.135	1341.803
719.904	21.742	1430.465	1340.396
720.919	21.797	1428.711	1339.012
721.933	21.511	1428.434	1336.399
722.948	21.633	1427.477	1336.281
723.962	21.513	1425.665	1333.508
724.977	21.492	1424.531	1332.123
725.992	21.609	1423.910	1332.279
727.006	21.693	1422.420	1331.369
728.021	21.660	1420.914	1329.546
729.035	21.752	1419.289	1328.569
730.050	21.877	1418.567	1328.687
731.065	21.635	1418.028	1326.175
732.079	21.628	1417.105	1325.104
733.094	21.671	1416.005	1324.240
734.108	21.851	1414.288	1323.847
735.123	21.874	1412.765	1322.438
736.138	21.801	1411.866	1320.884
737.152	21.608	1411.356	1318.783
738.167	21.722	1409.533	1317.784
739.181	21.788	1408.626	1317.281
740.196	21.671	1407.719	1315.390
741.211	21.692	1407.008	1314.724
742.225	21.614	1406.573	1313.574
743.240	21.722	1405.027	1312.785
744.254	21.544	1403.287	1309.662
745.269	21.706	1401.426	1308.986
746.284	21.487	1401.424	1307.188
747.298	21.400	1401.517	1306.458
748.313	21.709	1400.298	1307.490
749.327	22.023	1399.375	1308.821
750.342	22.147	1399.066	1309.302
751.356	22.369	1397.929	1309.748
752.371	22.242	1396.828	1307.608
753.386	21.786	1395.157	1302.485
754.400	21.468	1393.957	1298.835
755.415	21.598	1392.807	1298.573
756.429	21.700	1391.249	1297.729
757.444	21.686	1389.370	1295.716
758.459	21.620	1388.285	1294.059
759.473	21.412	1388.343	1292.411
760.488	21.570	1386.808	1292.001
761.502	21.458	1385.425	1289.730
762.517	21.452	1384.747	1288.897
763.532	21.682	1383.461	1289.245
764.546	21.811	1382.071	1288.750
765.561	21.997	1381.668	1289.595
766.575	22.126	1381.244	1289.998
767.590	22.150	1380.305	1289.141
768.605	22.004	1378.599	1286.320
769.619	21.805	1377.154	1283.353
770.634	21.789	1375.370	1281.423
771.648	21.560	1374.826	1279.075
772.663	21.451	1373.480	1276.872
773.678	21.555	1372.508	1276.580
774.692	21.546	1372.688	1276.524
775.707	21.607	1371.801	1275.994
776.721	21.551	1370.897	1274.589
777.736	21.482	1370.311	1273.389
778.751	21.528	1368.616	1272.002
779.765	21.493	1367.710	1270.748
780.780	21.436	1367.612	1270.087
781.794	21.597	1365.820	1269.447
782.809	21.457	1364.763	1267.295
783.824	21.339	1363.546	1265.150
784.838	21.606	1362.806	1266.257
785.853	21.975	1362.360	1268.367
786.867	21.818	1361.960	1266.706
787.882	21.678	1361.210	1264.840
788.897	21.581	1359.649	1262.540
789.911	21.293	1358.217	1258.966
790.926	21.302	1357.011	1257.767
791.940	21.333	1355.193	1256.152
792.955	21.195	1354.104	1253.995
793.969	21.106	1353.424	1252.573
794.984	21.267	1352.303	1252.551
795.999	21.538	1350.956	1253.102
797.013	21.590	1348.808	1251.337
798.028	21.503	1347.535	1249.377
799.042	21.477	1347.060	1248.601
800.057	21.383	1346.333	1247.106
801.072	21.304	1345.146	1245.289
802.086	21.339	1343.655	1244.009
803.101	21.259	1342.977	1242.663
804.115	21.309	1341.814	1241.797
805.130	21.339	1340.567	1240.707
806.145	21.340	1339.333	1239.421
807.159	21.407	1337.913	1238.435
808.174	21.422	1337.037	1237.585
809.188	21.486	1336.402	1237.302
810.203	21.498	1335.198	1236.123
811.218	21.702	1333.882	1236.205
812.232	21.817	1332.249	1235.358
813.247	21.808	1331.948	1234.869
814.261	21.671	1331.199	1233.057
815.276	21.448	1329.895	1230.127
816.291	21.289	1328.494	1227.560
817.305	21.205	1327.448	1225.851
818.320	21.333	1325.708	1225.003
819.334	21.298	1324.757	1223.730
820.349	21.282	1323.664	1222.462
821.364	21.389	1321.911	1221.446
822.378	21.356	1320.119	1219.418
823.393	21.384	1318.465	1217.941
824.407	21.300	1317.696	1216.491
825.422	21.213	1317.630	1215.677
826.437	21.121	1316.529	1213.872
827.451	21.171	1315.141	1212.798
828.466	21.502	1314.514	1214.384
829.480	21.971	1312.435	1215.583
830.495	21.602	1309.995	1210.615
831.509	21.153	1309.410	1206.812
832.524	21.268	1308.717	1206.823
833.539	21.288	1307.100	1205.326
834.553	21.152	1305.869	1203.108
835.568	21.207	1304.636	1202.209
836.582	21.306	1303.225	1201.449
837.597	21.248	1302.050	1199.823
838.612	21.510	1300.561	1200.111
839.626	21.360	1300.095	1198.503
840.641	21.362	1299.819	1198.122
841.655	21.466	1299.183	1198.106
842.670	21.797	1298.088	1199.227
843.685	21.765	1297.327	1198.159
844.699	21.609	1295.782	1195.524
845.714	21.552	1294.426	1193.737
846.728	21.333	1293.256	1191.013
847.743	21.116	1292.164	1188.379
848.758	21.345	1289.910	1187.734
849.772	21.154	1289.420	1185.832
850.787	21.088	1288.110	1184.036
851.801	21.114	1286.765	1182.837
852.816	21.161	1285.311	1181.677
853.831	21.326	1283.274	1180.784
854.845	21.316	1281.574	1179.009
855.860	21.126	1281.145	1177.187
856.874	21.191	1280.041	1176.470
857.889	21.332	1279.030	1176.358
858.904	21.698	1278.012	1177.753
859.918	21.869	1277.196	1178.012
860.933	21.847	1275.929	1176.553
861.947	21.713	1274.974	1174.631
862.962	21.424	1273.752	1171.418
863.977	21.394	1271.625	1169.120
864.991	21.142	1270.875	1166.601
866.006	21.193	1270.304	1166.278
867.020	21.077	1269.079	1164.237
868.035	21.173	1267.687	1163.459
869.049	21.030	1267.071	1161.799
870.064	21.155	1266.218	1161.712
871.079	21.175	1265.126	1160.705
872.093	21.120	1264.718	1159.829
873.108	21.309	1263.572	1159.900
874.122	21.308	1262.391	1158.666
875.137	21.357	1262.503	1158.959
876.152	21.812	1260.842	1160.322
877.166	21.739	1258.995	1158.000
878.181	21.473	1257.344	1154.577
879.195	21.333	1256.959	1153.159
880.210	21.242	1255.915	1151.459
881.225	21.201	1255.075	1150.281
882.239	21.173	1254.480	1149.412
883.254	21.104	1253.399	1147.826
884.268	21.184	1252.506	1147.404
885.283	21.247	1250.786	1146.104
886.298	21.130	1249.838	1144.329
887.312	21.175	1248.692	1143.437
888.327	21.247	1247.605	1142.777
889.341	21.326	1245.991	1141.679
890.356	21.091	1245.551	1139.596
891.371	21.062	1245.830	1139.529
892.385	21.108	1245.019	1138.952
893.400	21.075	1243.789	1137.472
894.414	21.164	1243.004	1137.201
895.429	21.534	1241.276	1137.906
896.444	22.001	1240.381	1139.996
897.458	22.091	1239.846	1139.953
898.473	21.840	1238.883	1137.295
899.487	21.694	1236.588	1134.104
900.502	21.365	1235.486	1130.816
901.517	21.114	1234.169	1127.849
902.531	21.177	1233.352	1127.372
903.546	21.285	1232.058	1126.759
904.560	21.255	1231.396	1125.821
905.575	21.232	1231.607	1125.734
906.589	21.265	1230.076	1124.410
907.604	21.264	1229.620	1123.853
