DTS Sentinel unit serial number:	SN409020Multiplexer serial number:	ORYXHardware model number:	OX4-SRSoftware version number:	ORYX F/W v3.00 Oryx Data Collector v3.7.2.0data status	okinstallation	HaddamTimeLapsedifferential loss correction	single-endedforward channel	channel 3reverse channel	N/Adate	2011/06/21time	19:16:17forward acquisition time	30.00reverse acquisition time	0.00gamma	498.7831k internal	0.1798k external	0.1798temperature offset calibration	1.0074default loss term (dB/km)	0.3790temperature slope calibration	1.3530multiplexer offset coefficient	1.0000multiplexer slope coefficient	1.0000fibre end	0.00T internal ref (°C)	34.25T ext. ref 1 (°C)	26.22T ext. ref 2 (°C)	0.23length (m)	temperature (°C)	Stokes	anti-Stokes-747.200	-161.037	-0.380	0.025
-746.185	152.878	0.109	0.193
-745.171	50.619	-0.269	0.330
-744.156	-60.670	0.098	0.054
-743.142	483.274	-0.069	-0.205
-742.127	786.407	0.167	0.596
-741.112	800.000	-0.075	-0.297
-740.098	-146.440	-0.359	0.040
-739.083	-89.201	-0.201	0.076
-738.069	-200.000	0.036	0.400
-737.054	-95.962	0.280	0.096
-736.039	-105.617	-0.329	-0.096
-735.025	-44.609	0.148	0.095
-734.010	589.446	-0.119	-0.380
-732.996	-69.149	-0.231	-0.114
-731.981	-200.000	-0.011	-0.615
-730.966	-52.545	-0.229	-0.136
-729.952	-54.717	0.140	-0.082
-728.937	365.822	-0.165	-0.431
-727.923	-44.901	0.217	0.139
-726.908	800.000	-0.107	0.492
-725.894	93.237	0.153	0.224
-724.879	-200.000	0.032	0.477
-723.864	173.181	0.196	-0.365
-722.850	-200.000	0.005	-0.047
-721.835	800.000	0.111	-0.457
-720.821	14.698	0.366	-0.369
-719.806	217.896	-0.031	0.064
-718.791	800.000	-0.013	-0.069
-717.777	35.173	0.256	0.291
-716.762	113.819	0.107	0.169
-715.748	117.019	-0.266	-0.423
-714.733	55.202	0.090	0.113
-713.718	398.765	-0.125	-0.338
-712.704	-185.262	-0.125	-0.002
-711.689	-45.880	0.105	-0.067
-710.675	140.797	0.160	0.274
-709.660	-200.000	0.034	0.242
-708.645	554.076	0.216	-0.675
-707.631	-200.000	0.006	0.086
-706.616	254.290	-0.066	0.146
-705.602	-7.298	0.064	0.056
-704.587	-52.658	0.133	0.079
-703.572	-200.000	-0.073	-0.427
-702.558	0.461	-0.192	0.177
-701.543	-22.408	-0.084	0.065
-700.529	-200.000	-0.003	0.341
-699.514	79.837	0.121	0.167
-698.499	-200.000	0.007	-0.274
-697.485	-38.357	0.226	-0.154
-696.470	800.000	-0.056	0.210
-695.456	266.910	-0.075	0.171
-694.441	-109.781	-0.113	0.030
-693.426	800.000	0.106	-0.410
-692.412	-3.085	-0.176	-0.159
-691.397	78.596	-0.163	-0.225
-690.383	10.876	0.362	-0.357
-689.368	800.000	0.042	-0.182
-688.354	-148.380	0.195	-0.020
-687.339	800.000	0.044	0.194
-686.324	-64.398	0.285	-0.149
-685.310	-119.941	-0.362	0.080
-684.295	-200.000	0.073	0.449
-683.281	800.000	-0.098	-0.365
-682.266	800.000	0.049	0.238
-681.251	350.988	-0.294	-0.755
-680.237	800.000	-0.061	-0.217
-679.222	-111.237	-0.281	0.074
-678.208	-200.000	0.073	-0.457
-677.193	-40.795	0.224	-0.149
-676.178	-131.808	0.550	-0.092
-675.164	-127.842	-0.189	-0.035
-674.149	556.179	-0.111	0.346
-673.135	254.968	-0.065	-0.145
-672.120	-60.007	0.119	-0.065
-671.105	-30.768	0.256	-0.187
-670.091	1.193	0.062	0.057
-669.076	-200.000	0.016	-0.113
-668.062	149.772	0.054	0.094
-667.047	-37.512	0.291	0.199
-666.032	-6.856	0.465	0.408
-665.018	15.612	0.238	-0.241
-664.003	41.036	0.259	0.302
-662.989	38.677	0.452	0.520
-661.974	-32.672	-0.064	-0.046
-660.959	-191.525	0.275	-0.003
-659.945	9.924	0.329	-0.322
-658.930	-41.671	-0.043	-0.029
-657.916	13.368	-0.228	0.228
-656.901	-200.000	0.058	0.422
-655.886	-130.991	-0.543	-0.093
-654.872	-158.222	-0.253	-0.019
-653.857	-133.515	-0.407	0.065
-652.843	-83.852	-0.311	-0.127
-651.828	-92.509	-0.142	0.051
-650.814	-200.000	0.039	-0.435
-649.799	-76.133	-0.138	0.063
-648.784	800.000	-0.023	0.082
-647.770	275.558	0.174	-0.398
-646.755	141.536	-0.210	-0.358
-645.741	-200.000	0.057	-0.456
-644.726	-200.000	0.009	-0.085
-643.711	-89.452	0.414	-0.156
-642.697	56.063	-0.160	0.201
-641.682	-13.719	-0.157	0.131
-640.668	27.202	-0.138	0.150
-639.653	-43.933	0.131	0.085
-638.638	-3.312	0.024	0.022
-637.624	405.473	-0.123	0.335
-636.609	-40.783	-0.109	0.073
-635.595	-200.000	0.002	-0.349
-634.580	511.122	0.058	0.175
-633.565	-113.625	-0.236	0.059
-632.551	515.501	-0.073	0.222
-631.536	-178.796	-0.407	0.012
-630.522	-170.236	-0.221	-0.010
-629.507	271.593	0.199	0.453
-628.492	4.104	-0.203	-0.192
-627.478	398.571	0.036	0.098
-626.463	-114.732	-0.260	0.064
-625.449	800.000	0.013	0.067
-624.434	-147.347	-0.269	-0.029
-623.419	-52.865	-0.422	0.250
-622.405	116.694	-0.145	0.229
-621.390	-71.750	-0.344	-0.164
-620.376	22.148	-0.159	-0.167
-619.361	-164.796	-0.301	0.017
-618.346	128.178	-0.033	-0.054
-617.332	-142.017	0.191	0.024
-616.317	-120.769	0.281	-0.061
-615.303	180.996	-0.166	-0.316
-614.288	-23.967	0.129	-0.099
-613.273	-155.483	0.604	0.050
-612.259	-33.730	-0.115	-0.082
-611.244	47.164	0.078	-0.093
-610.230	352.513	-0.111	0.285
-609.215	128.245	-0.299	0.491
-608.201	49.063	-0.247	-0.299
-607.186	-171.545	0.223	-0.009
-606.171	-166.322	-0.654	0.035
-605.157	116.461	-0.263	-0.416
-604.142	-111.120	-0.096	-0.025
-603.128	129.407	-0.294	0.483
-602.113	26.780	-0.008	0.009
-601.098	-37.557	0.371	-0.254
-600.084	-85.766	-0.395	0.157
-599.069	800.000	-0.051	-0.209
-598.055	-200.000	0.008	0.228
-597.040	-5.761	-0.519	-0.456
-596.025	-41.521	0.128	-0.084
-595.011	-114.417	0.333	0.082
-593.996	-50.689	-0.133	0.080
-592.982	15.830	-0.083	-0.084
-591.967	-39.179	-0.126	-0.085
-590.952	-158.373	0.128	0.009
-589.938	21.841	-0.193	-0.203
-588.923	800.000	-0.055	-0.225
-587.909	-75.317	-0.410	-0.187
-586.894	-190.178	-0.108	0.001
-585.879	-55.462	-0.132	0.076
-584.865	3.053	0.049	0.046
-583.850	440.052	-0.087	-0.245
-582.836	-140.257	-0.398	-0.053
-581.821	570.316	-0.096	0.303
-580.806	-174.185	0.224	-0.008
-579.792	12.920	-0.075	-0.074
-578.777	800.000	-0.141	-0.634
-577.763	155.048	0.107	-0.189
-576.748	-72.149	0.332	0.157
-575.733	-50.909	-0.230	-0.139
-574.719	-200.000	-0.001	0.150
-573.704	-128.198	-0.420	-0.076
-572.690	98.711	-0.257	-0.381
-571.675	641.725	-0.044	-0.145
-570.661	61.920	0.279	0.358
-569.646	-200.000	-0.013	0.221
-568.631	-200.000	0.005	0.208
-567.617	22.157	-0.331	0.347
-566.602	-79.353	-0.568	0.246
-565.588	-43.840	-0.246	0.159
-564.573	2.973	-0.149	0.139
-563.558	-73.788	-0.370	-0.172
-562.544	-68.425	0.311	0.155
-561.529	324.866	0.074	0.182
-560.515	21.405	-0.480	0.501
-559.500	121.982	0.158	0.253
-558.485	800.000	0.019	-0.096
-557.471	63.917	0.006	-0.008
-556.456	-35.425	0.124	-0.086
-555.442	-141.831	0.313	0.040
-554.427	-72.470	-0.163	-0.077
-553.412	33.819	-0.314	-0.351
-552.398	800.000	0.050	-0.216
-551.383	-40.150	-0.351	-0.234
-550.369	154.576	0.040	0.071
-549.354	-200.000	0.013	0.079
-548.339	-116.922	0.093	0.022
-547.325	-200.000	0.016	0.630
-546.310	-200.000	0.020	-0.321
-545.296	-127.739	0.357	-0.066
-544.281	-102.603	0.314	0.096
-543.266	-12.427	-0.157	-0.131
-542.252	51.652	-0.201	-0.245
-541.237	57.150	0.316	0.396
-540.223	-118.035	0.106	-0.024
-539.208	470.204	0.147	-0.427
-538.193	-200.000	0.001	-0.104
-537.179	372.993	-0.062	-0.163
-536.164	89.802	-0.071	0.102
-535.150	-14.342	-0.213	-0.176
-534.135	-18.193	-0.200	0.160
-533.121	618.686	-0.050	0.163
-532.106	-36.550	-0.199	0.137
-531.091	-167.379	-0.406	-0.021
-530.077	-200.000	0.001	0.068
-529.062	-200.000	-0.015	0.466
-528.048	196.828	-0.099	-0.195
-527.033	800.000	-0.045	-0.245
-526.018	-151.870	-0.137	-0.013
-525.004	-176.508	0.065	0.002
-523.989	16.637	0.383	0.388
-522.975	-21.434	-0.522	-0.408
-521.960	248.034	0.098	-0.213
-520.945	-164.581	-0.540	0.031
-519.931	-158.202	-0.260	-0.019
-518.916	-193.595	-0.121	0.001
-517.902	114.358	0.092	-0.144
-516.887	-64.092	0.196	0.102
-515.872	128.150	-0.030	-0.050
-514.858	-200.000	0.008	0.206
-513.843	-175.037	-0.319	-0.011
-512.829	-200.000	0.005	-0.117
-511.814	170.934	-0.233	-0.429
-510.799	-136.960	-0.170	-0.025
-509.785	632.313	0.151	-0.494
-508.770	-13.239	0.295	0.245
-507.756	-64.602	0.282	0.146
-506.741	7.330	0.356	0.340
-505.726	107.587	0.199	0.304
-504.712	-200.000	0.027	0.613
-503.697	-105.151	0.544	-0.158
-502.683	-77.732	0.466	-0.206
-501.668	-94.081	0.090	0.031
-500.653	58.330	0.126	0.159
-499.639	62.252	0.141	-0.181
-498.624	-87.455	0.413	0.159
-497.610	14.531	0.251	0.251
-496.595	-16.806	0.272	0.220
-495.581	-151.702	0.546	-0.051
-494.566	761.018	0.093	0.324
-493.551	202.792	-0.080	-0.159
-492.537	213.240	-0.212	-0.430
-491.522	-58.419	-0.221	0.123
-490.508	281.977	0.137	-0.316
-489.493	136.373	0.130	-0.217
-488.478	-200.000	0.036	-0.367
-487.464	539.616	0.106	0.323
-486.449	13.052	0.108	0.107
-485.435	-36.198	0.610	0.421
-484.420	-49.350	-0.283	0.172
-483.405	-103.297	-0.351	0.105
-482.391	-95.197	-0.164	-0.056
-481.376	-59.338	0.013	-0.007
-480.362	511.648	0.165	-0.496
-479.347	-200.000	0.036	-0.325
-478.332	55.185	-0.068	-0.084
-477.318	-82.857	0.427	0.176
-476.303	800.000	-0.065	-0.257
-475.289	119.093	0.152	0.241
-474.274	-91.818	-0.421	0.152
-473.259	62.545	-0.287	0.367
-472.245	-158.303	0.217	0.016
-471.230	-39.927	0.161	0.108
-470.216	-106.061	-0.303	-0.086
-469.201	800.000	-0.056	0.210
-468.186	-20.042	0.296	0.234
-467.172	-200.000	0.056	-0.535
-466.157	-70.635	-0.261	-0.126
-465.143	-120.762	0.239	-0.051
-464.128	800.000	0.143	-0.749
-463.113	-141.095	-0.323	0.042
-462.099	-154.587	0.107	0.009
-461.084	800.000	-0.024	-0.103
-460.070	-76.657	-0.415	-0.185
-459.055	-200.000	-0.041	-0.624
-458.040	-200.000	-0.015	-0.098
-457.026	-200.000	-0.005	-0.446
-456.011	800.000	0.027	0.119
-454.997	225.445	0.230	0.478
-453.982	306.574	-0.066	0.158
-452.968	-200.000	0.007	-0.293
-451.953	203.470	-0.111	0.220
-450.938	-200.000	-0.262	0.000
-449.924	-77.983	-0.297	-0.130
-448.909	-126.460	0.111	0.021
-447.895	-38.715	0.178	-0.120
-446.880	-33.233	0.422	0.298
-445.865	-200.000	0.060	-0.530
-444.851	-5.353	-0.276	-0.242
-443.836	-54.333	-0.259	-0.150
-442.822	490.124	0.059	0.175
-441.807	-110.247	0.363	-0.096
-440.792	-200.000	0.015	0.104
-439.778	97.466	-0.190	0.279
-438.763	407.008	-0.197	-0.535
-437.749	-60.171	-0.175	0.095
-436.734	721.045	-0.006	0.021
-435.719	13.984	0.324	0.322
-434.705	-32.341	-0.317	0.226
-433.690	-97.103	-0.292	-0.097
-432.676	800.000	-0.120	0.439
-431.661	-41.946	0.155	0.101
-430.646	263.943	-0.097	0.216
-429.632	-69.928	0.617	-0.300
-428.617	247.190	0.070	-0.151
-427.603	-108.236	0.378	0.104
-426.588	262.484	0.075	-0.167
-425.573	-200.000	-0.006	0.376
-424.559	800.000	0.027	0.109
-423.544	-126.000	-0.208	0.040
-422.530	-200.000	0.037	0.216
-421.515	-97.301	0.222	0.073
-420.500	-130.125	0.452	-0.078
-419.486	-69.140	0.118	-0.058
-418.471	-12.196	0.470	0.393
-417.457	500.358	0.096	0.284
-416.442	-189.255	-0.146	0.002
-415.428	-73.587	0.292	0.136
-414.413	28.109	-0.241	0.260
-413.398	-41.155	0.502	0.330
-412.384	-64.237	0.133	-0.069
-411.369	222.092	-0.107	0.221
-410.355	-129.276	-0.117	-0.021
-409.340	-75.441	0.268	-0.121
-408.325	270.503	-0.065	0.146
-407.311	-54.802	0.441	0.253
-406.296	229.073	0.152	0.318
-405.282	-80.668	-0.188	0.079
-404.267	-200.000	-0.027	0.174
-403.252	800.000	-0.051	-0.273
-402.238	-200.000	0.011	-0.239
-401.223	-200.000	-0.083	-0.578
-400.209	-27.935	0.334	-0.246
-399.194	-200.000	-0.043	-0.571
-398.179	-77.470	0.519	0.229
-397.165	-172.404	0.289	-0.012
-396.150	-59.329	0.248	0.136
-395.136	-178.173	0.184	-0.005
-394.121	-32.444	-0.225	-0.159
-393.106	-56.413	0.370	-0.209
-392.092	230.177	-0.134	-0.280
-391.077	-101.121	0.139	-0.043
-390.063	61.824	0.037	-0.047
-389.048	248.102	0.183	0.396
-388.033	-77.430	-0.156	-0.069
-387.019	-89.135	-0.427	-0.160
-386.004	793.737	-0.095	-0.336
-384.990	14.191	0.231	-0.229
-383.975	-53.992	-0.172	-0.099
-382.960	183.475	-0.068	-0.128
-381.946	-3.816	0.189	-0.167
-380.931	101.296	0.348	-0.518
-379.917	83.103	-0.278	-0.387
-378.902	11.016	0.346	-0.337
-377.888	101.638	0.106	0.158
-376.873	10.112	0.316	-0.306
-375.858	-57.907	-0.110	0.061
-374.844	283.721	-0.188	0.433
-373.829	-35.604	-0.232	-0.160
-372.815	-159.855	-0.410	0.028
-371.800	688.809	0.043	-0.145
-370.785	-200.000	0.010	0.122
-369.771	-121.463	0.297	-0.062
-368.756	-77.183	0.051	0.023
-367.742	800.000	-0.126	-0.453
-366.727	-165.898	-0.135	-0.007
-365.712	-138.539	0.286	-0.040
-364.698	149.441	-0.271	-0.469
-363.683	800.000	0.128	-0.503
-362.669	-101.630	0.064	0.020
-361.654	569.754	0.082	0.256
-360.639	800.000	-0.096	0.459
-359.625	-200.000	-0.059	-0.484
-358.610	693.685	-0.109	-0.367
-357.596	778.313	-0.084	-0.296
-356.581	-89.684	0.589	-0.219
-355.566	-94.257	0.540	-0.187
-354.552	-20.755	0.326	0.254
-353.537	623.204	0.095	0.306
-352.523	-98.196	0.424	0.138
-351.508	-88.600	0.220	-0.083
-350.493	-62.898	0.324	0.170
-349.479	-14.123	0.088	-0.072
-348.464	-98.677	-0.603	-0.195
-347.450	13.424	-0.333	-0.329
-346.435	-14.090	-0.116	0.095
-345.420	-200.000	0.074	0.586
-344.406	27.597	0.248	-0.266
-343.391	-55.292	-0.302	-0.172
-342.377	16.242	-0.112	0.112
-341.362	-10.359	-0.310	0.262
-340.348	30.682	0.178	0.194
-339.333	-200.000	-0.014	0.462
-338.318	602.382	-0.051	0.163
-337.304	-158.072	0.464	-0.034
-336.289	43.597	-0.049	0.057
-335.275	254.839	-0.222	0.486
-334.260	-200.000	0.019	0.209
-333.245	800.000	-0.116	-0.484
-332.231	-167.318	0.079	-0.004
-331.216	-121.151	-0.108	0.023
-330.202	-25.449	0.027	0.020
-329.187	491.885	0.093	0.271
-328.172	-128.334	0.196	0.035
-327.158	-200.000	-0.007	0.102
-326.143	-40.980	0.049	0.032
-325.129	10.075	-0.094	-0.091
-324.114	-200.000	0.014	0.105
-323.099	-200.000	-0.004	0.080
-322.085	154.949	-0.085	-0.149
-321.070	230.623	-0.178	-0.373
-320.056	-87.760	-0.446	-0.170
-319.041	412.346	-0.139	0.379
-318.026	-57.293	0.336	0.188
-317.012	223.852	-0.070	0.145
-315.997	64.088	-0.076	0.097
-314.983	-200.000	0.000	0.333
-313.968	28.726	0.147	0.158
-312.953	-186.447	0.258	-0.005
-311.939	-136.355	0.311	0.046
-310.924	-200.000	-0.033	0.282
-309.910	-70.216	-0.168	0.081
-308.895	-90.663	-0.498	-0.182
-307.880	-17.708	0.238	0.190
-306.866	39.778	0.028	-0.032
-305.851	336.297	-0.100	0.249
-304.837	-200.000	-0.084	-0.575
-303.822	-111.879	-0.234	-0.060
-302.807	400.525	-0.094	0.251
-301.793	-145.089	0.183	0.021
-300.778	-113.629	-0.505	-0.124
-299.764	-139.868	-0.562	-0.075
-298.749	82.071	0.154	0.212
-297.735	-113.817	0.160	0.039
-296.720	-38.237	0.343	0.230
-295.705	-65.904	0.314	0.159
-294.691	70.066	-0.217	-0.285
-293.676	84.751	0.064	0.089
-292.662	47.704	-0.132	0.157
-291.647	800.000	-0.088	-0.365
-290.632	210.450	0.262	-0.525
-289.618	542.921	0.093	-0.283
-288.603	95.434	0.113	-0.165
-287.589	-144.312	-0.359	0.042
-286.574	-109.235	0.494	0.132
-285.559	106.562	-0.023	0.035
-284.545	101.049	0.108	-0.160
-283.530	800.000	0.012	-0.059
-282.516	800.000	0.038	0.198
-281.501	32.128	-0.237	-0.260
-280.486	47.736	-0.124	-0.147
-279.472	-131.382	0.059	-0.010
-278.457	83.554	0.318	0.441
-277.443	-150.968	0.190	-0.018
-276.428	335.460	0.206	-0.510
-275.413	152.181	0.141	-0.245
-274.399	-91.949	-0.298	0.107
-273.384	453.444	-0.099	-0.280
-272.370	-85.861	0.330	-0.129
-271.355	-102.788	-0.219	-0.066
-270.340	-83.668	-0.701	-0.283
-269.326	800.000	-0.078	0.380
-268.311	-16.000	0.194	-0.156
-267.297	6.409	0.301	0.283
-266.282	49.444	0.077	-0.093
-265.267	800.000	-0.081	0.399
-264.253	672.509	0.125	0.414
-263.238	-200.000	0.018	-0.134
-262.224	5.970	-0.103	0.097
-261.209	-162.592	0.272	0.017
-260.195	17.392	-0.310	-0.313
-259.180	-200.000	0.069	-0.456
-258.165	-58.020	-0.069	-0.038
-257.151	-2.010	0.224	0.200
-256.136	-105.263	-0.436	-0.125
-255.122	167.637	-0.154	-0.278
-254.107	113.508	-0.314	-0.485
-253.092	-46.088	0.219	0.137
-252.078	12.145	0.360	0.351
-251.063	-128.534	0.303	0.054
-250.049	29.959	-0.248	0.268
-249.034	-27.934	-0.187	-0.137
-248.019	41.397	0.159	-0.182
-247.005	120.992	0.256	0.406
-245.990	13.838	-0.249	0.245
-244.976	-89.013	0.038	0.014
-243.961	-200.000	-0.032	0.423
-242.946	-200.000	0.045	0.271
-241.932	1.646	0.110	-0.100
-240.917	-47.668	0.270	-0.166
-239.903	454.803	-0.048	-0.136
-238.888	106.714	0.218	0.329
-237.873	800.000	0.049	-0.203
-236.859	592.764	0.026	-0.083
-235.844	-200.000	0.014	0.490
-234.830	-46.485	-0.314	0.195
-233.815	748.119	-0.026	-0.090
-232.800	371.499	0.063	-0.163
-231.786	-6.360	0.281	0.243
-230.771	190.973	-0.124	0.236
-229.757	-188.958	0.208	-0.003
-228.742	77.870	0.366	0.495
-227.727	-44.518	0.104	-0.066
-226.713	-57.136	-0.352	-0.196
-225.698	27.306	-0.305	-0.325
-224.684	58.192	-0.248	-0.309
-223.669	336.458	-0.164	0.405
-222.655	800.000	0.055	-0.212
-221.640	-52.693	-0.134	-0.078
-220.625	-200.000	-0.086	-0.505
-219.611	10.737	-0.355	0.343
-218.596	-32.686	0.205	-0.144
-217.582	-200.000	0.073	-0.418
-216.567	92.783	0.200	0.286
-215.552	6.015	0.474	0.444
-214.538	278.374	-0.076	-0.172
-213.523	-178.470	0.045	-0.001
-212.509	105.760	0.135	-0.203
-211.494	-153.618	-0.084	0.007
-210.479	23.688	-0.224	0.234
-209.465	431.534	0.158	0.435
-208.450	123.313	-0.193	0.307
-207.436	-200.000	0.024	0.750
-206.421	-172.538	0.398	-0.016
-205.406	-200.000	0.004	0.326
-204.392	-200.000	0.006	0.102
-203.377	-40.423	-0.112	0.074
-202.363	-200.000	0.013	-0.168
-201.348	-130.134	-0.039	-0.007
-200.333	267.580	0.165	0.366
-199.319	32.617	0.254	0.279
-198.304	405.783	0.109	-0.291
-197.290	-39.264	0.566	-0.376
-196.275	52.417	0.257	-0.310
-195.260	275.555	0.153	0.346
-194.246	800.000	0.060	-0.261
-193.231	-122.420	0.304	-0.062
-192.217	-200.000	-0.049	-0.302
-191.202	-62.873	-0.194	-0.101
-190.187	-166.183	-0.209	0.011
-189.173	-82.687	-0.264	-0.108
-188.158	800.000	0.100	0.379
-187.144	-46.897	-0.045	0.028
-186.129	-63.169	-0.077	0.040
-185.114	136.731	0.117	0.195
-184.100	800.000	0.007	0.026
-183.085	72.482	0.176	-0.232
-182.071	-15.543	0.308	-0.248
-181.056	-64.669	-0.175	-0.089
-180.042	5.965	-0.148	-0.138
-179.027	17.709	-0.552	0.556
-178.012	719.081	-0.148	0.502
-176.998	-66.137	0.332	0.167
-175.983	800.000	-0.091	0.474
-174.969	-121.109	-0.453	-0.095
-173.954	-131.471	-0.076	-0.013
-172.939	-165.872	0.351	0.019
-171.925	-66.529	-0.099	-0.050
-170.910	-78.502	-0.162	0.070
-169.896	-31.799	0.114	-0.081
-168.881	14.521	-0.557	-0.550
-167.866	-200.000	0.000	0.129
-166.852	-155.399	0.523	-0.042
-165.837	533.372	0.084	0.254
-164.823	283.730	0.137	0.313
-163.808	-128.982	0.262	0.046
-162.793	63.550	-0.170	-0.216
-161.779	-200.000	0.015	0.134
-160.764	-108.872	-0.324	0.087
-159.750	611.497	0.066	-0.210
-158.735	266.503	-0.140	-0.310
-157.720	226.103	-0.146	-0.301
-156.706	800.000	-0.043	-0.217
-155.691	-200.000	-0.022	0.240
-154.677	167.648	-0.067	0.121
-153.662	166.731	-0.111	-0.199
-152.647	20.562	-0.206	0.211
-151.633	-17.519	0.190	0.151
-150.618	-117.310	0.209	0.047
-149.604	-68.538	-0.242	0.118
-148.589	800.000	0.099	0.552
-147.574	-125.063	-0.259	-0.050
-146.560	-107.761	-0.226	0.062
-145.545	-47.784	0.124	-0.076
-144.531	-8.503	-0.052	-0.044
-143.516	-7.523	-0.203	-0.173
-142.502	511.770	0.160	0.474
-141.487	-1.264	-0.088	-0.079
-140.472	-69.611	0.420	0.202
-139.458	-42.334	0.181	-0.116
-138.443	278.890	-0.282	0.638
-137.429	800.000	-0.078	0.286
-136.414	-58.136	0.328	0.180
-135.399	151.943	-0.060	0.103
-134.385	127.613	-0.151	-0.242
-133.370	-45.317	0.448	0.280
-132.356	-200.000	0.026	-0.194
-131.341	303.024	-0.108	-0.253
-130.326	449.837	-0.104	0.291
-129.312	-121.395	0.354	-0.074
-128.297	-56.714	0.184	0.102
-127.283	-31.573	0.200	-0.141
-126.268	-160.274	-0.583	0.039
-125.253	-125.681	0.122	-0.023
-124.239	-106.918	0.230	0.064
-123.224	30.346	0.172	-0.185
-122.210	-75.083	0.053	-0.024
-121.195	-200.000	0.048	0.485
-120.180	-107.975	0.325	0.088
-119.166	-103.309	0.807	-0.239
-118.151	-160.498	-0.181	0.012
-117.137	115.326	0.066	0.101
-116.122	-29.667	0.375	0.270
-115.107	-176.387	0.282	-0.009
-114.093	-15.939	-0.210	-0.168
-113.078	-26.555	0.259	-0.191
-112.064	-10.979	-0.298	0.248
-111.049	-57.722	0.237	0.130
-110.034	210.430	-0.014	0.027
-109.020	-114.670	0.543	-0.130
-108.005	86.267	0.191	-0.266
-106.991	800.000	0.007	-0.032
-105.976	-156.006	0.430	-0.034
-104.962	-106.361	-0.413	-0.116
-103.947	201.297	-0.167	0.325
-102.932	44.538	0.269	0.312
-101.918	402.863	-0.043	-0.115
-100.903	168.227	-0.086	0.155
-99.889	95.836	-0.209	-0.302
-98.874	99.752	-0.128	-0.187
-97.859	800.000	-0.054	0.201
-96.845	-128.438	-0.210	0.037
-95.830	136.121	-0.137	0.225
-94.816	-58.832	-0.308	0.167
-93.801	413.196	-0.123	0.330
-92.786	67.668	0.127	0.163
-91.772	52.688	0.355	-0.428
-90.757	-150.208	0.307	0.030
-89.743	292.537	0.130	-0.300
-88.728	-2.207	-0.196	0.174
-87.713	-200.000	-0.020	0.180
-86.699	29.343	-0.175	0.188
-85.684	-66.441	-0.148	0.074
-84.670	-160.623	0.107	0.007
-83.655	82.902	0.186	-0.256
-82.640	-67.193	-0.244	0.121
-81.626	-200.000	0.021	-0.118
-80.611	-61.936	0.412	-0.216
-79.597	-60.290	-0.421	0.225
-78.582	-61.981	-0.049	0.026
-77.567	800.000	0.097	-0.423
-76.553	-70.141	-0.054	-0.026
-75.538	416.730	0.180	-0.486
-74.524	800.000	-0.054	-0.267
-73.509	-30.911	0.315	-0.224
-72.494	-200.000	0.012	-0.290
-71.480	800.000	-0.061	-0.297
-70.465	-38.802	-0.197	-0.131
-69.451	-68.204	-0.129	-0.063
-68.436	-72.943	0.396	0.182
-67.422	-99.297	-0.538	0.170
-66.407	-111.873	-0.346	-0.087
-65.392	-33.868	-0.367	0.254
-64.378	280.148	-0.107	0.242
-63.363	293.653	0.272	0.628
-62.349	-200.000	-0.090	0.663
-61.334	-39.566	-2.070	-1.362
-60.319	-14.083	0.684	0.556
-59.305	310.600	-2.771	-6.563
-58.290	34.192	3.031	3.329
-57.276	518.227	3.648	10.812
-56.261	-200.000	15.451	238.225
-55.246	440.682	1194.505	3305.430
-54.232	59.950	2838.324	3533.724
-53.217	69.136	2724.964	3531.557
-52.203	49.302	2452.243	2905.531
-51.188	43.903	2102.664	2426.466
-50.173	36.492	1975.166	2195.019
-49.159	35.106	1964.443	2167.266
-48.144	34.715	1959.932	2157.756
-47.130	34.625	1958.051	2154.581
-46.115	34.568	1956.733	2152.403
-45.100	34.497	1955.859	2150.553
-44.086	34.582	1953.982	2149.363
-43.071	34.462	1952.209	2145.967
-42.057	34.444	1951.667	2145.085
-41.042	34.538	1949.338	2143.505
-40.027	34.507	1948.566	2142.220
-39.013	34.604	1946.285	2140.716
-37.998	34.424	1944.813	2136.981
-36.984	34.502	1943.391	2136.221
-35.969	34.433	1942.843	2134.749
-34.954	34.266	1942.150	2132.024
-33.940	34.471	1939.663	2131.518
-32.925	34.450	1938.263	2129.661
-31.911	34.344	1938.284	2128.403
-30.896	34.351	1936.935	2126.917
-29.881	34.422	1935.127	2125.647
-28.867	34.438	1933.114	2123.524
-27.852	34.408	1931.697	2121.558
-26.838	34.314	1930.961	2119.613
-25.823	34.416	1928.951	2118.453
-24.809	34.263	1927.860	2115.471
-23.794	34.294	1925.674	2113.331
-22.779	34.288	1925.723	2113.232
-21.765	34.148	1924.132	2109.841
-20.750	34.301	1922.650	2109.838
-19.736	34.294	1921.354	2108.255
-18.721	34.201	1919.456	2105.052
-17.706	34.173	1919.026	2104.187
-16.692	34.123	1917.691	2102.082
-15.677	34.147	1916.481	2100.945
-14.663	34.098	1915.075	2098.776
-13.648	34.065	1913.894	2097.028
-12.633	34.089	1912.255	2095.423
-11.619	34.040	1911.328	2093.772
-10.604	34.087	1909.728	2092.458
-9.590	34.028	1908.977	2090.902
-8.575	34.138	1907.687	2090.624
-7.560	34.014	1907.017	2088.433
-6.546	34.075	1905.100	2086.929
-5.531	34.023	1904.098	2085.169
-4.517	34.002	1902.519	2083.128
-3.502	34.039	1901.526	2082.369
-2.487	34.143	1900.465	2082.261
-1.473	34.244	1897.117	2079.624
-0.458	34.137	1876.813	2056.120
0.556	29.633	2011.371	2138.394
1.571	27.639	2224.513	2339.033
2.586	28.884	2270.676	2403.650
3.600	28.779	2273.979	2405.486
4.615	28.892	2273.024	2405.669
5.629	28.731	2270.306	2400.386
6.644	28.748	2269.140	2399.091
7.659	29.088	2267.011	2401.010
8.673	29.110	2265.604	2399.526
9.688	28.418	2270.513	2395.345
10.702	25.433	2342.209	2430.179
11.717	22.152	2405.638	2449.787
12.731	11.343	2378.537	2271.364
13.746	1.766	2351.647	2112.378
14.761	0.260	2346.795	2086.804
15.775	0.158	2344.726	2083.294
16.790	0.128	2342.775	2080.901
17.804	-0.033	2342.064	2077.786
18.819	0.080	2340.397	2077.620
19.834	0.147	2338.587	2076.701
20.848	0.110	2337.277	2074.777
21.863	0.055	2335.770	2072.427
22.877	0.017	2334.272	2070.324
23.892	0.011	2331.536	2067.570
24.907	0.028	2329.081	2065.372
25.921	0.043	2327.260	2063.719
26.936	0.104	2324.905	2062.223
27.950	0.061	2322.895	2059.608
28.965	-0.055	2322.366	2057.295
29.980	0.041	2319.812	2056.106
30.994	0.317	2317.179	2057.312
32.009	6.087	2337.130	2154.469
33.023	19.164	2376.590	2372.803
34.038	24.998	2388.295	2465.158
35.053	25.700	2385.549	2471.727
36.067	25.390	2382.463	2463.962
37.082	25.125	2381.566	2459.086
38.096	25.369	2379.827	2460.345
39.111	25.652	2376.933	2460.948
40.126	25.271	2374.194	2452.599
41.140	25.344	2372.833	2451.897
42.155	25.605	2371.892	2454.207
43.169	25.400	2369.822	2448.967
44.184	25.440	2366.702	2445.998
45.199	25.435	2364.672	2443.533
46.213	25.310	2363.811	2440.645
47.228	25.190	2362.784	2437.656
48.242	25.218	2361.345	2436.256
49.257	25.356	2358.281	2434.689
50.271	25.068	2354.986	2427.069
51.286	24.759	2351.689	2419.183
52.301	24.189	2349.602	2409.010
53.315	24.498	2350.379	2413.714
54.330	26.019	2354.060	2437.878
55.344	26.980	2353.193	2449.743
56.359	27.262	2349.830	2449.760
57.374	27.096	2349.150	2446.510
58.388	26.985	2345.473	2440.891
59.403	26.916	2340.940	2434.947
60.417	26.650	2337.242	2427.231
61.432	26.933	2336.132	2429.599
62.447	26.871	2335.643	2427.967
63.461	26.891	2333.280	2425.479
64.476	26.938	2331.225	2423.692
65.490	26.922	2330.289	2422.212
66.505	26.603	2326.731	2413.956
67.520	26.009	2324.128	2403.009
68.534	25.856	2322.215	2398.700
69.549	25.655	2317.888	2391.256
70.563	25.357	2313.800	2382.779
71.578	25.374	2312.658	2381.538
72.593	25.630	2310.786	2382.735
73.607	25.419	2308.271	2377.057
74.622	25.326	2308.291	2375.555
75.636	25.733	2305.822	2378.136
76.651	25.527	2303.530	2372.751
77.666	25.747	2301.288	2373.072
78.680	25.471	2298.640	2366.401
79.695	24.986	2295.770	2356.753
80.709	24.482	2292.484	2346.447
81.724	24.274	2289.942	2340.821
82.739	24.751	2289.300	2346.176
83.753	25.458	2290.374	2356.314
84.768	25.603	2288.006	2355.511
85.782	25.539	2287.266	2353.622
86.797	25.537	2284.696	2350.671
87.812	25.396	2282.218	2345.989
88.826	25.391	2281.288	2344.675
89.841	25.645	2278.522	2344.885
90.855	25.770	2276.551	2344.218
91.870	25.383	2274.766	2337.035
92.884	25.386	2272.036	2333.990
93.899	25.302	2270.450	2330.981
94.914	25.145	2270.959	2329.176
95.928	25.383	2271.991	2333.061
96.943	25.846	2270.161	2336.947
97.957	25.668	2266.869	2330.959
98.972	25.638	2262.960	2326.264
99.987	25.329	2260.171	2319.114
101.001	25.344	2256.903	2315.673
102.016	25.522	2255.501	2316.264
103.030	25.243	2253.807	2310.645
104.045	25.011	2249.565	2303.011
105.060	25.158	2248.730	2303.784
106.074	25.422	2248.112	2306.288
107.089	25.253	2244.289	2299.913
108.103	24.889	2244.198	2294.843
109.118	25.131	2242.901	2296.363
110.133	25.195	2241.296	2295.267
111.147	25.436	2238.965	2295.703
112.162	25.440	2238.404	2294.910
113.176	25.466	2235.727	2292.224
114.191	25.083	2233.183	2284.431
115.206	25.064	2231.687	2282.379
116.220	25.275	2230.779	2283.880
117.235	25.462	2227.891	2283.045
118.249	25.241	2226.086	2278.095
119.264	25.310	2224.065	2276.636
120.279	25.152	2221.933	2272.164
121.293	25.223	2220.086	2270.908
122.308	25.377	2219.511	2272.007
123.322	25.116	2217.527	2266.391
124.337	24.568	2216.535	2258.138
125.352	25.324	2218.452	2269.436
126.366	26.318	2218.122	2281.443
127.381	26.264	2213.906	2276.158
128.395	25.953	2211.599	2269.575
129.410	25.633	2207.736	2261.291
130.424	25.467	2206.506	2257.673
131.439	25.828	2205.338	2260.759
132.454	25.749	2203.704	2257.824
133.468	25.923	2201.539	2257.515
134.483	25.648	2200.117	2252.335
135.497	25.571	2197.701	2248.626
136.512	25.683	2196.050	2248.073
137.527	25.784	2194.139	2247.108
138.541	25.856	2192.958	2246.532
139.556	25.786	2192.799	2245.220
140.570	25.670	2191.271	2241.936
141.585	25.346	2187.775	2234.046
142.600	25.202	2186.015	2230.174
143.614	25.277	2183.694	2228.480
144.629	25.277	2182.243	2226.737
145.643	25.042	2180.443	2221.700
146.658	24.951	2178.153	2217.970
147.673	24.878	2175.401	2213.992
148.687	24.795	2173.253	2210.514
149.702	24.909	2172.027	2210.417
150.716	24.999	2173.495	2212.761
151.731	25.569	2173.735	2219.815
152.746	25.649	2171.949	2218.721
153.760	25.357	2171.809	2214.691
154.775	25.683	2170.844	2217.478
155.789	26.017	2169.880	2220.360
156.804	25.763	2165.570	2212.554
157.819	25.413	2160.767	2203.068
158.833	25.118	2158.967	2197.338
159.848	25.162	2157.137	2195.746
160.862	25.229	2155.673	2194.818
161.877	25.590	2154.392	2197.683
162.892	25.672	2154.008	2198.033
163.906	25.810	2152.282	2197.704
164.921	25.604	2149.869	2192.459
165.935	25.254	2147.811	2185.815
166.950	25.029	2145.560	2180.504
167.964	25.042	2144.230	2179.050
168.979	25.164	2141.370	2177.373
169.994	25.230	2140.400	2176.937
171.008	25.183	2139.212	2174.897
172.023	25.013	2137.638	2170.965
173.037	25.346	2136.927	2174.028
174.052	25.406	2134.320	2171.843
175.067	25.253	2133.661	2169.054
176.081	25.126	2131.642	2165.202
177.096	25.346	2131.403	2167.371
178.110	25.573	2129.657	2168.090
179.125	25.672	2128.350	2167.695
180.140	25.570	2127.650	2165.493
181.154	25.571	2126.818	2164.398
182.169	25.728	2125.529	2164.726
183.183	26.012	2123.996	2166.333
184.198	26.374	2124.678	2171.139
185.213	26.483	2122.728	2170.203
186.227	26.127	2119.529	2162.388
187.242	25.692	2116.554	2153.862
188.256	25.428	2115.044	2148.893
189.271	25.675	2113.976	2150.517
190.286	25.474	2112.300	2146.140
191.300	25.309	2108.892	2140.449
192.315	25.503	2108.130	2141.745
193.329	25.591	2106.968	2141.352
194.344	25.458	2104.761	2137.268
195.359	25.397	2103.425	2134.923
196.373	25.674	2101.425	2135.943
197.388	25.482	2098.691	2130.626
198.402	25.342	2097.936	2127.928
199.417	25.599	2095.537	2128.304
200.432	25.561	2091.834	2123.837
201.446	25.277	2091.274	2119.646
202.461	25.259	2089.842	2117.728
203.475	25.215	2088.016	2115.097
204.490	25.171	2086.246	2112.537
205.504	25.172	2084.151	2110.165
206.519	25.218	2081.356	2107.625
207.534	25.348	2080.385	2107.932
208.548	25.583	2079.411	2109.465
209.563	25.340	2077.446	2104.349
210.577	25.516	2077.325	2106.048
211.592	25.711	2076.918	2107.682
212.607	25.612	2077.567	2106.918
213.621	25.755	2077.057	2107.831
214.636	25.947	2075.244	2108.002
215.650	26.121	2074.074	2108.600
216.665	26.322	2070.102	2106.670
217.680	25.708	2067.571	2096.650
218.694	25.561	2065.223	2092.307
219.709	25.318	2062.932	2086.896
220.723	25.061	2062.230	2082.928
221.738	25.527	2060.885	2086.755
222.753	25.719	2059.166	2087.004
223.767	25.614	2057.587	2083.937
224.782	25.440	2055.649	2079.692
225.796	25.462	2054.150	2078.190
226.811	25.384	2052.889	2075.761
227.826	25.448	2049.892	2073.227
228.840	25.133	2049.222	2068.648
229.855	25.206	2048.739	2068.752
230.869	25.402	2046.875	2068.899
231.884	25.678	2045.443	2070.386
232.899	25.912	2044.504	2071.896
233.913	25.899	2043.979	2070.961
234.928	25.699	2042.588	2066.998
235.942	25.161	2040.071	2058.001
236.957	25.057	2037.882	2054.348
237.972	25.321	2037.547	2056.803
238.986	25.277	2036.432	2054.930
240.001	25.126	2033.319	2049.809
241.015	25.100	2032.628	2048.564
242.030	25.748	2033.342	2056.487
243.045	26.220	2033.722	2062.037
244.059	26.510	2031.856	2063.221
245.074	26.424	2029.385	2059.481
246.088	25.815	2025.432	2048.267
247.103	25.776	2023.973	2046.101
248.117	26.210	2023.376	2050.203
249.132	26.203	2020.667	2047.138
250.147	25.870	2017.509	2039.899
251.161	25.362	2015.910	2032.264
252.176	25.429	2014.897	2031.766
253.190	25.446	2011.889	2028.676
254.205	25.343	2010.337	2025.701
255.220	25.160	2008.243	2021.276
256.234	24.861	2006.576	2015.968
257.249	24.757	2006.024	2014.004
258.263	24.970	2005.516	2015.660
259.278	24.960	2003.750	2013.525
260.293	25.067	2003.012	2013.750
261.307	25.218	2001.196	2013.391
262.322	25.398	2000.211	2014.192
263.336	25.050	1996.817	2006.614
264.351	25.009	1995.363	2004.457
265.366	25.297	1995.168	2007.254
266.380	25.475	1994.192	2008.031
267.395	25.505	1992.257	2006.181
268.409	25.622	1991.362	2006.344
269.424	25.617	1989.729	2004.407
270.439	25.396	1989.208	2001.165
271.453	25.999	1989.126	2007.592
272.468	26.302	1988.202	2009.806
273.482	26.085	1986.205	2005.129
274.497	25.791	1981.250	1996.614
275.512	25.581	1979.228	1991.998
276.526	25.517	1977.459	1989.261
277.541	25.246	1974.235	1982.770
278.555	24.942	1972.517	1977.435
279.570	25.012	1971.365	1976.825
280.585	24.978	1969.426	1974.264
281.599	25.131	1968.751	1975.041
282.614	25.318	1968.146	1976.273
283.628	25.452	1967.328	1976.696
284.643	25.222	1965.520	1972.099
285.657	24.946	1962.141	1965.431
286.672	24.875	1960.748	1963.015
287.687	24.685	1959.074	1959.019
288.701	24.659	1958.100	1957.522
289.716	24.486	1955.490	1952.778
290.730	23.822	1953.964	1943.724
291.745	24.721	1953.161	1952.559
292.760	25.164	1953.224	1957.255
293.774	24.969	1953.351	1955.005
294.789	25.338	1952.810	1958.277
295.803	25.607	1950.486	1958.655
296.818	25.469	1949.381	1955.803
297.833	25.973	1948.886	1960.577
298.847	25.572	1946.640	1953.712
299.862	25.320	1944.450	1948.528
300.876	25.585	1943.841	1950.573
301.891	26.367	1945.142	1960.176
302.906	26.551	1943.586	1960.377
303.920	25.857	1940.313	1949.292
304.935	25.837	1937.929	1946.444
305.949	25.731	1935.868	1942.998
306.964	25.796	1933.754	1941.343
307.979	25.261	1931.100	1932.653
308.993	24.259	1926.312	1916.812
310.008	23.054	1922.761	1900.038
311.022	22.735	1920.503	1894.134
312.037	22.926	1920.127	1895.603
313.052	22.850	1916.495	1890.976
314.066	22.423	1915.218	1884.889
315.081	22.631	1914.559	1886.259
316.095	22.601	1913.448	1884.613
317.110	22.240	1912.081	1879.157
318.125	22.082	1910.062	1875.261
319.139	22.196	1908.209	1874.432
320.154	22.483	1907.834	1876.921
321.168	22.613	1906.878	1877.147
322.183	23.848	1907.780	1891.017
323.197	25.223	1910.088	1907.787
324.212	25.506	1908.172	1908.671
325.227	25.394	1905.923	1905.001
326.241	25.582	1905.231	1906.082
327.256	25.714	1903.686	1905.716
328.270	25.188	1903.062	1899.266
329.285	25.159	1902.456	1898.125
330.300	25.369	1902.572	1900.242
331.314	25.923	1902.999	1906.337
332.329	26.220	1900.703	1906.961
333.343	25.644	1897.629	1897.538
334.358	25.209	1894.213	1889.291
335.373	25.293	1893.226	1888.972
336.387	25.688	1891.917	1891.611
337.402	25.698	1891.137	1890.719
338.416	25.630	1888.806	1887.444
339.431	25.562	1888.098	1885.793
340.446	25.657	1884.626	1883.099
341.460	24.871	1882.980	1872.961
342.475	24.180	1878.232	1860.765
343.489	23.081	1874.457	1845.276
344.504	22.605	1872.810	1838.448
345.519	22.573	1871.435	1836.544
346.533	22.500	1868.211	1832.400
347.548	22.559	1868.151	1832.732
348.562	22.634	1866.596	1831.780
349.577	22.741	1866.047	1832.134
350.592	22.893	1865.548	1833.008
351.606	22.972	1864.255	1832.341
352.621	22.590	1861.481	1825.420
353.635	22.551	1859.887	1823.240
354.650	23.208	1861.889	1831.812
355.665	24.620	1861.967	1846.346
356.679	25.151	1862.473	1852.150
357.694	25.536	1862.611	1856.060
358.708	25.784	1861.961	1857.759
359.723	25.751	1861.969	1857.200
360.738	26.271	1861.502	1861.903
361.752	26.275	1860.278	1860.492
362.767	26.365	1857.461	1858.386
363.781	26.101	1854.552	1852.533
364.796	25.738	1852.705	1846.720
365.810	25.785	1851.337	1845.618
366.825	25.290	1848.227	1837.207
367.840	23.689	1842.957	1815.315
368.854	22.520	1840.746	1800.918
369.869	22.730	1838.928	1801.071
370.883	23.029	1838.167	1803.179
371.898	22.962	1837.582	1801.701
372.913	23.029	1834.956	1799.600
373.927	22.587	1833.568	1793.498
374.942	22.672	1833.029	1793.624
375.956	23.363	1833.713	1801.146
376.971	23.838	1832.623	1804.713
377.986	24.226	1831.054	1806.902
379.000	24.192	1829.382	1804.687
380.015	24.047	1828.491	1802.120
381.029	24.892	1827.975	1809.993
382.044	25.272	1827.416	1813.075
383.059	25.206	1826.234	1811.020
384.073	25.399	1825.636	1812.163
385.088	25.596	1825.415	1813.729
386.102	25.536	1824.287	1811.780
387.117	25.226	1821.328	1805.492
388.132	25.276	1820.373	1804.832
389.146	25.456	1822.430	1808.474
390.161	26.029	1821.160	1812.789
391.175	26.100	1817.102	1809.245
392.190	25.483	1812.573	1798.319
393.205	25.351	1811.298	1795.514
394.219	25.193	1809.678	1792.108
395.234	25.181	1808.013	1790.122
396.248	25.209	1805.658	1787.859
397.263	24.885	1803.695	1782.458
398.278	25.092	1801.835	1782.479
399.292	25.106	1801.529	1782.095
400.307	24.941	1799.965	1778.696
401.321	24.838	1798.214	1775.719
402.336	24.937	1798.144	1776.422
403.350	24.860	1795.453	1772.792
404.365	24.560	1793.801	1767.965
405.380	24.029	1790.302	1759.030
406.394	22.718	1787.460	1743.014
407.409	22.464	1785.586	1738.457
408.423	22.637	1784.911	1739.303
409.438	22.660	1782.873	1737.342
410.453	22.609	1781.912	1735.691
411.467	22.844	1781.261	1737.172
412.482	23.057	1780.571	1738.401
413.496	24.682	1782.796	1756.427
414.511	25.517	1782.418	1764.081
415.526	25.393	1779.874	1760.129
416.540	25.307	1778.468	1757.687
417.555	25.453	1778.457	1758.899
418.569	25.563	1778.397	1759.712
419.584	25.497	1778.455	1758.906
420.599	25.678	1778.610	1760.630
421.613	26.012	1777.635	1762.738
422.628	25.766	1774.960	1757.461
423.642	25.121	1772.150	1748.149
424.657	24.868	1770.457	1743.798
425.672	25.347	1768.840	1746.677
426.686	25.388	1767.038	1745.088
427.701	24.986	1765.018	1738.965
428.715	24.865	1764.481	1737.051
429.730	25.136	1763.777	1738.790
430.745	25.491	1763.299	1741.563
431.759	25.800	1763.798	1744.864
432.774	26.397	1763.409	1750.079
433.788	25.299	1759.529	1735.352
434.803	23.770	1757.096	1717.894
435.818	23.773	1755.141	1715.813
436.832	23.699	1754.414	1714.177
437.847	23.168	1748.170	1702.736
438.861	14.497	1723.165	1595.147
439.876	3.125	1701.431	1466.355
440.890	0.425	1696.486	1436.096
441.905	0.161	1695.160	1432.284
442.920	0.166	1693.010	1430.341
443.934	0.187	1691.766	1429.315
444.949	0.085	1691.278	1427.759
445.963	0.034	1690.758	1426.670
446.978	0.046	1690.080	1426.035
447.993	0.149	1688.114	1425.187
449.007	0.101	1686.301	1423.037
450.022	0.060	1684.211	1420.709
451.036	0.113	1682.990	1420.013
452.051	1.576	1689.988	1439.671
453.066	12.458	1715.549	1565.933
454.080	22.764	1730.039	1677.990
455.095	24.781	1735.045	1701.955
456.109	26.602	1737.775	1721.850
457.124	27.231	1737.249	1727.128
458.139	27.085	1735.810	1724.102
459.153	26.748	1735.170	1720.039
460.168	26.704	1733.441	1717.708
461.182	27.173	1732.534	1721.064
462.197	27.740	1731.114	1724.836
463.212	27.742	1729.592	1723.133
464.226	27.699	1729.171	1722.103
465.241	28.030	1728.760	1724.626
466.255	28.309	1728.010	1726.319
467.270	28.137	1727.166	1723.638
468.285	28.135	1725.441	1721.688
469.299	28.344	1725.225	1723.241
470.314	28.758	1722.934	1724.655
471.328	28.640	1722.238	1722.642
472.343	28.586	1721.708	1721.397
473.358	28.703	1719.308	1719.894
474.372	28.867	1718.446	1720.368
475.387	28.859	1717.851	1719.486
476.401	28.810	1716.051	1717.018
477.416	28.408	1713.950	1710.944
478.430	28.484	1712.740	1710.238
479.445	28.512	1712.567	1710.126
480.460	28.437	1709.739	1706.399
481.474	28.558	1709.745	1707.334
482.489	28.778	1708.583	1708.026
483.503	28.881	1706.350	1706.546
484.518	28.602	1705.429	1702.815
485.533	28.816	1704.276	1703.455
486.547	28.813	1701.595	1700.547
487.562	28.576	1700.946	1697.487
488.576	28.869	1699.938	1699.002
489.591	28.968	1700.394	1700.174
490.606	28.969	1698.110	1697.702
491.620	28.949	1696.659	1695.856
492.635	28.972	1694.786	1693.997
493.649	28.830	1692.768	1690.465
494.664	28.492	1690.909	1685.282
495.679	28.310	1689.313	1681.816
496.693	28.434	1688.705	1682.151
497.708	28.519	1688.502	1682.527
498.722	28.820	1687.257	1683.862
499.737	29.121	1685.436	1684.613
500.752	28.946	1683.935	1681.299
501.766	28.721	1683.049	1678.150
502.781	28.943	1681.396	1678.340
503.795	28.995	1680.424	1677.642
504.810	28.849	1678.828	1674.511
505.825	28.751	1678.078	1672.666
506.839	28.548	1675.899	1668.439
507.854	28.445	1674.911	1666.316
508.868	28.550	1672.722	1664.889
509.883	28.323	1671.665	1661.571
510.898	28.185	1670.315	1658.775
511.912	27.698	1667.226	1651.080
512.927	27.077	1664.467	1642.501
513.941	27.017	1663.191	1640.506
514.956	27.152	1662.393	1640.745
515.971	27.574	1661.588	1643.579
516.985	27.514	1660.198	1641.470
518.000	27.236	1659.784	1638.340
519.014	27.318	1658.910	1638.028
520.029	27.367	1656.601	1635.999
521.043	27.333	1655.011	1633.926
522.058	27.489	1654.905	1635.028
523.073	27.656	1654.593	1636.027
524.087	28.111	1653.466	1638.817
525.102	28.226	1652.930	1639.129
526.116	28.219	1651.733	1637.684
527.131	28.361	1651.503	1638.532
528.146	28.749	1650.849	1641.174
529.160	29.024	1650.275	1642.872
530.175	28.980	1649.523	1641.533
531.189	29.275	1648.314	1642.781
532.204	29.188	1647.087	1640.582
533.219	29.062	1645.376	1637.551
534.233	28.933	1643.828	1634.666
535.248	28.893	1641.904	1632.197
536.262	28.961	1641.990	1632.700
537.277	29.159	1641.702	1633.981
538.292	29.302	1639.322	1632.688
539.306	29.160	1638.135	1630.048
540.321	29.010	1635.764	1626.159
541.335	28.452	1634.208	1619.461
542.350	28.873	1633.052	1621.859
543.365	29.327	1632.276	1624.918
544.379	29.648	1631.003	1626.299
545.394	29.516	1629.295	1623.236
546.408	29.045	1627.434	1617.025
547.423	28.608	1626.277	1611.825
548.438	28.777	1625.857	1612.709
549.452	29.120	1624.384	1614.080
550.467	29.061	1622.637	1611.628
551.481	28.948	1622.100	1609.907
552.496	28.970	1622.271	1610.076
553.511	29.404	1621.177	1612.616
554.525	29.576	1618.819	1611.583
555.540	29.346	1619.098	1609.652
556.554	29.351	1617.582	1607.995
557.569	29.174	1614.745	1603.432
558.583	28.842	1613.763	1599.368
559.598	28.814	1612.498	1597.677
560.613	28.931	1610.966	1596.988
561.627	28.894	1609.816	1595.332
562.642	28.571	1608.302	1590.829
563.656	28.484	1606.518	1588.117
564.671	28.174	1604.612	1583.346
565.686	28.026	1602.813	1580.096
566.700	27.657	1601.073	1574.986
567.715	27.483	1599.738	1571.977
568.729	27.626	1598.036	1571.358
569.744	27.978	1596.300	1572.501
570.759	28.035	1595.870	1572.384
571.773	27.946	1594.837	1570.407
572.788	27.951	1593.932	1569.372
573.802	27.754	1592.241	1565.825
574.817	27.842	1590.691	1564.866
575.832	27.927	1590.114	1564.850
576.846	28.449	1590.102	1569.136
577.861	28.818	1589.362	1571.394
578.875	28.923	1589.230	1571.979
579.890	29.177	1588.375	1573.127
580.905	29.387	1587.341	1573.714
581.919	29.604	1587.275	1575.323
582.934	29.746	1586.620	1575.694
583.948	29.659	1584.665	1572.822
584.963	29.458	1583.149	1569.408
585.978	29.243	1581.403	1565.653
586.992	29.128	1580.312	1563.410
588.007	29.272	1580.206	1564.345
589.021	28.658	1577.452	1556.199
590.036	27.809	1575.110	1546.478
591.051	28.470	1574.852	1551.664
592.065	29.207	1574.345	1557.241
593.080	29.415	1573.558	1558.047
594.094	29.529	1571.555	1556.839
595.109	29.228	1568.968	1551.549
596.123	29.274	1568.344	1551.129
597.138	29.609	1567.259	1552.703
598.153	29.462	1565.977	1550.002
599.167	29.119	1564.069	1545.044
600.182	29.149	1563.550	1544.591
601.196	29.247	1563.029	1544.721
602.211	29.387	1562.477	1545.167
603.226	29.474	1561.131	1544.382
604.240	29.801	1559.428	1545.263
605.255	29.929	1558.261	1544.991
606.269	29.739	1557.597	1542.557
607.284	29.512	1556.434	1539.321
608.299	29.522	1554.547	1537.352
609.313	29.266	1552.776	1533.276
610.328	28.960	1552.037	1529.810
611.342	29.205	1550.065	1529.723
612.357	29.409	1549.035	1530.225
613.372	29.314	1548.312	1528.539
614.386	28.896	1547.150	1523.728
615.401	28.938	1546.239	1522.998
616.415	28.892	1545.674	1521.871
617.430	28.558	1543.779	1517.052
618.445	28.466	1542.750	1515.094
619.459	28.183	1541.089	1510.932
620.474	28.064	1538.970	1507.687
621.488	28.110	1537.677	1506.619
622.503	28.245	1536.919	1506.815
623.518	28.279	1536.303	1506.312
624.532	28.379	1535.090	1505.766
625.547	28.339	1533.771	1503.964
626.561	28.409	1533.622	1504.216
627.576	28.504	1533.096	1504.300
628.591	28.433	1531.578	1502.052
629.605	28.655	1529.875	1502.028
630.620	28.564	1529.028	1500.266
631.634	28.698	1528.627	1500.791
632.649	28.713	1527.835	1499.958
633.663	28.830	1526.297	1499.233
634.678	28.730	1524.565	1496.526
635.693	28.643	1522.639	1493.749
636.707	28.668	1520.759	1491.931
637.722	28.775	1519.423	1491.309
638.736	29.202	1519.387	1494.578
639.751	29.438	1519.576	1496.516
640.766	29.370	1518.570	1494.787
641.780	29.506	1516.645	1493.826
642.795	29.559	1516.253	1493.692
643.809	29.622	1516.231	1494.001
644.824	29.712	1515.307	1493.640
645.839	29.761	1514.246	1492.814
646.853	29.920	1512.720	1492.420
647.868	29.693	1510.804	1488.511
648.882	29.499	1509.418	1485.403
649.897	29.533	1507.396	1483.509
650.912	29.231	1506.531	1480.043
651.926	29.527	1505.511	1481.253
652.941	29.472	1504.461	1479.597
653.955	28.855	1502.843	1472.862
654.970	28.281	1499.188	1464.491
655.985	28.121	1497.272	1461.160
656.999	28.029	1495.975	1458.981
658.014	28.347	1495.818	1461.202
659.028	28.891	1496.334	1465.889
660.043	29.409	1495.722	1469.261
661.058	29.644	1494.224	1469.496
662.072	29.649	1493.545	1468.693
663.087	29.500	1492.298	1466.103
664.101	29.313	1491.089	1463.244
665.116	29.466	1490.174	1463.389
666.131	29.589	1489.424	1463.462
667.145	29.677	1488.230	1462.815
668.160	29.870	1486.950	1462.910
669.174	29.714	1486.100	1460.665
670.189	29.816	1485.636	1460.845
671.204	29.824	1484.271	1459.390
672.218	29.709	1483.809	1457.848
673.233	30.089	1482.149	1459.049
674.247	30.168	1480.301	1457.679
675.262	30.085	1479.856	1456.415
676.276	30.050	1478.973	1455.091
677.291	29.835	1478.263	1452.526
678.306	29.760	1476.263	1449.797
679.320	29.618	1474.409	1446.680
680.335	29.490	1474.021	1445.116
681.349	29.796	1473.226	1446.571
682.364	29.754	1472.359	1445.221
683.379	29.555	1470.691	1441.847
684.393	29.353	1468.659	1438.099
685.408	29.469	1467.565	1437.765
686.422	29.242	1467.037	1435.295
687.437	29.084	1465.594	1432.481
688.452	28.879	1464.757	1429.888
689.466	28.834	1462.833	1427.488
690.481	28.719	1461.154	1424.777
691.495	28.836	1460.610	1424.989
692.510	29.071	1460.359	1426.407
693.525	29.049	1458.581	1424.330
694.539	28.969	1457.394	1422.379
695.554	28.917	1456.723	1421.148
696.568	28.860	1455.812	1419.649
697.583	28.762	1455.125	1418.047
698.598	29.057	1454.619	1419.674
699.612	29.366	1453.269	1420.573
700.627	29.433	1451.999	1419.685
701.641	29.545	1451.944	1420.322
702.656	29.755	1450.807	1420.662
703.671	30.062	1450.355	1422.418
704.685	30.228	1450.139	1423.318
705.700	29.935	1448.708	1419.486
706.714	29.606	1446.247	1414.374
707.729	29.403	1444.680	1411.111
708.744	29.607	1443.204	1411.071
709.758	29.326	1442.261	1407.817
710.773	28.624	1440.074	1400.139
711.787	28.410	1439.095	1397.376
712.802	29.086	1438.205	1401.523
713.816	29.544	1437.886	1404.543
714.831	29.511	1437.493	1403.743
715.846	29.809	1435.828	1404.224
716.860	29.729	1434.808	1402.445
717.875	29.648	1433.688	1400.568
718.889	29.496	1431.909	1397.500
719.904	29.515	1431.096	1396.685
720.919	29.570	1429.752	1395.625
721.933	29.370	1429.592	1393.780
722.948	29.402	1428.461	1392.753
723.962	29.475	1427.111	1391.827
724.977	29.601	1426.153	1391.679
725.992	29.824	1425.978	1393.031
727.006	29.933	1424.343	1392.092
728.021	29.901	1423.026	1390.396
729.035	29.925	1422.307	1389.708
730.050	29.836	1421.879	1388.450
731.065	29.891	1419.964	1386.830
732.079	29.817	1418.816	1384.984
733.094	29.705	1418.509	1383.681
734.108	29.930	1416.304	1383.051
735.123	30.002	1413.378	1380.572
736.138	29.784	1413.357	1378.752
737.152	29.684	1412.319	1376.824
738.167	29.775	1411.713	1376.750
739.181	29.959	1411.452	1377.707
740.196	29.633	1410.778	1374.448
741.211	29.702	1409.111	1373.176
742.225	29.658	1407.749	1371.351
743.240	29.466	1406.416	1368.459
744.254	29.441	1404.273	1366.022
745.269	29.194	1403.091	1362.872
746.284	28.960	1402.326	1360.225
747.298	28.799	1400.855	1357.444
748.313	28.985	1400.073	1357.905
749.327	28.918	1400.041	1357.215
750.342	29.135	1399.809	1358.434
751.356	29.178	1397.961	1356.797
752.371	29.076	1396.395	1354.360
753.386	28.968	1395.270	1352.306
754.400	29.095	1395.334	1353.146
755.415	29.527	1394.718	1355.574
756.429	29.911	1392.996	1356.568
757.444	29.984	1392.497	1356.460
758.459	29.955	1391.456	1355.069
759.473	29.737	1389.613	1351.515
760.488	29.594	1388.255	1348.982
761.502	29.478	1386.519	1346.281
762.517	29.488	1385.836	1345.531
763.532	29.726	1384.537	1345.850
764.546	29.572	1383.043	1343.110
765.561	28.902	1381.685	1336.740
766.575	27.966	1379.912	1328.028
767.590	28.065	1379.002	1327.715
768.605	28.886	1378.908	1333.457
769.619	29.430	1378.212	1336.582
770.634	29.603	1377.273	1336.768
771.648	29.624	1375.243	1334.794
772.663	29.395	1375.046	1332.779
773.678	29.579	1375.311	1334.216
774.692	29.966	1374.255	1335.840
775.707	29.825	1374.001	1334.406
776.721	29.920	1373.045	1334.008
777.736	29.891	1371.447	1332.084
778.751	29.932	1370.434	1331.240
779.765	29.718	1370.060	1329.170
780.780	29.720	1369.076	1328.071
781.794	29.742	1367.660	1326.693
782.809	29.494	1365.643	1322.796
783.824	29.017	1364.091	1317.697
784.838	28.776	1363.240	1314.983
785.853	28.902	1362.824	1315.333
786.867	29.128	1361.910	1315.919
787.882	28.992	1360.979	1313.888
788.897	28.943	1359.695	1312.134
789.911	28.794	1358.471	1309.733
790.926	28.912	1357.478	1309.463
791.940	29.055	1356.007	1308.910
792.955	29.220	1354.907	1308.867
793.969	29.302	1353.995	1308.413
794.984	29.285	1353.924	1308.069
795.999	29.517	1353.688	1309.337
797.013	29.776	1351.224	1308.643
798.028	29.726	1350.037	1306.982
799.042	29.636	1349.656	1305.817
800.057	29.739	1348.179	1304.963
801.072	29.808	1346.911	1304.063
802.086	29.741	1345.791	1302.350
803.101	29.772	1344.959	1301.607
804.115	29.724	1343.560	1299.762
805.130	29.668	1342.935	1298.601
806.145	29.647	1341.195	1296.620
807.159	29.421	1339.765	1293.487
808.174	29.565	1339.418	1294.012
809.188	29.546	1337.674	1292.041
810.203	29.255	1336.684	1288.885
811.218	29.189	1334.745	1286.398
812.232	28.570	1332.388	1279.629
813.247	28.307	1330.811	1276.124
814.261	28.900	1331.515	1280.798
815.276	29.312	1331.635	1283.641
816.291	29.197	1330.791	1281.871
817.305	29.228	1329.390	1280.589
818.320	29.360	1327.775	1279.799
819.334	29.699	1326.538	1280.812
820.349	29.545	1325.945	1279.019
821.364	29.774	1324.970	1279.514
822.378	29.655	1323.542	1277.155
823.393	29.560	1321.893	1274.756
824.407	29.638	1320.715	1274.005
825.422	29.456	1320.522	1272.407
826.437	29.349	1319.019	1270.063
827.451	29.098	1316.476	1265.727
828.466	29.000	1315.262	1263.738
829.480	29.072	1313.801	1262.680
830.495	29.021	1312.040	1260.479
831.509	28.937	1311.620	1259.349
832.524	29.085	1310.856	1259.483
833.539	29.407	1310.372	1261.080
834.553	29.533	1308.705	1260.189
835.568	29.412	1307.892	1258.428
836.582	29.531	1307.442	1258.658
837.597	29.633	1305.798	1257.621
838.612	29.639	1303.697	1255.489
839.626	29.313	1302.538	1251.995
840.641	29.097	1301.444	1249.325
841.655	28.831	1300.556	1246.509
842.670	28.493	1298.411	1242.002
843.685	27.919	1296.987	1236.588
844.699	28.462	1296.489	1239.656
845.714	29.045	1295.536	1242.559
846.728	28.918	1295.119	1241.146
847.743	29.028	1294.684	1241.329
848.758	29.180	1293.501	1241.073
849.772	29.445	1292.663	1241.914
850.787	29.468	1290.976	1240.295
851.801	29.383	1290.173	1238.806
852.816	29.273	1289.290	1237.067
853.831	29.296	1286.980	1234.856
854.845	29.336	1284.774	1232.864
855.860	29.106	1283.555	1230.002
856.874	28.793	1283.365	1227.568
857.889	28.764	1281.809	1225.741
858.904	29.161	1280.474	1226.977
859.918	29.271	1279.069	1226.219
860.933	29.084	1277.976	1223.774
861.947	29.128	1277.027	1223.010
862.962	28.813	1275.785	1219.577
863.977	28.849	1274.742	1218.672
864.991	28.849	1274.124	1217.938
866.006	28.831	1273.867	1217.423
867.020	28.939	1272.743	1216.919
868.035	29.225	1271.137	1217.139
869.049	29.488	1270.397	1218.033
870.064	29.502	1269.989	1217.584
871.079	29.311	1268.979	1215.210
872.093	29.222	1268.063	1213.592
873.108	29.123	1266.725	1211.515
874.122	28.965	1264.586	1208.281
875.137	28.490	1264.145	1204.577
876.152	28.346	1263.160	1202.544
877.166	28.569	1261.239	1202.043
878.181	28.631	1260.425	1201.528
879.195	28.825	1260.297	1202.543
880.210	29.027	1259.285	1202.758
881.225	29.259	1258.520	1203.408
882.239	29.172	1258.136	1202.324
883.254	29.227	1256.926	1201.388
884.268	29.422	1255.491	1201.148
885.283	29.327	1254.423	1199.360
886.298	29.391	1252.872	1198.153
887.312	29.336	1251.960	1196.775
888.327	29.151	1251.337	1194.834
889.341	29.237	1249.550	1193.544
890.356	29.188	1248.347	1191.929
891.371	28.946	1248.726	1190.575
892.385	28.827	1248.301	1189.255
893.400	28.858	1246.315	1187.421
894.414	28.788	1244.960	1185.534
895.429	28.781	1244.204	1184.626
896.444	29.034	1242.321	1184.329
897.458	28.912	1241.868	1182.971
898.473	28.943	1240.820	1182.026
899.487	28.838	1239.604	1180.050
900.502	28.647	1238.616	1177.739
901.517	28.826	1237.161	1177.368
902.531	28.933	1236.760	1177.532
903.546	29.243	1235.489	1178.171
904.560	29.071	1235.458	1176.894
905.575	29.096	1234.631	1176.128
906.589	29.159	1233.436	1175.256
907.604	29.085	1232.174	1173.435
