DTS Sentinel unit serial number:	SN409020Multiplexer serial number:	ORYXHardware model number:	OX4-SRSoftware version number:	ORYX F/W v3.00 Oryx Data Collector v3.7.2.0data status	okinstallation	HaddamTimeLapsedifferential loss correction	single-endedforward channel	channel 3reverse channel	N/Adate	2011/06/22time	04:11:17forward acquisition time	30.00reverse acquisition time	0.00gamma	498.7831k internal	0.1752k external	0.1752temperature offset calibration	1.0074default loss term (dB/km)	0.3790temperature slope calibration	1.3530multiplexer offset coefficient	1.0000multiplexer slope coefficient	1.0000fibre end	0.00T internal ref (°C)	22.56T ext. ref 1 (°C)	18.25T ext. ref 2 (°C)	0.11length (m)	temperature (°C)	Stokes	anti-Stokes-747.200	85.175	-0.173	-0.252
-746.185	-118.913	-0.375	0.087
-745.171	-83.578	-0.214	0.090
-744.156	-24.315	-0.293	-0.232
-743.142	-27.560	-0.477	-0.368
-742.127	9.821	0.240	0.241
-741.112	-146.262	-0.102	-0.012
-740.098	-200.000	0.066	0.625
-739.083	-48.871	-0.213	0.135
-738.069	335.068	0.181	0.468
-737.054	-82.829	0.333	-0.142
-736.039	18.244	0.179	-0.189
-735.025	-104.928	0.271	-0.082
-734.010	800.000	0.062	-0.278
-732.996	800.000	-0.097	-0.374
-731.981	-34.900	0.352	-0.255
-730.966	304.535	0.098	-0.242
-729.952	-15.511	-0.286	-0.242
-728.937	-32.635	-0.389	-0.287
-727.923	-98.770	0.504	-0.169
-726.908	-200.000	0.041	-0.329
-725.894	-53.662	0.338	-0.204
-724.879	-33.736	0.283	-0.207
-723.864	-104.738	0.135	-0.041
-722.850	-158.175	0.461	-0.035
-721.835	23.471	0.207	-0.225
-720.821	-200.000	0.020	-0.385
-719.806	-8.495	0.365	0.325
-718.791	8.753	0.139	0.139
-717.777	-69.966	-0.274	0.138
-716.762	-85.279	0.229	-0.094
-715.748	-200.000	-0.055	-0.541
-714.733	183.550	-0.146	-0.286
-713.718	-200.000	-0.047	-0.318
-712.704	800.000	-0.030	0.141
-711.689	-51.701	0.331	-0.204
-710.675	-110.358	-0.779	-0.213
-709.660	-45.237	-0.447	-0.294
-708.645	4.766	0.357	-0.347
-707.631	-147.022	0.563	0.063
-706.616	800.000	0.014	-0.056
-705.602	140.231	-0.118	-0.208
-704.587	-78.433	0.267	-0.121
-703.572	-20.098	0.278	-0.227
-702.558	-110.062	0.278	-0.077
-701.543	-11.357	-0.350	0.305
-700.529	342.235	-0.119	-0.309
-699.514	800.000	-0.136	-0.671
-698.499	175.419	0.371	-0.715
-697.485	-145.298	0.196	0.023
-696.470	102.470	-0.240	0.372
-695.456	729.234	-0.018	-0.065
-694.441	137.467	-0.138	-0.240
-693.426	-129.963	-0.199	0.036
-692.412	346.811	0.086	-0.227
-691.397	800.000	-0.082	-0.332
-690.383	800.000	-0.027	-0.152
-689.368	-87.629	-0.104	-0.042
-688.354	394.316	0.198	-0.551
-687.339	-198.132	-0.306	-0.002
-686.324	695.230	0.125	-0.439
-685.310	-160.655	0.022	-0.001
-684.295	-40.033	0.179	-0.124
-683.281	-87.981	-0.147	0.058
-682.266	-153.650	-0.458	-0.041
-681.251	-113.323	-0.156	0.040
-680.237	-142.678	0.454	-0.058
-679.222	800.000	0.049	0.206
-678.208	-104.175	-0.031	0.009
-677.193	50.036	-0.203	0.254
-676.178	24.380	-0.114	0.125
-675.164	-200.000	0.026	-0.537
-674.149	-114.233	0.055	0.014
-673.135	198.680	-0.278	-0.566
-672.120	-10.797	0.217	0.190
-671.105	-157.092	-0.275	-0.022
-670.091	-44.337	-0.221	-0.146
-669.076	56.371	-0.142	-0.183
-668.062	-84.903	-0.317	-0.131
-667.047	-74.159	0.557	-0.266
-666.032	250.676	-0.143	0.322
-665.018	-54.825	-0.353	0.210
-664.003	234.874	-0.016	-0.035
-662.989	-200.000	0.031	-0.277
-661.974	64.461	0.009	0.011
-660.959	-108.427	-0.103	0.029
-659.945	-83.252	-0.395	-0.167
-658.930	20.945	-0.300	-0.322
-657.916	-200.000	0.009	-0.066
-656.901	701.183	-0.055	-0.192
-655.886	-79.968	-0.418	0.185
-654.872	-160.942	-0.377	0.026
-653.857	-138.660	-0.119	0.017
-652.843	800.000	0.071	-0.309
-651.828	-40.469	-0.095	-0.065
-650.814	297.726	-0.089	-0.217
-649.799	189.851	0.122	0.244
-648.784	585.569	-0.145	0.474
-647.770	120.513	0.163	-0.268
-646.755	363.801	0.079	0.210
-645.741	283.881	-0.157	-0.375
-644.726	-200.000	0.015	-0.463
-643.711	-159.524	-0.306	-0.022
-642.697	-200.000	-0.237	-0.000
-641.682	295.619	-0.166	0.403
-640.668	-50.840	0.339	-0.210
-639.653	11.452	-0.296	-0.300
-638.638	-91.506	0.117	0.044
-637.624	-117.541	-0.214	-0.051
-636.609	-93.977	0.228	-0.082
-635.595	-78.010	-0.278	-0.126
-634.580	-128.032	-0.403	-0.076
-633.565	800.000	0.064	0.334
-632.551	19.385	0.075	0.079
-631.536	61.727	-0.148	-0.194
-630.522	239.046	-0.107	-0.235
-629.507	-200.000	0.057	-0.411
-628.492	-160.681	0.366	0.025
-627.478	-198.579	-0.329	-0.002
-626.463	-118.935	-0.090	0.021
-625.449	-15.721	0.143	0.120
-624.434	-143.683	-0.343	0.042
-623.419	-105.942	0.337	-0.100
-622.405	-62.157	-0.382	-0.210
-621.390	597.675	0.036	-0.119
-620.376	-200.000	-0.018	0.296
-619.361	171.002	-0.182	0.345
-618.346	-200.000	0.032	0.250
-617.332	-200.000	0.019	-0.324
-616.317	263.677	-0.196	-0.451
-615.303	252.248	-0.114	0.259
-614.288	-13.853	0.121	0.103
-613.273	286.573	-0.195	-0.466
-612.259	-200.000	0.014	0.087
-611.244	-200.000	0.098	-0.715
-610.230	19.816	0.114	-0.122
-609.215	-11.898	0.527	0.456
-608.201	79.741	-0.171	-0.243
-607.186	324.348	0.121	0.305
-606.171	194.561	0.129	0.258
-605.157	237.408	-0.361	-0.793
-604.142	-36.650	-0.382	-0.270
-603.128	800.000	-0.027	0.151
-602.113	706.514	-0.163	0.570
-601.098	-121.569	-0.054	0.012
-600.084	-54.935	-0.295	0.175
-599.069	23.797	-0.168	0.182
-598.055	-68.606	-0.193	-0.098
-597.040	78.392	0.276	0.389
-596.025	103.441	-0.258	-0.401
-595.011	51.654	0.201	-0.252
-593.996	-200.000	-0.021	-0.245
-592.982	-175.880	-0.407	-0.014
-591.967	7.039	-0.094	0.092
-590.952	-200.000	-0.091	0.585
-589.938	800.000	0.063	0.306
-588.923	-103.430	-0.441	0.136
-587.909	-135.888	-0.604	0.093
-586.894	-127.006	-0.270	-0.052
-585.879	-154.386	-0.088	0.008
-584.865	-200.000	-0.055	-0.467
-583.850	-143.653	0.057	-0.007
-582.836	379.360	0.120	-0.325
-581.821	-5.465	0.130	0.117
-580.806	-125.735	-0.189	-0.037
-579.792	-198.234	0.218	0.002
-578.777	39.652	-0.255	0.302
-577.763	-180.169	-0.357	-0.010
-576.748	738.762	-0.102	0.363
-575.733	-200.000	-0.006	0.167
-574.719	23.059	0.389	-0.421
-573.704	-153.706	-0.257	0.023
-572.690	800.000	-0.069	-0.358
-571.675	-130.105	0.340	0.061
-570.661	-200.000	-0.038	0.312
-569.646	32.527	-0.290	-0.331
-568.631	359.245	-0.108	-0.285
-567.617	-115.585	-0.177	0.043
-566.602	-4.018	0.182	-0.166
-565.588	-179.641	-0.229	-0.006
-564.573	-159.362	0.225	-0.016
-563.558	222.413	0.113	-0.242
-562.544	2.790	0.133	-0.127
-561.529	-200.000	-0.009	-0.236
-560.515	-48.047	-0.373	-0.237
-559.500	-194.030	0.184	0.002
-558.485	201.721	0.144	-0.294
-557.471	194.192	0.057	0.114
-556.456	-71.515	-0.182	0.090
-555.442	68.981	0.391	-0.530
-554.427	-133.882	0.480	-0.078
-553.412	127.327	-0.240	-0.402
-552.398	-44.422	0.798	0.525
-551.383	198.240	0.064	-0.130
-550.369	206.682	0.076	-0.156
-549.354	247.360	0.040	0.089
-548.339	4.617	-0.276	-0.267
-547.325	-141.093	-0.043	-0.006
-546.310	4.047	-0.110	-0.105
-545.296	-3.326	0.362	-0.332
-544.281	146.590	0.250	0.443
-543.266	107.549	0.182	0.286
-542.252	800.000	0.073	-0.357
-541.237	330.908	-0.069	0.176
-540.223	45.290	-0.552	0.671
-539.208	-111.946	0.270	-0.071
-538.193	43.453	0.178	0.215
-537.179	162.633	0.178	-0.330
-536.164	-74.274	-0.301	-0.143
-535.150	-200.000	0.004	0.280
-534.135	-200.000	0.021	0.476
-533.121	800.000	-0.044	0.217
-532.106	-143.796	0.449	-0.055
-531.091	-158.547	-0.090	-0.007
-530.077	-200.000	0.055	-0.405
-529.062	-30.094	0.579	0.433
-528.048	-44.161	-0.254	-0.168
-527.033	84.001	-0.224	-0.323
-526.018	-8.431	0.257	-0.227
-525.004	800.000	0.012	-0.043
-523.989	-63.640	-0.475	0.256
-522.975	188.493	0.188	-0.370
-521.960	-127.249	0.271	-0.052
-520.945	555.697	0.024	-0.075
-519.931	-157.053	0.602	-0.048
-518.916	-34.178	0.323	-0.233
-517.902	-38.820	0.262	0.181
-516.887	10.970	0.354	-0.356
-515.872	-158.590	-0.155	-0.012
-514.858	356.225	-0.133	0.350
-513.843	-89.232	-0.334	0.129
-512.829	-200.000	0.020	0.347
-511.814	365.664	-0.140	-0.374
-510.799	-56.752	-0.461	-0.267
-509.785	-200.000	-0.005	-0.097
-508.770	-200.000	-0.025	-0.291
-507.756	50.911	0.092	0.115
-506.741	-64.332	0.266	-0.142
-505.726	-94.584	0.064	0.023
-504.712	-78.161	0.154	-0.069
-503.697	-95.736	-0.391	0.137
-502.683	319.215	-0.140	-0.350
-501.668	151.351	-0.115	0.206
-500.653	-89.078	-0.272	-0.105
-499.639	-112.679	0.496	-0.129
-498.624	336.577	0.040	0.103
-497.610	-136.760	0.094	-0.014
-496.595	-200.000	0.016	0.167
-495.581	41.403	-0.257	0.306
-494.566	4.544	-0.038	-0.036
-493.551	60.680	-0.314	-0.409
-492.537	46.388	-0.043	0.053
-491.522	-7.037	0.415	-0.370
-490.508	-200.000	0.067	-0.631
-489.493	64.529	-0.328	-0.435
-488.478	-55.646	-0.286	0.168
-487.464	-200.000	0.082	-0.672
-486.449	-200.000	0.066	-0.463
-485.435	800.000	-0.032	-0.147
-484.420	149.110	-0.080	0.143
-483.405	-165.135	0.435	-0.025
-482.391	-77.004	-0.178	0.081
-481.376	271.624	-0.063	0.146
-480.362	59.001	-0.156	0.202
-479.347	547.585	0.045	-0.142
-478.332	-56.553	-0.614	0.357
-477.318	260.238	0.133	0.304
-476.303	-114.507	-0.133	-0.033
-475.289	-54.410	0.299	0.178
-474.274	-116.216	-0.385	0.093
-473.259	-67.119	-0.332	0.171
-472.245	16.570	0.191	-0.199
-471.230	479.816	0.017	0.051
-470.216	800.000	-0.055	-0.284
-469.201	-200.000	-0.026	-0.241
-468.186	-127.421	0.113	-0.021
-467.172	-111.730	-0.157	0.041
-466.157	-153.653	0.487	-0.043
-465.143	53.396	0.241	-0.303
-464.128	-103.978	0.135	-0.041
-463.113	16.607	0.115	0.119
-462.099	198.979	0.230	0.464
-461.084	-168.259	-0.579	0.029
-460.070	-49.935	-0.720	-0.447
-459.055	44.869	0.054	-0.065
-458.040	513.737	-0.016	-0.048
-457.026	-31.003	0.202	0.150
-456.011	-25.608	0.134	-0.103
-454.997	367.384	-0.092	0.244
-453.982	-106.108	0.080	0.024
-452.968	95.578	-0.086	-0.130
-451.953	-66.998	-0.206	0.107
-450.938	-110.824	0.281	-0.076
-449.924	-200.000	0.018	0.238
-448.909	2.049	-0.431	-0.408
-447.895	5.028	0.377	-0.364
-446.880	-185.052	-0.298	0.006
-445.865	-200.000	0.128	-0.000
-444.851	-156.290	0.127	0.010
-443.836	-128.522	-0.297	-0.055
-442.822	-77.546	-0.250	0.113
-441.807	-81.425	0.368	0.158
-440.792	-7.399	-0.285	-0.253
-439.778	353.306	-0.125	-0.326
-438.763	78.070	-0.015	0.021
-437.749	-119.914	0.209	-0.047
-436.734	-192.001	0.298	0.004
-435.719	-109.970	-0.086	0.023
-434.705	60.369	-0.105	0.136
-433.690	96.068	-0.105	0.158
-432.676	23.225	-0.201	-0.217
-431.661	-134.655	-0.536	0.085
-430.646	-145.317	0.063	-0.007
-429.632	-149.335	-0.530	0.055
-428.617	-162.853	-0.197	-0.012
-427.603	85.713	-0.074	-0.107
-426.588	-123.917	0.531	-0.109
-425.573	-33.787	0.115	-0.083
-424.559	1.813	-0.419	-0.396
-423.544	-154.273	-0.145	0.013
-422.530	-69.585	0.131	-0.066
-421.515	-200.000	-0.030	0.344
-420.500	215.261	0.107	-0.223
-419.486	-29.661	-0.186	0.139
-418.471	120.872	-0.106	-0.174
-417.457	-48.652	0.249	-0.156
-416.442	451.359	0.068	-0.197
-415.428	-9.945	-0.385	-0.336
-414.413	800.000	0.061	-0.305
-413.398	171.339	0.056	0.106
-412.384	800.000	0.021	0.095
-411.369	47.420	-0.519	0.635
-410.355	-19.431	-0.218	-0.176
-409.340	-200.000	0.003	-0.085
-408.325	-100.070	0.254	0.082
-407.311	-140.737	-0.326	-0.044
-406.296	495.656	-0.136	0.413
-405.282	-144.660	0.313	0.037
-404.267	-121.503	0.253	0.055
-403.252	68.090	0.380	0.511
-402.238	-200.000	0.024	0.249
-401.223	-200.000	0.010	-0.360
-400.209	260.853	0.124	0.282
-399.194	-26.073	-0.081	-0.063
-398.179	-200.000	0.009	0.269
-397.165	12.042	0.118	0.118
-396.150	-104.032	-0.413	0.125
-395.136	-67.410	0.337	-0.173
-394.121	112.600	0.310	-0.492
-393.106	-118.347	0.116	0.027
-392.092	-21.294	0.402	-0.321
-391.077	800.000	-0.122	0.600
-390.063	-83.091	0.166	-0.070
-389.048	-103.198	0.197	-0.061
-388.033	212.039	0.167	0.346
-387.019	-2.316	-0.223	0.204
-386.004	-138.773	-0.171	0.024
-384.990	117.580	0.240	-0.387
-383.975	-15.062	-0.311	0.261
-382.960	-78.904	-0.392	0.174
-381.946	-123.934	-0.340	0.070
-380.931	107.841	0.067	0.104
-379.917	-144.288	0.436	0.053
-378.902	86.588	-0.072	0.103
-377.888	800.000	0.140	0.527
-376.873	-200.000	0.012	0.159
-375.858	-114.416	0.458	-0.114
-374.844	-134.934	0.911	0.143
-373.829	-200.000	0.003	-0.075
-372.815	45.361	-0.133	-0.160
-371.800	-102.293	-0.219	0.068
-370.785	146.003	-0.115	-0.203
-369.771	129.213	-0.178	0.298
-368.756	206.420	-0.118	0.241
-367.742	117.234	0.158	0.255
-366.727	-99.902	-0.435	0.141
-365.712	-160.929	0.542	-0.037
-364.698	-124.376	-0.102	-0.021
-363.683	106.349	-0.110	-0.170
-362.669	-82.174	0.216	0.092
-361.654	-200.000	-0.220	0.001
-360.639	-127.975	0.465	-0.087
-359.625	-73.775	0.502	0.238
-358.610	103.519	0.184	0.283
-357.596	235.284	0.128	0.278
-356.581	6.643	0.325	0.316
-355.566	191.556	-0.120	0.238
-354.552	216.188	0.127	0.266
-353.537	-200.000	-0.009	-0.062
-352.523	-2.935	0.149	0.136
-351.508	-159.914	-0.155	-0.011
-350.493	-27.898	0.349	0.264
-349.479	167.407	0.088	-0.164
-348.464	440.216	0.076	-0.219
-347.450	-65.374	0.489	-0.256
-346.435	-68.702	0.592	-0.298
-345.420	42.246	0.255	-0.303
-344.406	-39.470	0.100	-0.068
-343.391	692.219	-0.122	0.422
-342.377	-200.000	-0.007	-0.142
-341.362	-200.000	-0.036	-0.298
-340.348	-146.726	0.229	-0.026
-339.333	-200.000	0.011	-0.131
-338.318	800.000	-0.058	0.250
-337.304	-75.380	0.492	0.228
-336.289	-81.920	0.045	0.019
-335.275	-74.053	0.273	-0.129
-334.260	-56.939	-0.297	-0.171
-333.245	615.603	-0.227	-0.748
-332.231	-112.632	0.177	-0.046
-331.216	20.235	0.112	-0.119
-330.202	-200.000	0.323	-0.001
-329.187	800.000	0.157	0.609
-328.172	370.656	0.166	0.441
-327.158	335.436	-0.079	-0.201
-326.143	310.816	-0.070	-0.171
-325.129	-100.776	0.051	0.016
-324.114	-175.855	0.255	-0.009
-323.099	-32.894	0.277	0.200
-322.085	32.852	0.293	0.331
-321.070	-20.609	0.152	-0.122
-320.056	-140.278	0.207	-0.028
-319.041	40.945	-0.224	-0.265
-318.026	800.000	0.016	-0.067
-317.012	-96.497	-0.495	0.170
-315.997	-151.774	-0.268	-0.025
-314.983	-178.784	0.223	0.007
-313.968	-161.821	0.327	0.021
-312.953	-10.519	-0.213	0.184
-311.939	9.182	-0.409	0.404
-310.924	338.563	-0.120	0.305
-309.910	-48.025	0.166	-0.104
-308.895	800.000	-0.052	0.241
-307.880	-137.307	0.058	0.009
-306.866	698.104	-0.094	-0.325
-305.851	148.630	-0.098	0.173
-304.837	-167.891	0.279	-0.014
-303.822	-56.490	-0.710	0.410
-302.807	92.381	0.139	0.205
-301.793	58.965	0.039	0.050
-300.778	-200.000	-0.085	0.534
-299.764	-158.719	-0.705	0.052
-298.749	-10.119	-0.568	-0.492
-297.735	-17.671	-0.316	-0.259
-296.720	-200.000	0.014	0.116
-295.705	72.902	0.112	0.153
-294.691	-25.566	0.437	0.336
-293.676	525.724	-0.082	0.254
-292.662	-110.841	0.210	-0.056
-291.647	-29.310	0.187	-0.139
-290.632	213.821	0.034	0.070
-289.618	-128.442	-0.389	0.071
-288.603	-91.176	-0.332	0.124
-287.589	147.722	-0.076	-0.134
-286.574	-71.682	0.103	0.050
-285.559	-108.068	-0.088	0.025
-284.545	60.258	-0.226	-0.292
-283.530	-46.481	-0.019	0.012
-282.516	181.267	0.258	-0.497
-281.501	13.199	0.425	0.429
-280.486	4.450	0.300	0.287
-279.472	44.515	0.308	0.370
-278.457	584.250	-0.116	0.373
-277.443	-20.701	-0.144	0.115
-276.428	800.000	0.018	-0.093
-275.413	-79.324	0.348	-0.153
-274.399	48.837	0.382	-0.467
-273.384	-41.312	-0.347	0.232
-272.370	453.668	0.205	0.595
-271.355	-200.000	-0.057	0.347
-270.340	-101.504	-0.224	-0.071
-269.326	-91.367	0.378	-0.140
-268.311	409.298	0.057	0.157
-267.297	-19.635	0.506	-0.407
-266.282	-168.701	0.212	0.010
-265.267	-11.737	-0.351	-0.300
-264.253	-200.000	0.022	-0.324
-263.238	800.000	0.068	0.380
-262.224	54.222	0.128	-0.161
-261.209	-83.444	-0.385	-0.160
-260.195	-104.606	-0.138	-0.041
-259.180	-65.948	0.170	-0.088
-258.165	800.000	0.036	-0.160
-257.151	0.536	-0.126	-0.117
-256.136	63.244	0.406	-0.530
-255.122	800.000	0.111	-0.466
-254.107	-109.128	-0.313	0.086
-253.092	-96.352	-0.193	-0.066
-252.078	172.489	-0.217	0.408
-251.063	-19.913	-0.228	-0.183
-250.049	-166.111	-0.319	-0.017
-249.034	123.359	-0.065	0.107
-248.019	191.103	0.065	0.129
-247.005	100.880	-0.157	0.238
-245.990	114.317	0.287	0.456
-244.976	17.869	0.210	0.218
-243.961	800.000	0.120	0.512
-242.946	199.967	0.171	-0.342
-241.932	248.264	-0.292	0.645
-240.917	1.441	-0.180	-0.168
-239.903	265.568	0.084	0.191
-238.888	-113.935	0.171	-0.043
-237.873	48.346	0.100	0.122
-236.859	-80.159	0.177	0.077
-235.844	22.291	0.066	0.070
-234.830	-83.699	0.314	0.130
-233.815	39.900	-0.117	0.137
-232.800	-37.524	-0.177	-0.123
-231.786	-200.000	-0.011	-0.162
-230.771	-200.000	-0.037	-0.481
-229.757	-200.000	-0.007	0.132
-228.742	639.152	-0.033	0.110
-227.727	-62.072	-0.434	-0.235
-226.713	-108.891	0.502	0.139
-225.698	-129.359	-0.331	0.059
-224.684	290.818	0.137	-0.326
-223.669	-123.173	-0.396	-0.082
-222.655	-8.927	0.111	0.096
-221.640	-63.452	-0.053	-0.028
-220.625	-200.000	-0.014	-0.109
-219.611	138.181	0.363	0.621
-218.596	-75.755	-0.189	-0.087
-217.582	-200.000	-0.016	-0.316
-216.567	125.929	-0.045	-0.074
-215.552	800.000	-0.077	-0.312
-214.538	79.312	0.124	-0.173
-213.523	9.238	0.139	-0.136
-212.509	-89.346	-0.089	-0.034
-211.494	800.000	-0.007	0.027
-210.479	-5.687	-0.316	-0.281
-209.465	800.000	-0.043	-0.159
-208.450	800.000	0.030	0.151
-207.436	95.983	-0.095	-0.141
-206.421	-111.005	0.239	0.063
-205.406	167.722	-0.225	0.416
-204.392	-176.096	-0.304	-0.010
-203.377	-88.363	0.154	-0.060
-202.363	-50.399	0.806	-0.494
-201.348	142.682	-0.130	0.226
-200.333	-81.347	0.077	-0.033
-199.319	-88.658	0.329	0.127
-198.304	-200.000	-0.017	-0.447
-197.290	-23.639	-0.127	-0.099
-196.275	27.595	0.094	-0.102
-195.260	-169.818	0.392	-0.018
-194.246	388.135	-0.205	0.555
-193.231	-123.142	0.141	0.029
-192.217	98.214	-0.159	-0.238
-191.202	-95.816	0.398	-0.137
-190.187	489.602	0.066	0.197
-189.173	20.848	-0.242	0.255
-188.158	800.000	0.148	0.642
-187.144	-156.269	0.197	-0.016
-186.129	-72.327	-0.264	-0.127
-185.114	328.696	-0.123	-0.308
-184.100	468.984	-0.079	-0.231
-183.085	100.220	-0.147	0.222
-182.071	-91.138	0.235	-0.087
-181.056	5.326	-0.199	-0.191
-180.042	41.624	-0.119	0.140
-179.027	-200.000	-0.042	0.558
-178.012	-200.000	-0.013	-0.382
-176.998	-18.706	-0.252	0.204
-175.983	800.000	-0.128	-0.469
-174.969	-94.378	-0.319	-0.113
-173.954	-182.774	-0.308	-0.007
-172.939	-26.531	0.104	-0.079
-171.925	-179.467	0.371	0.010
-170.910	-160.695	-0.195	-0.013
-169.896	138.414	-0.411	0.702
-168.881	-200.000	0.045	0.270
-167.866	-200.000	0.198	0.000
-166.852	-128.827	0.618	-0.112
-165.837	-77.556	0.245	0.110
-164.823	-114.246	-0.413	0.103
-163.808	-150.887	0.377	0.037
-162.793	51.746	-0.286	-0.354
-161.779	469.463	-0.125	0.367
-160.764	31.084	-0.211	0.235
-159.750	88.650	0.083	0.120
-158.735	800.000	-0.034	-0.137
-157.720	-35.107	-0.258	0.182
-156.706	2.743	-0.179	0.168
-155.691	-200.000	0.058	0.407
-154.677	-116.072	0.052	0.012
-153.662	-200.000	0.003	-0.245
-152.647	73.063	-0.087	0.118
-151.633	800.000	-0.015	-0.078
-150.618	-200.000	-0.020	-0.139
-149.604	-90.786	-0.182	-0.068
-148.589	44.127	-0.083	0.099
-147.574	-107.126	-0.351	0.100
-146.560	133.080	0.109	0.183
-145.545	18.748	0.272	0.283
-144.531	3.681	-0.129	0.122
-143.516	2.698	-0.140	-0.132
-142.502	800.000	0.114	0.526
-141.487	162.411	0.073	0.132
-140.472	459.374	-0.126	-0.365
-139.458	-6.168	0.063	-0.055
-138.443	-139.985	0.355	0.048
-137.429	-35.851	0.229	0.161
-136.414	-146.247	0.094	0.011
-135.399	800.000	-0.076	-0.412
-134.385	-200.000	-0.024	-0.296
-133.370	15.556	0.309	-0.315
-132.356	0.096	0.216	0.200
-131.341	-133.433	0.212	-0.034
-130.326	-144.860	0.438	0.051
-129.312	800.000	-0.054	-0.281
-128.297	58.989	0.302	0.385
-127.283	386.237	-0.154	0.414
-126.268	174.412	-0.291	0.546
-125.253	60.029	0.269	0.345
-124.239	-39.844	-0.206	-0.139
-123.224	-157.972	-0.182	-0.014
-122.210	103.177	-0.155	0.236
-121.195	800.000	0.045	-0.178
-120.180	110.063	-0.134	0.209
-119.166	-53.146	-0.205	-0.121
-118.151	-128.128	-0.050	0.009
-117.137	-82.012	-0.498	-0.210
-116.122	22.534	-0.394	-0.418
-115.107	-19.430	-0.190	0.152
-114.093	-79.655	-0.350	0.152
-113.078	-83.006	0.178	-0.074
-112.064	-8.280	0.154	0.134
-111.049	-168.998	-0.270	-0.013
-110.034	202.624	-0.137	0.275
-109.020	-200.000	0.014	0.116
-108.005	208.639	0.152	0.309
-106.991	183.441	0.246	0.473
-105.976	-78.297	-0.546	-0.242
-104.962	-143.232	-0.060	-0.007
-103.947	-75.220	-0.294	0.135
-102.932	311.525	-0.192	-0.468
-101.918	-31.565	0.088	0.064
-100.903	320.793	0.100	0.248
-99.889	57.590	0.311	0.394
-98.874	-84.379	-0.509	-0.207
-97.859	11.264	0.187	0.185
-96.845	713.384	-0.083	-0.288
-95.830	-163.815	-0.255	0.015
-94.816	-56.986	-0.223	-0.127
-93.801	-200.000	0.016	-0.306
-92.786	-200.000	-0.018	-0.166
-91.772	8.123	0.416	0.404
-90.757	800.000	0.027	-0.097
-89.743	-108.771	-0.260	-0.072
-88.728	133.790	-0.178	0.299
-87.713	-51.772	0.359	0.216
-86.699	-70.605	0.320	0.156
-85.684	-200.000	0.021	0.164
-84.670	-120.256	0.392	-0.086
-83.655	268.123	-0.144	0.328
-82.640	429.044	0.207	0.581
-81.626	-134.622	0.220	0.034
-80.611	-64.938	-0.202	0.105
-79.597	-39.515	0.393	-0.266
-78.582	-89.462	0.205	0.077
-77.567	-59.617	0.403	0.223
-76.553	97.473	-0.289	-0.430
-75.538	-106.043	0.595	0.172
-74.524	-66.913	-0.429	0.218
-73.509	-26.058	-0.245	-0.186
-72.494	581.840	0.040	-0.127
-71.480	168.840	0.082	-0.151
-70.465	144.623	0.095	0.164
-69.451	2.875	0.521	0.489
-68.436	-157.951	-0.157	0.012
-67.422	-67.638	0.282	-0.142
-66.407	-74.993	-0.228	0.105
-65.392	80.786	-0.353	-0.492
-64.378	-104.912	-0.574	0.169
-63.363	137.695	-0.280	0.475
-62.349	-200.000	-0.047	0.446
-61.334	34.277	-2.100	-2.369
-60.319	242.667	0.837	1.819
-59.305	236.204	-3.601	-7.728
-58.290	87.288	3.799	5.440
-57.276	462.102	3.633	10.533
-56.261	-200.000	24.194	319.728
-55.246	356.822	1300.218	3365.191
-54.232	53.249	2841.350	3521.222
-53.217	51.586	2659.185	3269.651
-52.203	31.865	2389.617	2660.318
-51.188	27.770	2054.398	2236.699
-50.173	24.397	1941.792	2074.676
-49.159	23.426	1929.043	2049.685
-48.144	22.890	1924.326	2038.380
-47.130	22.759	1922.289	2034.624
-46.115	22.724	1921.129	2032.911
-45.100	22.708	1919.285	2030.690
-44.086	22.647	1919.170	2029.782
-43.071	22.706	1915.791	2026.815
-42.057	22.823	1913.625	2025.788
-41.042	22.668	1913.640	2023.938
-40.027	22.799	1911.263	2022.851
-39.013	22.815	1909.777	2021.385
-37.998	22.812	1909.062	2020.513
-36.984	22.757	1908.514	2019.220
-35.969	22.901	1905.421	2017.519
-34.954	22.671	1905.285	2014.651
-33.940	22.605	1904.262	2012.733
-32.925	22.545	1903.180	2010.824
-31.911	22.642	1901.761	2010.354
-30.896	22.584	1900.366	2008.130
-29.881	22.656	1898.363	2006.758
-28.867	22.646	1897.314	2005.464
-27.852	22.570	1896.038	2003.165
-26.838	22.486	1894.549	2000.555
-25.823	22.556	1893.333	1999.985
-24.809	22.600	1891.464	1998.436
-23.794	22.639	1889.842	1997.083
-22.779	22.593	1888.745	1995.323
-21.765	22.525	1888.254	1993.955
-20.750	22.563	1887.272	1993.264
-19.736	22.530	1885.670	1991.121
-18.721	22.489	1884.721	1989.572
-17.706	22.500	1883.177	1987.988
-16.692	22.473	1882.621	1987.015
-15.677	22.461	1882.125	1986.277
-14.663	22.480	1879.585	1983.732
-13.648	22.431	1878.480	1981.937
-12.633	22.456	1877.814	1981.439
-11.619	22.595	1875.412	1980.395
-10.604	22.413	1875.371	1978.219
-9.590	22.522	1873.914	1977.838
-8.575	22.419	1872.716	1975.332
-7.560	22.422	1871.231	1973.719
-6.546	22.496	1869.486	1972.628
-5.531	22.474	1868.284	1971.043
-4.517	22.527	1866.930	1970.123
-3.502	22.451	1866.248	1968.475
-2.487	22.568	1865.128	1968.534
-1.473	22.688	1860.992	1965.433
-0.458	22.355	1844.452	1944.193
0.556	19.055	1990.973	2046.972
1.571	17.820	2194.408	2239.565
2.586	18.557	2234.830	2290.451
3.600	18.648	2236.112	2292.706
4.615	18.648	2235.895	2292.207
5.629	18.629	2234.201	2289.947
6.644	18.602	2231.587	2286.639
7.659	18.615	2229.672	2284.575
8.673	18.555	2227.599	2281.364
9.688	18.410	2235.821	2287.572
10.702	17.503	2315.885	2356.591
11.717	16.029	2381.084	2401.539
12.731	7.882	2361.350	2265.212
13.746	1.176	2342.673	2151.623
14.761	0.170	2339.805	2134.394
15.775	0.035	2338.193	2130.751
16.790	0.009	2336.851	2128.899
17.804	-0.011	2335.637	2127.253
18.819	0.026	2333.791	2125.848
19.834	0.090	2332.076	2124.934
20.848	0.026	2330.649	2122.474
21.863	-0.054	2329.095	2119.672
22.877	0.057	2326.179	2118.339
23.892	0.032	2323.823	2115.583
24.907	0.036	2322.068	2113.784
25.921	-0.040	2320.910	2111.408
26.936	0.125	2317.876	2110.729
27.950	0.047	2315.231	2106.968
28.965	-0.015	2314.279	2104.967
29.980	0.089	2312.802	2104.832
30.994	0.107	2310.238	2102.507
32.009	4.198	2323.096	2171.646
33.023	13.651	2350.000	2330.663
34.038	17.438	2355.562	2389.455
35.053	17.702	2353.219	2390.512
36.067	17.720	2351.312	2388.547
37.082	17.664	2349.560	2385.685
38.096	17.674	2348.100	2384.064
39.111	17.864	2344.377	2382.663
40.126	17.972	2342.600	2382.080
41.140	18.049	2341.225	2381.481
42.155	17.952	2339.783	2378.371
43.169	17.881	2338.536	2375.826
44.184	17.959	2335.107	2373.150
45.199	17.854	2333.107	2369.365
46.213	17.878	2331.895	2368.180
47.228	17.940	2330.864	2367.714
48.242	17.866	2329.900	2365.418
49.257	17.997	2327.265	2364.285
50.271	17.993	2324.675	2361.320
51.286	17.899	2321.844	2356.850
52.301	17.778	2321.055	2354.090
53.315	18.250	2322.660	2361.984
54.330	19.980	2327.610	2390.769
55.344	21.170	2326.340	2405.677
56.359	21.303	2322.543	2403.303
57.374	21.424	2322.222	2404.350
58.388	21.509	2319.936	2402.869
59.403	21.438	2317.006	2398.563
60.417	21.299	2313.011	2392.236
61.432	21.414	2311.235	2391.686
62.447	21.567	2310.556	2392.807
63.461	21.626	2309.369	2392.106
64.476	21.850	2306.613	2392.027
65.490	21.513	2305.927	2386.418
66.505	20.933	2302.760	2374.905
67.520	19.595	2297.202	2350.601
68.534	18.322	2289.806	2325.385
69.549	17.994	2286.449	2317.219
70.563	17.925	2285.017	2314.556
71.578	17.942	2282.689	2312.155
72.593	17.981	2280.949	2310.640
73.607	18.031	2278.989	2309.057
74.622	18.027	2277.828	2307.553
75.636	18.002	2274.026	2303.088
76.651	17.910	2272.604	2300.125
77.666	17.997	2270.112	2298.502
78.680	17.926	2268.561	2295.699
79.695	17.818	2266.334	2291.715
80.709	17.783	2265.984	2290.612
81.724	17.920	2262.511	2288.673
82.739	17.901	2259.774	2285.373
83.753	17.936	2257.517	2283.289
84.768	17.946	2256.068	2281.684
85.782	17.740	2256.060	2278.633
86.797	17.659	2254.434	2275.634
87.812	17.852	2251.006	2274.481
88.826	17.861	2248.397	2271.695
89.841	17.882	2246.507	2269.803
90.855	17.965	2243.793	2267.887
91.870	17.869	2242.865	2265.403
92.884	17.900	2241.083	2263.742
93.899	17.925	2239.487	2262.200
94.914	18.190	2241.950	2267.945
95.928	19.772	2246.222	2293.101
96.943	20.265	2244.243	2297.362
97.957	18.884	2236.123	2270.457
98.972	17.983	2232.302	2254.359
99.987	17.788	2230.113	2249.286
101.001	17.799	2227.436	2246.462
102.016	17.737	2224.951	2242.877
103.030	17.775	2222.747	2240.891
104.045	17.831	2219.799	2238.387
105.060	17.972	2217.301	2237.457
106.074	17.963	2216.317	2236.070
107.089	17.735	2215.786	2232.264
108.103	17.849	2214.410	2232.120
109.118	18.001	2211.603	2231.009
110.133	17.920	2210.902	2228.982
111.147	17.885	2208.385	2225.710
112.162	17.915	2208.057	2225.512
113.176	18.109	2203.251	2222.932
114.191	17.906	2203.089	2219.860
115.206	18.089	2200.689	2219.561
116.220	17.946	2199.247	2215.980
117.235	17.836	2197.617	2212.627
118.249	17.947	2194.945	2211.119
119.264	17.905	2194.119	2209.477
120.279	18.037	2192.442	2209.245
121.293	17.995	2189.913	2205.886
122.308	17.978	2188.724	2204.200
123.322	17.929	2188.191	2202.771
124.337	18.222	2188.459	2206.566
125.352	19.894	2193.069	2232.647
126.366	20.403	2190.736	2236.608
127.381	18.659	2183.201	2206.120
128.395	17.901	2178.681	2191.521
129.410	17.869	2175.605	2187.749
130.424	17.906	2175.063	2187.423
131.439	17.834	2173.528	2184.692
132.454	17.831	2172.149	2182.999
133.468	18.006	2168.864	2181.679
134.483	17.894	2168.835	2179.957
135.497	17.843	2166.679	2176.868
136.512	17.953	2164.348	2175.679
137.527	17.851	2162.495	2172.258
138.541	17.877	2161.865	2171.688
139.556	17.759	2160.989	2169.046
140.570	17.961	2158.496	2168.855
141.585	17.817	2157.099	2165.358
142.600	17.755	2156.604	2163.809
143.614	17.765	2154.910	2161.977
144.629	17.839	2152.657	2160.402
145.643	17.840	2150.546	2158.046
146.658	17.701	2149.306	2154.778
147.673	17.743	2146.700	2152.440
148.687	17.860	2145.635	2152.597
149.702	17.829	2144.339	2150.647
150.716	17.918	2143.272	2150.439
151.731	17.967	2142.659	2150.186
152.746	17.934	2142.144	2149.001
153.760	18.342	2142.885	2154.647
154.775	19.966	2147.761	2179.858
155.789	20.334	2145.111	2181.557
156.804	18.872	2137.101	2154.735
157.819	17.985	2131.156	2137.334
158.833	17.893	2129.392	2134.149
159.848	17.912	2126.300	2131.041
160.862	18.030	2125.753	2131.719
161.877	18.071	2124.849	2131.066
162.892	17.982	2124.235	2129.086
163.906	17.911	2123.144	2126.841
164.921	18.024	2120.160	2125.007
165.935	17.893	2118.680	2121.640
166.950	17.918	2116.317	2119.327
167.964	17.849	2114.444	2116.339
168.979	17.881	2112.465	2114.499
169.994	17.904	2111.307	2113.380
171.008	17.916	2109.059	2111.026
172.023	17.768	2108.739	2108.615
173.037	17.892	2106.828	2107.983
174.052	17.828	2105.256	2105.365
175.067	17.888	2103.080	2103.684
176.081	17.926	2101.905	2102.732
177.096	17.941	2101.094	2101.854
178.110	17.894	2099.294	2099.223
179.125	17.793	2097.880	2096.306
180.140	17.791	2097.074	2095.227
181.154	17.919	2095.241	2094.725
182.169	17.873	2093.935	2092.590
183.183	18.371	2094.989	2099.535
184.198	20.282	2099.108	2126.977
185.213	20.518	2097.618	2128.121
186.227	18.782	2090.947	2099.783
187.242	17.999	2087.048	2086.013
188.256	18.008	2085.431	2084.258
189.271	17.940	2083.406	2081.147
190.286	17.978	2081.933	2079.892
191.300	17.853	2079.515	2075.705
192.315	17.882	2077.473	2073.776
193.329	17.997	2076.968	2074.423
194.344	18.194	2075.784	2075.397
195.359	18.084	2074.907	2072.925
196.373	17.930	2072.393	2068.293
197.388	17.992	2070.160	2066.566
198.402	17.979	2067.157	2063.166
199.417	17.827	2065.756	2059.680
200.432	17.896	2064.800	2059.308
201.446	18.012	2063.054	2058.732
202.461	17.852	2061.911	2055.405
203.475	17.906	2059.584	2053.495
204.490	17.821	2057.885	2050.527
205.504	17.869	2055.985	2048.972
206.519	17.852	2053.387	2045.927
207.534	17.799	2053.278	2044.942
208.548	17.915	2051.012	2043.831
209.563	17.855	2050.078	2041.930
210.577	17.815	2048.741	2039.882
211.592	17.839	2048.097	2039.286
212.607	18.839	2051.062	2054.017
213.621	20.805	2055.906	2082.265
214.636	20.373	2050.166	2071.034
215.650	18.547	2043.660	2042.371
216.665	18.012	2040.190	2032.260
217.680	17.990	2038.841	2030.409
218.694	18.014	2037.886	2029.504
219.709	17.898	2035.866	2025.865
220.723	17.993	2034.443	2025.333
221.738	17.948	2032.216	2022.343
222.753	17.950	2030.081	2019.996
223.767	18.012	2028.875	2019.295
224.782	17.908	2027.394	2016.343
225.796	17.907	2026.001	2014.705
226.811	18.057	2024.531	2014.784
227.826	17.971	2023.519	2012.520
228.840	17.982	2021.842	2010.737
229.855	17.932	2020.531	2008.598
230.869	18.024	2018.389	2007.318
231.884	17.944	2017.598	2005.350
232.899	18.026	2014.930	2003.418
233.913	17.952	2013.329	2000.714
234.928	17.866	2013.720	1999.855
235.942	17.870	2012.310	1998.258
236.957	18.002	2010.388	1997.669
237.972	17.856	2009.542	1994.870
238.986	17.913	2008.671	1994.437
240.001	17.884	2006.592	1991.793
241.015	17.831	2005.176	1989.524
242.030	18.400	2005.140	1995.923
243.045	19.869	2008.680	2016.429
244.059	20.218	2005.913	2017.481
245.074	18.510	1999.079	1990.460
246.088	17.828	1996.526	1979.718
247.103	18.045	1994.220	1979.729
248.117	17.866	1993.628	1976.822
249.132	17.929	1991.492	1975.192
250.147	17.842	1989.289	1971.761
251.161	17.977	1987.777	1971.591
252.176	17.944	1988.255	1971.454
253.190	18.205	1985.906	1971.912
254.205	18.175	1983.473	1968.915
255.220	18.149	1982.039	1966.952
256.234	18.139	1980.673	1965.243
257.249	17.904	1980.548	1962.169
258.263	17.990	1979.184	1961.582
259.278	17.954	1977.749	1959.507
260.293	18.118	1975.627	1959.061
261.307	17.837	1974.366	1954.343
262.322	17.743	1972.864	1951.541
263.336	17.829	1970.150	1949.610
264.351	17.676	1968.528	1946.007
265.366	17.781	1967.429	1945.900
266.380	17.775	1966.422	1944.599
267.395	17.796	1965.377	1943.570
268.409	17.805	1963.482	1941.569
269.424	17.823	1961.940	1940.014
270.439	17.955	1961.180	1940.541
271.453	18.429	1962.255	1946.785
272.468	20.150	1964.962	1968.909
273.482	20.325	1961.425	1967.118
274.497	18.627	1954.856	1941.004
275.512	17.981	1951.818	1930.413
276.526	17.881	1949.700	1926.963
277.541	18.007	1947.182	1925.664
278.555	17.862	1946.753	1923.365
279.570	17.827	1944.590	1920.603
280.585	17.835	1943.096	1918.994
281.599	17.915	1941.758	1918.348
282.614	18.127	1940.819	1919.578
283.628	18.084	1939.783	1917.842
284.643	18.153	1939.044	1917.658
285.657	18.229	1938.397	1917.647
286.672	18.155	1936.955	1915.158
287.687	18.088	1934.772	1912.010
288.701	18.064	1933.336	1910.091
289.716	18.017	1932.383	1908.399
290.730	18.043	1930.484	1906.590
291.745	18.246	1928.429	1906.602
292.760	18.094	1928.106	1904.355
293.774	18.071	1926.968	1902.741
294.789	18.059	1925.190	1900.629
295.803	17.830	1923.452	1896.127
296.818	17.831	1923.193	1895.648
297.833	17.893	1921.234	1894.186
298.847	17.907	1919.246	1892.152
299.862	17.913	1918.311	1891.074
300.876	18.268	1917.940	1894.430
301.891	20.225	1920.946	1918.955
302.906	20.476	1920.694	1921.273
303.920	18.921	1914.315	1897.416
304.935	18.136	1910.081	1884.302
305.949	17.994	1908.369	1880.813
306.964	18.055	1906.837	1879.754
307.979	18.105	1905.060	1878.338
308.993	18.079	1903.748	1876.529
310.008	18.160	1902.165	1875.640
311.022	18.263	1900.976	1875.374
312.037	18.112	1899.735	1872.269
313.052	18.234	1898.082	1871.753
314.066	18.032	1896.589	1867.838
315.081	18.141	1895.938	1868.167
316.095	18.067	1894.575	1865.791
317.110	17.917	1893.196	1862.560
318.125	18.053	1890.978	1861.651
319.139	17.996	1890.401	1860.233
320.154	18.192	1887.839	1859.636
321.168	18.148	1886.468	1857.575
322.183	18.040	1885.623	1855.340
323.197	17.873	1884.794	1852.480
324.212	17.868	1882.132	1849.588
325.227	17.900	1880.081	1847.703
326.241	17.908	1879.096	1846.601
327.256	17.954	1878.130	1845.930
328.270	17.922	1877.271	1844.516
329.285	17.986	1876.402	1844.133
330.300	18.560	1879.102	1852.808
331.314	20.590	1881.838	1877.335
332.329	20.290	1878.069	1870.102
333.343	18.570	1871.128	1844.384
334.358	18.061	1868.513	1836.098
335.373	18.007	1866.305	1833.120
336.387	17.806	1864.579	1829.040
337.402	17.904	1863.559	1828.874
338.416	17.814	1862.128	1826.282
339.431	17.922	1860.965	1826.083
340.446	18.020	1859.937	1825.915
341.460	18.095	1858.433	1825.024
342.475	18.165	1856.431	1823.588
343.489	18.105	1855.710	1822.025
344.504	18.161	1854.902	1821.606
345.519	18.222	1853.350	1820.519
346.533	18.251	1851.286	1818.581
347.548	18.169	1851.223	1817.426
348.562	18.246	1849.116	1815.967
349.577	18.185	1847.680	1813.690
350.592	18.276	1846.448	1813.224
351.606	18.274	1844.913	1811.482
352.621	18.181	1842.775	1808.174
353.635	18.017	1842.041	1805.501
354.650	17.883	1840.616	1802.468
355.665	17.981	1838.926	1801.635
356.679	17.902	1837.601	1799.281
357.694	17.892	1836.611	1797.995
358.708	17.902	1835.470	1796.761
359.723	18.766	1837.370	1807.552
360.738	20.583	1840.462	1829.618
361.752	20.043	1836.641	1819.903
362.767	18.388	1830.852	1796.509
363.781	17.883	1828.494	1788.668
364.796	17.864	1826.923	1786.709
365.810	17.983	1824.822	1785.692
366.825	17.864	1824.669	1784.077
367.840	18.114	1823.952	1785.790
368.854	18.037	1822.459	1783.311
369.869	17.948	1820.672	1780.412
370.883	17.850	1819.252	1777.787
371.898	17.897	1817.601	1776.455
372.913	17.777	1816.873	1774.272
373.927	17.890	1815.742	1774.132
374.942	17.879	1814.746	1772.836
375.956	17.995	1812.573	1771.706
376.971	18.053	1810.644	1770.220
377.986	17.819	1809.150	1766.105
379.000	17.953	1807.330	1765.519
380.015	18.001	1806.171	1764.665
381.029	18.022	1805.714	1764.234
382.044	17.917	1803.945	1761.200
383.059	18.007	1800.988	1759.033
384.073	17.929	1800.596	1757.639
385.088	17.755	1800.012	1755.055
386.102	17.851	1798.362	1754.231
387.117	17.757	1796.893	1751.613
388.132	17.800	1796.257	1751.233
389.146	18.401	1799.296	1760.188
390.161	20.324	1801.776	1782.272
391.175	20.402	1795.281	1776.434
392.190	18.457	1788.942	1750.011
393.205	17.872	1786.617	1741.529
394.219	17.912	1785.154	1740.301
395.234	18.025	1783.681	1739.813
396.248	17.941	1781.646	1736.763
397.263	17.916	1780.016	1734.710
398.278	17.912	1778.039	1732.540
399.292	17.991	1776.823	1731.944
400.307	17.989	1776.708	1731.607
401.321	18.073	1775.688	1731.259
402.336	18.044	1774.396	1729.501
403.350	17.968	1772.857	1727.016
404.365	18.141	1771.386	1727.132
405.380	18.417	1770.300	1728.666
406.394	18.257	1770.192	1726.736
407.409	18.151	1767.698	1723.026
408.423	18.233	1766.326	1722.309
409.438	18.139	1765.106	1719.962
410.453	18.146	1764.156	1718.904
411.467	18.344	1762.250	1718.837
412.482	18.065	1761.299	1714.893
413.496	17.996	1760.147	1712.865
414.511	17.991	1758.195	1710.714
415.526	18.056	1754.990	1708.042
416.540	17.918	1754.197	1705.677
417.555	17.900	1753.307	1704.429
418.569	17.854	1753.696	1704.139
419.584	17.921	1753.307	1704.236
420.599	17.882	1752.922	1703.265
421.613	18.046	1751.263	1703.095
422.628	18.008	1749.844	1701.123
423.642	17.854	1748.847	1698.411
424.657	17.791	1747.655	1696.427
425.672	17.758	1745.822	1694.116
426.686	17.892	1743.950	1693.424
427.701	17.905	1742.504	1691.947
428.715	17.873	1740.823	1689.799
429.730	17.900	1739.266	1688.353
430.745	17.897	1738.853	1687.716
431.759	17.994	1738.607	1688.240
432.774	18.170	1737.929	1689.124
433.788	18.275	1737.375	1689.432
434.803	18.192	1736.918	1687.964
435.818	18.115	1736.224	1686.318
436.832	18.016	1734.874	1683.830
437.847	17.405	1727.833	1670.758
438.861	9.827	1708.603	1577.743
439.876	1.812	1693.320	1485.141
440.890	0.363	1688.735	1466.787
441.905	0.144	1688.163	1463.968
442.920	0.212	1686.536	1463.043
443.934	0.271	1685.568	1462.603
444.949	0.078	1684.572	1459.688
445.963	0.142	1683.694	1459.372
446.978	0.082	1683.461	1458.417
447.993	-0.072	1682.330	1455.760
449.007	0.133	1679.680	1455.288
450.022	0.136	1678.181	1453.841
451.036	0.076	1676.394	1451.542
452.051	1.266	1681.191	1467.085
453.066	9.117	1697.870	1558.281
454.080	16.706	1709.655	1643.199
455.095	17.768	1711.678	1655.312
456.109	18.003	1711.642	1657.375
457.124	18.102	1710.351	1656.893
458.139	18.036	1708.471	1654.233
459.153	18.111	1707.188	1653.519
460.168	18.080	1705.831	1651.705
461.182	18.028	1704.781	1649.985
462.197	18.081	1702.391	1647.993
463.212	17.902	1701.347	1645.047
464.226	17.946	1699.909	1643.883
465.241	18.069	1698.828	1643.828
466.255	18.164	1698.014	1643.768
467.270	18.109	1696.566	1641.639
468.285	18.051	1695.362	1639.713
469.299	18.110	1694.013	1638.787
470.314	18.126	1691.758	1636.560
471.328	18.018	1691.349	1634.926
472.343	18.008	1689.859	1633.198
473.358	18.029	1689.125	1632.495
474.372	18.180	1687.628	1632.299
475.387	18.147	1685.184	1629.422
476.401	18.072	1684.873	1628.215
477.416	18.034	1683.664	1626.483
478.430	18.071	1682.610	1625.629
479.445	18.067	1681.493	1624.313
480.460	18.015	1679.538	1621.737
481.474	18.075	1678.934	1621.525
482.489	18.211	1677.145	1620.907
483.503	18.081	1676.090	1618.449
484.518	18.201	1673.797	1617.183
485.533	18.042	1673.301	1615.003
486.547	18.047	1672.201	1613.795
487.562	18.203	1671.450	1614.353
488.576	18.208	1669.319	1612.148
489.591	18.297	1667.980	1611.509
490.606	18.241	1666.547	1609.398
491.620	18.311	1664.460	1607.855
492.635	18.168	1663.335	1605.228
493.649	18.231	1662.707	1605.025
494.664	18.114	1662.009	1603.049
495.679	17.963	1660.394	1599.881
496.693	17.962	1658.815	1598.158
497.708	18.161	1657.736	1598.798
498.722	18.166	1657.197	1598.133
499.737	18.157	1654.708	1595.462
500.752	18.162	1653.058	1593.719
501.766	18.072	1652.066	1591.734
502.781	18.144	1649.958	1590.185
503.795	18.196	1649.125	1589.674
504.810	18.028	1648.290	1587.111
505.825	18.157	1647.496	1587.362
506.839	18.073	1647.406	1586.303
507.854	18.209	1644.960	1585.027
508.868	18.153	1643.569	1582.974
509.883	18.200	1643.210	1582.879
510.898	18.146	1641.188	1580.241
511.912	18.072	1639.765	1577.994
512.927	18.192	1637.231	1576.478
513.941	18.169	1635.843	1574.734
514.956	18.219	1635.165	1574.362
515.971	18.278	1633.996	1573.587
516.985	18.121	1633.049	1571.034
518.000	18.096	1632.455	1570.045
519.014	18.060	1631.361	1568.473
520.029	18.073	1629.903	1567.006
521.043	18.115	1628.653	1566.004
522.058	18.104	1627.597	1564.698
523.073	18.087	1626.450	1563.255
524.087	18.225	1625.905	1563.811
525.102	18.305	1623.978	1562.508
526.116	18.242	1622.479	1560.299
527.131	18.174	1621.576	1558.622
528.146	18.347	1620.386	1558.868
529.160	18.222	1619.693	1556.874
530.175	18.147	1618.939	1555.282
531.189	18.304	1617.774	1555.409
532.204	18.234	1616.232	1553.099
533.219	18.225	1615.062	1551.712
534.233	18.113	1615.012	1550.451
535.248	18.270	1613.117	1549.875
536.262	18.350	1612.879	1550.190
537.277	18.318	1611.609	1548.497
538.292	18.310	1609.092	1545.816
539.306	18.299	1606.884	1543.411
540.321	18.118	1606.515	1541.237
541.335	18.183	1605.574	1540.730
542.350	18.432	1602.976	1540.304
543.365	18.307	1602.085	1538.134
544.379	18.392	1600.778	1537.462
545.394	18.146	1599.890	1534.207
546.408	18.350	1597.904	1533.959
547.423	18.338	1596.939	1532.744
548.438	18.220	1595.386	1530.008
549.452	18.217	1595.051	1529.476
550.467	18.176	1594.349	1528.248
551.481	18.208	1592.791	1526.864
552.496	18.262	1592.038	1526.443
553.511	18.288	1590.856	1525.356
554.525	18.143	1590.191	1523.242
555.540	18.344	1589.022	1523.738
556.554	18.340	1588.292	1522.820
557.569	18.454	1585.539	1521.015
558.583	18.284	1584.451	1518.270
559.598	18.280	1583.477	1517.118
560.613	18.259	1582.243	1515.570
561.627	18.216	1581.556	1514.351
562.642	18.315	1579.561	1513.140
563.656	18.306	1578.606	1511.963
564.671	18.223	1577.233	1509.726
565.686	18.170	1576.272	1508.161
566.700	18.189	1574.866	1506.803
567.715	18.208	1572.706	1504.722
568.729	18.171	1571.634	1503.185
569.744	18.015	1570.976	1501.000
570.759	18.207	1569.094	1500.719
571.773	18.296	1567.716	1500.002
572.788	18.162	1567.470	1498.408
573.802	18.143	1565.574	1496.245
574.817	18.274	1563.734	1495.459
575.832	18.330	1563.410	1495.466
576.846	18.303	1561.787	1493.493
577.861	18.258	1560.649	1491.838
578.875	18.370	1560.158	1492.171
579.890	18.517	1558.400	1491.593
580.905	18.293	1558.208	1489.276
581.919	18.464	1557.792	1490.194
582.934	18.296	1556.729	1487.530
583.948	18.394	1555.126	1486.679
584.963	18.400	1553.416	1484.911
585.978	18.375	1552.271	1483.422
586.992	18.425	1552.026	1483.447
588.007	18.499	1551.644	1483.548
589.021	18.291	1550.258	1480.240
590.036	18.302	1548.888	1478.847
591.051	18.376	1547.406	1477.902
592.065	18.406	1545.521	1476.181
593.080	18.278	1544.293	1473.724
594.094	18.399	1542.038	1472.438
595.109	18.382	1540.417	1470.571
596.123	18.208	1539.589	1468.107
597.138	18.359	1538.503	1468.197
598.153	18.522	1536.911	1467.904
599.167	18.379	1536.396	1466.001
600.182	18.409	1535.623	1465.349
601.196	18.358	1534.533	1463.694
602.211	18.353	1533.415	1462.413
603.226	18.394	1532.224	1461.454
604.240	18.424	1530.428	1459.819
605.255	18.412	1529.708	1458.853
606.269	18.323	1528.677	1456.937
607.284	18.409	1527.740	1456.601
608.299	18.469	1526.423	1455.684
609.313	18.437	1525.113	1453.989
610.328	18.423	1524.223	1452.844
611.342	18.436	1522.300	1450.954
612.357	18.437	1521.781	1450.291
613.372	18.383	1521.347	1449.242
614.386	18.351	1519.284	1446.835
615.401	18.421	1518.372	1446.388
616.415	18.354	1518.395	1445.670
617.430	18.443	1517.067	1444.984
618.445	18.485	1515.793	1443.955
619.459	18.271	1514.858	1441.078
620.474	18.282	1513.655	1439.852
621.488	18.351	1512.105	1438.795
622.503	18.294	1510.444	1436.560
623.518	18.335	1509.628	1435.954
624.532	18.385	1508.478	1435.109
625.547	18.211	1508.114	1433.128
626.561	18.480	1506.844	1434.013
627.576	18.485	1505.662	1432.757
628.591	18.375	1504.444	1430.501
629.605	18.324	1503.301	1428.820
630.620	18.300	1501.630	1426.855
631.634	18.230	1501.046	1425.544
632.649	18.152	1500.017	1423.745
633.663	18.126	1498.636	1422.044
634.678	18.346	1497.080	1422.235
635.693	18.510	1495.841	1422.260
636.707	18.480	1494.079	1420.157
637.722	18.450	1493.589	1419.274
638.736	18.561	1492.461	1418.960
639.751	18.758	1491.440	1419.453
640.766	18.518	1491.028	1416.897
641.780	18.587	1488.647	1415.036
642.795	18.454	1487.634	1412.805
643.809	18.571	1487.634	1413.602
644.824	18.439	1486.880	1411.621
645.839	18.626	1485.684	1411.869
646.853	18.620	1484.430	1410.461
647.868	18.564	1482.696	1408.178
648.882	18.609	1481.552	1407.291
649.897	18.522	1480.769	1405.666
650.912	18.537	1478.927	1403.871
651.926	18.503	1478.041	1402.584
652.941	18.414	1476.845	1400.548
653.955	18.530	1475.275	1399.846
654.970	18.531	1473.282	1397.794
655.985	18.502	1472.005	1396.181
656.999	18.468	1471.215	1394.986
658.014	18.483	1470.654	1394.411
659.028	18.458	1469.417	1392.867
660.043	18.486	1468.723	1392.269
661.058	18.499	1467.899	1391.429
662.072	18.540	1466.333	1390.109
663.087	18.602	1465.149	1389.324
664.101	18.506	1463.751	1387.049
665.116	18.572	1462.842	1386.559
666.131	18.544	1462.124	1385.488
667.145	18.704	1460.049	1384.652
668.160	18.669	1459.452	1383.640
669.174	18.556	1458.482	1381.638
670.189	18.514	1457.271	1379.987
671.204	18.468	1457.291	1379.464
672.218	18.502	1456.244	1378.581
673.233	18.532	1454.928	1377.418
674.247	18.684	1452.893	1376.552
675.262	18.782	1451.486	1375.845
676.276	18.707	1450.789	1374.411
677.291	18.577	1450.132	1372.577
678.306	18.554	1448.952	1371.115
679.320	18.696	1447.510	1370.723
680.335	18.672	1447.165	1370.042
681.349	18.625	1446.445	1368.815
682.364	18.548	1445.143	1366.802
683.379	18.588	1444.010	1365.891
684.393	18.553	1442.248	1363.778
685.408	18.657	1441.483	1363.725
686.422	18.541	1440.855	1362.041
687.437	18.657	1440.137	1362.123
688.452	18.613	1439.316	1360.834
689.466	18.439	1437.722	1357.783
690.481	18.391	1435.974	1355.586
691.495	18.418	1435.000	1354.719
692.510	18.339	1434.412	1353.374
693.525	18.301	1432.739	1351.332
694.539	18.242	1432.093	1350.089
695.554	18.377	1430.908	1349.884
696.568	18.586	1429.549	1350.089
697.583	18.585	1428.928	1349.335
698.598	18.571	1428.332	1348.503
699.612	18.536	1427.525	1347.298
700.627	18.554	1426.483	1346.295
701.641	18.793	1424.561	1346.207
702.656	18.653	1423.492	1343.934
703.671	18.681	1423.201	1343.720
704.685	18.797	1422.766	1344.063
705.700	18.604	1421.560	1341.246
706.714	18.658	1419.798	1339.843
707.729	18.746	1418.266	1338.927
708.744	18.648	1417.088	1336.887
709.758	18.681	1416.131	1336.081
710.773	18.556	1415.798	1334.634
711.787	18.504	1414.204	1332.558
712.802	18.537	1412.314	1330.879
713.816	18.661	1411.169	1330.609
714.831	18.747	1410.879	1330.845
715.846	18.669	1409.553	1328.828
716.860	18.761	1408.255	1328.163
717.875	18.738	1407.647	1327.246
718.889	18.632	1406.963	1325.620
719.904	18.751	1405.723	1325.218
720.919	18.764	1403.979	1323.520
721.933	18.737	1404.038	1323.200
722.948	18.646	1402.763	1321.137
723.962	18.674	1401.430	1319.942
724.977	18.725	1400.331	1319.146
725.992	18.794	1399.265	1318.511
727.006	18.773	1397.656	1316.674
728.021	18.811	1396.287	1315.519
729.035	18.723	1396.066	1314.479
730.050	18.604	1395.094	1312.493
731.065	18.628	1393.516	1311.031
732.079	18.790	1392.967	1311.603
733.094	18.708	1391.672	1309.603
734.108	18.847	1389.641	1308.599
735.123	18.766	1388.405	1306.655
736.138	18.550	1387.074	1303.596
737.152	18.966	1386.042	1305.647
738.167	18.882	1385.635	1304.469
739.181	18.756	1384.703	1302.474
740.196	18.829	1383.727	1301.955
741.211	18.733	1383.028	1300.411
742.225	18.794	1382.192	1299.931
743.240	18.732	1380.635	1297.843
744.254	18.666	1379.539	1296.154
745.269	18.704	1378.565	1295.372
746.284	18.690	1377.778	1294.368
747.298	18.564	1377.236	1292.755
748.313	18.254	1376.043	1289.133
749.327	18.398	1374.297	1288.433
750.342	18.407	1373.462	1287.564
751.356	18.241	1372.472	1285.222
752.371	18.381	1371.718	1285.426
753.386	18.488	1370.386	1284.827
754.400	18.662	1369.683	1285.321
755.415	18.732	1368.616	1284.698
756.429	18.717	1367.539	1283.416
757.444	18.760	1366.587	1282.695
758.459	18.665	1365.648	1280.949
759.473	18.785	1365.202	1281.277
760.488	18.714	1364.078	1279.534
761.502	18.799	1362.497	1278.537
762.517	18.765	1360.947	1276.674
763.532	18.960	1358.900	1276.051
764.546	18.731	1358.125	1273.465
765.561	18.514	1358.417	1271.966
766.575	18.599	1357.250	1271.354
767.590	18.643	1355.351	1269.750
768.605	18.520	1354.697	1268.071
769.619	18.747	1353.215	1268.225
770.634	18.802	1352.158	1267.486
771.648	18.776	1351.345	1266.379
772.663	18.886	1350.659	1266.398
773.678	18.841	1350.101	1265.393
774.692	18.819	1349.641	1264.645
775.707	18.995	1348.650	1264.871
776.721	18.898	1348.112	1263.498
777.736	18.769	1346.401	1260.792
778.751	18.909	1345.117	1260.466
779.765	18.768	1344.637	1258.827
780.780	18.702	1344.043	1257.635
781.794	18.735	1342.888	1256.643
782.809	18.735	1341.643	1255.331
783.824	18.728	1340.616	1254.167
784.838	18.569	1339.003	1251.343
785.853	18.287	1338.000	1248.191
786.867	18.444	1337.187	1248.428
787.882	18.423	1337.452	1248.376
788.897	18.599	1335.889	1248.056
789.911	18.554	1335.013	1246.760
790.926	18.608	1333.876	1245.943
791.940	18.713	1332.043	1244.842
792.955	18.744	1331.228	1244.158
793.969	18.704	1330.307	1242.856
794.984	18.686	1329.950	1242.245
795.999	18.840	1328.411	1241.779
797.013	18.910	1326.592	1240.440
798.028	18.799	1325.415	1238.386
799.042	18.759	1325.349	1237.887
800.057	18.895	1324.195	1237.645
801.072	18.967	1321.818	1235.795
802.086	18.776	1321.188	1233.676
803.101	18.938	1320.432	1233.991
804.115	18.977	1319.448	1233.206
805.130	18.915	1318.432	1231.664
806.145	18.873	1317.548	1230.388
807.159	18.982	1315.885	1229.473
808.174	18.924	1314.346	1227.466
809.188	18.888	1313.041	1225.844
810.203	18.825	1312.075	1224.350
811.218	18.760	1310.932	1222.670
812.232	18.739	1309.486	1221.018
813.247	18.713	1308.662	1219.920
814.261	18.650	1308.595	1219.264
815.276	18.783	1307.577	1219.117
816.291	18.827	1306.193	1217.997
817.305	18.803	1305.011	1216.576
818.320	18.886	1303.895	1215.979
819.334	18.814	1302.437	1213.965
820.349	18.897	1301.193	1213.250
821.364	18.936	1299.858	1212.135
822.378	18.999	1298.485	1211.153
823.393	18.915	1296.818	1208.860
824.407	18.952	1295.628	1207.870
825.422	18.752	1295.370	1206.072
826.437	18.702	1294.656	1204.911
827.451	18.579	1293.189	1202.536
828.466	18.540	1291.102	1200.177
829.480	18.509	1289.066	1197.924
830.495	18.492	1287.999	1196.669
831.509	18.619	1287.869	1197.295
832.524	18.643	1287.186	1196.681
833.539	18.764	1285.783	1196.083
834.553	18.827	1284.741	1195.413
835.568	19.033	1283.324	1195.386
836.582	19.019	1281.916	1193.840
837.597	19.076	1280.260	1192.549
838.612	18.860	1279.596	1190.281
839.626	18.888	1278.673	1189.476
840.641	18.846	1278.022	1188.436
841.655	18.795	1277.196	1187.173
842.670	18.787	1275.698	1185.582
843.685	18.752	1274.346	1183.939
844.699	18.842	1273.475	1183.618
845.714	18.862	1272.060	1182.293
846.728	19.031	1271.069	1182.398
847.743	19.010	1270.639	1181.711
848.758	18.874	1269.504	1179.581
849.772	18.954	1268.124	1178.708
850.787	18.895	1266.533	1176.679
851.801	18.793	1265.603	1174.977
852.816	18.799	1264.355	1173.715
853.831	18.792	1262.763	1172.048
854.845	18.773	1261.094	1170.232
855.860	18.661	1260.104	1168.403
856.874	18.734	1258.687	1167.451
857.889	18.703	1257.271	1165.788
858.904	18.587	1255.728	1163.422
859.918	18.673	1253.894	1162.172
860.933	18.420	1253.173	1159.642
861.947	18.568	1252.192	1159.603
862.962	18.775	1251.521	1160.246
863.977	18.502	1250.771	1157.564
864.991	18.677	1249.966	1157.868
866.006	18.844	1249.224	1158.171
867.020	18.913	1248.149	1157.500
868.035	18.764	1246.989	1155.282
869.049	19.100	1245.352	1155.897
870.064	19.170	1244.342	1155.289
871.079	19.064	1244.052	1154.168
872.093	18.985	1243.729	1153.195
873.108	19.153	1242.324	1152.890
874.122	19.095	1240.867	1151.008
875.137	18.917	1240.624	1149.446
876.152	18.896	1239.694	1148.306
877.166	18.972	1237.888	1147.008
878.181	18.836	1237.320	1145.434
879.195	18.990	1236.417	1145.489
880.210	18.974	1236.005	1144.865
881.225	18.997	1234.682	1143.656
882.239	19.046	1233.521	1142.770
883.254	19.064	1232.757	1142.050
884.268	18.903	1232.547	1140.644
885.283	19.025	1230.865	1139.762
886.298	18.935	1229.131	1137.422
887.312	19.048	1228.164	1137.141
888.327	19.019	1227.439	1136.141
889.341	18.990	1226.323	1134.778
890.356	18.945	1225.276	1133.373
891.371	18.851	1224.935	1132.305
892.385	18.879	1224.660	1132.098
893.400	18.833	1223.698	1130.767
894.414	18.774	1222.444	1129.088
895.429	18.755	1220.170	1126.724
896.444	18.643	1218.667	1124.466
897.458	18.710	1217.252	1123.467
898.473	18.767	1217.265	1123.718
899.487	18.736	1216.990	1123.122
900.502	18.824	1215.828	1122.497
901.517	18.934	1214.431	1121.796
902.531	18.884	1213.752	1120.702
903.546	18.961	1212.579	1119.990
904.560	19.041	1211.933	1119.783
905.575	19.172	1211.131	1119.765
906.589	19.093	1209.633	1117.733
907.604	19.066	1209.115	1116.942
