DTS Sentinel unit serial number:	SN409020Multiplexer serial number:	ORYXHardware model number:	OX4-SRSoftware version number:	ORYX F/W v3.00 Oryx Data Collector v3.7.2.0data status	okinstallation	HaddamTimeLapsedifferential loss correction	single-endedforward channel	channel 3reverse channel	N/Adate	2011/06/21time	17:21:17forward acquisition time	30.00reverse acquisition time	0.00gamma	498.7831k internal	0.1813k external	0.1813temperature offset calibration	1.0074default loss term (dB/km)	0.3790temperature slope calibration	1.3530multiplexer offset coefficient	1.0000multiplexer slope coefficient	1.0000fibre end	0.00T internal ref (°C)	33.50T ext. ref 1 (°C)	29.26T ext. ref 2 (°C)	0.25length (m)	temperature (°C)	Stokes	anti-Stokes-747.200	384.376	-0.150	-0.399
-746.185	-95.520	0.542	-0.186
-745.171	5.625	0.225	0.213
-744.156	69.729	0.232	0.306
-743.142	-41.484	0.351	-0.231
-742.127	-104.928	-0.393	0.115
-741.112	-11.165	0.161	0.136
-740.098	-200.000	0.042	0.258
-739.083	249.483	-0.063	-0.137
-738.069	8.971	0.410	0.397
-737.054	-131.659	0.286	0.048
-736.039	-23.670	-0.286	0.220
-735.025	-129.811	-0.201	-0.035
-734.010	66.516	-0.153	-0.200
-732.996	-23.317	0.193	-0.149
-731.981	447.204	-0.029	0.081
-730.966	40.122	0.142	0.164
-729.952	-64.308	0.196	0.102
-728.937	-25.825	-0.381	0.287
-727.923	-17.496	-0.264	0.212
-726.908	-200.000	0.056	-0.575
-725.894	214.525	0.163	-0.333
-724.879	-143.898	-0.219	0.026
-723.864	277.733	0.165	-0.378
-722.850	46.048	-0.289	0.343
-721.835	-32.688	-0.426	0.303
-720.821	87.610	-0.045	-0.064
-719.806	-200.000	-0.007	0.115
-718.791	477.960	0.145	-0.424
-717.777	-148.610	-0.509	0.052
-716.762	-52.990	-0.267	0.157
-715.748	-200.000	-0.022	0.451
-714.733	-70.418	0.125	0.060
-713.718	-181.220	-0.352	-0.009
-712.704	-83.764	-0.473	0.192
-711.689	-121.215	0.124	0.026
-710.675	-128.020	-0.407	-0.074
-709.660	-35.423	-0.302	-0.210
-708.645	800.000	0.163	-0.630
-707.631	-71.110	0.242	0.116
-706.616	-115.508	0.172	-0.041
-705.602	-142.468	-0.266	-0.033
-704.587	-55.498	0.116	-0.067
-703.572	-200.000	-0.004	0.037
-702.558	-126.539	-0.163	0.031
-701.543	-200.000	0.017	-0.477
-700.529	-173.025	0.424	-0.016
-699.514	248.556	0.152	0.331
-698.499	-155.787	0.133	0.011
-697.485	800.000	-0.055	0.305
-696.470	-194.378	0.426	0.004
-695.456	-200.000	0.006	-0.141
-694.441	-200.000	0.080	0.601
-693.426	-77.120	-0.508	-0.226
-692.412	160.555	-0.208	-0.373
-691.397	-26.867	0.285	0.213
-690.383	67.639	-0.195	0.256
-689.368	-161.828	0.242	-0.016
-688.354	-100.268	0.514	0.162
-687.339	-101.168	0.418	0.130
-686.324	-109.147	-0.606	0.164
-685.310	-110.582	-0.012	-0.003
-684.295	200.521	-0.065	-0.129
-683.281	800.000	0.122	0.483
-682.266	-200.000	-0.048	-0.286
-681.251	-200.000	-0.040	-0.359
-680.237	199.644	0.277	-0.546
-679.222	-146.999	-0.182	0.020
-678.208	-6.451	0.265	-0.231
-677.193	-31.393	-0.156	0.112
-676.178	-143.368	-0.143	-0.017
-675.164	-89.789	0.162	-0.060
-674.149	92.524	0.334	0.483
-673.135	-51.965	-0.246	-0.146
-672.120	45.730	0.106	0.126
-671.105	83.276	0.078	0.109
-670.091	-52.501	-0.268	0.158
-669.076	-37.485	0.272	-0.185
-668.062	13.889	-0.038	-0.038
-667.047	-157.977	-0.236	0.018
-666.032	243.561	0.101	-0.217
-665.018	-200.000	0.075	-0.697
-664.003	-90.985	0.196	0.072
-662.989	-65.177	-0.109	0.056
-661.974	548.458	-0.089	-0.275
-660.959	65.621	-0.228	-0.296
-659.945	-200.000	-0.049	0.301
-658.930	2.249	0.287	0.265
-657.916	-142.877	-0.235	0.029
-656.901	8.560	0.138	0.133
-655.886	-22.789	0.351	0.270
-654.872	-133.222	0.371	-0.059
-653.857	-50.148	-0.053	0.032
-652.843	-141.600	-0.185	-0.024
-651.828	62.818	0.208	0.267
-650.814	-149.520	0.218	-0.022
-649.799	481.526	0.098	0.285
-648.784	-106.664	0.186	0.052
-647.770	-18.472	0.134	0.107
-646.755	-28.899	-0.519	0.380
-645.741	23.522	-0.343	0.360
-644.726	-76.393	0.244	0.109
-643.711	-111.666	0.352	0.091
-642.697	800.000	-0.071	0.395
-641.682	134.718	-0.299	-0.497
-640.668	-200.000	-0.038	0.213
-639.653	-37.505	0.173	-0.118
-638.638	-74.222	0.085	0.039
-637.624	10.106	-0.040	0.039
-636.609	23.901	0.234	-0.247
-635.595	-135.627	0.378	0.057
-634.580	-91.338	0.263	0.095
-633.565	-27.906	-0.103	0.076
-632.551	320.093	-0.185	0.451
-631.536	-86.677	-0.145	0.056
-630.522	39.546	-0.026	0.030
-629.507	-200.000	-0.015	-0.367
-628.492	11.285	-0.153	-0.150
-627.478	-70.905	-0.250	0.120
-626.463	-75.677	0.139	-0.063
-625.449	-200.000	-0.083	0.668
-624.434	-53.072	0.198	0.116
-623.419	-200.000	-0.082	-0.588
-622.405	-53.021	-0.096	0.056
-621.390	-91.312	0.149	-0.054
-620.376	-200.000	0.000	-0.255
-619.361	-121.533	-0.212	0.045
-618.346	136.714	0.105	-0.175
-617.332	460.653	-0.090	-0.256
-616.317	-70.437	0.362	0.174
-615.303	-8.008	0.310	-0.266
-614.288	47.627	0.262	-0.312
-613.273	247.328	0.233	0.505
-612.259	-47.692	-0.551	0.340
-611.244	-105.748	0.203	0.058
-610.230	800.000	0.060	-0.305
-609.215	95.225	0.010	0.014
-608.201	-98.441	0.451	0.146
-607.186	425.131	0.169	-0.466
-606.171	-11.108	0.519	-0.436
-605.157	-200.000	-0.003	-0.046
-604.142	800.000	0.043	0.186
-603.128	34.128	-0.284	0.316
-602.113	-192.967	0.078	-0.001
-601.098	-200.000	-0.027	-0.172
-600.084	111.409	0.162	-0.249
-599.069	68.842	0.150	-0.197
-598.055	-157.334	-0.316	0.024
-597.040	124.072	0.140	-0.225
-596.025	-165.901	-0.475	-0.026
-595.011	-146.921	-0.360	0.039
-593.996	48.607	0.404	0.483
-592.982	-7.624	0.449	-0.387
-591.967	35.475	0.128	0.143
-590.952	295.186	-0.152	0.357
-589.938	-89.505	0.294	-0.110
-588.923	-75.667	0.546	-0.246
-587.909	-154.694	0.238	0.020
-586.894	210.052	0.077	-0.154
-585.879	-200.000	-0.254	0.000
-584.865	-29.099	0.336	0.246
-583.850	166.463	-0.019	0.035
-582.836	149.111	0.085	0.148
-581.821	-200.000	-0.037	-0.232
-580.806	-61.571	-0.390	0.208
-579.792	-9.777	-0.271	0.230
-578.777	-200.000	0.035	-0.224
-577.763	800.000	0.088	0.394
-576.748	-127.808	0.302	-0.055
-575.733	42.379	-0.308	-0.357
-574.719	34.680	-0.214	0.239
-573.704	-47.645	0.173	0.107
-572.690	-59.721	-0.328	0.179
-571.675	-200.000	-0.059	0.687
-570.661	202.719	-0.105	0.208
-569.646	-108.523	-0.218	0.059
-568.631	-93.352	0.269	0.094
-567.617	35.384	0.089	0.100
-566.602	800.000	-0.131	0.523
-565.588	800.000	-0.021	0.087
-564.573	402.491	-0.138	-0.371
-563.558	-58.636	-0.410	-0.226
-562.544	215.348	-0.133	0.271
-561.529	-7.490	0.649	0.559
-560.515	-11.470	0.216	-0.181
-559.500	800.000	-0.174	-0.666
-558.485	-25.503	-0.334	-0.251
-557.471	-43.249	-0.143	0.092
-556.456	309.266	-0.010	-0.024
-555.442	-112.750	-0.345	0.087
-554.427	83.918	-0.136	0.189
-553.412	-200.000	0.106	-0.758
-552.398	-141.393	-0.063	-0.008
-551.383	177.021	-0.246	0.458
-550.369	-21.159	-0.303	0.235
-549.354	800.000	-0.060	-0.239
-548.339	-122.852	0.356	-0.072
-547.325	800.000	-0.052	-0.246
-546.310	-90.624	-0.294	-0.108
-545.296	-146.085	0.281	0.031
-544.281	-42.126	-0.187	-0.121
-543.266	243.628	-0.082	0.175
-542.252	-26.005	0.401	-0.300
-541.237	760.408	0.022	-0.077
-540.223	75.168	-0.040	0.053
-539.208	-53.146	0.302	0.176
-538.193	367.243	-0.079	-0.204
-537.179	302.183	-0.053	0.126
-536.164	-42.337	-0.596	0.386
-535.150	372.895	-0.081	0.209
-534.135	-136.052	0.115	0.017
-533.121	-108.391	-0.313	0.085
-532.106	41.896	-0.097	-0.112
-531.091	707.510	0.021	-0.069
-530.077	331.788	-0.195	-0.480
-529.062	-21.714	0.351	-0.272
-528.048	-200.000	-0.004	-0.563
-527.033	800.000	0.164	0.642
-526.018	-200.000	-0.004	0.345
-525.004	96.506	0.159	0.232
-523.989	800.000	-0.089	-0.408
-522.975	179.425	-0.098	0.183
-521.960	-6.990	-0.315	-0.272
-520.945	-57.912	0.150	-0.083
-519.931	599.613	-0.122	0.386
-518.916	-72.665	0.247	-0.115
-517.902	750.117	0.154	0.532
-516.887	14.926	0.138	-0.137
-515.872	800.000	0.054	-0.211
-514.858	522.632	0.034	-0.101
-513.843	0.174	0.199	0.181
-512.829	-160.784	-0.480	-0.032
-511.814	-200.000	-0.005	-0.304
-510.799	-200.000	0.022	-0.301
-509.785	800.000	0.093	-0.389
-508.770	800.000	-0.092	0.431
-507.756	375.024	-0.041	-0.106
-506.741	278.098	0.132	0.300
-505.726	-109.250	-0.515	0.138
-504.712	-111.322	0.375	0.097
-503.697	381.406	-0.206	0.540
-502.683	-38.347	0.103	-0.069
-501.668	800.000	0.080	0.420
-500.653	-11.824	0.150	-0.125
-499.639	-200.000	-0.022	0.135
-498.624	-3.274	0.479	0.424
-497.610	-76.272	-0.119	0.053
-496.595	-98.941	0.028	0.009
-495.581	-157.751	-0.323	0.024
-494.566	-200.000	-0.074	-0.492
-493.551	136.203	0.085	-0.140
-492.537	-184.746	0.453	0.009
-491.522	62.823	-0.160	0.204
-490.508	-31.126	-0.192	0.137
-489.493	131.852	0.083	0.135
-488.478	-81.230	0.427	0.178
-487.464	72.750	-0.364	-0.483
-486.449	342.489	-0.085	0.212
-485.435	-143.122	0.347	-0.042
-484.420	800.000	-0.134	-0.625
-483.405	-200.000	0.092	0.636
-482.391	25.131	-0.345	0.363
-481.376	-135.388	0.229	0.034
-480.362	-134.024	-0.165	0.026
-479.347	-89.073	-0.125	-0.047
-478.332	-200.000	-0.064	0.442
-477.318	-71.292	0.391	-0.186
-476.303	-112.855	-0.286	-0.071
-475.289	617.945	0.040	0.128
-474.274	800.000	0.098	0.425
-473.259	226.956	0.141	-0.292
-472.245	-127.220	-0.114	0.021
-471.230	-200.000	0.079	-0.482
-470.216	800.000	0.060	-0.303
-469.201	37.297	0.270	-0.304
-468.186	57.379	-0.210	-0.261
-467.172	157.349	-0.074	-0.130
-466.157	-138.887	0.168	0.023
-465.143	-155.074	0.287	0.024
-464.128	-45.416	-0.087	0.054
-463.113	-53.836	0.476	0.275
-462.099	-79.512	0.386	0.164
-461.084	47.025	0.338	0.399
-460.070	-28.925	-0.364	0.264
-459.055	-126.568	-0.066	0.012
-458.040	348.765	0.141	0.355
-457.026	-90.183	-0.263	0.097
-456.011	-68.978	0.388	0.189
-454.997	-152.329	0.536	0.048
-453.982	146.637	0.096	0.164
-452.968	-200.000	-0.054	0.429
-451.953	-93.179	-0.169	0.059
-450.938	40.181	0.070	0.080
-449.924	-45.374	0.225	0.141
-448.909	79.751	0.264	0.360
-447.895	43.709	-0.248	0.288
-446.880	-82.404	0.304	-0.125
-445.865	-200.000	0.003	0.223
-444.851	198.271	-0.089	-0.173
-443.836	-200.000	0.022	-0.696
-442.822	19.971	0.144	0.148
-441.807	-102.514	0.131	0.039
-440.792	13.408	-0.155	0.153
-439.778	-18.186	-0.088	-0.070
-438.763	13.211	0.213	-0.209
-437.749	-58.559	0.434	-0.238
-436.734	-200.000	0.006	0.126
-435.719	110.190	-0.160	-0.244
-434.705	37.572	0.248	-0.279
-433.690	-1.306	-0.316	0.282
-432.676	75.048	-0.062	0.084
-431.661	-116.852	-0.201	-0.046
-430.646	-27.504	0.095	0.070
-429.632	-152.413	0.239	0.022
-428.617	335.426	-0.206	0.507
-427.603	-92.850	0.068	-0.024
-426.588	-101.265	-0.294	0.090
-425.573	-141.912	0.199	-0.025
-424.559	-200.000	0.064	0.567
-423.544	-200.000	-0.030	-0.376
-422.530	-187.982	-0.411	-0.007
-421.515	145.304	0.228	-0.387
-420.500	-102.457	-0.273	-0.082
-419.486	-98.891	-0.597	0.191
-418.471	-68.070	0.290	-0.142
-417.457	228.266	-0.104	-0.216
-416.442	49.428	0.057	-0.069
-415.428	-27.533	0.102	0.075
-414.413	-35.377	-0.262	0.180
-413.398	-104.351	0.260	-0.076
-412.384	-187.714	0.434	-0.007
-411.369	-200.000	0.011	0.124
-410.355	-5.157	0.157	-0.137
-409.340	-65.104	-0.066	-0.034
-408.325	-65.334	-0.270	0.137
-407.311	45.147	0.253	-0.296
-406.296	-46.331	0.533	-0.331
-405.282	-146.138	0.205	-0.023
-404.267	49.100	-0.050	0.060
-403.252	23.036	0.324	-0.336
-402.238	-200.000	-0.083	-0.764
-401.223	9.588	-0.425	-0.408
-400.209	60.725	0.233	-0.292
-399.194	-151.895	-0.385	0.035
-398.179	-167.298	-0.528	0.027
-397.165	-17.325	0.281	-0.224
-396.150	227.273	0.101	-0.208
-395.136	15.071	0.225	-0.223
-394.121	121.035	0.166	0.261
-393.106	-35.885	0.078	-0.053
-392.092	-55.446	0.494	-0.279
-391.077	-66.473	0.110	0.055
-390.063	-84.602	0.109	0.043
-389.048	-174.555	0.484	-0.017
-388.033	32.537	0.201	0.220
-387.019	710.163	-0.033	-0.111
-386.004	99.382	0.152	-0.223
-384.990	-88.889	0.345	-0.129
-383.975	-110.100	0.253	-0.066
-382.960	277.886	0.133	-0.300
-381.946	-94.119	0.241	-0.083
-380.931	169.749	0.032	-0.057
-379.917	-200.000	0.013	0.112
-378.902	88.752	-0.151	-0.213
-377.888	-200.000	-0.023	-0.224
-376.873	260.087	0.399	-0.875
-375.858	-200.000	-0.010	-0.339
-374.844	344.413	-0.169	0.421
-373.829	164.121	-0.082	0.146
-372.815	-111.106	0.260	0.067
-371.800	145.899	0.022	0.038
-370.785	-16.742	-0.397	0.318
-369.771	-200.000	-0.024	-0.263
-368.756	531.631	0.039	-0.118
-367.742	160.978	0.118	0.208
-366.727	-120.311	-0.243	0.052
-365.712	-96.773	0.368	-0.122
-364.698	-130.229	0.313	0.053
-363.683	-200.000	-0.007	0.493
-362.669	-138.782	0.090	-0.012
-361.654	-200.000	0.002	0.319
-360.639	163.706	-0.034	0.060
-359.625	800.000	0.024	-0.113
-358.610	449.729	0.050	0.140
-357.596	-74.339	-0.273	-0.124
-356.581	150.864	-0.254	-0.437
-355.566	132.105	0.115	0.187
-354.552	-68.100	-0.214	0.105
-353.537	24.314	-0.321	0.335
-352.523	-112.048	-0.453	-0.115
-351.508	257.507	0.268	-0.584
-350.493	-143.999	0.282	0.033
-349.479	800.000	-0.119	-0.420
-348.464	83.005	0.134	0.185
-347.450	-6.984	-0.299	-0.256
-346.435	152.656	-0.187	0.323
-345.420	-63.739	-0.355	-0.183
-344.406	-54.410	0.170	0.097
-343.391	-200.000	-0.088	0.515
-342.377	44.121	-0.228	0.264
-341.362	-58.868	-0.353	0.192
-340.348	-117.326	-0.284	0.065
-339.333	-200.000	-0.022	0.176
-338.318	58.920	-0.178	-0.221
-337.304	34.420	0.200	0.220
-336.289	-152.216	-0.136	-0.012
-335.275	-37.499	-0.096	-0.065
-334.260	-136.489	-0.405	-0.059
-333.245	-102.448	-0.195	0.058
-332.231	91.343	-0.254	0.360
-331.216	5.446	-0.381	-0.355
-330.202	-74.362	0.106	0.048
-329.187	458.252	-0.208	-0.587
-328.172	91.714	0.034	-0.048
-327.158	-77.742	0.596	0.259
-326.143	-145.242	0.190	-0.021
-325.129	-85.850	-0.168	0.065
-324.114	-200.000	0.004	-0.209
-323.099	105.014	-0.082	0.122
-322.085	-88.995	-0.511	0.190
-321.070	152.987	0.210	-0.363
-320.056	-200.000	-0.042	-0.505
-319.041	-200.000	0.015	0.125
-318.026	-30.659	0.240	0.171
-317.012	-37.083	-0.362	0.244
-315.997	58.120	-0.243	0.300
-314.983	-135.366	-0.191	-0.028
-313.968	800.000	0.120	0.443
-312.953	-84.328	0.046	-0.018
-311.939	-200.000	-0.428	0.003
-310.924	-21.951	0.348	0.266
-309.910	-41.943	0.458	-0.296
-308.895	2.876	0.211	-0.193
-307.880	-25.460	0.059	-0.044
-306.866	-33.554	-0.329	-0.229
-305.851	-73.905	-0.355	0.162
-304.837	800.000	-0.059	-0.259
-303.822	9.837	0.178	-0.171
-302.807	-163.488	0.075	-0.004
-301.793	800.000	-0.106	-0.395
-300.778	30.445	-0.055	0.059
-299.764	38.405	-0.194	-0.218
-298.749	-38.808	-0.120	-0.080
-297.735	-6.267	-0.176	-0.151
-296.720	800.000	0.062	-0.257
-295.705	-103.116	0.279	0.083
-294.691	-200.000	-0.378	0.000
-293.676	70.911	0.284	0.371
-292.662	-200.000	0.019	-0.457
-291.647	-200.000	-0.023	-0.245
-290.632	-84.045	0.230	-0.092
-289.618	83.285	-0.403	-0.554
-288.603	46.175	0.239	-0.279
-287.589	74.699	0.100	0.132
-286.574	-94.555	-0.626	-0.213
-285.559	-117.268	0.044	-0.010
-284.545	-200.000	-0.013	0.204
-283.530	-200.000	-0.024	0.219
-282.516	357.661	-0.139	-0.350
-281.501	8.003	0.203	-0.192
-280.486	-75.374	-0.422	0.189
-279.472	-193.847	0.426	0.004
-278.457	-65.017	-0.188	-0.095
-277.443	-200.000	0.032	-0.192
-276.428	109.153	0.071	0.108
-275.413	-84.574	-0.343	-0.136
-274.399	-200.000	-0.073	0.597
-273.384	-114.547	-0.308	0.074
-272.370	-98.599	-0.080	0.026
-271.355	-50.723	-0.198	-0.117
-270.340	89.459	0.322	-0.453
-269.326	35.186	-0.321	-0.355
-268.311	-200.000	-0.019	-0.466
-267.297	38.303	0.313	-0.351
-266.282	30.088	0.145	-0.155
-265.267	-29.576	-0.377	0.271
-264.253	-91.303	-0.263	-0.094
-263.238	-200.000	-0.011	-0.275
-262.224	48.258	0.104	0.123
-261.209	-119.135	0.311	0.068
-260.195	181.396	0.072	0.134
-259.180	-200.000	-0.016	-0.096
-258.165	154.970	-0.334	0.579
-257.151	181.085	0.152	0.282
-256.136	-166.944	-0.211	0.011
-255.122	124.840	0.118	-0.187
-254.107	800.000	-0.069	-0.250
-253.092	62.075	-0.146	0.184
-252.078	38.833	0.102	-0.115
-251.063	-23.316	-0.432	-0.326
-250.049	-200.000	-0.013	0.687
-249.034	-200.000	-0.047	0.322
-248.019	-200.000	0.002	-0.455
-247.005	127.327	-0.121	-0.194
-245.990	20.861	0.308	0.314
-244.976	-112.736	0.343	-0.085
-243.961	126.170	-0.150	0.240
-242.946	-149.201	0.213	0.021
-241.932	800.000	-0.022	0.098
-240.917	34.976	-0.177	0.195
-239.903	364.636	-0.130	0.331
-238.888	450.294	-0.045	0.126
-237.873	-102.504	-0.032	0.010
-236.859	-135.625	0.064	-0.009
-235.844	-57.938	0.324	-0.178
-234.830	-64.246	-0.433	-0.221
-233.815	-157.710	-0.114	0.008
-232.800	-67.323	-0.617	-0.304
-231.786	-200.000	0.011	0.290
-230.771	800.000	-0.107	-0.557
-229.757	18.388	-0.151	0.152
-228.742	-87.745	0.320	0.121
-227.727	-125.722	-0.320	0.060
-226.713	-45.607	-0.244	-0.151
-225.698	-43.867	-0.202	0.127
-224.684	-80.261	-0.593	0.248
-223.669	305.043	-0.178	0.416
-222.655	617.806	0.083	0.264
-221.640	-45.982	-0.265	0.164
-220.625	122.314	-0.123	-0.194
-219.611	-133.314	-0.066	-0.010
-218.596	93.976	0.339	0.485
-217.582	-100.874	0.068	0.021
-216.567	-11.728	-0.482	0.397
-215.552	15.972	0.228	0.226
-214.538	194.568	-0.092	0.175
-213.523	-161.839	0.414	0.026
-212.509	137.655	-0.071	0.118
-211.494	-200.000	0.003	-0.178
-210.479	114.916	0.078	-0.120
-209.465	94.158	-0.211	0.302
-208.450	-76.397	-0.199	-0.088
-207.436	800.000	-0.128	0.456
-206.421	-200.000	0.041	-0.326
-205.406	22.650	-0.074	-0.076
-204.392	-52.001	-0.173	0.101
-203.377	40.177	0.128	0.145
-202.363	715.233	-0.099	0.331
-201.348	-200.000	0.048	-0.533
-200.333	24.186	-0.281	0.292
-199.319	800.000	-0.119	0.559
-198.304	-133.847	0.485	-0.075
-197.290	109.834	0.109	0.164
-196.275	193.273	-0.099	0.188
-195.260	-126.126	-0.210	-0.039
-194.246	-79.891	-0.373	0.157
-193.231	-135.595	0.192	0.028
-192.217	-101.039	-0.189	0.058
-191.202	134.728	0.254	0.414
-190.187	-101.985	-0.079	-0.024
-189.173	247.523	0.249	0.530
-188.158	-138.323	0.217	0.030
-187.144	167.592	0.150	0.267
-186.129	-49.628	0.221	0.132
-185.114	-30.158	0.232	0.165
-184.100	491.224	0.078	-0.224
-183.085	129.947	-0.299	-0.481
-182.071	-102.532	-0.573	-0.171
-181.056	11.369	-0.502	-0.482
-180.042	647.471	0.054	0.174
-179.027	58.192	0.189	0.232
-178.012	-131.238	0.638	0.105
-176.998	312.980	0.065	0.153
-175.983	188.014	0.217	-0.408
-174.969	-140.898	0.614	0.078
-173.954	800.000	0.049	-0.204
-172.939	-200.000	0.090	-0.614
-171.925	283.735	-0.088	-0.199
-170.910	4.630	0.219	-0.202
-169.896	800.000	-0.083	-0.385
-168.881	-200.000	0.050	-0.295
-167.866	-46.032	0.480	-0.296
-166.852	-102.658	-0.252	0.075
-165.837	-116.112	-0.282	0.065
-164.823	-1.775	-0.577	-0.509
-163.808	-43.887	-0.246	0.155
-162.793	26.846	-0.406	-0.426
-161.779	3.661	0.146	0.134
-160.764	223.720	0.136	0.276
-159.750	800.000	0.050	0.268
-158.735	-20.031	0.105	0.081
-157.720	-38.549	0.199	-0.132
-156.706	-135.422	0.286	0.042
-155.691	-47.636	-0.128	0.078
-154.677	218.366	0.185	-0.372
-153.662	-67.681	0.419	0.205
-152.647	609.313	0.127	-0.401
-151.633	-200.000	0.033	-0.207
-150.618	54.446	-0.279	0.337
-149.604	499.971	0.107	0.311
-148.589	-22.061	0.066	0.050
-147.574	-63.790	0.462	-0.236
-146.560	184.635	0.161	-0.299
-145.545	-73.958	-0.106	0.048
-144.531	-77.197	-0.172	-0.075
-143.516	-2.198	0.077	0.068
-142.502	-166.620	0.382	0.020
-141.487	203.401	0.065	-0.126
-140.472	800.000	0.022	-0.114
-139.458	45.394	0.382	0.442
-138.443	-64.367	0.202	0.103
-137.429	-51.531	-0.274	0.160
-136.414	-105.600	-0.388	-0.110
-135.399	12.148	0.222	0.214
-134.385	9.833	0.032	-0.031
-133.370	-144.973	0.336	-0.038
-132.356	40.219	-0.264	0.298
-131.341	127.564	0.153	-0.243
-130.326	6.829	0.257	-0.239
-129.312	-33.330	0.118	-0.082
-128.297	-193.285	0.354	0.004
-127.283	-126.335	-0.327	0.061
-126.268	120.347	-0.040	-0.062
-125.253	-42.878	0.201	0.127
-124.239	-90.997	0.449	0.161
-123.224	-153.790	-0.533	-0.045
-122.210	491.092	-0.193	0.557
-121.195	-200.000	0.007	0.097
-120.180	-117.985	0.538	-0.120
-119.166	-77.602	0.442	0.191
-118.151	800.000	0.014	-0.054
-117.137	71.462	-0.240	0.312
-116.122	189.952	0.273	0.514
-115.107	800.000	0.102	0.451
-114.093	-79.395	0.422	-0.178
-113.078	108.926	0.267	-0.401
-112.064	-158.212	-0.514	-0.037
-111.049	81.800	0.169	-0.230
-110.034	-54.101	-0.235	-0.134
-109.020	-71.875	0.287	0.133
-108.005	-200.000	0.039	-0.260
-106.991	268.413	-0.334	0.735
-105.976	100.765	0.220	0.320
-104.962	52.711	0.224	-0.268
-103.947	-93.262	-0.461	-0.159
-102.932	-19.263	-0.044	-0.034
-101.918	363.095	-0.114	0.287
-100.903	-190.039	0.201	0.003
-99.889	125.413	-0.108	-0.171
-98.874	-200.000	-0.027	-0.327
-97.859	800.000	0.069	0.281
-96.845	-108.602	-0.325	0.087
-95.830	-95.430	-0.444	0.148
-94.816	-60.723	0.280	0.148
-93.801	-95.996	-0.162	0.054
-92.786	800.000	0.071	0.300
-91.772	-65.828	0.264	-0.132
-90.757	112.371	0.237	-0.359
-89.743	-118.862	-0.147	-0.032
-88.728	293.998	0.143	0.329
-87.713	-90.840	0.209	-0.075
-86.699	694.315	-0.108	-0.357
-85.684	30.391	-0.204	-0.218
-84.670	-76.188	-0.085	-0.037
-83.655	348.670	-0.094	0.234
-82.640	-200.000	-0.018	0.160
-81.626	800.000	-0.044	-0.199
-80.611	-200.000	0.174	-0.001
-79.597	-152.476	0.115	0.010
-78.582	-1.432	0.035	0.030
-77.567	79.330	0.137	0.183
-76.553	800.000	0.098	0.513
-75.538	-200.000	0.017	0.278
-74.524	-144.374	-0.014	0.002
-73.509	-200.000	0.039	0.320
-72.494	-9.038	0.478	-0.399
-71.480	-98.840	0.150	-0.047
-70.465	-164.081	0.524	-0.030
-69.451	-76.359	0.230	0.101
-68.436	38.639	-0.215	0.240
-67.422	-132.041	-0.268	0.043
-66.407	179.268	0.120	-0.221
-65.392	14.156	-0.256	0.249
-64.378	-52.589	0.144	-0.083
-63.363	10.147	0.272	0.258
-62.349	-200.000	-0.049	-0.337
-61.334	121.022	-0.825	-1.284
-60.319	-84.769	0.472	-0.185
-59.305	272.971	-2.837	-6.283
-58.290	43.566	2.586	2.956
-57.276	544.433	3.495	10.481
-56.261	-200.000	13.913	224.131
-55.246	482.111	1150.946	3281.754
-54.232	64.936	2793.324	3525.719
-53.217	72.552	2703.673	3525.157
-52.203	77.540	2437.449	3243.814
-51.188	34.721	2093.693	2286.156
-50.173	36.902	1966.902	2172.236
-49.159	34.635	1956.197	2134.883
-48.144	34.088	1952.003	2124.082
-47.130	33.937	1949.065	2119.109
-46.115	33.901	1947.467	2116.883
-45.100	33.739	1946.907	2114.383
-44.086	33.724	1945.442	2112.540
-43.071	33.823	1943.814	2111.796
-42.057	33.754	1943.063	2110.117
-41.042	33.770	1941.810	2108.851
-40.027	33.793	1940.077	2107.146
-39.013	33.818	1938.283	2105.397
-37.998	33.791	1936.141	2102.680
-36.984	33.741	1934.885	2100.676
-35.969	33.714	1934.073	2099.411
-34.954	33.616	1932.958	2097.036
-33.940	33.598	1932.683	2096.453
-32.925	33.509	1931.324	2093.902
-31.911	33.597	1929.941	2093.299
-30.896	33.616	1927.826	2091.129
-29.881	33.619	1926.945	2090.131
-28.867	33.609	1924.575	2087.366
-27.852	33.671	1923.717	2087.035
-26.838	33.446	1922.766	2083.435
-25.823	33.510	1921.296	2082.460
-24.809	33.455	1920.432	2080.839
-23.794	33.487	1919.010	2079.569
-22.779	33.515	1917.568	2078.236
-21.765	33.523	1916.312	2076.879
-20.750	33.490	1914.942	2074.948
-19.736	33.437	1914.015	2073.277
-18.721	33.505	1912.081	2071.847
-17.706	33.557	1910.696	2070.829
-16.692	33.293	1910.547	2067.692
-15.677	33.326	1908.849	2066.130
-14.663	33.412	1907.350	2065.369
-13.648	33.388	1905.719	2063.258
-12.633	33.284	1905.562	2061.871
-11.619	33.381	1904.476	2061.673
-10.604	33.407	1902.505	2059.738
-9.590	33.323	1901.856	2058.037
-8.575	33.322	1900.031	2055.976
-7.560	33.484	1898.920	2056.457
-6.546	33.361	1897.442	2053.433
-5.531	33.428	1896.080	2052.610
-4.517	33.306	1895.672	2050.758
-3.502	33.465	1893.828	2050.408
-2.487	33.491	1892.772	2049.467
-1.473	33.592	1890.404	2047.920
-0.458	34.380	1872.739	2037.171
0.556	31.552	2008.891	2140.041
1.571	30.489	2227.981	2359.599
2.586	32.302	2275.402	2433.138
3.600	32.502	2278.725	2439.000
4.615	32.675	2279.115	2441.375
5.629	32.638	2276.433	2437.731
6.644	32.707	2274.382	2436.145
7.659	32.796	2272.735	2435.241
8.673	32.956	2271.843	2436.065
9.688	32.128	2276.022	2429.493
10.702	28.940	2345.338	2460.398
11.717	25.287	2406.106	2473.351
12.731	12.839	2373.983	2268.832
13.746	2.061	2344.691	2092.646
14.761	0.475	2338.822	2065.351
15.775	0.220	2336.945	2059.937
16.790	0.230	2334.844	2057.973
17.804	0.158	2333.460	2055.513
18.819	0.068	2333.300	2053.898
19.834	0.178	2331.032	2053.165
20.848	0.112	2330.280	2051.354
21.863	0.127	2328.299	2049.559
22.877	0.068	2327.406	2047.722
23.892	0.135	2323.923	2045.337
24.907	0.016	2322.679	2042.367
25.921	0.086	2320.690	2041.327
26.936	0.086	2317.444	2038.236
27.950	0.031	2315.652	2035.660
28.965	0.120	2312.448	2033.812
29.980	0.095	2311.451	2032.351
30.994	0.261	2310.637	2033.638
32.009	6.831	2332.797	2142.688
33.023	22.661	2381.805	2406.252
34.038	31.024	2399.556	2538.904
35.053	32.171	2400.001	2554.760
36.067	31.896	2396.369	2546.844
37.082	31.227	2392.814	2533.628
38.096	31.002	2390.480	2527.797
39.111	31.529	2388.629	2532.706
40.126	31.735	2387.002	2533.472
41.140	32.084	2387.643	2538.606
42.155	31.701	2383.692	2528.891
43.169	31.315	2380.492	2519.970
44.184	31.552	2378.486	2520.746
45.199	31.391	2376.422	2516.090
46.213	31.122	2375.075	2510.714
47.228	31.171	2373.545	2509.469
48.242	31.446	2371.512	2510.722
49.257	31.615	2371.303	2512.481
50.271	31.845	2369.769	2513.666
51.286	31.969	2367.883	2513.032
52.301	31.558	2364.887	2504.022
53.315	30.786	2361.327	2489.578
54.330	29.429	2355.207	2464.627
55.344	28.560	2350.026	2447.253
56.359	28.564	2347.048	2443.922
57.374	28.364	2344.622	2438.429
58.388	28.188	2341.323	2432.353
59.403	28.232	2337.757	2428.947
60.417	28.391	2335.984	2428.922
61.432	28.719	2334.777	2431.744
62.447	28.454	2332.689	2425.757
63.461	28.366	2330.303	2421.813
64.476	28.318	2327.109	2417.573
65.490	28.809	2327.542	2424.247
66.505	29.083	2328.571	2428.663
67.520	29.766	2330.572	2439.519
68.534	30.264	2328.783	2443.945
69.549	30.236	2325.090	2439.416
70.563	30.415	2322.658	2438.930
71.578	30.757	2321.914	2442.364
72.593	31.344	2322.392	2450.320
73.607	31.969	2322.776	2458.674
74.622	31.875	2319.654	2453.829
75.636	31.159	2315.826	2440.087
76.651	31.233	2313.408	2438.216
77.666	31.545	2313.036	2441.621
78.680	31.410	2310.928	2437.338
79.695	31.448	2306.755	2433.143
80.709	31.089	2305.450	2426.782
81.724	31.020	2304.078	2424.145
82.739	31.704	2303.102	2431.757
83.753	32.350	2302.307	2439.054
84.768	32.105	2300.777	2433.947
85.782	31.792	2298.160	2426.815
86.797	31.750	2296.393	2424.113
87.812	31.273	2293.261	2414.312
88.826	31.128	2290.545	2409.289
89.841	31.644	2289.264	2414.346
90.855	32.235	2288.831	2421.248
91.870	31.344	2284.929	2405.313
92.884	31.086	2282.992	2399.652
93.899	31.333	2282.384	2401.921
94.914	30.698	2279.813	2390.717
95.928	29.119	2274.279	2364.267
96.943	28.696	2271.031	2355.162
97.957	30.107	2273.439	2375.569
98.972	31.141	2273.465	2388.623
99.987	30.743	2268.896	2378.429
101.001	30.782	2267.083	2376.742
102.016	31.078	2265.487	2378.588
103.030	31.094	2263.735	2376.661
104.045	31.567	2262.656	2381.298
105.060	32.115	2262.314	2387.654
106.074	31.996	2260.672	2384.117
107.089	31.251	2256.792	2370.244
108.103	31.230	2256.694	2369.586
109.118	31.780	2255.176	2374.711
110.133	31.800	2252.889	2372.277
111.147	31.473	2251.458	2366.326
112.162	31.509	2248.767	2363.676
113.176	31.490	2246.832	2361.123
114.191	31.288	2244.107	2355.417
115.206	31.177	2242.060	2351.573
116.220	31.363	2240.586	2352.103
117.235	30.904	2237.002	2342.257
118.249	30.578	2235.571	2336.358
119.264	31.071	2234.414	2341.094
120.279	31.299	2234.119	2343.383
121.293	31.196	2231.193	2338.733
122.308	30.791	2227.909	2329.916
123.322	30.372	2225.947	2322.319
124.337	29.706	2223.255	2310.873
125.352	29.096	2220.534	2300.106
126.366	29.494	2221.417	2305.748
127.381	30.486	2220.437	2316.894
128.395	30.911	2218.191	2319.589
129.410	31.250	2216.740	2322.035
130.424	31.035	2215.580	2317.860
131.439	30.917	2214.219	2314.684
132.454	30.686	2211.404	2308.584
133.468	30.811	2208.915	2307.269
134.483	30.945	2207.051	2306.707
135.497	30.771	2206.173	2303.344
136.512	31.456	2205.202	2310.578
137.527	31.651	2203.254	2310.679
138.541	31.082	2202.797	2302.859
139.556	31.086	2200.908	2300.658
140.570	31.124	2198.893	2298.746
141.585	31.211	2196.565	2297.108
142.600	31.312	2197.012	2298.552
143.614	31.597	2195.708	2300.435
144.629	31.860	2194.634	2302.290
145.643	31.353	2191.518	2292.495
146.658	30.974	2188.439	2284.328
147.673	30.698	2186.524	2278.653
148.687	31.050	2186.400	2282.587
149.702	31.344	2184.943	2284.404
150.716	31.267	2184.295	2282.505
151.731	31.865	2185.460	2290.804
152.746	32.413	2184.097	2295.816
153.760	31.004	2179.559	2273.518
154.775	28.962	2172.575	2240.988
155.789	28.050	2170.070	2226.967
156.804	29.381	2170.575	2243.506
157.819	30.529	2169.238	2255.871
158.833	31.128	2167.813	2261.422
159.848	31.604	2167.756	2266.890
160.862	32.057	2168.404	2272.811
161.877	32.355	2167.575	2275.296
162.892	32.387	2167.884	2275.734
163.906	32.641	2165.741	2276.295
164.921	32.264	2163.891	2269.500
165.935	32.357	2161.035	2267.368
166.950	31.886	2157.925	2258.135
167.964	31.386	2154.281	2247.999
168.979	31.073	2151.704	2241.271
169.994	31.412	2151.706	2245.093
171.008	31.544	2148.832	2243.417
172.023	31.246	2147.560	2238.235
173.037	31.762	2148.278	2244.930
174.052	31.685	2145.737	2241.075
175.067	31.101	2143.394	2231.342
176.081	30.835	2141.028	2225.416
177.096	30.752	2139.669	2222.746
178.110	30.582	2137.839	2218.533
179.125	30.587	2135.800	2216.216
180.140	31.113	2135.946	2222.407
181.154	31.058	2134.571	2220.051
182.169	30.807	2132.950	2215.097
183.183	30.305	2130.142	2205.917
184.198	29.065	2125.506	2186.062
185.213	28.733	2123.379	2179.646
186.227	30.243	2125.058	2199.124
187.242	30.653	2123.875	2202.518
188.256	30.758	2122.436	2202.013
189.271	31.248	2122.863	2208.016
190.286	31.560	2120.226	2208.713
191.300	30.584	2117.262	2193.788
192.315	30.463	2115.630	2190.403
193.329	31.311	2114.578	2199.094
194.344	31.930	2115.219	2206.818
195.359	31.973	2114.487	2206.300
196.373	31.991	2114.535	2206.292
197.388	31.961	2110.706	2201.685
198.402	31.488	2107.729	2192.744
199.417	31.613	2105.032	2191.141
200.432	31.855	2103.651	2192.293
201.446	32.047	2103.967	2194.609
202.461	31.775	2100.100	2187.128
203.475	31.146	2097.033	2176.298
204.490	30.989	2096.132	2173.259
205.504	31.180	2094.668	2173.718
206.519	31.168	2090.415	2168.902
207.534	31.298	2090.985	2170.756
208.548	31.818	2091.482	2177.087
209.563	30.988	2087.262	2162.762
210.577	30.927	2085.680	2160.154
211.592	31.701	2086.918	2170.197
212.607	30.901	2083.105	2156.664
213.621	28.101	2075.762	2116.283
214.636	28.091	2075.677	2115.833
215.650	30.224	2078.932	2143.710
216.665	31.393	2079.094	2157.187
217.680	32.047	2078.852	2164.261
218.694	32.176	2077.763	2164.363
219.709	31.510	2073.821	2152.304
220.723	31.715	2075.138	2155.773
221.738	32.556	2073.448	2163.483
222.753	32.357	2070.637	2157.992
223.767	31.919	2068.360	2150.318
224.782	31.415	2064.177	2139.916
225.796	31.322	2063.710	2138.097
226.811	31.720	2064.285	2143.026
227.826	31.816	2062.431	2141.942
228.840	32.125	2061.601	2144.375
229.855	31.775	2058.881	2137.275
230.869	30.990	2054.507	2123.498
231.884	30.790	2052.710	2119.095
232.899	31.171	2051.726	2122.180
233.913	31.298	2052.209	2123.880
234.928	31.510	2052.226	2126.063
235.942	31.296	2049.841	2120.892
236.957	30.987	2046.553	2113.713
237.972	31.121	2046.820	2115.266
238.986	31.574	2045.259	2118.561
240.001	31.178	2042.789	2111.245
241.015	30.675	2041.261	2103.699
242.030	30.747	2040.062	2103.026
243.045	29.744	2034.877	2086.067
244.059	29.294	2034.508	2080.329
245.074	30.640	2034.823	2095.661
246.088	30.876	2031.930	2095.100
247.103	30.777	2031.307	2093.084
248.117	31.193	2030.310	2096.502
249.132	31.372	2028.412	2096.316
250.147	30.897	2025.659	2087.868
251.161	30.628	2022.892	2081.738
252.176	30.780	2023.000	2083.310
253.190	30.747	2019.524	2079.117
254.205	30.893	2019.349	2080.317
255.220	31.164	2018.151	2081.875
256.234	31.081	2016.914	2079.421
257.249	30.777	2015.837	2074.658
258.263	30.954	2015.201	2075.739
259.278	31.223	2014.592	2077.872
260.293	31.375	2012.789	2077.462
261.307	31.277	2009.475	2072.698
262.322	31.146	2008.953	2070.454
263.336	30.792	2005.996	2063.216
264.351	30.758	2005.459	2062.036
265.366	31.255	2005.076	2066.925
266.380	31.503	2004.641	2068.990
267.395	31.184	2001.576	2062.036
268.409	30.928	2000.027	2057.352
269.424	31.275	1999.053	2059.949
270.439	31.560	1998.887	2062.696
271.453	31.156	1994.940	2053.910
272.468	29.193	1988.393	2025.257
273.482	28.524	1986.962	2016.168
274.497	30.107	1986.649	2033.078
275.512	31.097	1987.275	2044.383
276.526	31.092	1986.653	2043.449
277.541	31.305	1983.796	2042.601
278.555	31.147	1982.100	2038.880
279.570	30.715	1980.306	2032.051
280.585	30.597	1977.771	2027.903
281.599	30.882	1978.001	2031.028
282.614	30.401	1973.404	2020.799
283.628	27.514	1965.004	1980.464
284.643	25.982	1959.989	1958.464
285.657	25.826	1959.821	1956.363
286.672	25.871	1957.667	1954.462
287.687	25.508	1955.537	1948.145
288.701	25.373	1954.224	1945.145
289.716	25.558	1952.410	1945.116
290.730	25.588	1950.464	1943.263
291.745	26.093	1950.083	1948.133
292.760	26.260	1951.262	1950.888
293.774	28.185	1956.409	1976.725
294.789	30.564	1960.871	2006.857
295.803	31.234	1959.127	2012.083
296.818	30.983	1957.144	2007.099
297.833	31.264	1956.451	2009.182
298.847	31.397	1955.772	2009.684
299.862	31.375	1954.612	2008.016
300.876	30.992	1950.453	1999.376
301.891	29.661	1946.102	1980.348
302.906	29.168	1945.285	1973.968
303.920	30.652	1947.703	1992.172
304.935	31.362	1947.234	1999.092
305.949	31.495	1944.443	1997.419
306.964	31.660	1943.381	1997.858
307.979	30.966	1939.505	1986.210
308.993	28.033	1928.659	1943.573
310.008	25.337	1921.826	1907.697
311.022	25.134	1921.030	1904.514
312.037	25.660	1920.508	1909.378
313.052	25.681	1917.841	1906.729
314.066	25.118	1915.338	1898.022
315.081	24.902	1915.146	1895.300
316.095	25.239	1913.186	1896.724
317.110	25.128	1911.659	1893.795
318.125	25.191	1910.320	1892.912
319.139	25.077	1909.720	1890.889
320.154	25.484	1908.419	1893.678
321.168	25.429	1907.228	1891.695
322.183	26.271	1909.208	1902.339
323.197	28.799	1915.985	1935.674
324.212	31.104	1917.559	1961.428
325.227	31.326	1915.394	1961.320
326.241	31.328	1915.063	1960.772
327.256	31.505	1912.849	1960.128
328.270	31.171	1912.828	1956.362
329.285	31.325	1913.462	1958.392
330.300	30.911	1910.836	1951.112
331.314	28.783	1904.305	1921.871
332.329	28.485	1902.425	1916.610
333.343	30.479	1904.601	1939.513
334.358	31.672	1905.070	1952.279
335.373	32.061	1904.256	1955.282
336.387	32.206	1902.132	1954.386
337.402	31.967	1901.203	1950.691
338.416	31.784	1897.974	1945.240
339.431	31.393	1896.482	1939.398
340.446	30.159	1889.644	1919.349
341.460	26.967	1880.809	1877.022
342.475	25.923	1877.647	1862.803
343.489	25.564	1874.011	1855.248
344.504	25.352	1872.961	1851.796
345.519	25.318	1871.453	1849.728
346.533	25.119	1869.538	1845.554
347.548	25.179	1867.948	1844.390
348.562	25.273	1866.765	1843.966
349.577	25.277	1866.289	1843.322
350.592	25.345	1866.536	1844.041
351.606	25.397	1863.923	1841.774
352.621	25.196	1861.351	1836.950
353.635	25.219	1861.904	1837.512
354.650	26.768	1865.832	1857.130
355.665	29.413	1869.558	1887.869
356.679	30.454	1870.214	1899.008
357.694	30.751	1869.759	1901.366
358.708	31.115	1869.194	1904.294
359.723	30.802	1866.540	1898.160
360.738	28.954	1861.482	1873.885
361.752	28.796	1860.824	1871.376
362.767	30.409	1861.463	1888.301
363.781	31.192	1861.460	1896.064
364.796	32.033	1860.911	1903.865
365.810	31.731	1860.268	1899.899
366.825	30.701	1855.086	1883.905
367.840	28.017	1847.109	1848.334
368.854	25.434	1841.363	1816.161
369.869	24.882	1838.287	1807.307
370.883	25.098	1837.920	1808.923
371.898	25.405	1836.964	1810.881
372.913	25.589	1835.154	1810.735
373.927	25.051	1833.721	1803.667
374.942	24.845	1832.567	1800.228
375.956	25.407	1831.311	1804.457
376.971	25.366	1828.974	1801.531
377.986	25.008	1827.036	1795.798
379.000	25.176	1826.102	1796.357
380.015	25.247	1826.032	1796.784
381.029	26.985	1829.554	1817.547
382.044	30.172	1835.585	1855.427
383.059	31.615	1835.073	1869.185
384.073	31.383	1833.419	1864.950
385.088	31.338	1833.854	1864.721
386.102	31.528	1833.379	1865.918
387.117	31.532	1831.290	1863.612
388.132	31.617	1830.232	1863.167
389.146	31.159	1828.356	1856.455
390.161	29.039	1822.030	1828.656
391.175	28.789	1819.636	1823.545
392.190	30.077	1818.399	1834.918
393.205	30.485	1818.209	1838.565
394.219	30.931	1817.587	1842.143
395.234	31.000	1816.582	1841.596
396.248	31.210	1814.795	1841.640
397.263	31.016	1812.387	1837.061
398.278	30.739	1810.136	1831.813
399.292	30.630	1808.357	1828.718
400.307	29.319	1803.299	1810.456
401.321	26.744	1796.752	1778.312
402.336	25.658	1792.770	1763.460
403.350	25.464	1792.141	1760.720
404.365	26.146	1792.458	1767.533
405.380	26.196	1790.083	1765.471
406.394	25.566	1788.082	1757.102
407.409	25.537	1786.590	1755.143
408.423	25.433	1785.362	1752.705
409.438	25.222	1783.183	1748.290
410.453	25.136	1782.145	1746.224
411.467	25.441	1781.332	1748.198
412.482	26.642	1784.585	1762.944
413.496	29.776	1789.262	1798.037
414.511	30.849	1790.688	1809.743
415.526	30.735	1788.413	1806.117
416.540	31.048	1786.752	1807.271
417.555	30.934	1785.219	1804.395
418.569	30.326	1784.473	1797.506
419.584	30.468	1784.213	1798.407
420.599	30.713	1783.542	1799.904
421.613	30.580	1783.031	1797.874
422.628	30.974	1781.524	1799.966
423.642	31.671	1781.849	1806.847
424.657	31.109	1778.242	1797.530
425.672	30.212	1775.677	1786.038
426.686	30.559	1775.148	1788.654
427.701	30.403	1774.132	1785.909
428.715	30.485	1771.741	1784.081
429.730	30.898	1771.718	1787.824
430.745	31.278	1770.592	1790.137
431.759	31.207	1770.383	1789.031
432.774	31.180	1768.786	1786.938
433.788	29.673	1764.638	1768.059
434.803	28.591	1761.909	1754.713
435.818	28.617	1761.337	1754.185
436.832	28.539	1759.861	1751.761
437.847	27.068	1750.765	1728.432
438.861	16.900	1721.746	1603.424
439.876	3.766	1696.660	1456.129
440.890	0.531	1690.663	1420.247
441.905	0.319	1688.684	1416.410
442.920	0.161	1687.630	1413.871
443.934	0.147	1686.380	1412.517
444.949	0.132	1684.829	1410.912
445.963	0.195	1684.075	1410.699
446.978	0.124	1683.608	1409.476
447.993	0.056	1682.873	1408.047
449.007	-0.000	1681.068	1405.839
450.022	0.168	1678.380	1405.007
451.036	0.111	1677.585	1403.638
452.051	1.470	1684.414	1421.972
453.066	13.303	1712.061	1557.726
454.080	26.283	1734.291	1701.469
455.095	29.387	1738.801	1735.089
456.109	30.164	1740.846	1744.272
457.124	30.732	1739.799	1748.384
458.139	30.022	1738.645	1740.309
459.153	29.848	1737.325	1737.137
460.168	30.079	1734.964	1736.740
461.182	30.422	1733.427	1738.228
462.197	30.688	1733.541	1740.632
463.212	31.175	1732.972	1744.435
464.226	31.889	1733.000	1750.950
465.241	32.083	1731.374	1750.923
466.255	32.004	1729.995	1748.578
467.270	31.905	1729.679	1747.123
468.285	32.636	1730.242	1754.325
469.299	33.180	1729.722	1758.674
470.314	33.489	1728.449	1760.058
471.328	33.327	1727.101	1756.963
472.343	33.125	1726.821	1754.581
473.358	33.250	1725.096	1753.785
474.372	33.432	1723.719	1753.864
475.387	33.980	1723.738	1758.776
476.401	33.800	1721.707	1754.823
477.416	33.063	1719.107	1745.121
478.430	33.111	1717.473	1743.702
479.445	33.508	1718.212	1747.920
480.460	33.826	1717.051	1749.474
481.474	33.865	1716.626	1749.199
482.489	33.907	1714.580	1747.288
483.503	33.131	1710.824	1736.095
484.518	32.719	1709.279	1730.521
485.533	33.193	1709.352	1734.754
486.547	32.854	1706.115	1728.139
487.562	31.718	1702.938	1714.274
488.576	32.245	1703.335	1719.320
489.591	33.160	1703.756	1727.944
490.606	33.664	1703.469	1732.069
491.620	33.826	1701.824	1731.677
492.635	33.426	1698.544	1724.477
493.649	32.463	1695.379	1712.253
494.664	32.400	1695.411	1711.509
495.679	33.348	1695.360	1719.911
496.693	33.430	1693.775	1718.846
497.708	33.169	1692.563	1715.034
498.722	32.782	1691.330	1710.049
499.737	33.041	1689.857	1710.713
500.752	33.176	1688.965	1710.837
501.766	33.388	1686.938	1710.497
502.781	33.231	1685.399	1707.313
503.795	33.286	1683.966	1706.151
504.810	33.348	1682.752	1705.285
505.825	33.004	1681.647	1700.843
506.839	32.396	1680.035	1693.511
507.854	32.215	1676.955	1688.570
508.868	31.752	1674.227	1681.444
509.883	30.939	1671.914	1671.590
510.898	30.361	1669.645	1663.919
511.912	30.249	1667.743	1660.814
512.927	30.154	1665.645	1657.677
513.941	30.029	1663.713	1654.433
514.956	30.057	1663.538	1654.312
515.971	30.356	1662.248	1655.510
516.985	29.836	1660.539	1648.952
518.000	29.749	1659.291	1646.740
519.014	29.739	1658.252	1645.424
520.029	29.788	1657.242	1644.663
521.043	29.933	1656.023	1644.543
522.058	30.106	1654.825	1644.707
523.073	30.143	1653.783	1643.803
524.087	30.101	1652.789	1642.242
525.102	30.412	1653.334	1645.360
526.116	31.472	1654.286	1655.541
527.131	32.388	1653.900	1663.104
528.146	32.199	1653.016	1660.339
529.160	32.058	1652.731	1658.597
530.175	32.469	1651.708	1661.023
531.189	32.408	1649.684	1658.249
532.204	32.247	1648.056	1654.990
533.219	32.686	1647.878	1658.499
534.233	33.028	1647.688	1661.132
535.248	32.534	1645.033	1653.897
536.262	31.700	1642.960	1644.257
537.277	32.173	1642.752	1648.018
538.292	32.751	1642.222	1652.384
539.306	32.982	1640.413	1652.395
540.321	32.145	1637.545	1641.959
541.335	31.582	1635.043	1634.319
542.350	31.911	1634.896	1636.859
543.365	32.446	1633.881	1640.341
544.379	32.769	1632.821	1641.907
545.394	32.388	1630.359	1635.904
546.408	32.207	1629.792	1633.552
547.423	32.926	1630.375	1640.225
548.438	33.631	1630.401	1646.207
549.452	33.520	1627.839	1642.460
550.467	32.697	1625.364	1632.603
551.481	32.448	1624.172	1629.044
552.496	32.160	1623.212	1625.382
553.511	31.869	1621.434	1620.882
554.525	32.148	1620.409	1622.080
555.540	32.062	1619.844	1620.582
556.554	32.258	1618.734	1620.974
557.569	31.962	1617.125	1616.600
558.583	31.504	1614.761	1610.085
559.598	31.436	1612.696	1607.249
560.613	31.321	1611.922	1605.289
561.627	30.879	1609.462	1598.831
562.642	30.301	1606.464	1590.687
563.656	29.893	1603.964	1584.511
564.671	29.742	1602.327	1581.404
565.686	29.475	1601.697	1578.299
566.700	29.689	1599.751	1578.027
567.715	29.696	1598.318	1576.486
568.729	29.560	1597.082	1573.915
569.744	29.642	1596.248	1573.603
570.759	29.766	1595.005	1573.252
571.773	29.556	1593.523	1569.812
572.788	29.321	1591.697	1565.821
573.802	29.649	1590.281	1567.030
574.817	29.590	1589.152	1565.233
575.832	29.490	1588.544	1563.590
576.846	30.090	1588.225	1568.199
577.861	30.916	1588.705	1575.505
578.875	31.117	1588.717	1577.036
579.890	31.394	1587.884	1578.378
580.905	31.583	1586.347	1578.257
581.919	31.463	1586.318	1577.022
582.934	31.522	1585.581	1576.600
583.948	31.187	1583.860	1571.868
584.963	31.155	1582.661	1570.222
585.978	31.562	1581.668	1572.488
586.992	31.128	1579.165	1566.147
588.007	30.802	1579.012	1563.062
589.021	30.815	1576.520	1560.514
590.036	29.990	1573.763	1550.656
591.051	30.355	1573.090	1552.882
592.065	30.714	1572.206	1554.833
593.080	30.725	1570.210	1552.769
594.094	31.083	1569.570	1554.952
595.109	31.675	1569.578	1559.730
596.123	32.605	1570.851	1568.595
597.138	32.463	1569.069	1565.442
598.153	31.776	1566.495	1556.951
599.167	31.474	1563.303	1551.075
600.182	31.179	1562.426	1547.560
601.196	31.147	1562.838	1547.517
602.211	31.641	1561.722	1550.336
603.226	31.230	1559.338	1544.370
604.240	31.294	1558.463	1543.847
605.255	31.295	1557.354	1542.574
606.269	31.101	1556.505	1539.942
607.284	30.973	1554.324	1536.542
608.299	30.850	1552.613	1533.646
609.313	30.766	1551.128	1531.299
610.328	30.539	1549.549	1527.683
611.342	30.483	1548.608	1526.106
612.357	30.460	1547.147	1524.300
613.372	30.094	1545.212	1519.197
614.386	29.923	1544.460	1516.861
615.401	29.923	1543.261	1515.506
616.415	29.794	1542.708	1513.717
617.430	29.441	1541.308	1509.266
618.445	29.301	1538.716	1505.394
619.459	29.326	1537.871	1504.595
620.474	29.498	1536.436	1504.421
621.488	29.573	1536.672	1505.080
622.503	30.152	1535.802	1508.789
623.518	29.524	1533.894	1501.606
624.532	29.172	1531.975	1496.668
625.547	29.177	1531.193	1495.768
626.561	29.205	1530.168	1494.813
627.576	29.020	1529.189	1492.173
628.591	29.313	1526.751	1491.996
629.605	29.219	1526.371	1490.683
630.620	29.433	1526.007	1491.890
631.634	29.975	1526.100	1496.207
632.649	29.889	1524.134	1493.401
633.663	29.416	1521.505	1486.816
634.678	29.066	1520.170	1482.504
635.693	29.016	1518.623	1480.414
636.707	29.096	1517.045	1479.344
637.722	29.117	1516.268	1478.575
638.736	29.416	1515.801	1480.351
639.751	29.868	1515.280	1483.315
640.766	30.062	1514.021	1483.463
641.780	30.058	1512.913	1482.166
642.795	30.263	1513.465	1484.180
643.809	30.427	1512.132	1484.009
644.824	30.543	1511.546	1484.190
645.839	30.769	1511.273	1485.557
646.853	30.651	1509.471	1482.663
647.868	30.562	1507.610	1479.947
648.882	30.616	1506.294	1478.908
649.897	30.510	1505.105	1476.716
650.912	30.296	1502.855	1472.626
651.926	30.284	1501.391	1470.920
652.941	30.165	1500.211	1468.638
653.955	29.979	1498.539	1465.346
654.970	29.454	1495.560	1458.096
655.985	28.998	1494.377	1453.147
656.999	28.863	1492.106	1449.695
658.014	28.768	1491.220	1447.904
659.028	29.300	1490.894	1451.626
660.043	29.723	1491.227	1455.129
661.058	29.869	1490.528	1455.423
662.072	30.149	1489.679	1456.635
663.087	30.213	1489.250	1456.547
664.101	30.054	1488.860	1454.733
665.116	30.155	1487.748	1454.269
666.131	30.253	1486.110	1453.269
667.145	30.379	1485.866	1453.841
668.160	30.388	1483.561	1451.490
669.174	30.024	1481.205	1446.148
670.189	29.999	1480.974	1445.559
671.204	30.342	1480.954	1448.054
672.218	30.241	1479.685	1445.851
673.233	30.330	1477.958	1444.686
674.247	30.247	1476.405	1442.347
675.262	30.115	1474.739	1439.512
676.276	29.850	1474.183	1436.734
677.291	30.023	1473.891	1437.627
678.306	30.404	1473.655	1440.194
679.320	30.451	1471.678	1438.458
680.335	29.923	1469.897	1432.439
681.349	29.859	1469.195	1431.086
682.364	29.933	1468.818	1431.122
683.379	29.662	1466.704	1426.789
684.393	29.530	1464.800	1423.738
685.408	29.434	1463.607	1421.665
686.422	29.417	1462.493	1420.281
687.437	29.187	1461.950	1417.802
688.452	28.974	1460.885	1414.959
689.466	28.956	1459.677	1413.477
690.481	29.184	1457.360	1412.822
691.495	28.926	1457.002	1410.317
692.510	29.226	1457.071	1412.527
693.525	29.896	1455.947	1416.427
694.539	29.569	1453.591	1411.451
695.554	29.011	1452.032	1405.485
696.568	29.031	1451.402	1404.861
697.583	29.026	1450.241	1403.530
698.598	29.144	1449.796	1403.841
699.612	29.321	1448.591	1403.860
700.627	29.346	1447.315	1402.647
701.641	29.705	1446.755	1404.674
702.656	29.635	1446.056	1403.299
703.671	29.649	1445.568	1402.758
704.685	29.877	1444.843	1403.628
705.700	29.846	1443.878	1402.288
706.714	29.662	1442.346	1399.233
707.729	29.745	1441.105	1398.489
708.744	29.606	1438.998	1395.226
709.758	29.313	1436.740	1390.645
710.773	28.712	1435.111	1384.353
711.787	28.489	1433.813	1381.241
712.802	28.937	1433.546	1384.209
713.816	29.321	1432.729	1386.156
714.831	29.520	1431.841	1386.637
715.846	29.528	1430.755	1385.476
716.860	29.410	1429.808	1383.511
717.875	29.440	1428.838	1382.626
718.889	29.473	1427.772	1381.678
719.904	29.402	1426.655	1379.899
720.919	29.470	1424.973	1378.615
721.933	29.404	1424.571	1377.565
722.948	29.019	1424.244	1374.200
723.962	29.153	1423.091	1373.924
724.977	29.330	1421.070	1373.135
725.992	29.531	1420.343	1373.769
727.006	29.682	1419.409	1373.830
728.021	29.674	1418.120	1372.361
729.035	29.598	1416.838	1370.391
730.050	29.734	1415.696	1370.131
731.065	29.708	1414.601	1368.716
732.079	29.483	1413.430	1365.746
733.094	29.637	1412.729	1366.052
734.108	29.843	1411.123	1365.865
735.123	29.765	1409.541	1363.592
736.138	29.500	1408.902	1360.843
737.152	29.392	1407.785	1358.805
738.167	29.476	1406.851	1358.363
739.181	29.445	1406.296	1357.431
740.196	29.454	1405.423	1356.491
741.211	29.286	1404.546	1354.249
742.225	29.501	1403.331	1354.496
743.240	29.318	1401.679	1351.391
744.254	29.308	1399.714	1349.263
745.269	29.125	1398.360	1346.452
746.284	29.056	1397.305	1344.770
747.298	28.878	1397.123	1343.122
748.313	28.819	1396.036	1341.483
749.327	28.822	1395.362	1340.702
750.342	29.263	1395.147	1343.564
751.356	29.820	1394.640	1346.996
752.371	29.804	1392.831	1344.971
753.386	29.113	1391.230	1338.216
754.400	29.166	1390.176	1337.430
755.415	29.451	1389.148	1338.361
756.429	29.640	1387.748	1338.226
757.444	29.577	1387.094	1336.975
758.459	29.526	1385.545	1334.951
759.473	29.479	1383.980	1332.944
760.488	29.248	1382.808	1329.981
761.502	28.884	1381.594	1326.017
762.517	29.272	1380.528	1327.640
763.532	29.249	1379.641	1326.466
764.546	29.060	1378.474	1323.815
765.561	28.597	1376.660	1318.575
766.575	28.135	1375.643	1314.103
767.590	28.132	1374.355	1312.694
768.605	28.650	1373.822	1315.761
769.619	28.841	1373.459	1316.633
770.634	29.000	1372.062	1316.279
771.648	29.011	1371.031	1315.210
772.663	28.984	1370.264	1314.126
773.678	29.261	1370.098	1315.795
774.692	29.401	1369.121	1315.708
775.707	29.378	1368.601	1314.884
776.721	29.349	1367.691	1313.645
777.736	29.191	1366.678	1311.382
778.751	29.288	1365.833	1311.111
779.765	29.331	1364.492	1309.970
780.780	29.359	1363.882	1309.432
781.794	29.352	1363.574	1308.929
782.809	29.074	1361.990	1305.268
783.824	28.903	1360.470	1302.435
784.838	29.014	1358.724	1301.399
785.853	29.267	1358.312	1302.645
786.867	29.103	1356.977	1300.049
787.882	28.847	1356.345	1297.466
788.897	28.908	1355.480	1296.921
789.911	28.934	1354.353	1295.870
790.926	28.763	1353.411	1293.603
791.940	28.985	1351.872	1293.547
792.955	29.054	1350.923	1292.968
793.969	29.087	1349.408	1291.602
794.984	29.061	1348.656	1290.540
795.999	29.224	1348.018	1290.922
797.013	29.263	1346.486	1289.574
798.028	29.311	1344.811	1288.157
799.042	29.233	1344.625	1287.274
800.057	29.429	1343.482	1287.404
801.072	29.318	1342.082	1285.131
802.086	29.329	1340.704	1283.733
803.101	29.381	1339.238	1282.537
804.115	29.037	1339.249	1279.991
805.130	29.125	1338.305	1279.549
806.145	29.161	1337.211	1278.600
807.159	28.988	1335.423	1275.535
808.174	29.157	1334.257	1275.448
809.188	29.249	1332.662	1274.405
810.203	28.973	1330.977	1270.726
811.218	28.737	1329.031	1267.078
812.232	28.258	1327.534	1262.182
813.247	28.183	1326.688	1260.711
814.261	28.483	1327.096	1263.023
815.276	28.800	1326.497	1264.492
816.291	28.817	1325.727	1263.725
817.305	28.857	1324.814	1262.981
818.320	29.078	1323.573	1263.175
819.334	29.197	1322.184	1262.518
820.349	29.283	1321.009	1261.836
821.364	29.283	1319.818	1260.547
822.378	29.100	1318.517	1257.891
823.393	29.244	1316.784	1257.077
824.407	29.277	1315.641	1256.064
825.422	29.147	1315.803	1255.179
826.437	29.075	1314.697	1253.482
827.451	28.909	1312.563	1250.162
828.466	28.992	1311.027	1249.112
829.480	29.018	1309.042	1247.251
830.495	29.035	1307.136	1245.402
831.509	28.881	1306.998	1244.071
832.524	28.944	1306.555	1243.930
833.539	29.075	1305.461	1243.627
834.553	29.174	1303.965	1242.724
835.568	29.241	1302.637	1241.764
836.582	29.167	1301.927	1240.441
837.597	29.180	1300.984	1239.483
838.612	29.061	1298.974	1236.611
839.626	28.987	1297.640	1234.698
840.641	28.826	1296.679	1232.549
841.655	28.578	1296.202	1230.275
842.670	28.167	1294.640	1225.880
843.685	27.872	1293.299	1222.476
844.699	28.434	1292.114	1224.989
845.714	28.736	1291.447	1226.233
846.728	28.619	1290.811	1224.700
847.743	28.660	1290.380	1224.417
848.758	28.838	1289.140	1224.290
849.772	29.195	1287.842	1225.296
850.787	29.038	1286.227	1222.563
851.801	29.023	1285.695	1221.813
852.816	28.961	1284.455	1220.078
853.831	29.194	1282.112	1219.252
854.845	29.057	1280.607	1216.770
855.860	28.918	1279.698	1214.834
856.874	28.907	1278.275	1213.268
857.889	28.990	1277.119	1212.571
858.904	28.866	1275.836	1210.387
859.918	28.973	1274.839	1210.003
860.933	29.047	1273.806	1209.367
861.947	28.968	1272.695	1207.647
862.962	29.121	1271.037	1206.942
863.977	29.000	1270.336	1205.336
864.991	28.843	1269.537	1203.397
866.006	29.045	1269.383	1204.434
867.020	29.046	1267.860	1202.850
868.035	29.166	1267.052	1202.728
869.049	29.114	1265.939	1201.188
870.064	29.215	1264.700	1200.528
871.079	29.088	1264.023	1198.911
872.093	28.899	1263.731	1197.254
873.108	28.968	1262.164	1196.082
874.122	28.913	1259.867	1193.403
875.137	28.585	1259.376	1190.651
876.152	28.438	1258.699	1188.910
877.166	28.428	1256.935	1187.039
878.181	28.599	1256.088	1187.208
879.195	28.743	1255.725	1187.661
880.210	29.067	1254.585	1188.543
881.225	29.124	1253.922	1188.145
882.239	29.013	1253.152	1186.552
883.254	28.936	1252.388	1185.186
884.268	29.197	1251.320	1185.724
885.283	29.139	1250.181	1184.125
886.298	28.870	1249.024	1181.153
887.312	29.073	1247.987	1181.340
888.327	29.010	1247.190	1180.038
889.341	29.150	1245.021	1178.747
890.356	28.946	1244.953	1177.224
891.371	29.103	1244.691	1177.851
892.385	29.001	1244.079	1176.471
893.400	29.055	1242.658	1175.332
894.414	28.940	1241.455	1173.318
895.429	28.918	1239.778	1171.454
896.444	29.400	1238.973	1173.635
897.458	29.900	1238.198	1175.952
898.473	29.419	1236.627	1171.256
899.487	29.112	1235.696	1168.276
900.502	29.186	1234.583	1167.553
901.517	29.137	1233.585	1166.159
902.531	29.106	1232.592	1164.883
903.546	29.257	1231.530	1164.700
904.560	29.031	1231.745	1163.327
905.575	29.009	1230.222	1161.610
906.589	28.847	1228.997	1159.287
907.604	28.826	1228.054	1158.123
