DTS Sentinel unit serial number:	SN409020Multiplexer serial number:	ORYXHardware model number:	OX4-SRSoftware version number:	ORYX F/W v3.00 Oryx Data Collector v3.7.2.0data status	okinstallation	HaddamTimeLapsedifferential loss correction	single-endedforward channel	channel 3reverse channel	N/Adate	2011/06/22time	10:51:02forward acquisition time	30.00reverse acquisition time	0.00gamma	498.7831k internal	0.1778k external	0.1778temperature offset calibration	1.0074default loss term (dB/km)	0.3790temperature slope calibration	1.3530multiplexer offset coefficient	1.0000multiplexer slope coefficient	1.0000fibre end	0.00T internal ref (°C)	30.06T ext. ref 1 (°C)	24.70T ext. ref 2 (°C)	-0.09length (m)	temperature (°C)	Stokes	anti-Stokes-747.200	-52.657	-0.129	0.078
-746.185	-92.134	-0.289	0.106
-745.171	-172.106	-0.332	0.014
-744.156	108.768	0.147	-0.230
-743.142	-38.193	-0.437	0.303
-742.127	-61.507	-0.166	0.091
-741.112	-34.102	0.330	-0.237
-740.098	-122.243	0.382	-0.081
-739.083	179.793	-0.131	-0.252
-738.069	89.270	-0.388	0.566
-737.054	0.006	-0.284	0.264
-736.039	-61.299	-0.191	0.105
-735.025	-200.000	-0.034	0.524
-734.010	-148.258	0.687	-0.073
-732.996	445.279	0.160	-0.461
-731.981	183.730	-0.192	0.373
-730.966	25.903	-0.175	-0.190
-729.952	10.373	0.110	0.109
-728.937	57.548	-0.269	0.344
-727.923	-54.051	0.234	0.139
-726.908	-116.316	0.190	-0.046
-725.894	-110.157	-0.080	0.022
-724.879	-38.069	-0.406	-0.281
-723.864	701.062	-0.082	-0.283
-722.850	145.579	0.197	-0.347
-721.835	-118.608	0.397	0.091
-720.821	114.746	0.241	-0.384
-719.806	-14.347	-0.116	-0.098
-718.791	709.423	0.083	0.289
-717.777	149.196	0.254	0.451
-716.762	-116.680	-0.238	0.057
-715.748	800.000	0.104	-0.400
-714.733	-100.590	0.289	0.093
-713.718	-109.486	-0.070	-0.019
-712.704	-200.000	-0.010	-0.200
-711.689	-76.714	0.368	-0.168
-710.675	-200.000	0.001	0.350
-709.660	-18.959	0.289	0.235
-708.645	243.276	0.046	0.102
-707.631	-13.614	0.073	-0.062
-706.616	-45.769	-0.213	0.137
-705.602	-34.724	-0.209	0.149
-704.587	-200.000	-0.042	0.280
-703.572	800.000	-0.052	-0.279
-702.558	-200.000	-0.010	-0.504
-701.543	-11.108	0.302	-0.259
-700.529	-130.479	0.259	0.045
-699.514	4.196	0.223	0.213
-698.499	386.660	-0.169	0.457
-697.485	-200.000	0.020	-0.235
-696.470	385.911	0.074	0.200
-695.456	-28.291	-0.260	0.195
-694.441	-49.079	-0.148	0.092
-693.426	-168.523	-0.243	-0.012
-692.412	-100.869	-0.243	-0.078
-691.397	-141.773	-0.615	-0.080
-690.383	-54.690	0.405	0.238
-689.368	-200.000	0.040	-0.301
-688.354	142.206	-0.197	0.341
-687.339	-83.428	0.353	0.147
-686.324	-42.602	-0.269	-0.179
-685.310	-58.485	-0.462	-0.261
-684.295	-200.000	0.021	-0.338
-683.281	154.794	0.281	-0.504
-682.266	-117.168	0.158	-0.037
-681.251	-97.565	-0.508	-0.171
-680.237	132.477	-0.269	0.453
-679.222	-31.277	0.377	0.276
-678.208	-48.029	-0.263	0.165
-677.193	-1.785	-0.177	-0.162
-676.178	-136.466	-0.423	-0.063
-675.164	316.602	-0.047	-0.116
-674.149	-200.000	0.006	0.294
-673.135	505.296	-0.013	-0.039
-672.120	658.464	0.031	0.105
-671.105	-200.000	-0.042	-0.491
-670.091	-7.094	-0.268	-0.237
-669.076	408.886	-0.152	-0.421
-668.062	-130.657	-0.464	-0.081
-667.047	158.326	-0.229	-0.415
-666.032	800.000	-0.165	-0.623
-665.018	-56.085	0.046	-0.027
-664.003	-64.021	-0.317	-0.168
-662.989	-28.301	-0.160	-0.120
-661.974	52.309	0.196	0.244
-660.959	216.533	-0.149	0.311
-659.945	173.772	-0.116	0.219
-658.930	-123.394	-0.257	-0.053
-657.916	-40.142	-0.331	0.224
-656.901	-108.635	-0.409	-0.114
-655.886	-34.351	-0.369	-0.263
-654.872	179.535	-0.282	-0.540
-653.857	-120.204	0.546	-0.121
-652.843	-4.714	-0.294	-0.264
-651.828	-128.011	-0.653	-0.121
-650.814	-48.563	-0.157	0.098
-649.799	-105.943	-0.404	-0.118
-648.784	-200.000	0.029	0.287
-647.770	-200.000	0.022	0.139
-646.755	186.497	0.237	-0.461
-645.741	10.518	-0.033	-0.033
-644.726	490.170	-0.181	0.542
-643.711	-60.387	-0.194	0.107
-642.697	-177.059	0.405	0.013
-641.682	-200.000	-0.052	-0.400
-640.668	800.000	-0.187	0.690
-639.653	-74.901	0.104	0.048
-638.638	-200.000	-0.010	-0.199
-637.624	478.691	0.093	0.274
-636.609	72.082	0.060	0.082
-635.595	31.162	-0.110	0.123
-634.580	-75.542	0.167	-0.077
-633.565	54.157	0.136	0.170
-632.551	-0.831	-0.149	-0.137
-631.536	187.346	0.065	0.127
-630.522	-157.518	0.267	0.021
-629.507	-101.673	0.470	0.148
-628.492	50.072	-0.196	0.241
-627.478	-38.520	0.097	-0.066
-626.463	-146.525	-0.545	0.061
-625.449	149.481	0.107	0.189
-624.434	800.000	-0.038	-0.161
-623.419	365.189	0.079	-0.207
-622.405	-135.499	-0.333	0.051
-621.390	-177.787	-0.270	-0.008
-620.376	-47.119	0.267	-0.169
-619.361	-85.467	0.145	0.058
-618.346	800.000	0.080	-0.361
-617.332	623.553	0.101	-0.334
-616.317	-158.281	-0.176	0.013
-615.303	-200.000	0.000	-0.207
-614.288	21.297	0.189	0.200
-613.273	-200.000	0.015	-0.223
-612.259	720.447	-0.136	-0.473
-611.244	-83.200	0.219	-0.091
-610.230	211.707	-0.206	-0.424
-609.215	-108.532	0.661	0.184
-608.201	14.689	-0.189	0.192
-607.186	-168.401	-0.618	-0.030
-606.171	75.056	-0.194	0.267
-605.157	46.565	0.118	-0.143
-604.142	346.585	-0.212	-0.546
-603.128	2.143	0.305	-0.286
-602.113	-62.592	0.278	0.150
-601.098	-130.522	-0.276	-0.048
-600.084	800.000	0.094	-0.352
-599.069	62.114	0.287	0.372
-598.055	-90.079	0.238	0.090
-597.040	-200.000	-0.008	-0.089
-596.025	34.545	0.501	-0.569
-595.011	-79.976	0.093	-0.041
-593.996	27.012	0.112	0.122
-592.982	-129.370	0.509	-0.091
-591.967	-173.735	0.135	-0.005
-590.952	-46.090	0.132	-0.084
-589.938	-150.648	-0.221	0.022
-588.923	737.667	0.134	0.470
-587.909	24.400	-0.097	0.104
-586.894	58.972	-0.127	0.162
-585.879	-99.252	0.152	-0.050
-584.865	-55.046	0.329	0.192
-583.850	-96.163	0.275	-0.094
-582.836	-67.884	-0.170	-0.086
-581.821	-96.225	-0.388	-0.133
-580.806	11.789	0.254	-0.253
-579.792	-146.332	0.407	0.046
-578.777	-122.962	0.647	0.134
-577.763	44.478	0.087	0.104
-576.748	-19.050	0.375	-0.303
-575.733	-66.294	0.154	0.079
-574.719	-159.716	0.637	0.045
-573.704	-200.000	0.038	-0.243
-572.690	800.000	-0.100	-0.382
-571.675	-39.016	0.275	-0.187
-570.661	-199.057	-0.371	-0.003
-569.646	-97.422	-0.113	0.038
-568.631	155.230	0.068	0.121
-567.617	29.775	-0.106	-0.117
-566.602	-200.000	-0.085	-0.570
-565.588	19.854	-0.158	-0.166
-564.573	-89.789	-0.064	-0.024
-563.558	-138.547	0.142	-0.020
-562.544	7.630	-0.020	0.019
-561.529	-200.000	0.004	-0.309
-560.515	-94.295	-0.227	-0.080
-559.500	171.246	-0.113	-0.211
-558.485	84.772	-0.093	0.133
-557.471	20.455	0.199	-0.209
-556.456	-200.000	-0.005	0.207
-555.442	-200.000	0.039	0.364
-554.427	261.420	-0.210	-0.474
-553.412	-200.000	0.021	-0.529
-552.398	207.410	-0.126	0.256
-551.383	-200.000	-0.057	0.460
-550.369	-128.985	-0.242	0.044
-549.354	-14.191	0.109	-0.091
-548.339	-127.416	-0.323	-0.061
-547.325	476.879	-0.117	0.346
-546.310	-129.979	0.540	-0.095
-545.296	-197.938	0.234	0.002
-544.281	-85.266	0.378	-0.152
-543.266	800.000	-0.094	-0.342
-542.252	9.368	0.288	-0.282
-541.237	-200.000	-0.048	0.406
-540.223	-7.502	-0.148	-0.130
-539.208	54.410	-0.154	0.192
-538.193	-157.403	-0.407	0.031
-537.179	-142.199	-0.407	-0.052
-536.164	149.413	-0.181	0.319
-535.150	-34.335	0.267	-0.189
-534.135	-200.000	-0.012	-0.401
-533.121	-89.842	-0.302	-0.114
-532.106	187.104	0.051	-0.099
-531.091	133.701	0.039	0.065
-530.077	-23.658	-0.356	-0.277
-529.062	-51.095	-0.356	-0.216
-528.048	-113.133	-0.185	0.047
-527.033	-200.000	-0.006	-0.297
-526.018	-47.313	-0.060	-0.038
-525.004	-92.460	0.197	0.071
-523.989	-162.721	0.559	-0.035
-522.975	800.000	-0.036	-0.178
-521.960	-83.558	-0.096	-0.040
-520.945	553.787	-0.183	0.575
-519.931	-41.371	0.595	0.396
-518.916	173.881	0.248	0.466
-517.902	-200.000	-0.035	0.446
-516.887	0.970	-0.447	-0.415
-515.872	-200.000	0.015	-0.215
-514.858	-200.000	0.054	-0.461
-513.843	-77.506	0.356	0.160
-512.829	-168.282	0.596	-0.029
-511.814	-186.109	0.500	-0.009
-510.799	151.638	-0.082	0.145
-509.785	572.578	0.027	-0.084
-508.770	-195.699	-0.284	0.003
-507.756	-59.722	0.196	-0.108
-506.741	-68.518	0.223	0.111
-505.726	-168.832	-0.296	-0.014
-504.712	80.832	-0.273	-0.382
-503.697	-187.677	0.201	-0.003
-502.683	-200.000	0.047	0.277
-501.668	112.032	0.156	0.245
-500.653	630.437	-0.056	-0.185
-499.639	-105.244	0.371	-0.109
-498.624	-87.388	-0.288	-0.112
-497.610	341.989	-0.167	-0.426
-496.595	186.360	-0.138	0.268
-495.581	38.918	-0.306	-0.355
-494.566	193.784	-0.057	-0.111
-493.551	-200.000	-0.004	-0.095
-492.537	-20.683	0.443	-0.352
-491.522	127.404	-0.220	-0.362
-490.508	19.529	0.158	0.164
-489.493	-133.468	-0.386	0.062
-488.478	-142.491	0.423	-0.053
-487.464	-81.723	-0.256	-0.108
-486.449	-200.000	0.034	0.280
-485.435	56.245	-0.172	-0.217
-484.420	-190.849	-0.244	0.003
-483.405	220.359	0.076	-0.159
-482.391	800.000	-0.010	0.051
-481.376	-103.091	-0.425	0.129
-480.362	-200.000	-0.006	0.237
-479.347	-200.000	-0.043	0.290
-478.332	-93.039	0.144	-0.052
-477.318	-169.547	-0.537	-0.025
-476.303	-103.594	0.362	-0.109
-475.289	9.031	0.478	-0.467
-474.274	-200.000	0.089	0.525
-473.259	-200.000	-0.021	0.543
-472.245	-135.346	-0.171	0.026
-471.230	-116.478	0.150	-0.035
-470.216	54.338	0.112	-0.140
-469.201	13.590	0.245	-0.246
-468.186	-87.344	0.173	0.068
-467.172	-80.501	0.452	0.194
-466.157	-149.037	-0.016	-0.002
-465.143	-89.312	-0.240	0.091
-464.128	-35.884	0.436	0.304
-463.113	-40.339	-0.217	-0.145
-462.099	45.492	-0.152	0.182
-461.084	648.214	0.085	0.284
-460.070	162.331	0.158	-0.288
-459.055	-146.360	-0.151	0.017
-458.040	-200.000	0.036	0.447
-457.026	-143.617	0.279	0.034
-456.011	-91.474	-0.661	-0.242
-454.997	-22.682	-0.145	0.113
-453.982	-30.747	0.446	0.326
-452.968	-2.428	-0.273	0.247
-451.953	-200.000	-0.018	0.287
-450.938	41.544	-0.147	0.172
-449.924	744.183	0.065	0.228
-448.909	-42.870	-0.117	-0.076
-447.895	-162.686	-0.293	-0.018
-446.880	768.314	-0.072	0.254
-445.865	611.436	0.075	0.245
-444.851	-66.837	-0.472	0.241
-443.836	541.972	0.116	0.358
-442.822	238.299	-0.052	0.112
-441.807	-200.000	-0.056	0.381
-440.792	307.497	0.209	0.507
-439.778	-161.274	-0.316	0.021
-438.763	-69.215	-0.244	0.121
-437.749	-200.000	-0.021	0.206
-436.734	-13.277	-0.147	0.123
-435.719	45.629	0.071	0.084
-434.705	-200.000	0.003	0.197
-433.690	-114.683	-0.289	0.071
-432.676	65.132	-0.287	-0.375
-431.661	-27.716	-0.057	-0.042
-430.646	-75.837	-0.045	-0.020
-429.632	145.847	-0.174	-0.302
-428.617	33.800	0.194	-0.218
-427.603	335.810	-0.129	-0.324
-426.588	83.374	-0.051	-0.072
-425.573	-200.000	0.030	-0.477
-424.559	-96.726	-0.507	0.171
-423.544	-50.393	0.070	-0.043
-422.530	-5.484	-0.238	-0.211
-421.515	193.975	0.058	-0.113
-420.500	-130.975	-0.297	0.051
-419.486	-14.504	0.151	0.126
-418.471	152.497	-0.235	-0.415
-417.457	-103.206	-0.159	-0.048
-416.442	800.000	0.078	0.366
-415.428	44.975	-0.108	-0.129
-414.413	-157.620	0.441	0.034
-413.398	800.000	0.064	0.234
-412.384	-148.753	0.477	0.049
-411.369	-200.000	0.083	-0.543
-410.355	-200.000	-0.044	0.295
-409.340	-96.816	0.438	-0.148
-408.325	-96.232	-0.391	0.133
-407.311	46.470	0.110	-0.131
-406.296	-99.657	0.131	0.042
-405.282	-22.625	0.316	0.247
-404.267	-107.522	-0.376	-0.105
-403.252	-15.590	-0.288	-0.237
-402.238	27.916	-0.197	-0.215
-401.223	-65.266	0.247	0.128
-400.209	-32.700	0.401	0.288
-399.194	-33.093	0.249	0.178
-398.179	-2.975	0.171	-0.154
-397.165	-31.330	0.083	-0.060
-396.150	-50.598	0.216	0.131
-395.136	800.000	0.015	0.069
-394.121	13.416	0.225	-0.225
-393.106	380.755	0.265	-0.705
-392.092	-177.143	0.352	0.011
-391.077	-115.296	-0.142	0.034
-390.063	-56.821	-0.076	-0.043
-389.048	-11.610	-0.193	-0.163
-388.033	-81.507	0.195	-0.082
-387.019	-200.000	-0.071	0.553
-386.004	0.182	0.015	-0.014
-384.990	219.815	-0.088	-0.183
-383.975	-200.000	0.014	-0.174
-382.960	22.341	0.433	0.456
-381.946	140.983	0.120	0.205
-380.931	-152.632	-0.219	0.020
-379.917	-38.370	-0.323	-0.220
-378.902	39.722	0.213	-0.246
-377.888	183.595	0.097	-0.185
-376.873	800.000	0.045	-0.246
-375.858	183.499	0.178	-0.340
-374.844	117.212	0.277	-0.439
-373.829	-124.806	-0.272	0.054
-372.815	800.000	-0.094	-0.376
-371.800	311.934	0.081	0.197
-370.785	41.384	-0.083	0.097
-369.771	550.964	-0.182	0.566
-368.756	-200.000	0.042	0.605
-367.742	-200.000	0.033	-0.278
-366.727	-200.000	-0.085	0.557
-365.712	219.026	-0.136	0.281
-364.698	-50.200	-0.308	0.188
-363.683	-72.694	-0.412	0.195
-362.669	63.880	0.493	0.639
-361.654	364.196	-0.324	-0.843
-360.639	-98.757	0.360	-0.117
-359.625	-200.000	-0.089	0.000
-358.610	-76.524	-0.349	0.157
-357.596	294.502	0.076	0.179
-356.581	-200.000	-0.029	0.183
-355.566	-107.674	-0.568	0.159
-354.552	24.209	-0.281	0.299
-353.537	-29.551	0.235	-0.173
-352.523	-191.414	0.643	0.008
-351.508	-200.000	0.011	0.161
-350.493	-84.832	0.371	-0.150
-349.479	-87.890	-0.413	0.159
-348.464	-155.111	0.117	-0.010
-347.450	54.298	-0.198	-0.246
-346.435	86.313	-0.074	0.105
-345.420	800.000	-0.044	-0.194
-344.406	-39.954	-0.469	-0.314
-343.391	-200.000	0.014	-0.128
-342.377	-167.894	0.366	0.018
-341.362	286.186	-0.044	-0.102
-340.348	-38.392	0.446	0.303
-339.333	-126.516	0.367	-0.070
-338.318	181.708	-0.349	0.663
-337.304	95.083	0.128	-0.188
-336.289	-200.000	0.030	-0.209
-335.275	-109.863	-0.636	-0.171
-334.260	800.000	-0.069	0.359
-333.245	-81.234	-0.092	0.039
-332.231	138.474	0.172	-0.292
-331.216	465.973	0.047	-0.137
-330.202	35.656	-0.173	0.196
-329.187	-200.000	-0.010	0.112
-328.172	-130.104	0.016	0.003
-327.158	5.058	0.123	-0.116
-326.143	-186.574	-0.412	0.007
-325.129	99.326	-0.181	-0.269
-324.114	-93.948	0.280	0.098
-323.099	599.359	0.014	0.044
-322.085	125.959	-0.127	0.206
-321.070	-13.213	-0.377	0.314
-320.056	239.611	0.096	0.207
-319.041	182.875	0.218	-0.415
-318.026	498.657	0.043	-0.127
-317.012	74.283	-0.088	-0.120
-315.997	800.000	0.029	0.112
-314.983	-5.405	0.303	0.267
-313.968	293.045	-0.053	-0.124
-312.953	-90.561	-0.189	0.070
-311.939	-77.934	-0.079	0.035
-310.924	85.682	0.128	0.181
-309.910	-74.665	-0.261	0.120
-308.895	800.000	-0.077	0.416
-307.880	-119.815	0.351	-0.077
-306.866	800.000	0.073	0.262
-305.851	-131.954	-0.253	-0.042
-304.837	-200.000	0.013	0.164
-303.822	8.361	0.221	0.213
-302.807	-71.079	0.318	0.153
-301.793	-56.242	-0.345	-0.197
-300.778	-75.532	-0.234	-0.107
-299.764	-2.193	0.437	0.394
-298.749	-2.738	0.329	-0.296
-297.735	653.406	-0.076	-0.252
-296.720	-200.000	0.011	0.600
-295.705	38.778	0.334	-0.383
-294.691	42.876	0.246	0.288
-293.676	189.469	-0.144	-0.279
-292.662	-40.422	-0.118	0.078
-291.647	800.000	-0.110	-0.433
-290.632	-10.583	-0.152	0.129
-289.618	12.846	-0.308	-0.306
-288.603	-62.152	-0.099	0.053
-287.589	305.392	-0.090	-0.215
-286.574	-24.650	-0.269	-0.205
-285.559	-43.504	-0.346	-0.224
-284.545	-200.000	0.003	0.170
-283.530	-64.214	-0.204	0.107
-282.516	-22.485	-0.134	0.104
-281.501	-86.734	0.410	0.160
-280.486	-96.072	-0.164	-0.056
-279.472	-34.999	0.068	-0.048
-278.457	800.000	0.086	0.334
-277.443	-137.589	0.058	0.008
-276.428	-137.500	0.158	0.023
-275.413	245.077	-0.103	0.224
-274.399	-86.118	0.192	0.076
-273.384	-30.547	-0.268	0.194
-272.370	-95.295	-0.213	0.073
-271.355	16.825	0.472	-0.479
-270.340	-160.376	0.350	0.024
-269.326	-122.741	-0.083	0.017
-268.311	-78.965	0.760	-0.331
-267.297	-64.088	-0.435	0.227
-266.282	-200.000	-0.042	0.269
-265.267	-41.259	-0.474	0.313
-264.253	-96.845	0.195	-0.065
-263.238	146.139	0.126	0.217
-262.224	-43.383	0.405	-0.262
-261.209	-61.888	-0.173	-0.093
-260.195	-52.589	-0.140	0.083
-259.180	96.141	-0.245	0.360
-258.165	82.629	0.174	0.243
-257.151	-89.928	-0.253	0.094
-256.136	400.695	0.073	0.197
-255.122	-179.620	0.077	0.002
-254.107	0.314	-0.588	-0.538
-253.092	-11.206	0.110	-0.093
-252.078	-56.618	0.318	-0.180
-251.063	800.000	0.108	-0.481
-250.049	-121.155	-0.195	0.041
-249.034	-200.000	-0.004	-0.210
-248.019	800.000	-0.132	0.473
-247.005	250.503	0.120	-0.263
-245.990	-6.928	-0.262	0.228
-244.976	-80.102	-0.160	0.069
-243.961	-52.971	0.432	0.254
-242.946	-143.948	0.187	0.022
-241.932	-39.046	-0.121	-0.081
-240.917	8.387	0.155	-0.149
-239.903	414.764	-0.024	-0.065
-238.888	-115.124	-0.251	0.061
-237.873	-148.272	0.286	0.030
-236.859	97.254	0.195	0.288
-235.844	388.969	-0.201	0.537
-234.830	800.000	-0.121	-0.477
-233.815	-115.951	0.304	0.072
-232.800	303.783	0.105	0.251
-231.786	143.071	-0.142	-0.243
-230.771	-124.021	0.209	-0.042
-229.757	-63.772	-0.568	-0.297
-228.742	-65.777	0.346	-0.177
-227.727	595.086	-0.030	0.096
-226.713	800.000	-0.060	-0.296
-225.698	-105.761	-0.296	-0.085
-224.684	-200.000	0.042	-0.265
-223.669	-200.000	0.020	-0.376
-222.655	-94.426	-0.106	0.037
-221.640	115.254	0.075	-0.117
-220.625	-80.192	-0.208	-0.089
-219.611	325.395	0.087	0.215
-218.596	88.834	-0.162	-0.231
-217.582	-25.855	0.278	-0.209
-216.567	27.089	-0.136	0.146
-215.552	67.762	-0.177	0.232
-214.538	-4.119	0.073	-0.064
-213.523	765.635	0.017	-0.061
-212.509	800.000	0.049	-0.177
-211.494	271.544	-0.096	-0.217
-210.479	-105.857	-0.178	0.051
-209.465	-53.501	0.430	-0.251
-208.450	-30.501	-0.578	-0.419
-207.436	-200.000	0.023	-0.220
-206.421	-139.521	-0.270	-0.037
-205.406	16.500	-0.293	-0.296
-204.392	-100.831	0.322	-0.101
-203.377	-200.000	0.040	-0.535
-202.363	-154.835	-0.400	0.033
-201.348	161.620	0.076	-0.136
-200.333	4.825	0.421	0.396
-199.319	-71.963	-0.052	-0.024
-198.304	64.615	-0.219	-0.283
-197.290	71.305	0.247	0.328
-196.275	-200.000	0.048	0.320
-195.260	6.422	0.260	0.247
-194.246	-200.000	-0.023	-0.382
-193.231	-74.969	0.256	0.117
-192.217	-200.000	-0.031	-0.289
-191.202	-59.397	0.133	0.073
-190.187	417.762	-0.105	0.289
-189.173	64.491	-0.323	0.417
-188.158	-200.000	-0.009	0.070
-187.144	18.708	-0.230	0.236
-186.129	-96.313	-0.046	-0.015
-185.114	77.568	-0.025	0.034
-184.100	64.262	0.382	-0.493
-183.085	800.000	-0.026	-0.142
-182.071	-63.161	-0.515	0.271
-181.056	38.645	-0.244	0.279
-180.042	800.000	-0.089	-0.443
-179.027	-74.671	0.092	0.042
-178.012	791.196	0.085	0.301
-176.998	-200.000	-0.007	-0.122
-175.983	4.034	0.404	0.378
-174.969	-200.000	0.025	0.217
-173.954	-122.232	-0.167	0.035
-172.939	-28.117	0.322	-0.238
-171.925	28.532	0.369	0.399
-170.910	65.355	-0.230	0.298
-169.896	-169.969	-0.582	0.026
-168.881	-110.810	0.620	-0.162
-167.866	51.003	-0.181	-0.220
-166.852	-83.792	-0.244	-0.099
-165.837	-100.361	-0.457	0.144
-164.823	-93.807	-0.526	-0.184
-163.808	-200.000	0.004	0.276
-162.793	190.867	-0.059	0.113
-161.779	545.507	0.058	-0.179
-160.764	252.064	-0.161	0.352
-159.750	-45.454	0.097	0.061
-158.735	206.203	0.100	0.201
-157.720	-109.488	0.432	-0.116
-156.706	-99.745	-0.305	-0.097
-155.691	29.045	0.204	0.221
-154.677	-5.398	-0.140	0.122
-153.662	-200.000	-0.028	0.492
-152.647	-200.000	0.058	-0.485
-151.633	-123.824	-0.434	-0.087
-150.618	-113.019	-0.257	0.064
-149.604	800.000	0.073	-0.400
-148.589	742.145	0.071	-0.245
-147.574	79.018	0.069	-0.094
-146.560	800.000	0.007	-0.025
-145.545	99.077	0.201	-0.297
-144.531	-188.332	0.392	0.006
-143.516	374.221	0.166	-0.434
-142.502	-181.014	-0.462	0.012
-141.487	394.043	0.065	-0.173
-140.472	800.000	-0.084	-0.414
-139.458	800.000	-0.043	0.206
-138.443	249.609	-0.089	0.194
-137.429	63.499	-0.398	-0.511
-136.414	-169.593	-0.171	-0.008
-135.399	509.485	0.131	-0.391
-134.385	-131.639	-0.040	0.007
-133.370	30.275	-0.422	-0.461
-132.356	-200.000	0.048	-0.439
-131.341	114.152	0.136	-0.211
-130.326	11.592	-0.592	0.580
-129.312	12.234	0.375	-0.368
-128.297	74.568	0.543	-0.731
-127.283	60.670	-0.055	-0.070
-126.268	46.408	-0.272	0.322
-125.253	-25.667	-0.184	-0.139
-124.239	-98.455	-0.091	0.029
-123.224	206.731	-0.209	0.417
-122.210	-134.767	-0.089	0.014
-121.195	-33.362	-0.250	0.177
-120.180	-200.000	0.035	0.213
-119.166	-105.666	0.162	-0.046
-118.151	-94.921	0.168	-0.058
-117.137	50.068	0.319	0.384
-116.122	123.954	0.171	0.275
-115.107	25.769	0.034	-0.036
-114.093	9.620	0.253	0.245
-113.078	-14.705	-0.089	-0.073
-112.064	800.000	0.015	-0.073
-111.049	-200.000	-0.014	-0.115
-110.034	-55.424	-0.077	-0.044
-109.020	-65.937	0.283	-0.144
-108.005	41.609	-0.109	0.126
-106.991	283.153	0.116	-0.266
-105.976	-200.000	-0.033	-0.233
-104.962	-31.750	0.290	0.207
-103.947	800.000	-0.020	0.111
-102.932	-37.431	-0.050	0.034
-101.918	-88.722	-0.024	-0.009
-100.903	-101.080	-0.371	-0.115
-99.889	-105.375	0.250	-0.072
-98.874	203.963	-0.145	-0.288
-97.859	147.492	0.292	-0.503
-96.845	-68.387	0.217	-0.107
-95.830	184.427	0.196	0.372
-94.816	-93.853	0.325	-0.113
-93.801	-157.271	0.520	-0.040
-92.786	-71.020	0.359	-0.171
-91.772	427.063	-0.030	-0.082
-90.757	54.309	-0.356	-0.437
-89.743	88.872	-0.335	-0.475
-88.728	-200.000	-0.050	-0.308
-87.713	-42.088	0.193	0.126
-86.699	-116.896	-0.133	0.031
-85.684	-200.000	0.016	-0.239
-84.670	94.797	-0.191	-0.278
-83.655	23.764	-0.048	0.050
-82.640	-110.669	-0.300	0.079
-81.626	-109.723	0.266	-0.071
-80.611	-200.000	-0.018	-0.148
-79.597	-137.453	-0.124	-0.018
-78.582	55.799	0.306	-0.378
-77.567	510.404	-0.086	-0.256
-76.553	-117.590	0.239	-0.055
-75.538	-40.989	-0.223	0.147
-74.524	44.034	0.171	-0.200
-73.509	-116.688	0.554	0.129
-72.494	192.015	0.118	-0.227
-71.480	-200.000	0.001	0.027
-70.465	-100.183	0.305	-0.096
-69.451	-86.055	-0.480	0.188
-68.436	-83.190	0.522	0.213
-67.422	-200.000	-0.032	0.271
-66.407	-22.585	0.293	0.225
-65.392	343.403	-0.146	-0.367
-64.378	800.000	0.083	0.317
-63.363	-190.823	0.420	0.006
-62.349	99.245	-0.296	0.436
-61.334	28.160	-1.788	-1.922
-60.319	134.492	1.002	1.659
-59.305	179.683	-3.648	-6.823
-58.290	35.769	4.002	4.481
-57.276	383.751	3.960	10.428
-56.261	-200.000	19.224	286.229
-55.246	404.179	1240.953	3343.653
-54.232	57.256	2838.162	3529.264
-53.217	67.692	2708.340	3527.022
-52.203	48.607	2440.089	2913.370
-51.188	39.713	2096.171	2394.760
-50.173	32.436	1978.065	2175.551
-49.159	30.849	1967.396	2145.371
-48.144	30.526	1962.292	2135.993
-47.130	30.443	1960.033	2132.493
-46.115	30.311	1960.187	2131.053
-45.100	30.253	1957.491	2127.364
-44.086	30.325	1956.102	2126.597
-43.071	30.278	1953.873	2123.554
-42.057	30.362	1951.887	2122.278
-41.042	30.269	1951.439	2120.639
-40.027	30.326	1949.366	2118.960
-39.013	30.334	1948.162	2117.658
-37.998	30.170	1947.830	2115.325
-36.984	30.174	1946.161	2113.482
-35.969	30.218	1944.695	2112.309
-34.954	30.139	1943.438	2109.956
-33.940	30.134	1941.789	2108.016
-32.925	30.176	1940.648	2107.174
-31.911	29.998	1940.461	2104.856
-30.896	30.196	1937.653	2103.991
-29.881	30.156	1936.748	2102.464
-28.867	30.218	1935.388	2101.618
-27.852	30.021	1934.556	2098.378
-26.838	30.109	1933.088	2097.707
-25.823	30.158	1931.083	2096.001
-24.809	30.174	1930.076	2095.016
-23.794	30.088	1929.476	2093.303
-22.779	30.162	1927.073	2091.444
-21.765	30.065	1926.020	2089.126
-20.750	30.000	1924.890	2087.080
-19.736	30.049	1923.959	2086.542
-18.721	30.080	1921.612	2084.265
-17.706	29.886	1921.552	2081.920
-16.692	29.945	1920.772	2081.660
-15.677	30.056	1919.370	2081.310
-14.663	30.128	1917.319	2079.814
-13.648	29.979	1916.131	2076.768
-12.633	30.013	1915.358	2076.230
-11.619	29.896	1913.627	2072.954
-10.604	29.917	1912.232	2071.601
-9.590	29.960	1911.329	2071.023
-8.575	29.957	1909.696	2069.132
-7.560	29.885	1908.648	2067.112
-6.546	29.981	1907.209	2066.545
-5.531	29.917	1905.986	2064.421
-4.517	29.927	1905.859	2064.309
-3.502	29.984	1903.857	2062.699
-2.487	30.003	1902.710	2061.584
-1.473	29.975	1899.399	2057.610
-0.458	29.614	1879.687	2032.187
0.556	25.606	2023.505	2127.276
1.571	24.177	2233.089	2328.565
2.586	25.274	2274.536	2386.169
3.600	25.460	2279.195	2393.260
4.615	25.665	2278.809	2395.322
5.629	25.612	2277.619	2393.069
6.644	25.754	2275.391	2392.343
7.659	25.823	2274.193	2391.718
8.673	25.669	2270.663	2385.661
9.688	24.824	2276.944	2380.678
10.702	23.096	2354.660	2437.720
11.717	21.534	2420.135	2482.948
12.731	11.990	2394.478	2321.040
13.746	2.155	2368.561	2156.579
14.761	0.503	2361.829	2126.802
15.775	0.358	2360.845	2123.616
16.790	0.227	2358.969	2119.822
17.804	0.217	2357.166	2117.800
18.819	0.232	2356.751	2117.386
19.834	0.264	2355.086	2116.092
20.848	0.251	2353.816	2114.503
21.863	0.210	2351.616	2111.707
22.877	0.217	2350.352	2110.413
23.892	0.319	2348.036	2109.516
24.907	0.228	2345.692	2105.874
25.921	0.237	2343.826	2104.078
26.936	0.153	2341.195	2100.291
27.950	0.268	2338.786	2099.492
28.965	0.209	2337.141	2096.934
29.980	0.230	2335.336	2095.352
30.994	0.280	2333.699	2094.335
32.009	5.495	2350.173	2182.110
33.023	17.867	2387.740	2391.990
34.038	23.932	2400.919	2490.544
35.053	25.064	2400.860	2506.106
36.067	25.388	2400.209	2509.687
37.082	25.461	2397.809	2507.895
38.096	25.594	2395.961	2507.534
39.111	25.750	2394.301	2507.677
40.126	26.006	2393.157	2509.759
41.140	26.204	2391.870	2510.871
42.155	25.895	2389.183	2503.445
43.169	25.813	2386.557	2499.249
44.184	25.771	2384.823	2496.540
45.199	25.568	2382.083	2490.550
46.213	25.619	2380.274	2489.069
47.228	25.418	2380.051	2485.749
48.242	25.460	2377.337	2483.202
49.257	25.529	2376.547	2483.036
50.271	25.707	2373.703	2482.239
51.286	25.710	2371.795	2479.983
52.301	25.586	2370.427	2476.540
53.315	25.037	2368.836	2466.979
54.330	24.597	2365.111	2456.733
55.344	24.276	2360.487	2447.204
56.359	24.240	2357.181	2442.989
57.374	24.063	2355.269	2438.281
58.388	24.077	2352.476	2435.290
59.403	24.257	2350.329	2435.247
60.417	24.552	2347.489	2436.057
61.432	24.716	2345.996	2436.462
62.447	24.700	2344.320	2434.217
63.461	24.528	2341.789	2428.932
64.476	24.521	2339.634	2426.324
65.490	24.863	2340.070	2431.154
66.505	25.270	2341.011	2437.398
67.520	25.489	2339.526	2438.548
68.534	25.143	2336.466	2430.341
69.549	25.355	2333.732	2430.100
70.563	25.501	2332.337	2430.342
71.578	25.291	2330.871	2425.671
72.593	25.318	2329.178	2423.977
73.607	25.699	2327.073	2426.672
74.622	25.741	2326.064	2425.894
75.636	25.643	2322.621	2420.692
76.651	25.718	2320.405	2419.102
77.666	25.770	2318.657	2417.684
78.680	25.579	2316.656	2412.738
79.695	25.656	2315.838	2412.635
80.709	25.881	2314.937	2414.432
81.724	25.996	2312.825	2413.489
82.739	26.092	2309.927	2411.466
83.753	25.922	2308.563	2407.471
84.768	25.735	2307.119	2403.179
85.782	25.838	2305.501	2402.579
86.797	25.750	2303.736	2399.272
87.812	25.660	2301.119	2395.052
88.826	25.573	2298.761	2391.152
89.841	25.716	2297.315	2391.276
90.855	25.861	2294.460	2389.950
91.870	25.747	2293.175	2386.810
92.884	25.671	2292.028	2384.310
93.899	25.857	2290.675	2385.093
94.914	25.476	2289.323	2378.334
95.928	24.859	2287.078	2367.520
96.943	24.665	2284.011	2361.487
97.957	25.096	2284.337	2367.267
98.972	25.697	2282.847	2373.404
99.987	25.628	2279.158	2368.364
101.001	25.534	2276.709	2364.300
102.016	25.587	2275.240	2363.190
103.030	25.629	2273.225	2361.374
104.045	25.778	2270.823	2360.551
105.060	25.927	2269.697	2361.060
106.074	25.762	2266.953	2355.750
107.089	25.531	2264.871	2350.280
108.103	25.655	2264.174	2350.894
109.118	25.792	2263.413	2351.626
110.133	25.897	2261.484	2350.723
111.147	25.838	2259.778	2347.885
112.162	25.821	2257.828	2345.363
113.176	25.725	2254.652	2340.525
114.191	25.600	2252.772	2336.665
115.206	25.542	2250.822	2333.607
116.220	25.369	2249.412	2329.605
117.235	25.362	2247.279	2327.032
118.249	25.364	2243.637	2323.002
119.264	25.535	2243.453	2324.754
120.279	25.674	2242.430	2325.227
121.293	25.625	2239.802	2321.585
122.308	25.603	2238.663	2319.840
123.322	25.595	2237.605	2318.365
124.337	25.081	2234.308	2308.026
125.352	24.741	2233.460	2302.465
126.366	24.864	2232.582	2302.877
127.381	25.179	2230.799	2304.839
128.395	25.345	2228.302	2304.118
129.410	25.714	2226.740	2306.978
130.424	25.716	2225.734	2305.695
131.439	25.643	2223.395	2302.048
132.454	25.501	2221.370	2297.853
133.468	25.554	2218.198	2294.974
134.483	25.518	2216.035	2292.007
135.497	25.575	2215.395	2291.793
136.512	25.796	2213.333	2292.226
137.527	25.633	2211.504	2287.973
138.541	25.514	2211.079	2285.731
139.556	25.420	2208.960	2282.063
140.570	25.554	2208.768	2283.308
141.585	25.584	2205.607	2280.149
142.600	25.674	2205.439	2280.856
143.614	25.594	2203.259	2277.307
144.629	25.744	2201.590	2277.207
145.643	25.624	2199.341	2273.088
146.658	25.586	2197.377	2270.312
147.673	25.609	2195.669	2268.562
148.687	25.690	2194.921	2268.547
149.702	25.672	2193.901	2266.983
150.716	25.677	2191.880	2264.691
151.731	25.933	2191.337	2267.103
152.746	26.029	2190.530	2267.206
153.760	25.546	2189.003	2259.253
154.775	24.636	2185.940	2244.334
155.789	24.354	2182.986	2237.481
156.804	24.737	2181.352	2240.359
157.819	25.266	2178.989	2244.326
158.833	25.363	2177.425	2243.664
159.848	25.945	2175.307	2248.508
160.862	26.211	2174.230	2250.452
161.877	26.170	2173.056	2248.462
162.892	26.125	2171.702	2246.226
163.906	26.064	2172.053	2245.563
164.921	26.081	2170.086	2243.470
165.935	26.062	2167.016	2239.789
166.950	25.980	2164.689	2236.088
167.964	25.767	2163.021	2231.450
168.979	25.674	2160.700	2227.627
169.994	25.689	2159.670	2226.491
171.008	25.702	2157.475	2224.122
172.023	25.573	2155.986	2220.715
173.037	25.705	2154.548	2220.612
174.052	25.546	2153.628	2217.423
175.067	25.386	2150.835	2212.303
176.081	25.491	2149.629	2212.096
177.096	25.701	2147.925	2212.672
178.110	25.527	2145.192	2207.442
179.125	25.433	2144.655	2205.470
180.140	25.485	2143.475	2204.632
181.154	25.587	2143.352	2205.503
182.169	25.442	2140.913	2200.938
183.183	24.951	2138.819	2192.483
184.198	24.475	2136.041	2183.520
185.213	24.325	2134.896	2180.243
186.227	25.149	2134.906	2190.120
187.242	25.396	2133.536	2191.481
188.256	25.380	2132.620	2190.077
189.271	25.857	2131.741	2194.758
190.286	25.961	2129.933	2193.907
191.300	25.625	2126.476	2185.980
192.315	25.484	2125.531	2183.024
193.329	25.770	2124.166	2184.849
194.344	25.924	2123.321	2185.600
195.359	25.916	2122.299	2184.188
196.373	26.078	2120.416	2183.952
197.388	26.008	2117.840	2180.192
198.402	25.736	2115.409	2174.130
199.417	25.666	2113.008	2170.548
200.432	25.803	2111.461	2170.357
201.446	25.909	2110.374	2170.264
202.461	25.820	2108.703	2167.214
203.475	25.662	2105.955	2162.223
204.490	25.684	2104.793	2161.029
205.504	25.794	2101.820	2159.044
206.519	25.506	2099.911	2153.367
207.534	25.627	2098.341	2152.948
208.548	25.642	2097.275	2151.773
209.563	25.461	2095.959	2147.999
210.577	25.610	2093.680	2147.195
211.592	25.802	2093.655	2149.214
212.607	25.284	2092.144	2141.199
213.621	24.079	2088.285	2122.563
214.636	24.130	2086.290	2120.885
215.650	25.057	2088.469	2133.942
216.665	25.606	2087.168	2138.932
217.680	25.787	2085.466	2139.084
218.694	25.902	2084.325	2139.038
219.709	25.822	2081.832	2135.269
220.723	25.884	2081.180	2135.083
221.738	26.052	2079.311	2134.910
222.753	25.926	2076.708	2130.480
223.767	25.824	2075.299	2127.569
224.782	25.648	2072.607	2122.468
225.796	25.551	2071.576	2120.006
226.811	25.707	2070.784	2120.792
227.826	25.946	2068.734	2121.262
228.840	25.796	2067.924	2118.405
229.855	25.791	2065.696	2115.815
230.869	25.807	2064.422	2114.446
231.884	25.666	2063.433	2111.520
232.899	25.570	2061.538	2108.195
233.913	25.621	2060.085	2107.056
234.928	25.595	2059.552	2105.946
235.942	25.725	2058.078	2105.716
236.957	25.694	2055.486	2102.453
237.972	25.742	2053.964	2101.207
238.986	25.794	2053.127	2100.711
240.001	25.692	2051.028	2097.119
241.015	25.451	2049.443	2092.417
242.030	25.381	2048.358	2090.241
243.045	24.986	2045.596	2082.561
244.059	24.869	2044.524	2079.849
245.074	25.404	2044.344	2085.669
246.088	25.589	2041.307	2084.480
247.103	25.667	2039.634	2083.429
248.117	25.861	2038.262	2084.029
249.132	25.844	2036.598	2081.885
250.147	25.688	2034.082	2077.247
251.161	25.472	2033.074	2073.464
252.176	25.596	2031.915	2073.475
253.190	25.541	2029.081	2069.701
254.205	25.094	2026.946	2062.108
255.220	25.288	2025.248	2062.369
256.234	25.251	2025.069	2061.512
257.249	25.195	2024.252	2059.787
258.263	25.314	2022.758	2059.394
259.278	25.228	2020.927	2056.291
260.293	25.109	2019.348	2053.069
261.307	25.344	2017.800	2053.950
262.322	25.575	2016.732	2055.272
263.336	25.361	2014.020	2049.806
264.351	25.340	2012.624	2047.903
265.366	25.446	2010.995	2047.214
266.380	25.563	2010.400	2047.701
267.395	25.340	2008.651	2043.126
268.409	25.345	2007.967	2042.239
269.424	25.678	2006.241	2044.042
270.439	25.850	2005.706	2045.219
271.453	25.739	2002.467	2040.403
272.468	24.740	1999.325	2025.595
273.482	24.463	1997.379	2020.235
274.497	25.156	1996.578	2027.052
275.512	25.564	1995.656	2030.509
276.526	25.701	1993.042	2029.157
277.541	25.498	1992.391	2025.955
278.555	25.404	1990.201	2022.419
279.570	25.206	1987.896	2017.596
280.585	25.064	1986.463	2014.302
281.599	25.299	1985.442	2015.673
282.614	25.461	1983.825	2015.621
283.628	25.228	1982.667	2011.572
284.643	25.290	1982.022	2011.379
285.657	25.346	1980.455	2010.172
286.672	25.423	1978.326	2008.641
287.687	25.124	1975.776	2002.457
288.701	25.074	1974.516	2000.381
289.716	25.047	1972.597	1997.891
290.730	24.962	1970.793	1994.876
291.745	25.143	1970.445	1996.307
292.760	25.215	1969.461	1995.872
293.774	25.226	1968.835	1995.125
294.789	25.627	1968.620	1999.151
295.803	25.887	1966.546	1999.705
296.818	25.644	1966.007	1996.203
297.833	25.625	1965.581	1995.328
298.847	25.683	1962.802	1992.909
299.862	25.739	1960.547	1991.008
300.876	25.276	1958.550	1983.594
301.891	24.620	1956.064	1973.559
302.906	24.698	1955.929	1974.052
303.920	25.486	1955.353	1981.973
304.935	25.786	1953.519	1983.196
305.949	25.752	1951.646	1980.689
306.964	25.962	1950.849	1981.958
307.979	25.956	1948.776	1979.546
308.993	25.289	1945.396	1968.526
310.008	25.146	1942.486	1963.774
311.022	25.235	1942.364	1964.393
312.037	25.388	1941.619	1965.093
313.052	25.073	1938.916	1958.664
314.066	24.726	1935.755	1951.431
315.081	24.369	1935.012	1946.524
316.095	24.248	1933.393	1943.343
317.110	24.331	1931.832	1942.453
318.125	24.760	1931.752	1946.833
319.139	25.029	1931.466	1949.249
320.154	25.451	1929.617	1951.761
321.168	25.258	1929.030	1948.831
322.183	25.273	1927.169	1946.872
323.197	25.322	1926.541	1946.541
324.212	25.364	1924.798	1945.002
325.227	25.424	1922.708	1943.311
326.241	25.503	1921.879	1943.098
327.256	25.691	1919.918	1942.926
328.270	25.600	1919.027	1940.808
329.285	25.590	1918.740	1940.172
330.300	25.511	1917.220	1937.552
331.314	24.627	1913.160	1923.654
332.329	24.474	1912.186	1920.785
333.343	25.241	1911.774	1928.434
334.358	25.721	1910.945	1932.550
335.373	25.946	1909.710	1933.499
336.387	25.987	1907.749	1931.721
337.402	25.855	1906.418	1928.725
338.416	25.676	1904.966	1925.091
339.431	25.762	1902.758	1923.556
340.446	25.996	1901.479	1924.543
341.460	25.984	1899.846	1922.532
342.475	25.864	1897.917	1919.064
343.489	25.512	1895.452	1912.578
344.504	25.431	1893.963	1909.988
345.519	25.295	1891.983	1906.311
346.533	24.999	1889.702	1900.622
347.548	24.958	1889.115	1899.369
348.562	25.237	1888.153	1901.148
349.577	25.184	1886.796	1898.986
350.592	25.124	1886.088	1897.408
351.606	25.091	1884.274	1895.009
352.621	25.064	1881.662	1891.866
353.635	25.146	1881.269	1892.118
354.650	25.155	1880.208	1890.922
355.665	25.466	1878.623	1892.390
356.679	25.565	1877.981	1892.565
357.694	25.541	1876.724	1890.817
358.708	25.600	1875.926	1890.407
359.723	25.259	1874.925	1885.578
360.738	24.599	1871.803	1875.248
361.752	24.565	1871.364	1874.221
362.767	25.395	1869.345	1880.719
363.781	25.651	1868.036	1881.872
364.796	25.707	1867.153	1881.343
365.810	25.590	1866.446	1879.172
366.825	25.768	1864.929	1879.293
367.840	25.765	1864.102	1878.198
368.854	25.769	1863.269	1877.175
369.869	25.688	1861.838	1874.667
370.883	25.773	1859.718	1873.189
371.898	25.498	1857.370	1867.729
372.913	25.298	1855.549	1863.588
373.927	25.289	1855.323	1863.050
374.942	25.458	1853.711	1862.965
375.956	25.531	1852.304	1862.087
376.971	25.306	1849.783	1856.989
377.986	24.819	1847.990	1849.913
379.000	25.037	1846.836	1850.795
380.015	25.466	1847.141	1855.334
381.029	25.965	1844.881	1858.014
382.044	25.966	1844.150	1857.062
383.059	25.928	1842.175	1854.463
384.073	25.642	1840.284	1849.377
385.088	25.327	1838.403	1844.021
386.102	25.319	1837.133	1842.442
387.117	25.441	1834.942	1841.276
388.132	25.402	1834.804	1840.520
389.146	25.388	1834.755	1840.103
390.161	24.585	1831.638	1828.505
391.175	24.482	1828.461	1824.056
392.190	25.262	1826.220	1829.599
393.205	25.259	1825.679	1828.807
394.219	25.342	1824.533	1828.290
395.234	25.508	1822.620	1827.843
396.248	25.446	1820.294	1824.659
397.263	25.381	1818.802	1822.291
398.278	25.383	1816.664	1819.942
399.292	25.341	1816.662	1819.294
400.307	25.750	1815.559	1822.135
401.321	25.842	1814.700	1821.991
402.336	25.240	1811.657	1812.613
403.350	24.745	1809.337	1805.052
404.365	25.221	1808.978	1809.297
405.380	25.239	1807.998	1808.287
406.394	24.825	1805.809	1801.692
407.409	24.739	1803.889	1798.691
408.423	24.762	1802.196	1797.025
409.438	24.691	1801.574	1795.465
410.453	24.775	1801.330	1795.855
411.467	25.323	1800.831	1800.671
412.482	25.546	1799.946	1801.817
413.496	25.587	1798.091	1800.156
414.511	25.619	1796.151	1798.320
415.526	25.526	1793.864	1794.888
416.540	25.679	1792.735	1795.074
417.555	25.579	1791.783	1792.899
418.569	25.317	1790.714	1788.994
419.584	25.415	1791.179	1790.228
420.599	25.506	1790.598	1790.342
421.613	25.238	1789.391	1786.236
422.628	25.356	1787.921	1785.738
423.642	25.592	1787.118	1787.076
424.657	25.479	1785.388	1784.010
425.672	25.130	1783.028	1777.955
426.686	25.248	1782.300	1778.192
427.701	25.304	1780.721	1776.964
428.715	25.266	1779.214	1774.868
429.730	25.525	1778.376	1776.391
430.745	25.812	1777.320	1777.977
431.759	25.672	1775.503	1774.561
432.774	25.032	1773.524	1766.033
433.788	24.017	1770.324	1752.593
434.803	23.391	1768.632	1744.513
435.818	23.414	1768.296	1744.196
436.832	23.391	1767.386	1742.867
437.847	22.054	1757.962	1720.212
438.861	12.356	1732.406	1600.464
439.876	2.269	1713.876	1485.028
440.890	0.415	1708.800	1462.398
441.905	0.275	1708.308	1460.429
442.920	0.347	1706.234	1459.187
443.934	0.258	1704.665	1456.806
444.949	0.234	1704.412	1456.179
445.963	0.102	1703.222	1453.710
446.978	0.107	1702.767	1453.197
447.993	0.179	1701.620	1452.743
449.007	0.242	1698.522	1450.528
450.022	0.269	1696.601	1448.980
451.036	0.411	1696.200	1449.834
452.051	1.568	1699.331	1463.536
453.066	8.792	1719.595	1551.325
454.080	19.731	1738.701	1675.503
455.095	23.519	1744.279	1717.620
456.109	24.772	1746.811	1732.116
457.124	25.212	1745.853	1735.237
458.139	24.835	1744.378	1729.897
459.153	24.635	1743.164	1726.549
460.168	24.619	1741.112	1724.153
461.182	24.630	1739.294	1722.253
462.197	24.641	1737.715	1720.585
463.212	24.593	1735.769	1717.988
464.226	24.603	1735.691	1717.806
465.241	24.667	1734.225	1716.763
466.255	24.650	1733.141	1715.326
467.270	24.642	1732.271	1714.181
468.285	24.671	1730.427	1712.425
469.299	24.598	1729.419	1710.528
470.314	24.772	1727.564	1710.153
471.328	24.813	1725.992	1708.788
472.343	24.825	1725.240	1707.952
473.358	24.763	1723.970	1705.897
474.372	24.874	1721.627	1704.435
475.387	24.790	1720.878	1702.686
476.401	24.607	1719.276	1699.154
477.416	24.565	1718.549	1697.834
478.430	24.667	1717.058	1697.130
479.445	24.670	1715.893	1695.799
480.460	24.748	1714.195	1694.658
481.474	24.707	1713.765	1693.644
482.489	24.835	1712.513	1693.418
483.503	24.760	1710.100	1690.120
484.518	24.641	1708.696	1687.406
485.533	24.688	1707.689	1686.655
486.547	24.662	1705.901	1684.437
487.562	24.560	1705.071	1682.448
488.576	24.894	1703.396	1683.755
489.591	24.889	1701.680	1681.805
490.606	24.875	1700.652	1680.461
491.620	24.840	1700.246	1679.528
492.635	24.870	1698.750	1678.135
493.649	24.716	1696.313	1674.070
494.664	24.540	1696.369	1672.271
495.679	24.594	1695.245	1671.470
496.693	24.545	1693.379	1668.970
497.708	24.651	1692.093	1668.501
498.722	24.696	1691.666	1668.299
499.737	24.743	1690.554	1667.448
500.752	24.687	1688.304	1664.499
501.766	24.797	1686.527	1663.581
502.781	25.002	1684.872	1663.657
503.795	25.020	1683.263	1662.045
504.810	24.890	1682.405	1659.780
505.825	24.918	1681.596	1659.045
506.839	24.772	1681.068	1656.971
507.854	24.778	1679.155	1654.942
508.868	24.805	1676.599	1652.471
509.883	24.702	1676.611	1651.328
510.898	24.691	1675.427	1649.862
511.912	24.570	1673.009	1646.162
512.927	24.635	1670.671	1644.273
513.941	24.710	1670.107	1644.212
514.956	24.934	1669.928	1645.907
515.971	25.098	1669.105	1646.415
516.985	25.086	1667.746	1644.770
518.000	24.776	1667.485	1641.452
519.014	24.758	1665.601	1639.234
520.029	24.671	1664.078	1636.739
521.043	24.721	1661.964	1634.927
522.058	24.690	1660.321	1632.825
523.073	24.647	1660.119	1632.038
524.087	24.699	1658.339	1630.570
525.102	24.746	1657.255	1629.736
526.116	24.653	1656.584	1628.037
527.131	24.867	1655.218	1628.457
528.146	24.903	1654.560	1627.942
529.160	24.799	1653.397	1625.653
530.175	24.789	1652.159	1624.147
531.189	24.700	1651.579	1622.570
532.204	24.762	1649.530	1620.926
533.219	24.827	1648.348	1620.167
534.233	24.734	1647.012	1617.810
535.248	24.612	1645.534	1615.055
536.262	24.679	1644.511	1614.471
537.277	24.802	1644.350	1615.232
538.292	24.924	1642.208	1614.045
539.306	24.915	1639.995	1611.593
540.321	24.659	1638.963	1608.070
541.335	24.663	1637.817	1606.793
542.350	24.749	1636.684	1606.266
543.365	24.781	1635.006	1604.711
544.379	24.911	1633.096	1603.815
545.394	24.834	1632.284	1602.137
546.408	24.775	1630.464	1599.627
547.423	24.824	1629.438	1598.865
548.438	24.614	1628.736	1596.100
549.452	24.710	1628.228	1596.277
550.467	24.611	1626.998	1593.987
551.481	24.779	1625.783	1594.114
552.496	24.671	1624.717	1591.911
553.511	24.553	1624.296	1590.251
554.525	24.704	1622.352	1589.510
555.540	24.698	1621.394	1588.326
556.554	24.803	1620.018	1587.726
557.569	24.807	1617.872	1585.469
558.583	24.741	1616.846	1583.681
559.598	24.835	1615.479	1582.987
560.613	24.752	1614.515	1581.122
561.627	24.817	1612.352	1579.392
562.642	24.722	1611.211	1577.242
563.656	24.551	1610.236	1574.581
564.671	24.540	1608.441	1572.544
565.686	24.360	1607.809	1570.142
566.700	24.626	1606.132	1570.666
567.715	24.682	1604.831	1569.701
568.729	24.874	1603.924	1570.318
569.744	25.018	1602.891	1570.387
570.759	24.957	1602.096	1568.884
571.773	24.964	1600.883	1567.575
572.788	24.850	1599.246	1564.777
573.802	24.739	1597.650	1562.051
574.817	24.543	1595.815	1558.352
575.832	24.498	1594.136	1556.131
576.846	24.568	1593.672	1556.108
577.861	24.713	1592.138	1555.694
578.875	24.712	1591.969	1555.333
579.890	24.724	1590.715	1554.027
580.905	24.546	1589.957	1551.541
581.919	24.770	1588.901	1552.279
582.934	24.694	1588.226	1550.772
583.948	24.704	1586.163	1548.666
584.963	24.674	1584.817	1546.901
585.978	24.526	1583.823	1544.461
586.992	24.458	1583.324	1543.198
588.007	24.556	1582.658	1543.210
589.021	24.428	1580.431	1539.749
590.036	24.602	1578.582	1539.274
591.051	24.446	1578.948	1538.093
592.065	24.615	1576.819	1537.297
593.080	24.588	1575.013	1535.117
594.094	24.656	1573.711	1534.251
595.109	24.569	1571.844	1531.494
596.123	24.672	1570.725	1531.110
597.138	24.610	1570.221	1529.900
598.153	24.703	1568.407	1528.752
599.167	24.491	1567.356	1525.720
600.182	24.472	1566.502	1524.548
601.196	24.694	1565.231	1525.034
602.211	24.611	1563.828	1522.773
603.226	24.467	1562.464	1520.030
604.240	24.519	1560.553	1518.426
605.255	24.481	1560.302	1517.675
606.269	24.579	1559.578	1517.631
607.284	24.653	1557.885	1516.435
608.299	24.538	1556.772	1514.183
609.313	24.599	1555.556	1513.345
610.328	24.596	1553.752	1511.379
611.342	24.538	1552.069	1509.073
612.357	24.563	1551.386	1508.441
613.372	24.522	1550.438	1506.992
614.386	24.501	1549.217	1505.444
615.401	24.492	1548.572	1504.562
616.415	24.427	1547.338	1502.629
617.430	24.262	1546.505	1500.250
618.445	24.229	1545.553	1498.865
619.459	24.293	1544.516	1498.217
620.474	24.496	1543.502	1498.767
621.488	24.698	1543.130	1499.933
622.503	25.010	1542.301	1501.576
623.518	24.657	1540.877	1497.039
624.532	24.439	1538.426	1492.643
625.547	24.284	1536.901	1489.683
626.561	24.106	1536.228	1487.358
627.576	24.090	1534.917	1485.783
628.591	24.542	1533.680	1488.190
629.605	24.859	1533.278	1490.277
630.620	24.909	1532.791	1490.045
631.634	25.013	1532.678	1490.625
632.649	25.013	1531.360	1489.162
633.663	24.817	1528.869	1484.933
634.678	24.337	1526.909	1478.849
635.693	24.076	1525.549	1475.183
636.707	24.073	1523.320	1472.822
637.722	24.022	1521.967	1470.918
638.736	24.041	1521.385	1470.336
639.751	24.192	1520.450	1470.506
640.766	24.470	1518.657	1470.905
641.780	24.400	1517.779	1469.291
642.795	24.405	1516.797	1468.212
643.809	24.434	1516.064	1467.562
644.824	24.478	1515.540	1467.247
645.839	24.554	1514.885	1467.059
646.853	24.350	1513.343	1463.711
647.868	24.330	1511.941	1462.013
648.882	24.436	1510.764	1461.576
649.897	24.527	1509.125	1460.561
650.912	24.513	1507.729	1458.918
651.926	24.352	1507.162	1456.872
652.941	24.275	1506.516	1455.448
653.955	24.417	1504.022	1454.028
654.970	24.465	1502.445	1452.717
655.985	24.304	1500.584	1449.432
656.999	24.248	1499.742	1447.984
658.014	24.155	1498.699	1446.046
659.028	24.444	1497.656	1447.225
660.043	24.358	1497.472	1446.171
661.058	24.418	1495.636	1444.713
662.072	24.351	1494.625	1443.020
663.087	24.364	1493.346	1441.717
664.101	24.390	1492.425	1440.870
665.116	24.314	1491.677	1439.354
666.131	24.311	1490.034	1437.572
667.145	24.348	1488.614	1436.331
668.160	24.119	1488.271	1433.974
669.174	24.213	1485.902	1432.282
670.189	24.169	1485.173	1431.049
671.204	24.340	1484.945	1432.037
672.218	24.351	1484.370	1431.399
673.233	24.321	1482.581	1429.262
674.247	24.152	1480.931	1426.142
675.262	24.166	1479.638	1424.840
676.276	24.114	1478.395	1423.058
677.291	24.237	1477.850	1423.343
678.306	24.459	1477.255	1424.382
679.320	24.341	1475.832	1421.898
680.335	24.041	1475.166	1418.685
681.349	24.196	1473.719	1418.359
682.364	24.179	1472.676	1417.048
683.379	24.021	1471.520	1414.503
684.393	24.001	1470.141	1412.852
685.408	24.019	1469.132	1411.854
686.422	23.947	1468.008	1410.036
687.437	23.993	1467.070	1409.330
688.452	23.624	1465.981	1405.182
689.466	23.772	1464.496	1404.768
690.481	23.991	1462.876	1404.779
691.495	24.048	1463.850	1406.002
692.510	24.626	1463.127	1409.724
693.525	24.871	1461.242	1409.676
694.539	24.585	1460.453	1406.488
695.554	24.098	1458.910	1400.977
696.568	23.705	1457.249	1396.111
697.583	23.701	1456.163	1394.870
698.598	23.512	1455.617	1392.694
699.612	23.910	1453.611	1393.738
700.627	23.947	1452.107	1392.424
701.641	24.022	1450.968	1391.754
702.656	23.941	1450.450	1390.454
703.671	23.731	1450.483	1388.671
704.685	23.847	1449.361	1388.342
705.700	24.034	1448.193	1388.518
706.714	23.919	1447.243	1386.545
707.729	24.122	1445.763	1386.548
708.744	24.070	1444.405	1384.669
709.758	23.937	1442.956	1382.077
710.773	24.106	1441.797	1382.123
711.787	24.092	1440.961	1381.045
712.802	24.218	1439.024	1380.007
713.816	24.217	1438.275	1379.112
714.831	24.147	1437.443	1377.605
715.846	24.037	1435.696	1374.913
716.860	23.858	1434.508	1372.224
717.875	24.046	1433.395	1372.453
718.889	24.097	1432.776	1372.090
719.904	23.809	1432.049	1368.996
720.919	23.804	1430.606	1367.416
721.933	23.655	1429.512	1365.055
722.948	23.793	1428.435	1364.929
723.962	23.662	1427.520	1362.879
724.977	23.686	1425.676	1361.145
725.992	23.691	1424.421	1359.818
727.006	23.885	1423.433	1360.205
728.021	23.813	1422.330	1358.436
729.035	23.670	1421.430	1356.314
730.050	23.776	1420.430	1356.009
731.065	23.734	1419.631	1354.769
732.079	23.844	1417.797	1353.698
733.094	23.664	1417.194	1351.582
734.108	23.937	1415.606	1351.991
735.123	23.942	1413.420	1349.777
736.138	23.885	1413.006	1348.790
737.152	23.797	1412.684	1347.645
738.167	23.611	1411.366	1344.815
739.181	23.661	1410.125	1343.850
740.196	23.460	1409.730	1341.786
741.211	23.695	1408.578	1342.311
742.225	23.649	1407.447	1340.725
743.240	23.731	1405.606	1339.432
744.254	23.533	1404.531	1336.751
745.269	23.370	1403.245	1334.134
746.284	23.360	1402.124	1332.831
747.298	23.541	1401.726	1333.660
748.313	23.760	1401.675	1335.102
749.327	24.130	1401.341	1337.421
750.342	24.551	1400.559	1339.689
751.356	24.689	1400.400	1340.420
752.371	24.497	1397.965	1336.484
753.386	23.886	1396.005	1329.859
754.400	23.510	1394.528	1325.462
755.415	23.619	1393.421	1325.071
756.429	23.670	1392.205	1324.137
757.444	23.623	1391.521	1322.982
758.459	23.596	1389.756	1320.939
759.473	23.505	1388.361	1318.774
760.488	23.515	1387.402	1317.781
761.502	23.412	1386.474	1315.973
762.517	23.500	1385.583	1315.627
763.532	23.770	1384.071	1316.046
764.546	23.729	1383.976	1315.490
765.561	23.707	1383.027	1314.269
766.575	23.899	1382.391	1314.933
767.590	23.855	1381.046	1313.171
768.605	23.979	1378.799	1311.796
769.619	23.868	1377.710	1309.780
770.634	23.734	1376.348	1307.335
771.648	23.463	1375.571	1304.439
772.663	23.507	1374.271	1303.375
773.678	23.463	1373.878	1302.526
774.692	23.540	1373.556	1302.632
775.707	23.392	1373.005	1300.859
776.721	23.386	1371.985	1299.693
777.736	23.425	1370.502	1298.416
778.751	23.509	1369.688	1298.109
779.765	23.444	1368.507	1296.356
780.780	23.541	1367.929	1296.368
781.794	23.580	1367.044	1295.658
782.809	23.172	1366.264	1291.771
783.824	23.244	1364.737	1290.701
784.838	23.483	1363.947	1291.550
785.853	24.073	1363.170	1294.976
786.867	23.928	1363.113	1293.709
787.882	23.577	1361.865	1289.803
788.897	23.587	1360.204	1288.146
789.911	23.494	1358.222	1285.439
790.926	23.172	1357.032	1281.812
791.940	23.186	1356.311	1281.086
792.955	23.050	1354.235	1277.981
793.969	23.126	1353.532	1277.712
794.984	23.225	1352.579	1277.381
795.999	23.154	1351.786	1275.964
797.013	23.236	1350.350	1275.053
798.028	23.182	1348.806	1273.049
799.042	23.234	1348.276	1272.772
800.057	23.249	1347.256	1271.769
801.072	23.191	1345.387	1269.428
802.086	23.365	1343.775	1269.014
803.101	23.241	1343.033	1267.269
804.115	23.244	1342.343	1266.484
805.130	23.187	1341.684	1265.299
806.145	23.245	1340.297	1264.257
807.159	23.144	1338.928	1262.096
808.174	23.378	1337.390	1262.170
809.188	23.550	1337.014	1262.894
810.203	23.496	1335.922	1261.325
811.218	23.488	1334.731	1259.991
812.232	23.562	1332.812	1258.560
813.247	23.514	1332.433	1257.708
814.261	23.358	1332.506	1256.514
815.276	23.299	1330.550	1254.093
816.291	23.313	1329.114	1252.690
817.305	23.092	1327.624	1249.572
818.320	23.131	1326.171	1248.330
819.334	23.101	1325.633	1247.463
820.349	23.191	1324.074	1246.480
821.364	23.138	1322.629	1244.598
822.378	23.082	1321.685	1243.165
823.393	23.090	1319.682	1241.185
824.407	22.961	1318.863	1239.361
825.422	22.985	1318.301	1238.851
826.437	22.968	1317.547	1237.878
827.451	23.152	1316.026	1237.592
828.466	23.329	1315.670	1238.355
829.480	23.885	1313.983	1240.517
830.495	23.516	1311.425	1235.374
831.509	23.349	1310.571	1233.251
832.524	23.015	1309.714	1229.961
833.539	23.116	1308.355	1229.246
834.553	22.856	1307.322	1226.307
835.568	22.933	1305.362	1224.859
836.582	22.968	1304.636	1224.275
837.597	22.985	1303.569	1223.246
838.612	23.033	1301.895	1221.867
839.626	23.153	1300.883	1221.603
840.641	23.317	1300.180	1221.935
841.655	23.210	1300.044	1220.914
842.670	23.399	1299.498	1221.565
843.685	23.513	1298.186	1220.974
844.699	23.432	1296.660	1218.833
845.714	23.377	1294.617	1216.390
846.728	23.091	1293.943	1213.636
847.743	22.959	1293.259	1211.944
848.758	23.087	1291.542	1211.065
849.772	22.997	1290.293	1209.130
850.787	22.901	1288.597	1206.738
851.801	22.854	1287.399	1205.150
852.816	22.886	1286.298	1204.192
853.831	23.084	1284.442	1203.669
854.845	22.934	1283.146	1201.284
855.860	22.884	1281.801	1199.538
856.874	22.870	1281.555	1199.070
857.889	23.143	1280.725	1200.012
858.904	23.659	1279.844	1202.556
859.918	23.833	1278.701	1202.524
860.933	23.904	1277.195	1201.442
861.947	23.610	1276.365	1198.526
862.962	23.116	1274.466	1193.250
863.977	23.282	1271.980	1191.900
864.991	22.930	1271.396	1188.832
866.006	22.824	1271.666	1188.222
867.020	22.878	1269.839	1186.744
868.035	22.990	1268.310	1185.923
869.049	22.880	1267.273	1184.070
870.064	22.995	1266.344	1183.838
871.079	23.060	1265.682	1183.515
872.093	22.971	1265.732	1182.820
873.108	22.930	1264.608	1181.351
874.122	23.027	1264.043	1181.336
875.137	23.144	1263.819	1181.768
876.152	23.364	1262.789	1182.141
877.166	23.296	1260.102	1179.029
878.181	23.230	1258.883	1177.308
879.195	23.029	1258.088	1175.077
880.210	22.899	1257.692	1173.703
881.225	22.803	1256.399	1171.714
882.239	23.043	1254.642	1171.529
883.254	22.931	1253.670	1169.739
884.268	22.900	1253.408	1169.149
885.283	23.011	1251.593	1168.052
886.298	22.930	1250.136	1166.014
887.312	22.912	1249.305	1164.983
888.327	22.803	1248.401	1163.275
889.341	22.860	1246.955	1162.169
890.356	22.745	1246.671	1161.006
891.371	22.822	1246.463	1161.184
892.385	22.906	1245.669	1160.858
893.400	22.668	1245.370	1158.870
894.414	23.015	1243.944	1159.689
895.429	23.200	1242.684	1159.593
896.444	23.788	1241.785	1162.488
897.458	24.313	1241.328	1165.366
898.473	23.980	1239.518	1161.347
899.487	23.461	1237.935	1156.323
900.502	23.143	1236.293	1152.567
901.517	22.839	1234.855	1149.102
902.531	22.900	1234.294	1148.840
903.546	22.841	1233.350	1147.438
904.560	22.968	1232.227	1147.083
905.575	22.907	1232.045	1146.379
906.589	22.924	1231.509	1145.852
907.604	22.757	1230.858	1144.024
