DTS Sentinel unit serial number:	SN409020Multiplexer serial number:	ORYXHardware model number:	OX4-SRSoftware version number:	ORYX F/W v3.00 Oryx Data Collector v3.7.2.0data status	okinstallation	HaddamTimeLapsedifferential loss correction	single-endedforward channel	channel 3reverse channel	N/Adate	2011/06/22time	00:31:17forward acquisition time	30.00reverse acquisition time	0.00gamma	498.7831k internal	0.1751k external	0.1751temperature offset calibration	1.0074default loss term (dB/km)	0.3790temperature slope calibration	1.3530multiplexer offset coefficient	1.0000multiplexer slope coefficient	1.0000fibre end	0.00T internal ref (°C)	22.66T ext. ref 1 (°C)	17.99T ext. ref 2 (°C)	0.06length (m)	temperature (°C)	Stokes	anti-Stokes-747.200	143.922	0.120	0.213
-746.185	764.497	0.203	0.736
-745.171	156.989	-0.183	-0.336
-744.156	408.316	0.127	0.359
-743.142	800.000	0.028	0.151
-742.127	511.542	0.156	0.485
-741.112	-46.314	0.053	-0.035
-740.098	65.386	0.098	0.131
-739.083	-108.745	-0.058	0.016
-738.069	-69.854	0.232	0.117
-737.054	-200.000	0.006	0.544
-736.039	-91.911	0.180	-0.067
-735.025	-13.895	0.224	-0.192
-734.010	28.910	0.174	0.196
-732.996	17.741	0.433	-0.457
-731.981	-64.102	-0.483	0.261
-730.966	-43.254	-0.180	-0.121
-729.952	-200.000	-0.039	-0.239
-728.937	-200.000	-0.011	-0.169
-727.923	-13.999	0.316	-0.271
-726.908	-200.000	0.033	0.506
-725.894	194.139	-0.145	-0.292
-724.879	-129.860	-0.163	-0.029
-723.864	-200.000	0.009	-0.381
-722.850	-200.000	0.003	-0.414
-721.835	304.623	-0.116	-0.287
-720.821	-164.727	-0.316	0.019
-719.806	66.747	-0.184	0.248
-718.791	-26.042	0.409	0.318
-717.777	-92.802	-0.378	-0.140
-716.762	-80.128	0.312	-0.138
-715.748	-144.877	0.182	-0.022
-714.733	-7.494	-0.151	-0.136
-713.718	-65.035	-0.385	0.206
-712.704	99.770	-0.141	0.217
-711.689	-5.087	-0.140	-0.127
-710.675	-163.788	-0.234	0.014
-709.660	-138.054	0.275	-0.040
-708.645	-133.535	0.563	0.093
-707.631	-200.000	-0.017	-0.184
-706.616	-200.000	0.004	0.277
-705.602	162.152	-0.090	0.167
-704.587	-70.362	0.420	-0.210
-703.572	-27.560	-0.163	0.126
-702.558	32.008	-0.239	0.273
-701.543	401.580	-0.087	-0.243
-700.529	-116.550	0.264	0.064
-699.514	-200.000	0.001	0.063
-698.499	-128.089	0.138	0.026
-697.485	-97.954	0.231	-0.078
-696.470	-32.958	0.263	-0.193
-695.456	536.854	0.044	-0.139
-694.441	-179.649	-0.258	0.007
-693.426	-11.266	-0.153	0.134
-692.412	800.000	0.058	-0.279
-691.397	-191.598	-0.309	0.004
-690.383	-22.581	0.212	-0.170
-689.368	-98.618	-0.388	-0.130
-688.354	800.000	-0.038	-0.146
-687.339	-5.472	0.061	-0.055
-686.324	133.929	-0.195	-0.336
-685.310	-200.000	-0.033	-0.617
-684.295	85.877	0.305	0.445
-683.281	578.761	0.150	-0.488
-682.266	-200.000	-0.002	0.142
-681.251	314.846	-0.140	-0.351
-680.237	-38.569	0.596	-0.416
-679.222	-12.186	0.274	-0.237
-678.208	800.000	-0.047	-0.194
-677.193	270.470	0.098	0.229
-676.178	21.983	-0.215	0.232
-675.164	-154.555	-0.137	-0.012
-674.149	-200.000	-0.003	-0.318
-673.135	156.499	-0.147	-0.270
-672.120	113.716	0.273	-0.441
-671.105	-176.739	0.319	0.011
-670.091	-200.000	-0.090	0.581
-669.076	97.644	-0.011	-0.017
-668.062	-37.954	-0.195	-0.137
-667.047	-51.556	0.087	-0.054
-666.032	-200.000	-0.038	0.568
-665.018	-28.084	0.458	0.350
-664.003	-200.000	-0.066	0.528
-662.989	-200.000	0.002	-0.287
-661.974	35.829	-0.107	0.124
-660.959	-133.370	-0.344	-0.057
-659.945	800.000	0.083	0.373
-658.930	-198.949	0.344	-0.002
-657.916	-136.478	0.478	0.073
-656.901	800.000	0.074	0.288
-655.886	-200.000	0.064	0.482
-654.872	-11.942	0.337	0.292
-653.857	-111.689	-0.375	-0.100
-652.843	66.800	0.156	-0.210
-651.828	-66.786	0.036	-0.019
-650.814	23.415	0.071	0.077
-649.799	-25.448	0.192	0.150
-648.784	-37.054	0.092	0.065
-647.770	-200.000	-0.055	0.758
-646.755	88.230	-0.299	0.440
-645.741	257.130	-0.155	-0.353
-644.726	180.340	-0.074	-0.144
-643.711	253.784	0.135	-0.306
-642.697	-200.000	-0.034	0.331
-641.682	271.617	0.168	-0.392
-640.668	-14.015	-0.344	-0.294
-639.653	125.314	0.397	-0.664
-638.638	270.614	-0.070	0.164
-637.624	330.358	0.131	-0.336
-636.609	584.214	-0.049	-0.161
-635.595	205.317	0.083	0.171
-634.580	-128.864	-0.370	0.068
-633.565	-78.674	-0.271	-0.122
-632.551	-77.811	0.400	0.182
-631.536	83.656	-0.133	0.193
-630.522	-164.469	-0.600	0.036
-629.507	643.961	-0.088	0.298
-628.492	65.253	-0.289	0.386
-627.478	53.349	-0.130	-0.165
-626.463	-86.641	0.328	-0.132
-625.449	-89.049	-0.385	0.150
-624.434	29.347	0.049	0.055
-623.419	-72.797	-0.210	0.102
-622.405	46.221	0.135	-0.166
-621.390	-200.000	-0.148	0.001
-620.376	800.000	0.013	0.067
-619.361	-200.000	0.070	-0.751
-618.346	-160.355	0.424	-0.030
-617.332	-200.000	0.043	-0.320
-616.317	-163.419	-0.325	0.020
-615.303	33.215	-0.169	-0.194
-614.288	-200.000	-0.004	-0.339
-613.273	-53.743	-0.229	0.138
-612.259	166.524	0.041	-0.077
-611.244	453.853	0.065	0.192
-610.230	800.000	0.073	0.325
-609.215	438.639	0.116	0.338
-608.201	-131.384	-0.530	-0.092
-607.186	-80.884	-0.022	0.010
-606.171	-200.000	0.054	-0.421
-605.157	24.997	-0.205	-0.225
-604.142	-135.599	-0.280	-0.043
-603.128	102.484	-0.022	0.033
-602.113	800.000	-0.054	0.294
-601.098	-200.000	-0.010	-0.246
-600.084	297.847	-0.304	-0.741
-599.069	800.000	0.062	-0.250
-598.055	151.844	-0.170	-0.306
-597.040	-111.734	0.227	0.060
-596.025	-153.481	0.445	0.040
-595.011	-3.049	-0.128	-0.118
-593.996	-139.269	-0.373	0.052
-592.982	-166.872	-0.528	0.028
-591.967	-109.231	0.191	0.053
-590.952	-200.000	-0.010	0.076
-589.938	189.222	0.110	0.219
-588.923	-152.686	0.423	0.039
-587.909	-73.841	-0.423	0.202
-586.894	618.697	-0.034	-0.115
-585.879	-38.886	-0.173	-0.120
-584.865	-133.395	-0.226	0.037
-583.850	90.561	-0.276	-0.408
-582.836	-161.645	-0.580	0.039
-581.821	-166.437	0.679	0.037
-580.806	-77.414	0.477	-0.217
-579.792	6.931	-0.177	-0.174
-578.777	354.408	0.087	0.230
-577.763	-132.543	-0.198	0.033
-576.748	-188.218	-0.212	0.003
-575.733	-123.619	-0.496	-0.103
-574.719	217.567	-0.037	0.078
-573.704	-105.856	0.205	-0.061
-572.690	-31.695	0.100	0.074
-571.675	-200.000	-0.007	-0.189
-570.661	743.137	0.055	0.198
-569.646	276.885	0.149	-0.351
-568.631	310.865	-0.100	-0.249
-567.617	547.703	0.210	-0.668
-566.602	208.536	0.112	-0.232
-565.588	-200.000	0.043	0.334
-564.573	-112.088	-0.359	-0.095
-563.558	-200.000	0.009	-0.203
-562.544	-113.476	-0.233	0.060
-561.529	-39.120	0.208	0.144
-560.515	321.932	-0.070	-0.177
-559.500	-25.853	-0.326	-0.253
-558.485	29.187	0.211	-0.236
-557.471	73.795	-0.265	-0.367
-556.456	-20.275	-0.123	-0.100
-555.442	-55.462	0.071	-0.042
-554.427	530.024	0.015	0.048
-553.412	800.000	-0.027	-0.150
-552.398	15.323	-0.133	-0.137
-551.383	-184.836	-0.118	-0.002
-550.369	-129.771	0.124	0.022
-549.354	800.000	-0.059	0.324
-548.339	-200.000	-0.075	0.446
-547.325	800.000	0.041	0.218
-546.310	-200.000	-0.001	-0.198
-545.296	-91.962	0.289	0.107
-544.281	725.965	-0.115	-0.408
-543.266	-81.366	0.307	-0.133
-542.252	-38.160	0.347	-0.242
-541.237	-95.670	0.175	-0.061
-540.223	-60.620	-0.137	-0.076
-539.208	-18.365	0.145	-0.119
-538.193	96.633	0.196	0.296
-537.179	-24.674	0.295	0.231
-536.164	-200.000	-0.021	-0.166
-535.150	-51.130	0.443	-0.273
-534.135	305.135	0.136	-0.335
-533.121	-98.017	-0.101	0.034
-532.106	-118.492	0.167	0.039
-531.091	-89.758	0.549	-0.210
-530.077	800.000	0.096	-0.353
-529.062	35.953	-0.193	0.224
-528.048	-88.852	0.150	0.058
-527.033	688.696	-0.050	0.172
-526.018	11.691	0.290	0.293
-525.004	-122.953	0.248	0.052
-523.989	800.000	-0.043	0.171
-522.975	-166.771	-0.424	-0.023
-521.960	50.396	-0.228	0.284
-520.945	48.791	-0.312	0.386
-519.931	410.915	0.115	0.321
-518.916	202.782	0.095	0.194
-517.902	-200.000	-0.017	0.240
-516.887	-71.591	-0.209	-0.102
-515.872	-68.679	-0.165	0.084
-514.858	421.039	-0.073	0.207
-513.843	331.382	0.101	0.257
-512.829	-200.000	0.039	0.253
-511.814	-200.000	0.822	0.000
-510.799	291.263	0.146	0.351
-509.785	65.567	0.027	-0.036
-508.770	81.187	0.043	-0.062
-507.756	-200.000	-0.005	-0.107
-506.741	110.450	-0.119	0.189
-505.726	137.350	-0.065	0.112
-504.712	-67.473	0.576	0.297
-503.697	-200.000	-0.023	0.146
-502.683	800.000	-0.050	-0.222
-501.668	-66.583	-0.595	0.309
-500.653	-200.000	0.042	0.257
-499.639	-200.000	-0.011	0.192
-498.624	-122.827	0.361	0.076
-497.610	31.387	0.146	-0.165
-496.595	-200.000	-0.014	-0.234
-495.581	23.898	0.318	-0.345
-494.566	-200.000	0.015	-0.631
-493.551	-52.065	0.341	0.208
-492.537	-34.912	-0.132	0.094
-491.522	-200.000	-0.039	0.300
-490.508	40.912	-0.248	0.294
-489.493	234.392	0.207	-0.451
-488.478	-194.643	0.093	-0.001
-487.464	-57.540	-0.314	0.181
-486.449	-200.000	-0.020	-0.170
-485.435	-3.505	0.150	-0.137
-484.420	-8.297	0.247	0.218
-483.405	-200.000	-0.006	0.063
-482.391	0.863	0.241	0.227
-481.376	209.866	-0.198	-0.410
-480.362	120.937	0.123	0.201
-479.347	-113.933	-0.531	0.135
-478.332	752.872	-0.097	-0.345
-477.318	-14.951	-0.372	-0.313
-476.303	-42.129	0.298	0.200
-475.289	-48.332	0.192	-0.121
-474.274	315.007	-0.022	-0.055
-473.259	158.871	0.161	-0.295
-472.245	-9.686	-0.295	-0.258
-471.230	-95.951	0.309	0.108
-470.216	-122.142	-0.337	-0.072
-469.201	800.000	0.047	0.248
-468.186	-67.503	0.250	0.128
-467.172	-26.647	0.404	-0.310
-466.157	-28.920	0.284	-0.214
-465.143	148.045	-0.167	0.296
-464.128	-165.564	-0.320	0.018
-463.113	-46.061	0.312	-0.201
-462.099	-131.044	0.397	-0.069
-461.084	167.243	0.075	0.141
-460.070	-194.735	-0.209	-0.002
-459.055	-121.529	-0.383	-0.083
-458.040	-29.351	0.202	0.152
-457.026	282.837	0.153	0.362
-456.011	-58.668	0.219	0.124
-454.997	-167.754	0.181	0.009
-453.982	-41.856	-0.246	0.165
-452.968	-41.607	-0.350	-0.236
-451.953	-149.171	0.418	-0.043
-450.938	-125.616	-0.213	0.042
-449.924	-200.000	-0.023	-0.371
-448.909	-114.705	-0.280	0.070
-447.895	31.166	-0.174	0.196
-446.880	320.109	0.033	-0.082
-445.865	-129.558	0.148	0.027
-444.851	-128.227	-0.158	-0.029
-443.836	-48.878	0.100	0.063
-442.822	-104.904	-0.404	-0.121
-441.807	-54.879	0.153	0.090
-440.792	20.429	-0.269	-0.286
-439.778	104.303	-0.223	0.345
-438.763	83.982	0.051	0.074
-437.749	-200.000	0.016	0.152
-436.734	-200.000	0.007	0.245
-435.719	-96.930	0.319	-0.109
-434.705	222.295	0.194	-0.412
-433.690	-51.654	-0.239	-0.146
-432.676	-94.700	0.401	-0.142
-431.661	-32.546	0.191	0.140
-430.646	800.000	0.056	-0.288
-429.632	188.614	-0.107	0.211
-428.617	-48.490	0.294	0.185
-427.603	444.752	-0.114	-0.330
-426.588	-171.507	0.143	0.006
-425.573	-200.000	-0.257	-0.001
-424.559	-200.000	0.065	0.595
-423.544	-142.579	-0.253	0.032
-422.530	-200.000	-0.007	0.053
-421.515	-37.120	0.044	-0.031
-420.500	-100.893	-0.405	-0.130
-419.486	-173.642	-0.287	0.011
-418.471	5.361	0.366	0.354
-417.457	-200.000	0.021	-0.317
-416.442	-150.972	-0.620	-0.061
-415.428	-158.083	0.143	-0.011
-414.413	-200.000	-0.005	0.168
-413.398	-92.153	0.115	0.042
-412.384	-97.414	0.422	0.143
-411.369	97.094	0.158	0.238
-410.355	51.574	0.039	0.048
-409.340	37.312	-0.288	0.334
-408.325	739.015	-0.033	0.117
-407.311	-66.787	-0.248	-0.128
-406.296	-151.104	0.569	0.055
-405.282	-55.218	0.099	-0.058
-404.267	53.319	-0.098	0.123
-403.252	800.000	0.134	-0.504
-402.238	-172.074	0.225	-0.009
-401.223	800.000	0.030	0.112
-400.209	-160.456	0.511	-0.035
-399.194	-112.400	0.323	-0.084
-398.179	-200.000	0.013	-0.305
-397.165	154.473	0.338	-0.610
-396.150	-31.891	0.572	0.419
-395.136	-38.224	0.540	0.374
-394.121	-80.736	-0.388	-0.168
-393.106	800.000	-0.040	0.183
-392.092	99.967	0.197	0.299
-391.077	-2.158	-0.191	0.175
-390.063	5.415	-0.154	-0.149
-389.048	-123.182	0.078	-0.016
-388.033	-200.000	0.011	-0.496
-387.019	800.000	-0.060	0.339
-386.004	76.524	-0.026	0.036
-384.990	-144.479	-0.328	-0.039
-383.975	38.381	0.271	0.316
-382.960	201.933	0.042	-0.086
-381.946	-38.287	-0.163	0.113
-380.931	-173.766	0.180	-0.007
-379.917	18.879	-0.058	-0.061
-378.902	88.617	0.109	0.159
-377.888	32.177	0.152	0.172
-376.873	-98.583	0.322	-0.107
-375.858	153.254	-0.157	-0.282
-374.844	-84.374	0.612	-0.252
-373.829	-200.000	0.028	0.224
-372.815	-60.640	-0.323	-0.179
-371.800	76.297	-0.207	0.287
-370.785	-153.647	0.260	-0.023
-369.771	-200.000	-0.005	0.308
-368.756	-99.026	-0.323	-0.106
-367.742	-42.350	-0.497	0.331
-366.727	-200.000	-0.021	0.214
-365.712	-19.575	-0.137	0.111
-364.698	-104.342	-0.087	0.026
-363.683	-31.719	-0.093	0.068
-362.669	-139.494	0.160	0.022
-361.654	-49.759	-0.201	-0.125
-360.639	-109.270	0.216	-0.060
-359.625	-100.746	0.299	0.096
-358.610	800.000	0.081	0.387
-357.596	36.843	0.094	0.109
-356.581	-200.000	0.055	0.585
-355.566	800.000	0.085	-0.370
-354.552	3.690	0.221	-0.211
-353.537	-151.211	0.329	0.032
-352.523	-103.540	-0.161	-0.049
-351.508	-200.000	0.046	0.573
-350.493	-200.000	0.020	0.231
-349.479	-110.796	0.559	-0.150
-348.464	-2.756	0.322	-0.294
-347.450	525.694	0.142	0.441
-346.435	331.292	-0.236	-0.598
-345.420	800.000	0.092	-0.504
-344.406	431.036	-0.045	0.127
-343.391	-102.676	-0.336	-0.104
-342.377	-155.397	-0.181	-0.015
-341.362	-151.295	-0.258	-0.025
-340.348	5.799	0.151	-0.146
-339.333	-124.108	0.184	-0.037
-338.318	-131.514	-0.257	-0.044
-337.304	697.038	-0.050	0.172
-336.289	60.006	0.074	-0.096
-335.275	-40.013	-0.356	-0.242
-334.260	-8.838	-0.216	-0.189
-333.245	335.873	0.254	-0.647
-332.231	315.668	-0.103	0.255
-331.216	-93.457	-0.344	0.124
-330.202	-200.000	-0.048	-0.452
-329.187	40.500	0.097	0.115
-328.172	-140.592	0.115	0.015
-327.158	-175.385	0.230	0.008
-326.143	292.073	-0.219	0.522
-325.129	48.277	0.270	-0.331
-324.114	-0.372	0.097	-0.090
-323.099	-18.967	0.022	0.018
-322.085	800.000	0.131	-0.559
-321.070	11.869	-0.285	0.285
-320.056	-66.517	-0.171	0.088
-319.041	102.672	0.103	-0.157
-318.026	757.829	0.123	0.439
-317.012	39.473	-0.279	0.327
-315.997	-140.786	-0.603	-0.080
-314.983	280.648	-0.112	-0.263
-313.968	26.227	-0.276	0.301
-312.953	-98.929	0.330	-0.109
-311.939	570.985	-0.073	-0.232
-310.924	-200.000	0.004	-0.090
-309.910	-174.608	0.398	0.015
-308.895	-85.222	0.155	0.063
-307.880	-102.264	0.327	0.102
-306.866	-154.627	-0.208	0.018
-305.851	107.520	-0.350	0.545
-304.837	155.273	-0.061	0.111
-303.822	159.341	-0.043	-0.079
-302.807	396.207	-0.111	0.303
-301.793	-100.103	0.282	0.091
-300.778	-97.370	-0.180	0.061
-299.764	-115.046	0.180	0.044
-298.749	800.000	0.085	-0.308
-297.735	-64.752	0.213	0.112
-296.720	-164.627	0.100	0.006
-295.705	-175.637	-0.141	-0.005
-294.691	23.125	0.245	-0.262
-293.676	-163.895	-0.359	-0.022
-292.662	-123.499	-0.424	-0.087
-291.647	-25.899	-0.193	-0.148
-290.632	135.908	0.284	-0.483
-289.618	-100.062	-0.264	-0.085
-288.603	132.453	-0.150	0.254
-287.589	-200.000	0.011	-0.102
-286.574	-70.577	-0.279	-0.137
-285.559	-114.056	0.299	-0.075
-284.545	8.308	-0.235	-0.231
-283.530	0.017	-0.249	0.231
-282.516	343.523	0.039	-0.101
-281.501	800.000	0.021	0.089
-280.486	136.173	0.061	0.105
-279.472	-200.000	0.001	-0.465
-278.457	-19.720	-0.278	0.224
-277.443	-122.866	-0.362	-0.076
-276.428	32.658	0.150	0.170
-275.413	93.149	0.106	0.157
-274.399	-23.106	-0.124	-0.097
-273.384	17.585	-0.249	0.258
-272.370	31.497	-0.208	0.233
-271.355	92.619	0.301	0.444
-270.340	-173.801	0.129	-0.005
-269.326	798.420	-0.147	-0.533
-268.311	638.152	0.061	-0.203
-267.297	53.729	0.227	0.285
-266.282	-200.000	0.051	0.546
-265.267	-9.630	-0.365	0.317
-264.253	-200.000	-0.053	0.314
-263.238	-4.878	-0.155	-0.139
-262.224	478.952	-0.132	-0.393
-261.209	67.892	0.250	-0.333
-260.195	177.972	-0.164	-0.313
-259.180	-136.504	0.177	0.027
-258.165	-101.794	-0.476	0.149
-257.151	-4.672	-0.361	-0.324
-256.136	49.230	-0.361	-0.443
-255.122	-38.926	0.115	0.079
-254.107	-50.380	0.255	0.156
-253.092	-78.964	-0.046	-0.020
-252.078	-62.601	-0.193	0.104
-251.063	-112.859	0.329	0.084
-250.049	60.013	0.124	0.160
-249.034	-101.867	-0.233	0.073
-248.019	-34.601	0.236	0.168
-247.005	-56.638	-0.184	-0.106
-245.990	-118.563	-0.117	-0.027
-244.976	33.305	0.195	-0.220
-243.961	-112.786	0.332	0.085
-242.946	-70.998	0.181	-0.088
-241.932	85.115	0.120	-0.171
-240.917	138.282	0.099	-0.170
-239.903	200.800	0.114	-0.229
-238.888	81.292	0.094	0.133
-237.873	-200.000	0.042	-0.251
-236.859	-87.575	-0.271	0.106
-235.844	-128.812	0.058	0.011
-234.830	3.268	-0.172	-0.163
-233.815	-89.098	-0.561	-0.215
-232.800	-51.708	0.448	0.271
-231.786	-71.209	0.096	-0.047
-230.771	60.000	-0.181	0.232
-229.757	-84.925	0.313	0.127
-228.742	-200.000	0.031	0.352
-227.727	-87.769	-0.217	0.085
-226.713	498.955	0.050	0.151
-225.698	-41.420	0.161	-0.108
-224.684	-98.026	-0.196	-0.065
-223.669	-39.487	-0.509	0.346
-222.655	-145.291	-0.414	0.048
-221.640	85.408	-0.264	0.377
-220.625	-194.005	0.317	0.003
-219.611	-75.532	0.237	0.109
-218.596	-200.000	0.002	0.566
-217.582	-200.000	-0.046	0.302
-216.567	-112.245	0.179	-0.046
-215.552	135.851	0.473	0.803
-214.538	-56.293	0.275	0.158
-213.523	155.816	-0.281	0.505
-212.509	-8.261	0.237	-0.208
-211.494	-10.267	0.120	-0.103
-210.479	-141.720	0.217	0.028
-209.465	-79.087	-0.254	0.112
-208.450	-113.046	-0.552	0.141
-207.436	67.241	-0.224	-0.297
-206.421	-120.778	-0.716	-0.156
-205.406	-112.215	0.322	-0.083
-204.392	800.000	-0.045	0.181
-203.377	175.482	-0.343	0.648
-202.363	-200.000	-0.032	0.236
-201.348	-56.420	0.285	-0.164
-200.333	-156.007	0.236	-0.019
-199.319	-86.371	-0.251	0.100
-198.304	-140.517	0.366	-0.049
-197.290	-139.311	0.265	-0.037
-196.275	-57.200	0.347	-0.198
-195.260	52.764	0.226	-0.281
-194.246	210.549	-0.095	-0.195
-193.231	-110.879	-0.378	-0.100
-192.217	-82.880	-0.212	-0.088
-191.202	-200.000	-0.032	-0.292
-190.187	214.644	-0.040	-0.082
-189.173	-200.000	-0.016	-0.115
-188.158	-85.248	0.238	-0.096
-187.144	-1.112	-0.182	-0.167
-186.129	46.460	-0.353	0.425
-185.114	-54.999	0.257	0.150
-184.100	-111.997	-0.453	-0.118
-183.085	800.000	-0.054	0.212
-182.071	-200.000	0.057	0.339
-181.056	748.382	-0.104	0.367
-180.042	17.129	0.294	-0.302
-179.027	-157.080	-0.354	-0.028
-178.012	-200.000	-0.022	-0.260
-176.998	-109.054	0.455	-0.125
-175.983	-164.698	0.553	-0.032
-174.969	-123.411	-0.217	-0.044
-173.954	-13.790	-0.187	0.157
-172.939	-57.764	0.535	-0.303
-171.925	257.171	0.136	-0.304
-170.910	-200.000	0.004	-0.245
-169.896	800.000	0.033	0.143
-168.881	-144.617	-0.242	-0.029
-167.866	-123.811	0.144	0.029
-166.852	26.685	-0.199	0.217
-165.837	-8.475	-0.131	0.114
-164.823	526.060	-0.044	-0.136
-163.808	290.356	0.235	-0.557
-162.793	-200.000	0.024	0.387
-161.779	385.072	-0.149	0.401
-160.764	800.000	-0.081	-0.384
-159.750	66.048	-0.126	-0.166
-158.735	-200.000	-0.031	-0.189
-157.720	-116.226	-0.658	-0.157
-156.706	-12.124	0.619	0.526
-155.691	800.000	0.079	-0.295
-154.677	-69.429	0.283	-0.140
-153.662	-126.596	-0.423	-0.081
-152.647	-78.744	0.288	-0.127
-151.633	-148.382	0.453	0.048
-150.618	4.955	0.370	0.353
-149.604	-114.307	0.687	0.171
-148.589	-85.931	0.085	-0.034
-147.574	464.241	0.154	-0.448
-146.560	-36.171	-0.074	-0.052
-145.545	-18.946	-0.341	0.275
-144.531	192.618	-0.143	-0.280
-143.516	800.000	-0.116	0.512
-142.502	-92.444	0.435	0.158
-141.487	152.539	-0.218	-0.387
-140.472	-108.093	-0.113	0.031
-139.458	800.000	0.078	0.329
-138.443	-110.470	0.404	-0.108
-137.429	-154.920	0.205	-0.017
-136.414	-28.826	0.409	0.304
-135.399	-10.391	-0.149	-0.128
-134.385	-105.105	0.095	0.028
-133.370	71.797	0.418	0.564
-132.356	200.420	-0.209	-0.418
-131.341	800.000	0.109	0.403
-130.326	67.391	-0.274	0.363
-129.312	146.109	0.463	0.807
-128.297	242.245	0.146	0.317
-127.283	-49.571	0.173	0.107
-126.268	800.000	0.051	-0.271
-125.253	-200.000	-0.014	0.276
-124.239	-95.981	-0.354	0.122
-123.224	452.420	0.100	0.288
-122.210	134.435	0.060	0.102
-121.195	-9.176	-0.119	0.103
-120.180	-105.295	0.157	-0.046
-119.166	-200.000	0.038	-0.482
-118.151	3.277	-0.099	0.093
-117.137	-110.458	-0.195	-0.052
-116.122	-122.672	0.354	0.074
-115.107	222.911	-0.127	0.267
-114.093	-145.954	0.492	0.056
-113.078	16.488	0.232	0.237
-112.064	134.330	0.048	-0.081
-111.049	-150.972	-0.351	-0.034
-110.034	168.445	0.134	-0.248
-109.020	-134.008	-0.702	-0.111
-108.005	27.784	0.406	0.443
-106.991	-43.918	0.052	-0.034
-105.976	-101.541	0.180	-0.056
-104.962	-200.000	-0.043	-0.382
-103.947	-93.182	-0.166	0.059
-102.932	-200.000	-0.048	0.290
-101.918	-93.341	0.262	-0.094
-100.903	93.767	0.129	-0.190
-99.889	104.125	-0.178	-0.272
-98.874	-200.000	-0.027	0.328
-97.859	-200.000	0.037	0.262
-96.845	-200.000	0.049	0.345
-95.830	-200.000	-0.059	0.464
-94.816	201.133	0.329	0.658
-93.801	-35.860	0.124	0.087
-92.786	-88.444	-0.120	-0.046
-91.772	-200.000	-0.065	-0.430
-90.757	14.977	-0.463	0.469
-89.743	-149.083	0.369	-0.038
-88.728	-144.384	-0.245	-0.029
-87.713	-85.377	0.072	-0.029
-86.699	800.000	0.082	0.378
-85.684	37.623	0.119	0.137
-84.670	235.728	0.134	0.288
-83.655	-108.814	-0.383	-0.105
-82.640	-96.699	-0.067	0.023
-81.626	47.892	-0.063	-0.076
-80.611	-33.553	-0.261	0.186
-79.597	-94.885	-0.261	-0.091
-78.582	174.404	-0.168	0.316
-77.567	76.119	-0.078	0.107
-76.553	-28.703	0.041	0.030
-75.538	557.788	0.021	-0.067
-74.524	-82.761	0.194	0.081
-73.509	-200.000	0.681	0.003
-72.494	111.552	0.259	0.405
-71.480	193.761	-0.102	0.201
-70.465	-5.722	0.360	-0.319
-69.451	46.030	-0.128	-0.154
-68.436	-139.222	-0.356	0.049
-67.422	151.415	0.287	-0.507
-66.407	37.803	0.197	0.227
-65.392	17.140	-0.114	0.117
-64.378	-161.025	-0.343	0.023
-63.363	289.462	0.067	0.157
-62.349	-103.298	-0.327	0.099
-61.334	-13.470	-2.344	-1.962
-60.319	61.447	1.234	1.588
-59.305	235.785	-3.757	-8.057
-58.290	46.523	4.102	4.923
-57.276	364.053	3.937	10.282
-56.261	-200.000	23.902	323.430
-55.246	351.422	1309.021	3365.062
-54.232	52.566	2848.293	3518.744
-53.217	51.059	2662.717	3266.026
-52.203	31.480	2392.456	2658.149
-51.188	27.868	2058.106	2242.085
-50.173	24.689	1944.393	2080.989
-49.159	23.391	1934.190	2054.869
-48.144	23.027	1928.470	2044.486
-47.130	22.957	1926.181	2041.161
-46.115	22.859	1924.322	2037.970
-45.100	22.965	1923.150	2037.877
-44.086	22.820	1922.626	2035.561
-43.071	22.793	1920.246	2032.652
-42.057	22.802	1918.060	2030.361
-41.042	22.810	1917.230	2029.492
-40.027	22.836	1915.306	2027.679
-39.013	22.757	1914.334	2025.656
-37.998	22.856	1912.755	2025.043
-36.984	22.880	1911.195	2023.595
-35.969	22.887	1909.861	2022.178
-34.954	22.857	1908.543	2020.361
-33.940	22.830	1907.591	2018.956
-32.925	22.720	1906.390	2016.348
-31.911	22.688	1905.252	2014.693
-30.896	22.752	1903.398	2013.382
-29.881	22.737	1902.759	2012.459
-28.867	22.742	1901.091	2010.673
-27.852	22.766	1899.257	2008.930
-26.838	22.696	1898.230	2006.961
-25.823	22.611	1897.109	2004.724
-24.809	22.765	1895.371	2004.567
-23.794	22.708	1894.477	2002.890
-22.779	22.574	1893.742	2000.509
-21.765	22.734	1891.498	1999.875
-20.750	22.617	1890.690	1997.614
-19.736	22.658	1889.516	1996.757
-18.721	22.632	1888.562	1995.376
-17.706	22.553	1887.819	1993.611
-16.692	22.627	1886.242	1992.712
-15.677	22.635	1884.930	1991.336
-14.663	22.566	1883.687	1989.156
-13.648	22.625	1881.478	1987.417
-12.633	22.630	1880.797	1986.672
-11.619	22.494	1880.947	1985.216
-10.604	22.419	1878.897	1982.121
-9.590	22.463	1877.500	1981.065
-8.575	22.551	1875.789	1980.183
-7.560	22.463	1875.363	1978.653
-6.546	22.497	1874.264	1977.806
-5.531	22.532	1871.853	1975.578
-4.517	22.590	1870.971	1975.216
-3.502	22.431	1870.018	1972.338
-2.487	22.578	1869.481	1973.358
-1.473	22.719	1865.513	1970.667
-0.458	22.305	1847.448	1946.901
0.556	18.808	1995.920	2049.219
1.571	17.496	2198.933	2240.033
2.586	18.243	2237.786	2289.401
3.600	18.392	2239.313	2292.693
4.615	18.346	2238.405	2290.868
5.629	18.338	2236.354	2288.386
6.644	18.259	2234.809	2285.473
7.659	18.210	2233.591	2283.295
8.673	18.338	2230.711	2281.792
9.688	18.134	2239.828	2288.099
10.702	17.258	2320.287	2357.794
11.717	15.569	2383.796	2397.824
12.731	7.061	2365.333	2257.393
13.746	1.056	2348.172	2155.081
14.761	0.180	2344.847	2139.268
15.775	0.120	2343.736	2137.140
16.790	0.005	2341.800	2133.481
17.804	0.061	2339.891	2132.289
18.819	0.025	2339.533	2131.195
19.834	0.051	2338.084	2129.989
20.848	0.109	2336.559	2129.171
21.863	0.113	2334.353	2126.963
22.877	0.054	2333.175	2124.792
23.892	0.038	2330.309	2121.703
24.907	0.034	2327.490	2118.817
25.921	0.061	2325.393	2117.039
26.936	0.089	2323.462	2115.420
27.950	0.107	2320.520	2112.747
28.965	0.149	2318.888	2111.609
29.980	0.100	2317.267	2109.183
30.994	0.186	2315.449	2108.488
32.009	3.905	2327.231	2171.510
33.023	13.004	2352.841	2324.466
34.038	16.729	2359.543	2383.608
35.053	16.677	2357.000	2380.023
36.067	16.767	2353.645	2377.609
37.082	16.790	2351.617	2375.611
38.096	16.752	2350.379	2373.532
39.111	16.946	2348.033	2373.615
40.126	17.111	2345.835	2373.427
41.140	17.132	2345.198	2372.788
42.155	17.115	2342.480	2369.522
43.169	17.063	2340.556	2366.559
44.184	16.947	2337.572	2361.638
45.199	16.930	2334.498	2358.008
46.213	16.964	2333.917	2357.614
47.228	16.970	2334.402	2357.909
48.242	17.052	2332.289	2356.629
49.257	17.093	2330.214	2354.824
50.271	17.219	2326.768	2352.816
51.286	16.931	2323.617	2345.346
52.301	16.640	2322.378	2339.773
53.315	17.487	2325.737	2354.656
54.330	20.410	2334.254	2403.726
55.344	22.289	2334.340	2429.640
56.359	22.491	2331.225	2428.901
57.374	22.564	2331.577	2429.995
58.388	22.682	2328.659	2428.290
59.403	22.492	2323.947	2420.466
60.417	22.190	2319.611	2411.496
61.432	22.294	2318.820	2411.812
62.447	22.371	2318.245	2411.994
63.461	22.618	2316.232	2413.007
64.476	22.757	2314.154	2412.460
65.490	22.417	2312.108	2405.372
66.505	21.625	2308.303	2390.262
67.520	19.499	2299.619	2351.892
68.534	17.264	2291.550	2312.828
69.549	16.696	2287.144	2300.354
70.563	16.636	2284.754	2296.853
71.578	16.686	2282.346	2294.839
72.593	16.631	2281.574	2293.034
73.607	16.886	2280.081	2294.733
74.622	16.901	2277.489	2292.057
75.636	16.772	2274.851	2287.376
76.651	16.706	2272.134	2283.472
77.666	16.600	2271.121	2280.744
78.680	16.484	2268.710	2276.487
79.695	16.381	2266.183	2272.283
80.709	16.336	2264.837	2270.054
81.724	16.231	2263.346	2266.866
82.739	16.375	2259.662	2264.851
83.753	16.272	2257.990	2261.518
84.768	16.243	2255.817	2258.683
85.782	16.126	2254.476	2255.493
86.797	16.132	2252.763	2253.591
87.812	16.177	2250.181	2251.345
88.826	16.338	2248.900	2251.941
89.841	16.370	2246.951	2250.157
90.855	16.448	2243.379	2247.346
91.870	16.543	2242.773	2247.747
92.884	16.456	2241.818	2245.359
93.899	16.571	2240.656	2245.458
94.914	17.213	2244.135	2257.256
95.928	19.818	2251.335	2299.072
96.943	20.735	2249.025	2308.663
97.957	18.026	2237.965	2261.059
98.972	16.656	2230.647	2235.220
99.987	16.391	2228.053	2228.841
101.001	16.298	2226.644	2225.922
102.016	16.378	2224.521	2224.600
103.030	16.383	2221.672	2221.552
104.045	16.288	2219.355	2217.717
105.060	16.250	2217.293	2214.883
106.074	16.297	2216.416	2214.367
107.089	16.260	2213.988	2211.186
108.103	16.296	2213.107	2210.520
109.118	16.457	2211.460	2210.719
110.133	16.580	2209.875	2210.490
111.147	16.502	2207.139	2206.466
112.162	16.429	2207.043	2205.147
113.176	16.643	2204.771	2205.412
114.191	16.746	2202.908	2204.638
115.206	16.621	2202.121	2201.949
116.220	16.519	2200.115	2198.343
117.235	16.685	2198.132	2198.268
118.249	16.755	2195.708	2196.491
119.264	16.758	2193.484	2194.039
120.279	16.547	2192.657	2190.209
121.293	16.625	2190.950	2189.260
122.308	16.604	2188.847	2186.624
123.322	16.577	2188.174	2185.339
124.337	17.095	2189.533	2193.154
125.352	19.892	2197.160	2236.922
126.366	20.454	2195.298	2242.062
127.381	17.755	2183.897	2195.274
128.395	16.643	2178.878	2175.598
129.410	16.580	2176.780	2172.428
130.424	16.432	2176.601	2170.089
131.439	16.572	2174.621	2169.653
132.454	16.555	2172.925	2167.488
133.468	16.666	2170.617	2166.354
134.483	16.890	2169.461	2167.817
135.497	16.976	2167.349	2166.551
136.512	16.879	2164.179	2161.878
137.527	16.767	2162.434	2158.444
138.541	16.517	2160.605	2153.156
139.556	16.298	2161.157	2150.644
140.570	16.339	2159.540	2149.305
141.585	16.309	2155.660	2144.808
142.600	16.293	2155.118	2143.803
143.614	16.154	2154.263	2140.927
144.629	16.207	2151.486	2138.582
145.643	16.024	2150.068	2134.590
146.658	16.130	2147.859	2133.488
147.673	16.156	2145.157	2130.878
148.687	16.083	2145.463	2129.996
149.702	16.279	2145.468	2132.238
150.716	16.443	2143.546	2132.159
151.731	16.426	2142.311	2130.454
152.746	16.465	2141.645	2130.026
153.760	17.280	2144.545	2142.986
154.775	19.912	2152.624	2184.237
155.789	20.831	2149.030	2191.960
156.804	18.094	2138.968	2146.927
157.819	16.466	2131.620	2118.806
158.833	16.246	2128.369	2112.545
159.848	16.403	2125.799	2111.718
160.862	16.378	2125.547	2110.897
161.877	16.463	2124.294	2110.470
162.892	16.588	2123.664	2111.161
163.906	16.735	2121.497	2110.594
164.921	16.641	2120.659	2108.328
165.935	16.585	2118.403	2105.139
166.950	16.699	2116.872	2104.784
167.964	16.569	2114.628	2100.683
168.979	16.300	2112.781	2095.242
169.994	16.236	2111.263	2092.685
171.008	16.276	2108.637	2090.326
172.023	16.228	2107.847	2088.697
173.037	16.459	2105.766	2089.257
174.052	16.599	2104.868	2089.853
175.067	16.537	2102.985	2086.964
176.081	16.349	2101.618	2083.027
177.096	16.568	2100.644	2084.527
178.110	16.606	2099.059	2083.176
179.125	16.665	2098.847	2083.447
180.140	16.610	2097.198	2080.877
181.154	16.697	2095.021	2079.551
182.169	16.715	2095.572	2080.062
183.183	17.522	2097.448	2091.646
184.198	20.562	2104.563	2136.090
185.213	21.161	2101.961	2140.589
186.227	18.138	2091.558	2092.607
187.242	16.830	2088.104	2072.826
188.256	16.660	2086.213	2068.619
189.271	16.683	2083.510	2065.963
190.286	16.465	2082.976	2062.511
191.300	16.572	2079.774	2060.415
192.315	16.546	2077.991	2058.079
193.329	16.698	2077.644	2059.349
194.344	16.943	2076.224	2060.685
195.359	16.899	2075.669	2059.346
196.373	16.734	2072.581	2054.025
197.388	16.556	2069.779	2048.838
198.402	16.414	2067.546	2044.659
199.417	16.452	2065.664	2043.016
200.432	16.466	2063.652	2040.945
201.446	16.477	2062.835	2040.026
202.461	16.420	2061.298	2037.570
203.475	16.306	2059.215	2033.887
204.490	16.227	2057.856	2031.354
205.504	16.226	2055.352	2028.626
206.519	16.432	2052.892	2028.437
207.534	16.426	2051.971	2027.216
208.548	16.246	2051.399	2024.230
209.563	16.421	2048.760	2023.497
210.577	16.551	2048.258	2024.326
211.592	16.614	2048.152	2024.731
212.607	17.859	2053.545	2044.818
213.621	21.219	2061.057	2092.597
214.636	20.673	2054.055	2078.686
215.650	17.473	2044.219	2030.180
216.665	16.790	2039.819	2017.398
217.680	16.569	2038.635	2013.339
218.694	16.413	2036.387	2009.014
219.709	16.383	2035.236	2007.275
220.723	16.519	2034.491	2007.929
221.738	16.576	2033.356	2007.243
222.753	16.735	2030.601	2006.176
223.767	16.710	2029.259	2004.317
224.782	16.530	2028.379	2001.068
225.796	16.521	2026.148	1998.521
226.811	16.576	2024.623	1997.424
227.826	16.472	2023.274	1994.629
228.840	16.464	2021.315	1992.365
229.855	16.465	2019.690	1990.535
230.869	16.550	2018.312	1989.945
231.884	16.504	2017.207	1988.063
232.899	16.513	2015.774	1986.521
233.913	16.469	2014.506	1984.519
234.928	16.462	2012.833	1982.555
235.942	16.416	2011.070	1980.029
236.957	16.570	2009.552	1980.111
237.972	16.477	2008.837	1978.080
238.986	16.430	2007.074	1975.558
240.001	16.482	2005.850	1974.729
241.015	16.595	2004.945	1974.927
242.030	17.371	2008.438	1987.238
243.045	20.129	2013.867	2024.810
244.059	20.400	2010.844	2024.697
245.074	17.722	2000.995	1983.272
246.088	16.923	1996.106	1968.869
247.103	16.950	1994.820	1967.678
248.117	16.852	1993.957	1965.453
249.132	16.698	1990.940	1960.448
250.147	16.622	1988.897	1957.316
251.161	16.573	1988.202	1955.827
252.176	16.773	1987.758	1957.478
253.190	16.974	1986.863	1958.698
254.205	17.174	1984.210	1958.167
255.220	16.958	1984.238	1955.464
256.234	16.911	1982.058	1952.529
257.249	16.787	1979.975	1948.818
258.263	16.676	1979.130	1946.459
259.278	16.885	1977.582	1947.123
260.293	16.594	1975.547	1941.529
261.307	16.296	1973.019	1935.378
262.322	16.489	1970.991	1935.385
263.336	16.410	1969.372	1932.651
264.351	16.272	1967.404	1928.904
265.366	16.098	1966.539	1925.832
266.380	16.274	1965.975	1927.068
267.395	16.249	1964.031	1924.635
268.409	16.374	1962.380	1924.225
269.424	16.380	1961.363	1923.060
270.439	16.477	1960.982	1923.567
271.453	17.531	1963.327	1937.699
272.468	20.528	1969.312	1977.711
273.482	20.566	1965.570	1974.144
274.497	17.789	1955.904	1932.617
275.512	16.448	1952.640	1913.911
276.526	16.350	1949.412	1909.403
277.541	16.451	1947.359	1908.309
278.555	16.389	1945.927	1905.972
279.570	16.208	1943.584	1901.408
280.585	16.322	1943.086	1901.975
281.599	16.353	1942.441	1901.475
282.614	16.604	1941.346	1903.008
283.628	16.964	1940.483	1906.008
284.643	17.002	1940.085	1905.807
285.657	17.189	1938.423	1906.062
286.672	17.247	1936.812	1904.903
287.687	17.124	1935.044	1901.552
288.701	17.081	1933.198	1899.031
289.716	17.029	1931.980	1897.022
290.730	17.104	1930.400	1896.075
291.745	17.082	1929.599	1894.821
292.760	16.976	1929.226	1893.039
293.774	16.870	1927.468	1889.899
294.789	16.762	1926.283	1887.299
295.803	16.613	1923.961	1883.134
296.818	16.646	1921.939	1881.303
297.833	16.642	1921.766	1880.862
298.847	16.711	1920.085	1879.754
299.862	16.745	1917.971	1877.846
300.876	17.239	1921.477	1886.559
301.891	20.444	1927.226	1927.791
302.906	20.908	1923.755	1929.254
303.920	17.850	1916.094	1887.391
304.935	16.862	1911.426	1871.610
305.949	16.744	1908.706	1867.419
306.964	16.680	1907.199	1865.005
307.979	16.853	1905.887	1865.419
308.993	17.119	1904.572	1866.853
310.008	17.272	1903.721	1867.478
311.022	17.269	1902.856	1866.370
312.037	17.156	1900.645	1862.741
313.052	16.994	1899.219	1859.332
314.066	17.150	1897.640	1859.281
315.081	17.076	1896.832	1857.450
316.095	17.070	1894.820	1855.197
317.110	16.960	1893.180	1852.160
318.125	16.874	1890.812	1848.674
319.139	16.869	1889.252	1846.875
320.154	16.783	1888.912	1845.381
321.168	16.831	1887.434	1844.246
322.183	16.594	1885.760	1839.797
323.197	16.559	1884.044	1837.514
324.212	16.418	1881.675	1833.452
325.227	16.383	1879.895	1831.116
326.241	16.369	1878.142	1829.039
327.256	16.385	1877.496	1828.362
328.270	16.376	1875.897	1826.487
329.285	16.349	1877.445	1827.488
330.300	17.604	1880.897	1844.284
331.314	20.861	1887.093	1885.633
332.329	20.579	1881.723	1876.988
333.343	17.543	1872.035	1834.275
334.358	16.378	1868.578	1818.079
335.373	16.315	1866.340	1815.000
336.387	16.233	1864.054	1811.677
337.402	16.237	1863.006	1810.478
338.416	16.502	1861.434	1811.596
339.431	16.543	1859.931	1810.359
340.446	16.443	1858.982	1808.143
341.460	16.671	1858.495	1809.903
342.475	16.960	1857.693	1812.009
343.489	17.155	1856.287	1812.513
344.504	17.094	1854.574	1809.965
345.519	17.122	1853.185	1808.696
346.533	17.201	1852.311	1808.468
347.548	17.233	1850.977	1807.296
348.562	17.140	1849.605	1804.744
349.577	17.188	1848.511	1803.971
350.592	17.326	1848.465	1805.188
351.606	17.565	1846.083	1805.189
352.621	17.435	1844.181	1801.732
353.635	17.169	1843.115	1797.645
354.650	16.995	1841.730	1794.226
355.665	16.922	1839.088	1790.667
356.679	16.877	1837.989	1788.897
357.694	16.745	1836.872	1786.205
358.708	16.751	1835.066	1784.292
359.723	18.045	1839.363	1801.979
360.738	21.019	1844.801	1838.662
361.752	20.149	1839.375	1823.841
362.767	17.656	1831.718	1789.746
363.781	16.995	1827.422	1778.373
364.796	16.795	1826.350	1775.013
365.810	16.558	1825.806	1771.770
366.825	16.658	1825.139	1771.963
367.840	16.891	1824.232	1773.326
368.854	16.973	1823.230	1773.002
369.869	16.846	1820.597	1768.896
370.883	16.699	1819.717	1766.287
371.898	16.681	1818.422	1764.626
372.913	16.662	1816.702	1762.545
373.927	16.761	1815.361	1762.067
374.942	16.842	1815.095	1762.446
375.956	16.881	1813.986	1761.564
376.971	16.946	1811.363	1759.486
377.986	16.785	1809.764	1756.044
379.000	16.770	1808.575	1754.523
380.015	16.725	1806.404	1751.745
381.029	16.479	1804.881	1747.504
382.044	16.363	1801.916	1743.222
383.059	16.429	1800.878	1742.685
384.073	16.402	1800.031	1741.383
385.088	16.319	1800.234	1740.507
386.102	16.472	1797.661	1739.394
387.117	16.411	1795.024	1736.007
388.132	16.263	1795.449	1734.680
389.146	17.354	1800.588	1750.728
390.161	20.658	1805.766	1789.776
391.175	20.352	1797.615	1778.344
392.190	17.469	1788.533	1739.571
393.205	16.656	1785.351	1727.926
394.219	16.486	1784.658	1725.306
395.234	16.361	1783.420	1722.619
396.248	16.389	1780.679	1720.051
397.263	16.309	1778.560	1716.983
398.278	16.360	1777.276	1716.055
399.292	16.326	1777.158	1715.390
400.307	16.505	1776.015	1715.910
401.321	16.656	1774.268	1715.556
402.336	16.700	1774.527	1716.046
403.350	16.790	1772.585	1714.880
404.365	16.953	1771.433	1715.217
405.380	17.195	1770.618	1716.682
406.394	17.298	1769.600	1716.536
407.409	17.131	1768.187	1713.260
408.423	17.165	1767.671	1712.902
409.438	17.202	1765.633	1711.096
410.453	17.036	1764.874	1708.477
411.467	17.237	1763.857	1709.317
412.482	17.117	1761.844	1705.949
413.496	16.847	1761.284	1702.485
414.511	16.927	1758.381	1700.278
415.526	16.742	1756.459	1696.351
416.540	16.719	1754.536	1694.064
417.555	16.714	1754.382	1693.660
418.569	16.994	1754.980	1696.854
419.584	17.009	1754.780	1696.600
420.599	17.037	1753.630	1695.571
421.613	17.035	1751.721	1693.500
422.628	16.893	1750.584	1690.772
423.642	16.865	1748.314	1688.104
424.657	16.780	1747.973	1686.718
425.672	16.929	1745.627	1685.741
426.686	16.872	1744.724	1684.097
427.701	16.795	1743.116	1681.573
428.715	16.956	1742.485	1682.372
429.730	17.222	1740.980	1683.371
430.745	17.183	1739.711	1681.553
431.759	17.194	1740.348	1682.073
432.774	17.608	1739.514	1685.182
433.788	17.972	1739.735	1688.819
434.803	18.165	1738.383	1689.217
435.818	18.021	1738.056	1687.264
436.832	17.965	1737.246	1685.727
437.847	16.937	1729.335	1667.687
438.861	9.292	1709.451	1573.358
439.876	1.564	1695.612	1484.814
440.890	0.270	1692.511	1469.234
441.905	0.171	1691.684	1467.377
442.920	0.164	1690.007	1465.680
443.934	0.272	1687.970	1464.791
444.949	0.244	1687.060	1463.555
445.963	0.148	1686.816	1462.231
446.978	0.017	1685.996	1460.065
447.993	0.205	1684.243	1460.202
449.007	0.085	1682.577	1457.413
450.022	0.156	1680.465	1456.103
451.036	0.113	1678.884	1454.141
452.051	1.083	1683.127	1467.085
453.066	8.890	1699.989	1558.104
454.080	16.361	1711.837	1642.025
455.095	17.843	1714.167	1658.555
456.109	18.356	1714.368	1663.562
457.124	18.533	1713.341	1664.093
458.139	18.634	1713.123	1664.662
459.153	18.713	1712.495	1664.631
460.168	18.838	1709.731	1662.956
461.182	18.583	1708.595	1659.178
462.197	18.724	1706.324	1658.142
463.212	18.536	1704.599	1654.438
464.226	18.534	1704.135	1653.773
465.241	18.763	1702.929	1654.622
466.255	18.760	1702.513	1653.995
467.270	18.877	1700.771	1653.233
468.285	18.496	1699.450	1648.065
469.299	18.485	1698.188	1646.540
470.314	18.517	1696.420	1644.940
471.328	18.702	1694.946	1645.091
472.343	18.770	1694.116	1644.746
473.358	18.594	1693.476	1642.238
474.372	18.685	1692.334	1641.809
475.387	18.488	1690.623	1638.054
476.401	18.380	1688.509	1634.774
477.416	18.526	1687.705	1635.199
478.430	18.550	1686.825	1634.387
479.445	18.446	1685.100	1631.520
480.460	18.307	1684.139	1629.065
481.474	18.406	1683.369	1629.079
482.489	18.893	1681.053	1631.281
483.503	18.760	1680.004	1628.800
484.518	18.813	1678.685	1627.837
485.533	18.727	1677.845	1626.008
486.547	18.880	1676.151	1625.627
487.562	19.021	1674.822	1625.485
488.576	18.914	1673.609	1623.090
489.591	18.870	1672.311	1621.223
490.606	18.806	1670.870	1619.024
491.620	19.003	1669.101	1618.980
492.635	19.145	1668.156	1619.214
493.649	19.111	1666.819	1617.405
494.664	18.696	1665.995	1612.488
495.679	18.470	1663.615	1607.861
496.693	18.631	1663.051	1608.640
497.708	18.762	1661.591	1608.275
498.722	18.999	1660.916	1609.656
499.737	19.024	1659.697	1608.520
500.752	18.839	1657.885	1604.832
501.766	18.788	1656.720	1603.036
502.781	18.840	1655.286	1601.941
503.795	18.826	1653.319	1599.716
504.810	18.815	1652.959	1599.069
505.825	18.920	1652.793	1599.698
506.839	18.899	1651.071	1597.646
507.854	19.049	1648.686	1596.543
508.868	19.062	1647.969	1595.785
509.883	19.099	1646.582	1594.591
510.898	19.068	1646.043	1593.590
511.912	18.963	1644.232	1590.671
512.927	18.863	1641.994	1587.385
513.941	18.816	1641.073	1585.868
514.956	18.622	1639.961	1582.809
515.971	18.828	1637.832	1582.466
516.985	18.769	1637.115	1581.044
518.000	18.948	1636.804	1582.208
519.014	19.019	1635.979	1581.879
520.029	18.965	1635.469	1580.693
521.043	19.086	1633.031	1579.269
522.058	19.079	1632.245	1578.253
523.073	19.163	1631.056	1577.687
524.087	19.391	1630.736	1579.289
525.102	19.428	1628.155	1576.937
526.116	18.947	1626.882	1571.099
527.131	18.869	1626.560	1569.890
528.146	19.208	1626.058	1572.324
529.160	19.209	1624.759	1570.893
530.175	19.301	1623.286	1570.117
531.189	19.306	1622.373	1569.097
532.204	19.342	1621.183	1568.081
533.219	19.043	1619.797	1563.827
534.233	18.878	1618.593	1560.967
535.248	19.159	1618.010	1562.784
536.262	19.374	1617.749	1564.301
537.277	19.369	1615.562	1561.959
538.292	19.114	1613.665	1557.619
539.306	19.090	1611.550	1555.175
540.321	18.972	1610.710	1553.103
541.335	18.945	1609.574	1551.578
542.350	19.092	1608.123	1551.331
543.365	19.169	1607.333	1551.080
544.379	19.185	1606.212	1549.955
545.394	19.243	1605.006	1549.131
546.408	19.235	1603.059	1546.992
547.423	19.049	1601.041	1543.181
548.438	18.784	1600.521	1540.104
549.452	19.185	1599.277	1542.333
550.467	19.144	1598.817	1541.341
551.481	19.280	1597.479	1541.086
552.496	19.354	1596.502	1540.621
553.511	19.611	1595.865	1542.136
554.525	19.503	1594.691	1539.843
555.540	19.501	1594.438	1539.398
556.554	19.554	1592.677	1537.993
557.569	19.580	1590.558	1535.994
558.583	19.544	1588.945	1533.929
559.598	19.486	1587.977	1532.290
560.613	19.319	1587.905	1530.550
561.627	19.332	1586.131	1528.771
562.642	19.619	1584.668	1529.733
563.656	19.737	1583.924	1529.880
564.671	19.579	1582.748	1527.162
565.686	19.546	1582.085	1526.046
566.700	19.428	1580.063	1522.859
567.715	19.351	1578.323	1520.318
568.729	19.041	1576.624	1515.761
569.744	18.933	1574.759	1512.831
570.759	18.892	1574.191	1511.741
571.773	19.119	1572.812	1512.239
572.788	19.215	1571.903	1512.034
573.802	19.424	1571.135	1512.954
574.817	19.487	1570.086	1512.318
575.832	19.760	1569.183	1513.672
576.846	19.590	1567.291	1510.174
577.861	19.380	1566.521	1507.405
578.875	19.610	1566.046	1508.785
579.890	19.882	1564.192	1509.203
580.905	19.664	1564.022	1506.946
581.919	19.732	1563.545	1506.902
582.934	19.911	1561.908	1506.713
583.948	20.007	1560.796	1506.302
584.963	19.747	1559.238	1502.339
585.978	19.552	1557.668	1498.944
586.992	19.717	1557.270	1499.825
588.007	19.813	1556.334	1499.580
589.021	19.310	1554.788	1493.535
590.036	19.285	1552.614	1491.050
591.051	19.361	1552.024	1490.963
592.065	19.471	1551.165	1490.912
593.080	19.630	1549.615	1490.623
594.094	19.751	1548.081	1490.023
595.109	19.429	1545.714	1484.780
596.123	19.306	1544.640	1482.503
597.138	19.610	1544.006	1484.346
598.153	19.675	1542.887	1483.657
599.167	19.646	1541.711	1482.093
600.182	19.721	1540.604	1481.497
601.196	19.897	1539.613	1481.880
602.211	19.675	1538.718	1478.934
603.226	19.828	1538.214	1479.591
604.240	19.986	1536.247	1478.879
605.255	20.061	1535.560	1478.684
606.269	19.972	1534.844	1477.052
607.284	19.897	1533.280	1474.729
608.299	20.006	1531.531	1473.806
609.313	19.836	1529.811	1470.519
610.328	19.869	1529.106	1469.947
611.342	19.956	1528.385	1469.822
612.357	19.916	1527.383	1468.341
613.372	20.122	1526.290	1468.866
614.386	19.948	1525.446	1466.398
615.401	19.902	1524.988	1465.393
616.415	20.041	1523.340	1464.813
617.430	20.100	1523.013	1464.828
618.445	20.125	1521.626	1463.524
619.459	20.015	1520.181	1461.028
620.474	19.681	1518.202	1456.124
621.488	19.453	1516.580	1452.469
622.503	19.240	1514.781	1448.765
623.518	19.554	1515.127	1451.583
624.532	19.823	1514.695	1453.268
625.547	19.940	1513.689	1453.108
626.561	20.228	1513.017	1454.725
627.576	20.225	1512.100	1453.642
628.591	19.761	1509.704	1447.262
629.605	19.485	1508.147	1443.275
630.620	19.342	1507.321	1441.113
631.634	19.167	1505.974	1438.177
632.649	19.404	1505.102	1439.163
633.663	19.543	1504.379	1439.469
634.678	19.928	1502.534	1440.751
635.693	20.175	1501.861	1441.994
636.707	20.290	1500.251	1441.237
637.722	20.416	1499.438	1441.333
638.736	20.365	1499.186	1440.495
639.751	20.426	1497.602	1439.313
640.766	20.289	1495.809	1436.274
641.780	20.381	1494.438	1435.553
642.795	20.283	1493.574	1433.732
643.809	20.294	1493.361	1433.452
644.824	20.214	1493.269	1432.525
645.839	20.172	1492.322	1431.097
646.853	20.251	1490.296	1429.641
647.868	20.204	1488.960	1427.799
648.882	20.189	1487.490	1426.092
649.897	20.131	1486.284	1424.282
650.912	20.265	1484.636	1423.643
651.926	20.139	1482.842	1420.712
652.941	19.881	1481.814	1417.435
653.955	19.781	1479.651	1414.372
654.970	19.484	1477.812	1410.009
655.985	19.506	1476.867	1409.114
656.999	19.586	1476.068	1408.838
658.014	19.741	1475.007	1408.932
659.028	19.903	1474.212	1409.328
660.043	20.004	1473.716	1409.513
661.058	20.152	1472.268	1409.171
662.072	20.057	1472.824	1408.757
663.087	20.128	1471.254	1407.668
664.101	20.181	1470.185	1406.903
665.116	20.235	1469.128	1406.162
666.131	20.331	1467.976	1405.672
667.145	20.325	1467.278	1404.791
668.160	20.354	1465.888	1403.528
669.174	20.608	1464.245	1403.845
670.189	20.490	1463.115	1401.643
671.204	20.359	1462.422	1399.746
672.218	20.386	1461.491	1398.909
673.233	20.400	1460.572	1397.974
674.247	20.519	1459.883	1398.106
675.262	20.640	1458.873	1397.947
676.276	20.635	1457.472	1396.398
677.291	20.564	1456.442	1394.673
678.306	20.492	1454.764	1392.318
679.320	20.403	1454.049	1390.752
680.335	20.476	1453.573	1390.714
681.349	20.451	1453.392	1390.175
682.364	20.524	1451.413	1388.706
683.379	20.581	1449.980	1387.628
684.393	20.399	1448.919	1384.985
685.408	20.611	1447.403	1385.068
686.422	20.607	1446.435	1383.942
687.437	20.532	1445.980	1382.742
688.452	20.518	1445.645	1382.144
689.466	20.438	1444.249	1380.008
690.481	20.259	1442.664	1376.898
691.495	20.043	1440.947	1373.369
692.510	19.660	1438.826	1368.141
693.525	19.586	1437.104	1365.752
694.539	19.733	1437.136	1366.788
695.554	20.149	1437.921	1370.673
696.568	20.506	1437.140	1372.601
697.583	20.555	1435.602	1371.360
698.598	20.767	1434.233	1371.566
699.612	20.930	1433.173	1371.672
700.627	20.694	1432.799	1369.290
701.641	20.650	1431.469	1367.500
702.656	20.616	1430.349	1366.005
703.671	20.853	1429.819	1367.201
704.685	20.943	1428.748	1366.721
705.700	20.755	1427.378	1363.768
706.714	20.691	1425.660	1361.463
707.729	20.597	1424.255	1359.219
708.744	20.384	1423.059	1356.238
709.758	20.293	1421.848	1354.208
710.773	20.005	1420.785	1350.780
711.787	19.997	1418.815	1348.685
712.802	20.168	1417.312	1348.428
713.816	20.366	1417.301	1349.803
714.831	20.430	1416.820	1349.684
715.846	20.638	1416.062	1350.429
716.860	20.593	1414.686	1348.599
717.875	20.717	1413.198	1347.984
718.889	20.629	1412.186	1346.174
719.904	20.756	1411.304	1346.158
720.919	20.820	1410.641	1345.863
721.933	20.818	1410.674	1345.721
722.948	20.975	1409.195	1345.363
723.962	20.898	1408.106	1343.566
724.977	20.967	1406.715	1342.614
725.992	21.061	1405.222	1341.750
727.006	20.873	1404.245	1339.208
728.021	20.837	1403.298	1337.867
729.035	21.133	1401.193	1337.980
730.050	20.894	1400.568	1335.384
731.065	20.914	1399.430	1334.290
732.079	20.948	1398.945	1333.933
733.094	20.903	1397.812	1332.347
734.108	20.818	1395.825	1329.642
735.123	20.993	1394.208	1329.279
736.138	20.889	1393.351	1327.506
737.152	20.724	1393.279	1326.020
738.167	21.015	1392.504	1327.352
739.181	21.046	1391.591	1326.557
740.196	21.241	1390.545	1326.888
741.211	21.103	1389.375	1324.561
742.225	20.810	1388.999	1321.810
743.240	20.941	1387.131	1320.875
744.254	21.041	1385.270	1319.704
745.269	21.010	1384.778	1318.842
746.284	20.877	1384.386	1317.298
747.298	20.699	1383.074	1314.538
748.313	20.301	1381.662	1310.019
749.327	20.155	1380.029	1307.211
750.342	19.748	1378.786	1302.793
751.356	19.662	1376.473	1299.799
752.371	19.888	1376.461	1301.346
753.386	20.396	1376.702	1305.257
754.400	20.863	1376.413	1308.349
755.415	21.130	1374.687	1308.565
756.429	21.157	1373.649	1307.626
757.444	21.056	1372.373	1305.492
758.459	21.073	1372.014	1305.126
759.473	21.107	1371.740	1304.962
760.488	21.183	1370.325	1304.034
761.502	21.149	1368.330	1301.720
762.517	21.083	1367.323	1300.111
763.532	20.980	1365.728	1297.673
764.546	20.607	1364.753	1293.802
765.561	20.302	1363.652	1290.319
766.575	19.955	1362.016	1286.032
767.590	19.998	1361.197	1285.423
768.605	20.477	1359.813	1287.529
769.619	20.754	1358.426	1288.123
770.634	20.822	1358.864	1288.893
771.648	20.914	1358.405	1288.986
772.663	21.368	1357.087	1290.951
773.678	21.198	1356.513	1288.991
774.692	21.171	1355.800	1287.960
775.707	21.202	1355.449	1287.700
776.721	21.182	1354.710	1286.693
777.736	21.160	1353.052	1284.804
778.751	21.295	1351.876	1284.530
779.765	21.293	1350.730	1283.273
780.780	21.277	1349.895	1282.212
781.794	21.302	1348.439	1280.858
782.809	21.154	1347.452	1278.676
783.824	21.011	1346.161	1276.250
784.838	20.551	1344.756	1271.382
785.853	20.223	1342.646	1266.826
786.867	20.293	1342.594	1267.141
787.882	20.379	1342.851	1267.859
788.897	20.776	1341.894	1269.719
789.911	20.848	1341.401	1269.625
790.926	21.057	1339.406	1269.116
791.940	21.110	1338.151	1268.161
792.955	21.050	1337.527	1266.975
793.969	21.140	1336.470	1266.481
794.984	21.113	1335.939	1265.632
795.999	21.075	1335.330	1264.624
797.013	21.348	1333.455	1264.684
798.028	21.161	1332.310	1262.085
799.042	21.253	1332.043	1262.355
800.057	21.420	1330.958	1262.382
801.072	21.344	1328.892	1259.725
802.086	21.183	1328.279	1257.824
803.101	21.410	1327.291	1258.385
804.115	21.375	1326.495	1257.227
805.130	21.199	1325.571	1254.928
806.145	21.387	1324.326	1254.956
807.159	21.411	1322.719	1253.456
808.174	21.144	1321.731	1250.446
809.188	21.041	1319.868	1247.793
810.203	20.972	1317.926	1245.315
811.218	20.623	1316.656	1241.459
812.232	20.364	1315.260	1238.137
813.247	20.246	1314.143	1236.090
814.261	20.655	1313.780	1238.528
815.276	21.001	1313.036	1240.158
816.291	21.107	1312.813	1240.557
817.305	21.365	1312.127	1241.599
818.320	21.353	1310.655	1239.971
819.334	21.383	1309.581	1239.023
820.349	21.504	1307.633	1237.888
821.364	21.445	1306.372	1236.133
822.378	21.488	1305.119	1235.104
823.393	21.489	1304.062	1233.963
824.407	21.326	1302.814	1231.476
825.422	21.230	1302.808	1230.644
826.437	21.241	1301.371	1229.220
827.451	21.033	1298.918	1225.285
828.466	20.592	1296.861	1220.091
829.480	20.391	1294.713	1216.505
830.495	20.454	1293.718	1215.868
831.509	20.820	1293.654	1218.238
832.524	21.056	1293.265	1219.385
833.539	21.265	1292.155	1219.655
834.553	21.419	1291.315	1219.796
835.568	21.560	1290.304	1219.687
836.582	21.455	1289.166	1217.728
837.597	21.481	1287.913	1216.580
838.612	21.422	1286.633	1214.813
839.626	21.301	1284.657	1211.959
840.641	21.073	1284.077	1209.679
841.655	20.928	1282.999	1207.508
842.670	20.447	1281.227	1202.353
843.685	20.220	1280.195	1199.661
844.699	20.576	1279.802	1201.620
845.714	20.995	1278.531	1203.190
846.728	21.144	1277.510	1203.119
847.743	21.194	1277.235	1203.061
848.758	21.474	1275.936	1203.634
849.772	21.420	1274.385	1201.652
850.787	21.490	1273.391	1201.056
851.801	21.571	1272.339	1200.478
852.816	21.365	1271.392	1198.019
853.831	21.238	1269.680	1195.391
854.845	21.132	1267.931	1192.875
855.860	21.069	1266.465	1190.920
856.874	20.911	1265.263	1188.562
857.889	20.752	1263.729	1185.889
858.904	20.377	1262.863	1182.372
859.918	20.077	1260.570	1178.031
860.933	20.089	1258.699	1176.226
861.947	20.226	1259.405	1177.675
862.962	20.521	1258.533	1178.731
863.977	20.770	1256.573	1178.450
864.991	20.946	1256.000	1178.965
866.006	21.174	1255.998	1180.374
867.020	21.346	1254.897	1180.366
868.035	21.351	1253.832	1179.254
869.049	21.337	1253.092	1178.322
870.064	21.458	1252.110	1178.077
871.079	21.397	1251.784	1177.223
872.093	21.384	1250.380	1175.668
873.108	21.472	1249.306	1175.114
874.122	21.204	1247.824	1171.773
875.137	20.816	1246.781	1168.038
876.152	20.845	1245.671	1167.054
877.166	21.078	1243.804	1166.731
878.181	21.236	1242.991	1166.893
879.195	21.299	1242.732	1166.933
880.210	21.438	1241.873	1166.919
881.225	21.310	1241.586	1165.647
882.239	21.618	1240.366	1166.424
883.254	21.614	1239.256	1165.218
884.268	21.581	1238.746	1164.373
885.283	21.575	1237.286	1162.824
886.298	21.396	1235.892	1160.183
887.312	21.442	1234.978	1159.492
888.327	21.580	1233.275	1158.670
889.341	21.484	1231.917	1156.616
890.356	21.306	1232.262	1155.623
891.371	21.409	1231.615	1155.559
892.385	21.219	1230.861	1153.452
893.400	21.093	1229.438	1151.148
894.414	21.021	1227.675	1148.880
895.429	20.964	1225.493	1146.327
896.444	20.409	1223.212	1140.395
897.458	19.918	1222.128	1136.006
898.473	20.432	1222.234	1139.359
899.487	20.769	1221.975	1141.204
900.502	21.046	1221.704	1142.637
901.517	21.227	1220.131	1142.221
902.531	21.469	1219.379	1142.965
903.546	21.534	1218.967	1142.869
904.560	21.427	1218.231	1141.344
905.575	21.535	1217.315	1141.054
906.589	21.688	1216.094	1140.773
907.604	21.488	1215.969	1139.213
