DTS Sentinel unit serial number:	SN409020Multiplexer serial number:	ORYXHardware model number:	OX4-SRSoftware version number:	ORYX F/W v3.00 Oryx Data Collector v3.7.2.0data status	okinstallation	HaddamTimeLapsedifferential loss correction	single-endedforward channel	channel 3reverse channel	N/Adate	2011/06/21time	14:31:17forward acquisition time	30.00reverse acquisition time	0.00gamma	498.7831k internal	0.1825k external	0.1825temperature offset calibration	1.0074default loss term (dB/km)	0.3790temperature slope calibration	1.3530multiplexer offset coefficient	1.0000multiplexer slope coefficient	1.0000fibre end	0.00T internal ref (°C)	38.78T ext. ref 1 (°C)	28.74T ext. ref 2 (°C)	0.25length (m)	temperature (°C)	Stokes	anti-Stokes-747.200	-200.000	-0.056	-0.437
-746.185	-200.000	0.021	-0.247
-745.171	197.753	-0.065	-0.126
-744.156	111.319	0.201	0.309
-743.142	26.303	-0.341	-0.363
-742.127	-200.000	-0.023	0.409
-741.112	-133.178	-0.132	-0.021
-740.098	445.008	0.082	0.229
-739.083	-106.804	-0.459	-0.129
-738.069	-129.004	0.199	0.035
-737.054	185.115	0.195	0.370
-736.039	178.023	0.241	0.450
-735.025	182.539	0.197	0.371
-734.010	-168.921	-0.222	-0.010
-732.996	-95.850	0.129	-0.044
-731.981	77.972	-0.189	0.257
-730.966	-40.003	0.035	0.023
-729.952	-111.062	0.174	0.045
-728.937	-200.000	-0.076	-0.437
-727.923	-149.995	-0.220	0.022
-726.908	-144.937	-0.166	-0.019
-725.894	-200.000	0.007	0.122
-724.879	-40.771	-0.278	-0.183
-723.864	618.417	-0.073	0.235
-722.850	-34.592	-0.051	0.036
-721.835	-39.639	0.378	0.251
-720.821	-44.266	-0.245	-0.156
-719.806	800.000	0.047	-0.173
-718.791	800.000	-0.038	-0.183
-717.777	-200.000	0.025	-0.220
-716.762	-44.140	0.212	-0.135
-715.748	-77.009	-0.427	-0.189
-714.733	100.564	0.182	0.269
-713.718	33.910	0.118	0.131
-712.704	-80.418	0.435	0.184
-711.689	82.045	0.147	0.203
-710.675	-85.235	-0.209	-0.083
-709.660	-75.619	0.334	-0.150
-708.645	314.942	-0.067	0.162
-707.631	-10.720	0.077	-0.065
-706.616	-92.603	0.080	-0.028
-705.602	-63.639	-0.503	0.262
-704.587	-200.000	-0.004	0.100
-703.572	215.329	0.032	0.064
-702.558	-129.078	-0.061	0.011
-701.543	800.000	-0.032	0.178
-700.529	134.776	0.222	0.367
-699.514	-10.204	-0.137	0.116
-698.499	-100.868	-0.126	-0.039
-697.485	-200.000	-0.026	0.214
-696.470	32.831	-0.328	0.361
-695.456	-12.317	0.187	0.155
-694.441	800.000	0.119	-0.436
-693.426	-58.315	0.432	-0.238
-692.412	-100.964	0.426	0.132
-691.397	-200.000	-0.004	0.089
-690.383	-168.655	-0.651	-0.031
-689.368	-200.000	-0.039	0.305
-688.354	160.661	0.126	-0.224
-687.339	-24.982	0.502	-0.378
-686.324	-93.627	0.237	-0.083
-685.310	-74.746	-0.491	-0.223
-684.295	-154.649	0.589	-0.049
-683.281	-72.471	0.225	-0.105
-682.266	214.045	0.045	-0.091
-681.251	800.000	0.070	-0.265
-680.237	251.571	0.036	-0.077
-679.222	-193.761	-0.396	-0.004
-678.208	800.000	-0.051	-0.213
-677.193	127.468	-0.115	-0.187
-676.178	-200.000	-0.005	0.158
-675.164	45.443	-0.205	-0.240
-674.149	-124.677	-0.483	0.094
-673.135	78.042	0.334	-0.454
-672.120	-62.015	-0.211	-0.112
-671.105	-51.306	0.375	-0.222
-670.091	91.029	0.191	-0.272
-669.076	-128.104	-0.294	-0.053
-668.062	-149.954	-0.375	0.037
-667.047	-143.654	-0.315	-0.038
-666.032	-37.363	0.242	0.164
-665.018	-26.079	0.656	-0.490
-664.003	-170.450	0.668	0.029
-662.989	-200.000	-0.006	0.095
-661.974	-200.000	-0.004	0.072
-660.959	800.000	0.067	-0.305
-659.945	82.088	0.195	-0.269
-658.930	-81.871	-0.144	0.060
-657.916	345.300	-0.120	-0.300
-656.901	-87.148	-0.563	0.217
-655.886	-67.490	-0.237	0.118
-654.872	321.413	-0.128	-0.311
-653.857	-200.000	-0.017	-0.127
-652.843	-108.478	-0.159	0.043
-651.828	-94.216	0.503	0.174
-650.814	-159.833	-0.101	-0.007
-649.799	41.399	-0.238	0.274
-648.784	-125.172	-0.342	-0.066
-647.770	29.529	-0.176	-0.191
-646.755	-46.322	0.263	-0.164
-645.741	110.904	0.129	-0.198
-644.726	428.193	0.113	-0.313
-643.711	-91.249	0.528	-0.191
-642.697	-200.000	0.040	0.321
-641.682	-1.435	0.354	0.317
-640.668	-200.000	0.017	0.569
-639.653	78.536	-0.038	-0.051
-638.638	-150.025	-0.374	0.037
-637.624	-52.111	0.152	-0.090
-636.609	30.511	0.179	0.194
-635.595	-5.368	0.162	-0.141
-634.580	-146.408	-0.293	0.032
-633.565	-157.411	-0.605	0.046
-632.551	-110.492	-0.248	0.065
-631.536	-13.864	-0.267	-0.219
-630.522	-72.624	-0.316	-0.147
-629.507	-70.577	-0.410	-0.196
-628.492	497.446	-0.164	-0.481
-627.478	123.105	-0.449	-0.716
-626.463	18.319	0.388	-0.393
-625.449	349.188	0.004	0.011
-624.434	251.986	0.240	-0.522
-623.419	616.435	0.037	0.117
-622.405	-101.592	-0.342	0.105
-621.390	-98.019	0.054	-0.017
-620.376	227.830	-0.086	0.179
-619.361	-164.563	-0.360	-0.020
-618.346	-200.000	0.017	-0.292
-617.332	-131.208	-0.173	0.029
-616.317	-129.555	-0.429	-0.074
-615.303	800.000	0.023	-0.100
-614.288	-94.759	0.009	0.003
-613.273	-200.000	-0.012	0.251
-612.259	36.104	-0.150	0.168
-611.244	800.000	0.057	0.205
-610.230	250.014	0.133	-0.288
-609.215	566.373	0.087	-0.268
-608.201	-163.039	0.500	-0.030
-607.186	592.672	-0.030	-0.096
-606.171	-200.000	-0.023	-0.186
-605.157	-159.321	-0.200	0.014
-604.142	-101.609	-0.354	0.108
-603.128	-200.000	-0.019	-0.318
-602.113	92.000	-0.218	-0.311
-601.098	-138.989	0.661	0.090
-600.084	800.000	-0.067	0.344
-599.069	800.000	0.038	0.201
-598.055	88.166	0.169	0.238
-597.040	118.749	0.092	0.144
-596.025	-19.805	-0.082	0.064
-595.011	-20.177	0.300	0.234
-593.996	201.683	-0.076	-0.149
-592.982	-187.920	-0.441	0.007
-591.967	-104.575	-0.167	0.048
-590.952	-200.000	-0.020	-0.200
-589.938	-200.000	0.026	-0.217
-588.923	306.325	-0.192	-0.455
-587.909	29.925	-0.177	0.191
-586.894	34.987	0.095	0.106
-585.879	800.000	0.079	0.374
-584.865	-79.204	-0.278	-0.119
-583.850	-49.895	-0.131	-0.079
-582.836	-200.000	-0.099	-0.560
-581.821	223.283	-0.140	-0.286
-580.806	-56.159	-0.364	0.205
-579.792	426.196	0.104	0.285
-578.777	-40.833	0.087	-0.057
-577.763	151.840	-0.222	-0.384
-576.748	-200.000	-0.228	-0.000
-575.733	-10.336	0.360	-0.302
-574.719	-146.519	-0.476	0.052
-573.704	631.781	-0.009	0.029
-572.690	-200.000	-0.046	0.456
-571.675	-131.727	0.168	0.028
-570.661	-90.024	0.108	0.040
-569.646	-200.000	0.020	0.331
-568.631	158.732	0.116	0.205
-567.617	280.754	0.151	0.344
-566.602	-35.622	-0.352	-0.241
-565.588	81.545	0.517	0.709
-564.573	-39.850	-0.272	-0.180
-563.558	39.638	-0.208	0.236
-562.544	48.091	-0.124	-0.147
-561.529	166.628	0.298	-0.537
-560.515	-54.739	0.262	-0.150
-559.500	148.212	-0.078	0.134
-558.485	12.480	-0.223	-0.218
-557.471	-27.341	-0.258	-0.190
-556.456	-86.092	-0.828	-0.322
-555.442	669.065	0.102	-0.336
-554.427	-57.074	-0.210	-0.117
-553.412	207.377	0.205	-0.405
-552.398	-60.536	0.151	-0.081
-551.383	-68.809	0.222	-0.108
-550.369	-33.102	0.390	0.273
-549.354	-133.420	0.088	0.014
-548.339	24.584	0.197	-0.206
-547.325	180.951	0.273	0.509
-546.310	54.443	-0.257	0.314
-545.296	30.130	0.140	-0.151
-544.281	45.078	-0.185	0.215
-543.266	-166.258	-0.143	0.008
-542.252	-63.497	-0.144	0.075
-541.237	79.141	0.118	0.160
-540.223	-127.865	0.474	-0.085
-539.208	800.000	-0.074	-0.402
-538.193	157.094	0.154	0.271
-537.179	-200.000	0.009	-0.074
-536.164	443.124	0.121	0.338
-535.150	-200.000	-0.044	0.517
-534.135	-200.000	-0.017	0.363
-533.121	-85.705	-0.182	-0.071
-532.106	-147.297	-0.219	-0.023
-531.091	141.982	0.157	-0.263
-530.077	800.000	0.132	-0.589
-529.062	32.006	0.152	-0.165
-528.048	158.906	0.127	-0.223
-527.033	-200.000	0.013	-0.089
-526.018	800.000	-0.021	-0.104
-525.004	-200.000	0.089	0.517
-523.989	-74.689	0.148	0.067
-522.975	-7.734	0.190	0.162
-521.960	-200.000	-0.005	-0.233
-520.945	-200.000	0.037	0.479
-519.931	-88.970	0.095	0.035
-518.916	49.972	-0.115	-0.138
-517.902	-37.014	0.518	0.350
-516.887	-61.040	-0.183	0.097
-515.872	-40.019	-0.191	0.126
-514.858	-200.000	0.071	-0.422
-513.843	667.257	0.124	-0.409
-512.829	466.685	0.108	-0.306
-511.814	67.364	0.190	-0.245
-510.799	246.325	-0.106	0.227
-509.785	425.079	-0.086	-0.235
-508.770	537.069	0.090	-0.271
-507.756	-37.434	0.495	0.333
-506.741	-74.684	-0.120	0.054
-505.726	-124.305	-0.521	0.102
-504.712	-30.873	0.356	-0.253
-503.697	-200.000	-0.002	0.136
-502.683	154.044	0.107	0.186
-501.668	549.051	0.092	0.279
-500.653	-200.000	0.012	0.231
-499.639	614.979	0.180	0.574
-498.624	-123.020	-0.534	-0.107
-497.610	-76.479	0.071	-0.031
-496.595	783.998	-0.044	-0.153
-495.581	18.471	0.043	0.043
-494.566	-98.707	-0.136	0.044
-493.551	0.148	-0.278	-0.250
-492.537	82.740	0.197	-0.271
-491.522	157.944	-0.127	-0.222
-490.508	743.471	0.099	0.339
-489.493	61.175	0.216	-0.271
-488.478	-200.000	-0.015	0.284
-487.464	-26.357	-0.255	0.188
-486.449	-150.567	-0.154	-0.015
-485.435	345.244	-0.018	0.045
-484.420	-75.805	0.386	-0.172
-483.405	-200.000	-0.339	0.001
-482.391	-200.000	-0.114	-0.639
-481.376	46.163	0.197	0.230
-480.362	18.108	0.319	-0.321
-479.347	-15.184	-0.299	-0.241
-478.332	414.261	0.134	-0.362
-477.318	-78.328	0.042	0.018
-476.303	154.133	-0.119	-0.206
-475.289	54.301	0.128	-0.155
-474.274	-200.000	-0.048	-0.359
-473.259	800.000	-0.039	-0.191
-472.245	-87.994	-0.780	-0.294
-471.230	2.784	-0.114	-0.104
-470.216	-163.768	-0.204	-0.012
-469.201	71.712	0.346	-0.454
-468.186	177.096	0.147	0.270
-467.172	-141.658	-0.161	-0.020
-466.157	178.496	-0.217	0.400
-465.143	51.356	-0.400	-0.479
-464.128	-200.000	-0.015	-0.293
-463.113	-142.510	0.311	0.038
-462.099	-140.073	0.187	-0.025
-461.084	396.872	0.067	0.177
-460.070	32.251	0.165	-0.180
-459.055	-200.000	0.052	-0.366
-458.040	248.025	-0.154	0.330
-457.026	-188.747	0.228	-0.003
-456.011	800.000	0.042	0.186
-454.997	114.518	0.340	0.523
-453.982	250.619	0.133	0.285
-452.968	-178.598	0.248	-0.007
-451.953	-93.897	0.709	-0.244
-450.938	260.287	-0.040	-0.088
-449.924	108.251	0.137	-0.206
-448.909	29.756	-0.176	0.189
-447.895	-60.097	0.163	0.087
-446.880	30.700	-0.099	0.106
-445.865	387.077	0.068	0.177
-444.851	52.796	-0.185	-0.223
-443.836	-27.609	-0.386	-0.282
-442.822	45.440	0.244	0.284
-441.807	251.942	0.180	0.387
-440.792	2.758	0.202	0.185
-439.778	-20.965	-0.290	-0.224
-438.763	50.973	-0.162	0.193
-437.749	379.718	0.157	0.408
-436.734	-163.809	0.712	0.041
-435.719	-100.581	0.672	-0.208
-434.705	79.623	0.168	0.228
-433.690	-82.376	0.125	0.051
-432.676	-165.597	0.201	-0.011
-431.661	-177.116	0.113	-0.003
-430.646	800.000	0.124	0.681
-429.632	-84.364	-0.124	-0.049
-428.617	-133.280	0.021	0.003
-427.603	-200.000	0.018	0.140
-426.588	11.176	-0.049	0.047
-425.573	-85.664	0.105	0.041
-424.559	-32.773	0.388	-0.271
-423.544	62.648	0.084	0.106
-422.530	35.804	-0.185	0.204
-421.515	-72.368	-0.198	-0.092
-420.500	100.588	0.246	0.361
-419.486	-167.452	0.225	0.011
-418.471	-200.000	0.090	-0.508
-417.457	-200.000	0.021	0.221
-416.442	7.857	-0.199	-0.187
-415.428	344.383	0.153	0.381
-414.413	-153.256	-0.065	0.006
-413.398	47.263	0.064	0.075
-412.384	46.579	0.154	-0.180
-411.369	-200.000	0.018	0.131
-410.355	27.982	-0.177	-0.188
-409.340	757.517	-0.044	-0.152
-408.325	588.582	-0.093	-0.289
-407.311	800.000	0.043	-0.169
-406.296	-200.000	0.042	-0.269
-405.282	-55.213	0.138	0.078
-404.267	13.332	-0.085	0.082
-403.252	-200.000	-0.005	0.449
-402.238	-48.367	0.167	0.101
-401.223	-31.099	0.233	-0.165
-400.209	31.155	-0.299	-0.323
-399.194	-110.403	0.450	-0.117
-398.179	-17.110	-0.284	-0.225
-397.165	-113.830	-0.109	0.026
-396.150	92.897	0.214	-0.304
-395.136	-90.455	-0.261	0.095
-394.121	-200.000	0.107	-0.612
-393.106	-101.918	-0.129	0.039
-392.092	78.508	0.244	0.329
-391.077	800.000	0.058	-0.205
-390.063	-80.596	0.496	-0.207
-389.048	721.949	0.090	0.302
-388.033	661.869	0.124	0.404
-387.019	-152.282	-0.305	0.027
-386.004	-120.844	0.492	0.103
-384.990	-137.262	0.432	-0.061
-383.975	800.000	0.051	-0.270
-382.960	-57.961	0.147	0.080
-381.946	-173.991	0.580	-0.021
-380.931	638.043	-0.091	0.292
-379.917	-77.382	0.216	0.094
-378.902	800.000	-0.008	-0.030
-377.888	233.143	0.113	0.234
-376.873	320.494	-0.038	0.090
-375.858	800.000	-0.132	0.615
-374.844	800.000	-0.100	0.506
-373.829	65.689	0.192	-0.245
-372.815	-200.000	-0.005	0.104
-371.800	-119.463	0.532	-0.115
-370.785	800.000	0.087	0.451
-369.771	528.122	0.098	0.291
-368.756	-72.144	0.245	0.114
-367.742	-29.872	-0.497	-0.355
-366.727	-66.994	-0.263	-0.130
-365.712	-23.779	-0.122	0.091
-364.698	586.836	0.133	-0.412
-363.683	4.498	0.284	-0.262
-362.669	-34.771	-0.401	-0.275
-361.654	125.768	0.283	-0.449
-360.639	-200.000	-0.012	0.239
-359.625	-110.647	-0.421	0.109
-358.610	800.000	-0.049	-0.242
-357.596	500.138	-0.123	-0.359
-356.581	0.305	-0.293	-0.262
-355.566	800.000	0.034	-0.175
-354.552	-162.482	0.071	-0.004
-353.537	-62.941	0.146	0.075
-352.523	-200.000	0.038	-0.437
-351.508	278.705	0.286	-0.643
-350.493	102.794	0.249	-0.367
-349.479	800.000	0.159	-0.561
-348.464	2.611	-0.279	0.254
-347.450	-56.883	-0.169	0.094
-346.435	-61.884	0.063	0.033
-345.420	-89.271	-0.619	-0.228
-344.406	184.123	0.070	0.130
-343.391	-200.000	0.026	-0.150
-342.377	-88.161	-0.427	0.160
-341.362	-200.000	0.219	-0.000
-340.348	-7.588	0.429	-0.363
-339.333	-200.000	0.023	0.424
-338.318	-200.000	0.005	-0.035
-337.304	-200.000	0.018	0.403
-336.289	-42.868	0.243	0.154
-335.275	477.328	-0.083	0.236
-334.260	37.190	-0.327	0.363
-333.245	302.376	-0.184	0.429
-332.231	800.000	-0.017	0.074
-331.216	-115.842	-0.068	0.016
-330.202	-6.424	-0.155	-0.132
-329.187	18.349	-0.335	-0.336
-328.172	-17.122	0.280	-0.222
-327.158	58.283	0.296	0.364
-326.143	800.000	-0.070	-0.347
-325.129	800.000	0.148	0.701
-324.114	733.888	0.090	0.304
-323.099	-200.000	0.020	0.426
-322.085	-139.343	-0.583	0.078
-321.070	2.125	-0.286	0.259
-320.056	-31.748	0.149	0.105
-319.041	533.272	0.038	0.114
-318.026	578.924	0.103	0.317
-317.012	800.000	0.006	-0.023
-315.997	-138.684	-0.395	-0.054
-314.983	11.211	-0.169	-0.162
-313.968	-140.336	-0.641	-0.083
-312.953	-68.691	0.396	0.191
-311.939	-146.676	0.524	-0.056
-310.924	284.552	0.135	-0.305
-309.910	127.197	0.130	0.207
-308.895	-81.338	0.252	-0.104
-307.880	187.980	-0.196	0.367
-306.866	193.814	-0.113	-0.214
-305.851	-58.487	0.430	0.233
-304.837	-62.042	-0.154	0.080
-303.822	-29.918	-0.193	-0.137
-302.807	-101.977	0.304	-0.091
-301.793	-10.784	-0.215	-0.178
-300.778	-25.233	0.469	0.347
-299.764	35.044	0.106	0.117
-298.749	21.795	-0.364	0.371
-297.735	-12.371	0.275	0.224
-296.720	-34.250	0.073	-0.050
-295.705	-19.175	-0.075	-0.058
-294.691	-103.311	0.231	0.068
-293.676	-65.611	-0.440	0.220
-292.662	-200.000	0.014	0.248
-291.647	462.949	0.140	-0.394
-290.632	800.000	0.093	0.335
-289.618	-200.000	0.074	-0.604
-288.603	-162.774	0.473	0.029
-287.589	215.729	-0.271	0.541
-286.574	-200.000	-0.054	0.000
-285.559	16.844	-0.401	0.397
-284.545	-71.350	0.282	-0.132
-283.530	27.663	-0.130	0.137
-282.516	-70.394	0.150	0.071
-281.501	-115.197	0.596	-0.140
-280.486	-108.943	0.314	0.083
-279.472	-91.734	-0.176	-0.062
-278.457	39.431	0.481	-0.539
-277.443	-157.049	0.350	-0.026
-276.428	-155.562	-0.234	-0.019
-275.413	19.384	-0.283	-0.284
-274.399	-130.258	-0.609	0.103
-273.384	-63.897	0.170	-0.087
-272.370	-25.223	-0.357	0.264
-271.355	371.550	0.242	-0.617
-270.340	-6.992	-0.320	-0.271
-269.326	164.120	-0.265	0.468
-268.311	800.000	0.048	-0.214
-267.297	489.941	-0.129	-0.371
-266.282	27.563	-0.121	-0.128
-265.267	-200.000	-0.001	-0.111
-264.253	-119.817	-0.378	0.081
-263.238	55.181	-0.067	-0.081
-262.224	-185.878	-0.406	-0.007
-261.209	-105.530	-0.111	-0.031
-260.195	333.228	0.105	0.254
-259.180	-111.723	0.217	0.054
-258.165	800.000	0.161	0.716
-257.151	-200.000	-0.002	0.244
-256.136	-82.106	0.172	-0.070
-255.122	-63.631	0.064	-0.032
-254.107	800.000	-0.051	0.212
-253.092	-200.000	-0.015	-0.128
-252.078	449.902	-0.116	0.321
-251.063	-200.000	0.341	0.001
-250.049	800.000	0.076	-0.375
-249.034	380.889	-0.156	0.401
-248.019	11.221	-0.524	-0.502
-247.005	54.846	-0.337	-0.407
-245.990	67.057	0.254	-0.324
-244.976	104.761	0.247	-0.365
-243.961	-50.916	-0.220	-0.129
-242.946	7.128	-0.173	0.161
-241.932	57.098	-0.048	0.058
-240.917	-29.170	-0.301	-0.215
-239.903	-59.664	0.228	-0.122
-238.888	-180.293	0.310	-0.008
-237.873	241.896	0.103	0.215
-236.859	-119.952	-0.583	-0.124
-235.844	-115.493	-0.111	-0.026
-234.830	57.479	0.253	-0.309
-233.815	409.830	0.055	-0.145
-232.800	-123.695	-0.323	0.063
-231.786	429.826	0.075	0.204
-230.771	-2.135	0.191	0.167
-229.757	-88.246	-0.409	-0.152
-228.742	-146.407	-0.355	-0.038
-227.727	-200.000	0.020	-0.380
-226.713	138.089	-0.133	0.219
-225.698	-15.927	-0.147	0.117
-224.684	-105.102	-0.610	-0.173
-223.669	800.000	-0.044	-0.225
-222.655	244.492	0.248	-0.523
-221.640	-86.555	-0.295	0.112
-220.625	-73.163	0.170	-0.077
-219.611	69.779	-0.052	0.067
-218.596	17.992	0.118	-0.118
-217.582	-200.000	0.065	0.412
-216.567	-200.000	-0.014	0.295
-215.552	-150.367	0.349	0.033
-214.538	800.000	0.133	0.518
-213.523	-63.234	-0.235	0.121
-212.509	800.000	-0.097	0.459
-211.494	-24.139	0.220	-0.164
-210.479	437.000	-0.191	0.522
-209.465	89.447	0.229	0.319
-208.450	-42.950	0.321	-0.203
-207.436	-16.590	-0.256	-0.202
-206.421	-17.402	0.103	-0.081
-205.406	-53.883	0.431	0.244
-204.392	8.680	0.204	-0.191
-203.377	259.827	-0.210	0.453
-202.363	21.064	-0.143	0.145
-201.348	465.725	0.043	0.122
-200.333	-168.874	0.310	0.014
-199.319	43.284	-0.312	-0.356
-198.304	161.663	-0.124	-0.218
-197.290	-52.858	-0.429	0.246
-196.275	-200.000	0.024	0.220
-195.260	-52.128	0.135	0.078
-194.246	-145.339	0.427	0.048
-193.231	800.000	0.106	0.495
-192.217	-69.963	0.361	0.171
-191.202	183.730	-0.186	-0.345
-190.187	248.926	-0.064	0.135
-189.173	-16.182	0.107	-0.084
-188.158	-200.000	0.045	-0.584
-187.144	-10.361	-0.360	0.297
-186.129	68.469	-0.093	0.119
-185.114	107.150	0.205	-0.304
-184.100	-200.000	0.054	0.366
-183.085	-77.237	-0.300	0.130
-182.071	-114.165	-0.361	0.086
-181.056	169.780	-0.022	-0.039
-180.042	-186.161	-0.280	-0.005
-179.027	800.000	-0.032	0.120
-178.012	187.254	0.077	-0.144
-176.998	-78.790	-0.348	0.147
-175.983	-200.000	0.008	-0.158
-174.969	-69.546	-0.415	-0.197
-173.954	-200.000	-0.028	-0.167
-172.939	-85.010	-0.416	-0.162
-171.925	50.299	0.312	-0.368
-170.910	123.252	-0.170	0.267
-169.896	-47.037	-0.335	0.203
-168.881	505.482	0.062	0.179
-167.866	-52.062	-0.419	-0.242
-166.852	243.602	-0.181	-0.380
-165.837	77.543	0.225	0.299
-164.823	140.618	0.313	0.516
-163.808	98.174	0.126	0.181
-162.793	91.575	-0.069	-0.097
-161.779	800.000	0.056	0.227
-160.764	12.664	0.422	0.406
-159.750	376.412	-0.045	0.115
-158.735	-17.960	0.109	-0.085
-157.720	-200.000	0.026	-0.320
-156.706	-82.355	-0.266	-0.107
-155.691	-42.281	-0.332	0.211
-154.677	304.996	0.106	0.247
-153.662	172.922	-0.214	0.385
-152.647	-76.227	0.156	0.068
-151.633	72.703	0.133	-0.173
-150.618	47.999	-0.059	-0.068
-149.604	-200.000	0.016	0.168
-148.589	170.459	0.180	0.322
-147.574	-169.066	0.219	0.010
-146.560	39.762	0.133	0.149
-145.545	-102.002	0.218	-0.065
-144.531	-42.071	0.355	-0.225
-143.516	262.199	0.215	-0.466
-142.502	315.297	0.035	0.082
-141.487	-46.729	-0.186	0.113
-140.472	16.834	0.130	0.128
-139.458	-61.751	-0.435	0.226
-138.443	-200.000	-0.087	0.547
-137.429	-126.107	0.674	0.125
-136.414	90.528	0.082	0.114
-135.399	-200.000	0.003	-0.145
-134.385	212.109	0.065	0.128
-133.370	-84.138	0.096	-0.038
-132.356	-200.000	-0.002	-0.218
-131.341	266.594	-0.177	0.387
-130.326	-200.000	-0.029	0.338
-129.312	800.000	-0.145	-0.565
-128.297	-155.499	0.333	0.026
-127.283	201.622	0.236	0.454
-126.268	63.390	0.130	-0.163
-125.253	-43.326	-0.324	-0.203
-124.239	0.203	0.109	-0.097
-123.224	20.594	0.164	-0.165
-122.210	-200.000	0.011	-0.114
-121.195	-27.541	-0.109	-0.078
-120.180	33.242	0.158	0.171
-119.166	-200.000	0.013	0.715
-118.151	534.606	0.110	-0.327
-117.137	9.126	0.096	-0.090
-116.122	47.978	0.271	0.315
-115.107	-200.000	0.033	0.432
-114.093	-166.307	0.268	-0.014
-113.078	31.758	-0.147	-0.158
-112.064	283.665	0.036	-0.081
-111.049	-4.624	-0.167	0.143
-110.034	-116.973	-0.245	-0.055
-109.020	800.000	0.028	0.148
-108.005	249.942	0.222	0.470
-106.991	-91.988	-0.367	0.128
-105.976	93.187	-0.167	-0.235
-104.962	-51.577	-0.291	0.168
-103.947	-173.741	0.118	0.004
-102.932	9.258	-0.051	-0.048
-101.918	-79.421	-0.426	0.178
-100.903	28.138	-0.158	-0.166
-99.889	221.446	0.138	-0.276
-98.874	-5.388	0.159	0.136
-97.859	-139.726	0.366	0.048
-96.845	-60.719	0.373	0.196
-95.830	-25.660	-0.187	0.137
-94.816	-94.369	-0.098	0.033
-93.801	10.497	0.195	0.185
-92.786	-78.107	0.554	0.236
-91.772	43.679	0.328	0.374
-90.757	129.220	0.125	0.198
-89.743	-94.590	0.068	0.023
-88.728	-60.166	0.450	0.238
-87.713	-90.841	0.220	-0.078
-86.699	-131.259	-0.232	0.038
-85.684	-92.489	-0.157	-0.054
-84.670	-48.637	-0.401	0.239
-83.655	555.902	0.089	-0.269
-82.640	-59.321	-0.225	-0.120
-81.626	-113.652	-0.385	-0.093
-80.611	-168.067	-0.410	0.020
-79.597	483.791	-0.054	0.153
-78.582	-200.000	-0.037	0.275
-77.567	-38.190	0.343	-0.225
-76.553	-160.449	-0.185	0.012
-75.538	90.960	-0.095	-0.133
-74.524	-20.120	-0.306	0.234
-73.509	-164.387	-0.454	0.025
-72.494	-17.842	-0.130	-0.101
-71.480	-186.678	0.443	0.008
-70.465	-16.102	0.311	-0.245
-69.451	-200.000	-0.001	-0.079
-68.436	-145.232	-0.082	-0.009
-67.422	1.533	-0.273	-0.244
-66.407	-162.986	-0.502	0.030
-65.392	-197.610	-0.667	0.005
-64.378	-133.771	0.402	0.062
-63.363	-103.991	0.112	-0.032
-62.349	353.314	-0.124	-0.306
-61.334	-40.907	-1.256	-0.804
-60.319	-200.000	0.049	0.554
-59.305	585.121	-1.861	-5.709
-58.290	-8.237	2.440	2.036
-57.276	482.732	3.534	10.018
-56.261	-200.000	11.840	193.706
-55.246	522.205	1099.512	3220.308
-54.232	69.976	2742.511	3514.580
-53.217	74.177	2694.275	3513.877
-52.203	70.436	2427.653	3116.905
-51.188	44.350	2072.299	2361.416
-50.173	42.101	1935.982	2181.402
-49.159	39.792	1925.384	2144.197
-48.144	39.377	1920.812	2134.502
-47.130	39.270	1918.293	2130.457
-46.115	39.195	1916.285	2127.324
-45.100	39.159	1915.133	2125.566
-44.086	39.144	1914.130	2124.205
-43.071	39.036	1912.885	2121.568
-42.057	39.025	1911.534	2119.869
-41.042	38.984	1910.255	2117.914
-40.027	38.988	1909.200	2116.707
-39.013	38.999	1907.176	2114.504
-37.998	38.943	1905.840	2112.323
-36.984	38.929	1904.733	2110.865
-35.969	38.897	1902.811	2108.308
-34.954	39.009	1901.831	2108.347
-33.940	38.944	1900.880	2106.510
-32.925	38.935	1899.421	2104.706
-31.911	38.993	1898.255	2103.960
-30.896	38.853	1897.692	2101.747
-29.881	38.952	1895.485	2100.278
-28.867	38.905	1893.951	2097.994
-27.852	38.850	1892.600	2095.826
-26.838	38.712	1891.644	2093.196
-25.823	38.821	1889.931	2092.394
-24.809	38.730	1888.869	2090.159
-23.794	38.855	1886.719	2089.028
-22.779	38.809	1885.982	2087.636
-21.765	38.803	1884.664	2086.035
-20.750	38.782	1883.305	2084.224
-19.736	38.847	1882.000	2083.392
-18.721	38.751	1881.262	2081.461
-17.706	38.768	1880.202	2080.397
-16.692	38.757	1879.584	2079.506
-15.677	38.699	1878.254	2077.335
-14.663	38.762	1876.570	2076.061
-13.648	38.607	1875.273	2072.891
-12.633	38.687	1873.968	2072.222
-11.619	38.591	1872.735	2069.760
-10.604	38.675	1871.313	2068.989
-9.590	38.562	1870.190	2066.469
-8.575	38.552	1868.882	2064.842
-7.560	38.604	1868.380	2064.757
-6.546	38.661	1866.104	2062.756
-5.531	38.551	1865.903	2061.295
-4.517	38.668	1864.859	2061.293
-3.502	38.686	1864.003	2060.454
-2.487	38.805	1862.487	2059.958
-1.473	38.812	1860.002	2057.193
-0.458	38.557	1838.837	2031.052
0.556	33.434	1963.916	2099.620
1.571	31.783	2178.040	2307.842
2.586	33.676	2227.859	2384.289
3.600	33.738	2232.119	2389.348
4.615	34.207	2231.133	2393.945
5.629	33.904	2229.706	2388.291
6.644	34.044	2226.994	2386.873
7.659	34.045	2226.508	2386.077
8.673	34.637	2224.931	2391.555
9.688	33.836	2228.080	2384.552
10.702	29.453	2291.389	2394.981
11.717	25.209	2353.264	2402.368
12.731	12.962	2321.997	2206.475
13.746	2.126	2293.516	2034.624
14.761	0.535	2288.827	2008.959
15.775	0.345	2286.669	2004.286
16.790	0.267	2285.270	2001.779
17.804	0.348	2282.411	2000.114
18.819	0.277	2282.255	1998.790
19.834	0.286	2280.558	1997.183
20.848	0.210	2279.890	1995.347
21.863	0.268	2278.381	1994.554
22.877	0.229	2276.003	1991.713
23.892	0.271	2273.835	1990.134
24.907	0.261	2271.656	1987.862
25.921	0.244	2270.157	1986.092
26.936	0.177	2268.701	1983.688
27.950	0.206	2265.505	1981.037
28.965	0.228	2263.205	1979.074
29.980	0.253	2261.845	1977.985
30.994	0.435	2260.599	1979.055
32.009	6.610	2281.004	2078.673
33.023	21.614	2323.787	2318.553
34.038	28.903	2340.777	2432.553
35.053	30.376	2342.138	2453.260
36.067	30.537	2338.331	2451.111
37.082	29.961	2336.380	2441.140
38.096	29.901	2333.944	2437.518
39.111	30.409	2333.010	2442.963
40.126	31.233	2333.358	2453.926
41.140	31.915	2333.255	2462.525
42.155	31.313	2329.832	2450.685
43.169	30.968	2328.106	2444.039
44.184	31.442	2326.415	2448.210
45.199	31.509	2325.300	2447.625
46.213	31.209	2323.186	2441.162
47.228	31.054	2321.247	2436.789
48.242	30.976	2319.215	2433.342
49.257	31.126	2317.523	2433.249
50.271	31.572	2315.447	2436.611
51.286	31.371	2313.485	2431.628
52.301	30.877	2310.900	2422.170
53.315	31.260	2311.598	2427.617
54.330	32.288	2313.918	2443.197
55.344	32.519	2310.826	2442.645
56.359	32.690	2308.087	2441.695
57.374	32.342	2305.629	2434.265
58.388	32.072	2301.822	2426.449
59.403	32.294	2299.818	2426.929
60.417	32.636	2298.399	2429.579
61.432	33.123	2296.308	2433.382
62.447	32.554	2295.046	2424.388
63.461	32.269	2292.419	2417.645
64.476	32.274	2288.826	2413.622
65.490	32.938	2289.711	2422.836
66.505	33.287	2289.270	2426.586
67.520	32.415	2284.032	2409.525
68.534	30.284	2276.127	2373.527
69.549	29.656	2270.765	2359.595
70.563	29.659	2268.420	2356.912
71.578	29.797	2267.735	2357.689
72.593	30.121	2266.366	2360.133
73.607	30.392	2266.337	2363.291
74.622	30.292	2264.259	2359.557
75.636	30.022	2259.830	2351.222
76.651	29.831	2258.613	2347.237
77.666	29.950	2256.422	2346.191
78.680	29.928	2254.369	2343.496
79.695	30.032	2253.093	2343.214
80.709	30.048	2251.992	2341.994
81.724	30.075	2250.466	2340.467
82.739	30.083	2248.316	2338.052
83.753	30.175	2246.423	2336.966
84.768	30.044	2244.199	2332.716
85.782	29.856	2242.219	2328.001
86.797	29.876	2240.216	2325.898
87.812	29.731	2237.794	2321.274
88.826	29.621	2236.537	2318.299
89.841	29.761	2233.898	2317.058
90.855	30.123	2232.758	2320.149
91.870	29.745	2230.151	2312.411
92.884	29.653	2227.816	2308.565
93.899	30.059	2227.611	2313.169
94.914	30.183	2229.444	2316.349
95.928	31.088	2231.331	2329.395
96.943	31.673	2230.767	2335.875
97.957	30.748	2224.698	2317.670
98.972	30.043	2220.349	2304.048
99.987	29.608	2216.573	2294.425
101.001	29.670	2214.595	2292.875
102.016	29.820	2211.647	2291.413
103.030	29.839	2210.125	2289.794
104.045	30.000	2208.715	2290.071
105.060	30.409	2207.364	2293.474
106.074	30.378	2205.283	2290.644
107.089	30.024	2202.455	2283.056
108.103	29.811	2202.355	2280.040
109.118	30.000	2201.327	2281.044
110.133	30.070	2199.773	2280.025
111.147	29.977	2196.685	2275.397
112.162	29.846	2195.286	2272.057
113.176	29.901	2193.639	2270.760
114.191	30.026	2191.371	2269.681
115.206	29.980	2190.603	2268.045
116.220	30.030	2187.620	2265.310
117.235	29.872	2185.264	2260.657
118.249	29.811	2184.286	2258.619
119.264	30.033	2182.931	2259.680
120.279	30.169	2180.686	2258.746
121.293	30.124	2179.402	2256.599
122.308	30.014	2177.953	2253.480
123.322	29.719	2176.515	2248.121
124.337	29.731	2175.541	2246.992
125.352	31.408	2180.640	2272.502
126.366	32.523	2181.220	2286.449
127.381	30.907	2172.562	2257.439
128.395	29.949	2167.703	2240.471
129.410	30.035	2166.493	2239.994
130.424	30.072	2164.434	2238.046
131.439	30.045	2162.510	2235.467
132.454	29.952	2160.587	2232.087
133.468	30.015	2159.239	2231.181
134.483	30.205	2157.905	2231.841
135.497	30.311	2156.525	2231.424
136.512	30.449	2154.403	2230.625
137.527	30.281	2153.309	2227.203
138.541	29.856	2150.599	2219.004
139.556	29.584	2149.416	2214.252
140.570	29.663	2147.719	2213.189
141.585	29.756	2145.886	2212.152
142.600	29.943	2144.974	2213.196
143.614	29.919	2143.427	2211.043
144.629	30.274	2142.018	2213.577
145.643	30.083	2139.746	2208.687
146.658	29.964	2138.129	2205.323
147.673	29.700	2136.049	2199.756
148.687	29.783	2135.745	2200.177
149.702	29.996	2134.609	2201.281
150.716	30.101	2132.977	2200.595
151.731	30.057	2132.334	2199.144
152.746	30.284	2131.284	2200.504
153.760	30.030	2130.075	2195.956
154.775	30.689	2131.807	2205.338
155.789	31.330	2130.816	2211.682
156.804	30.354	2125.121	2193.922
157.819	29.766	2120.150	2181.549
158.833	29.619	2118.393	2177.742
159.848	29.976	2117.022	2180.295
160.862	30.311	2116.437	2183.393
161.877	30.503	2116.301	2185.260
162.892	30.827	2115.328	2187.828
163.906	31.119	2113.808	2189.439
164.921	31.102	2112.383	2187.496
165.935	31.011	2109.213	2182.879
166.950	30.784	2107.120	2177.783
167.964	30.332	2104.884	2169.900
168.979	30.083	2102.501	2164.266
169.994	30.188	2100.430	2163.105
171.008	30.121	2098.371	2159.945
172.023	29.838	2097.834	2155.812
173.037	29.996	2097.475	2157.041
174.052	30.238	2095.682	2157.764
175.067	30.105	2094.426	2154.666
176.081	29.998	2092.161	2150.821
177.096	29.974	2090.916	2149.002
178.110	29.947	2089.138	2146.608
179.125	29.894	2088.210	2144.782
180.140	30.102	2087.602	2146.321
181.154	30.198	2085.307	2144.818
182.169	30.164	2084.906	2143.753
183.183	30.407	2085.388	2146.816
184.198	32.025	2087.497	2167.532
185.213	31.950	2084.068	2162.848
186.227	30.800	2078.657	2143.667
187.242	30.112	2075.766	2132.483
188.256	29.863	2073.801	2127.328
189.271	29.865	2073.338	2126.620
190.286	30.093	2071.855	2127.481
191.300	30.001	2068.685	2122.911
192.315	29.981	2066.842	2120.526
193.329	30.255	2066.611	2123.192
194.344	30.727	2065.979	2127.716
195.359	30.803	2065.513	2127.850
196.373	30.974	2063.002	2126.975
197.388	30.639	2060.802	2120.613
198.402	30.418	2058.184	2115.134
199.417	30.291	2056.209	2111.394
200.432	30.401	2055.204	2111.374
201.446	30.376	2053.889	2109.480
202.461	30.228	2051.044	2104.624
203.475	30.010	2049.046	2099.837
204.490	29.932	2046.488	2096.071
205.504	30.113	2045.113	2096.471
206.519	30.046	2042.347	2092.627
207.534	30.152	2040.478	2091.663
208.548	30.352	2039.901	2093.093
209.563	29.824	2037.788	2084.685
210.577	29.974	2037.016	2085.355
211.592	30.442	2037.765	2091.163
212.607	30.406	2038.263	2091.022
213.621	29.909	2036.879	2083.725
214.636	30.181	2034.766	2084.383
215.650	30.168	2032.517	2081.685
216.665	30.256	2030.524	2080.395
217.680	30.369	2029.729	2080.597
218.694	30.401	2027.608	2078.541
219.709	30.139	2026.305	2073.999
220.723	30.385	2026.368	2076.589
221.738	30.820	2024.489	2079.294
222.753	30.800	2021.926	2076.191
223.767	30.396	2019.812	2069.248
224.782	30.234	2017.414	2064.730
225.796	30.224	2015.595	2062.510
226.811	30.475	2015.509	2064.976
227.826	30.676	2014.202	2065.633
228.840	30.661	2011.417	2062.363
229.855	30.367	2010.248	2057.650
230.869	30.053	2007.890	2051.498
231.884	29.778	2005.522	2045.766
232.899	29.891	2005.541	2046.804
233.913	30.282	2004.771	2050.116
234.928	30.416	2004.283	2050.860
235.942	30.361	2002.029	2047.697
236.957	30.421	2000.618	2046.673
237.972	30.223	1999.573	2043.165
238.986	30.186	1998.110	2041.017
240.001	30.000	1995.749	2036.303
241.015	29.833	1994.028	2032.464
242.030	30.345	1995.676	2039.558
243.045	31.855	1999.578	2059.988
244.059	32.678	1997.960	2067.149
245.074	31.281	1991.271	2044.626
246.088	30.204	1986.242	2027.388
247.103	30.332	1984.609	2026.883
248.117	30.473	1984.788	2028.370
249.132	30.422	1982.767	2025.502
250.147	30.193	1980.502	2020.440
251.161	30.060	1978.772	2016.982
252.176	30.401	1976.818	2018.478
253.190	30.179	1975.503	2014.468
254.205	30.150	1973.146	2011.509
255.220	30.319	1972.146	2012.091
256.234	30.225	1971.657	2010.319
257.249	30.113	1969.708	2006.876
258.263	30.271	1968.952	2007.582
259.278	30.337	1968.778	2007.878
260.293	30.531	1966.077	2006.991
261.307	30.289	1964.171	2002.182
262.322	30.287	1963.249	2000.989
263.336	29.874	1961.204	1994.185
264.351	29.674	1958.961	1989.503
265.366	29.760	1958.051	1989.271
266.380	29.938	1958.321	1991.228
267.395	29.774	1955.505	1986.365
268.409	29.794	1953.165	1983.962
269.424	30.184	1953.319	1988.087
270.439	30.374	1952.730	1989.294
271.453	30.706	1953.097	1993.000
272.468	31.916	1953.619	2006.316
273.482	31.694	1951.207	2001.221
274.497	30.550	1944.962	1982.322
275.512	30.103	1942.302	1974.584
276.526	30.042	1940.198	1971.553
277.541	30.022	1938.036	1968.914
278.555	29.977	1936.140	1966.270
279.570	29.774	1934.385	1962.086
280.585	29.604	1932.803	1958.435
281.599	29.587	1932.222	1957.425
282.614	30.130	1931.303	1962.048
283.628	30.653	1931.208	1967.271
284.643	30.735	1931.111	1967.816
285.657	30.797	1929.209	1966.291
286.672	30.674	1927.607	1963.127
287.687	30.561	1925.322	1959.365
288.701	30.209	1923.982	1954.042
289.716	30.228	1921.462	1951.445
290.730	30.469	1921.435	1953.733
291.745	30.650	1920.084	1954.042
292.760	30.588	1918.603	1951.641
293.774	30.177	1917.666	1946.115
294.789	30.388	1917.449	1947.888
295.803	30.590	1914.929	1947.229
296.818	30.517	1913.375	1944.640
297.833	30.504	1912.879	1943.768
298.847	30.499	1911.605	1942.188
299.862	30.551	1910.313	1941.192
300.876	30.807	1909.844	1943.168
301.891	32.148	1911.995	1959.200
302.906	32.107	1909.680	1956.163
303.920	30.956	1906.128	1940.249
304.935	30.549	1902.234	1931.801
305.949	30.511	1900.466	1929.376
306.964	30.965	1899.459	1932.860
307.979	30.839	1897.078	1928.898
308.993	30.001	1893.507	1916.326
310.008	29.850	1892.965	1913.972
311.022	30.329	1892.821	1918.575
312.037	30.575	1891.385	1919.448
313.052	30.398	1888.916	1914.876
314.066	30.223	1887.025	1910.921
315.081	30.282	1886.475	1910.741
316.095	30.281	1885.795	1909.811
317.110	30.230	1883.362	1906.598
318.125	30.101	1881.922	1903.578
319.139	30.125	1879.737	1901.392
320.154	30.233	1879.071	1901.595
321.168	30.243	1877.692	1900.079
322.183	30.281	1877.111	1899.655
323.197	30.418	1876.336	1900.051
324.212	30.672	1873.893	1899.960
325.227	30.247	1873.080	1894.546
326.241	30.153	1870.571	1890.820
327.256	30.189	1869.670	1890.044
328.270	30.081	1868.305	1887.334
329.285	30.317	1867.493	1888.706
330.300	30.595	1868.683	1892.529
331.314	31.296	1868.915	1899.706
332.329	31.685	1867.705	1902.216
333.343	30.973	1863.230	1890.182
334.358	30.484	1860.348	1882.047
335.373	30.534	1859.191	1881.164
336.387	30.737	1856.700	1880.483
337.402	30.430	1855.849	1876.280
338.416	30.452	1853.938	1874.345
339.431	30.472	1852.816	1873.193
340.446	30.837	1851.853	1875.691
341.460	30.763	1850.076	1872.915
342.475	30.905	1848.093	1872.122
343.489	30.405	1845.844	1864.572
344.504	30.019	1845.336	1859.937
345.519	30.318	1842.956	1860.327
346.533	30.391	1841.476	1859.353
347.548	30.223	1840.805	1856.756
348.562	30.174	1839.649	1854.880
349.577	30.533	1838.990	1857.595
350.592	30.767	1838.182	1858.909
351.606	30.791	1837.313	1858.045
352.621	30.926	1835.507	1857.347
353.635	30.511	1833.953	1851.400
354.650	30.186	1831.723	1845.680
355.665	30.124	1829.980	1843.077
356.679	30.240	1829.275	1843.307
357.694	30.295	1828.158	1842.509
358.708	30.467	1827.313	1843.155
359.723	30.767	1827.770	1846.385
360.738	31.371	1827.447	1851.861
361.752	31.175	1825.910	1848.126
362.767	30.744	1822.039	1839.710
363.781	30.554	1819.431	1834.969
364.796	30.606	1818.132	1833.957
365.810	30.429	1816.752	1830.587
366.825	30.139	1814.849	1825.586
367.840	30.226	1812.793	1824.157
368.854	30.042	1811.528	1820.847
369.869	30.031	1810.288	1819.274
370.883	29.965	1809.466	1817.584
371.898	29.926	1808.824	1816.337
372.913	30.202	1807.370	1817.373
373.927	30.260	1805.624	1815.974
374.942	30.261	1805.524	1815.667
375.956	30.376	1803.932	1814.975
376.971	30.109	1801.016	1809.208
377.986	30.076	1800.056	1807.703
379.000	30.494	1799.345	1810.866
380.015	30.621	1797.971	1810.507
381.029	30.620	1796.614	1808.919
382.044	30.661	1796.120	1808.602
383.059	30.776	1793.863	1807.241
384.073	30.352	1792.207	1801.220
385.088	30.285	1790.852	1798.988
386.102	30.351	1790.606	1799.172
387.117	30.644	1789.142	1800.335
388.132	30.645	1789.166	1800.147
389.146	30.739	1789.215	1800.899
390.161	31.235	1788.200	1804.482
391.175	31.534	1785.579	1804.522
392.190	30.868	1780.980	1793.215
393.205	30.527	1778.408	1787.117
394.219	30.566	1776.041	1784.898
395.234	30.141	1775.008	1779.543
396.248	30.062	1773.037	1776.595
397.263	29.939	1770.354	1772.513
398.278	29.932	1768.623	1770.501
399.292	29.784	1768.684	1768.930
400.307	30.490	1769.094	1775.912
401.321	30.592	1767.616	1775.197
402.336	30.566	1766.152	1773.263
403.350	30.457	1764.616	1770.461
404.365	30.486	1763.791	1769.702
405.380	30.815	1761.955	1770.795
406.394	30.593	1760.836	1767.335
407.409	30.230	1759.892	1762.705
408.423	30.246	1757.690	1760.443
409.438	30.268	1756.951	1759.702
410.453	30.375	1755.575	1759.133
411.467	30.396	1754.514	1758.061
412.482	30.192	1753.150	1754.543
413.496	30.303	1752.658	1754.898
414.511	30.552	1751.181	1755.569
415.526	30.372	1749.141	1751.610
416.540	30.678	1747.364	1752.516
417.555	30.675	1745.798	1750.707
418.569	30.417	1746.001	1748.266
419.584	30.645	1746.006	1750.217
420.599	30.472	1744.650	1747.011
421.613	30.123	1742.337	1741.188
422.628	30.054	1741.769	1739.762
423.642	30.515	1741.290	1743.429
424.657	30.589	1738.249	1740.870
425.672	30.060	1736.644	1734.075
426.686	30.249	1736.385	1735.387
427.701	30.424	1735.269	1735.711
428.715	30.919	1734.547	1739.430
429.730	31.397	1734.126	1743.279
430.745	31.673	1733.597	1745.126
431.759	31.714	1732.799	1744.490
432.774	30.989	1729.854	1734.547
433.788	28.979	1724.434	1710.137
434.803	27.610	1721.496	1694.240
435.818	27.385	1720.647	1691.108
436.832	27.410	1719.793	1690.298
437.847	26.613	1713.440	1676.434
438.861	17.492	1685.140	1564.672
439.876	4.119	1661.051	1419.620
440.890	0.627	1654.786	1382.018
441.905	0.384	1653.161	1378.262
442.920	0.330	1651.524	1376.235
443.934	0.345	1650.474	1375.337
444.949	0.225	1649.583	1373.327
445.963	0.272	1649.023	1373.132
446.978	0.183	1648.277	1371.529
447.993	0.280	1646.923	1371.129
449.007	0.249	1644.877	1368.977
450.022	0.284	1642.701	1367.317
451.036	0.337	1641.732	1366.830
452.051	1.432	1647.421	1381.412
453.066	12.331	1673.403	1503.789
454.080	24.687	1693.925	1636.469
455.095	28.578	1701.105	1679.075
456.109	31.440	1706.003	1710.072
457.124	32.526	1706.516	1720.355
458.139	31.611	1703.279	1708.497
459.153	30.697	1701.061	1697.686
460.168	30.730	1698.940	1695.671
461.182	30.737	1697.898	1694.491
462.197	30.981	1696.779	1695.407
463.212	30.844	1694.298	1691.472
464.226	31.007	1693.182	1691.644
465.241	31.282	1693.348	1694.114
466.255	31.508	1692.245	1694.869
467.270	31.444	1691.091	1692.924
468.285	31.237	1689.819	1689.567
469.299	31.365	1689.156	1689.869
470.314	31.777	1687.674	1691.916
471.328	31.927	1685.710	1691.111
472.343	32.040	1685.454	1691.672
473.358	32.028	1684.597	1690.498
474.372	32.194	1683.084	1690.282
475.387	32.575	1682.703	1693.142
476.401	32.605	1681.368	1691.865
477.416	32.179	1679.694	1686.133
478.430	32.417	1679.122	1687.510
479.445	32.626	1677.991	1688.051
480.460	32.336	1676.167	1683.401
481.474	32.321	1675.908	1682.811
482.489	32.431	1675.515	1683.203
483.503	32.423	1672.297	1679.694
484.518	32.159	1670.657	1675.482
485.533	32.504	1670.145	1677.856
486.547	32.652	1669.221	1678.053
487.562	32.516	1668.067	1675.476
488.576	32.901	1667.471	1678.118
489.591	33.253	1666.477	1680.061
490.606	33.177	1665.412	1678.101
491.620	33.057	1663.349	1674.755
492.635	33.128	1660.906	1672.725
493.649	32.515	1659.228	1665.387
494.664	31.940	1657.429	1658.278
495.679	31.672	1655.071	1653.338
496.693	31.827	1653.029	1652.476
497.708	31.918	1653.433	1653.490
498.722	32.141	1652.533	1654.364
499.737	32.287	1651.213	1654.135
500.752	32.035	1649.972	1650.468
501.766	31.825	1648.481	1646.924
502.781	31.868	1646.303	1644.931
503.795	31.983	1644.662	1644.112
504.810	31.818	1643.853	1641.654
505.825	32.025	1642.684	1642.104
506.839	31.759	1641.987	1638.874
507.854	31.560	1640.794	1635.737
508.868	31.662	1638.745	1634.399
509.883	31.366	1637.377	1630.244
510.898	31.322	1635.410	1627.700
511.912	31.146	1633.260	1623.829
512.927	31.004	1630.835	1619.986
513.941	30.826	1630.717	1618.117
514.956	31.590	1630.880	1624.756
515.971	32.682	1631.276	1634.483
516.985	32.204	1628.811	1627.654
518.000	31.398	1626.986	1618.623
519.014	31.241	1625.459	1615.549
520.029	31.221	1623.802	1613.533
521.043	31.290	1622.662	1612.802
522.058	31.137	1621.587	1610.218
523.073	31.104	1620.969	1609.122
524.087	31.327	1619.534	1609.433
525.102	31.374	1618.816	1608.942
526.116	31.570	1617.595	1609.230
527.131	31.716	1616.722	1609.426
528.146	31.850	1616.681	1610.346
529.160	32.038	1615.533	1610.640
530.175	32.050	1615.369	1610.379
531.189	32.214	1614.351	1610.590
532.204	32.373	1612.772	1610.185
533.219	32.357	1611.177	1608.267
534.233	32.265	1610.395	1606.503
535.248	32.191	1609.060	1604.340
536.262	32.436	1608.456	1605.646
537.277	33.071	1608.513	1610.959
538.292	33.266	1607.349	1611.265
539.306	33.311	1605.498	1609.604
540.321	33.033	1603.750	1605.286
541.335	32.569	1602.465	1599.846
542.350	32.919	1601.081	1601.258
543.365	33.278	1600.425	1603.465
544.379	33.607	1599.202	1604.850
545.394	33.366	1597.740	1601.146
546.408	32.793	1594.529	1592.872
547.423	32.337	1592.870	1587.154
548.438	32.065	1592.260	1584.057
549.452	32.384	1591.571	1585.882
550.467	32.579	1590.151	1585.927
551.481	32.353	1588.970	1582.648
552.496	32.404	1588.104	1582.023
553.511	32.471	1586.784	1581.085
554.525	32.409	1585.413	1579.015
555.540	32.164	1584.199	1575.543
556.554	32.136	1582.927	1573.854
557.569	32.062	1581.116	1571.246
558.583	31.897	1579.420	1567.986
559.598	31.929	1578.434	1567.088
560.613	32.024	1577.488	1566.756
561.627	31.886	1576.239	1564.171
562.642	31.613	1574.682	1560.156
563.656	31.368	1572.367	1555.627
564.671	31.221	1571.464	1553.314
565.686	31.238	1570.410	1552.233
566.700	31.217	1569.246	1550.719
567.715	31.182	1567.764	1548.779
568.729	31.674	1566.940	1551.881
569.744	32.480	1566.835	1558.301
570.759	32.793	1565.385	1559.268
571.773	32.133	1564.201	1552.420
572.788	31.885	1562.757	1548.741
573.802	31.501	1560.089	1542.729
574.817	31.381	1558.361	1539.849
575.832	31.194	1557.878	1537.636
576.846	31.488	1557.022	1539.042
577.861	31.953	1555.240	1540.930
578.875	31.844	1554.994	1539.603
579.890	31.962	1554.293	1539.696
580.905	32.053	1554.103	1540.076
581.919	32.109	1553.468	1539.727
582.934	32.327	1552.748	1540.626
583.948	32.314	1551.351	1538.943
584.963	32.281	1550.163	1537.309
585.978	32.407	1548.741	1536.755
586.992	32.341	1548.056	1535.343
588.007	32.582	1548.117	1537.200
589.021	32.526	1546.475	1534.927
590.036	31.897	1544.193	1527.334
591.051	32.474	1543.245	1530.933
592.065	32.822	1541.794	1532.147
593.080	33.021	1540.900	1532.702
594.094	33.307	1539.801	1533.749
595.109	32.760	1538.063	1527.383
596.123	32.492	1536.233	1523.208
597.138	32.632	1535.367	1523.307
598.153	32.593	1534.645	1522.088
599.167	32.649	1532.524	1520.259
600.182	32.660	1531.380	1519.026
601.196	32.514	1531.235	1517.517
602.211	32.588	1529.348	1516.072
603.226	32.406	1527.906	1512.986
604.240	32.424	1526.820	1511.879
605.255	32.375	1525.993	1510.477
606.269	32.225	1524.382	1507.498
607.284	32.128	1522.676	1504.845
608.299	32.077	1521.458	1503.048
609.313	31.924	1520.687	1500.876
610.328	31.930	1518.368	1498.458
611.342	31.846	1516.831	1496.090
612.357	31.695	1516.173	1494.048
613.372	31.799	1515.067	1493.618
614.386	31.571	1514.555	1491.109
615.401	31.571	1513.667	1490.054
616.415	31.501	1511.760	1487.442
617.430	31.241	1510.349	1483.799
618.445	31.200	1508.220	1481.202
619.459	31.189	1507.846	1480.563
620.474	31.388	1507.392	1481.533
621.488	32.092	1507.296	1486.863
622.503	32.938	1507.386	1493.506
623.518	32.321	1505.193	1486.254
624.532	31.455	1502.764	1476.803
625.547	31.058	1501.509	1472.249
626.561	31.102	1500.347	1471.279
627.576	30.792	1499.742	1468.055
628.591	31.418	1499.558	1472.653
629.605	32.066	1498.784	1476.844
630.620	32.595	1498.787	1480.850
631.634	33.338	1498.978	1486.731
632.649	33.265	1498.314	1485.318
633.663	32.611	1494.731	1476.443
634.678	31.702	1492.070	1466.483
635.693	31.187	1489.351	1459.593
636.707	31.117	1486.821	1456.390
637.722	30.848	1486.154	1453.447
638.736	31.096	1486.038	1455.103
639.751	31.442	1485.390	1457.008
640.766	31.468	1484.149	1455.818
641.780	31.511	1482.089	1453.962
642.795	31.571	1482.126	1454.296
643.809	31.720	1482.137	1455.294
644.824	31.899	1481.912	1456.294
645.839	32.078	1481.831	1457.436
646.853	32.254	1479.818	1456.657
647.868	32.074	1478.445	1453.730
648.882	32.234	1477.515	1453.887
649.897	32.375	1476.438	1453.747
650.912	32.413	1474.797	1452.254
651.926	32.427	1474.027	1451.429
652.941	32.465	1473.159	1450.696
653.955	32.303	1471.255	1447.392
654.970	31.833	1468.641	1441.017
655.985	31.545	1466.406	1436.426
656.999	31.279	1464.889	1432.720
658.014	31.343	1463.926	1432.096
659.028	31.797	1463.766	1435.264
660.043	32.402	1464.033	1440.011
661.058	32.640	1462.795	1440.451
662.072	32.454	1462.775	1438.831
663.087	32.466	1461.250	1437.250
664.101	32.298	1460.196	1434.751
665.116	32.274	1458.682	1432.911
666.131	32.224	1457.085	1430.791
667.145	32.213	1455.501	1428.977
668.160	31.965	1454.130	1425.566
669.174	31.827	1452.379	1422.624
670.189	31.830	1451.728	1421.845
671.204	31.931	1451.295	1422.017
672.218	31.867	1450.506	1420.585
673.233	31.804	1449.707	1419.150
674.247	31.648	1447.800	1415.933
675.262	31.500	1446.629	1413.491
676.276	31.519	1445.309	1412.179
677.291	31.358	1444.643	1410.134
678.306	31.792	1443.401	1412.046
679.320	31.649	1442.070	1409.492
680.335	31.286	1440.883	1405.416
681.349	31.277	1440.291	1404.603
682.364	31.271	1439.649	1403.764
683.379	31.014	1437.889	1399.939
684.393	31.040	1436.012	1398.141
685.408	31.030	1434.974	1396.887
686.422	31.038	1434.510	1396.327
687.437	30.775	1432.925	1392.641
688.452	30.502	1432.082	1389.602
689.466	30.514	1430.071	1387.575
690.481	30.794	1428.855	1388.326
691.495	31.136	1429.817	1391.661
692.510	32.255	1430.585	1400.633
693.525	33.280	1430.131	1407.690
694.539	32.673	1427.713	1400.605
695.554	31.414	1425.102	1388.485
696.568	30.725	1423.070	1381.199
697.583	30.309	1422.228	1377.115
698.598	30.624	1421.699	1378.783
699.612	30.680	1419.990	1377.378
700.627	30.729	1418.815	1376.437
701.641	31.008	1418.528	1378.068
702.656	31.134	1417.419	1377.760
703.671	31.280	1416.594	1377.881
704.685	31.112	1416.718	1376.587
705.700	31.539	1415.586	1378.486
706.714	31.816	1414.277	1379.094
707.729	31.927	1413.191	1378.691
708.744	31.944	1412.376	1377.855
709.758	31.829	1411.010	1375.511
710.773	31.207	1409.073	1368.875
711.787	30.978	1407.499	1365.494
712.802	31.628	1406.405	1369.051
713.816	31.784	1406.724	1370.350
714.831	31.825	1405.471	1369.264
715.846	31.774	1404.204	1367.490
716.860	31.637	1402.493	1364.657
717.875	31.585	1401.841	1363.475
718.889	31.623	1400.842	1362.624
719.904	31.666	1399.212	1361.186
720.919	31.609	1398.068	1359.497
721.933	31.308	1397.413	1356.496
722.948	31.089	1396.678	1354.026
723.962	31.134	1394.940	1352.509
724.977	31.097	1393.142	1350.333
725.992	31.058	1392.335	1349.102
727.006	31.302	1391.507	1349.916
728.021	31.131	1390.057	1347.105
729.035	31.066	1389.167	1345.612
730.050	30.973	1387.744	1343.398
731.065	30.994	1386.874	1342.543
732.079	30.840	1385.388	1339.835
733.094	30.969	1384.373	1339.621
734.108	31.166	1383.342	1339.887
735.123	30.906	1381.615	1336.176
736.138	30.877	1380.228	1334.473
737.152	30.856	1379.322	1333.284
738.167	30.788	1377.715	1331.083
739.181	30.730	1377.504	1330.301
740.196	30.672	1376.497	1328.749
741.211	30.584	1375.556	1327.053
742.225	30.503	1375.236	1326.007
743.240	30.490	1373.321	1323.905
744.254	30.490	1371.815	1322.297
745.269	30.235	1370.448	1318.998
746.284	30.265	1369.796	1318.428
747.298	30.314	1368.738	1317.598
748.313	30.525	1368.707	1318.920
749.327	31.518	1369.586	1326.693
750.342	32.294	1370.388	1332.842
751.356	33.089	1370.321	1338.280
752.371	32.702	1367.438	1332.552
753.386	31.296	1364.216	1319.283
754.400	30.524	1362.444	1311.933
755.415	30.607	1361.311	1311.274
756.429	30.623	1360.190	1310.151
757.444	30.954	1359.448	1311.620
758.459	30.908	1358.473	1310.196
759.473	30.592	1357.581	1306.946
760.488	30.653	1356.355	1306.039
761.502	30.696	1354.635	1304.531
762.517	30.808	1354.109	1304.656
763.532	31.114	1353.012	1305.598
764.546	31.374	1351.805	1306.102
765.561	30.915	1350.325	1301.297
766.575	30.538	1348.857	1297.083
767.590	30.305	1348.648	1295.088
768.605	30.878	1348.556	1298.865
769.619	31.265	1347.043	1299.964
770.634	31.137	1345.994	1297.901
771.648	30.909	1343.996	1294.226
772.663	30.649	1342.752	1291.060
773.678	30.381	1342.767	1289.048
774.692	30.684	1341.907	1290.179
775.707	30.540	1341.134	1288.279
776.721	30.489	1340.460	1287.124
777.736	30.251	1339.253	1284.156
778.751	30.210	1337.640	1282.169
779.765	30.477	1336.415	1282.693
780.780	30.315	1335.838	1280.865
781.794	30.419	1335.186	1280.804
782.809	30.150	1333.946	1277.601
783.824	29.882	1332.997	1274.680
784.838	30.316	1332.630	1277.184
785.853	31.513	1332.559	1285.237
786.867	31.405	1331.585	1283.397
787.882	30.748	1330.378	1277.547
788.897	30.428	1328.573	1273.456
789.911	30.092	1326.810	1269.299
790.926	29.927	1325.405	1266.669
791.940	29.866	1324.535	1265.270
792.955	29.720	1323.419	1263.049
793.969	29.633	1322.123	1261.066
794.984	29.800	1321.494	1261.456
795.999	30.036	1319.970	1261.469
797.013	30.057	1318.399	1259.957
798.028	30.018	1317.133	1258.330
799.042	30.022	1316.680	1257.776
800.057	30.040	1315.604	1256.719
801.072	30.137	1314.049	1255.745
802.086	30.224	1312.934	1255.117
803.101	30.153	1311.885	1253.487
804.115	30.063	1312.012	1252.847
805.130	30.175	1310.849	1252.343
806.145	30.156	1309.417	1250.698
807.159	30.182	1308.048	1249.419
808.174	30.368	1307.487	1249.993
809.188	30.481	1306.764	1249.914
810.203	30.478	1305.208	1248.254
811.218	30.367	1304.176	1246.372
812.232	30.217	1302.800	1243.895
813.247	30.056	1302.073	1241.969
814.261	30.264	1301.233	1242.415
815.276	30.447	1300.208	1242.518
816.291	30.250	1298.799	1239.704
817.305	30.082	1297.471	1237.156
818.320	30.031	1295.955	1235.221
819.334	30.053	1294.989	1234.299
820.349	30.182	1293.604	1233.696
821.364	29.965	1292.116	1230.682
822.378	29.936	1290.772	1229.061
823.393	29.965	1288.814	1227.239
824.407	29.865	1287.422	1225.106
825.422	29.828	1287.204	1224.504
826.437	29.692	1287.097	1223.347
827.451	29.694	1285.994	1222.166
828.466	30.534	1286.118	1227.718
829.480	31.543	1284.320	1232.541
830.495	30.943	1281.187	1225.423
831.509	30.171	1279.824	1218.873
832.524	29.624	1279.134	1214.457
833.539	29.588	1278.506	1213.478
834.553	29.524	1277.003	1211.484
835.568	29.722	1275.427	1211.146
836.582	29.702	1275.069	1210.531
837.597	29.889	1273.858	1210.465
838.612	29.818	1271.870	1207.971
839.626	29.951	1270.771	1207.652
840.641	29.991	1270.982	1207.966
841.655	30.069	1270.274	1207.661
842.670	29.982	1269.085	1205.816
843.685	29.825	1267.738	1203.368
844.699	29.836	1266.685	1202.300
845.714	29.841	1265.167	1200.743
846.728	29.708	1264.426	1199.028
847.743	29.742	1263.138	1197.886
848.758	29.714	1261.705	1196.201
849.772	29.716	1260.721	1195.136
850.787	29.657	1259.660	1193.607
851.801	29.577	1258.014	1191.389
852.816	29.565	1256.817	1190.035
853.831	29.549	1255.608	1188.643
854.845	29.655	1254.020	1187.683
855.860	29.614	1252.581	1185.909
856.874	29.773	1252.296	1186.527
857.889	30.005	1252.132	1187.726
858.904	30.672	1251.585	1191.360
859.918	31.278	1251.256	1194.802
860.933	31.828	1250.038	1197.026
861.947	31.249	1247.984	1191.204
862.962	30.185	1246.357	1182.688
863.977	30.086	1244.378	1180.040
864.991	29.560	1243.121	1175.344
866.006	29.413	1242.829	1173.985
867.020	29.315	1241.609	1172.063
868.035	29.250	1240.336	1170.305
869.049	29.421	1238.929	1169.931
870.064	29.554	1238.085	1169.842
871.079	29.798	1237.532	1170.728
872.093	29.527	1237.077	1168.439
873.108	29.835	1235.488	1168.750
874.122	29.697	1234.880	1167.159
875.137	29.629	1234.493	1166.225
876.152	29.702	1233.822	1165.913
877.166	29.561	1232.154	1163.305
878.181	29.433	1230.371	1160.671
879.195	29.442	1229.669	1159.930
880.210	29.376	1228.635	1158.396
881.225	29.368	1227.611	1157.246
882.239	29.282	1226.923	1155.914
883.254	29.415	1225.923	1155.672
884.268	29.269	1225.477	1154.191
885.283	29.452	1223.565	1153.408
886.298	29.535	1221.738	1152.063
887.312	29.452	1220.685	1150.417
888.327	29.373	1220.173	1149.297
889.341	29.345	1218.449	1147.362
890.356	29.290	1218.567	1146.995
891.371	29.233	1219.023	1146.926
892.385	29.409	1217.785	1146.725
893.400	29.328	1217.083	1145.419
894.414	29.512	1216.080	1145.487
895.429	30.065	1215.108	1147.878
896.444	31.256	1215.425	1155.454
897.458	32.147	1215.298	1160.735
898.473	31.670	1213.340	1155.765
899.487	30.431	1210.626	1145.367
900.502	29.740	1208.770	1139.198
901.517	29.372	1207.771	1135.842
902.531	29.223	1206.326	1133.424
903.546	29.388	1205.364	1133.403
904.560	29.505	1204.344	1133.031
905.575	29.472	1203.448	1131.849
906.589	29.499	1202.364	1130.859
907.604	29.316	1202.227	1129.471
