DTS Sentinel unit serial number:	SN409020Multiplexer serial number:	ORYXHardware model number:	OX4-SRSoftware version number:	ORYX F/W v3.00 Oryx Data Collector v3.7.2.0data status	okinstallation	HaddamTimeLapsedifferential loss correction	single-endedforward channel	channel 3reverse channel	N/Adate	2011/06/22time	05:46:17forward acquisition time	30.00reverse acquisition time	0.00gamma	498.7831k internal	0.1751k external	0.1751temperature offset calibration	1.0074default loss term (dB/km)	0.3790temperature slope calibration	1.3530multiplexer offset coefficient	1.0000multiplexer slope coefficient	1.0000fibre end	0.00T internal ref (°C)	22.56T ext. ref 1 (°C)	17.91T ext. ref 2 (°C)	0.17length (m)	temperature (°C)	Stokes	anti-Stokes-747.200	800.000	-0.086	-0.412
-746.185	192.423	0.197	0.396
-745.171	57.056	-0.120	0.155
-744.156	-200.000	-0.005	0.196
-743.142	-2.345	0.563	0.524
-742.127	343.740	0.219	0.572
-741.112	-131.013	-0.518	0.091
-740.098	145.769	-0.228	0.408
-739.083	-141.994	-0.418	-0.055
-738.069	-16.547	-0.356	0.299
-737.054	-79.428	-0.402	-0.180
-736.039	-2.838	-0.260	0.241
-735.025	155.246	0.137	0.251
-734.010	-82.174	0.748	-0.322
-732.996	-175.384	-0.050	-0.002
-731.981	396.196	-0.237	0.661
-730.966	-72.569	-0.101	0.049
-729.952	-123.865	-0.477	0.099
-728.937	-4.358	-0.565	-0.518
-727.923	28.838	0.143	-0.161
-726.908	-85.565	0.524	0.215
-725.894	-97.764	-0.289	0.099
-724.879	-200.000	-0.078	-0.462
-723.864	106.447	0.266	-0.419
-722.850	800.000	-0.016	-0.068
-721.835	-69.727	0.204	-0.103
-720.821	800.000	0.053	-0.206
-719.806	85.939	-0.244	-0.357
-718.791	-156.654	0.157	0.013
-717.777	-54.442	-0.338	0.203
-716.762	-26.203	0.083	-0.065
-715.748	-200.000	0.010	0.339
-714.733	-33.565	0.029	-0.022
-713.718	391.866	0.044	0.123
-712.704	-25.482	0.422	-0.331
-711.689	-49.660	-0.288	-0.181
-710.675	-78.109	0.100	-0.045
-709.660	800.000	-0.041	-0.153
-708.645	-117.318	0.440	-0.105
-707.631	-169.936	0.560	0.026
-706.616	-70.505	0.155	0.078
-705.602	158.244	-0.270	-0.499
-704.587	-47.231	0.051	0.033
-703.572	-4.676	-0.031	0.029
-702.558	-128.641	0.443	0.082
-701.543	183.260	0.119	-0.234
-700.529	-173.747	-0.552	-0.021
-699.514	-69.117	-0.399	0.203
-698.499	-19.563	-0.390	-0.320
-697.485	-19.851	0.143	0.117
-696.470	275.843	-0.089	0.210
-695.456	474.091	-0.082	0.246
-694.441	-165.815	-0.434	-0.024
-693.426	-64.188	-0.100	0.054
-692.412	101.518	0.197	0.305
-691.397	22.601	0.051	-0.056
-690.383	-91.413	0.102	0.038
-689.368	-1.486	-0.346	-0.323
-688.354	800.000	0.121	-0.467
-687.339	51.069	-0.031	-0.040
-686.324	-34.552	0.381	-0.276
-685.310	113.781	0.288	-0.465
-684.295	-58.682	0.341	0.195
-683.281	176.652	-0.140	-0.270
-682.266	460.723	-0.069	0.205
-681.251	-43.688	-0.119	-0.079
-680.237	-200.000	-0.002	0.070
-679.222	-47.093	0.232	0.150
-678.208	120.717	0.288	0.475
-677.193	181.446	-0.256	0.500
-676.178	32.037	-0.128	-0.146
-675.164	76.391	-0.388	-0.546
-674.149	800.000	-0.036	-0.191
-673.135	-16.069	-0.360	-0.303
-672.120	4.133	-0.073	-0.071
-671.105	-200.000	-0.033	0.327
-670.091	201.887	-0.158	-0.324
-669.076	-200.000	-0.032	0.295
-668.062	-12.348	-0.175	-0.151
-667.047	-153.395	0.288	0.026
-666.032	-97.669	0.505	0.172
-665.018	-124.905	-0.216	-0.044
-664.003	81.084	-0.213	0.305
-662.989	-200.000	-0.005	0.138
-661.974	203.320	-0.071	-0.145
-660.959	32.062	-0.458	-0.523
-659.945	-200.000	0.005	-0.313
-658.930	-109.606	0.576	-0.160
-657.916	-43.771	0.404	0.268
-656.901	-79.815	0.403	-0.179
-655.886	-15.698	-0.105	0.088
-654.872	800.000	-0.033	-0.136
-653.857	28.063	0.136	0.151
-652.843	-20.007	0.485	-0.395
-651.828	-99.083	0.426	0.142
-650.814	554.502	0.036	-0.116
-649.799	-200.000	0.074	-0.668
-648.784	152.998	-0.270	0.489
-647.770	209.093	0.142	0.296
-646.755	-200.000	-0.001	-0.026
-645.741	25.500	0.280	0.308
-644.726	-25.583	-0.548	-0.427
-643.711	-151.151	0.356	-0.035
-642.697	480.259	-0.049	0.148
-641.682	-200.000	-0.052	-0.378
-640.668	135.485	0.137	0.235
-639.653	-200.000	0.012	-0.399
-638.638	-200.000	0.273	-0.002
-637.624	-200.000	-0.041	-0.416
-636.609	-107.651	-0.441	0.126
-635.595	-173.548	0.144	0.006
-634.580	-118.784	0.505	0.117
-633.565	-200.000	0.016	-0.097
-632.551	800.000	-0.071	-0.331
-631.536	119.528	-0.122	-0.201
-630.522	-139.200	-0.130	0.018
-629.507	57.722	-0.156	0.202
-628.492	-105.971	0.345	-0.102
-627.478	261.441	0.099	0.228
-626.463	147.965	-0.075	0.133
-625.449	69.576	0.263	-0.358
-624.434	-64.996	-0.725	0.386
-623.419	-117.751	-0.274	-0.065
-622.405	-104.971	-0.453	-0.136
-621.390	-163.847	-0.290	0.018
-620.376	-63.930	0.331	0.178
-619.361	74.342	0.055	0.076
-618.346	257.906	0.105	0.239
-617.332	179.993	-0.284	-0.552
-616.317	-50.645	0.138	-0.085
-615.303	-114.088	0.088	0.022
-614.288	188.659	0.190	-0.378
-613.273	-92.379	0.325	-0.120
-612.259	-125.942	0.130	0.026
-611.244	-200.000	-0.047	0.289
-610.230	800.000	-0.079	-0.414
-609.215	-66.732	0.149	0.078
-608.201	173.047	-0.069	-0.131
-607.186	553.569	-0.104	-0.332
-606.171	-200.000	-0.021	-0.356
-605.157	-155.473	-0.247	0.021
-604.142	-29.847	0.520	-0.391
-603.128	50.901	-0.403	-0.505
-602.113	-200.000	-0.014	-0.208
-601.098	-200.000	-0.055	-0.424
-600.084	333.129	-0.044	0.114
-599.069	-116.713	-0.484	0.116
-598.055	5.816	-0.295	0.288
-597.040	-113.375	-0.540	-0.139
-596.025	-109.001	-0.413	-0.115
-595.011	-137.166	-0.592	0.088
-593.996	244.462	0.213	-0.474
-592.982	-200.000	-0.066	-0.567
-591.967	-166.539	0.160	0.009
-590.952	-55.909	-0.210	-0.124
-589.938	-89.180	0.295	0.114
-588.923	204.028	0.135	0.277
-587.909	-38.452	0.328	-0.229
-586.894	-46.669	0.165	-0.106
-585.879	-164.097	-0.553	-0.033
-584.865	479.902	0.103	0.310
-583.850	319.622	-0.093	0.233
-582.836	-200.000	0.010	0.073
-581.821	121.815	0.251	-0.415
-580.806	800.000	-0.026	0.132
-579.792	444.958	-0.083	0.241
-578.777	-53.336	-0.261	-0.158
-577.763	-36.993	0.236	-0.166
-576.748	94.765	-0.110	-0.166
-575.733	-9.245	0.219	0.193
-574.719	-86.984	-0.260	0.104
-573.704	-122.558	0.187	0.040
-572.690	-56.506	-0.378	-0.221
-571.675	-6.923	0.185	-0.166
-570.661	-143.373	0.417	0.052
-569.646	-95.098	-0.071	-0.025
-568.631	-76.729	0.021	-0.010
-567.617	-87.653	-0.194	-0.077
-566.602	193.688	-0.150	0.300
-565.588	-89.720	0.178	0.068
-564.573	-90.627	0.198	0.075
-563.558	-165.821	0.127	-0.007
-562.544	-61.054	-0.323	-0.179
-561.529	-142.879	-0.246	-0.031
-560.515	-53.469	-0.276	0.166
-559.500	-67.309	-0.221	-0.114
-558.485	-63.189	0.239	-0.129
-557.471	449.300	0.234	-0.683
-556.456	466.760	-0.138	-0.410
-555.442	31.304	-0.245	-0.277
-554.427	251.073	0.393	0.884
-553.412	-200.000	-0.010	0.198
-552.398	800.000	-0.064	0.307
-551.383	-89.911	-0.556	0.213
-550.369	106.214	-0.044	0.069
-549.354	-43.565	0.211	0.140
-548.339	-200.000	0.061	0.413
-547.325	-101.186	-0.440	-0.141
-546.310	800.000	0.063	0.237
-545.296	116.412	-0.054	-0.088
-544.281	-87.926	0.209	0.082
-543.266	-89.201	-0.396	-0.153
-542.252	-200.000	-0.064	0.407
-541.237	-78.622	-0.277	0.124
-540.223	50.906	-0.194	0.242
-539.208	-40.026	-0.612	0.419
-538.193	-92.419	-0.289	0.106
-537.179	-200.000	-0.027	-0.198
-536.164	-83.157	-0.292	0.123
-535.150	-108.816	0.294	0.082
-534.135	-124.802	0.649	-0.131
-533.121	800.000	-0.076	-0.342
-532.106	-79.753	0.252	0.111
-531.091	-111.083	-0.134	0.036
-530.077	-63.661	-0.330	-0.178
-529.062	186.346	0.181	-0.355
-528.048	8.807	-0.257	-0.255
-527.033	208.497	-0.091	0.189
-526.018	341.950	0.014	0.036
-525.004	84.049	-0.146	-0.210
-523.989	-107.637	0.327	0.093
-522.975	147.910	0.050	0.089
-521.960	-138.920	-0.491	-0.069
-520.945	32.324	-0.074	0.084
-519.931	314.798	0.048	0.119
-518.916	800.000	0.102	0.483
-517.902	-161.718	0.351	-0.023
-516.887	-45.542	0.202	0.131
-515.872	-200.000	0.008	-0.510
-514.858	800.000	-0.076	-0.328
-513.843	800.000	-0.113	0.446
-512.829	204.504	-0.083	0.169
-511.814	56.032	0.282	-0.361
-510.799	-98.928	0.099	-0.033
-509.785	103.724	-0.153	0.236
-508.770	-67.169	-0.183	-0.095
-507.756	-9.307	0.169	-0.149
-506.741	800.000	0.051	-0.221
-505.726	305.220	0.037	0.091
-504.712	-124.503	0.254	-0.052
-503.697	-112.395	0.375	0.098
-502.683	-110.741	0.280	0.075
-501.668	-176.582	-0.164	0.005
-500.653	22.453	-0.019	0.020
-499.639	-21.767	0.148	0.118
-498.624	-10.884	0.240	0.208
-497.610	197.731	0.201	0.406
-496.595	-12.964	0.269	0.230
-495.581	-59.393	-0.226	-0.128
-494.566	800.000	0.086	0.420
-493.551	33.225	-0.203	0.232
-492.537	-200.000	-0.008	-0.425
-491.522	-76.551	0.272	-0.125
-490.508	162.433	-0.189	-0.349
-489.493	139.635	-0.095	-0.164
-488.478	4.921	0.161	-0.156
-487.464	446.704	-0.022	0.065
-486.449	-200.000	-0.113	-0.664
-485.435	-64.694	0.260	-0.138
-484.420	-138.076	0.017	0.002
-483.405	132.580	0.153	0.260
-482.391	-104.756	0.097	-0.029
-481.376	-200.000	0.037	-0.257
-480.362	44.681	0.353	-0.427
-479.347	26.992	-0.183	0.202
-478.332	-121.024	0.244	0.053
-477.318	-143.052	-0.388	-0.049
-476.303	800.000	-0.059	0.278
-475.289	-89.035	0.583	-0.225
-474.274	-150.361	0.224	-0.022
-473.259	-101.592	0.670	0.212
-472.245	-98.806	-0.456	0.151
-471.230	304.274	-0.055	0.133
-470.216	-17.510	-0.345	0.285
-469.201	-113.091	-0.427	0.110
-468.186	-200.000	-0.201	0.001
-467.172	-91.458	0.258	0.096
-466.157	-200.000	-0.009	0.127
-465.143	-200.000	0.002	-0.186
-464.128	42.891	0.282	0.338
-463.113	-64.254	0.350	-0.186
-462.099	165.556	0.092	0.172
-461.084	-136.824	0.668	-0.100
-460.070	-98.075	0.431	-0.145
-459.055	-79.744	0.398	0.175
-458.040	51.539	0.331	-0.413
-457.026	-121.581	-0.344	0.074
-456.011	216.210	-0.115	0.240
-454.997	483.288	0.101	0.304
-453.982	-200.000	0.033	0.383
-452.968	80.958	0.198	0.281
-451.953	-200.000	0.019	-0.254
-450.938	-200.000	-0.010	-0.396
-449.924	447.968	-0.141	-0.409
-448.909	-23.010	0.212	0.168
-447.895	-132.070	0.289	0.049
-446.880	117.719	-0.136	0.221
-445.865	3.102	-0.399	0.381
-444.851	-95.085	-0.560	0.197
-443.836	-70.345	0.109	-0.054
-442.822	315.200	-0.085	-0.212
-441.807	-123.488	-0.391	0.081
-440.792	7.918	0.328	0.323
-439.778	-72.040	0.100	0.049
-438.763	-200.000	-0.007	-0.089
-437.749	800.000	0.094	-0.417
-436.734	-133.107	0.294	-0.048
-435.719	-174.207	0.379	-0.014
-434.705	46.716	-0.312	0.380
-433.690	-200.000	-0.040	0.301
-432.676	37.864	0.235	0.274
-431.661	-82.698	-0.002	-0.001
-430.646	-86.784	-0.231	-0.092
-429.632	-149.223	0.347	-0.036
-428.617	-181.344	0.469	0.012
-427.603	-47.795	-0.134	-0.085
-426.588	15.373	0.318	0.327
-425.573	-127.354	0.447	-0.085
-424.559	-153.267	-0.115	-0.010
-423.544	-112.522	-0.084	0.022
-422.530	146.924	-0.106	-0.188
-421.515	-128.477	0.692	0.128
-420.500	-200.000	-0.017	-0.139
-419.486	45.897	-0.135	0.164
-418.471	800.000	-0.059	-0.258
-417.457	-55.305	-0.206	-0.121
-416.442	240.813	-0.111	0.243
-415.428	152.662	0.192	0.345
-414.413	-200.000	0.012	-0.138
-413.398	534.088	-0.172	-0.538
-412.384	800.000	-0.164	0.669
-411.369	352.207	0.104	-0.272
-410.355	32.725	0.031	0.035
-409.340	191.283	0.120	0.237
-408.325	-200.000	-0.007	-0.094
-407.311	-37.763	0.276	0.192
-406.296	800.000	0.134	0.539
-405.282	-18.305	-0.399	-0.327
-404.267	-146.014	-0.414	0.047
-403.252	-174.857	0.267	0.010
-402.238	34.623	-0.112	-0.128
-401.223	800.000	-0.081	0.385
-400.209	-133.331	0.281	0.046
-399.194	-149.005	-0.076	-0.008
-398.179	-91.372	0.238	0.088
-397.165	-127.915	0.340	0.064
-396.150	-35.027	-0.162	0.116
-395.136	-60.202	0.358	-0.199
-394.121	692.079	-0.052	-0.180
-393.106	-200.000	-0.040	-0.366
-392.092	-81.258	-0.066	0.028
-391.077	239.663	0.060	0.132
-390.063	387.111	-0.077	0.209
-389.048	-95.536	0.191	-0.067
-388.033	-51.644	0.162	0.099
-387.019	95.319	0.153	0.229
-386.004	-74.295	-0.234	0.110
-384.990	59.938	-0.322	-0.416
-383.975	-200.000	0.008	-0.159
-382.960	133.474	-0.219	0.372
-381.946	46.862	0.200	-0.243
-380.931	584.525	-0.094	0.305
-379.917	78.083	-0.134	0.187
-378.902	800.000	0.027	-0.111
-377.888	192.489	-0.109	0.216
-376.873	-181.772	-0.513	0.013
-375.858	800.000	0.135	0.530
-374.844	67.978	0.274	0.367
-373.829	-102.312	-0.307	0.096
-372.815	-101.219	0.135	0.043
-371.800	-89.973	0.377	-0.143
-370.785	-98.905	0.277	0.091
-369.771	-200.000	-0.002	-0.188
-368.756	-66.807	-0.191	0.098
-367.742	-200.000	-0.053	-0.433
-366.727	-146.885	-0.146	0.016
-365.712	13.019	0.148	-0.150
-364.698	-78.779	0.678	0.301
-363.683	-200.000	-0.069	0.567
-362.669	776.143	0.052	0.187
-361.654	219.832	-0.044	-0.092
-360.639	800.000	-0.041	-0.189
-359.625	322.711	0.158	-0.395
-358.610	306.805	0.262	-0.640
-357.596	0.862	0.412	-0.386
-356.581	800.000	0.060	-0.225
-355.566	800.000	0.067	0.323
-354.552	800.000	-0.094	0.441
-353.537	176.718	-0.197	0.376
-352.523	-140.476	0.286	0.039
-351.508	399.676	-0.129	-0.356
-350.493	176.658	-0.202	0.386
-349.479	-26.007	-0.077	-0.059
-348.464	-68.564	-0.304	-0.153
-347.450	-200.000	-0.012	0.105
-346.435	-128.998	0.082	-0.015
-345.420	-18.919	0.689	-0.560
-344.406	-200.000	-0.035	0.213
-343.391	-92.762	-0.100	-0.037
-342.377	-69.111	-0.091	0.045
-341.362	79.139	0.039	0.055
-340.348	282.453	-0.127	-0.299
-339.333	800.000	-0.127	-0.538
-338.318	-63.412	-0.405	0.217
-337.304	-142.714	-0.325	-0.041
-336.289	-34.974	-0.295	0.210
-335.275	176.029	0.166	0.316
-334.260	-42.263	0.679	-0.452
-333.245	320.693	0.176	-0.440
-332.231	280.806	0.082	0.191
-331.216	139.669	-0.177	-0.306
-330.202	-106.706	0.161	-0.046
-329.187	623.266	-0.017	0.055
-328.172	-155.359	0.252	-0.021
-327.158	-66.497	-0.255	-0.132
-326.143	-152.204	-0.317	0.030
-325.129	-145.809	-0.552	0.063
-324.114	119.453	0.184	-0.298
-323.099	-122.640	0.225	0.047
-322.085	800.000	0.161	0.753
-321.070	-85.211	0.285	0.116
-320.056	44.686	0.154	-0.185
-319.041	-92.331	0.239	0.088
-318.026	-70.477	0.252	0.124
-317.012	745.522	-0.111	-0.393
-315.997	-78.289	-0.131	0.059
-314.983	800.000	0.057	0.320
-313.968	-70.332	0.244	-0.121
-312.953	272.577	-0.069	-0.160
-311.939	800.000	0.054	0.221
-310.924	46.049	0.219	-0.265
-309.910	25.034	0.245	0.265
-308.895	-41.589	0.130	-0.087
-307.880	4.629	-0.217	0.208
-306.866	383.044	0.060	-0.161
-305.851	-200.000	-0.036	-0.413
-304.837	-173.574	-0.111	0.004
-303.822	233.751	0.136	-0.293
-302.807	793.562	-0.104	0.374
-301.793	800.000	0.051	0.210
-300.778	-28.669	0.354	-0.266
-299.764	145.831	0.220	-0.386
-298.749	11.490	0.184	0.184
-297.735	344.457	0.051	0.132
-296.720	-200.000	-0.008	0.253
-295.705	-81.602	-0.277	-0.118
-294.691	13.143	-0.431	0.435
-293.676	-93.382	-0.432	-0.156
-292.662	326.376	-0.080	-0.200
-291.647	2.051	0.242	0.228
-290.632	47.906	0.360	-0.439
-289.618	-78.478	-0.114	-0.051
-288.603	81.467	-0.570	0.805
-287.589	306.844	-0.253	0.616
-286.574	-0.431	0.236	-0.218
-285.559	531.215	0.156	-0.483
-284.545	-44.954	0.208	0.135
-283.530	126.695	0.141	-0.234
-282.516	-129.480	0.371	0.066
-281.501	-154.380	-0.183	-0.016
-280.486	130.337	-0.137	-0.229
-279.472	120.951	0.221	-0.360
-278.457	-7.744	-0.372	-0.327
-277.443	-75.002	0.281	-0.131
-276.428	800.000	0.115	0.439
-275.413	-17.410	-0.171	-0.141
-274.399	4.709	-0.192	0.184
-273.384	-178.173	0.165	-0.005
-272.370	153.747	0.013	0.023
-271.355	-121.992	0.407	-0.087
-270.340	33.429	-0.026	0.030
-269.326	201.459	-0.123	0.248
-268.311	360.464	-0.067	-0.176
-267.297	484.594	0.096	0.287
-266.282	-52.270	0.341	0.205
-265.267	-165.630	0.313	0.017
-264.253	-75.656	0.403	-0.186
-263.238	-200.000	-0.005	0.071
-262.224	107.875	0.256	-0.398
-261.209	-200.000	0.009	-0.321
-260.195	15.808	-0.270	-0.277
-259.180	771.892	-0.043	-0.153
-258.165	-200.000	0.008	-0.360
-257.151	37.618	-0.416	-0.481
-256.136	-90.017	-0.256	0.097
-255.122	800.000	0.021	-0.087
-254.107	252.777	-0.127	-0.284
-253.092	-153.139	-0.329	-0.030
-252.078	-36.093	0.179	-0.125
-251.063	-113.760	0.310	0.078
-250.049	-146.948	-0.293	0.032
-249.034	180.281	-0.133	-0.256
-248.019	423.168	-0.068	0.192
-247.005	800.000	-0.040	0.169
-245.990	123.998	-0.237	0.388
-244.976	-200.000	0.023	0.316
-243.961	715.445	0.099	-0.343
-242.946	65.276	-0.195	-0.257
-241.932	180.049	-0.034	0.066
-240.917	121.415	-0.281	-0.456
-239.903	468.571	-0.171	-0.502
-238.888	1.187	0.232	-0.216
-237.873	800.000	-0.060	0.323
-236.859	800.000	-0.064	0.326
-235.844	46.149	-0.157	-0.190
-234.830	28.534	-0.113	0.125
-233.815	127.471	0.213	0.354
-232.800	-167.767	-0.473	-0.024
-231.786	-87.013	-0.288	0.114
-230.771	14.524	-0.400	0.406
-229.757	63.605	0.340	0.445
-228.742	-3.853	0.178	0.160
-227.727	271.145	0.136	0.314
-226.713	-200.000	0.023	0.213
-225.698	-35.837	0.417	0.293
-224.684	800.000	0.027	-0.110
-223.669	15.653	-0.058	-0.060
-222.655	150.295	-0.126	0.223
-221.640	-94.970	-0.464	0.162
-220.625	66.112	-0.216	0.285
-219.611	-9.520	-0.218	-0.189
-218.596	-114.425	-0.263	0.065
-217.582	-93.909	0.178	-0.063
-216.567	-132.942	0.175	0.029
-215.552	92.747	-0.157	0.232
-214.538	215.476	0.110	0.229
-213.523	-104.348	-0.452	-0.135
-212.509	-200.000	-0.042	-0.463
-211.494	-200.000	0.509	-0.002
-210.479	233.574	0.098	-0.211
-209.465	800.000	-0.111	0.450
-208.450	-40.982	-0.128	0.086
-207.436	-51.046	-0.534	0.325
-206.421	-122.627	0.425	-0.089
-205.406	-112.248	0.548	-0.142
-204.392	724.083	-0.076	-0.265
-203.377	204.378	0.051	-0.102
-202.363	179.655	-0.249	0.476
-201.348	32.929	-0.198	0.224
-200.333	-89.300	-0.283	-0.108
-199.319	367.863	0.079	-0.207
-198.304	-191.238	-0.439	0.006
-197.290	-200.000	0.019	0.202
-196.275	-120.883	0.220	-0.048
-195.260	-160.555	0.332	0.023
-194.246	-104.236	-0.382	-0.115
-193.231	-56.939	-0.270	-0.154
-192.217	-33.515	-0.529	-0.379
-191.202	800.000	0.099	-0.395
-190.187	-200.000	-0.332	0.001
-189.173	-121.445	-0.278	-0.060
-188.158	-83.408	-0.152	0.063
-187.144	-66.128	-0.532	0.274
-186.129	371.876	-0.124	0.329
-185.114	193.441	0.199	-0.393
-184.100	-22.193	-0.415	0.327
-183.085	-123.410	0.188	0.039
-182.071	800.000	-0.109	0.615
-181.056	34.687	0.122	0.139
-180.042	-200.000	-0.031	0.361
-179.027	-18.254	0.176	-0.143
-178.012	-142.873	0.817	0.102
-176.998	-134.785	0.298	0.046
-175.983	-103.795	0.318	-0.096
-174.969	800.000	-0.053	-0.305
-173.954	204.095	-0.010	-0.021
-172.939	121.923	-0.170	0.277
-171.925	45.750	-0.297	0.357
-170.910	114.994	-0.157	-0.249
-169.896	-129.196	-0.467	-0.084
-168.881	684.173	-0.249	-0.850
-167.866	-192.281	-0.236	-0.003
-166.852	800.000	0.025	0.108
-165.837	-24.219	-0.438	0.339
-164.823	800.000	-0.050	-0.231
-163.808	-3.602	0.037	0.034
-162.793	-22.611	0.062	-0.048
-161.779	142.337	-0.111	0.191
-160.764	69.962	0.058	0.078
-159.750	-164.391	0.432	-0.025
-158.735	232.191	0.080	-0.170
-157.720	800.000	-0.103	-0.509
-156.706	192.031	0.099	-0.195
-155.691	21.487	0.342	0.361
-154.677	-58.829	0.019	0.011
-153.662	-52.004	0.241	0.145
-152.647	-33.969	-0.502	0.358
-151.633	-55.815	0.307	-0.178
-150.618	-200.000	0.068	0.765
-149.604	-42.967	0.314	0.207
-148.589	-163.521	0.339	-0.021
-147.574	-15.419	0.661	0.548
-146.560	-200.000	-0.043	-0.262
-145.545	-200.000	0.001	-0.284
-144.531	800.000	0.093	0.434
-143.516	-75.286	0.313	0.144
-142.502	-158.683	-0.211	0.015
-141.487	674.432	-0.125	0.422
-140.472	19.111	0.020	-0.021
-139.458	-33.946	-0.227	0.162
-138.443	72.402	-0.058	-0.078
-137.429	-200.000	0.005	0.031
-136.414	800.000	0.053	0.209
-135.399	-37.651	0.196	-0.135
-134.385	800.000	0.032	0.171
-133.370	-24.106	-0.223	-0.172
-132.356	-102.314	0.194	-0.060
-131.341	232.460	-0.106	0.226
-130.326	800.000	0.092	-0.357
-129.312	-42.470	0.281	0.186
-128.297	-57.963	0.587	-0.331
-127.283	190.458	-0.099	-0.194
-126.268	-92.903	0.348	0.125
-125.253	303.949	0.052	-0.125
-124.239	-162.126	-0.563	0.036
-123.224	-200.000	-0.038	-0.348
-122.210	153.401	0.150	0.267
-121.195	21.283	0.328	0.345
-120.180	-13.892	-0.435	0.364
-119.166	28.036	-0.109	0.119
-118.151	100.121	0.215	0.324
-117.137	510.105	-0.210	0.635
-116.122	-100.177	0.149	-0.048
-115.107	-200.000	0.002	0.214
-114.093	800.000	-0.110	-0.595
-113.078	-75.578	0.399	-0.183
-112.064	-58.081	0.113	0.064
-111.049	46.689	0.134	-0.162
-110.034	180.783	0.280	-0.535
-109.020	-200.000	-0.037	-0.450
-108.005	-200.000	0.050	-0.322
-106.991	391.578	0.090	-0.244
-105.976	212.147	0.146	0.300
-104.962	-72.168	0.278	-0.133
-103.947	-118.184	-0.121	0.028
-102.932	-137.925	-0.381	-0.055
-101.918	305.101	-0.041	-0.099
-100.903	-55.661	-0.269	0.155
-99.889	-62.819	-0.149	-0.080
-98.874	-103.999	0.274	0.082
-97.859	339.575	-0.075	0.191
-96.845	165.384	0.134	-0.247
-95.830	-168.204	-0.254	0.013
-94.816	95.619	-0.156	0.231
-93.801	-187.603	-0.197	0.003
-92.786	-99.852	0.217	0.070
-91.772	-146.109	-0.222	0.025
-90.757	-200.000	0.007	0.348
-89.743	-102.055	0.384	0.119
-88.728	-17.113	-0.261	0.213
-87.713	-146.714	0.335	0.037
-86.699	339.474	-0.073	0.185
-85.684	70.112	0.387	-0.517
-84.670	-190.792	-0.556	-0.007
-83.655	-70.384	0.294	-0.143
-82.640	-66.797	0.177	0.090
-81.626	-91.555	-0.321	-0.118
-80.611	562.132	-0.122	-0.383
-79.597	800.000	-0.075	-0.424
-78.582	-23.895	-0.189	0.146
-77.567	320.601	0.131	0.324
-76.553	-19.758	-0.309	0.247
-75.538	-30.617	-0.033	-0.024
-74.524	-200.000	-0.016	0.496
-73.509	800.000	-0.026	-0.147
-72.494	-74.375	0.488	-0.227
-71.480	-125.947	-0.290	0.056
-70.465	-45.148	0.365	0.234
-69.451	-82.500	-0.298	-0.125
-68.436	800.000	-0.053	-0.231
-67.422	800.000	-0.028	0.121
-66.407	-200.000	0.009	-0.178
-65.392	-45.739	0.146	-0.093
-64.378	48.134	-0.018	0.022
-63.363	368.926	0.149	0.391
-62.349	-16.879	0.123	0.100
-61.334	11.998	-2.649	-2.633
-60.319	8.496	1.351	1.314
-59.305	247.394	-3.576	-7.839
-58.290	111.962	3.307	5.175
-57.276	360.680	4.023	10.465
-56.261	-200.000	24.681	320.244
-55.246	354.384	1303.328	3363.166
-54.232	53.150	2842.355	3521.144
-53.217	51.346	2660.398	3267.707
-52.203	31.871	2388.821	2659.744
-51.188	27.841	2054.794	2238.209
-50.173	24.470	1941.483	2075.369
-49.159	23.307	1930.022	2049.523
-48.144	22.924	1924.476	2039.110
-47.130	22.784	1922.409	2035.215
-46.115	22.805	1920.242	2033.084
-45.100	22.954	1918.704	2033.091
-44.086	22.868	1917.207	2030.440
-43.071	22.810	1916.580	2029.019
-42.057	22.766	1914.110	2025.822
-41.042	22.703	1912.867	2023.699
-40.027	22.605	1912.228	2021.807
-39.013	22.831	1910.423	2022.421
-37.998	22.650	1909.792	2019.593
-36.984	22.690	1907.794	2017.854
-35.969	22.714	1906.883	2017.087
-34.954	22.705	1905.064	2014.983
-33.940	22.635	1904.959	2013.985
-32.925	22.803	1902.660	2013.409
-31.911	22.613	1901.995	2010.443
-30.896	22.598	1900.260	2008.352
-29.881	22.674	1898.686	2007.485
-28.867	22.698	1897.421	2006.338
-27.852	22.569	1896.195	2003.485
-26.838	22.618	1894.638	2002.328
-25.823	22.563	1893.484	2000.398
-24.809	22.638	1892.073	1999.677
-23.794	22.554	1890.873	1997.384
-22.779	22.579	1889.118	1995.735
-21.765	22.563	1887.812	1994.094
-20.750	22.499	1887.729	1993.196
-19.736	22.567	1886.020	1992.084
-18.721	22.409	1885.460	1989.615
-17.706	22.584	1883.854	1989.829
-16.692	22.484	1882.658	1987.350
-15.677	22.393	1882.070	1985.620
-14.663	22.434	1880.407	1984.258
-13.648	22.451	1878.619	1982.482
-12.633	22.439	1876.976	1980.538
-11.619	22.588	1875.963	1981.070
-10.604	22.435	1875.628	1978.906
-9.590	22.528	1873.845	1978.002
-8.575	22.399	1873.504	1976.105
-7.560	22.430	1871.633	1974.401
-6.546	22.455	1870.066	1972.952
-5.531	22.537	1869.141	1972.821
-4.517	22.408	1868.376	1970.482
-3.502	22.508	1866.709	1969.774
-2.487	22.649	1864.772	1969.236
-1.473	22.645	1861.959	1966.141
-0.458	22.302	1844.279	1943.582
0.556	19.054	1989.747	2045.866
1.571	17.575	2193.617	2235.730
2.586	18.470	2232.178	2286.759
3.600	18.381	2234.473	2287.645
4.615	18.392	2234.160	2287.201
5.629	18.439	2232.127	2285.477
6.644	18.485	2229.313	2282.933
7.659	18.350	2228.397	2279.911
8.673	18.361	2226.854	2278.207
9.688	18.121	2235.475	2283.538
10.702	17.246	2315.494	2352.822
11.717	15.763	2379.440	2396.279
12.731	7.446	2361.149	2258.982
13.746	1.020	2343.605	2150.439
14.761	0.230	2339.866	2135.497
15.775	0.154	2338.080	2132.528
16.790	0.048	2336.347	2129.187
17.804	0.086	2334.646	2127.921
18.819	0.035	2333.621	2125.996
19.834	0.050	2332.243	2124.703
20.848	0.137	2330.662	2124.252
21.863	0.063	2328.486	2120.957
22.877	-0.004	2327.497	2118.854
23.892	0.072	2324.898	2117.307
24.907	-0.022	2322.551	2113.587
25.921	0.009	2321.531	2112.851
26.936	0.026	2318.164	2109.766
27.950	0.007	2316.156	2107.418
28.965	0.065	2313.748	2105.802
29.980	0.074	2312.179	2104.245
30.994	0.122	2310.832	2103.436
32.009	4.104	2322.331	2169.790
33.023	13.376	2349.771	2326.756
34.038	17.367	2355.520	2388.607
35.053	17.512	2354.134	2388.961
36.067	17.616	2352.403	2388.392
37.082	17.722	2349.190	2386.333
38.096	17.677	2347.852	2384.060
39.111	17.852	2344.925	2383.262
40.126	17.804	2343.721	2381.068
41.140	17.972	2341.703	2381.099
42.155	17.872	2339.876	2377.546
43.169	17.860	2337.694	2374.878
44.184	17.778	2335.200	2370.921
45.199	17.816	2332.122	2368.034
46.213	17.671	2332.611	2366.222
47.228	17.836	2331.310	2366.927
48.242	17.825	2329.618	2364.775
49.257	17.863	2327.541	2362.903
50.271	17.901	2323.655	2359.209
51.286	17.824	2321.347	2355.515
52.301	17.684	2320.546	2352.480
53.315	18.055	2322.795	2359.620
54.330	19.784	2326.535	2387.153
55.344	20.986	2325.036	2401.989
56.359	21.153	2322.306	2401.190
57.374	21.062	2322.322	2399.652
58.388	21.233	2320.602	2399.954
59.403	21.236	2315.707	2394.645
60.417	21.031	2312.226	2387.935
61.432	21.243	2311.508	2389.829
62.447	21.404	2310.670	2390.883
63.461	21.472	2308.749	2389.552
64.476	21.559	2306.964	2388.611
65.490	21.421	2304.880	2384.270
66.505	20.787	2302.739	2373.096
67.520	19.407	2296.700	2347.722
68.534	18.144	2289.789	2323.136
69.549	17.744	2286.422	2313.992
70.563	17.899	2283.630	2312.991
71.578	17.744	2282.763	2309.730
72.593	17.674	2281.333	2307.048
73.607	17.805	2279.760	2306.964
74.622	17.779	2277.515	2304.066
75.636	17.731	2274.060	2299.647
76.651	17.745	2272.951	2298.436
77.666	17.804	2270.464	2296.441
78.680	17.773	2268.088	2293.347
79.695	17.728	2266.624	2290.986
80.709	17.834	2264.400	2289.901
81.724	17.963	2262.200	2289.141
82.739	17.793	2260.624	2284.976
83.753	17.662	2258.398	2280.698
84.768	17.742	2257.121	2280.204
85.782	17.602	2255.986	2276.910
86.797	17.626	2253.434	2274.377
87.812	17.765	2251.915	2274.433
88.826	17.689	2249.994	2271.201
89.841	17.774	2247.241	2269.286
90.855	17.849	2244.570	2267.330
91.870	17.940	2243.363	2267.052
92.884	17.631	2243.153	2262.440
93.899	17.642	2241.324	2260.476
94.914	18.014	2242.615	2266.465
95.928	19.616	2246.956	2291.968
96.943	20.157	2245.627	2297.546
97.957	18.599	2237.832	2268.592
98.972	17.748	2232.539	2251.675
99.987	17.646	2230.097	2247.589
101.001	17.573	2228.288	2244.530
102.016	17.621	2226.471	2243.068
103.030	17.698	2222.843	2240.159
104.045	17.787	2221.239	2239.452
105.060	17.810	2218.568	2236.790
106.074	17.653	2218.016	2233.895
107.089	17.732	2215.110	2231.743
108.103	17.751	2214.954	2231.567
109.118	17.774	2212.853	2229.490
110.133	17.828	2211.306	2228.369
111.147	17.844	2208.995	2225.979
112.162	17.832	2208.073	2224.632
113.176	17.873	2205.146	2221.947
114.191	17.802	2204.335	2219.936
115.206	17.856	2202.561	2218.589
116.220	17.710	2201.073	2214.921
117.235	17.779	2198.500	2212.973
118.249	17.834	2195.763	2210.661
119.264	17.857	2194.826	2209.757
120.279	17.896	2193.385	2208.547
121.293	17.794	2191.117	2204.681
122.308	17.767	2189.916	2202.848
123.322	17.774	2188.122	2200.876
124.337	18.103	2189.424	2206.195
125.352	19.870	2194.207	2233.695
126.366	20.220	2192.558	2236.284
127.381	18.416	2185.058	2205.043
128.395	17.702	2180.386	2190.855
129.410	17.728	2178.076	2188.608
130.424	17.670	2177.046	2186.555
131.439	17.703	2174.465	2184.136
132.454	17.694	2173.272	2182.556
133.468	17.847	2170.074	2181.051
134.483	17.809	2168.624	2178.843
135.497	17.854	2167.191	2177.712
136.512	17.881	2165.195	2175.791
137.527	17.809	2163.340	2172.753
138.541	17.649	2162.287	2169.384
139.556	17.753	2161.556	2169.719
140.570	17.717	2160.271	2167.715
141.585	17.718	2158.140	2165.322
142.600	17.706	2156.346	2163.119
143.614	17.661	2155.268	2161.199
144.629	17.707	2153.320	2159.580
145.643	17.729	2151.484	2157.753
146.658	17.750	2149.643	2155.914
147.673	17.763	2147.689	2153.869
148.687	17.651	2147.159	2151.659
149.702	17.829	2145.583	2152.079
150.716	17.736	2145.115	2150.170
151.731	17.686	2143.544	2147.698
152.746	17.760	2142.616	2147.448
153.760	18.174	2144.273	2154.103
154.775	19.893	2147.762	2179.125
155.789	20.215	2146.079	2181.229
156.804	18.590	2137.526	2151.796
157.819	17.737	2133.191	2136.441
158.833	17.749	2129.762	2132.893
159.848	17.751	2127.552	2130.461
160.862	17.834	2126.160	2129.851
161.877	17.913	2125.219	2129.646
162.892	17.859	2124.648	2128.133
163.906	17.825	2123.774	2126.577
164.921	17.880	2121.434	2124.673
165.935	17.842	2119.826	2122.324
166.950	17.853	2117.678	2120.068
167.964	17.878	2114.565	2117.006
168.979	17.809	2113.581	2114.907
169.994	17.823	2111.550	2112.798
171.008	17.833	2110.099	2111.219
172.023	17.669	2109.837	2108.667
173.037	17.890	2108.191	2109.515
174.052	17.829	2105.876	2106.179
175.067	17.856	2104.771	2105.161
176.081	17.807	2103.057	2102.590
177.096	17.715	2101.865	2100.007
178.110	17.740	2100.199	2098.400
179.125	17.753	2099.209	2097.317
180.140	17.747	2098.018	2095.801
181.154	17.750	2096.406	2093.975
182.169	17.745	2094.632	2091.893
183.183	18.087	2095.853	2097.076
184.198	20.035	2099.740	2124.766
185.213	20.353	2098.478	2127.151
186.227	18.657	2091.449	2098.932
187.242	17.951	2087.191	2085.750
188.256	17.841	2085.738	2082.688
189.271	17.704	2085.110	2080.133
190.286	17.724	2082.764	2077.793
191.300	17.757	2080.165	2075.352
192.315	17.771	2078.950	2074.070
193.329	17.733	2077.888	2072.299
194.344	17.945	2076.857	2073.611
195.359	18.023	2075.058	2072.518
196.373	17.932	2073.375	2069.478
197.388	17.803	2071.336	2065.619
198.402	17.741	2068.742	2062.038
199.417	17.749	2066.296	2059.443
200.432	17.786	2065.337	2058.689
201.446	17.797	2064.599	2057.840
202.461	17.715	2062.650	2054.667
203.475	17.754	2060.953	2053.195
204.490	17.798	2058.234	2050.777
205.504	17.839	2056.153	2048.953
206.519	17.740	2054.675	2046.041
207.534	17.740	2052.968	2044.089
208.548	17.717	2052.055	2042.658
209.563	17.723	2050.831	2041.270
210.577	17.721	2049.395	2039.577
211.592	17.721	2049.067	2039.009
212.607	18.604	2052.886	2053.187
213.621	20.626	2056.808	2081.215
214.636	20.281	2050.784	2070.729
215.650	18.138	2044.999	2038.979
216.665	17.792	2042.146	2031.751
217.680	17.861	2040.442	2030.640
218.694	17.837	2038.699	2028.378
219.709	17.763	2037.238	2025.792
220.723	17.870	2035.488	2025.085
221.738	17.877	2032.476	2021.932
222.753	17.837	2031.642	2020.386
223.767	17.785	2030.350	2018.242
224.782	17.805	2028.187	2016.080
225.796	17.917	2026.479	2015.475
226.811	17.997	2025.431	2015.144
227.826	17.830	2024.619	2012.109
228.840	17.770	2023.392	2009.945
229.855	17.878	2021.658	2009.252
230.869	17.815	2019.763	2006.386
231.884	17.719	2018.107	2003.367
232.899	17.723	2016.437	2001.520
233.913	17.680	2015.320	1999.657
234.928	17.807	2014.221	1999.832
235.942	17.746	2012.944	1997.602
236.957	17.718	2010.981	1995.089
237.972	17.802	2009.597	1994.463
238.986	17.744	2009.223	1993.170
240.001	17.747	2007.198	1990.963
241.015	17.739	2005.839	1989.273
242.030	18.234	2005.963	1994.967
243.045	19.786	2009.985	2016.940
244.059	19.911	2007.472	2015.630
245.074	18.318	2000.052	1989.349
246.088	17.854	1996.507	1980.175
247.103	17.938	1995.076	1979.498
248.117	17.873	1993.816	1977.262
249.132	17.798	1992.461	1974.802
250.147	17.877	1990.107	1973.148
251.161	17.723	1989.621	1970.647
252.176	17.823	1988.611	1970.573
253.190	17.905	1986.599	1969.297
254.205	17.975	1983.905	1967.201
255.220	17.905	1982.837	1965.093
256.234	17.978	1981.542	1964.421
257.249	18.012	1980.553	1963.594
258.263	17.787	1979.379	1959.599
259.278	17.772	1978.562	1958.378
260.293	17.819	1976.594	1956.742
261.307	17.822	1974.205	1954.179
262.322	17.664	1973.033	1950.959
263.336	17.568	1971.890	1948.491
264.351	17.665	1969.280	1946.793
265.366	17.740	1968.309	1946.466
266.380	17.701	1967.811	1945.290
267.395	17.797	1965.750	1944.123
268.409	17.730	1963.559	1940.959
269.424	17.848	1962.470	1940.998
270.439	17.752	1961.918	1939.117
271.453	18.268	1963.419	1946.276
272.468	19.962	1966.511	1968.479
273.482	20.169	1962.431	1966.520
274.497	18.491	1956.019	1940.783
275.512	17.803	1952.905	1929.634
276.526	17.769	1950.379	1926.525
277.541	17.767	1947.340	1923.270
278.555	17.650	1946.848	1921.221
279.570	17.691	1944.616	1919.254
280.585	17.607	1943.856	1917.329
281.599	17.822	1942.799	1918.481
282.614	17.843	1941.873	1917.582
283.628	18.075	1940.279	1918.390
284.643	17.953	1939.677	1916.190
285.657	18.058	1938.135	1915.628
286.672	18.036	1937.026	1914.050
287.687	17.966	1935.254	1911.287
288.701	17.923	1934.997	1910.314
289.716	17.972	1933.404	1909.063
290.730	17.962	1930.392	1905.745
291.745	17.886	1929.700	1903.986
292.760	17.913	1928.291	1902.675
293.774	17.859	1928.231	1901.777
294.789	17.836	1926.485	1899.571
295.803	17.801	1924.530	1897.028
296.818	17.857	1923.287	1896.205
297.833	17.852	1921.506	1894.162
298.847	17.767	1920.196	1891.697
299.862	17.846	1918.949	1891.117
300.876	18.230	1919.350	1895.570
301.891	19.976	1922.638	1918.039
302.906	20.481	1920.768	1921.564
303.920	18.595	1915.518	1895.160
304.935	17.903	1911.690	1883.472
305.949	17.894	1909.598	1881.084
306.964	17.895	1907.567	1878.874
307.979	17.876	1906.420	1877.304
308.993	17.941	1904.947	1876.352
310.008	17.866	1904.055	1874.419
311.022	18.048	1901.368	1873.549
312.037	18.014	1900.686	1872.283
313.052	18.030	1898.323	1869.908
314.066	18.060	1896.942	1868.653
315.081	18.047	1896.057	1867.415
316.095	17.944	1895.400	1865.411
317.110	17.911	1894.200	1863.643
318.125	17.912	1891.909	1861.184
319.139	17.965	1890.118	1859.771
320.154	18.043	1888.956	1859.266
321.168	17.997	1887.019	1856.632
322.183	17.945	1885.773	1854.617
323.197	17.833	1884.190	1851.617
324.212	17.640	1883.224	1848.334
325.227	17.700	1881.214	1846.795
326.241	17.753	1879.389	1845.359
327.256	17.735	1878.426	1843.999
328.270	17.718	1878.270	1843.439
329.285	17.809	1877.504	1843.463
330.300	18.428	1880.311	1852.719
331.314	20.350	1883.170	1876.216
332.329	20.236	1878.136	1869.748
333.343	18.401	1872.640	1844.214
334.358	17.901	1869.893	1835.881
335.373	17.815	1867.769	1832.648
336.387	17.747	1864.996	1828.968
337.402	17.769	1864.238	1828.251
338.416	17.728	1862.919	1826.292
339.431	17.741	1861.602	1824.925
340.446	17.873	1860.265	1824.813
341.460	17.910	1859.564	1824.307
342.475	17.970	1858.538	1823.727
343.489	18.078	1856.141	1822.315
344.504	17.993	1855.403	1820.453
345.519	18.034	1853.981	1819.278
346.533	18.140	1852.006	1818.256
347.548	18.104	1851.672	1817.333
348.562	18.078	1850.133	1815.328
349.577	18.128	1848.784	1814.319
350.592	18.061	1847.675	1812.294
351.606	18.075	1846.206	1810.784
352.621	18.108	1843.762	1808.521
353.635	17.980	1842.082	1805.299
354.650	17.863	1841.389	1803.168
355.665	17.965	1839.992	1802.668
356.679	17.750	1838.864	1799.058
357.694	17.816	1836.982	1797.700
358.708	17.741	1836.821	1796.535
359.723	18.596	1838.713	1807.231
360.738	20.490	1840.848	1829.171
361.752	19.923	1837.256	1819.398
362.767	18.229	1831.352	1795.483
363.781	17.740	1829.003	1787.804
364.796	17.779	1826.839	1785.893
365.810	17.730	1826.353	1784.684
366.825	17.848	1824.963	1784.351
367.840	17.930	1823.699	1783.765
368.854	17.859	1822.857	1781.983
369.869	17.736	1821.172	1778.838
370.883	17.627	1819.276	1775.622
371.898	17.628	1818.707	1774.874
372.913	17.817	1816.883	1774.851
373.927	17.764	1815.726	1772.954
374.942	17.957	1814.317	1773.381
375.956	17.943	1812.804	1771.552
376.971	17.789	1811.555	1768.512
377.986	17.630	1809.738	1764.871
379.000	17.795	1808.101	1764.775
380.015	17.964	1806.959	1765.206
381.029	18.077	1805.090	1764.342
382.044	17.861	1804.031	1760.856
383.059	17.865	1802.369	1759.063
384.073	17.803	1801.284	1757.157
385.088	17.760	1800.429	1755.661
386.102	17.691	1798.479	1752.841
387.117	17.686	1796.653	1750.794
388.132	17.665	1797.090	1750.800
389.146	18.430	1798.918	1760.269
390.161	20.352	1801.410	1782.357
391.175	20.007	1795.886	1773.121
392.190	18.238	1788.960	1747.923
393.205	17.792	1786.183	1740.436
394.219	17.790	1784.994	1739.048
395.234	17.691	1784.173	1737.021
396.248	17.756	1782.163	1735.522
397.263	17.712	1780.655	1733.393
398.278	17.862	1778.033	1732.171
399.292	17.813	1777.992	1731.424
400.307	17.877	1777.321	1731.207
401.321	17.954	1775.839	1730.347
402.336	17.810	1774.411	1727.278
403.350	17.864	1773.605	1726.838
404.365	17.951	1772.281	1726.225
405.380	18.163	1771.146	1727.064
406.394	18.272	1770.546	1727.379
407.409	18.185	1768.819	1724.605
408.423	18.212	1767.059	1722.959
409.438	18.066	1766.575	1720.802
410.453	18.072	1765.343	1719.457
411.467	18.170	1763.808	1718.745
412.482	18.210	1761.248	1716.446
413.496	17.988	1760.684	1713.457
414.511	18.045	1758.202	1711.411
415.526	17.908	1756.576	1708.245
416.540	17.842	1754.971	1705.813
417.555	17.885	1754.292	1705.381
418.569	17.739	1754.528	1703.943
419.584	17.887	1754.229	1704.931
420.599	17.908	1753.725	1704.455
421.613	17.912	1752.458	1703.057
422.628	17.770	1751.433	1700.437
423.642	18.040	1749.194	1700.757
424.657	17.879	1748.356	1698.125
425.672	17.937	1746.293	1696.498
426.686	17.829	1745.546	1694.495
427.701	17.797	1743.922	1692.397
428.715	17.810	1742.045	1690.502
429.730	17.882	1741.612	1690.600
430.745	17.867	1740.061	1688.741
431.759	17.847	1739.317	1687.616
432.774	17.873	1738.439	1686.821
433.788	18.060	1737.387	1687.451
434.803	18.124	1736.788	1687.309
435.818	17.971	1736.343	1685.151
436.832	18.003	1735.362	1684.320
437.847	17.134	1728.555	1668.925
438.861	9.567	1708.475	1575.207
439.876	1.802	1693.738	1485.541
440.890	0.419	1689.651	1468.248
441.905	0.263	1688.382	1465.454
442.920	0.151	1687.428	1463.351
443.934	0.167	1685.993	1462.085
444.949	0.136	1684.811	1460.586
445.963	0.098	1684.440	1459.719
446.978	0.145	1684.145	1459.747
447.993	0.124	1682.463	1457.908
449.007	0.174	1680.176	1456.235
450.022	0.209	1678.203	1454.691
451.036	0.174	1677.164	1453.282
452.051	1.240	1681.465	1467.195
453.066	8.841	1697.940	1555.788
454.080	16.285	1708.947	1638.559
455.095	17.753	1710.400	1654.079
456.109	17.786	1710.863	1654.651
457.124	17.916	1709.745	1654.636
458.139	17.788	1709.245	1652.710
459.153	17.897	1708.142	1652.503
460.168	17.870	1705.922	1649.898
461.182	17.861	1704.659	1648.389
462.197	17.830	1702.728	1646.027
463.212	17.755	1701.385	1643.801
464.226	17.747	1700.070	1642.253
465.241	17.860	1699.112	1642.225
466.255	17.862	1698.377	1641.335
467.270	17.727	1696.843	1638.353
468.285	17.667	1696.004	1636.769
469.299	17.770	1694.043	1635.675
470.314	17.778	1691.993	1633.577
471.328	17.779	1691.022	1632.453
472.343	17.760	1690.093	1631.180
473.358	17.903	1688.688	1631.006
474.372	17.903	1687.634	1629.788
475.387	17.735	1686.154	1626.558
476.401	17.775	1684.635	1625.278
477.416	17.893	1683.229	1624.858
478.430	17.945	1682.484	1624.441
479.445	17.778	1681.386	1621.584
480.460	17.857	1679.919	1620.732
481.474	17.769	1679.461	1619.260
482.489	17.919	1677.505	1618.612
483.503	17.911	1675.717	1616.611
484.518	17.800	1675.246	1614.908
485.533	17.811	1673.454	1613.089
486.547	17.872	1671.970	1612.047
487.562	17.996	1671.616	1612.694
488.576	17.923	1669.787	1610.037
489.591	17.876	1668.586	1608.244
490.606	17.919	1667.600	1607.512
491.620	17.816	1665.594	1604.412
492.635	17.833	1663.991	1602.837
493.649	17.870	1662.429	1601.486
494.664	17.861	1661.394	1600.210
495.679	17.671	1660.306	1597.183
496.693	17.644	1658.701	1595.199
497.708	17.849	1657.290	1595.570
498.722	17.833	1656.433	1594.411
499.737	17.929	1654.932	1593.675
500.752	17.858	1653.007	1590.963
501.766	17.870	1651.675	1589.607
502.781	17.861	1650.436	1588.132
503.795	17.886	1649.082	1586.878
504.810	17.812	1648.523	1585.457
505.825	18.040	1647.287	1586.210
506.839	17.902	1646.936	1584.395
507.854	17.863	1645.731	1582.680
508.868	17.884	1643.764	1580.790
509.883	17.915	1643.247	1580.395
510.898	18.027	1642.153	1580.191
511.912	17.856	1640.442	1576.769
512.927	17.728	1638.514	1573.544
513.941	17.725	1637.030	1571.902
514.956	17.883	1636.091	1572.272
515.971	17.844	1635.118	1570.787
516.985	17.932	1633.435	1569.799
518.000	18.035	1632.271	1569.441
519.014	17.942	1631.827	1567.969
520.029	17.908	1630.664	1566.349
521.043	17.924	1629.079	1564.789
522.058	17.919	1627.322	1562.867
523.073	18.098	1626.309	1563.350
524.087	17.941	1626.237	1561.650
525.102	18.091	1624.320	1561.005
526.116	17.899	1622.974	1557.761
527.131	17.859	1622.137	1556.404
528.146	18.001	1621.867	1557.260
529.160	17.963	1619.968	1554.902
530.175	17.951	1619.202	1553.869
531.189	18.011	1617.788	1552.880
532.204	17.995	1616.296	1551.118
533.219	17.888	1615.485	1549.178
534.233	17.838	1613.891	1547.002
535.248	17.997	1613.398	1547.798
536.262	18.072	1612.440	1547.369
537.277	17.949	1611.551	1545.214
538.292	18.033	1609.612	1543.934
539.306	18.067	1607.402	1541.939
540.321	18.084	1606.355	1540.903
541.335	18.039	1605.155	1539.157
542.350	18.076	1603.470	1537.698
543.365	18.000	1602.594	1535.988
544.379	18.104	1601.313	1535.514
545.394	18.197	1599.489	1534.419
546.408	17.941	1598.283	1530.774
547.423	17.898	1597.217	1529.183
548.438	17.921	1596.366	1528.391
549.452	17.882	1595.576	1527.097
550.467	17.895	1594.690	1526.180
551.481	17.885	1592.855	1524.154
552.496	17.889	1592.074	1523.261
553.511	17.977	1591.848	1523.656
554.525	17.793	1590.918	1520.927
555.540	18.074	1589.624	1522.025
556.554	18.020	1588.213	1520.012
557.569	18.041	1586.154	1518.050
558.583	18.069	1584.624	1516.646
559.598	18.028	1583.615	1515.140
560.613	18.014	1583.053	1514.290
561.627	18.014	1581.331	1512.464
562.642	18.009	1579.973	1510.941
563.656	18.071	1578.560	1509.959
564.671	17.991	1577.814	1508.358
565.686	17.800	1577.256	1505.946
566.700	17.950	1575.344	1505.269
567.715	17.916	1573.669	1503.187
568.729	17.878	1572.347	1501.412
569.744	18.043	1570.651	1501.067
570.759	17.901	1569.511	1498.547
571.773	18.054	1568.777	1499.018
572.788	17.979	1567.785	1497.224
573.802	18.064	1565.867	1495.959
574.817	18.030	1564.456	1494.134
575.832	17.896	1563.994	1492.340
576.846	18.010	1562.368	1491.606
577.861	17.919	1560.944	1489.272
578.875	18.105	1560.174	1489.987
579.890	18.158	1559.394	1489.529
580.905	18.085	1558.491	1487.848
581.919	18.109	1557.901	1487.317
582.934	18.203	1556.625	1486.743
583.948	18.182	1555.375	1485.187
584.963	18.070	1554.028	1482.753
585.978	17.990	1552.856	1480.761
586.992	18.087	1551.868	1480.483
588.007	18.173	1551.720	1480.911
589.021	18.226	1549.836	1479.394
590.036	18.232	1549.070	1478.540
591.051	18.125	1547.877	1476.294
592.065	18.271	1545.973	1475.572
593.080	18.161	1544.613	1473.143
594.094	18.247	1542.775	1471.957
595.109	18.075	1540.977	1468.581
596.123	18.051	1539.775	1467.049
597.138	18.146	1538.358	1466.346
598.153	18.001	1537.986	1464.567
599.167	18.156	1536.458	1464.273
600.182	18.098	1536.176	1463.322
601.196	18.101	1534.448	1461.529
602.211	18.020	1533.951	1460.188
603.226	18.136	1532.341	1459.478
604.240	18.166	1530.921	1458.203
605.255	18.223	1529.649	1457.304
606.269	18.166	1529.076	1456.098
607.284	18.244	1527.453	1455.049
608.299	18.188	1526.293	1453.285
609.313	18.047	1526.022	1451.650
610.328	18.145	1524.574	1450.940
611.342	18.114	1522.726	1448.737
612.357	18.215	1521.663	1448.412
613.372	18.156	1521.043	1447.148
614.386	18.153	1519.964	1445.926
615.401	18.104	1518.746	1444.180
616.415	18.128	1517.834	1443.343
617.430	18.104	1517.394	1442.545
618.445	18.170	1516.048	1441.652
619.459	18.127	1515.191	1440.304
620.474	18.122	1513.942	1438.895
621.488	18.135	1512.563	1437.528
622.503	18.164	1510.824	1435.949
623.518	18.182	1510.261	1435.391
624.532	18.284	1509.144	1435.016
625.547	18.165	1507.783	1432.548
626.561	18.173	1507.427	1432.108
627.576	18.419	1505.747	1432.408
628.591	18.215	1504.481	1429.316
629.605	18.260	1503.310	1428.415
630.620	18.133	1502.245	1426.168
631.634	18.178	1501.295	1425.465
632.649	18.136	1500.596	1424.281
633.663	18.115	1498.818	1422.245
634.678	18.241	1497.025	1421.427
635.693	18.312	1495.751	1420.642
636.707	18.300	1494.877	1419.539
637.722	18.423	1493.586	1419.166
638.736	18.424	1492.156	1417.653
639.751	18.272	1492.245	1416.298
640.766	18.240	1489.895	1413.631
641.780	18.251	1489.083	1412.788
642.795	18.354	1487.902	1412.354
643.809	18.332	1487.800	1411.899
644.824	18.290	1486.825	1410.462
645.839	18.254	1485.731	1408.953
646.853	18.375	1483.892	1408.044
647.868	18.301	1482.287	1405.744
648.882	18.329	1481.922	1405.461
649.897	18.355	1480.574	1404.227
650.912	18.327	1479.264	1402.584
651.926	18.522	1477.695	1402.532
652.941	18.343	1476.976	1400.208
653.955	18.318	1474.731	1397.708
654.970	18.253	1473.562	1395.900
655.985	18.294	1472.331	1394.904
656.999	18.330	1471.717	1394.447
658.014	18.367	1470.567	1393.498
659.028	18.311	1469.880	1392.223
660.043	18.354	1469.196	1391.760
661.058	18.446	1467.204	1390.453
662.072	18.299	1466.280	1388.217
663.087	18.268	1465.879	1387.416
664.101	18.361	1464.154	1386.376
665.116	18.331	1463.125	1384.986
666.131	18.226	1461.817	1382.732
667.145	18.180	1460.819	1381.248
668.160	18.274	1459.429	1380.530
669.174	18.398	1457.867	1379.894
670.189	18.257	1457.898	1378.614
671.204	18.205	1457.096	1377.270
672.218	18.361	1455.436	1376.800
673.233	18.553	1453.916	1376.749
674.247	18.489	1453.497	1375.666
675.262	18.224	1453.047	1372.942
676.276	18.439	1451.276	1372.837
677.291	18.346	1449.893	1370.611
678.306	18.295	1449.460	1369.626
679.320	18.319	1448.319	1368.581
680.335	18.337	1447.220	1367.520
681.349	18.459	1446.011	1367.196
682.364	18.307	1445.374	1365.213
683.379	18.324	1443.903	1363.797
684.393	18.256	1442.594	1361.849
685.408	18.353	1441.426	1361.362
686.422	18.249	1441.519	1360.451
687.437	18.273	1440.399	1359.428
688.452	18.343	1438.946	1358.448
689.466	18.412	1437.751	1357.712
690.481	18.362	1436.257	1355.741
691.495	18.356	1435.596	1354.906
692.510	18.200	1434.437	1352.405
693.525	18.360	1432.653	1351.835
694.539	18.180	1431.881	1349.514
695.554	18.038	1432.434	1348.746
696.568	18.279	1430.630	1348.798
697.583	18.283	1429.641	1347.737
698.598	18.388	1428.749	1347.568
699.612	18.306	1427.414	1345.499
700.627	18.430	1426.404	1345.361
701.641	18.198	1425.649	1342.662
702.656	18.238	1424.200	1341.449
703.671	18.439	1423.716	1342.419
704.685	18.442	1423.574	1342.143
705.700	18.364	1421.734	1339.632
706.714	18.487	1419.760	1338.584
707.729	18.408	1418.855	1336.947
708.744	18.369	1417.672	1335.369
709.758	18.556	1415.891	1334.994
710.773	18.507	1415.272	1333.868
711.787	18.503	1413.542	1332.046
712.802	18.371	1412.705	1330.065
713.816	18.466	1411.667	1329.672
714.831	18.620	1410.723	1329.823
715.846	18.636	1409.516	1328.651
716.860	18.599	1408.572	1327.311
717.875	18.538	1407.378	1325.559
718.889	18.335	1406.422	1322.924
719.904	18.355	1405.483	1322.035
720.919	18.522	1404.316	1322.070
721.933	18.539	1403.617	1321.388
722.948	18.607	1402.907	1321.087
723.962	18.398	1401.878	1318.345
724.977	18.506	1400.740	1317.946
725.992	18.504	1399.435	1316.546
727.006	18.430	1398.300	1314.753
728.021	18.509	1396.762	1313.759
729.035	18.490	1395.289	1312.071
730.050	18.467	1394.989	1311.456
731.065	18.455	1393.656	1309.952
732.079	18.470	1392.405	1308.734
733.094	18.538	1391.148	1307.914
734.108	18.299	1390.775	1305.574
735.123	18.368	1388.999	1304.283
736.138	18.376	1388.036	1303.285
737.152	18.413	1386.740	1302.189
738.167	18.506	1385.925	1301.985
739.181	18.562	1385.280	1301.650
740.196	18.438	1384.577	1299.884
741.211	18.600	1383.221	1299.688
742.225	18.404	1382.773	1297.623
743.240	18.531	1380.811	1296.592
744.254	18.472	1379.724	1294.968
745.269	18.294	1379.588	1293.333
746.284	18.373	1378.529	1292.785
747.298	18.384	1376.981	1291.259
748.313	18.351	1375.837	1289.782
749.327	18.302	1374.602	1288.100
750.342	18.480	1374.096	1288.819
751.356	18.238	1373.440	1286.218
752.371	18.442	1371.343	1285.638
753.386	18.375	1371.092	1284.747
754.400	18.355	1370.237	1283.642
755.415	18.674	1369.104	1284.828
756.429	18.629	1366.756	1282.135
757.444	18.645	1366.313	1281.686
758.459	18.541	1365.510	1279.997
759.473	18.569	1364.940	1279.518
760.488	18.705	1363.652	1279.177
761.502	18.690	1362.947	1278.250
762.517	18.605	1361.664	1276.261
763.532	18.700	1359.775	1275.041
764.546	18.587	1358.970	1273.296
765.561	18.671	1358.211	1273.055
766.575	18.475	1357.606	1270.876
767.590	18.540	1356.068	1269.765
768.605	18.635	1355.093	1269.408
769.619	18.705	1353.592	1268.372
770.634	18.524	1352.795	1266.131
771.648	18.690	1351.581	1266.076
772.663	18.664	1350.919	1265.108
773.678	18.667	1350.110	1264.223
774.692	18.628	1349.184	1262.914
775.707	18.618	1349.117	1262.628
776.721	18.532	1348.361	1261.130
777.736	18.518	1346.984	1259.592
778.751	18.690	1345.814	1259.613
779.765	18.620	1344.888	1258.081
780.780	18.524	1343.795	1256.197
781.794	18.416	1343.783	1255.246
782.809	18.386	1342.326	1253.513
783.824	18.465	1340.723	1252.443
784.838	18.381	1339.331	1250.380
785.853	18.271	1338.478	1248.623
786.867	18.224	1337.963	1247.652
787.882	18.343	1337.727	1248.155
788.897	18.321	1337.052	1247.216
789.911	18.475	1335.570	1246.809
790.926	18.573	1333.617	1245.551
791.940	18.471	1332.521	1243.637
792.955	18.563	1331.681	1243.371
793.969	18.529	1330.882	1242.228
794.984	18.495	1329.861	1240.878
795.999	18.641	1328.912	1240.907
797.013	18.595	1327.325	1238.941
798.028	18.528	1326.169	1237.233
799.042	18.500	1325.538	1236.292
800.057	18.582	1324.609	1235.868
801.072	18.725	1322.473	1234.762
802.086	18.606	1321.806	1233.134
803.101	18.728	1320.756	1232.885
804.115	18.710	1320.087	1231.988
805.130	18.683	1319.094	1230.713
806.145	18.687	1317.619	1229.223
807.159	18.763	1316.443	1228.526
808.174	18.675	1315.293	1226.672
809.188	18.578	1314.271	1224.871
810.203	18.771	1312.083	1224.069
811.218	18.665	1310.846	1222.016
812.232	18.617	1309.977	1220.712
813.247	18.547	1309.324	1219.459
814.261	18.528	1308.264	1218.191
815.276	18.749	1307.613	1219.015
816.291	18.717	1306.777	1217.859
817.305	18.832	1304.819	1216.707
818.320	18.684	1303.642	1214.412
819.334	18.546	1302.952	1212.647
820.349	18.717	1301.649	1212.500
821.364	18.667	1300.304	1210.748
822.378	18.668	1299.219	1209.600
823.393	18.618	1297.885	1207.858
824.407	18.511	1296.610	1205.769
825.422	18.458	1296.355	1205.013
826.437	18.401	1295.467	1203.641
827.451	18.482	1292.862	1201.650
828.466	18.428	1291.321	1199.696
829.480	18.475	1289.727	1198.398
830.495	18.443	1288.138	1196.555
831.509	18.413	1288.032	1196.100
832.524	18.551	1286.476	1195.484
833.539	18.628	1285.402	1194.878
834.553	18.588	1284.970	1194.052
835.568	18.619	1283.783	1193.024
836.582	18.861	1282.365	1193.253
837.597	18.738	1281.665	1191.605
838.612	18.832	1279.637	1190.231
839.626	18.889	1278.292	1189.229
840.641	18.813	1278.068	1188.353
841.655	18.677	1277.565	1186.797
842.670	18.596	1276.299	1184.917
843.685	18.512	1275.273	1183.239
844.699	18.757	1273.274	1182.942
845.714	18.691	1272.325	1181.458
846.728	18.701	1272.306	1181.369
847.743	18.880	1270.918	1181.179
848.758	18.706	1269.781	1178.781
849.772	18.693	1268.334	1177.206
850.787	18.844	1266.929	1176.799
851.801	18.708	1265.969	1174.829
852.816	18.754	1264.679	1173.807
853.831	18.586	1263.262	1171.204
854.845	18.393	1261.954	1168.524
855.860	18.557	1260.059	1167.753
856.874	18.494	1259.571	1166.733
857.889	18.440	1257.815	1164.592
858.904	18.369	1256.498	1162.754
859.918	18.322	1255.020	1160.928
860.933	18.276	1253.475	1159.041
861.947	18.497	1253.112	1160.071
862.962	18.501	1251.720	1158.673
863.977	18.462	1250.976	1157.580
864.991	18.397	1250.946	1156.970
866.006	18.558	1250.076	1157.123
867.020	18.698	1248.529	1156.500
868.035	18.716	1246.991	1155.058
869.049	18.658	1246.197	1153.792
870.064	18.802	1245.238	1153.740
871.079	18.777	1244.267	1152.534
872.093	18.904	1243.570	1152.608
873.108	18.953	1242.880	1152.155
874.122	18.744	1242.479	1150.238
875.137	18.428	1242.035	1147.561
876.152	18.826	1240.428	1148.615
877.166	18.964	1238.255	1147.396
878.181	18.924	1236.738	1145.582
879.195	18.805	1236.882	1144.779
880.210	18.855	1236.308	1144.444
881.225	18.812	1235.487	1143.266
882.239	18.697	1234.403	1141.354
883.254	18.790	1233.764	1141.248
884.268	18.734	1232.718	1139.768
885.283	18.875	1230.669	1138.677
886.298	18.763	1229.466	1136.683
887.312	18.751	1228.542	1135.612
888.327	18.891	1227.759	1135.686
889.341	18.930	1226.173	1134.337
890.356	18.695	1225.380	1131.913
891.371	18.649	1225.383	1131.479
892.385	18.860	1224.476	1131.902
893.400	18.702	1223.411	1129.735
894.414	18.750	1222.296	1128.889
895.429	18.537	1221.263	1126.393
896.444	18.325	1219.616	1123.342
897.458	18.299	1218.202	1121.730
898.473	18.475	1217.613	1122.210
899.487	18.735	1216.070	1122.366
900.502	18.811	1215.095	1121.832
901.517	18.744	1214.809	1120.993
902.531	18.827	1213.173	1119.891
903.546	18.867	1213.105	1119.955
904.560	18.831	1212.087	1118.645
905.575	18.794	1211.096	1117.357
906.589	18.932	1210.380	1117.464
907.604	19.005	1209.280	1116.793
