DTS Sentinel unit serial number:	SN409020Multiplexer serial number:	ORYXHardware model number:	OX4-SRSoftware version number:	ORYX F/W v3.00 Oryx Data Collector v3.7.2.0data status	okinstallation	HaddamTimeLapsedifferential loss correction	single-endedforward channel	channel 3reverse channel	N/Adate	2011/06/21time	14:16:17forward acquisition time	30.00reverse acquisition time	0.00gamma	498.7831k internal	0.1834k external	0.1834temperature offset calibration	1.0074default loss term (dB/km)	0.3790temperature slope calibration	1.3530multiplexer offset coefficient	1.0000multiplexer slope coefficient	1.0000fibre end	0.00T internal ref (°C)	38.47T ext. ref 1 (°C)	31.31T ext. ref 2 (°C)	0.25length (m)	temperature (°C)	Stokes	anti-Stokes-747.200	800.000	-0.126	-0.670
-746.185	-46.700	0.356	0.221
-745.171	42.619	0.154	0.178
-744.156	115.516	0.375	0.582
-743.142	265.528	0.326	0.723
-742.127	22.882	0.380	0.395
-741.112	646.058	-0.105	-0.343
-740.098	-168.739	0.486	-0.023
-739.083	15.881	0.253	-0.252
-738.069	800.000	0.138	0.703
-737.054	-2.810	-0.333	-0.295
-736.039	-97.356	0.274	0.090
-735.025	610.696	-0.031	-0.097
-734.010	-66.051	0.178	0.090
-732.996	-200.000	-0.029	0.164
-731.981	800.000	0.136	0.648
-730.966	461.866	-0.208	0.591
-729.952	17.947	-0.448	0.453
-728.937	-58.205	-0.349	0.192
-727.923	-51.555	0.141	-0.083
-726.908	-200.000	-0.012	0.128
-725.894	108.486	-0.185	0.281
-724.879	685.649	0.084	0.281
-723.864	284.426	0.139	-0.318
-722.850	-73.395	-0.363	-0.168
-721.835	-113.954	-0.091	-0.022
-720.821	800.000	0.023	-0.095
-719.806	-29.704	0.338	-0.244
-718.791	-50.903	0.243	0.144
-717.777	289.089	-0.238	0.549
-716.762	407.193	0.027	0.073
-715.748	800.000	-0.074	0.283
-714.733	-152.652	-0.120	0.011
-713.718	800.000	-0.043	0.232
-712.704	52.137	-0.163	-0.197
-711.689	371.162	-0.035	0.091
-710.675	-148.603	-0.345	0.035
-709.660	-200.000	0.034	-0.200
-708.645	383.119	-0.094	-0.245
-707.631	-20.915	-0.362	0.281
-706.616	281.674	0.139	-0.316
-705.602	672.664	0.194	-0.641
-704.587	800.000	-0.010	-0.054
-703.572	-165.309	-0.624	0.034
-702.558	800.000	0.021	-0.086
-701.543	-119.285	-0.144	-0.031
-700.529	-200.000	0.027	-0.198
-699.514	-178.040	0.163	-0.005
-698.499	800.000	0.100	-0.481
-697.485	95.859	0.177	-0.256
-696.470	-106.164	0.294	0.083
-695.456	-90.358	0.495	0.181
-694.441	-79.636	0.219	0.093
-693.426	-95.394	0.165	-0.056
-692.412	-200.000	-0.000	0.212
-691.397	-77.566	-0.227	0.099
-690.383	-145.900	0.390	-0.043
-689.368	-47.969	-0.223	-0.136
-688.354	137.055	-0.394	-0.653
-687.339	800.000	-0.121	0.566
-686.324	-68.329	0.240	0.118
-685.310	-81.450	0.213	0.088
-684.295	34.724	0.318	0.351
-683.281	-127.004	-0.063	-0.012
-682.266	-21.511	-0.008	-0.006
-681.251	108.142	-0.192	0.291
-680.237	596.637	-0.065	-0.205
-679.222	48.441	-0.184	-0.218
-678.208	-171.788	-0.492	0.020
-677.193	800.000	0.141	0.516
-676.178	-115.302	-0.243	0.058
-675.164	-27.733	0.316	-0.232
-674.149	178.170	0.079	-0.146
-673.135	-167.163	0.059	-0.003
-672.120	-129.715	-0.055	0.010
-671.105	130.984	-0.054	0.088
-670.091	222.818	0.144	-0.295
-669.076	-200.000	0.030	-0.273
-668.062	205.613	-0.153	0.301
-667.047	-200.000	0.028	0.217
-666.032	-1.847	0.284	-0.252
-665.018	-195.006	-0.277	0.003
-664.003	103.710	0.171	0.254
-662.989	567.397	-0.167	-0.517
-661.974	36.529	0.170	-0.189
-660.959	800.000	0.053	-0.290
-659.945	-200.000	-0.072	-0.403
-658.930	-78.572	-0.209	-0.090
-657.916	-200.000	0.069	0.400
-656.901	-77.281	-0.217	-0.095
-655.886	-91.370	0.335	0.120
-654.872	-146.121	0.277	0.030
-653.857	-22.400	-0.258	-0.197
-652.843	-124.695	-0.739	0.143
-651.828	-106.767	-0.220	0.061
-650.814	-125.060	0.333	0.064
-649.799	45.652	0.369	0.431
-648.784	144.914	-0.381	-0.645
-647.770	155.050	0.236	-0.410
-646.755	-82.836	0.552	-0.224
-645.741	143.744	-0.223	0.376
-644.726	-110.799	-0.094	0.024
-643.711	195.533	0.048	0.093
-642.697	-87.382	0.437	-0.167
-641.682	-200.000	-0.044	-0.561
-640.668	16.329	-0.449	-0.447
-639.653	31.771	-0.090	-0.098
-638.638	-200.000	0.068	-0.614
-637.624	73.275	0.116	-0.153
-636.609	587.620	-0.019	0.059
-635.595	52.439	0.385	0.465
-634.580	-200.000	-0.060	0.478
-633.565	131.348	-0.150	0.245
-632.551	-70.262	-0.448	-0.214
-631.536	-153.731	-0.295	-0.025
-630.522	-107.295	-0.193	0.053
-629.507	53.651	0.235	-0.285
-628.492	-140.902	-0.151	0.019
-627.478	-29.414	0.280	0.202
-626.463	302.565	-0.066	-0.154
-625.449	16.334	0.197	0.196
-624.434	-101.894	0.577	0.175
-623.419	-79.103	0.106	0.045
-622.405	-59.704	0.418	-0.226
-621.390	-77.834	-0.153	0.066
-620.376	253.868	-0.107	-0.231
-619.361	27.631	-0.122	-0.129
-618.346	-113.885	-0.213	-0.052
-617.332	800.000	-0.046	-0.205
-616.317	-108.245	0.360	-0.098
-615.303	-95.259	-0.139	-0.047
-614.288	11.027	-0.201	0.194
-613.273	-94.908	-0.255	-0.087
-612.259	-132.705	-0.162	0.026
-611.244	-12.238	-0.436	-0.359
-610.230	69.465	-0.435	-0.565
-609.215	-97.697	0.072	0.023
-608.201	-130.922	-0.219	-0.037
-607.186	-95.956	-0.281	-0.094
-606.171	63.564	0.229	-0.291
-605.157	-45.645	-0.292	0.182
-604.142	206.269	-0.085	0.167
-603.128	-18.690	0.205	0.161
-602.113	-46.977	-0.365	0.224
-601.098	217.200	0.028	-0.056
-600.084	-71.260	-0.111	0.053
-599.069	-74.478	0.358	0.162
-598.055	-32.676	0.239	-0.167
-597.040	-20.124	0.368	-0.286
-596.025	27.961	-0.235	-0.250
-595.011	-136.566	-0.609	-0.088
-593.996	35.217	0.181	0.200
-592.982	11.044	-0.275	0.265
-591.967	404.317	-0.040	0.107
-590.952	-14.487	-0.152	-0.123
-589.938	94.610	0.113	-0.162
-588.923	800.000	-0.032	-0.127
-587.909	-24.064	-0.356	-0.268
-586.894	-200.000	-0.081	-0.519
-585.879	-40.473	-0.072	0.047
-584.865	-89.722	-0.312	0.115
-583.850	21.999	-0.411	0.422
-582.836	-76.403	-0.360	0.159
-581.821	-200.000	0.039	0.230
-580.806	87.007	-0.329	0.458
-579.792	-179.524	0.348	-0.009
-578.777	178.832	0.102	-0.188
-577.763	-73.486	0.530	-0.243
-576.748	-98.089	0.131	-0.042
-575.733	-200.000	-0.048	-0.312
-574.719	-39.736	-0.428	-0.281
-573.704	-126.862	-0.361	-0.066
-572.690	-200.000	0.030	-0.667
-571.675	-69.184	0.321	-0.155
-570.661	-182.588	-0.130	0.003
-569.646	800.000	-0.221	0.892
-568.631	-83.174	-0.289	-0.117
-567.617	-49.184	0.103	0.062
-566.602	87.839	-0.120	0.168
-565.588	-17.752	0.240	-0.190
-564.573	-58.297	-0.199	0.109
-563.558	-55.176	-0.320	0.181
-562.544	-161.397	0.224	-0.014
-561.529	-175.328	-0.426	0.014
-560.515	-132.667	0.202	-0.032
-559.500	-129.433	0.349	0.060
-558.485	151.982	0.159	-0.273
-557.471	-102.410	-0.345	0.103
-556.456	56.123	-0.220	0.269
-555.442	35.119	-0.315	-0.348
-554.427	-64.566	-0.264	-0.134
-553.412	-59.342	-0.548	0.296
-552.398	-125.844	-0.375	0.071
-551.383	112.984	-0.138	-0.212
-550.369	800.000	-0.110	0.486
-549.354	22.633	-0.071	0.074
-548.339	-131.767	-0.148	0.024
-547.325	402.650	-0.088	-0.235
-546.310	-178.825	0.263	0.007
-545.296	-117.033	0.380	0.087
-544.281	-200.000	-0.007	-0.280
-543.266	0.741	-0.219	0.197
-542.252	275.958	-0.042	-0.094
-541.237	-20.127	0.314	0.243
-540.223	-149.331	0.246	0.024
-539.208	-200.000	-0.028	-0.463
-538.193	2.989	0.130	-0.119
-537.179	-154.673	-0.062	0.005
-536.164	-200.000	0.039	-0.300
-535.150	-139.741	-0.170	-0.022
-534.135	-153.641	0.445	-0.038
-533.121	-149.582	0.220	0.022
-532.106	-200.000	-0.034	-0.246
-531.091	-29.482	0.415	0.298
-530.077	35.784	0.253	-0.279
-529.062	800.000	0.060	-0.321
-528.048	-81.806	0.399	0.164
-527.033	742.732	-0.045	0.153
-526.018	-87.487	0.175	-0.066
-525.004	-91.024	-0.183	-0.066
-523.989	-153.329	-0.402	0.035
-522.975	0.189	-0.153	-0.137
-521.960	-7.460	-0.140	0.119
-520.945	800.000	0.131	0.539
-519.931	117.805	0.115	0.179
-518.916	-56.637	-0.285	0.158
-517.902	-157.918	0.607	-0.044
-516.887	650.558	-0.051	-0.166
-515.872	-153.448	-0.494	-0.043
-514.858	85.764	-0.208	-0.288
-513.843	94.773	0.107	-0.154
-512.829	-0.228	0.238	0.212
-511.814	-107.008	-0.193	-0.053
-510.799	-81.790	-0.329	0.135
-509.785	-127.109	0.306	0.056
-508.770	49.518	0.291	-0.344
-507.756	-200.000	-0.025	0.159
-506.741	71.462	0.192	0.251
-505.726	-200.000	0.064	0.360
-504.712	-200.000	0.008	-0.178
-503.697	12.850	-0.403	-0.391
-502.683	-87.360	0.425	-0.161
-501.668	-200.000	0.045	-0.251
-500.653	-200.000	0.008	0.121
-499.639	-130.102	-0.825	-0.140
-498.624	-42.179	-0.105	0.067
-497.610	29.225	0.568	0.606
-496.595	-112.357	-0.474	0.118
-495.581	238.700	0.139	-0.290
-494.566	-136.271	-0.148	-0.021
-493.551	755.564	-0.032	0.108
-492.537	3.608	-0.377	0.345
-491.522	-120.092	0.296	0.063
-490.508	-200.000	0.030	-0.305
-489.493	-47.129	0.631	0.385
-488.478	-200.000	-0.041	0.252
-487.464	-200.000	0.029	-0.178
-486.449	461.314	-0.205	-0.576
-485.435	150.411	-0.244	-0.417
-484.420	-176.603	0.235	-0.007
-483.405	-101.430	0.414	-0.126
-482.391	-5.951	-0.153	0.131
-481.376	-81.612	-0.517	0.212
-480.362	-19.992	0.408	-0.315
-479.347	155.516	0.158	-0.274
-478.332	576.747	0.119	-0.366
-477.318	218.800	0.089	-0.180
-476.303	-89.434	0.236	0.087
-475.289	-130.981	0.089	-0.015
-474.274	362.750	0.063	0.161
-473.259	-59.173	-0.291	0.157
-472.245	-200.000	0.072	-0.435
-471.230	547.588	0.099	-0.299
-470.216	42.105	-0.283	0.323
-469.201	353.031	0.088	0.221
-468.186	-63.760	0.510	0.261
-467.172	-60.192	-0.630	0.336
-466.157	161.152	0.119	0.210
-465.143	-155.801	0.186	-0.015
-464.128	440.140	0.128	0.353
-463.113	-31.669	-0.471	-0.331
-462.099	240.774	-0.096	-0.202
-461.084	-200.000	0.068	0.640
-460.070	266.894	0.034	-0.075
-459.055	63.381	0.141	0.178
-458.040	-15.591	0.426	0.340
-457.026	451.325	0.095	0.264
-456.011	-94.873	-0.158	-0.053
-454.997	-56.781	-0.304	0.168
-453.982	-200.000	0.041	-0.238
-452.968	155.170	0.142	-0.245
-451.953	40.851	-0.139	0.157
-450.938	800.000	-0.098	-0.411
-449.924	-96.380	-0.502	-0.165
-448.909	-32.886	0.181	-0.126
-447.895	104.419	-0.113	0.167
-446.880	-23.350	-0.423	-0.318
-445.865	127.240	0.136	-0.217
-444.851	-65.071	0.281	-0.142
-443.836	-124.029	-0.198	-0.039
-442.822	129.274	-0.342	-0.549
-441.807	121.757	0.292	-0.457
-440.792	-41.924	0.328	0.210
-439.778	-92.094	0.423	0.149
-438.763	-134.872	0.170	0.026
-437.749	13.319	0.149	0.144
-436.734	-168.140	0.436	0.021
-435.719	208.541	0.172	0.337
-434.705	-41.943	-0.077	-0.049
-433.690	-66.957	-0.585	0.288
-432.676	608.073	-0.248	0.780
-431.661	-200.000	-0.073	0.414
-430.646	-92.994	0.112	-0.039
-429.632	268.332	-0.006	-0.013
-428.617	-200.000	0.016	-0.347
-427.603	-74.287	-0.168	-0.076
-426.588	195.202	0.139	-0.265
-425.573	-118.104	-0.218	0.048
-424.559	78.227	-0.092	-0.123
-423.544	-18.783	-0.331	0.258
-422.530	54.407	0.303	-0.365
-421.515	-58.047	-0.284	-0.155
-420.500	97.754	0.131	-0.189
-419.486	171.594	-0.076	-0.136
-418.471	125.453	-0.081	0.129
-417.457	147.526	-0.169	0.285
-416.442	-97.569	0.103	-0.033
-415.428	-84.725	0.343	0.134
-414.413	-113.913	0.105	-0.025
-413.398	800.000	-0.030	-0.159
-412.384	547.545	-0.059	-0.178
-411.369	-150.301	-0.388	0.037
-410.355	-176.613	-0.093	0.003
-409.340	-146.595	-0.464	0.050
-408.325	-117.039	-0.205	-0.046
-407.311	-186.797	0.239	0.004
-406.296	-53.107	-0.352	-0.202
-405.282	-200.000	-0.005	0.206
-404.267	153.766	0.193	-0.331
-403.252	-119.937	0.220	-0.047
-402.238	-200.000	0.014	0.167
-401.223	-149.917	0.220	-0.021
-400.209	-200.000	0.035	0.325
-399.194	6.369	-0.070	-0.065
-398.179	-94.372	0.294	-0.100
-397.165	-119.017	0.348	-0.076
-396.150	-89.352	0.102	0.038
-395.136	-61.687	0.455	-0.238
-394.121	800.000	0.060	0.234
-393.106	-74.763	-0.164	-0.073
-392.092	-125.127	0.397	0.075
-391.077	-162.367	-0.424	0.026
-390.063	-102.173	0.347	0.104
-389.048	-200.000	0.044	0.319
-388.033	-66.284	0.187	-0.093
-387.019	-126.275	-0.115	0.021
-386.004	190.236	0.088	-0.166
-384.990	122.598	-0.360	-0.565
-383.975	-17.779	-0.247	-0.193
-382.960	116.175	-0.200	-0.307
-381.946	800.000	0.045	0.194
-380.931	-73.752	0.328	0.148
-379.917	120.489	0.206	0.321
-378.902	267.600	-0.063	0.138
-377.888	27.773	0.121	0.128
-376.873	-138.087	0.205	0.028
-375.858	-179.707	0.305	-0.008
-374.844	800.000	-0.004	-0.019
-373.829	23.441	0.204	-0.210
-372.815	476.099	-0.059	0.167
-371.800	-200.000	0.033	0.285
-370.785	800.000	0.035	-0.183
-369.771	800.000	-0.099	-0.345
-368.756	-72.689	0.085	0.039
-367.742	-27.845	0.146	0.105
-366.727	-200.000	0.098	-0.644
-365.712	95.695	0.328	-0.469
-364.698	-53.518	-0.279	-0.159
-363.683	20.769	0.241	0.243
-362.669	13.158	0.326	0.316
-361.654	-90.466	0.101	0.036
-360.639	-200.000	0.012	0.536
-359.625	509.505	-0.141	-0.412
-358.610	-200.000	-0.021	0.140
-357.596	-200.000	-0.035	0.370
-356.581	-55.249	0.318	0.178
-355.566	141.687	0.219	0.364
-354.552	-200.000	-0.028	-0.217
-353.537	-134.459	0.327	0.050
-352.523	-186.364	0.506	-0.009
-351.508	26.201	0.189	0.197
-350.493	-170.801	0.183	0.008
-349.479	4.020	0.149	0.136
-348.464	-200.000	-0.009	-0.270
-347.450	-54.334	-0.496	0.280
-346.435	323.036	-0.052	0.124
-345.420	-128.967	-0.559	-0.097
-344.406	800.000	0.122	0.470
-343.391	-200.000	-0.014	0.205
-342.377	-185.859	0.128	-0.002
-341.362	-200.000	0.007	-0.453
-340.348	99.329	0.126	-0.183
-339.333	-200.000	-0.012	0.312
-338.318	-200.000	0.005	-0.390
-337.304	-19.109	-0.378	0.292
-336.289	409.868	0.070	-0.186
-335.275	-122.586	0.294	0.059
-334.260	-4.281	-0.231	-0.199
-333.245	614.016	-0.024	0.077
-332.231	231.701	0.225	-0.462
-331.216	108.293	-0.067	0.099
-330.202	96.293	-0.110	0.158
-329.187	-200.000	0.013	-0.238
-328.172	-9.539	-0.607	0.504
-327.158	-61.165	-0.209	0.109
-326.143	-200.000	-0.027	0.284
-325.129	-200.000	-0.031	-0.398
-324.114	-200.000	-0.065	-0.570
-323.099	800.000	0.133	0.506
-322.085	-172.057	0.265	0.011
-321.070	1.102	-0.229	-0.205
-320.056	318.649	0.034	0.080
-319.041	768.411	-0.015	0.052
-318.026	-112.675	0.460	-0.113
-317.012	245.977	0.133	-0.280
-315.997	-18.906	0.073	0.056
-314.983	-45.704	-0.391	-0.240
-313.968	1.796	0.170	-0.153
-312.953	-43.771	-0.165	0.103
-311.939	12.943	-0.433	0.417
-310.924	6.258	-0.142	-0.131
-309.910	-200.000	-0.015	0.234
-308.895	673.438	-0.149	0.483
-307.880	-56.462	-0.215	0.118
-306.866	-110.569	0.195	0.050
-305.851	-50.102	0.438	0.258
-304.837	63.952	0.310	-0.389
-303.822	-200.000	-0.002	-0.127
-302.807	800.000	-0.064	0.300
-301.793	84.187	0.186	0.254
-300.778	-100.473	-0.246	-0.075
-299.764	143.353	0.225	0.374
-298.749	-200.000	-0.010	0.409
-297.735	-20.589	0.404	0.309
-296.720	-200.000	-0.055	0.385
-295.705	36.211	0.233	-0.256
-294.691	182.728	0.051	0.095
-293.676	-123.295	0.259	-0.051
-292.662	-118.570	0.138	0.030
-291.647	-31.513	-0.225	0.157
-290.632	-28.632	-0.288	-0.206
-289.618	-200.000	0.031	-0.172
-288.603	-63.987	0.288	0.146
-287.589	5.374	-0.022	-0.020
-286.574	-142.927	0.163	-0.019
-285.559	116.211	0.152	0.232
-284.545	800.000	-0.022	0.103
-283.530	16.060	0.113	-0.111
-282.516	-200.000	-0.022	-0.203
-281.501	506.141	0.090	0.262
-280.486	-17.610	0.126	-0.098
-279.472	800.000	-0.059	-0.264
-278.457	-96.698	0.280	-0.091
-277.443	76.930	0.317	0.419
-276.428	-200.000	-0.040	-0.375
-275.413	-165.705	-0.164	0.009
-274.399	12.068	-0.148	0.142
-273.384	22.945	0.156	0.159
-272.370	94.480	-0.032	-0.045
-271.355	-57.400	-0.092	-0.050
-270.340	-200.000	-0.006	0.064
-269.326	-14.144	-0.318	0.255
-268.311	-200.000	0.004	-0.252
-267.297	800.000	0.093	0.328
-266.282	283.405	0.211	0.475
-265.267	-78.897	-0.101	-0.043
-264.253	-57.962	0.511	-0.277
-263.238	-68.657	-0.462	-0.222
-262.224	-180.027	-0.494	0.013
-261.209	348.296	0.065	0.161
-260.195	800.000	0.089	-0.326
-259.180	-200.000	0.001	0.408
-258.165	-67.644	-0.249	-0.121
-257.151	800.000	-0.107	-0.419
-256.136	2.053	0.177	0.159
-255.122	-200.000	-0.008	-0.214
-254.107	5.500	0.463	-0.425
-253.092	-112.330	-0.188	0.047
-252.078	800.000	-0.068	-0.331
-251.063	204.003	-0.158	-0.305
-250.049	-148.774	-0.168	0.017
-249.034	-114.886	-0.223	-0.052
-248.019	-48.748	-0.505	0.301
-247.005	800.000	0.019	-0.075
-245.990	569.000	-0.059	0.179
-244.976	-113.134	-0.308	0.075
-243.961	697.935	-0.099	0.326
-242.946	-169.363	-0.283	-0.013
-241.932	260.436	-0.045	0.098
-240.917	106.880	-0.167	0.248
-239.903	-3.193	0.120	-0.104
-238.888	-7.378	0.531	0.447
-237.873	654.076	-0.164	0.525
-236.859	-151.656	-0.191	0.017
-235.844	-153.895	0.513	-0.043
-234.830	-27.701	0.273	0.197
-233.815	800.000	-0.053	-0.245
-232.800	-157.151	-0.069	-0.005
-231.786	50.563	0.103	-0.121
-230.771	130.054	0.152	-0.242
-229.757	-8.110	0.322	0.270
-228.742	67.520	-0.232	0.295
-227.727	-41.930	-0.425	-0.270
-226.713	-100.102	-0.320	0.098
-225.698	-69.353	0.405	-0.193
-224.684	-200.000	0.052	-0.481
-223.669	124.155	-0.199	-0.312
-222.655	208.440	0.040	-0.077
-221.640	-200.000	-0.021	-0.400
-220.625	-200.000	-0.027	-0.166
-219.611	-159.885	0.407	-0.027
-218.596	375.699	-0.199	-0.506
-217.582	-57.519	0.352	0.191
-216.567	-200.000	-0.038	-0.406
-215.552	342.975	-0.141	0.345
-214.538	182.228	0.147	0.270
-213.523	18.713	-0.063	0.062
-212.509	800.000	0.092	0.367
-211.494	-200.000	0.004	0.079
-210.479	541.691	-0.132	-0.392
-209.465	769.679	0.173	-0.588
-208.450	11.397	0.161	-0.153
-207.436	-95.562	0.316	-0.104
-206.421	703.563	-0.129	0.425
-205.406	-200.000	0.003	0.043
-204.392	-22.307	-0.136	-0.102
-203.377	63.326	-0.247	0.307
-202.363	126.286	0.084	-0.133
-201.348	-54.837	-0.228	-0.127
-200.333	71.783	0.154	0.199
-199.319	-28.377	0.142	-0.101
-198.304	800.000	0.071	-0.333
-197.290	-13.667	-0.119	-0.096
-196.275	-200.000	0.072	0.442
-195.260	-120.605	-0.153	-0.032
-194.246	7.636	-0.129	0.119
-193.231	183.734	-0.246	0.453
-192.217	61.409	-0.273	-0.337
-191.202	43.108	-0.155	0.175
-190.187	-42.459	0.261	-0.165
-189.173	800.000	-0.094	0.354
-188.158	-103.381	0.102	0.030
-187.144	45.898	-0.425	-0.488
-186.129	163.526	-0.054	0.094
-185.114	27.231	-0.434	0.452
-184.100	-62.218	0.621	-0.320
-183.085	-137.926	0.077	0.011
-182.071	-4.435	0.221	-0.189
-181.056	71.960	-0.254	-0.329
-180.042	333.082	-0.080	-0.193
-179.027	21.554	-0.343	0.346
-178.012	-200.000	0.014	0.303
-176.998	11.121	0.145	-0.137
-175.983	-7.723	0.239	0.200
-174.969	-69.780	-0.389	0.183
-173.954	80.850	0.451	-0.604
-172.939	-200.000	0.014	0.191
-171.925	-35.831	0.241	0.161
-170.910	-50.888	0.620	0.360
-169.896	-23.136	-0.307	0.229
-168.881	800.000	-0.078	0.351
-167.866	707.488	0.158	0.522
-166.852	193.524	0.101	-0.190
-165.837	49.685	0.352	0.412
-164.823	-29.558	-0.081	0.057
-163.808	-200.000	0.029	0.337
-162.793	-48.344	0.214	-0.127
-161.779	-30.830	0.263	0.184
-160.764	-101.374	0.181	0.054
-159.750	-9.548	0.139	0.115
-158.735	-200.000	-0.098	0.676
-157.720	-18.831	-0.347	-0.268
-156.706	-100.771	0.240	0.073
-155.691	-143.135	-0.173	-0.020
-154.677	64.352	0.087	0.109
-153.662	-53.952	-0.183	-0.103
-152.647	-164.262	-0.528	0.030
-151.633	-200.000	0.009	-0.368
-150.618	-13.417	0.208	-0.167
-149.604	-27.118	0.373	0.269
-148.589	298.713	0.135	0.310
-147.574	-61.871	-0.094	0.049
-146.560	-4.386	-0.058	0.049
-145.545	800.000	-0.050	-0.195
-144.531	-129.009	0.495	-0.085
-143.516	-33.148	0.308	-0.211
-142.502	360.220	-0.115	0.287
-141.487	13.932	0.485	0.467
-140.472	-46.606	-0.071	0.043
-139.458	-117.159	-0.482	-0.108
-138.443	51.508	0.244	-0.288
-137.429	107.432	0.227	0.335
-136.414	-162.885	-0.771	0.046
-135.399	-197.945	0.278	-0.002
-134.385	121.082	0.066	0.102
-133.370	800.000	-0.039	0.170
-132.356	246.191	0.107	0.224
-131.341	-127.860	0.342	-0.060
-130.326	23.274	0.110	-0.112
-129.312	-0.951	-0.140	-0.122
-128.297	208.314	-0.040	-0.078
-127.283	223.083	0.188	0.377
-126.268	-30.169	0.449	0.315
-125.253	-97.142	0.428	-0.138
-124.239	286.596	-0.089	-0.200
-123.224	800.000	-0.087	0.432
-122.210	-4.988	0.382	0.326
-121.195	276.977	-0.261	0.577
-120.180	-200.000	0.025	0.244
-119.166	-68.045	0.095	0.046
-118.151	-83.607	-0.226	0.089
-117.137	66.148	-0.098	0.123
-116.122	-44.028	-0.663	-0.411
-115.107	-74.875	0.064	0.028
-114.093	-200.000	0.040	-0.298
-113.078	-121.340	0.334	-0.068
-112.064	800.000	0.072	-0.261
-111.049	209.860	-0.095	0.185
-110.034	38.702	0.401	-0.443
-109.020	248.431	-0.146	-0.307
-108.005	-200.000	0.019	-0.359
-106.991	-200.000	-0.001	-0.054
-105.976	145.051	0.083	-0.138
-104.962	179.043	-0.069	-0.126
-103.947	251.918	-0.107	-0.225
-102.932	-70.218	-0.236	0.111
-101.918	-88.705	0.417	0.152
-100.903	800.000	0.151	-0.585
-99.889	-115.849	0.178	0.041
-98.874	-85.560	0.271	-0.104
-97.859	800.000	-0.035	0.166
-96.845	34.155	-0.101	0.109
-95.830	-165.449	0.238	0.013
-94.816	90.216	-0.173	0.239
-93.801	548.483	-0.178	-0.529
-92.786	-161.755	0.470	-0.029
-91.772	657.762	-0.034	0.108
-90.757	-200.000	0.023	-0.267
-89.743	124.077	0.248	0.386
-88.728	-107.034	0.292	-0.079
-87.713	-91.397	0.288	-0.101
-86.699	-66.064	0.150	-0.073
-85.684	-11.245	0.288	0.235
-84.670	-21.680	0.395	0.297
-83.655	-119.817	0.121	-0.026
-82.640	-88.498	0.030	-0.011
-81.626	800.000	-0.084	-0.457
-80.611	-200.000	0.023	0.191
-79.597	307.798	-0.139	-0.321
-78.582	-200.000	0.044	0.247
-77.567	-4.489	-0.312	0.266
-76.553	362.428	0.100	0.250
-75.538	800.000	0.032	-0.156
-74.524	337.834	-0.207	-0.499
-73.509	-190.385	0.077	-0.001
-72.494	-119.013	0.461	0.099
-71.480	-200.000	0.046	-0.304
-70.465	-20.021	-0.232	-0.176
-69.451	17.768	-0.163	-0.160
-68.436	30.496	-0.159	0.168
-67.422	235.425	0.254	0.520
-66.407	-129.448	-0.303	-0.051
-65.392	800.000	-0.145	0.579
-64.378	315.293	0.073	-0.172
-63.363	544.396	0.138	0.408
-62.349	-77.687	0.392	0.167
-61.334	-8.982	-1.195	-0.987
-60.319	49.737	0.198	0.231
-59.305	539.971	-1.924	-5.685
-58.290	-11.768	2.515	2.035
-57.276	490.566	3.475	9.866
-56.261	-200.000	9.580	185.842
-55.246	565.391	1063.337	3200.000
-54.232	75.723	2687.386	3509.207
-53.217	79.229	2649.062	3508.588
-52.203	82.819	2388.359	3208.643
-51.188	41.360	2040.474	2278.866
-50.173	42.022	1903.841	2133.281
-49.159	39.488	1893.343	2094.399
-48.144	38.977	1889.434	2084.533
-47.130	38.992	1885.503	2080.276
-46.115	38.821	1884.162	2076.894
-45.100	38.846	1882.336	2075.060
-44.086	38.784	1882.177	2074.150
-43.071	38.889	1880.476	2073.308
-42.057	38.710	1879.693	2070.465
-41.042	38.757	1878.135	2069.157
-40.027	38.876	1876.943	2069.027
-39.013	38.760	1875.812	2066.465
-37.998	38.697	1873.600	2063.282
-36.984	38.724	1872.712	2062.511
-35.969	38.546	1871.916	2059.666
-34.954	38.675	1869.633	2058.437
-33.940	38.715	1869.515	2058.654
-32.925	38.683	1867.324	2055.821
-31.911	38.635	1866.526	2054.347
-30.896	38.564	1865.879	2052.814
-29.881	38.563	1864.234	2050.907
-28.867	38.478	1862.919	2048.488
-27.852	38.473	1860.606	2045.804
-26.838	38.427	1860.145	2044.733
-25.823	38.407	1858.382	2042.504
-24.809	38.526	1857.294	2042.480
-23.794	38.504	1855.800	2040.525
-22.779	38.448	1855.178	2039.174
-21.765	38.473	1853.390	2037.388
-20.750	38.448	1852.411	2035.967
-19.736	38.365	1850.952	2033.418
-18.721	38.320	1850.168	2032.007
-17.706	38.491	1848.670	2032.062
-16.692	38.248	1847.874	2028.575
-15.677	38.384	1846.628	2028.540
-14.663	38.277	1845.763	2026.401
-13.648	38.317	1843.890	2024.680
-12.633	38.407	1842.586	2024.099
-11.619	38.477	1840.570	2022.537
-10.604	38.414	1839.847	2021.001
-9.590	38.357	1839.508	2019.965
-8.575	38.441	1837.802	2018.881
-7.560	38.248	1837.334	2016.280
-6.546	38.333	1835.832	2015.434
-5.531	38.345	1834.171	2013.655
-4.517	38.362	1833.696	2013.225
-3.502	38.338	1833.129	2012.281
-2.487	38.375	1831.747	2011.066
-1.473	38.627	1828.656	2010.193
-0.458	38.984	1809.929	1993.170
0.556	35.256	1935.627	2078.592
1.571	34.591	2150.765	2301.282
2.586	36.861	2201.231	2383.118
3.600	37.076	2204.385	2388.908
4.615	37.221	2205.434	2391.553
5.629	37.121	2202.955	2387.339
6.644	37.224	2201.714	2386.989
7.659	37.428	2199.989	2387.343
8.673	37.929	2198.341	2391.446
9.688	37.115	2201.709	2384.775
10.702	32.004	2260.913	2383.553
11.717	27.143	2318.961	2380.635
12.731	13.916	2285.608	2173.252
13.746	2.398	2255.529	1994.171
14.761	0.704	2250.323	1967.188
15.775	0.442	2248.446	1961.889
16.790	0.297	2247.524	1958.950
17.804	0.319	2245.434	1957.182
18.819	0.352	2244.634	1956.673
19.834	0.239	2243.446	1953.932
20.848	0.370	2240.906	1953.198
21.863	0.378	2239.170	1951.553
22.877	0.340	2237.890	1949.702
23.892	0.332	2236.339	1948.021
24.907	0.214	2234.219	1944.407
25.921	0.306	2232.831	1944.161
26.936	0.315	2229.979	1941.559
27.950	0.191	2227.324	1937.410
28.965	0.332	2225.481	1937.403
29.980	0.322	2224.431	1936.126
30.994	0.444	2222.721	1935.976
32.009	6.884	2245.457	2039.274
33.023	25.243	2301.218	2331.698
34.038	38.431	2334.070	2538.057
35.053	42.409	2340.367	2596.470
36.067	41.948	2334.491	2583.665
37.082	40.212	2327.889	2553.551
38.096	40.306	2327.576	2554.122
39.111	41.957	2329.599	2577.443
40.126	43.281	2333.027	2598.076
41.140	44.760	2335.980	2620.189
42.155	44.214	2331.121	2607.385
43.169	44.090	2330.068	2604.290
44.184	45.359	2330.610	2620.955
45.199	45.418	2327.314	2617.695
46.213	43.710	2321.418	2588.810
47.228	42.065	2316.710	2562.107
48.242	42.172	2314.784	2561.054
49.257	42.263	2313.942	2560.986
50.271	42.962	2312.544	2568.098
51.286	43.141	2311.036	2568.405
52.301	42.500	2308.660	2557.249
53.315	42.544	2306.568	2555.193
54.330	38.816	2291.850	2491.101
55.344	34.191	2276.671	2415.487
56.359	33.607	2272.131	2402.948
57.374	33.170	2268.088	2392.830
58.388	32.494	2264.810	2380.493
59.403	33.212	2264.166	2388.646
60.417	34.780	2267.120	2411.390
61.432	35.295	2265.190	2415.563
62.447	34.266	2261.518	2398.349
63.461	33.756	2258.164	2388.052
64.476	33.267	2254.496	2377.717
65.490	34.686	2258.208	2399.277
66.505	37.903	2266.976	2449.008
67.520	41.384	2276.413	2502.934
68.534	41.161	2271.508	2494.433
69.549	41.046	2268.968	2489.900
70.563	41.518	2267.340	2493.742
71.578	41.967	2266.754	2498.439
72.593	42.380	2266.287	2502.806
73.607	42.752	2266.077	2506.935
74.622	42.282	2261.650	2495.864
75.636	40.981	2256.373	2473.482
76.651	41.507	2255.825	2479.156
77.666	41.744	2254.160	2479.994
78.680	41.662	2252.718	2477.089
79.695	42.448	2254.429	2488.468
80.709	43.489	2254.878	2501.631
81.724	43.554	2253.718	2500.855
82.739	43.576	2250.042	2496.750
83.753	42.769	2245.374	2481.268
84.768	41.789	2241.126	2464.141
85.782	40.838	2238.166	2448.823
86.797	40.811	2235.841	2445.642
87.812	40.570	2233.597	2439.921
88.826	40.231	2230.840	2432.430
89.841	40.486	2230.468	2434.886
90.855	41.149	2228.179	2440.260
91.870	40.057	2225.282	2423.351
92.884	39.796	2222.754	2417.100
93.899	40.722	2224.139	2429.716
94.914	40.139	2221.123	2418.963
95.928	37.373	2212.021	2374.837
96.943	35.771	2206.707	2349.207
97.957	37.929	2211.398	2380.433
98.972	40.072	2213.641	2408.839
99.987	39.574	2209.357	2397.795
101.001	39.836	2208.283	2399.551
102.016	40.150	2206.243	2400.873
103.030	40.545	2204.944	2403.996
104.045	41.334	2206.433	2414.937
105.060	42.081	2206.154	2423.442
106.074	41.997	2202.880	2418.532
107.089	41.173	2200.134	2405.222
108.103	41.318	2200.870	2407.504
109.118	41.761	2200.289	2411.959
110.133	41.956	2198.455	2412.020
111.147	41.725	2195.575	2405.775
112.162	41.566	2193.592	2401.395
113.176	41.573	2191.379	2398.771
114.191	41.975	2190.243	2402.093
115.206	41.789	2188.963	2398.154
116.220	41.463	2187.059	2391.856
117.235	41.123	2182.481	2382.472
118.249	41.017	2180.039	2378.245
119.264	41.727	2181.676	2388.285
120.279	42.231	2182.168	2394.583
121.293	42.218	2178.503	2390.123
122.308	41.930	2176.150	2383.812
123.322	41.686	2173.410	2377.600
124.337	41.186	2171.632	2369.393
125.352	39.475	2165.433	2341.924
126.366	39.500	2166.761	2343.377
127.381	40.862	2166.468	2359.045
128.395	41.092	2164.638	2359.516
129.410	41.564	2165.714	2366.028
130.424	41.908	2162.601	2366.432
131.439	41.601	2159.019	2358.582
132.454	40.761	2155.684	2344.692
133.468	40.769	2154.319	2343.032
134.483	40.896	2152.888	2342.690
135.497	41.106	2152.484	2344.465
136.512	41.659	2150.981	2349.089
137.527	41.512	2149.207	2345.131
138.541	40.902	2146.319	2334.494
139.556	40.202	2143.833	2323.257
140.570	40.244	2142.435	2321.957
141.585	40.584	2141.756	2324.957
142.600	41.001	2140.800	2328.541
143.614	41.022	2139.748	2327.365
144.629	41.444	2138.888	2331.115
145.643	41.116	2136.246	2324.104
146.658	40.519	2132.976	2313.270
147.673	40.387	2130.407	2308.661
148.687	41.209	2131.954	2319.690
149.702	41.365	2130.343	2319.488
150.716	40.968	2127.732	2311.726
151.731	40.853	2127.940	2310.334
152.746	41.079	2126.413	2311.036
153.760	39.493	2119.332	2284.594
154.775	35.765	2108.946	2229.782
155.789	33.985	2104.628	2204.231
156.804	36.486	2110.892	2239.704
157.819	39.654	2113.809	2279.426
158.833	40.622	2114.025	2290.619
159.848	41.390	2113.926	2299.151
160.862	41.446	2112.439	2297.902
161.877	41.484	2111.383	2296.923
162.892	41.913	2112.091	2302.374
163.906	42.306	2110.978	2305.426
164.921	42.752	2110.085	2309.332
165.935	42.852	2108.313	2308.271
166.950	42.385	2105.913	2299.979
167.964	41.563	2101.889	2285.857
168.979	41.103	2098.732	2276.867
169.994	41.278	2097.616	2277.392
171.008	41.443	2096.751	2278.077
172.023	41.349	2095.039	2274.857
173.037	41.457	2094.818	2275.592
174.052	41.728	2093.574	2277.069
175.067	41.911	2091.617	2276.767
176.081	41.792	2089.485	2272.807
177.096	41.075	2087.741	2262.449
178.110	40.917	2085.348	2257.780
179.125	40.964	2085.389	2258.095
180.140	42.067	2085.973	2271.033
181.154	42.095	2083.966	2268.902
182.169	41.382	2081.561	2257.896
183.183	40.443	2077.075	2242.085
184.198	37.439	2066.312	2196.160
185.213	35.747	2064.148	2174.382
186.227	39.324	2071.558	2222.632
187.242	41.147	2072.512	2244.071
188.256	41.191	2071.065	2242.741
189.271	41.472	2070.752	2245.309
190.286	42.136	2070.346	2252.106
191.300	41.431	2066.349	2239.536
192.315	40.852	2062.702	2228.786
193.329	41.310	2064.234	2235.346
194.344	42.263	2064.831	2246.465
195.359	42.878	2064.561	2252.816
196.373	43.001	2061.911	2251.045
197.388	42.527	2058.954	2242.223
198.402	41.766	2055.315	2229.460
199.417	41.316	2051.828	2220.378
200.432	41.629	2051.311	2223.059
201.446	42.153	2051.112	2228.436
202.461	41.473	2047.983	2217.171
203.475	40.919	2044.684	2207.159
204.490	40.514	2042.932	2200.480
205.504	40.846	2041.925	2202.834
206.519	40.829	2038.327	2198.507
207.534	41.098	2037.562	2200.405
208.548	41.409	2037.680	2203.721
209.563	40.298	2032.515	2185.552
210.577	39.788	2030.705	2177.697
211.592	41.059	2033.373	2194.402
212.607	39.668	2025.450	2170.217
213.621	33.891	2011.398	2091.204
214.636	33.870	2013.155	2092.550
215.650	38.261	2020.851	2148.968
216.665	40.176	2023.989	2173.217
217.680	41.190	2025.293	2185.548
218.694	41.710	2024.157	2189.800
219.709	41.706	2023.277	2188.540
220.723	41.920	2023.726	2191.115
221.738	42.260	2021.676	2192.377
222.753	41.875	2018.080	2183.991
223.767	41.498	2015.192	2176.469
224.782	41.187	2013.384	2170.841
225.796	41.359	2011.963	2170.932
226.811	41.927	2012.715	2177.707
227.826	42.170	2010.871	2178.102
228.840	42.113	2010.159	2176.454
229.855	41.681	2008.429	2169.606
230.869	40.996	2002.585	2155.571
231.884	39.977	2000.027	2141.468
232.899	40.208	2000.119	2143.820
233.913	40.949	2000.604	2152.152
234.928	41.491	2000.861	2158.064
235.942	42.202	2002.169	2166.946
236.957	42.497	1999.507	2167.007
237.972	42.155	1997.015	2160.341
238.986	42.085	1997.285	2159.619
240.001	42.055	1995.319	2156.909
241.015	41.627	1992.265	2148.727
242.030	41.164	1989.443	2140.424
243.045	39.355	1983.101	2113.834
244.059	38.213	1980.316	2098.295
245.074	40.351	1983.404	2124.401
246.088	41.153	1982.519	2131.833
247.103	41.328	1981.085	2131.915
248.117	41.124	1979.691	2127.971
249.132	41.277	1978.597	2128.184
250.147	41.204	1975.889	2124.234
251.161	41.127	1974.455	2121.616
252.176	41.186	1973.356	2120.808
253.190	41.281	1972.032	2120.151
254.205	41.213	1970.521	2117.547
255.220	42.028	1970.303	2125.761
256.234	42.369	1969.892	2128.695
257.249	42.005	1967.484	2121.957
258.263	41.967	1967.498	2121.316
259.278	42.088	1966.532	2121.313
260.293	42.123	1963.677	2118.350
261.307	41.590	1960.918	2109.461
262.322	41.210	1958.718	2102.809
263.336	40.951	1956.231	2097.138
264.351	40.725	1954.386	2092.520
265.366	40.867	1954.145	2093.519
266.380	41.228	1953.648	2096.557
267.395	40.691	1950.440	2087.188
268.409	40.290	1948.630	2080.765
269.424	40.856	1948.507	2086.355
270.439	41.398	1947.736	2090.996
271.453	40.353	1942.240	2073.854
272.468	36.902	1933.600	2028.153
273.482	35.596	1930.172	2010.584
274.497	37.789	1934.381	2037.810
275.512	40.037	1934.979	2061.798
276.526	40.302	1933.980	2063.267
277.541	40.442	1932.995	2063.435
278.555	40.657	1931.884	2064.255
279.570	40.644	1929.029	2060.816
280.585	40.149	1927.225	2053.482
281.599	40.067	1925.858	2050.918
282.614	40.725	1925.710	2057.379
283.628	41.164	1926.239	2062.266
284.643	41.606	1926.497	2066.897
285.657	41.762	1925.887	2067.621
286.672	41.685	1923.533	2064.043
287.687	41.654	1921.920	2061.747
288.701	41.564	1920.661	2059.211
289.716	41.579	1919.561	2057.946
290.730	41.859	1917.780	2058.685
291.745	41.877	1915.922	2056.634
292.760	41.524	1914.874	2051.616
293.774	41.377	1914.365	2049.301
294.789	41.582	1913.165	2049.888
295.803	41.503	1910.468	2045.943
296.818	41.589	1908.975	2044.979
297.833	41.612	1908.474	2044.436
298.847	42.181	1908.719	2050.308
299.862	42.445	1907.264	2051.211
300.876	41.682	1904.309	2039.960
301.891	38.946	1893.832	2000.515
302.906	36.149	1889.775	1967.351
303.920	39.600	1897.242	2010.341
304.935	41.302	1897.482	2027.789
305.949	41.565	1896.248	2028.909
306.964	42.243	1897.411	2036.842
307.979	42.394	1894.619	2035.144
308.993	40.779	1890.879	2014.430
310.008	40.818	1888.213	2011.750
311.022	41.412	1888.802	2018.176
312.037	41.942	1888.379	2022.873
313.052	41.788	1885.824	2018.334
314.066	41.264	1882.783	2009.526
315.081	41.134	1881.988	2007.117
316.095	41.131	1880.909	2005.693
317.110	41.235	1879.968	2005.504
318.125	41.365	1877.836	2004.309
319.139	41.421	1877.138	2003.887
320.154	41.781	1875.671	2005.715
321.168	41.978	1875.360	2007.124
322.183	42.295	1874.890	2009.577
323.197	41.951	1873.096	2003.951
324.212	41.627	1870.304	1997.470
325.227	40.787	1868.081	1986.410
326.241	40.446	1864.483	1978.924
327.256	40.611	1863.408	1979.205
328.270	40.520	1863.255	1977.895
329.285	40.635	1863.184	1978.736
330.300	39.953	1858.680	1966.891
331.314	36.260	1848.078	1918.610
332.329	35.180	1846.895	1906.361
333.343	38.718	1854.282	1949.194
334.358	41.275	1856.771	1977.133
335.373	41.759	1855.475	1980.334
336.387	41.646	1853.768	1977.147
337.402	41.688	1852.890	1976.400
338.416	41.536	1850.325	1971.917
339.431	41.416	1849.586	1969.697
340.446	42.221	1849.317	1977.164
341.460	42.414	1848.471	1977.938
342.475	42.653	1846.822	1978.298
343.489	42.178	1843.306	1969.605
344.504	41.761	1842.348	1964.229
345.519	41.900	1841.308	1964.255
346.533	42.203	1839.695	1965.288
347.548	42.024	1837.775	1961.233
348.562	41.444	1836.663	1954.103
349.577	41.770	1836.671	1957.086
350.592	42.210	1835.400	1959.825
351.606	42.256	1834.660	1959.253
352.621	42.517	1832.404	1959.165
353.635	42.166	1831.829	1954.882
354.650	41.902	1830.181	1950.300
355.665	41.843	1827.448	1946.581
356.679	41.721	1826.406	1944.042
357.694	41.599	1824.773	1940.876
358.708	41.765	1823.335	1940.732
359.723	40.827	1818.809	1926.546
360.738	36.596	1807.304	1873.042
361.752	35.102	1807.071	1858.019
362.767	38.803	1811.600	1898.551
363.781	40.526	1813.559	1917.145
364.796	41.462	1814.368	1926.862
365.810	41.023	1811.323	1919.142
366.825	40.526	1809.714	1912.390
367.840	40.982	1809.193	1916.034
368.854	40.634	1807.142	1910.259
369.869	40.649	1805.954	1908.925
370.883	40.914	1805.151	1910.402
371.898	40.885	1805.171	1909.918
372.913	41.454	1804.705	1914.691
373.927	41.709	1803.553	1915.692
374.942	41.954	1802.904	1917.138
375.956	41.968	1801.318	1915.354
376.971	41.521	1798.944	1908.302
377.986	41.510	1796.885	1905.784
379.000	41.729	1796.791	1907.558
380.015	42.254	1795.760	1911.273
381.029	42.058	1794.078	1907.371
382.044	41.784	1791.849	1902.157
383.059	41.743	1789.837	1899.407
384.073	40.833	1787.233	1887.727
385.088	40.085	1785.554	1878.582
386.102	40.720	1785.352	1884.213
387.117	41.668	1784.954	1892.597
388.132	41.625	1783.924	1890.869
389.146	40.543	1779.643	1875.826
390.161	36.107	1769.081	1822.424
391.175	35.090	1767.223	1810.631
392.190	39.032	1772.032	1852.816
393.205	40.556	1772.240	1867.249
394.219	40.913	1771.772	1869.912
395.234	40.830	1770.785	1867.859
396.248	41.095	1769.646	1868.941
397.263	41.086	1767.258	1866.105
398.278	40.685	1763.789	1858.450
399.292	40.380	1763.382	1854.930
400.307	41.663	1766.985	1870.580
401.321	42.500	1764.801	1875.911
402.336	41.738	1763.674	1867.338
403.350	41.752	1762.065	1865.538
404.365	42.415	1762.093	1871.559
405.380	43.317	1762.269	1879.981
406.394	43.224	1761.198	1877.739
407.409	42.497	1758.134	1867.453
408.423	42.053	1756.053	1860.872
409.438	41.959	1754.350	1857.969
410.453	41.857	1752.805	1855.159
411.467	41.903	1752.449	1854.993
412.482	42.408	1751.809	1858.795
413.496	42.382	1750.122	1856.542
414.511	41.914	1747.469	1849.153
415.526	41.877	1745.023	1845.999
416.540	42.664	1745.443	1853.528
417.555	42.689	1744.052	1852.057
418.569	41.338	1742.058	1837.209
419.584	41.889	1742.841	1842.922
420.599	42.098	1742.190	1843.952
421.613	41.037	1738.779	1830.310
422.628	40.582	1737.291	1824.325
423.642	42.337	1739.152	1842.280
424.657	43.387	1738.770	1851.333
425.672	42.137	1735.338	1835.957
426.686	42.086	1733.969	1833.821
427.701	42.045	1733.065	1832.265
428.715	42.780	1733.767	1839.550
429.730	44.260	1736.579	1855.922
430.745	45.807	1736.893	1870.238
431.759	45.990	1735.942	1870.663
432.774	44.690	1730.108	1852.274
433.788	38.265	1712.373	1774.665
434.803	31.178	1699.664	1696.807
435.818	29.772	1696.220	1680.332
436.832	29.695	1695.442	1678.653
437.847	29.007	1689.611	1666.419
438.861	19.515	1662.185	1553.722
439.876	4.916	1634.768	1397.135
440.890	0.648	1627.161	1352.128
441.905	0.447	1624.857	1348.249
442.920	0.382	1623.697	1346.544
443.934	0.339	1622.731	1345.190
444.949	0.327	1621.812	1344.163
445.963	0.363	1620.385	1343.138
446.978	0.236	1620.922	1342.286
447.993	0.274	1619.299	1341.117
449.007	0.349	1616.376	1339.210
450.022	0.394	1614.384	1337.798
451.036	0.315	1613.512	1336.218
452.051	1.296	1618.749	1349.158
453.066	12.378	1647.333	1473.146
454.080	28.287	1674.637	1642.005
455.095	32.958	1680.408	1689.596
456.109	33.626	1682.044	1697.044
457.124	34.391	1681.479	1703.149
458.139	33.400	1679.130	1691.670
459.153	32.796	1677.075	1683.981
460.168	32.806	1676.101	1682.890
461.182	33.362	1674.355	1685.915
462.197	33.981	1673.682	1690.566
463.212	34.382	1673.380	1693.643
464.226	34.469	1673.145	1693.977
465.241	34.395	1672.124	1692.081
466.255	34.505	1670.336	1691.048
467.270	34.311	1668.544	1687.306
468.285	34.547	1668.258	1688.914
469.299	35.200	1668.088	1694.346
470.314	35.446	1667.300	1695.530
471.328	35.536	1665.714	1694.515
472.343	35.507	1665.734	1694.075
473.358	35.904	1664.736	1696.370
474.372	36.129	1663.860	1697.270
475.387	36.620	1663.712	1701.259
476.401	36.721	1662.145	1700.343
477.416	35.962	1659.839	1691.081
478.430	35.564	1658.527	1686.036
479.445	36.457	1659.147	1694.342
480.460	37.046	1658.717	1698.885
481.474	37.063	1656.895	1696.965
482.489	36.549	1654.219	1689.511
483.503	35.658	1651.290	1678.495
484.518	35.061	1649.666	1671.411
485.533	35.336	1649.895	1673.852
486.547	35.656	1647.082	1673.600
487.562	34.514	1644.077	1660.368
488.576	34.880	1643.767	1663.053
489.591	35.961	1643.866	1672.394
490.606	36.499	1644.241	1677.274
491.620	36.727	1642.298	1677.079
492.635	36.010	1638.858	1667.130
493.649	35.001	1636.426	1655.691
494.664	34.845	1636.800	1654.509
495.679	35.660	1635.657	1660.235
496.693	35.456	1634.201	1656.793
497.708	35.215	1631.951	1652.220
498.722	34.982	1629.621	1647.654
499.737	34.894	1628.975	1646.041
500.752	35.110	1627.691	1646.411
501.766	35.025	1626.535	1644.308
502.781	34.858	1625.088	1641.211
503.795	35.040	1623.167	1640.638
504.810	34.890	1622.436	1638.417
505.825	34.682	1620.651	1634.623
506.839	34.341	1619.039	1629.873
507.854	34.278	1617.429	1627.516
508.868	34.277	1616.005	1625.877
509.883	33.989	1614.925	1622.128
510.898	33.649	1612.267	1616.354
511.912	32.992	1610.446	1608.709
512.927	32.824	1607.700	1604.338
513.941	32.704	1606.300	1601.727
514.956	33.119	1607.502	1606.278
515.971	33.919	1607.020	1612.430
516.985	33.400	1604.971	1605.763
518.000	32.875	1602.776	1598.907
519.014	32.572	1601.200	1594.559
520.029	32.526	1599.270	1592.061
521.043	32.625	1597.492	1590.942
522.058	32.936	1597.425	1593.316
523.073	33.070	1596.780	1593.621
524.087	32.690	1595.578	1589.011
525.102	33.066	1594.570	1590.999
526.116	33.907	1596.030	1599.389
527.131	34.315	1595.111	1601.719
528.146	34.082	1593.185	1597.627
529.160	33.645	1592.069	1592.630
530.175	33.997	1590.843	1594.185
531.189	34.062	1590.090	1593.787
532.204	34.014	1589.810	1592.913
533.219	34.519	1588.747	1595.899
534.233	35.354	1589.680	1603.666
535.248	35.329	1587.662	1601.230
536.262	34.400	1585.505	1591.077
537.277	34.680	1585.679	1593.412
538.292	35.372	1585.099	1598.433
539.306	35.580	1583.366	1598.230
540.321	34.835	1580.474	1588.900
541.335	34.279	1578.140	1581.725
542.350	34.511	1577.940	1583.275
543.365	34.979	1576.721	1585.758
544.379	35.148	1575.426	1585.676
545.394	34.808	1573.577	1580.796
546.408	34.928	1572.544	1580.564
547.423	35.474	1572.464	1584.828
548.438	35.729	1572.120	1586.408
549.452	35.444	1570.908	1582.634
550.467	35.065	1569.016	1577.396
551.481	34.784	1566.592	1572.453
552.496	34.254	1564.979	1566.261
553.511	33.814	1562.708	1560.170
554.525	33.752	1561.724	1558.487
555.540	33.409	1560.470	1554.225
556.554	33.459	1559.293	1553.276
557.569	33.481	1557.502	1551.487
558.583	33.275	1556.210	1548.321
559.598	33.392	1555.702	1548.591
560.613	33.353	1554.614	1547.003
561.627	33.306	1552.628	1544.454
562.642	32.878	1550.117	1538.268
563.656	32.274	1547.582	1530.623
564.671	31.950	1546.488	1526.708
565.686	31.875	1545.119	1524.561
566.700	32.131	1544.224	1525.590
567.715	32.118	1542.787	1523.885
568.729	32.442	1542.002	1525.566
569.744	33.000	1542.539	1530.454
570.759	33.197	1541.630	1530.974
571.773	32.884	1538.689	1525.330
572.788	32.414	1536.847	1519.510
573.802	32.111	1535.505	1515.538
574.817	31.957	1533.258	1511.894
575.832	31.779	1532.040	1509.073
576.846	32.120	1532.375	1511.980
577.861	32.896	1531.735	1517.447
578.875	32.969	1531.173	1517.294
579.890	32.842	1530.137	1515.058
580.905	32.791	1529.406	1513.747
581.919	32.927	1529.090	1514.349
582.934	32.913	1528.403	1513.375
583.948	32.993	1525.788	1511.245
584.963	33.043	1525.021	1510.704
585.978	33.705	1525.085	1515.908
586.992	33.716	1524.141	1514.873
588.007	33.435	1522.928	1511.240
589.021	33.412	1521.955	1509.903
590.036	32.845	1520.201	1503.444
591.051	32.968	1518.369	1502.434
592.065	33.193	1517.123	1502.821
593.080	33.291	1515.734	1502.051
594.094	33.700	1514.762	1504.164
595.109	34.073	1515.364	1507.553
596.123	34.802	1514.665	1512.476
597.138	34.378	1513.131	1507.398
598.153	33.680	1511.374	1499.921
599.167	33.710	1509.149	1497.776
600.182	33.743	1508.141	1496.854
601.196	33.522	1507.413	1494.201
602.211	33.584	1505.975	1493.089
603.226	33.231	1503.498	1487.665
604.240	33.071	1502.570	1485.300
605.255	33.175	1500.073	1483.478
606.269	32.688	1499.742	1479.131
607.284	32.620	1498.238	1476.934
608.299	32.472	1496.211	1473.599
609.313	32.608	1495.766	1474.053
610.328	32.364	1494.394	1470.604
611.342	32.327	1492.548	1468.325
612.357	32.210	1490.482	1465.199
613.372	32.080	1490.242	1463.770
614.386	32.069	1489.140	1462.423
615.401	31.938	1488.377	1460.475
616.415	31.820	1487.089	1458.116
617.430	31.471	1485.116	1453.282
618.445	31.207	1483.420	1449.386
619.459	31.234	1483.067	1449.079
620.474	31.573	1482.799	1451.283
621.488	32.195	1483.594	1456.742
622.503	33.438	1483.634	1466.283
623.518	32.597	1480.370	1456.351
624.532	31.395	1477.530	1444.052
625.547	31.087	1476.000	1439.998
626.561	31.022	1474.775	1438.128
627.576	30.740	1473.938	1434.948
628.591	31.356	1473.557	1439.180
629.605	32.260	1472.955	1445.411
630.620	32.521	1473.646	1447.930
631.634	33.334	1474.526	1454.907
632.649	33.503	1472.666	1454.204
633.663	32.725	1469.446	1444.857
634.678	31.598	1466.643	1433.257
635.693	31.040	1463.933	1426.150
636.707	30.805	1462.654	1422.931
637.722	30.586	1461.589	1420.042
638.736	30.914	1460.501	1421.332
639.751	31.292	1460.113	1423.683
640.766	31.526	1458.997	1424.213
641.780	31.520	1458.203	1423.220
642.795	31.721	1458.012	1424.401
643.809	31.825	1457.525	1424.549
644.824	31.893	1457.193	1424.572
645.839	32.305	1456.396	1426.764
646.853	32.305	1454.742	1424.976
647.868	32.376	1453.350	1423.980
648.882	32.660	1452.612	1425.249
649.897	32.718	1452.199	1425.114
650.912	32.747	1450.251	1423.251
651.926	32.408	1449.169	1419.445
652.941	32.343	1448.474	1418.103
653.955	32.448	1446.345	1416.648
654.970	31.925	1444.562	1410.774
655.985	31.600	1441.652	1405.312
656.999	31.248	1440.444	1401.310
658.014	31.270	1438.804	1399.714
659.028	31.493	1438.753	1401.178
660.043	32.002	1439.282	1405.354
661.058	32.444	1438.341	1407.598
662.072	32.419	1437.835	1406.746
663.087	32.684	1436.282	1407.045
664.101	32.774	1435.019	1406.313
665.116	32.400	1434.591	1402.926
666.131	32.232	1433.053	1399.992
667.145	32.344	1431.681	1399.323
668.160	32.188	1429.433	1395.791
669.174	31.751	1427.320	1390.304
670.189	31.702	1427.374	1389.821
671.204	31.850	1427.448	1390.837
672.218	31.954	1426.243	1390.265
673.233	31.705	1424.651	1386.695
674.247	31.608	1422.575	1383.789
675.262	31.397	1420.731	1380.265
676.276	31.240	1420.114	1378.331
677.291	31.204	1420.119	1377.907
678.306	31.689	1419.967	1381.193
679.320	31.804	1417.947	1379.914
680.335	31.280	1416.444	1374.407
681.349	31.161	1415.428	1372.383
682.364	31.198	1414.177	1371.278
683.379	31.035	1413.202	1368.960
684.393	30.996	1411.243	1366.618
685.408	30.837	1410.135	1364.205
686.422	30.968	1409.233	1364.137
687.437	30.647	1408.655	1361.050
688.452	30.228	1406.996	1356.211
689.466	30.353	1405.132	1355.164
690.481	30.488	1403.774	1354.682
691.495	30.819	1404.695	1357.837
692.510	32.073	1406.137	1368.262
693.525	33.079	1406.349	1375.667
694.539	32.696	1403.055	1369.489
695.554	30.986	1401.070	1354.906
696.568	30.273	1399.064	1347.600
697.583	30.162	1397.527	1345.151
698.598	30.213	1396.767	1344.623
699.612	30.420	1395.176	1344.439
700.627	30.342	1394.438	1343.000
701.641	30.771	1394.224	1345.752
702.656	31.054	1392.996	1346.458
703.671	30.974	1392.017	1344.769
704.685	31.088	1391.615	1345.052
705.700	31.212	1391.188	1345.374
706.714	31.443	1390.199	1345.931
707.729	31.843	1389.139	1347.630
708.744	31.795	1388.048	1346.065
709.758	31.599	1386.345	1342.843
710.773	30.973	1384.364	1336.253
711.787	30.744	1383.111	1333.232
712.802	31.286	1381.969	1335.874
713.816	31.532	1382.229	1337.732
714.831	31.569	1382.040	1337.651
715.846	31.500	1379.889	1334.916
716.860	31.373	1378.037	1332.053
717.875	31.265	1377.372	1330.478
718.889	31.569	1376.767	1331.912
719.904	31.500	1375.420	1329.954
720.919	31.203	1374.160	1326.457
721.933	31.142	1372.271	1324.042
722.948	30.971	1372.191	1322.585
723.962	30.932	1371.082	1321.080
724.977	30.871	1369.398	1318.866
725.992	30.775	1368.238	1316.904
727.006	31.111	1367.538	1318.460
728.021	30.906	1365.972	1315.340
729.035	30.726	1365.003	1312.975
730.050	30.613	1363.894	1310.952
731.065	30.591	1362.726	1309.511
732.079	30.537	1361.305	1307.610
733.094	30.552	1360.679	1306.959
734.108	30.921	1359.376	1308.157
735.123	30.852	1356.985	1305.210
736.138	30.565	1357.094	1303.141
737.152	30.412	1356.368	1301.206
738.167	30.417	1354.332	1299.135
739.181	30.403	1353.686	1298.259
740.196	30.400	1352.516	1296.959
741.211	30.190	1352.252	1295.079
742.225	30.238	1351.414	1294.459
743.240	30.304	1349.221	1292.666
744.254	30.141	1347.706	1289.917
745.269	30.136	1346.378	1288.456
746.284	29.917	1345.824	1286.243
747.298	29.890	1345.093	1285.200
748.313	30.472	1344.807	1288.838
749.327	31.023	1345.878	1293.553
750.342	31.991	1346.577	1300.817
751.356	32.921	1347.643	1308.173
752.371	32.664	1344.412	1303.097
753.386	31.114	1340.736	1288.624
754.400	30.191	1339.136	1280.528
755.415	30.108	1338.241	1278.943
756.429	30.234	1336.410	1277.913
757.444	30.633	1335.397	1279.549
758.459	30.582	1334.463	1278.152
759.473	30.335	1334.004	1275.853
760.488	30.497	1332.619	1275.490
761.502	30.299	1331.282	1272.696
762.517	30.536	1330.559	1273.485
763.532	30.874	1329.551	1274.690
764.546	30.778	1328.247	1272.631
765.561	30.534	1327.299	1269.894
766.575	30.287	1326.118	1266.915
767.590	30.264	1325.229	1265.759
768.605	30.548	1324.527	1266.886
769.619	30.664	1323.855	1266.883
770.634	30.860	1322.808	1267.067
771.648	30.649	1321.527	1264.250
772.663	30.199	1320.293	1259.848
773.678	30.203	1318.893	1258.385
774.692	30.381	1318.190	1258.781
775.707	30.299	1317.492	1257.400
776.721	30.222	1316.856	1256.123
777.736	29.891	1315.806	1252.715
778.751	30.074	1314.607	1252.672
779.765	30.047	1313.306	1251.096
780.780	29.954	1312.754	1249.789
781.794	29.958	1312.221	1249.159
782.809	29.855	1310.533	1246.706
783.824	29.695	1309.611	1244.597
784.838	30.099	1309.482	1247.061
785.853	31.260	1309.607	1254.871
786.867	31.125	1308.887	1253.122
787.882	30.435	1306.651	1246.184
788.897	30.130	1305.068	1242.468
789.911	29.687	1304.154	1238.466
790.926	29.562	1302.403	1235.813
791.940	29.600	1300.677	1234.286
792.955	29.586	1299.921	1233.325
793.969	29.347	1298.919	1230.624
794.984	29.480	1298.146	1230.632
795.999	29.572	1297.805	1230.778
797.013	29.745	1295.760	1229.851
798.028	29.769	1294.538	1228.705
799.042	29.687	1294.118	1227.614
800.057	29.552	1293.132	1225.630
801.072	29.750	1291.274	1225.041
802.086	29.811	1290.945	1224.987
803.101	29.670	1289.691	1222.712
804.115	29.740	1288.752	1222.144
805.130	29.795	1287.750	1221.408
806.145	29.781	1287.085	1220.543
807.159	30.015	1285.421	1220.365
808.174	30.094	1284.831	1220.185
809.188	30.306	1283.899	1220.555
810.203	30.311	1282.246	1218.869
811.218	30.187	1280.864	1216.590
812.232	30.049	1279.894	1214.614
813.247	29.859	1279.479	1212.825
814.261	29.885	1279.350	1212.728
815.276	30.176	1277.459	1212.704
816.291	30.080	1276.227	1210.759
817.305	29.741	1275.350	1207.555
818.320	29.465	1274.039	1204.363
819.334	29.630	1273.044	1204.356
820.349	29.634	1271.599	1202.871
821.364	29.624	1269.938	1201.092
822.378	29.527	1268.478	1198.933
823.393	29.500	1267.122	1197.334
824.407	29.461	1265.840	1195.721
825.422	29.394	1265.740	1195.047
826.437	29.443	1264.572	1194.126
827.451	29.399	1264.013	1193.166
828.466	30.273	1264.196	1198.874
829.480	30.919	1263.162	1201.941
830.495	30.418	1260.206	1195.742
831.509	29.579	1257.983	1188.067
832.524	29.437	1257.254	1186.321
833.539	29.442	1255.697	1184.744
834.553	29.474	1254.418	1183.603
835.568	29.395	1253.367	1181.954
836.582	29.334	1252.724	1180.816
837.597	29.496	1251.680	1180.736
838.612	29.662	1250.338	1180.392
839.626	29.635	1249.502	1179.289
840.641	29.769	1249.104	1179.633
841.655	29.901	1248.331	1179.603
842.670	29.853	1246.669	1177.585
843.685	29.804	1245.764	1176.275
844.699	29.691	1245.357	1175.033
845.714	29.670	1244.262	1173.725
846.728	29.490	1243.457	1171.675
847.743	29.399	1242.319	1169.883
848.758	29.566	1240.828	1169.402
849.772	29.457	1238.921	1166.768
850.787	29.321	1237.462	1164.397
851.801	29.192	1236.398	1162.436
852.816	29.305	1235.512	1162.176
853.831	29.169	1234.387	1160.121
854.845	29.239	1232.738	1158.875
855.860	29.092	1231.348	1156.499
856.874	29.476	1229.989	1157.509
857.889	29.746	1229.891	1158.979
858.904	30.283	1229.759	1162.095
859.918	31.062	1229.767	1166.864
860.933	31.541	1228.625	1168.651
861.947	30.770	1227.139	1162.265
862.962	29.992	1225.095	1155.310
863.977	29.643	1223.475	1151.458
864.991	29.383	1222.134	1148.431
866.006	29.158	1221.652	1146.436
867.020	29.324	1220.179	1145.955
868.035	29.224	1218.942	1144.026
869.049	29.048	1217.857	1141.776
870.064	29.277	1217.059	1142.317
871.079	29.181	1216.832	1141.372
872.093	29.420	1215.641	1141.606
873.108	29.477	1214.835	1141.065
874.122	29.540	1213.790	1140.337
875.137	29.512	1213.518	1139.774
876.152	29.479	1212.890	1138.839
877.166	29.504	1210.928	1137.015
878.181	29.460	1208.949	1134.750
879.195	29.371	1208.473	1133.620
880.210	29.228	1208.148	1132.295
881.225	29.269	1206.753	1131.102
882.239	29.152	1205.953	1129.495
883.254	29.334	1204.348	1128.980
884.268	29.102	1203.703	1126.810
885.283	29.208	1202.017	1125.751
886.298	29.374	1200.804	1125.498
887.312	29.154	1200.148	1123.400
888.327	29.245	1199.289	1123.022
889.341	29.239	1197.875	1121.526
890.356	29.182	1196.844	1120.076
891.371	29.225	1197.685	1120.991
892.385	29.077	1197.303	1119.596
893.400	29.215	1195.817	1118.911
894.414	29.449	1194.722	1119.181
895.429	29.795	1194.316	1120.779
896.444	30.921	1195.182	1128.314
897.458	32.439	1194.442	1136.705
898.473	31.636	1192.380	1129.735
899.487	30.117	1190.454	1118.571
900.502	29.498	1188.203	1112.575
901.517	29.320	1186.137	1109.429
902.531	29.179	1185.641	1107.982
903.546	29.122	1184.934	1106.841
904.560	29.091	1184.096	1105.739
905.575	28.924	1183.579	1104.119
906.589	29.264	1182.268	1104.813
907.604	29.233	1181.348	1103.629
