DTS Sentinel unit serial number:	SN409020Multiplexer serial number:	ORYXHardware model number:	OX4-SRSoftware version number:	ORYX F/W v3.00 Oryx Data Collector v3.7.2.0data status	okinstallation	HaddamTimeLapsedifferential loss correction	single-endedforward channel	channel 3reverse channel	N/Adate	2011/06/22time	09:11:16forward acquisition time	30.00reverse acquisition time	0.00gamma	498.7831k internal	0.1797k external	0.1797temperature offset calibration	1.0074default loss term (dB/km)	0.3790temperature slope calibration	1.3530multiplexer offset coefficient	1.0000multiplexer slope coefficient	1.0000fibre end	0.00T internal ref (°C)	27.78T ext. ref 1 (°C)	23.66T ext. ref 2 (°C)	0.17length (m)	temperature (°C)	Stokes	anti-Stokes-747.200	-200.000	-0.013	0.280
-746.185	24.546	-0.281	0.301
-745.171	-73.311	-0.306	-0.144
-744.156	800.000	0.080	0.409
-743.142	735.671	0.133	-0.463
-742.127	40.335	-0.359	0.419
-741.112	1.483	-0.288	0.268
-740.098	800.000	0.095	0.473
-739.083	-42.317	-0.113	0.075
-738.069	765.941	0.127	0.449
-737.054	-85.791	-0.080	0.032
-736.039	-140.983	-0.341	0.045
-735.025	-71.922	-0.361	-0.173
-734.010	185.073	-0.166	0.319
-732.996	-200.000	-0.095	-0.599
-731.981	-90.463	-0.162	0.060
-730.966	-168.658	-0.377	-0.018
-729.952	464.889	0.151	-0.440
-728.937	-200.000	0.039	0.236
-727.923	-108.249	0.408	0.113
-726.908	-98.583	0.383	-0.126
-725.894	-45.113	-0.491	0.315
-724.879	276.025	0.015	0.035
-723.864	84.037	-0.115	-0.162
-722.850	-29.168	0.139	-0.103
-721.835	-122.732	-0.061	-0.013
-720.821	-136.497	-0.229	-0.034
-719.806	111.504	-0.256	0.400
-718.791	259.838	0.103	-0.230
-717.777	800.000	0.078	-0.296
-716.762	-165.075	0.493	0.028
-715.748	-160.227	0.641	0.044
-714.733	-200.000	0.020	0.317
-713.718	59.813	0.220	-0.281
-712.704	800.000	-0.169	-0.759
-711.689	369.571	-0.050	-0.131
-710.675	-130.158	-0.256	-0.045
-709.660	-54.335	-0.551	0.322
-708.645	242.499	-0.027	0.060
-707.631	-200.000	-0.100	0.581
-706.616	-56.123	0.123	-0.070
-705.602	-200.000	-0.037	-0.367
-704.587	365.794	-0.057	0.149
-703.572	-124.929	-0.131	0.026
-702.558	88.743	-0.222	-0.319
-701.543	800.000	0.020	-0.116
-700.529	-139.560	0.107	-0.015
-699.514	-200.000	-0.013	-0.103
-698.499	470.863	-0.091	0.266
-697.485	424.420	0.029	0.080
-696.470	138.920	0.127	-0.217
-695.456	-106.677	-0.581	-0.166
-694.441	-88.233	-0.568	-0.219
-693.426	-90.861	-0.200	0.074
-692.412	-200.000	-0.002	0.493
-691.397	-200.000	0.004	-0.171
-690.383	35.816	0.082	0.093
-689.368	499.663	0.105	-0.315
-688.354	-200.000	0.010	-0.145
-687.339	619.396	0.162	0.528
-686.324	476.872	-0.101	0.296
-685.310	-44.229	-0.223	-0.144
-684.295	348.109	0.048	0.122
-683.281	-35.097	-0.505	-0.354
-682.266	-41.177	0.234	0.155
-681.251	-179.820	0.239	0.007
-680.237	198.619	0.060	-0.118
-679.222	-200.000	-0.510	-0.001
-678.208	-33.809	-0.379	0.269
-677.193	-105.741	-0.342	-0.099
-676.178	146.699	-0.268	-0.466
-675.164	138.465	0.046	-0.078
-674.149	254.951	0.124	0.275
-673.135	-76.189	0.771	0.349
-672.120	42.664	-0.062	0.073
-671.105	-116.265	0.273	-0.065
-670.091	38.295	-0.337	0.387
-669.076	-10.256	-0.223	0.191
-668.062	800.000	-0.067	0.259
-667.047	595.139	0.080	0.256
-666.032	-108.984	-0.280	0.076
-665.018	-200.000	0.002	-0.107
-664.003	-32.050	-0.401	-0.289
-662.989	-17.792	-0.032	0.026
-661.974	170.529	-0.120	-0.222
-660.959	-200.000	-0.000	-0.167
-659.945	-200.000	-0.046	-0.279
-658.930	-72.336	0.357	-0.170
-657.916	-67.724	-0.317	-0.160
-656.901	-70.246	0.331	-0.161
-655.886	162.233	0.047	-0.085
-654.872	-67.034	-0.437	-0.221
-653.857	-65.579	-0.318	-0.164
-652.843	-99.028	-0.193	0.063
-651.828	800.000	-0.052	-0.240
-650.814	-159.233	-0.100	-0.007
-649.799	800.000	0.033	0.170
-648.784	-4.202	-0.488	-0.435
-647.770	-200.000	-0.021	0.310
-646.755	-200.000	-0.002	0.111
-645.741	800.000	-0.118	-0.542
-644.726	103.597	0.146	0.221
-643.711	121.393	0.096	0.155
-642.697	-127.063	0.143	-0.027
-641.682	-97.885	0.620	-0.205
-640.668	-200.000	0.041	-0.516
-639.653	-0.927	-0.248	0.226
-638.638	61.087	-0.166	0.213
-637.624	800.000	-0.089	0.387
-636.609	-109.050	-0.417	0.114
-635.595	-77.750	0.656	0.291
-634.580	-38.317	0.400	0.272
-633.565	168.009	0.173	-0.318
-632.551	421.521	-0.092	-0.255
-631.536	303.638	-0.206	-0.495
-630.522	-166.704	0.491	0.026
-629.507	-34.131	-0.197	0.139
-628.492	-139.591	-0.382	-0.052
-627.478	106.106	-0.308	-0.471
-626.463	-200.000	-0.036	-0.354
-625.449	-200.000	0.012	-0.265
-624.434	69.224	0.219	-0.290
-623.419	39.902	0.263	-0.305
-622.405	-136.021	0.328	-0.049
-621.390	95.310	-0.292	0.429
-620.376	-200.000	0.037	0.252
-619.361	149.570	-0.254	0.445
-618.346	26.695	-0.164	-0.177
-617.332	-122.488	0.140	-0.029
-616.317	-29.204	0.339	0.250
-615.303	127.868	-0.156	-0.257
-614.288	117.299	-0.278	-0.442
-613.273	415.654	0.142	0.392
-612.259	-77.997	0.418	-0.185
-611.244	8.006	-0.118	-0.113
-610.230	-37.812	-0.135	0.092
-609.215	147.148	-0.167	0.290
-608.201	-84.355	0.339	0.137
-607.186	14.536	0.336	0.338
-606.171	61.521	0.100	-0.128
-605.157	-200.000	-0.031	-0.259
-604.142	800.000	-0.048	0.250
-603.128	-200.000	0.019	-0.223
-602.113	-121.720	0.426	-0.090
-601.098	-27.728	0.263	0.196
-600.084	-113.098	0.303	-0.076
-599.069	-41.535	0.221	0.146
-598.055	-200.000	-0.027	-0.407
-597.040	-138.859	-0.393	-0.054
-596.025	109.650	-0.180	-0.278
-595.011	-120.884	0.334	0.072
-593.996	-151.659	-0.417	-0.039
-592.982	188.866	-0.148	-0.285
-591.967	30.958	-0.289	0.318
-590.952	358.855	-0.264	-0.682
-589.938	292.578	-0.144	0.339
-588.923	-92.777	0.233	-0.083
-587.909	-200.000	-0.042	0.324
-586.894	-89.461	0.691	-0.260
-585.879	-81.320	-0.228	-0.096
-584.865	-200.000	0.032	0.346
-583.850	-98.132	-0.403	-0.132
-582.836	-104.305	-0.070	0.021
-581.821	-64.792	-0.477	0.248
-580.806	800.000	-0.025	-0.121
-579.792	-123.102	0.419	-0.086
-578.777	-200.000	0.032	-0.240
-577.763	-191.894	-0.409	-0.005
-576.748	-140.094	-0.457	-0.061
-575.733	124.748	-0.065	0.105
-574.719	21.748	0.239	-0.250
-573.704	95.421	0.113	-0.166
-572.690	420.072	-0.104	0.289
-571.675	-62.961	-0.153	0.081
-570.661	-144.500	-0.250	-0.029
-569.646	64.537	-0.099	-0.128
-568.631	-92.900	-0.287	0.103
-567.617	32.474	0.177	-0.196
-566.602	2.060	0.147	-0.136
-565.588	-122.864	0.132	0.027
-564.573	-75.379	0.405	0.185
-563.558	-49.684	0.283	0.172
-562.544	-200.000	0.036	-0.413
-561.529	-21.384	-0.148	-0.116
-560.515	30.731	-0.328	-0.361
-559.500	-7.463	-0.469	-0.408
-558.485	411.203	-0.111	-0.304
-557.471	64.976	0.104	-0.134
-556.456	-89.828	0.177	0.066
-555.442	-139.708	-0.099	-0.013
-554.427	74.765	-0.154	-0.209
-553.412	-200.000	0.025	-0.377
-552.398	-112.572	-0.098	0.025
-551.383	-127.242	0.220	0.041
-550.369	-155.146	0.341	0.028
-549.354	196.532	0.179	0.352
-548.339	800.000	-0.027	0.135
-547.325	117.181	0.156	-0.246
-546.310	-200.000	-0.068	-0.509
-545.296	-128.960	-0.311	0.055
-544.281	716.434	-0.135	-0.463
-543.266	263.857	-0.238	-0.534
-542.252	-200.000	0.013	-0.275
-541.237	-43.952	0.455	-0.293
-540.223	118.550	-0.246	0.391
-539.208	-161.709	0.422	-0.027
-538.193	62.029	0.240	0.308
-537.179	800.000	-0.066	0.246
-536.164	336.878	-0.110	-0.276
-535.150	-129.797	-0.171	-0.030
-534.135	-133.927	-0.146	0.023
-533.121	413.149	0.067	0.183
-532.106	107.909	-0.260	0.398
-531.091	570.538	0.037	0.117
-530.077	133.024	0.299	0.496
-529.062	54.300	0.281	-0.347
-528.048	91.348	-0.105	-0.151
-527.033	-66.141	-0.534	-0.272
-526.018	-165.932	0.251	0.014
-525.004	800.000	-0.083	0.405
-523.989	-200.000	-0.005	-0.095
-522.975	-181.164	-0.254	0.006
-521.960	-43.751	-0.418	0.270
-520.945	-200.000	-0.047	-0.285
-519.931	-151.021	0.294	-0.028
-518.916	-27.927	-0.219	-0.163
-517.902	800.000	0.028	-0.123
-516.887	92.952	0.167	0.243
-515.872	94.050	-0.078	0.114
-514.858	-175.403	0.375	-0.013
-513.843	-114.347	-0.463	-0.113
-512.829	-200.000	-0.010	0.193
-511.814	71.388	0.095	0.127
-510.799	333.452	0.071	-0.176
-509.785	-17.401	-0.610	0.492
-508.770	548.840	-0.076	0.236
-507.756	26.199	0.332	0.355
-506.741	-200.000	0.067	0.393
-505.726	330.789	0.249	0.618
-504.712	-165.470	-0.088	-0.005
-503.697	800.000	0.143	-0.789
-502.683	304.398	0.134	0.320
-501.668	800.000	-0.040	0.153
-500.653	-137.591	-0.317	0.045
-499.639	800.000	0.026	-0.097
-498.624	-200.000	-0.021	-0.159
-497.610	800.000	-0.040	-0.156
-496.595	67.298	0.117	-0.153
-495.581	468.559	0.154	0.444
-494.566	-57.043	-0.255	0.143
-493.551	518.535	-0.064	-0.192
-492.537	-41.411	0.313	0.206
-491.522	178.522	0.130	0.243
-490.508	-117.691	0.252	0.058
-489.493	200.258	0.154	0.304
-488.478	-18.000	0.368	0.295
-487.464	-200.000	0.001	-0.328
-486.449	-58.740	-0.597	0.330
-485.435	-35.994	-0.027	0.019
-484.420	-169.824	0.285	-0.013
-483.405	-200.000	-0.045	0.557
-482.391	800.000	0.065	0.262
-481.376	800.000	-0.007	0.029
-480.362	800.000	0.059	-0.246
-479.347	115.197	0.254	-0.398
-478.332	-200.000	-0.040	0.312
-477.318	800.000	-0.054	0.269
-476.303	331.727	-0.054	-0.135
-475.289	-2.189	0.283	-0.254
-474.274	82.626	-0.214	0.298
-473.259	425.364	-0.161	0.447
-472.245	51.829	0.360	0.439
-471.230	-136.376	0.366	-0.054
-470.216	205.055	-0.228	0.455
-469.201	-152.178	-0.163	-0.015
-468.186	35.271	-0.421	-0.473
-467.172	-44.057	-0.089	0.057
-466.157	-171.523	-0.620	-0.026
-465.143	-159.021	0.210	0.015
-464.128	113.903	0.254	0.397
-463.113	24.569	-0.292	0.309
-462.099	-200.000	0.002	-0.305
-461.084	-200.000	-0.073	-0.491
-460.070	-8.269	-0.235	-0.202
-459.055	190.912	0.123	0.238
-458.040	51.604	-0.191	-0.232
-457.026	36.984	0.072	-0.082
-456.011	-2.111	-0.182	-0.164
-454.997	-13.463	-0.160	0.133
-453.982	-170.446	0.215	-0.009
-452.968	410.564	-0.047	-0.129
-451.953	-52.404	-0.376	0.222
-450.938	-131.127	0.300	-0.051
-449.924	800.000	0.106	-0.387
-448.909	15.557	0.108	-0.108
-447.895	445.790	-0.112	-0.316
-446.880	188.174	-0.204	-0.392
-445.865	-200.000	0.012	-0.073
-444.851	25.182	-0.172	0.183
-443.836	-114.201	0.198	0.049
-442.822	-36.221	0.300	-0.206
-441.807	-200.000	-0.002	0.367
-440.792	-95.806	0.409	-0.139
-439.778	128.928	0.183	-0.300
-438.763	-89.037	-0.164	-0.062
-437.749	-38.296	-0.298	-0.201
-436.734	680.217	0.126	0.423
-435.719	89.226	0.285	0.407
-434.705	-26.506	-0.274	0.205
-433.690	583.993	-0.103	0.324
-432.676	800.000	-0.059	-0.214
-431.661	800.000	-0.148	-0.657
-430.646	82.983	0.248	-0.346
-429.632	17.242	-0.117	-0.119
-428.617	-134.516	-0.290	0.045
-427.603	390.948	-0.060	-0.159
-426.588	189.490	0.100	-0.193
-425.573	6.185	0.319	-0.302
-424.559	385.039	-0.201	-0.533
-423.544	60.690	0.205	-0.260
-422.530	154.125	-0.182	-0.319
-421.515	-18.847	-0.253	-0.201
-420.500	-112.034	0.525	-0.134
-419.486	800.000	-0.080	0.381
-418.471	800.000	-0.094	-0.383
-417.457	800.000	-0.044	-0.180
-416.442	-130.818	0.375	0.064
-415.428	-92.965	0.194	-0.069
-414.413	-69.272	0.350	0.171
-413.398	-200.000	0.036	-0.275
-412.384	-200.000	0.042	-0.526
-411.369	-19.258	0.230	0.182
-410.355	-55.993	-0.286	0.162
-409.340	11.997	0.036	0.036
-408.325	-54.138	0.225	-0.130
-407.311	-81.739	0.348	0.145
-406.296	317.605	-0.271	0.658
-405.282	-200.000	-0.039	-0.317
-404.267	-200.000	-0.010	0.187
-403.252	-200.000	-0.103	0.677
-402.238	-10.566	-0.569	0.480
-401.223	-200.000	0.003	-0.087
-400.209	254.236	0.207	-0.453
-399.194	800.000	-0.169	0.677
-398.179	-200.000	0.263	0.001
-397.165	800.000	-0.029	0.156
-396.150	254.929	0.115	0.252
-395.136	160.882	-0.246	0.439
-394.121	50.403	-0.078	0.095
-393.106	-200.000	0.001	0.473
-392.092	117.815	0.240	0.378
-391.077	-128.618	0.184	0.033
-390.063	-47.353	0.050	-0.031
-389.048	52.442	-0.165	0.201
-388.033	-128.515	0.122	0.022
-387.019	176.523	0.305	0.567
-386.004	184.826	-0.195	0.369
-384.990	298.416	0.158	0.372
-383.975	-161.540	-0.578	-0.037
-382.960	-83.141	-0.241	0.098
-381.946	-113.616	0.177	0.044
-380.931	-91.400	0.380	0.138
-379.917	-200.000	-0.065	-0.397
-378.902	-200.000	-0.015	0.277
-377.888	-200.000	-0.015	-0.106
-376.873	800.000	-0.017	-0.077
-375.858	46.027	-0.200	-0.236
-374.844	-47.258	0.151	0.094
-373.829	729.801	0.050	0.171
-372.815	-197.610	0.181	-0.001
-371.800	174.688	-0.155	0.287
-370.785	-40.280	0.277	-0.183
-369.771	-92.971	-0.516	0.183
-368.756	166.388	0.095	0.172
-367.742	184.778	-0.394	0.746
-366.727	800.000	0.102	0.382
-365.712	-107.746	0.053	-0.015
-364.698	-131.488	0.165	0.027
-363.683	-200.000	-0.033	-0.451
-362.669	-84.415	0.262	-0.105
-361.654	-117.058	0.417	0.096
-360.639	-186.870	0.156	-0.003
-359.625	-185.893	0.172	0.003
-358.610	-88.142	-0.132	-0.050
-357.596	97.941	0.078	0.114
-356.581	-108.553	-0.572	0.156
-355.566	171.500	-0.114	0.210
-354.552	-135.947	0.381	0.057
-353.537	800.000	0.035	0.171
-352.523	-25.480	-0.567	-0.426
-351.508	-71.287	-0.175	-0.083
-350.493	-200.000	0.012	0.125
-349.479	-64.701	0.187	0.096
-348.464	-200.000	0.016	0.332
-347.450	134.674	0.210	0.348
-346.435	-67.962	0.414	0.205
-345.420	-200.000	-0.009	-0.335
-344.406	-28.467	-0.063	-0.046
-343.391	-62.345	0.102	0.054
-342.377	7.979	-0.436	-0.416
-341.362	-200.000	0.050	-0.647
-340.348	-200.000	-0.000	-0.644
-339.333	296.827	-0.219	-0.514
-338.318	-17.854	0.344	0.274
-337.304	-152.925	-0.096	-0.009
-336.289	2.007	0.426	-0.391
-335.275	69.256	-0.234	0.306
-334.260	-107.862	0.308	0.085
-333.245	316.681	0.187	0.452
-332.231	-166.928	0.431	0.022
-331.216	-97.115	-0.127	0.042
-330.202	354.452	-0.190	0.483
-329.187	-20.153	-0.113	0.088
-328.172	-200.000	0.086	-0.678
-327.158	35.972	-0.037	-0.042
-326.143	-19.963	-0.490	-0.384
-325.129	-22.247	-0.479	0.369
-324.114	187.132	0.210	0.399
-323.099	-135.382	0.415	0.062
-322.085	271.398	-0.142	-0.320
-321.070	-108.773	0.465	-0.126
-320.056	-42.865	-0.405	-0.261
-319.041	-112.913	0.165	0.041
-318.026	152.384	0.103	0.180
-317.012	-41.723	-0.272	-0.177
-315.997	-107.460	0.034	-0.009
-314.983	-146.124	0.188	-0.021
-313.968	-200.000	-0.016	-0.203
-312.953	-56.301	-0.336	0.189
-311.939	-200.000	-0.016	0.236
-310.924	-161.798	-0.139	-0.009
-309.910	-71.043	0.425	0.202
-308.895	3.723	0.332	-0.308
-307.880	293.332	-0.079	0.184
-306.866	574.374	-0.160	0.500
-305.851	557.204	0.043	-0.132
-304.837	-55.904	0.452	0.256
-303.822	-26.987	0.044	0.033
-302.807	800.000	-0.035	-0.139
-301.793	509.357	-0.156	0.464
-300.778	-120.318	0.364	-0.078
-299.764	-37.943	-0.431	0.291
-298.749	27.817	0.059	0.063
-297.735	174.835	-0.064	0.119
-296.720	122.234	-0.043	0.069
-295.705	18.167	0.035	0.035
-294.691	-104.708	0.298	-0.087
-293.676	-200.000	0.002	-0.229
-292.662	308.029	-0.067	0.161
-291.647	46.406	-0.363	0.428
-290.632	21.341	-0.239	0.247
-289.618	-144.200	-0.386	-0.045
-288.603	46.043	0.101	0.119
-287.589	-141.093	-0.394	-0.051
-286.574	159.133	0.045	0.080
-285.559	-106.565	-0.160	0.045
-284.545	98.638	-0.207	-0.305
-283.530	41.874	-0.201	-0.232
-282.516	-164.660	0.292	0.017
-281.501	-7.305	-0.494	-0.425
-280.486	-34.813	-0.221	-0.153
-279.472	-126.091	-0.360	-0.068
-278.457	-200.000	-0.060	-0.506
-277.443	-66.593	0.145	0.073
-276.428	194.132	-0.132	-0.256
-275.413	-10.486	0.292	-0.245
-274.399	-200.000	-0.050	-0.376
-273.384	-161.402	-0.352	-0.023
-272.370	20.931	-0.237	0.244
-271.355	-110.749	-0.575	0.150
-270.340	-28.982	0.253	-0.184
-269.326	-47.559	-0.219	0.135
-268.311	800.000	0.074	-0.319
-267.297	-178.978	0.811	-0.023
-266.282	54.302	-0.322	0.394
-265.267	68.930	0.077	-0.100
-264.253	153.087	-0.032	-0.056
-263.238	297.074	0.139	-0.325
-262.224	2.998	0.124	-0.115
-261.209	800.000	-0.025	-0.138
-260.195	-200.000	0.038	-0.400
-259.180	-88.753	0.311	-0.117
-258.165	275.465	-0.200	0.452
-257.151	-100.235	0.347	0.109
-256.136	-100.198	-0.133	0.042
-255.122	417.328	0.096	-0.261
-254.107	-200.000	0.027	-0.320
-253.092	81.543	0.205	-0.283
-252.078	0.822	0.191	0.174
-251.063	-75.709	-0.102	-0.046
-250.049	-200.000	-0.026	0.316
-249.034	76.927	0.090	0.121
-248.019	800.000	-0.120	0.653
-247.005	800.000	-0.135	0.545
-245.990	438.224	0.073	0.203
-244.976	-112.896	-0.289	0.072
-243.961	-176.477	0.155	0.005
-242.946	-98.411	0.344	0.111
-241.932	-114.709	0.134	-0.032
-240.917	-139.305	0.395	0.053
-239.903	-30.205	0.250	-0.180
-238.888	247.952	-0.167	-0.360
-237.873	-69.945	0.522	-0.252
-236.859	800.000	0.056	0.240
-235.844	92.271	0.067	0.095
-234.830	13.687	0.091	-0.089
-233.815	-153.212	0.222	0.019
-232.800	359.006	-0.058	0.148
-231.786	211.629	0.370	0.741
-230.771	-41.077	-0.230	0.150
-229.757	-85.823	0.184	-0.072
-228.742	126.526	0.278	0.448
-227.727	125.055	0.217	-0.347
-226.713	126.045	0.248	-0.398
-225.698	800.000	-0.070	0.323
-224.684	-101.758	0.498	0.152
-223.669	-60.767	0.189	0.101
-222.655	-133.920	-0.284	0.044
-221.640	-125.574	-0.473	0.090
-220.625	-64.571	0.311	-0.160
-219.611	-193.196	0.732	-0.008
-218.596	474.785	-0.087	0.251
-217.582	90.392	0.056	0.080
-216.567	712.366	-0.041	-0.139
-215.552	800.000	-0.056	0.226
-214.538	-88.451	0.104	-0.039
-213.523	133.477	0.064	0.106
-212.509	-2.833	0.348	0.308
-211.494	-155.788	-0.310	0.025
-210.479	800.000	0.062	0.271
-209.465	-81.738	-0.297	0.123
-208.450	-138.692	-0.080	0.011
-207.436	533.675	0.024	0.071
-206.421	63.394	-0.134	-0.171
-205.406	-200.000	0.005	0.035
-204.392	63.654	-0.314	0.400
-203.377	-120.016	0.155	0.033
-202.363	-46.907	0.412	0.255
-201.348	800.000	0.040	-0.193
-200.333	-4.712	-0.308	0.269
-199.319	266.865	0.184	0.409
-198.304	-98.605	-0.401	-0.129
-197.290	-70.499	-0.613	-0.293
-196.275	174.888	-0.121	0.222
-195.260	85.038	0.116	0.162
-194.246	-106.713	0.343	-0.096
-193.231	-46.551	0.046	0.028
-192.217	-15.563	-0.223	-0.180
-191.202	34.642	-0.285	-0.315
-190.187	-106.705	-0.383	-0.107
-189.173	-62.060	-0.300	0.158
-188.158	318.425	-0.062	-0.150
-187.144	335.276	-0.154	-0.379
-186.129	308.394	-0.107	-0.254
-185.114	495.044	-0.053	-0.155
-184.100	155.503	0.237	-0.414
-183.085	-83.911	-0.420	0.168
-182.071	37.295	-0.153	0.171
-181.056	29.104	-0.411	-0.441
-180.042	100.558	-0.159	-0.233
-179.027	-60.392	-0.264	0.142
-178.012	-60.592	0.525	-0.281
-176.998	-200.000	-0.056	-0.659
-175.983	-131.595	0.556	0.092
-174.969	-112.664	-0.424	0.106
-173.954	-6.184	0.172	-0.148
-172.939	-138.882	-0.626	-0.085
-171.925	-200.000	-0.011	0.477
-170.910	543.641	0.249	0.756
-169.896	-132.240	-0.414	-0.067
-168.881	-119.227	0.277	0.061
-167.866	-170.122	0.054	-0.002
-166.852	-42.212	0.168	0.108
-165.837	136.083	-0.076	0.126
-164.823	324.347	-0.167	-0.405
-163.808	-200.000	0.024	-0.173
-162.793	-41.874	-0.083	0.054
-161.779	-191.330	0.269	0.003
-160.764	-10.792	-0.203	-0.169
-159.750	150.877	-0.088	-0.152
-158.735	-92.999	0.588	-0.206
-157.720	227.121	0.217	-0.447
-156.706	-154.732	-0.278	-0.023
-155.691	81.641	-0.176	-0.241
-154.677	604.896	0.101	-0.318
-153.662	12.590	0.405	-0.395
-152.647	173.675	-0.242	-0.443
-151.633	15.974	-0.409	-0.408
-150.618	-51.677	-0.369	-0.217
-149.604	-93.818	0.082	0.028
-148.589	-123.470	0.351	0.070
-147.574	63.485	-0.179	0.227
-146.560	-200.000	0.027	-0.186
-145.545	254.472	0.071	0.154
-144.531	-151.569	0.115	0.011
-143.516	800.000	0.079	-0.300
-142.502	94.324	0.310	-0.445
-141.487	-12.322	-0.461	-0.381
-140.472	-155.196	0.302	0.025
-139.458	-55.508	-0.285	-0.161
-138.443	-52.688	0.392	0.228
-137.429	129.654	0.231	0.374
-136.414	-35.327	-0.043	-0.030
-135.399	-64.843	-0.082	-0.042
-134.385	-200.000	-0.019	0.466
-133.370	-200.000	0.005	0.089
-132.356	800.000	0.091	0.335
-131.341	7.586	-0.212	-0.200
-130.326	150.614	0.144	0.248
-129.312	-85.527	-0.533	-0.209
-128.297	10.237	0.385	0.370
-127.283	696.381	-0.179	0.598
-126.268	-115.100	0.379	-0.090
-125.253	-189.571	0.005	0.000
-124.239	0.785	-0.307	0.277
-123.224	688.595	0.080	-0.267
-122.210	800.000	0.068	-0.374
-121.195	800.000	0.079	0.327
-120.180	-48.028	0.388	-0.236
-119.166	115.340	-0.304	0.469
-118.151	111.932	-0.128	-0.196
-117.137	-200.000	-0.075	0.422
-116.122	139.753	-0.119	0.199
-115.107	15.376	-0.190	0.188
-114.093	768.709	-0.084	-0.292
-113.078	289.499	-0.130	-0.298
-112.064	-103.057	0.328	-0.097
-111.049	800.000	-0.098	-0.359
-110.034	493.153	-0.057	0.165
-109.020	80.605	-0.215	0.293
-108.005	-200.000	0.043	-0.320
-106.991	-156.429	-0.171	0.013
-105.976	-132.159	-0.132	0.021
-104.962	-105.865	-0.413	0.117
-103.947	-71.165	0.387	-0.183
-102.932	-12.593	0.225	0.185
-101.918	-154.926	0.364	0.030
-100.903	-28.641	-0.372	-0.270
-99.889	-60.580	-0.371	0.198
-98.874	26.444	0.364	0.384
-97.859	800.000	0.044	-0.223
-96.845	-53.289	-0.288	-0.166
-95.830	-171.300	0.177	-0.007
-94.816	-73.720	0.380	0.174
-93.801	-146.206	-0.326	-0.036
-92.786	63.862	0.114	0.145
-91.772	56.193	0.129	0.158
-90.757	-121.863	-0.577	-0.119
-89.743	-54.482	0.088	-0.050
-88.728	38.729	0.401	-0.452
-87.713	-23.857	-0.079	-0.059
-86.699	404.409	0.079	-0.211
-85.684	-166.597	-0.241	-0.012
-84.670	204.848	-0.159	-0.312
-83.655	-86.929	0.597	-0.229
-82.640	-146.312	-0.360	0.039
-81.626	-86.539	-0.127	-0.049
-80.611	-161.170	0.266	0.017
-79.597	208.000	-0.196	-0.388
-78.582	800.000	-0.065	0.320
-77.567	-54.592	-0.169	0.096
-76.553	630.932	-0.134	0.430
-75.538	-145.625	0.374	0.042
-74.524	-34.952	0.326	-0.224
-73.509	-200.000	0.011	0.263
-72.494	-29.571	-0.407	-0.292
-71.480	422.300	0.059	0.160
-70.465	800.000	-0.061	0.315
-69.451	-71.559	-0.347	0.163
-68.436	-142.902	-0.401	-0.048
-67.422	-53.917	0.244	-0.140
-66.407	-110.750	-0.290	0.075
-65.392	-176.287	-0.338	0.011
-64.378	748.562	-0.105	-0.358
-63.363	26.215	-0.199	-0.209
-62.349	-200.000	-0.012	0.563
-61.334	18.976	-1.783	-1.801
-60.319	-74.777	1.330	0.599
-59.305	248.347	-3.322	-7.109
-58.290	44.583	3.371	3.906
-57.276	346.377	4.181	10.408
-56.261	-200.000	18.085	272.245
-55.246	423.129	1224.754	3331.200
-54.232	60.598	2826.380	3530.406
-53.217	71.064	2699.104	3528.026
-52.203	47.402	2434.015	2858.679
-51.188	37.498	2094.507	2340.778
-50.173	30.129	1976.184	2123.964
-49.159	28.666	1965.229	2095.332
-48.144	28.302	1961.347	2086.941
-47.130	28.181	1958.612	2082.558
-46.115	28.096	1957.725	2080.564
-45.100	28.043	1955.969	2078.009
-44.086	28.177	1953.592	2076.929
-43.071	28.043	1952.425	2074.076
-42.057	28.008	1951.121	2072.217
-41.042	28.101	1949.114	2071.060
-40.027	27.917	1948.700	2068.443
-39.013	27.954	1947.020	2066.994
-37.998	27.923	1946.221	2065.715
-36.984	28.024	1944.395	2064.848
-35.969	27.913	1942.862	2061.872
-34.954	27.910	1941.234	2060.027
-33.940	27.983	1939.841	2059.299
-32.925	27.887	1939.183	2057.431
-31.911	27.935	1937.296	2055.885
-30.896	27.948	1935.855	2054.428
-29.881	27.939	1934.412	2052.712
-28.867	27.856	1933.265	2050.481
-27.852	27.827	1932.264	2049.006
-26.838	27.782	1930.008	2046.026
-25.823	27.801	1929.511	2045.633
-24.809	27.925	1928.004	2045.351
-23.794	27.749	1926.785	2041.998
-22.779	27.856	1925.102	2041.333
-21.765	27.771	1923.839	2038.955
-20.750	27.704	1923.250	2037.504
-19.736	27.687	1921.773	2035.660
-18.721	27.660	1921.959	2035.470
-17.706	27.723	1919.645	2033.645
-16.692	27.832	1918.205	2033.264
-15.677	27.734	1916.818	2030.620
-14.663	27.744	1915.691	2029.458
-13.648	27.592	1915.166	2027.114
-12.633	27.640	1913.852	2026.184
-11.619	27.584	1912.295	2023.828
-10.604	27.683	1910.592	2023.056
-9.590	27.510	1910.193	2020.617
-8.575	27.664	1908.454	2020.415
-7.560	27.722	1906.224	2018.623
-6.546	27.641	1906.292	2017.708
-5.531	27.674	1904.018	2015.594
-4.517	27.715	1903.681	2015.610
-3.502	27.694	1902.323	2013.856
-2.487	27.824	1901.331	2014.164
-1.473	27.801	1897.738	2010.028
-0.458	27.809	1879.295	1990.506
0.556	24.237	2024.033	2089.271
1.571	23.314	2235.937	2295.702
2.586	24.658	2277.926	2356.361
3.600	24.577	2281.853	2359.058
4.615	24.711	2280.610	2359.274
5.629	24.745	2278.640	2357.410
6.644	24.576	2277.461	2353.671
7.659	24.669	2275.528	2352.611
8.673	24.816	2272.677	2351.333
9.688	24.225	2280.648	2351.459
10.702	22.167	2355.318	2399.938
11.717	19.924	2420.906	2434.788
12.731	10.201	2395.783	2272.567
13.746	1.659	2373.254	2131.077
14.761	0.426	2368.688	2109.402
15.775	0.307	2366.217	2105.272
16.790	0.303	2364.289	2103.246
17.804	0.217	2363.471	2101.066
18.819	0.222	2362.069	2099.642
19.834	0.288	2360.494	2098.905
20.848	0.258	2358.916	2096.840
21.863	0.171	2357.638	2094.234
22.877	0.174	2355.890	2092.469
23.892	0.224	2353.177	2090.500
24.907	0.128	2350.503	2086.545
25.921	0.092	2349.750	2085.125
26.936	0.164	2346.956	2083.397
27.950	0.210	2344.743	2081.828
28.965	0.141	2342.539	2078.658
29.980	0.178	2341.493	2077.998
30.994	0.298	2339.044	2077.229
32.009	4.691	2355.143	2152.470
33.023	16.886	2389.550	2354.863
34.038	22.688	2402.095	2448.132
35.053	23.458	2400.629	2457.086
36.067	23.513	2399.155	2456.043
37.082	23.355	2397.003	2451.351
38.096	23.297	2394.657	2447.846
39.111	23.334	2392.628	2446.004
40.126	23.487	2390.977	2446.141
41.140	23.799	2389.678	2448.844
42.155	23.539	2386.854	2442.062
43.169	23.376	2385.477	2438.093
44.184	23.558	2383.372	2438.167
45.199	23.407	2380.375	2432.733
46.213	23.415	2378.668	2430.802
47.228	23.371	2377.850	2429.068
48.242	23.335	2376.495	2426.898
49.257	23.478	2375.111	2427.168
50.271	23.500	2372.589	2424.602
51.286	23.600	2369.591	2422.618
52.301	23.533	2367.697	2419.474
53.315	23.175	2367.661	2414.240
54.330	23.213	2365.909	2412.688
55.344	23.164	2362.065	2407.806
56.359	23.182	2359.283	2404.931
57.374	23.001	2357.877	2400.729
58.388	22.943	2354.947	2396.667
59.403	23.210	2351.657	2396.675
60.417	23.433	2349.622	2397.347
61.432	23.546	2348.107	2397.048
62.447	23.560	2346.563	2395.375
63.461	23.637	2343.658	2393.160
64.476	23.527	2342.450	2390.154
65.490	23.813	2342.780	2394.081
66.505	23.977	2341.236	2394.426
67.520	23.947	2339.825	2392.293
68.534	23.509	2336.389	2382.584
69.549	23.342	2333.820	2377.433
70.563	23.446	2331.460	2376.146
71.578	23.357	2330.247	2373.420
72.593	23.537	2328.346	2373.621
73.607	23.785	2326.902	2375.205
74.622	23.859	2324.725	2373.691
75.636	23.543	2321.847	2366.227
76.651	23.546	2318.996	2363.079
77.666	23.601	2317.517	2362.029
78.680	23.585	2316.297	2360.284
79.695	23.576	2314.304	2357.848
80.709	23.561	2313.305	2356.350
81.724	23.589	2311.544	2354.650
82.739	23.636	2308.484	2351.873
83.753	23.548	2306.092	2347.991
84.768	23.423	2305.119	2345.054
85.782	23.419	2303.330	2342.900
86.797	23.426	2301.491	2340.836
87.812	23.426	2298.814	2337.831
88.826	23.322	2297.215	2334.557
89.841	23.544	2295.658	2335.629
90.855	23.705	2292.947	2334.714
91.870	23.437	2291.345	2329.276
92.884	23.334	2290.204	2326.471
93.899	23.392	2288.059	2324.784
94.914	23.343	2286.635	2322.413
95.928	23.385	2287.495	2323.551
96.943	23.474	2284.176	2321.083
97.957	23.344	2282.194	2317.073
98.972	23.397	2280.376	2315.653
99.987	23.184	2277.799	2309.963
101.001	23.279	2274.379	2307.466
102.016	23.220	2273.609	2305.634
103.030	23.208	2271.294	2302.847
104.045	23.421	2268.355	2302.380
105.060	23.673	2266.170	2303.173
106.074	23.567	2264.730	2300.054
107.089	23.285	2262.540	2293.874
108.103	23.350	2261.587	2293.489
109.118	23.500	2260.397	2293.958
110.133	23.606	2258.518	2293.147
111.147	23.711	2257.425	2293.130
112.162	23.780	2255.733	2292.034
113.176	23.656	2252.562	2286.926
114.191	23.507	2250.722	2282.863
115.206	23.545	2249.792	2282.136
116.220	23.456	2248.388	2279.286
117.235	23.368	2245.470	2274.912
118.249	23.460	2242.664	2272.990
119.264	23.583	2241.271	2272.883
120.279	23.715	2239.959	2272.979
121.293	23.604	2237.885	2269.184
122.308	23.528	2237.098	2267.132
123.322	23.502	2235.888	2265.304
124.337	23.307	2233.304	2259.909
125.352	23.481	2233.363	2261.936
126.366	23.719	2232.823	2264.170
127.381	23.443	2228.757	2256.244
128.395	23.398	2226.483	2253.097
129.410	23.444	2224.560	2251.466
130.424	23.526	2222.752	2250.419
131.439	23.257	2221.595	2245.545
132.454	23.273	2218.970	2242.821
133.468	23.483	2216.616	2242.847
134.483	23.398	2215.471	2240.344
135.497	23.267	2213.599	2236.518
136.512	23.382	2210.996	2235.075
137.527	23.352	2209.480	2232.895
138.541	23.363	2208.222	2231.500
139.556	23.342	2207.727	2230.459
140.570	23.317	2206.938	2229.087
141.585	23.271	2204.817	2226.094
142.600	23.342	2201.940	2223.823
143.614	23.335	2200.909	2222.421
144.629	23.353	2198.990	2220.444
145.643	23.234	2196.931	2216.609
146.658	23.227	2195.111	2214.408
147.673	23.300	2193.370	2213.313
148.687	23.433	2191.996	2213.330
149.702	23.398	2190.736	2211.348
150.716	23.156	2190.579	2207.894
151.731	23.502	2189.869	2211.250
152.746	23.840	2188.143	2213.470
153.760	23.446	2187.352	2207.475
154.775	23.291	2185.930	2203.839
155.789	23.084	2183.354	2198.394
156.804	22.970	2179.911	2193.238
157.819	23.118	2177.085	2191.978
158.833	23.224	2175.242	2191.184
159.848	23.597	2172.801	2193.094
160.862	23.738	2172.116	2193.895
161.877	23.662	2171.416	2191.977
162.892	23.656	2169.807	2190.011
163.906	23.557	2168.517	2187.223
164.921	23.482	2167.070	2184.582
165.935	23.491	2163.868	2181.198
166.950	23.468	2162.819	2179.598
167.964	23.495	2159.197	2176.021
168.979	23.409	2157.551	2173.036
169.994	23.614	2156.477	2174.220
171.008	23.570	2154.757	2171.686
172.023	23.373	2153.942	2168.177
173.037	23.489	2152.672	2168.067
174.052	23.562	2150.684	2166.699
175.067	23.463	2148.272	2162.796
176.081	23.423	2147.055	2160.824
177.096	23.388	2146.858	2159.941
178.110	23.217	2144.520	2155.240
179.125	23.305	2143.478	2155.006
180.140	23.459	2142.085	2155.236
181.154	23.499	2140.313	2153.685
182.169	23.381	2139.260	2150.920
183.183	23.152	2138.180	2146.780
184.198	23.275	2135.415	2145.245
185.213	23.095	2135.358	2142.748
186.227	23.446	2134.143	2145.542
187.242	23.577	2132.452	2145.178
188.256	23.485	2131.227	2142.572
189.271	23.794	2131.132	2145.972
190.286	23.776	2128.257	2142.599
191.300	23.395	2124.799	2134.250
192.315	23.372	2122.137	2131.041
193.329	23.463	2121.739	2131.481
194.344	23.750	2122.025	2134.985
195.359	23.755	2119.779	2132.527
196.373	23.811	2117.952	2131.110
197.388	23.753	2115.042	2127.236
198.402	23.465	2112.874	2121.330
199.417	23.365	2111.001	2118.002
200.432	23.480	2109.733	2117.851
201.446	23.515	2109.225	2117.512
202.461	23.575	2107.239	2115.976
203.475	23.439	2104.442	2111.288
204.490	23.351	2102.794	2108.328
205.504	23.439	2100.668	2106.995
206.519	23.317	2097.691	2102.302
207.534	23.193	2096.830	2099.718
208.548	23.232	2095.700	2098.796
209.563	23.187	2093.710	2096.022
210.577	23.287	2092.441	2095.680
211.592	23.531	2091.050	2096.941
212.607	23.315	2090.965	2094.037
213.621	22.846	2089.419	2086.674
214.636	22.934	2086.798	2084.842
215.650	23.136	2087.114	2087.306
216.665	23.399	2084.435	2087.488
217.680	23.454	2083.097	2086.554
218.694	23.522	2081.949	2085.956
219.709	23.312	2079.819	2081.095
220.723	23.360	2078.398	2079.986
221.738	23.568	2075.722	2079.511
222.753	23.511	2073.866	2076.730
223.767	23.542	2073.703	2076.687
224.782	23.313	2072.429	2072.470
225.796	23.155	2069.556	2067.497
226.811	23.509	2068.743	2070.582
227.826	23.658	2067.469	2070.816
228.840	23.778	2066.406	2070.902
229.855	23.724	2064.038	2067.648
230.869	23.617	2062.710	2064.827
231.884	23.501	2061.399	2061.911
232.899	23.511	2059.152	2059.528
233.913	23.561	2057.587	2058.307
234.928	23.546	2056.726	2057.015
235.942	23.559	2055.190	2055.389
236.957	23.519	2054.454	2053.946
237.972	23.652	2052.743	2053.528
238.986	23.766	2052.116	2053.987
240.001	23.748	2049.791	2051.198
241.015	23.462	2047.543	2045.386
242.030	23.418	2047.793	2044.887
243.045	23.570	2046.071	2044.687
244.059	23.425	2044.527	2041.211
245.074	23.538	2041.794	2039.551
246.088	23.540	2038.543	2036.081
247.103	23.455	2037.718	2034.028
248.117	23.594	2037.331	2035.005
249.132	23.795	2034.936	2034.687
250.147	23.547	2032.994	2029.644
251.161	23.258	2030.826	2023.917
252.176	23.347	2029.709	2023.581
253.190	23.276	2026.982	2019.806
254.205	22.750	2023.083	2009.664
255.220	22.425	2021.830	2004.462
256.234	22.506	2021.810	2005.122
257.249	22.644	2020.596	2005.257
258.263	22.625	2018.418	2002.639
259.278	22.373	2016.961	1998.077
260.293	22.381	2015.445	1996.429
261.307	22.904	2015.598	2002.300
262.322	23.251	2014.278	2004.703
263.336	23.215	2012.486	2002.271
264.351	23.249	2011.496	2001.432
265.366	23.334	2009.385	2000.059
266.380	23.350	2008.733	1999.353
267.395	23.033	2007.617	1994.404
268.409	23.111	2005.736	1993.176
269.424	23.322	2004.319	1993.925
270.439	23.404	2003.367	1993.668
271.453	23.420	2001.643	1991.890
272.468	23.142	2000.115	1986.991
273.482	23.046	1998.506	1984.072
274.497	23.102	1995.702	1981.684
275.512	23.229	1993.467	1980.651
276.526	23.407	1990.888	1979.858
277.541	23.439	1989.297	1978.392
278.555	23.263	1988.483	1975.381
279.570	23.052	1986.197	1970.504
280.585	23.079	1984.673	1969.057
281.599	23.309	1983.815	1970.542
282.614	23.262	1982.059	1968.034
283.628	22.733	1979.972	1959.823
284.643	22.580	1978.848	1956.777
285.657	22.661	1977.232	1955.841
286.672	22.817	1974.148	1954.295
287.687	22.525	1973.153	1949.828
288.701	22.419	1972.103	1947.383
289.716	22.370	1969.947	1944.469
290.730	22.246	1968.905	1941.837
291.745	22.538	1967.366	1943.320
292.760	22.576	1965.527	1941.695
293.774	22.604	1966.425	1942.654
294.789	23.235	1965.895	1948.882
295.803	23.391	1964.925	1949.418
296.818	23.329	1963.641	1947.229
297.833	23.525	1962.699	1948.224
298.847	23.635	1960.743	1947.255
299.862	23.669	1959.416	1946.080
300.876	23.425	1957.652	1941.414
301.891	23.295	1956.086	1938.193
302.906	23.429	1955.633	1938.985
303.920	23.599	1955.263	1940.264
304.935	23.774	1952.634	1939.333
305.949	23.603	1949.869	1934.482
306.964	23.723	1948.952	1934.664
307.979	23.648	1945.794	1930.475
308.993	23.047	1943.422	1921.329
310.008	22.611	1941.562	1914.501
311.022	22.533	1940.244	1912.122
312.037	22.766	1938.534	1912.748
313.052	22.622	1935.272	1907.733
314.066	22.124	1933.045	1899.894
315.081	22.131	1933.022	1899.722
316.095	22.112	1932.197	1898.482
317.110	22.136	1930.110	1896.459
318.125	22.292	1928.399	1896.244
319.139	22.334	1927.418	1895.505
320.154	22.749	1926.340	1898.712
321.168	22.722	1924.473	1896.346
322.183	23.021	1924.508	1899.388
323.197	23.208	1924.218	1900.894
324.212	23.143	1922.470	1898.235
325.227	23.240	1921.558	1898.150
326.241	23.423	1920.090	1898.447
327.256	23.543	1918.760	1898.199
328.270	23.382	1918.163	1895.645
329.285	23.401	1917.647	1895.117
330.300	23.489	1917.061	1895.256
331.314	23.191	1915.089	1889.881
332.329	23.055	1912.473	1885.613
333.343	23.175	1910.490	1884.716
334.358	23.452	1909.093	1886.071
335.373	23.502	1908.667	1885.966
336.387	23.598	1906.262	1884.385
337.402	23.699	1904.453	1883.447
338.416	23.494	1902.962	1879.563
339.431	23.535	1901.107	1877.947
340.446	23.716	1899.132	1877.697
341.460	23.232	1896.664	1869.888
342.475	22.575	1894.094	1860.165
343.489	22.401	1891.929	1855.970
344.504	22.262	1891.186	1853.551
345.519	22.528	1889.375	1854.368
346.533	22.496	1887.309	1851.781
347.548	22.412	1886.720	1850.089
348.562	22.377	1886.407	1849.192
349.577	22.402	1884.645	1847.514
350.592	22.490	1883.392	1846.982
351.606	22.800	1881.575	1848.247
352.621	22.605	1880.058	1844.486
353.635	22.543	1880.107	1843.665
354.650	22.739	1879.533	1844.937
355.665	23.086	1877.682	1846.539
356.679	23.544	1876.320	1849.782
357.694	23.494	1876.030	1848.755
358.708	23.606	1875.141	1848.830
359.723	23.518	1873.967	1846.529
360.738	23.534	1871.789	1844.329
361.752	23.248	1870.561	1839.914
362.767	23.500	1868.398	1840.194
363.781	23.550	1866.837	1838.958
364.796	23.578	1865.564	1837.776
365.810	23.501	1864.692	1835.895
366.825	23.529	1863.938	1835.225
367.840	23.695	1862.974	1835.775
368.854	23.558	1861.714	1832.897
369.869	23.282	1859.035	1827.173
370.883	22.564	1856.032	1816.571
371.898	21.948	1854.127	1808.108
372.913	22.023	1852.787	1807.359
373.927	22.200	1850.903	1807.136
374.942	22.200	1848.767	1804.836
375.956	22.022	1846.951	1801.014
376.971	21.985	1844.542	1798.064
377.986	21.991	1843.135	1796.544
379.000	22.090	1842.345	1796.570
380.015	22.901	1843.593	1805.912
381.029	23.500	1843.238	1811.496
382.044	23.618	1840.664	1809.959
383.059	23.538	1838.878	1807.172
384.073	23.512	1837.749	1805.576
385.088	23.239	1836.886	1801.724
386.102	23.301	1835.557	1800.837
387.117	23.224	1833.026	1797.350
388.132	23.081	1832.925	1795.577
389.146	23.306	1833.662	1798.385
390.161	23.136	1832.346	1795.143
391.175	23.101	1828.751	1791.048
392.190	23.159	1825.213	1787.963
393.205	23.086	1823.751	1785.575
394.219	23.325	1822.225	1786.293
395.234	23.488	1820.716	1786.251
396.248	23.433	1819.618	1784.404
397.263	23.345	1817.458	1781.174
398.278	23.370	1815.883	1779.673
399.292	23.328	1814.567	1777.750
400.307	23.466	1814.394	1778.758
401.321	23.408	1812.984	1776.574
402.336	22.513	1809.767	1764.211
403.350	21.985	1806.852	1755.843
404.365	22.342	1805.738	1758.140
405.380	22.592	1805.331	1760.038
406.394	22.420	1804.322	1757.121
407.409	22.218	1802.444	1753.059
408.423	22.155	1801.432	1751.231
409.438	22.123	1799.256	1748.589
410.453	22.607	1799.453	1753.413
411.467	22.982	1799.355	1756.859
412.482	23.104	1798.055	1756.593
413.496	23.482	1797.181	1759.301
414.511	23.459	1794.924	1756.654
415.526	23.221	1793.630	1752.803
416.540	23.465	1791.563	1753.004
417.555	23.284	1791.006	1750.445
418.569	22.969	1791.410	1747.497
419.584	23.190	1790.861	1748.955
420.599	23.149	1790.003	1747.495
421.613	23.043	1788.307	1744.583
422.628	23.212	1787.682	1745.443
423.642	23.556	1785.868	1746.864
424.657	23.354	1783.759	1742.594
425.672	23.104	1780.483	1736.722
426.686	23.078	1780.408	1736.179
427.701	22.996	1778.930	1733.719
428.715	22.902	1777.243	1730.947
429.730	23.029	1776.653	1731.418
430.745	23.153	1775.408	1731.214
431.759	23.179	1773.902	1729.797
432.774	22.936	1772.462	1725.796
433.788	22.376	1770.882	1718.553
434.803	22.116	1769.491	1714.450
435.818	22.133	1769.078	1714.012
436.832	21.915	1768.585	1711.193
437.847	20.957	1761.074	1694.365
438.861	12.048	1735.796	1583.682
439.876	2.258	1717.483	1472.352
440.890	0.429	1712.300	1450.064
441.905	0.300	1711.118	1447.642
442.920	0.283	1710.129	1446.469
443.934	0.247	1709.183	1445.153
444.949	0.208	1707.753	1443.390
445.963	0.198	1706.239	1441.844
446.978	0.159	1706.211	1441.273
447.993	0.206	1705.145	1440.657
449.007	0.248	1702.162	1438.363
450.022	0.171	1700.033	1435.650
451.036	0.194	1698.734	1434.602
452.051	0.727	1702.100	1442.393
453.066	8.572	1722.416	1535.349
454.080	18.953	1739.678	1651.254
455.095	21.887	1744.748	1684.222
456.109	23.007	1746.289	1696.320
457.124	23.175	1745.562	1697.032
458.139	23.018	1744.396	1694.179
459.153	22.873	1742.580	1690.818
460.168	22.897	1740.826	1689.144
461.182	22.761	1739.550	1686.397
462.197	22.829	1737.716	1685.075
463.212	22.999	1736.022	1684.853
464.226	22.958	1735.358	1683.615
465.241	22.988	1734.861	1683.224
466.255	23.087	1733.043	1682.207
467.270	23.138	1731.379	1680.875
468.285	23.008	1730.501	1678.579
469.299	23.168	1729.031	1678.477
470.314	23.046	1727.536	1675.660
471.328	23.133	1725.709	1674.518
472.343	23.059	1724.810	1672.742
473.358	22.984	1723.343	1670.402
474.372	23.014	1722.367	1669.544
475.387	22.922	1720.890	1667.039
476.401	23.015	1718.842	1665.738
477.416	22.922	1718.127	1663.968
478.430	22.995	1716.648	1663.028
479.445	22.917	1716.134	1661.586
480.460	23.013	1714.455	1660.667
481.474	22.968	1713.563	1659.181
482.489	22.923	1712.104	1657.151
483.503	22.804	1710.178	1653.963
484.518	22.825	1708.685	1652.518
485.533	22.848	1707.703	1651.587
486.547	22.914	1705.925	1650.290
487.562	22.911	1704.947	1649.125
488.576	22.936	1704.108	1648.348
489.591	22.898	1702.616	1646.349
490.606	23.012	1700.904	1645.560
491.620	23.008	1699.049	1643.532
492.635	22.904	1696.877	1640.266
493.649	22.715	1696.122	1637.575
494.664	22.757	1695.472	1637.144
495.679	22.916	1693.616	1636.641
496.693	22.925	1692.934	1635.864
497.708	22.927	1692.062	1634.850
498.722	22.977	1690.699	1633.803
499.737	23.026	1689.396	1632.796
500.752	23.118	1687.105	1631.244
501.766	23.144	1685.240	1629.485
502.781	22.930	1685.456	1627.520
503.795	22.986	1683.534	1625.985
504.810	23.191	1681.942	1626.146
505.825	22.963	1681.658	1623.567
506.839	23.055	1680.381	1622.993
507.854	23.042	1678.850	1621.204
508.868	23.041	1676.557	1618.778
509.883	22.953	1675.558	1616.818
510.898	22.841	1674.932	1614.987
511.912	22.690	1673.111	1611.647
512.927	22.814	1671.057	1610.613
513.941	22.911	1669.858	1610.161
514.956	23.052	1669.117	1610.545
515.971	23.320	1667.855	1611.581
516.985	23.175	1666.727	1608.973
518.000	22.970	1666.187	1606.391
519.014	22.845	1664.272	1603.204
520.029	22.774	1662.806	1600.956
521.043	22.700	1661.566	1598.893
522.058	22.818	1660.211	1598.480
523.073	22.739	1659.378	1596.764
524.087	22.578	1658.924	1594.671
525.102	22.700	1657.721	1594.436
526.116	23.005	1656.506	1595.842
527.131	23.136	1654.874	1595.270
528.146	22.997	1654.148	1593.120
529.160	22.966	1652.343	1590.910
530.175	22.903	1651.350	1589.195
531.189	22.857	1650.415	1587.687
532.204	22.764	1648.972	1585.271
533.219	22.844	1648.139	1585.001
534.233	22.958	1646.847	1584.598
535.248	23.038	1644.141	1582.521
536.262	22.587	1643.433	1577.588
537.277	22.625	1643.460	1577.767
538.292	22.787	1642.130	1577.758
539.306	22.765	1640.328	1575.641
540.321	22.668	1638.872	1573.186
541.335	22.926	1637.554	1574.041
542.350	22.901	1635.782	1571.929
543.365	22.666	1633.697	1567.640
544.379	22.638	1633.159	1566.686
545.394	22.680	1630.691	1564.506
546.408	22.669	1629.965	1563.520
547.423	22.869	1629.189	1564.375
548.438	22.920	1628.449	1563.923
549.452	22.978	1627.077	1562.938
550.467	22.856	1625.579	1560.225
551.481	22.884	1624.539	1559.291
552.496	22.887	1624.060	1558.668
553.511	22.806	1622.458	1556.232
554.525	22.702	1621.806	1554.498
555.540	22.700	1620.858	1553.381
556.554	22.811	1619.718	1553.088
557.569	22.854	1617.876	1551.519
558.583	22.788	1616.848	1549.758
559.598	22.824	1616.156	1549.231
560.613	22.790	1614.670	1547.325
561.627	22.751	1613.008	1545.197
562.642	22.524	1610.931	1541.030
563.656	22.454	1609.656	1539.008
564.671	22.446	1608.611	1537.755
565.686	22.357	1606.752	1535.020
566.700	22.502	1606.252	1535.623
567.715	22.674	1604.854	1535.613
568.729	22.708	1603.839	1534.752
569.744	23.068	1603.015	1536.928
570.759	22.839	1601.805	1533.584
571.773	22.880	1600.022	1532.050
572.788	22.721	1598.494	1529.022
573.802	22.617	1597.243	1526.731
574.817	22.480	1594.975	1523.192
575.832	22.402	1593.915	1521.317
576.846	22.475	1593.426	1521.306
577.861	22.670	1592.114	1521.565
578.875	22.706	1591.190	1520.805
579.890	22.678	1589.708	1518.963
580.905	22.743	1588.199	1517.903
581.919	22.547	1588.660	1516.472
582.934	22.675	1587.217	1516.015
583.948	22.488	1586.195	1513.242
584.963	22.437	1584.634	1511.137
585.978	22.485	1583.217	1510.015
586.992	22.471	1581.979	1508.535
588.007	22.400	1581.591	1507.367
589.021	22.585	1580.358	1507.604
590.036	22.749	1579.648	1508.157
591.051	22.790	1577.588	1506.366
592.065	22.416	1576.278	1501.729
593.080	22.293	1574.546	1498.844
594.094	22.409	1572.917	1498.107
595.109	22.618	1571.003	1497.891
596.123	22.733	1570.105	1497.836
597.138	22.572	1569.018	1495.241
598.153	22.515	1567.303	1492.948
599.167	22.436	1566.187	1491.027
600.182	22.448	1565.446	1490.253
601.196	22.605	1564.357	1490.371
602.211	22.541	1563.121	1488.469
603.226	22.483	1561.173	1485.942
604.240	22.378	1560.614	1484.348
605.255	22.239	1559.154	1481.603
606.269	22.412	1558.371	1482.142
607.284	22.512	1557.730	1482.204
608.299	22.423	1556.424	1480.031
609.313	22.453	1555.489	1479.215
610.328	22.478	1553.891	1477.728
611.342	22.698	1551.739	1477.361
612.357	22.465	1551.105	1474.618
613.372	22.360	1550.364	1472.855
614.386	22.376	1549.192	1471.697
615.401	22.162	1548.550	1469.113
616.415	22.340	1546.701	1468.678
617.430	22.213	1545.643	1466.436
618.445	22.124	1544.124	1464.068
619.459	22.231	1543.398	1464.104
620.474	22.294	1543.113	1464.183
621.488	22.631	1542.699	1466.432
622.503	22.876	1541.338	1467.015
623.518	22.480	1539.240	1461.540
624.532	22.262	1537.558	1457.946
625.547	22.095	1535.961	1454.872
626.561	21.921	1534.987	1452.328
627.576	21.754	1534.473	1450.279
628.591	22.150	1534.067	1453.012
629.605	22.519	1533.145	1455.024
630.620	22.570	1532.063	1454.248
631.634	22.719	1531.170	1454.463
632.649	22.809	1530.071	1453.992
633.663	22.442	1528.546	1449.332
634.678	22.207	1525.152	1444.003
635.693	21.985	1523.319	1440.260
636.707	21.745	1522.296	1437.140
637.722	21.796	1520.813	1435.990
638.736	21.724	1520.457	1434.891
639.751	22.088	1519.678	1436.975
640.766	22.287	1517.782	1436.643
641.780	22.113	1517.372	1434.659
642.795	22.195	1516.470	1434.305
643.809	22.101	1515.894	1432.817
644.824	22.352	1514.712	1433.587
645.839	22.328	1513.935	1432.484
646.853	22.344	1512.633	1431.209
647.868	22.152	1511.139	1428.057
648.882	22.233	1509.400	1426.907
649.897	22.209	1508.100	1425.305
650.912	22.085	1507.180	1423.261
651.926	22.040	1505.841	1421.455
652.941	22.116	1504.969	1421.078
653.955	22.438	1503.759	1422.385
654.970	22.552	1502.504	1421.955
655.985	22.571	1500.926	1420.444
656.999	22.447	1500.301	1418.678
658.014	22.195	1498.511	1414.771
659.028	22.329	1496.642	1413.921
660.043	22.133	1496.567	1412.102
661.058	22.042	1494.409	1409.158
662.072	21.921	1494.137	1407.761
663.087	22.055	1493.222	1407.812
664.101	22.015	1491.856	1406.031
665.116	22.037	1490.366	1404.632
666.131	22.154	1489.111	1404.228
667.145	22.115	1488.212	1402.898
668.160	21.947	1486.890	1400.134
669.174	21.793	1485.378	1397.310
670.189	21.830	1484.261	1396.391
671.204	22.096	1483.182	1397.336
672.218	22.121	1482.676	1396.885
673.233	22.133	1481.256	1395.477
674.247	21.936	1479.837	1392.403
675.262	21.850	1478.607	1390.398
676.276	21.938	1477.606	1389.990
677.291	21.963	1477.473	1389.891
678.306	22.311	1476.075	1391.182
679.320	22.109	1475.293	1388.670
680.335	21.887	1474.236	1385.752
681.349	21.883	1473.632	1384.983
682.364	21.880	1472.256	1383.497
683.379	21.941	1470.278	1381.957
684.393	21.707	1469.014	1378.755
685.408	21.907	1467.551	1378.799
686.422	21.734	1466.916	1376.665
687.437	21.676	1465.824	1375.018
688.452	21.338	1465.260	1371.665
689.466	21.464	1463.473	1370.820
690.481	21.576	1462.712	1370.824
691.495	21.651	1462.587	1371.130
692.510	22.206	1461.490	1374.297
693.525	22.434	1460.464	1374.962
694.539	22.016	1459.487	1370.595
695.554	21.778	1457.103	1366.331
696.568	21.347	1456.141	1361.891
697.583	21.218	1454.987	1359.639
698.598	21.417	1454.004	1360.114
699.612	21.453	1452.240	1358.582
700.627	21.445	1451.637	1357.789
701.641	21.604	1451.048	1358.316
702.656	21.690	1449.885	1357.734
703.671	21.567	1449.033	1355.819
704.685	21.691	1448.316	1355.954
705.700	21.814	1446.501	1355.047
706.714	21.622	1446.190	1353.101
707.729	21.641	1444.859	1351.843
708.744	21.671	1443.708	1350.835
709.758	21.696	1442.618	1349.848
710.773	21.884	1441.805	1350.379
711.787	22.047	1439.933	1349.723
712.802	21.925	1438.602	1347.372
713.816	21.674	1438.126	1344.828
714.831	21.675	1436.907	1343.535
715.846	21.595	1435.051	1341.022
716.860	21.500	1433.361	1338.552
717.875	21.591	1432.242	1338.048
718.889	21.758	1431.048	1338.054
719.904	21.591	1430.446	1336.046
720.919	21.664	1429.203	1335.290
721.933	21.407	1428.538	1332.536
722.948	21.431	1427.698	1331.780
723.962	21.499	1426.185	1330.727
724.977	21.311	1424.792	1327.834
725.992	21.385	1424.073	1327.567
727.006	21.619	1422.758	1327.969
728.021	21.390	1421.467	1324.861
729.035	21.416	1420.456	1323.956
730.050	21.591	1419.547	1324.279
731.065	21.477	1418.736	1322.497
732.079	21.420	1417.308	1320.578
733.094	21.604	1415.622	1320.242
734.108	21.660	1415.031	1319.956
735.123	21.452	1413.572	1316.865
736.138	21.641	1412.566	1317.201
737.152	21.554	1411.260	1315.168
738.167	21.382	1410.081	1312.611
739.181	21.295	1408.965	1310.764
740.196	21.401	1408.428	1310.902
741.211	21.307	1408.082	1309.714
742.225	21.260	1406.765	1307.982
743.240	21.344	1404.552	1306.401
744.254	21.296	1402.822	1304.277
745.269	21.140	1401.806	1302.000
746.284	21.181	1401.667	1302.027
747.298	21.272	1400.474	1301.445
748.313	21.489	1400.461	1302.898
749.327	21.781	1400.482	1304.950
750.342	22.052	1400.033	1306.399
751.356	22.212	1399.353	1306.806
752.371	22.086	1397.446	1303.931
753.386	21.584	1394.817	1297.582
754.400	21.289	1393.763	1294.248
755.415	21.285	1392.715	1293.092
756.429	21.290	1391.136	1291.508
757.444	21.476	1389.856	1291.540
758.459	21.242	1389.415	1289.246
759.473	21.085	1388.693	1287.254
760.488	21.222	1386.859	1286.412
761.502	21.202	1385.231	1284.601
762.517	21.102	1384.582	1283.110
763.532	21.227	1384.034	1283.368
764.546	21.273	1383.006	1282.600
765.561	21.591	1382.511	1284.335
766.575	21.972	1382.295	1286.792
767.590	22.077	1380.910	1286.118
768.605	21.828	1378.435	1281.830
769.619	21.451	1377.209	1277.771
770.634	21.276	1375.833	1275.058
771.648	21.194	1375.072	1273.596
772.663	20.866	1374.284	1270.308
773.678	21.091	1373.041	1270.656
774.692	21.126	1372.757	1270.496
775.707	21.128	1372.060	1269.718
776.721	21.216	1370.317	1268.597
777.736	21.124	1369.199	1266.734
778.751	21.176	1368.005	1265.855
779.765	21.061	1367.668	1264.557
780.780	21.082	1366.626	1263.598
781.794	21.230	1365.557	1263.531
782.809	21.032	1364.769	1261.212
783.824	20.862	1363.984	1259.100
784.838	21.210	1362.808	1260.391
785.853	21.554	1362.563	1262.508
786.867	21.503	1361.786	1261.269
787.882	21.257	1361.069	1258.673
788.897	20.989	1360.098	1255.677
789.911	20.925	1358.394	1253.496
790.926	20.851	1357.065	1251.587
791.940	20.765	1355.248	1249.135
792.955	20.882	1353.412	1248.141
793.969	20.783	1352.998	1246.895
794.984	20.879	1352.355	1246.843
795.999	20.868	1351.020	1245.388
797.013	20.892	1349.988	1244.457
798.028	20.900	1348.363	1242.865
799.042	21.001	1347.484	1242.632
800.057	20.966	1346.435	1241.267
801.072	20.976	1344.735	1239.619
802.086	20.977	1343.846	1238.657
803.101	20.863	1343.213	1237.112
804.115	20.858	1342.333	1236.118
805.130	20.817	1341.177	1234.612
806.145	20.878	1339.542	1233.396
807.159	20.920	1338.528	1232.617
808.174	20.968	1337.242	1231.623
809.188	21.104	1336.286	1231.560
810.203	21.195	1334.642	1230.540
811.218	21.263	1333.821	1230.123
812.232	21.300	1332.901	1229.387
813.247	21.558	1331.863	1230.106
814.261	21.303	1330.919	1227.283
815.276	21.053	1329.904	1224.441
816.291	20.791	1328.418	1221.075
817.305	20.943	1326.525	1220.259
818.320	20.936	1324.908	1218.576
819.334	20.842	1324.295	1217.211
820.349	20.852	1322.847	1215.802
821.364	20.922	1320.909	1214.365
822.378	20.814	1319.914	1212.549
823.393	20.754	1318.738	1210.904
824.407	20.703	1317.432	1209.204
825.422	20.575	1317.942	1208.631
826.437	20.874	1316.380	1209.141
827.451	20.771	1315.221	1207.216
828.466	21.192	1314.221	1209.083
829.480	21.469	1312.372	1209.161
830.495	21.085	1310.368	1204.510
831.509	20.741	1309.465	1201.145
832.524	20.735	1308.208	1199.811
833.539	20.757	1306.803	1198.526
834.553	20.679	1305.829	1196.955
835.568	20.729	1304.870	1196.277
836.582	20.647	1303.872	1194.651
837.597	20.803	1302.239	1194.088
838.612	20.881	1300.822	1193.182
839.626	20.879	1299.799	1192.088
840.641	20.949	1299.594	1192.240
841.655	21.121	1299.301	1193.010
842.670	21.484	1298.833	1194.929
843.685	21.775	1297.768	1195.804
844.699	21.466	1295.314	1191.283
845.714	21.146	1293.413	1187.205
846.728	20.917	1292.768	1184.906
847.743	20.879	1291.745	1183.570
848.758	20.731	1290.312	1181.102
849.772	20.919	1288.366	1180.459
850.787	20.780	1287.225	1178.326
851.801	20.654	1287.055	1177.173
852.816	20.537	1285.840	1175.131
853.831	20.644	1283.345	1173.435
854.845	20.715	1281.395	1171.990
855.860	20.508	1280.504	1169.635
856.874	20.715	1279.388	1169.875
857.889	20.985	1278.251	1170.519
858.904	21.194	1278.085	1171.633
859.918	21.341	1277.522	1171.966
860.933	21.475	1276.040	1171.368
861.947	21.163	1274.933	1168.113
862.962	20.866	1272.699	1163.938
863.977	20.942	1270.982	1162.732
864.991	20.626	1270.568	1160.096
866.006	20.661	1269.652	1159.361
867.020	20.713	1268.096	1158.148
868.035	20.697	1267.082	1156.975
869.049	20.608	1266.050	1155.301
870.064	20.684	1265.268	1154.954
871.079	20.763	1265.266	1155.342
872.093	20.779	1264.475	1154.586
873.108	20.838	1263.500	1153.954
874.122	20.983	1262.639	1153.993
875.137	21.297	1262.534	1155.847
876.152	21.396	1261.229	1155.172
877.166	21.410	1259.262	1153.321
878.181	21.103	1257.535	1149.572
879.195	20.846	1257.052	1147.292
880.210	20.733	1256.115	1145.549
881.225	20.807	1255.146	1145.022
882.239	20.745	1253.819	1143.266
883.254	20.760	1252.685	1142.193
884.268	20.883	1251.705	1141.973
885.283	20.754	1250.824	1140.184
886.298	20.783	1248.972	1138.548
887.312	20.711	1247.879	1136.943
888.327	20.861	1246.690	1136.705
889.341	20.771	1245.980	1135.335
890.356	20.946	1244.924	1135.381
891.371	20.637	1245.429	1133.681
892.385	20.791	1244.505	1133.711
893.400	20.773	1242.982	1132.073
894.414	20.681	1242.399	1130.806
895.429	21.063	1241.126	1132.001
896.444	21.645	1240.403	1135.000
897.458	21.912	1239.421	1135.706
898.473	21.403	1238.435	1131.353
899.487	21.177	1236.686	1128.156
900.502	20.884	1234.901	1124.491
901.517	20.787	1233.370	1122.330
902.531	20.923	1232.670	1122.441
903.546	20.741	1232.266	1120.763
904.560	20.865	1231.147	1120.411
905.575	20.834	1230.434	1119.431
906.589	20.886	1229.982	1119.221
907.604	20.984	1229.006	1118.832
