DTS Sentinel unit serial number:	SN409020Multiplexer serial number:	ORYXHardware model number:	OX4-SRSoftware version number:	ORYX F/W v3.00 Oryx Data Collector v3.7.2.0data status	okinstallation	HaddamTimeLapsedifferential loss correction	single-endedforward channel	channel 3reverse channel	N/Adate	2011/06/22time	06:06:17forward acquisition time	30.00reverse acquisition time	0.00gamma	498.7831k internal	0.1751k external	0.1751temperature offset calibration	1.0074default loss term (dB/km)	0.3790temperature slope calibration	1.3530multiplexer offset coefficient	1.0000multiplexer slope coefficient	1.0000fibre end	0.00T internal ref (°C)	22.56T ext. ref 1 (°C)	18.16T ext. ref 2 (°C)	0.17length (m)	temperature (°C)	Stokes	anti-Stokes-747.200	-143.566	0.319	-0.040
-746.185	-131.071	-0.255	-0.045
-745.171	-102.813	0.235	-0.074
-744.156	55.692	-0.321	0.413
-743.142	107.869	0.338	0.535
-742.127	-200.000	0.004	-0.070
-741.112	800.000	-0.031	-0.177
-740.098	54.426	0.084	0.107
-739.083	-5.058	0.218	-0.199
-738.069	-92.720	0.288	0.107
-737.054	800.000	-0.087	0.346
-736.039	89.169	-0.061	-0.091
-735.025	800.000	-0.060	-0.346
-734.010	-167.206	0.408	0.022
-732.996	86.548	0.151	-0.221
-731.981	-72.609	-0.402	-0.196
-730.966	323.580	-0.102	0.260
-729.952	-89.826	-0.176	-0.068
-728.937	-200.000	0.045	-0.802
-727.923	265.112	0.143	-0.333
-726.908	83.092	0.154	0.223
-725.894	63.676	0.045	-0.061
-724.879	406.257	0.141	0.396
-723.864	-22.734	-0.140	0.112
-722.850	-81.612	-0.406	0.176
-721.835	-11.374	-0.069	-0.060
-720.821	-95.228	-0.451	-0.160
-719.806	800.000	-0.052	0.272
-718.791	-63.576	-0.104	-0.057
-717.777	49.822	-0.449	-0.562
-716.762	253.189	0.062	0.140
-715.748	5.490	-0.173	0.170
-714.733	16.081	-0.276	0.288
-713.718	77.771	0.240	-0.339
-712.704	800.000	0.083	-0.430
-711.689	-157.192	0.157	-0.013
-710.675	257.692	-0.085	-0.194
-709.660	-44.622	-0.103	-0.068
-708.645	800.000	0.068	0.339
-707.631	53.051	-0.376	0.478
-706.616	-39.267	-0.299	-0.207
-705.602	-134.294	0.111	-0.018
-704.587	-84.995	0.351	0.145
-703.572	139.316	0.185	-0.324
-702.558	-18.056	0.187	0.155
-701.543	-88.118	0.164	0.065
-700.529	604.138	-0.076	-0.252
-699.514	-106.694	0.326	-0.096
-698.499	-57.495	-0.395	0.229
-697.485	-42.001	0.304	-0.206
-696.470	360.590	-0.259	0.690
-695.456	-200.000	0.577	-0.001
-694.441	-168.501	-0.144	-0.007
-693.426	-65.892	0.362	-0.191
-692.412	-34.330	-0.358	-0.260
-691.397	-200.000	-0.078	-0.479
-690.383	186.470	0.155	-0.307
-689.368	-9.910	0.402	-0.354
-688.354	-106.208	0.295	-0.087
-687.339	-56.747	-0.190	-0.111
-686.324	-122.754	0.130	-0.028
-685.310	800.000	-0.067	0.279
-684.295	-74.973	0.151	-0.072
-683.281	-122.626	-0.084	0.018
-682.266	19.273	-0.113	-0.120
-681.251	-94.596	0.159	0.057
-680.237	72.493	0.034	0.047
-679.222	-29.330	-0.269	-0.204
-678.208	-84.904	0.263	0.109
-677.193	201.789	0.179	0.366
-676.178	106.053	-0.129	-0.202
-675.164	-73.352	-0.229	-0.111
-674.149	38.237	-0.260	0.307
-673.135	8.837	0.467	-0.466
-672.120	-123.640	-0.055	0.011
-671.105	63.906	-0.236	0.314
-670.091	-117.337	0.336	-0.080
-669.076	72.642	0.278	-0.385
-668.062	-114.388	-0.614	-0.155
-667.047	8.032	0.181	0.180
-666.032	800.000	-0.038	0.152
-665.018	-18.492	0.095	0.078
-664.003	-200.000	0.021	-0.345
-662.989	-31.717	-0.299	0.222
-661.974	-200.000	-0.013	-0.097
-660.959	-39.420	-0.473	0.327
-659.945	800.000	0.080	0.341
-658.930	373.194	-0.241	0.652
-657.916	-200.000	0.034	-0.264
-656.901	475.598	-0.168	-0.503
-655.886	48.408	-0.237	-0.294
-654.872	800.000	-0.053	-0.213
-653.857	-200.000	0.029	-0.301
-652.843	31.441	-0.101	-0.115
-651.828	430.663	-0.018	0.051
-650.814	11.746	-0.262	0.266
-649.799	-200.000	0.008	0.304
-648.784	223.070	-0.077	0.165
-647.770	9.128	-0.256	-0.256
-646.755	4.151	-0.356	-0.344
-645.741	754.921	-0.110	-0.395
-644.726	-79.155	-0.377	-0.168
-643.711	-119.337	-0.222	-0.051
-642.697	118.677	0.281	-0.460
-641.682	215.427	-0.122	0.257
-640.668	-97.663	-0.536	0.183
-639.653	-137.730	-0.516	-0.076
-638.638	-130.367	0.235	-0.042
-637.624	28.897	0.132	-0.148
-636.609	-54.120	-0.158	-0.095
-635.595	-54.551	-0.336	-0.201
-634.580	-54.580	-0.455	0.271
-633.565	29.333	0.204	0.230
-632.551	-3.872	-0.092	-0.084
-631.536	-200.000	0.021	-0.149
-630.522	12.237	-0.145	-0.147
-629.507	9.778	-0.176	-0.176
-628.492	-200.000	-0.017	0.132
-627.478	-30.333	-0.507	-0.380
-626.463	800.000	0.024	-0.097
-625.449	8.849	-0.158	-0.158
-624.434	153.034	0.123	0.222
-623.419	-200.000	-0.275	0.001
-622.405	159.357	-0.111	0.205
-621.390	324.144	-0.111	-0.283
-620.376	787.004	0.123	-0.448
-619.361	108.144	-0.239	-0.377
-618.346	-147.865	0.307	0.033
-617.332	-200.000	0.002	-0.028
-616.317	435.016	0.280	0.808
-615.303	-200.000	0.051	0.416
-614.288	-65.882	0.162	-0.085
-613.273	531.017	0.111	-0.349
-612.259	-193.886	0.639	-0.007
-611.244	102.497	0.219	-0.339
-610.230	-200.000	-0.046	-0.300
-609.215	777.060	-0.080	-0.289
-608.201	149.446	-0.249	-0.446
-607.186	-161.581	-0.164	0.011
-606.171	-29.963	-0.480	-0.361
-605.157	-154.899	-0.160	-0.014
-604.142	-146.062	-0.381	-0.044
-603.128	179.948	-0.063	0.121
-602.113	-122.435	-0.916	-0.195
-601.098	-4.022	0.425	0.388
-600.084	800.000	0.063	-0.234
-599.069	-129.582	-0.433	-0.078
-598.055	-159.028	-0.118	0.009
-597.040	800.000	-0.019	0.086
-596.025	426.146	0.060	0.172
-595.011	-161.870	0.228	-0.015
-593.996	800.000	0.105	-0.469
-592.982	84.791	0.213	0.309
-591.967	205.115	-0.171	0.351
-590.952	-20.183	0.173	0.141
-589.938	-131.096	0.130	0.023
-588.923	-70.149	0.378	-0.189
-587.909	-104.525	0.273	-0.083
-586.894	-139.856	-0.369	0.051
-585.879	300.069	-0.100	0.244
-584.865	-69.336	0.427	0.216
-583.850	32.614	0.306	-0.350
-582.836	-62.810	0.114	-0.062
-581.821	1.178	-0.484	-0.458
-580.806	-122.795	0.168	-0.035
-579.792	-85.945	0.628	-0.255
-578.777	-23.796	0.028	-0.022
-577.763	92.564	0.134	-0.199
-576.748	-19.949	-0.314	0.255
-575.733	-19.636	-0.167	-0.136
-574.719	-110.321	0.533	0.145
-573.704	-49.206	0.136	-0.085
-572.690	331.780	-0.159	0.405
-571.675	-200.000	-0.063	0.371
-570.661	477.486	0.066	-0.197
-569.646	138.091	0.201	0.348
-568.631	43.556	0.126	0.152
-567.617	225.276	-0.267	0.571
-566.602	-47.624	-0.074	-0.048
-565.588	293.938	0.077	-0.187
-564.573	283.732	-0.159	0.378
-563.558	24.526	0.490	0.535
-562.544	701.497	0.082	0.287
-561.529	-41.519	-0.340	0.230
-560.515	-200.000	-0.035	-0.213
-559.500	-200.000	-0.102	0.617
-558.485	22.234	0.286	-0.308
-557.471	17.505	0.171	0.179
-556.456	-60.262	0.659	-0.369
-555.442	304.865	-0.241	-0.593
-554.427	-200.000	-0.001	-0.482
-553.412	622.744	0.050	-0.167
-552.398	800.000	-0.057	-0.211
-551.383	-42.111	-0.181	0.122
-550.369	-95.394	0.456	0.161
-549.354	-200.000	0.014	0.088
-548.339	800.000	-0.049	-0.200
-547.325	-200.000	0.039	0.648
-546.310	-200.000	-0.001	-0.107
-545.296	-75.097	-0.259	-0.122
-544.281	-200.000	0.045	-0.366
-543.266	-37.090	0.382	0.269
-542.252	-200.000	0.021	-0.307
-541.237	-82.238	-0.328	-0.140
-540.223	-56.656	0.755	-0.439
-539.208	-172.903	-0.311	-0.013
-538.193	-76.946	-0.309	0.142
-537.179	-16.805	-0.294	-0.245
-536.164	115.677	0.326	0.526
-535.150	-200.000	0.020	0.348
-534.135	-104.892	0.321	-0.096
-533.121	-83.709	0.300	0.126
-532.106	-200.000	-0.012	-0.083
-531.091	-94.288	-0.469	0.168
-530.077	-104.921	0.071	0.021
-529.062	-41.008	-0.119	0.081
-528.048	36.128	0.070	-0.081
-527.033	35.198	0.153	0.176
-526.018	214.347	-0.028	0.059
-525.004	-123.408	0.150	-0.031
-523.989	-77.463	-0.274	-0.125
-522.975	98.170	-0.094	0.142
-521.960	-175.804	0.383	0.013
-520.945	-115.028	0.144	-0.036
-519.931	-200.000	-0.043	-0.404
-518.916	690.643	-0.086	0.298
-517.902	800.000	-0.023	-0.093
-516.887	201.879	0.199	-0.404
-515.872	-54.197	0.492	0.293
-514.858	-109.607	0.290	-0.080
-513.843	51.644	0.134	0.168
-512.829	-109.958	0.265	-0.073
-511.814	197.647	-0.238	-0.480
-510.799	55.427	0.220	-0.280
-509.785	708.449	0.148	-0.518
-508.770	-30.383	-0.142	-0.106
-507.756	72.556	0.192	-0.264
-506.741	-159.625	0.195	-0.014
-505.726	23.266	0.310	0.335
-504.712	-120.409	0.540	-0.120
-503.697	3.985	0.110	0.105
-502.683	567.629	0.100	0.320
-501.668	216.874	0.065	0.137
-500.653	-148.571	0.051	0.005
-499.639	25.840	-0.196	0.215
-498.624	-200.000	0.002	0.477
-497.610	-105.025	-0.168	-0.050
-496.595	4.161	0.204	0.196
-495.581	135.281	-0.346	0.593
-494.566	800.000	0.073	0.307
-493.551	130.212	0.185	0.313
-492.537	-191.322	0.655	0.009
-491.522	49.045	-0.245	0.303
-490.508	-31.593	-0.177	-0.130
-489.493	800.000	0.049	-0.185
-488.478	-10.389	-0.202	-0.176
-487.464	-129.732	0.100	-0.018
-486.449	56.862	-0.367	0.471
-485.435	-134.356	-0.195	-0.031
-484.420	62.474	-0.151	-0.198
-483.405	40.328	-0.214	-0.253
-482.391	800.000	-0.017	-0.062
-481.376	363.879	0.136	0.360
-480.362	-200.000	0.054	0.469
-479.347	-52.007	0.242	-0.147
-478.332	-200.000	-0.028	-0.208
-477.318	800.000	-0.019	0.093
-476.303	380.712	0.151	0.408
-475.289	30.839	-0.176	0.198
-474.274	-144.489	0.089	0.011
-473.259	179.603	-0.182	-0.352
-472.245	-81.666	-0.283	0.122
-471.230	479.887	-0.186	0.558
-470.216	-4.696	-0.081	-0.073
-469.201	109.071	-0.138	-0.217
-468.186	26.258	0.390	-0.428
-467.172	-200.000	0.030	-0.343
-466.157	-135.200	0.386	-0.060
-465.143	-84.154	-0.158	-0.066
-464.128	424.366	0.059	0.167
-463.113	-47.750	0.280	-0.178
-462.099	-52.701	0.255	0.154
-461.084	-167.933	-0.242	-0.012
-460.070	800.000	0.045	0.215
-459.055	-200.000	0.001	-0.055
-458.040	-25.576	-0.133	-0.103
-457.026	-119.677	0.522	0.118
-456.011	788.273	0.085	0.310
-454.997	-27.084	-0.179	-0.137
-453.982	-167.914	-0.328	-0.017
-452.968	-200.000	0.027	0.467
-451.953	800.000	-0.050	0.222
-450.938	353.494	0.097	-0.254
-449.924	131.677	-0.109	-0.185
-448.909	31.593	-0.270	-0.304
-447.895	-106.216	0.172	0.050
-446.880	-60.246	-0.145	0.081
-445.865	-33.179	-0.447	0.325
-444.851	-74.689	-0.139	0.065
-443.836	800.000	-0.061	-0.311
-442.822	-81.754	-0.273	-0.117
-441.807	123.861	0.238	0.393
-440.792	-45.339	-0.274	-0.178
-439.778	-152.824	0.315	-0.029
-438.763	-39.071	0.180	0.124
-437.749	109.047	-0.049	-0.077
-436.734	-120.179	0.510	-0.113
-435.719	-160.433	-0.368	0.026
-434.705	74.920	-0.240	-0.332
-433.690	-25.248	0.143	-0.111
-432.676	472.755	0.120	0.357
-431.661	140.788	0.092	0.160
-430.646	211.292	-0.403	0.836
-429.632	-41.905	0.427	0.286
-428.617	800.000	-0.034	-0.184
-427.603	800.000	-0.063	0.234
-426.588	597.757	-0.093	-0.305
-425.573	-110.222	0.170	0.046
-424.559	-120.722	0.176	-0.039
-423.544	18.170	-0.309	-0.323
-422.530	-56.025	0.048	0.028
-421.515	-51.117	-0.213	-0.131
-420.500	796.026	0.039	0.141
-419.486	190.991	-0.066	0.130
-418.471	45.062	0.102	-0.123
-417.457	800.000	0.049	-0.219
-416.442	-126.973	0.099	-0.019
-415.428	-156.846	0.331	-0.026
-414.413	-64.569	-0.202	0.107
-413.398	29.264	0.181	-0.202
-412.384	-130.718	0.199	0.035
-411.369	-200.000	0.040	-0.288
-410.355	-128.288	0.080	-0.015
-409.340	-148.943	0.281	0.029
-408.325	184.212	-0.313	0.609
-407.311	800.000	0.036	0.147
-406.296	-181.431	-0.363	-0.009
-405.282	-200.000	-0.069	-0.599
-404.267	-135.404	0.189	-0.029
-403.252	-10.530	-0.186	-0.161
-402.238	-110.546	-0.438	0.118
-401.223	-112.306	-0.334	-0.087
-400.209	516.274	-0.088	0.270
-399.194	4.564	0.309	-0.297
-398.179	-4.775	0.281	0.254
-397.165	-200.000	-0.046	-0.617
-396.150	-69.527	0.155	0.078
-395.136	-98.762	0.308	-0.102
-394.121	86.854	-0.279	-0.404
-393.106	1.258	-0.357	-0.336
-392.092	79.940	-0.202	-0.285
-391.077	-100.297	-0.498	0.161
-390.063	215.349	0.205	0.427
-389.048	-167.309	0.086	0.004
-388.033	-52.845	0.079	-0.048
-387.019	-200.000	-0.010	0.073
-386.004	-119.678	-0.269	-0.060
-384.990	-200.000	0.013	-0.135
-383.975	360.219	0.128	-0.338
-382.960	41.257	0.130	-0.153
-381.946	800.000	-0.083	0.415
-380.931	-200.000	-0.010	0.113
-379.917	-200.000	0.030	-0.199
-378.902	210.986	-0.135	0.279
-377.888	19.763	-0.273	0.288
-376.873	800.000	0.096	0.437
-375.858	-121.532	0.100	-0.021
-374.844	-58.662	0.451	-0.255
-373.829	-200.000	0.002	-0.139
-372.815	-27.784	-0.550	-0.417
-371.800	-140.041	0.487	-0.066
-370.785	39.076	0.365	-0.428
-369.771	93.595	0.207	0.307
-368.756	-37.274	-0.125	-0.087
-367.742	-124.169	-0.273	0.055
-366.727	800.000	0.044	0.162
-365.712	-16.878	-0.197	0.163
-364.698	-22.777	0.206	-0.162
-363.683	-200.000	0.008	-0.481
-362.669	181.241	0.018	-0.034
-361.654	-159.072	-0.428	-0.031
-360.639	-200.000	0.006	0.255
-359.625	-101.466	-0.118	0.037
-358.610	-118.531	-0.182	0.042
-357.596	78.447	-0.173	-0.243
-356.581	243.388	0.143	0.314
-355.566	6.048	-0.149	-0.145
-354.552	42.449	0.115	-0.137
-353.537	-83.316	0.437	0.182
-352.523	-35.304	0.122	-0.087
-351.508	591.253	0.087	0.282
-350.493	18.114	0.116	0.121
-349.479	129.267	0.124	-0.208
-348.464	416.083	-0.024	-0.068
-347.450	-43.384	0.299	0.197
-346.435	-65.688	0.239	-0.125
-345.420	84.769	0.121	-0.174
-344.406	178.748	0.040	0.077
-343.391	19.191	0.185	0.194
-342.377	-200.000	0.004	-0.091
-341.362	-7.447	-0.229	0.203
-340.348	-140.814	-0.355	0.047
-339.333	-115.647	-0.490	0.119
-338.318	-150.183	0.227	-0.023
-337.304	-81.122	0.114	-0.049
-336.289	-127.212	0.283	-0.054
-335.275	-13.162	0.244	0.207
-334.260	76.578	0.150	0.208
-333.245	377.385	0.106	0.285
-332.231	-79.919	-0.266	0.116
-331.216	72.099	-0.061	-0.083
-330.202	-87.408	-0.519	0.204
-329.187	-8.865	0.056	-0.049
-328.172	520.584	-0.098	-0.303
-327.158	-45.807	0.592	-0.381
-326.143	-148.316	-0.186	0.020
-325.129	102.329	0.112	0.172
-324.114	-73.760	0.131	0.062
-323.099	759.375	-0.052	-0.185
-322.085	-51.358	-0.525	0.320
-321.070	-157.836	-0.187	0.014
-320.056	-116.484	0.410	0.098
-319.041	120.248	-0.157	0.255
-318.026	-121.931	0.337	0.072
-317.012	737.917	-0.027	0.095
-315.997	800.000	0.009	0.032
-314.983	-133.295	-0.391	0.064
-313.968	-46.944	-0.295	-0.188
-312.953	85.813	0.226	0.326
-311.939	-133.374	0.220	-0.036
-310.924	800.000	-0.066	0.245
-309.910	-173.714	0.603	0.023
-308.895	-200.000	0.050	0.467
-307.880	-85.619	-0.272	-0.110
-306.866	-134.008	0.152	-0.024
-305.851	673.302	-0.057	-0.195
-304.837	-97.383	-0.128	-0.043
-303.822	-184.543	0.064	0.001
-302.807	35.207	0.153	0.175
-301.793	-200.000	-0.050	0.298
-300.778	800.000	-0.066	-0.288
-299.764	-152.057	-0.866	0.081
-298.749	-10.499	-0.211	-0.182
-297.735	-200.000	-0.011	0.219
-296.720	40.517	0.061	0.072
-295.705	-187.233	0.217	-0.004
-294.691	-61.450	0.179	-0.098
-293.676	104.868	0.110	-0.170
-292.662	-144.082	-0.263	0.032
-291.647	800.000	0.115	0.432
-290.632	-86.524	0.171	0.068
-289.618	-122.531	-0.139	-0.029
-288.603	-87.543	0.336	0.132
-287.589	-103.727	0.255	-0.077
-286.574	-200.000	-0.054	0.389
-285.559	800.000	0.024	-0.116
-284.545	87.934	0.073	-0.105
-283.530	-47.240	-0.143	-0.091
-282.516	-122.595	-0.251	-0.053
-281.501	-162.064	-0.069	-0.004
-280.486	58.398	0.207	-0.266
-279.472	-158.604	-0.831	-0.062
-278.457	375.342	-0.071	0.190
-277.443	-72.314	-0.409	-0.197
-276.428	185.425	-0.069	-0.134
-275.413	-146.278	0.554	0.063
-274.399	73.696	0.098	0.134
-273.384	109.419	0.069	-0.109
-272.370	800.000	-0.031	0.164
-271.355	-65.596	0.329	0.171
-270.340	53.514	0.159	0.199
-269.326	-142.627	-0.393	0.050
-268.311	62.624	0.211	0.275
-267.297	115.309	0.469	-0.749
-266.282	800.000	-0.026	-0.112
-265.267	46.054	0.224	-0.270
-264.253	-38.479	-0.180	0.123
-263.238	800.000	0.103	-0.498
-262.224	49.591	0.088	0.108
-261.209	155.071	-0.226	-0.406
-260.195	82.270	-0.094	0.133
-259.180	-200.000	0.036	0.367
-258.165	800.000	0.108	0.481
-257.151	334.536	-0.032	-0.082
-256.136	19.168	0.229	-0.240
-255.122	-200.000	-0.038	0.226
-254.107	-137.164	-0.235	-0.035
-253.092	-97.817	-0.182	0.061
-252.078	-28.848	0.370	-0.276
-251.063	-200.000	-0.011	-0.200
-250.049	-182.099	0.141	0.003
-249.034	222.983	0.217	-0.456
-248.019	247.594	0.078	0.173
-247.005	95.554	-0.351	-0.522
-245.990	613.665	-0.219	-0.717
-244.976	121.347	-0.136	-0.222
-243.961	502.614	0.144	0.436
-242.946	348.105	-0.246	0.634
-241.932	55.714	-0.126	0.159
-240.917	-145.886	0.456	0.052
-239.903	-26.140	0.130	-0.100
-238.888	7.795	-0.200	-0.195
-237.873	21.959	0.193	0.205
-236.859	-70.293	-0.075	0.037
-235.844	30.157	-0.595	0.661
-234.830	-10.438	-0.264	0.227
-233.815	-131.990	-0.440	-0.074
-232.800	369.499	0.045	-0.118
-231.786	-200.000	0.014	-0.276
-230.771	-150.029	0.467	-0.047
-229.757	800.000	-0.165	-0.661
-228.742	539.033	-0.054	-0.169
-227.727	800.000	-0.034	-0.177
-226.713	15.870	-0.197	0.201
-225.698	-4.249	-0.192	0.173
-224.684	-79.982	0.549	0.239
-223.669	0.797	-0.159	0.148
-222.655	-61.001	-0.258	0.141
-221.640	-50.847	-0.240	0.147
-220.625	-20.802	-0.167	-0.133
-219.611	82.383	0.163	0.231
-218.596	-7.357	-0.355	-0.312
-217.582	-46.682	0.355	-0.226
-216.567	-200.000	0.012	-0.112
-215.552	-15.616	0.402	-0.333
-214.538	540.535	0.081	0.254
-213.523	-178.380	0.108	-0.003
-212.509	-64.615	0.163	-0.086
-211.494	-149.447	-0.367	-0.037
-210.479	231.724	0.141	0.302
-209.465	-35.217	0.220	-0.156
-208.450	-70.645	-0.494	-0.242
-207.436	-200.000	0.016	-0.158
-206.421	109.031	-0.267	0.415
-205.406	721.587	0.084	0.291
-204.392	-100.671	0.316	0.101
-203.377	800.000	-0.019	-0.100
-202.363	3.427	-0.149	0.141
-201.348	-105.199	0.191	0.056
-200.333	-169.716	-0.417	0.019
-199.319	-45.993	-0.174	-0.111
-198.304	-79.737	0.559	-0.244
-197.290	-63.811	0.604	-0.320
-196.275	-200.000	0.006	0.040
-195.260	-73.427	-0.018	0.008
-194.246	-200.000	-0.069	0.492
-193.231	-79.382	-0.225	0.099
-192.217	-106.200	-0.061	-0.018
-191.202	-200.000	-0.033	-0.215
-190.187	-156.763	0.160	-0.013
-189.173	147.978	0.034	0.059
-188.158	-1.649	-0.283	0.259
-187.144	-129.850	0.240	-0.042
-186.129	148.544	0.267	0.470
-185.114	17.118	-0.091	-0.094
-184.100	28.668	-0.153	-0.168
-183.085	247.293	-0.253	0.557
-182.071	15.919	-0.384	0.393
-181.056	-200.000	-0.009	0.445
-180.042	-9.912	0.160	-0.138
-179.027	-56.252	0.169	0.097
-178.012	-70.081	0.417	0.206
-176.998	185.604	0.135	0.261
-175.983	-58.883	0.320	0.179
-174.969	-105.920	-0.192	-0.056
-173.954	-99.019	0.374	-0.122
-172.939	711.169	0.054	0.185
-171.925	217.253	-0.069	0.142
-170.910	223.482	-0.167	-0.351
-169.896	-111.945	-0.132	-0.034
-168.881	-10.447	-0.214	-0.184
-167.866	13.738	0.210	-0.211
-166.852	5.096	-0.128	0.122
-165.837	-129.920	-0.202	-0.036
-164.823	104.530	-0.367	-0.562
-163.808	22.240	0.208	-0.220
-162.793	-154.116	0.353	-0.031
-161.779	-200.000	-0.043	-0.322
-160.764	1.211	-0.655	-0.610
-159.750	264.583	0.090	-0.203
-158.735	-170.421	0.352	0.016
-157.720	120.718	0.127	-0.206
-156.706	-115.395	-0.303	0.074
-155.691	172.269	-0.023	-0.042
-154.677	-200.000	-0.041	-0.543
-153.662	13.064	-0.316	0.317
-152.647	-200.000	0.045	0.392
-151.633	-200.000	0.019	0.201
-150.618	-165.728	0.362	-0.020
-149.604	-78.248	0.353	-0.156
-148.589	208.365	0.317	-0.645
-147.574	-58.186	0.810	0.456
-146.560	690.516	-0.046	0.156
-145.545	-51.249	-0.337	0.204
-144.531	24.608	0.322	-0.345
-143.516	-176.098	0.309	0.010
-142.502	19.905	0.063	-0.066
-141.487	-141.274	-0.231	0.030
-140.472	800.000	-0.045	0.254
-139.458	37.065	0.479	0.550
-138.443	-200.000	0.020	0.133
-137.429	-134.369	0.155	0.024
-136.414	-65.986	-0.093	-0.048
-135.399	-164.514	-0.136	0.008
-134.385	165.713	-0.199	-0.367
-133.370	-200.000	0.077	0.625
-132.356	-99.650	0.180	0.058
-131.341	-3.102	0.354	-0.320
-130.326	43.880	0.004	0.005
-129.312	15.025	-0.247	-0.251
-128.297	-112.408	-0.475	-0.122
-127.283	-200.000	0.049	-0.365
-126.268	152.510	0.222	-0.394
-125.253	207.612	-0.176	-0.358
-124.239	434.843	0.161	0.456
-123.224	-141.123	-0.288	0.038
-122.210	213.272	-0.102	-0.209
-121.195	588.644	0.047	-0.152
-120.180	-160.554	-0.385	0.026
-119.166	-78.241	0.219	0.097
-118.151	71.247	0.325	-0.438
-117.137	-193.746	-0.093	0.001
-116.122	208.648	-0.110	0.224
-115.107	-106.755	-0.365	-0.104
-114.093	201.851	0.129	-0.259
-113.078	212.911	0.042	-0.086
-112.064	-111.744	0.301	0.078
-111.049	-41.680	0.450	0.298
-110.034	-76.795	-0.407	0.184
-109.020	270.915	-0.083	0.190
-108.005	34.480	0.300	0.339
-106.991	-200.000	-0.006	0.400
-105.976	-150.141	0.165	-0.016
-104.962	212.281	-0.146	-0.299
-103.947	-124.614	-0.454	0.091
-102.932	6.201	0.396	-0.380
-101.918	-117.287	0.183	-0.043
-100.903	-7.147	0.257	0.225
-99.889	152.138	0.298	-0.527
-98.874	800.000	-0.139	0.573
-97.859	72.224	0.067	-0.090
-96.845	-91.890	0.375	-0.137
-95.830	-109.360	0.343	-0.093
-94.816	-200.000	-0.008	-0.074
-93.801	-200.000	-0.016	0.167
-92.786	-16.906	0.160	-0.131
-91.772	-97.393	-0.345	-0.116
-90.757	-74.280	0.265	-0.124
-89.743	75.905	0.114	-0.157
-88.728	143.759	0.210	-0.364
-87.713	69.603	-0.262	0.350
-86.699	-98.927	-0.322	0.105
-85.684	33.618	0.292	-0.328
-84.670	-200.000	0.552	-0.001
-83.655	-200.000	-0.022	0.196
-82.640	800.000	0.027	0.150
-81.626	148.814	0.111	-0.195
-80.611	75.179	0.395	-0.539
-79.597	-200.000	0.007	-0.357
-78.582	-82.858	0.052	0.021
-77.567	-70.056	0.334	0.164
-76.553	0.652	0.168	0.156
-75.538	-72.670	-0.291	-0.138
-74.524	-145.870	-0.339	-0.039
-73.509	788.724	-0.051	-0.181
-72.494	-81.195	0.291	-0.124
-71.480	-101.616	0.261	0.081
-70.465	-74.547	0.352	-0.163
-69.451	-71.708	-0.148	0.071
-68.436	-117.334	-0.172	0.040
-67.422	-156.068	0.352	0.028
-66.407	-122.429	-0.309	-0.065
-65.392	546.050	0.113	-0.351
-64.378	-93.000	-0.131	-0.047
-63.363	9.594	-0.442	-0.433
-62.349	52.481	-0.175	0.217
-61.334	3.291	-2.228	-2.096
-60.319	38.845	1.700	1.964
-59.305	331.215	-3.135	-7.849
-58.290	61.260	3.866	4.972
-57.276	353.866	3.718	9.589
-56.261	-200.000	24.277	320.480
-55.246	354.193	1304.439	3365.654
-54.232	52.990	2843.302	3520.119
-53.217	51.510	2658.114	3267.863
-52.203	31.872	2388.472	2659.716
-51.188	27.885	2054.946	2239.196
-50.173	24.476	1941.276	2075.485
-49.159	23.523	1928.737	2050.927
-48.144	23.012	1925.128	2041.081
-47.130	22.764	1923.502	2036.397
-46.115	22.772	1921.204	2033.973
-45.100	22.870	1918.504	2032.168
-44.086	22.766	1917.764	2030.107
-43.071	22.874	1915.924	2029.326
-42.057	22.735	1914.475	2026.104
-41.042	22.672	1914.116	2024.923
-40.027	22.708	1912.158	2023.181
-39.013	22.666	1910.406	2020.759
-37.998	22.735	1908.611	2019.577
-36.984	22.794	1907.858	2019.376
-35.969	22.764	1907.044	2018.094
-34.954	22.646	1906.649	2016.239
-33.940	22.663	1904.494	2014.076
-32.925	22.658	1903.201	2012.574
-31.911	22.608	1902.560	2011.234
-30.896	22.624	1900.478	2009.145
-29.881	22.590	1899.521	2007.658
-28.867	22.616	1897.684	2005.935
-27.852	22.540	1896.283	2003.510
-26.838	22.608	1894.098	2001.897
-25.823	22.626	1892.867	2000.724
-24.809	22.617	1891.937	1999.551
-23.794	22.514	1891.191	1997.516
-22.779	22.461	1889.817	1995.379
-21.765	22.599	1887.973	1994.928
-20.750	22.529	1887.615	1993.667
-19.736	22.609	1885.945	1992.739
-18.721	22.510	1884.954	1990.489
-17.706	22.540	1884.502	1990.269
-16.692	22.453	1883.052	1987.671
-15.677	22.455	1882.310	1986.833
-14.663	22.563	1879.536	1985.046
-13.648	22.484	1878.659	1983.146
-12.633	22.491	1877.794	1982.240
-11.619	22.472	1876.088	1980.141
-10.604	22.559	1874.929	1979.829
-9.590	22.417	1874.353	1977.535
-8.575	22.466	1872.777	1976.346
-7.560	22.593	1871.156	1975.990
-6.546	22.413	1870.505	1973.197
-5.531	22.447	1869.327	1972.259
-4.517	22.471	1868.054	1971.109
-3.502	22.391	1867.466	1969.506
-2.487	22.552	1865.945	1969.628
-1.473	22.567	1862.150	1965.715
-0.458	22.472	1843.303	1944.687
0.556	19.074	1991.049	2047.718
1.571	17.737	2194.641	2239.199
2.586	18.503	2233.482	2288.834
3.600	18.638	2235.124	2292.058
4.615	18.517	2234.858	2289.881
5.629	18.573	2232.786	2288.231
6.644	18.560	2230.331	2285.277
7.659	18.615	2229.248	2284.619
8.673	18.554	2226.337	2280.550
9.688	18.289	2236.051	2286.676
10.702	17.318	2316.260	2354.899
11.717	15.841	2380.952	2399.227
12.731	7.709	2360.837	2262.726
13.746	0.995	2343.424	2150.187
14.761	0.134	2339.701	2134.242
15.775	0.130	2337.260	2131.702
16.790	0.030	2335.879	2128.772
17.804	-0.007	2334.462	2126.692
18.819	-0.020	2333.870	2125.713
19.834	0.111	2330.977	2124.696
20.848	0.012	2330.090	2122.225
21.863	-0.090	2329.255	2119.766
22.877	0.016	2326.523	2118.524
23.892	0.036	2324.038	2116.292
24.907	0.066	2321.473	2114.131
25.921	-0.028	2320.632	2111.773
26.936	0.036	2317.267	2109.372
27.950	0.075	2315.031	2107.623
28.965	0.098	2313.303	2106.132
29.980	0.028	2312.567	2104.214
30.994	0.063	2310.318	2102.414
32.009	4.154	2322.909	2171.317
33.023	13.722	2349.815	2331.992
34.038	17.816	2355.240	2394.972
35.053	17.993	2354.599	2396.536
36.067	17.988	2352.652	2394.190
37.082	18.012	2350.961	2392.518
38.096	18.033	2349.240	2390.772
39.111	18.260	2346.010	2390.392
40.126	18.315	2344.137	2388.968
41.140	18.493	2341.884	2388.888
42.155	18.155	2341.560	2383.525
43.169	18.237	2338.748	2381.531
44.184	18.216	2335.937	2378.083
45.199	18.154	2333.955	2374.924
46.213	18.275	2332.759	2375.107
47.228	18.241	2331.799	2373.367
48.242	18.227	2329.887	2370.949
49.257	18.252	2327.785	2368.875
50.271	18.305	2325.081	2366.574
51.286	18.214	2323.314	2363.224
52.301	18.117	2321.367	2359.625
53.315	18.443	2322.943	2365.460
54.330	19.933	2326.329	2389.311
55.344	20.996	2325.187	2402.585
56.359	20.925	2322.214	2398.243
57.374	21.092	2321.361	2399.385
58.388	21.243	2319.214	2398.971
59.403	21.176	2315.470	2393.883
60.417	21.009	2311.633	2387.330
61.432	21.149	2311.390	2388.718
62.447	21.291	2309.759	2388.703
63.461	21.485	2308.229	2389.496
64.476	21.616	2306.081	2388.782
65.490	21.292	2305.606	2383.556
66.505	20.916	2302.793	2375.217
67.520	19.705	2297.056	2352.452
68.534	18.245	2291.636	2326.681
69.549	18.146	2287.230	2320.581
70.563	18.321	2284.330	2319.753
71.578	18.336	2283.282	2318.617
72.593	18.269	2282.616	2316.744
73.607	18.436	2280.660	2316.748
74.622	18.441	2279.030	2314.887
75.636	18.345	2274.972	2309.189
76.651	18.352	2273.201	2307.209
77.666	18.294	2271.998	2304.923
78.680	18.358	2269.722	2303.212
79.695	18.335	2267.407	2300.267
80.709	18.258	2266.931	2298.472
81.724	18.343	2264.365	2296.741
82.739	18.257	2262.461	2293.374
83.753	18.266	2260.103	2290.830
84.768	18.321	2257.764	2288.927
85.782	18.228	2256.982	2286.614
86.797	18.251	2254.764	2284.403
87.812	18.189	2252.380	2280.878
88.826	18.248	2250.503	2279.492
89.841	18.226	2248.830	2277.234
90.855	18.281	2246.301	2275.135
91.870	18.284	2243.634	2272.204
92.884	18.246	2242.459	2270.237
93.899	18.181	2241.531	2268.161
94.914	18.484	2242.888	2273.305
95.928	19.842	2246.228	2294.525
96.943	20.331	2244.548	2299.045
97.957	18.891	2237.383	2272.315
98.972	18.195	2234.196	2259.566
99.987	17.971	2231.293	2253.389
101.001	18.043	2228.190	2250.947
102.016	18.090	2226.458	2249.537
103.030	18.092	2224.519	2247.348
104.045	18.186	2221.912	2245.683
105.060	18.325	2219.604	2244.915
106.074	18.342	2217.990	2243.233
107.089	18.141	2216.240	2238.556
108.103	18.201	2215.981	2238.814
109.118	18.169	2214.327	2236.446
110.133	18.332	2212.540	2236.513
111.147	18.325	2210.685	2234.285
112.162	18.423	2208.974	2233.571
113.176	18.304	2206.905	2229.651
114.191	18.123	2205.555	2225.661
115.206	18.232	2203.021	2224.259
116.220	18.293	2201.142	2222.892
117.235	18.198	2198.191	2218.409
118.249	18.101	2196.296	2214.962
119.264	18.261	2195.102	2215.582
120.279	18.366	2193.524	2215.079
121.293	18.274	2192.112	2212.196
122.308	18.105	2191.696	2209.315
123.322	18.279	2189.686	2209.279
124.337	18.437	2189.540	2210.922
125.352	19.979	2193.873	2235.058
126.366	20.248	2192.249	2236.619
127.381	18.791	2183.561	2208.672
128.395	18.054	2180.534	2195.827
129.410	18.239	2177.879	2195.273
130.424	18.157	2177.442	2193.517
131.439	18.119	2175.294	2190.600
132.454	18.159	2173.258	2188.803
133.468	18.167	2170.788	2186.159
134.483	18.175	2169.732	2184.928
135.497	18.146	2169.263	2183.825
136.512	18.214	2165.823	2180.979
137.527	18.151	2164.740	2178.816
138.541	18.190	2162.632	2176.929
139.556	18.117	2162.059	2175.168
140.570	18.119	2160.195	2173.052
141.585	18.223	2157.511	2171.415
142.600	18.116	2157.584	2169.865
143.614	18.112	2155.785	2167.749
144.629	18.171	2153.314	2165.752
145.643	18.070	2151.778	2162.664
146.658	18.075	2150.164	2160.843
147.673	18.136	2148.174	2159.363
148.687	18.244	2147.646	2159.944
149.702	18.355	2145.622	2159.058
150.716	18.130	2145.085	2155.405
151.731	18.225	2143.650	2154.911
152.746	18.291	2142.117	2153.945
153.760	18.520	2143.530	2158.012
154.775	19.888	2148.306	2179.884
155.789	20.267	2145.371	2181.442
156.804	18.828	2138.289	2155.839
157.819	18.058	2133.471	2141.034
158.833	18.249	2130.582	2140.281
159.848	18.316	2128.914	2139.187
160.862	18.391	2127.978	2138.933
161.877	18.364	2126.593	2136.954
162.892	18.410	2125.295	2135.960
163.906	18.434	2123.398	2134.100
164.921	18.276	2121.970	2130.434
165.935	18.416	2119.170	2129.117
166.950	18.507	2116.836	2127.649
167.964	18.267	2116.055	2123.625
168.979	18.135	2114.619	2120.285
169.994	18.297	2112.765	2120.187
171.008	18.279	2110.059	2116.997
172.023	18.153	2109.887	2114.998
173.037	18.270	2108.783	2115.096
174.052	18.216	2106.996	2112.371
175.067	18.063	2105.115	2108.337
176.081	18.121	2104.172	2107.864
177.096	18.185	2102.542	2106.769
178.110	18.074	2100.320	2102.920
179.125	18.168	2098.835	2102.337
180.140	18.174	2098.666	2101.998
181.154	18.156	2096.527	2099.380
182.169	18.022	2096.207	2097.161
183.183	18.423	2095.539	2101.183
184.198	20.026	2099.284	2124.460
185.213	20.444	2097.653	2127.698
186.227	19.079	2091.251	2104.193
187.242	18.353	2088.258	2092.015
188.256	18.302	2085.604	2088.477
189.271	18.293	2085.095	2087.615
190.286	18.225	2083.887	2085.315
191.300	18.211	2080.398	2081.402
192.315	18.154	2079.267	2079.326
193.329	18.243	2078.780	2079.685
194.344	18.336	2077.418	2079.204
195.359	18.403	2076.644	2079.002
196.373	18.284	2073.286	2073.943
197.388	18.251	2072.055	2072.058
198.402	18.243	2069.623	2069.274
199.417	18.197	2067.521	2066.378
200.432	18.255	2066.321	2065.625
201.446	18.292	2065.236	2064.749
202.461	18.216	2063.062	2061.400
203.475	18.227	2060.965	2059.191
204.490	18.236	2058.590	2056.684
205.504	18.310	2056.269	2055.013
206.519	18.223	2055.059	2052.510
207.534	18.145	2053.578	2049.846
208.548	18.115	2053.058	2048.718
209.563	18.241	2051.216	2048.154
210.577	18.219	2049.301	2045.733
211.592	18.287	2049.602	2046.604
212.607	19.013	2052.357	2057.837
213.621	20.778	2055.392	2081.877
214.636	20.344	2050.431	2071.388
215.650	18.668	2044.512	2045.107
216.665	18.375	2042.604	2039.444
217.680	18.322	2040.445	2036.417
218.694	18.397	2039.123	2035.751
219.709	18.203	2037.289	2031.350
220.723	18.273	2036.656	2031.316
221.738	18.475	2033.680	2030.514
222.753	18.303	2032.048	2026.598
223.767	18.259	2031.327	2025.103
224.782	18.226	2028.575	2021.735
225.796	18.269	2028.320	2021.749
226.811	18.353	2026.042	2020.228
227.826	18.367	2024.319	2018.438
228.840	18.274	2024.184	2016.957
229.855	18.351	2021.689	2015.134
230.869	18.300	2019.934	2012.542
231.884	18.313	2018.425	2010.958
232.899	18.274	2016.861	2008.692
233.913	18.186	2016.100	2006.662
234.928	18.262	2014.860	2006.080
235.942	18.229	2013.299	2003.894
236.957	18.324	2011.822	2003.310
237.972	18.166	2010.720	2000.116
238.986	18.258	2009.916	2000.154
240.001	18.352	2007.272	1998.384
241.015	18.212	2005.778	1995.016
242.030	18.512	2006.671	1999.178
243.045	20.042	2008.557	2018.755
244.059	20.037	2007.098	2016.996
245.074	18.729	2000.946	1995.302
246.088	18.238	1997.258	1985.654
247.103	18.218	1995.743	1983.683
248.117	18.346	1994.484	1983.678
249.132	18.304	1992.730	1981.212
250.147	18.214	1991.187	1978.400
251.161	18.022	1990.074	1974.820
252.176	18.314	1988.143	1976.058
253.190	18.434	1986.331	1975.404
254.205	18.329	1985.260	1972.887
255.220	18.293	1984.337	1971.318
256.234	18.295	1982.547	1969.333
257.249	18.366	1980.707	1968.093
258.263	18.384	1979.276	1966.643
259.278	18.434	1978.680	1966.383
260.293	18.180	1977.698	1962.243
261.307	18.330	1974.557	1960.617
262.322	18.277	1973.331	1958.563
263.336	17.999	1971.647	1953.463
264.351	18.131	1969.870	1952.987
265.366	18.179	1968.626	1952.064
266.380	18.216	1968.055	1951.686
267.395	18.178	1966.567	1949.543
268.409	18.065	1964.892	1946.358
269.424	18.155	1963.653	1945.931
270.439	18.221	1962.153	1944.966
271.453	18.699	1962.510	1950.540
272.468	20.113	1964.596	1968.534
273.482	20.290	1961.852	1967.567
274.497	18.738	1956.429	1944.250
275.512	18.218	1953.163	1934.852
276.526	18.353	1951.059	1934.077
277.541	18.208	1949.383	1930.538
278.555	18.173	1947.733	1928.277
279.570	18.187	1945.648	1926.132
280.585	18.129	1944.476	1924.094
281.599	18.197	1943.544	1923.704
282.614	18.317	1942.262	1923.567
283.628	18.391	1941.651	1923.567
284.643	18.320	1940.852	1921.740
285.657	18.551	1939.425	1922.701
286.672	18.469	1937.948	1920.088
287.687	18.379	1936.435	1917.346
288.701	18.452	1933.962	1915.490
289.716	18.395	1932.598	1913.263
290.730	18.368	1931.183	1911.332
291.745	18.358	1930.454	1910.273
292.760	18.345	1929.394	1908.850
293.774	18.286	1927.980	1906.554
294.789	18.384	1927.130	1906.583
295.803	18.253	1925.218	1903.001
296.818	18.190	1923.357	1900.226
297.833	18.252	1922.136	1899.489
298.847	18.223	1921.159	1897.974
299.862	18.291	1918.942	1896.308
300.876	18.573	1918.898	1899.177
301.891	20.073	1922.145	1918.872
302.906	20.628	1920.646	1923.320
303.920	18.952	1915.659	1899.498
304.935	18.452	1911.663	1889.770
305.949	18.425	1909.284	1886.890
306.964	18.161	1908.736	1883.205
307.979	18.203	1907.589	1882.319
308.993	18.293	1904.959	1880.490
310.008	18.386	1903.364	1879.716
311.022	18.396	1902.497	1878.743
312.037	18.495	1901.382	1878.512
313.052	18.569	1898.670	1876.412
314.066	18.460	1897.620	1873.958
315.081	18.369	1896.559	1871.686
316.095	18.423	1895.832	1871.337
317.110	18.431	1893.941	1869.331
318.125	18.218	1892.618	1865.472
319.139	18.382	1891.634	1866.070
320.154	18.496	1890.373	1865.850
321.168	18.373	1888.993	1862.918
322.183	18.479	1886.597	1861.496
323.197	18.367	1885.302	1858.773
324.212	18.238	1883.052	1854.920
325.227	18.136	1881.379	1851.945
326.241	18.298	1879.828	1851.960
327.256	18.362	1878.951	1851.564
328.270	18.294	1878.658	1850.323
329.285	18.234	1878.442	1849.232
330.300	18.753	1881.002	1857.172
331.314	20.435	1882.840	1877.051
332.329	20.222	1878.551	1870.242
333.343	18.784	1872.957	1848.901
334.358	18.467	1870.057	1842.398
335.373	18.446	1867.829	1839.749
336.387	18.331	1866.717	1837.201
337.402	18.250	1865.132	1834.545
338.416	18.315	1863.844	1833.756
339.431	18.234	1863.386	1832.210
340.446	18.532	1860.601	1832.455
341.460	18.588	1859.112	1831.378
342.475	18.485	1858.126	1829.075
343.489	18.506	1856.624	1827.602
344.504	18.413	1855.624	1825.411
345.519	18.586	1854.005	1825.452
346.533	18.456	1852.580	1822.441
347.548	18.681	1851.632	1823.693
348.562	18.586	1849.560	1820.416
349.577	18.484	1849.047	1818.607
350.592	18.518	1848.086	1817.803
351.606	18.532	1846.229	1815.906
352.621	18.366	1844.658	1812.382
353.635	18.190	1842.852	1808.520
354.650	18.117	1841.623	1806.325
355.665	18.200	1840.034	1805.425
356.679	18.226	1838.776	1804.258
357.694	18.241	1836.932	1802.386
358.708	18.266	1836.245	1801.763
359.723	19.037	1837.642	1811.072
360.738	20.593	1839.662	1829.322
361.752	20.059	1836.582	1820.393
362.767	18.679	1831.625	1800.719
363.781	18.313	1829.018	1794.092
364.796	18.394	1827.236	1792.978
365.810	18.209	1826.294	1789.897
366.825	18.133	1826.236	1788.826
367.840	18.271	1825.232	1789.076
368.854	18.298	1823.617	1787.565
369.869	18.031	1821.871	1782.835
370.883	18.083	1819.231	1780.585
371.898	18.171	1818.371	1780.448
372.913	18.185	1817.639	1779.672
373.927	18.203	1816.463	1778.492
374.942	18.286	1815.927	1778.621
375.956	18.286	1814.008	1776.526
376.971	18.162	1812.234	1773.284
377.986	18.098	1809.656	1769.887
379.000	18.281	1808.230	1770.184
380.015	18.513	1807.298	1771.472
381.029	18.434	1806.792	1769.939
382.044	18.453	1804.660	1767.835
383.059	18.383	1802.447	1764.734
384.073	18.216	1801.813	1762.169
385.088	18.194	1800.592	1760.534
386.102	18.150	1798.894	1758.213
387.117	18.104	1796.496	1755.181
388.132	18.126	1796.285	1754.991
389.146	18.626	1799.796	1763.386
390.161	20.352	1801.771	1782.938
391.175	20.256	1795.576	1775.608
392.190	18.624	1789.450	1752.597
393.205	18.319	1786.583	1746.451
394.219	18.172	1786.028	1744.189
395.234	18.222	1785.107	1743.592
396.248	18.273	1783.071	1741.923
397.263	18.123	1781.059	1738.211
398.278	18.208	1778.629	1736.497
399.292	18.189	1778.221	1735.698
400.307	18.365	1778.230	1737.298
401.321	18.552	1776.489	1737.294
402.336	18.385	1775.502	1734.424
403.350	18.395	1773.471	1732.326
404.365	18.627	1772.367	1733.405
405.380	18.729	1771.834	1733.702
406.394	18.705	1770.313	1731.764
407.409	18.626	1768.878	1729.359
408.423	18.602	1767.339	1727.407
409.438	18.464	1765.906	1724.400
410.453	18.568	1765.551	1724.898
411.467	18.539	1764.664	1723.533
412.482	18.485	1762.176	1720.353
413.496	18.376	1761.212	1718.105
414.511	18.437	1759.036	1716.393
415.526	18.284	1757.270	1712.919
416.540	18.256	1756.067	1711.263
417.555	18.278	1754.594	1709.839
418.569	18.205	1754.094	1708.417
419.584	18.308	1754.437	1709.579
420.599	18.367	1753.709	1709.257
421.613	18.246	1752.953	1707.102
422.628	18.316	1751.744	1706.425
423.642	18.318	1750.030	1704.569
424.657	18.195	1748.055	1701.211
425.672	18.185	1745.953	1698.863
426.686	18.124	1745.210	1697.330
427.701	18.150	1743.547	1695.765
428.715	18.165	1742.076	1694.289
429.730	18.344	1740.602	1694.428
430.745	18.251	1739.962	1692.683
431.759	18.381	1738.787	1692.627
432.774	18.430	1738.508	1692.635
433.788	18.223	1737.796	1689.690
434.803	18.302	1736.083	1688.600
435.818	18.204	1735.748	1687.102
436.832	18.012	1735.572	1684.829
437.847	17.095	1728.984	1669.172
438.861	9.796	1708.203	1577.406
439.876	1.864	1693.133	1485.805
440.890	0.274	1689.626	1467.001
441.905	0.061	1688.433	1463.701
442.920	0.093	1687.918	1463.398
443.934	0.123	1685.865	1461.737
444.949	0.245	1684.641	1461.692
445.963	0.019	1683.518	1458.337
446.978	0.035	1683.561	1458.352
447.993	0.138	1681.685	1457.557
449.007	0.144	1679.171	1455.259
450.022	0.155	1677.737	1453.948
451.036	0.116	1676.701	1452.506
452.051	1.216	1681.152	1466.881
453.066	9.005	1697.667	1557.340
454.080	16.498	1708.748	1640.652
455.095	17.836	1711.436	1656.097
456.109	17.934	1711.103	1656.531
457.124	18.120	1709.657	1656.749
458.139	17.978	1709.254	1654.772
459.153	17.973	1707.870	1653.191
460.168	17.923	1706.550	1651.233
461.182	17.941	1704.142	1648.878
462.197	17.939	1702.553	1647.117
463.212	17.999	1701.461	1646.446
464.226	17.923	1700.726	1644.804
465.241	17.914	1699.344	1643.189
466.255	17.955	1698.477	1642.550
467.270	18.034	1696.790	1641.481
468.285	17.932	1695.804	1639.350
469.299	17.863	1694.186	1636.918
470.314	17.944	1692.581	1635.953
471.328	17.813	1691.612	1633.564
472.343	17.962	1690.358	1633.590
473.358	18.162	1688.194	1633.221
474.372	18.053	1687.720	1631.519
475.387	17.955	1686.644	1629.347
476.401	17.866	1685.624	1627.311
477.416	17.976	1684.636	1627.220
478.430	18.042	1682.533	1625.617
479.445	17.997	1681.402	1623.901
480.460	18.068	1679.623	1622.666
481.474	18.066	1678.671	1621.533
482.489	17.966	1677.575	1619.333
483.503	17.988	1676.048	1617.872
484.518	17.927	1674.833	1615.922
485.533	18.132	1673.514	1616.410
486.547	18.077	1672.139	1614.360
487.562	17.896	1671.256	1611.602
488.576	18.165	1669.133	1611.906
489.591	18.148	1668.328	1610.780
490.606	18.183	1666.618	1609.266
491.620	18.206	1664.972	1607.702
492.635	18.013	1664.152	1604.890
493.649	17.988	1663.033	1603.388
494.664	17.935	1662.283	1601.973
495.679	17.919	1660.427	1599.839
496.693	18.009	1658.627	1598.763
497.708	18.090	1657.234	1597.991
498.722	18.010	1656.603	1596.435
499.737	18.084	1655.359	1595.746
500.752	17.969	1653.614	1592.790
501.766	17.984	1652.057	1591.245
502.781	17.992	1649.946	1589.089
503.795	17.953	1649.616	1588.224
504.810	18.005	1648.107	1587.064
505.825	18.019	1647.179	1586.108
506.839	18.082	1646.156	1585.518
507.854	17.910	1645.506	1583.107
508.868	18.033	1643.605	1582.229
509.883	17.925	1642.641	1580.112
510.898	18.107	1640.942	1579.974
511.912	18.022	1639.413	1577.526
512.927	18.043	1637.957	1576.131
513.941	17.907	1636.872	1573.637
514.956	18.124	1635.320	1573.961
515.971	18.077	1634.143	1572.212
516.985	17.961	1633.335	1570.173
518.000	18.070	1632.327	1570.019
519.014	18.065	1631.235	1568.737
520.029	18.013	1630.469	1567.334
521.043	17.917	1629.202	1565.045
522.058	17.921	1627.900	1563.638
523.073	18.077	1626.748	1563.779
524.087	18.131	1625.071	1562.477
525.102	18.202	1623.148	1561.092
526.116	18.044	1622.771	1559.097
527.131	18.054	1621.558	1557.838
528.146	18.049	1621.196	1557.251
529.160	18.177	1619.588	1556.692
530.175	18.049	1619.161	1554.931
531.189	18.056	1617.553	1553.261
532.204	18.050	1616.075	1551.599
533.219	17.946	1614.607	1549.060
534.233	18.125	1613.861	1549.788
535.248	18.001	1613.504	1548.135
536.262	18.176	1612.093	1548.187
537.277	18.126	1611.097	1546.588
538.292	18.190	1608.685	1544.670
539.306	18.163	1607.237	1542.845
540.321	17.992	1606.689	1540.586
541.335	18.101	1604.964	1539.733
542.350	18.079	1603.189	1537.649
543.365	18.121	1601.956	1536.666
544.379	18.233	1600.460	1536.057
545.394	18.218	1599.391	1534.707
546.408	18.248	1597.586	1533.066
547.423	18.166	1596.165	1530.775
548.438	18.152	1595.068	1529.422
549.452	18.179	1594.431	1528.865
550.467	18.130	1593.242	1527.104
551.481	18.025	1592.565	1525.325
552.496	18.120	1591.611	1525.085
553.511	18.185	1590.037	1523.977
554.525	18.113	1588.931	1522.087
555.540	18.043	1588.875	1521.224
556.554	18.152	1587.530	1520.729
557.569	18.302	1585.225	1519.682
558.583	18.173	1583.709	1516.898
559.598	18.002	1583.039	1514.545
560.613	18.017	1582.591	1514.068
561.627	18.059	1580.952	1512.696
562.642	18.013	1579.342	1510.566
563.656	18.108	1578.414	1510.337
564.671	18.171	1576.813	1509.184
565.686	18.158	1576.060	1508.170
566.700	18.044	1574.385	1505.377
567.715	17.951	1573.209	1503.253
568.729	18.072	1571.804	1502.802
569.744	18.107	1570.452	1501.632
570.759	18.094	1569.545	1500.475
571.773	18.109	1568.523	1499.452
572.788	18.017	1567.381	1497.367
573.802	18.030	1565.784	1495.777
574.817	18.153	1564.214	1495.182
575.832	18.079	1563.157	1493.338
576.846	18.196	1561.670	1492.768
577.861	18.145	1560.180	1490.719
578.875	18.057	1559.916	1489.517
579.890	18.183	1558.827	1489.404
580.905	18.238	1557.525	1488.460
581.919	18.247	1556.921	1487.780
582.934	18.280	1555.585	1486.618
583.948	18.078	1555.369	1484.468
584.963	18.150	1553.511	1483.142
585.978	18.084	1552.145	1481.088
586.992	18.251	1551.864	1482.091
588.007	18.324	1550.475	1481.225
589.021	18.227	1549.275	1479.056
590.036	18.068	1548.526	1476.788
591.051	18.126	1547.253	1475.897
592.065	18.114	1545.837	1474.267
593.080	18.142	1544.090	1472.667
594.094	18.243	1542.244	1471.603
595.109	18.040	1540.900	1468.389
596.123	18.165	1538.826	1467.322
597.138	18.202	1538.286	1466.944
598.153	18.246	1537.534	1466.437
599.167	18.079	1535.828	1463.193
600.182	18.198	1534.726	1462.993
601.196	18.193	1533.927	1462.015
602.211	18.135	1533.246	1460.689
603.226	18.037	1532.377	1458.844
604.240	18.275	1530.151	1458.591
605.255	18.245	1529.371	1457.417
606.269	18.112	1528.668	1455.431
607.284	18.231	1527.078	1454.764
608.299	18.149	1525.713	1452.586
609.313	18.113	1524.501	1450.958
610.328	18.217	1523.379	1450.602
611.342	18.214	1521.819	1448.913
612.357	18.161	1521.379	1447.871
613.372	18.184	1520.585	1447.137
614.386	18.219	1519.294	1446.037
615.401	18.142	1518.471	1444.422
616.415	18.140	1517.342	1443.158
617.430	18.193	1516.643	1442.771
618.445	18.189	1516.036	1441.985
619.459	18.104	1514.151	1439.298
620.474	18.186	1513.657	1439.352
621.488	17.994	1513.185	1437.111
622.503	18.109	1511.001	1435.833
623.518	18.047	1510.411	1434.581
624.532	18.186	1508.368	1433.640
625.547	18.122	1507.447	1432.048
626.561	18.254	1506.963	1432.532
627.576	18.260	1505.840	1431.344
628.591	18.129	1504.439	1428.743
629.605	18.033	1503.401	1426.778
630.620	18.184	1501.723	1426.279
631.634	18.193	1500.203	1424.744
632.649	18.262	1499.799	1424.765
633.663	18.141	1498.751	1422.584
634.678	18.218	1496.976	1421.372
635.693	18.225	1495.284	1419.659
636.707	18.273	1493.685	1418.364
637.722	18.169	1493.405	1417.066
638.736	18.302	1492.350	1417.004
639.751	18.294	1491.372	1415.838
640.766	18.281	1490.081	1414.335
641.780	18.239	1488.786	1412.587
642.795	18.237	1488.153	1411.804
643.809	18.322	1487.673	1411.877
644.824	18.266	1486.547	1410.182
645.839	18.346	1485.332	1409.516
646.853	18.168	1484.966	1407.530
647.868	18.429	1481.971	1406.678
648.882	18.283	1481.280	1404.653
649.897	18.371	1479.883	1403.884
650.912	18.285	1478.972	1402.141
651.926	18.310	1477.386	1400.677
652.941	18.391	1475.979	1399.843
653.955	18.224	1475.149	1397.514
654.970	18.126	1473.684	1395.157
655.985	18.219	1472.552	1394.682
656.999	18.377	1470.913	1394.251
658.014	18.460	1470.149	1394.037
659.028	18.398	1469.434	1392.687
660.043	18.251	1469.078	1390.983
661.058	18.314	1467.418	1389.757
662.072	18.232	1466.935	1388.463
663.087	18.272	1465.526	1387.293
664.101	18.495	1463.606	1387.120
665.116	18.427	1462.028	1384.910
666.131	18.348	1461.706	1383.793
667.145	18.238	1460.592	1381.684
668.160	18.340	1458.915	1380.756
669.174	18.376	1457.623	1379.658
670.189	18.313	1456.309	1377.741
671.204	18.149	1456.700	1376.619
672.218	18.242	1456.053	1376.600
673.233	18.352	1453.925	1375.311
674.247	18.300	1453.097	1373.937
675.262	18.401	1452.102	1373.647
676.276	18.259	1451.469	1371.740
677.291	18.249	1450.268	1370.364
678.306	18.308	1449.135	1369.600
679.320	18.295	1447.453	1367.748
680.335	18.303	1447.044	1367.256
681.349	18.339	1445.812	1366.217
682.364	18.272	1445.293	1365.025
683.379	18.248	1443.822	1363.282
684.393	18.293	1442.002	1361.758
685.408	18.311	1440.571	1360.392
686.422	18.353	1440.355	1360.356
687.437	18.315	1439.810	1359.378
688.452	18.289	1438.718	1357.982
689.466	18.280	1437.397	1356.494
690.481	18.274	1436.218	1355.176
691.495	18.127	1436.308	1353.930
692.510	18.189	1434.589	1352.636
693.525	18.241	1432.151	1350.589
694.539	18.099	1431.555	1348.742
695.554	18.362	1431.529	1350.639
696.568	18.232	1430.555	1348.528
697.583	18.310	1429.814	1348.288
698.598	18.290	1428.824	1347.032
699.612	18.191	1427.447	1344.791
700.627	18.301	1426.020	1344.155
701.641	18.373	1424.222	1342.868
702.656	18.344	1422.994	1341.319
703.671	18.473	1422.619	1341.819
704.685	18.407	1422.711	1341.227
705.700	18.243	1421.225	1338.376
706.714	18.309	1420.019	1337.602
707.729	18.350	1418.756	1336.573
708.744	18.308	1417.596	1334.990
709.758	18.398	1416.227	1334.243
710.773	18.339	1415.323	1332.774
711.787	18.352	1413.879	1331.354
712.802	18.480	1411.530	1329.981
713.816	18.455	1410.991	1329.116
714.831	18.358	1410.741	1327.964
715.846	18.488	1409.786	1327.924
716.860	18.569	1408.151	1326.850
717.875	18.624	1406.760	1325.812
718.889	18.541	1405.831	1324.135
719.904	18.441	1405.096	1322.504
720.919	18.490	1403.847	1321.549
721.933	18.440	1403.340	1320.531
722.948	18.413	1402.508	1319.381
723.962	18.540	1401.139	1318.915
724.977	18.491	1400.354	1317.642
725.992	18.498	1399.569	1316.796
727.006	18.341	1397.847	1313.809
728.021	18.384	1396.430	1312.655
729.035	18.412	1395.366	1311.711
730.050	18.323	1394.571	1310.117
731.065	18.378	1393.278	1309.174
732.079	18.518	1391.976	1308.870
733.094	18.356	1391.000	1306.553
734.108	18.365	1390.293	1305.799
735.123	18.487	1388.910	1305.273
736.138	18.375	1388.041	1303.444
737.152	18.569	1386.036	1302.889
738.167	18.522	1384.926	1301.332
739.181	18.489	1384.526	1300.546
740.196	18.473	1384.124	1299.895
741.211	18.381	1383.234	1298.198
742.225	18.406	1382.444	1297.490
743.240	18.491	1380.000	1295.690
744.254	18.382	1378.995	1293.763
745.269	18.343	1378.604	1292.948
746.284	18.358	1377.823	1292.175
747.298	18.234	1377.065	1290.368
748.313	18.239	1375.625	1288.900
749.327	18.238	1374.386	1287.577
750.342	18.243	1374.015	1287.114
751.356	18.131	1372.441	1284.644
752.371	18.378	1370.905	1284.913
753.386	18.244	1370.385	1283.260
754.400	18.435	1369.439	1283.659
755.415	18.517	1368.446	1283.193
756.429	18.539	1367.182	1282.016
757.444	18.453	1366.165	1280.266
758.459	18.538	1365.310	1279.952
759.473	18.447	1364.228	1278.102
760.488	18.628	1362.694	1277.866
761.502	18.560	1361.534	1276.117
762.517	18.597	1360.761	1275.519
763.532	18.519	1359.450	1273.551
764.546	18.695	1358.362	1273.693
765.561	18.393	1358.044	1270.991
766.575	18.435	1357.094	1270.263
767.590	18.559	1355.191	1269.249
768.605	18.570	1354.146	1268.203
769.619	18.516	1353.487	1267.029
770.634	18.536	1352.535	1266.135
771.648	18.500	1352.102	1265.317
772.663	18.573	1351.544	1265.183
773.678	18.647	1350.150	1264.271
774.692	18.538	1348.925	1262.171
775.707	18.648	1348.337	1262.279
776.721	18.442	1348.069	1260.357
777.736	18.362	1347.029	1258.643
778.751	18.671	1345.059	1258.929
779.765	18.543	1344.138	1256.970
780.780	18.421	1343.353	1255.188
781.794	18.476	1342.612	1254.753
782.809	18.407	1341.735	1253.274
783.824	18.369	1340.556	1251.746
784.838	18.404	1338.989	1250.387
785.853	18.221	1338.398	1248.347
786.867	18.198	1337.812	1247.481
787.882	18.214	1337.114	1246.800
788.897	18.328	1336.084	1246.519
789.911	18.362	1334.765	1245.388
790.926	18.481	1333.737	1245.154
791.940	18.294	1332.998	1242.949
792.955	18.458	1331.294	1242.405
793.969	18.398	1330.008	1240.623
794.984	18.470	1329.741	1240.748
795.999	18.440	1328.804	1239.507
797.013	18.457	1327.065	1237.859
798.028	18.386	1325.359	1235.604
799.042	18.671	1324.488	1236.708
800.057	18.553	1323.904	1235.163
801.072	18.625	1322.391	1234.120
802.086	18.452	1320.956	1231.387
803.101	18.612	1320.081	1231.577
804.115	18.636	1319.312	1230.885
805.130	18.512	1317.933	1228.561
806.145	18.589	1316.783	1227.895
807.159	18.781	1315.523	1227.949
808.174	18.608	1314.084	1225.220
809.188	18.671	1313.411	1224.899
810.203	18.608	1311.741	1222.739
811.218	18.562	1310.588	1221.188
812.232	18.490	1308.703	1218.774
813.247	18.492	1308.314	1218.279
814.261	18.517	1307.971	1217.991
815.276	18.545	1306.915	1217.066
816.291	18.601	1305.930	1216.401
817.305	18.736	1304.752	1216.121
818.320	18.675	1303.427	1214.305
819.334	18.499	1301.986	1211.566
820.349	18.627	1300.715	1211.148
821.364	18.558	1300.054	1209.897
822.378	18.668	1298.346	1208.945
823.393	18.533	1296.886	1206.486
824.407	18.637	1295.364	1205.658
825.422	18.482	1295.045	1204.123
826.437	18.525	1294.451	1203.732
827.451	18.430	1291.871	1200.519
828.466	18.229	1290.869	1198.025
829.480	18.230	1289.370	1196.496
830.495	18.267	1287.813	1195.170
831.509	18.210	1287.676	1194.499
832.524	18.406	1286.770	1194.889
833.539	18.412	1285.204	1193.340
834.553	18.510	1284.129	1192.882
835.568	18.456	1283.112	1191.420
836.582	18.564	1281.870	1190.873
837.597	18.519	1280.840	1189.462
838.612	18.790	1278.494	1189.023
839.626	18.761	1277.420	1187.680
840.641	18.668	1276.683	1186.213
841.655	18.602	1276.652	1185.582
842.670	18.518	1274.932	1183.261
843.685	18.648	1274.152	1183.295
844.699	18.691	1272.841	1182.233
845.714	18.567	1272.032	1180.483
846.728	18.767	1271.220	1180.973
847.743	18.729	1269.863	1179.308
848.758	18.668	1268.952	1177.899
849.772	18.483	1267.882	1175.488
850.787	18.601	1266.339	1174.729
851.801	18.617	1265.002	1173.461
852.816	18.547	1263.763	1171.685
853.831	18.531	1262.354	1170.131
854.845	18.612	1260.066	1168.428
855.860	18.590	1258.475	1166.658
856.874	18.322	1257.927	1164.181
857.889	18.337	1256.603	1162.919
858.904	18.414	1255.550	1162.332
859.918	18.532	1253.486	1161.081
860.933	18.225	1252.861	1158.278
861.947	18.367	1252.231	1158.522
862.962	18.370	1250.993	1157.260
863.977	18.457	1249.468	1156.296
864.991	18.408	1249.610	1155.961
866.006	18.470	1249.270	1155.929
867.020	18.632	1247.462	1155.209
868.035	18.582	1246.672	1154.004
869.049	18.645	1245.865	1153.548
870.064	18.690	1244.682	1152.613
871.079	18.655	1243.992	1151.600
872.093	18.735	1243.307	1151.368
873.108	18.723	1242.579	1150.474
874.122	18.717	1241.027	1148.863
875.137	18.522	1240.797	1147.198
876.152	18.750	1239.826	1147.696
877.166	18.672	1237.749	1145.115
878.181	18.679	1236.552	1143.918
879.195	18.713	1236.273	1143.749
880.210	18.789	1234.977	1142.922
881.225	18.575	1234.237	1140.665
882.239	18.713	1233.483	1140.757
883.254	18.784	1232.027	1139.746
884.268	18.800	1231.208	1138.957
885.283	18.646	1229.795	1136.489
886.298	18.743	1228.209	1135.533
887.312	18.825	1227.379	1135.177
888.327	18.738	1226.289	1133.452
889.341	18.729	1224.954	1132.022
890.356	18.496	1225.140	1130.519
891.371	18.739	1223.915	1130.863
892.385	18.573	1223.833	1129.553
893.400	18.559	1222.628	1128.208
894.414	18.561	1221.266	1126.829
895.429	18.656	1219.691	1125.868
896.444	18.379	1218.040	1122.390
897.458	18.260	1216.522	1120.069
898.473	18.399	1216.795	1121.106
899.487	18.563	1216.051	1121.363
900.502	18.694	1214.928	1121.050
901.517	18.781	1213.059	1119.765
902.531	18.782	1212.412	1119.035
903.546	18.814	1211.231	1118.023
904.560	18.778	1210.750	1117.207
905.575	18.805	1210.420	1116.950
906.589	18.853	1210.071	1116.809
907.604	18.789	1208.806	1115.086
