DTS Sentinel unit serial number:	SN409020Multiplexer serial number:	ORYXHardware model number:	OX4-SRSoftware version number:	ORYX F/W v3.00 Oryx Data Collector v3.7.2.0data status	okinstallation	HaddamTimeLapsedifferential loss correction	single-endedforward channel	channel 3reverse channel	N/Adate	2011/06/22time	04:31:16forward acquisition time	30.00reverse acquisition time	0.00gamma	498.7831k internal	0.1753k external	0.1753temperature offset calibration	1.0074default loss term (dB/km)	0.3790temperature slope calibration	1.3530multiplexer offset coefficient	1.0000multiplexer slope coefficient	1.0000fibre end	0.00T internal ref (°C)	22.69T ext. ref 1 (°C)	18.16T ext. ref 2 (°C)	0.14length (m)	temperature (°C)	Stokes	anti-Stokes-747.200	119.072	-0.216	-0.355
-746.185	-43.622	0.072	0.048
-745.171	-200.000	0.042	0.643
-744.156	30.606	-0.171	0.194
-743.142	-13.700	0.216	-0.185
-742.127	-111.464	0.336	0.090
-741.112	480.901	-0.162	-0.490
-740.098	113.888	-0.344	0.556
-739.083	-104.170	-0.273	-0.084
-738.069	480.001	0.027	0.081
-737.054	-200.000	0.012	0.073
-736.039	38.314	-0.160	-0.190
-735.025	106.648	-0.200	-0.316
-734.010	114.159	-0.413	-0.668
-732.996	144.269	-0.164	-0.290
-731.981	800.000	0.118	-0.576
-730.966	-82.210	-0.370	-0.159
-729.952	-200.000	-0.024	-0.217
-728.937	-79.998	-0.641	-0.284
-727.923	-56.139	-0.474	-0.279
-726.908	-45.641	-0.159	0.104
-725.894	-130.470	-0.242	0.043
-724.879	-200.000	0.034	0.198
-723.864	96.118	0.113	0.171
-722.850	-93.114	0.306	-0.112
-721.835	120.862	0.255	-0.422
-720.821	330.545	-0.109	-0.278
-719.806	-97.610	-0.080	0.027
-718.791	800.000	0.071	-0.297
-717.777	-5.845	-0.051	0.046
-716.762	-108.683	-0.256	0.072
-715.748	-127.385	0.301	-0.058
-714.733	-200.000	0.032	0.231
-713.718	147.370	0.129	0.230
-712.704	-200.000	-0.005	-0.132
-711.689	483.653	0.053	-0.161
-710.675	-28.971	-0.303	0.230
-709.660	-99.487	0.264	0.088
-708.645	-64.515	0.108	-0.058
-707.631	10.688	0.169	0.170
-706.616	-200.000	0.024	0.209
-705.602	-89.500	0.223	0.086
-704.587	-113.245	0.088	-0.023
-703.572	-42.176	-0.691	-0.467
-702.558	194.570	-0.146	0.295
-701.543	-200.000	-0.006	0.269
-700.529	-200.000	0.004	0.260
-699.514	-112.096	0.121	0.032
-698.499	-200.000	-0.634	-0.003
-697.485	37.177	-0.261	0.307
-696.470	413.201	0.115	-0.324
-695.456	450.704	0.033	0.096
-694.441	-171.970	0.551	-0.023
-693.426	-36.243	0.161	-0.115
-692.412	407.339	0.089	0.250
-691.397	-200.000	-0.005	-0.107
-690.383	-73.472	0.260	-0.125
-689.368	-105.403	-0.133	-0.040
-688.354	370.190	-0.205	-0.554
-687.339	-113.014	0.394	0.102
-686.324	227.507	-0.076	-0.164
-685.310	787.322	0.006	-0.022
-684.295	-63.686	-0.377	-0.204
-683.281	-65.168	-0.024	-0.013
-682.266	363.078	-0.054	-0.144
-681.251	-200.000	0.025	-0.223
-680.237	-106.279	-0.424	-0.125
-679.222	-154.177	-0.423	-0.037
-678.208	60.353	-0.464	-0.608
-677.193	-95.045	0.078	0.028
-676.178	-97.815	-0.353	-0.120
-675.164	-137.208	0.360	-0.054
-674.149	-175.107	0.427	-0.015
-673.135	-42.744	0.085	-0.057
-672.120	-200.000	0.009	-0.244
-671.105	-200.000	-0.008	0.076
-670.091	43.552	-0.186	0.225
-669.076	97.130	-0.132	-0.201
-668.062	-128.024	-0.134	0.025
-667.047	-194.396	0.586	-0.006
-666.032	-200.000	-0.037	0.308
-665.018	-30.657	-0.186	-0.139
-664.003	-24.842	0.449	-0.352
-662.989	-151.892	-0.239	-0.023
-661.974	-36.972	0.317	-0.224
-660.959	309.385	0.093	-0.231
-659.945	131.313	-0.116	-0.197
-658.930	-101.939	0.660	0.210
-657.916	-172.051	0.193	0.008
-656.901	-20.847	0.270	-0.219
-655.886	-39.590	0.529	0.366
-654.872	2.038	-0.254	-0.242
-653.857	-102.269	0.120	0.038
-652.843	188.071	-0.257	0.509
-651.828	573.105	-0.186	-0.604
-650.814	-124.379	-0.584	0.119
-649.799	800.000	0.050	0.199
-648.784	-103.399	0.088	-0.027
-647.770	108.133	-0.096	-0.152
-646.755	-156.439	-0.730	-0.059
-645.741	146.308	-0.164	-0.291
-644.726	389.153	0.122	-0.336
-643.711	246.477	-0.178	0.398
-642.697	-53.089	-0.212	0.128
-641.682	748.350	0.154	0.551
-640.668	-140.932	0.105	0.014
-639.653	-116.872	-0.668	-0.160
-638.638	-78.098	-0.282	-0.128
-637.624	133.704	-0.130	0.222
-636.609	149.183	-0.333	-0.598
-635.595	162.029	0.282	-0.524
-634.580	-72.687	0.024	-0.012
-633.565	209.877	0.080	0.166
-632.551	23.986	-0.301	-0.328
-631.536	-200.000	-0.028	0.223
-630.522	-58.286	0.438	-0.251
-629.507	-200.000	-0.010	0.083
-628.492	-29.291	0.350	-0.264
-627.478	-79.176	-0.076	-0.034
-626.463	66.828	0.168	0.226
-625.449	-43.917	-0.432	0.286
-624.434	-83.124	-0.286	-0.121
-623.419	-86.049	-0.288	-0.117
-622.405	-113.204	-0.456	0.118
-621.390	-72.529	-0.150	-0.073
-620.376	-15.295	0.255	-0.215
-619.361	-200.000	-0.006	0.349
-618.346	169.887	-0.127	0.240
-617.332	295.542	-0.063	-0.154
-616.317	57.646	-0.015	-0.020
-615.303	13.118	-0.317	0.324
-614.288	-182.648	0.349	0.008
-613.273	-38.236	0.368	-0.257
-612.259	469.294	-0.159	0.475
-611.244	-72.705	0.156	0.075
-610.230	84.669	-0.180	-0.261
-609.215	-54.821	0.344	0.204
-608.201	800.000	-0.066	0.345
-607.186	-200.000	-0.096	-0.000
-606.171	-10.959	0.148	0.129
-605.157	700.494	0.121	0.424
-604.142	-130.126	-0.150	-0.027
-603.128	11.354	0.108	-0.109
-602.113	287.263	-0.129	-0.309
-601.098	-80.107	-0.285	0.125
-600.084	800.000	-0.133	-0.665
-599.069	7.298	-0.228	0.225
-598.055	-64.735	0.463	-0.247
-597.040	652.153	0.162	0.551
-596.025	-82.282	-0.228	-0.097
-595.011	312.659	0.124	-0.309
-593.996	414.650	-0.073	-0.205
-592.982	-80.904	-0.560	0.244
-591.967	-25.587	-0.352	0.274
-590.952	172.554	-0.106	-0.201
-589.938	-12.649	0.117	-0.101
-588.923	3.550	0.129	0.124
-587.909	-119.875	-0.767	-0.173
-586.894	-76.735	-0.257	-0.118
-585.879	-121.163	0.364	-0.080
-584.865	-200.000	-0.002	-0.286
-583.850	408.780	-0.177	0.497
-582.836	42.487	0.362	0.435
-581.821	-134.581	0.566	-0.090
-580.806	-60.436	-0.324	0.181
-579.792	-90.462	0.069	-0.026
-578.777	509.802	-0.052	0.160
-577.763	21.826	0.066	0.071
-576.748	800.000	-0.126	-0.718
-575.733	-134.543	0.069	0.011
-574.719	-61.898	0.184	-0.101
-573.704	-51.696	-0.312	0.191
-572.690	9.349	0.179	0.178
-571.675	-165.256	-0.081	0.005
-570.661	-141.432	0.308	-0.041
-569.646	332.445	0.078	0.198
-568.631	603.887	-0.103	-0.341
-567.617	63.497	-0.055	0.072
-566.602	-154.227	0.404	0.035
-565.588	588.571	-0.159	-0.518
-564.573	800.000	0.049	0.247
-563.558	-161.607	0.304	0.020
-562.544	-87.672	0.306	-0.121
-561.529	-23.080	0.111	-0.088
-560.515	-74.146	-0.565	-0.268
-559.500	239.649	0.064	0.141
-558.485	-29.699	0.141	0.106
-557.471	27.657	0.084	-0.093
-556.456	-200.000	-0.062	-0.423
-555.442	-62.886	-0.360	-0.196
-554.427	16.355	-0.255	0.265
-553.412	-196.667	0.250	0.002
-552.398	225.713	-0.208	0.445
-551.383	71.839	-0.367	0.503
-550.369	800.000	-0.057	-0.235
-549.354	800.000	-0.073	0.278
-548.339	-20.571	0.385	-0.311
-547.325	-95.370	0.674	-0.237
-546.310	-172.241	-0.610	-0.025
-545.296	-136.316	0.257	0.039
-544.281	800.000	0.031	-0.120
-543.266	-125.691	0.171	0.034
-542.252	314.903	0.205	0.510
-541.237	-40.051	-0.142	0.097
-540.223	-200.000	0.010	0.173
-539.208	-95.766	0.349	0.122
-538.193	51.327	0.099	0.124
-537.179	3.935	0.358	0.344
-536.164	0.690	0.260	0.244
-535.150	1.342	0.429	0.405
-534.135	-69.785	0.306	-0.153
-533.121	74.662	-0.106	-0.147
-532.106	-200.000	-0.016	-0.295
-531.091	-103.622	-0.915	0.281
-530.077	-200.000	0.040	0.535
-529.062	-200.000	0.015	0.112
-528.048	-126.485	0.300	0.058
-527.033	-124.726	-0.735	0.148
-526.018	-200.000	-0.001	-0.076
-525.004	-148.799	-0.383	-0.040
-523.989	-163.041	0.472	-0.030
-522.975	211.485	0.143	-0.296
-521.960	-108.741	-0.059	-0.016
-520.945	-200.000	-0.030	-0.207
-519.931	11.308	-0.148	0.149
-518.916	-51.075	0.504	-0.310
-517.902	-126.537	-0.416	0.081
-516.887	-37.808	-0.334	0.233
-515.872	80.550	0.168	0.238
-514.858	17.576	-0.023	-0.024
-513.843	-170.085	-0.170	0.008
-512.829	-49.140	0.168	0.105
-511.814	-200.000	0.012	0.472
-510.799	-200.000	0.005	0.177
-509.785	52.988	0.100	-0.125
-508.770	-112.310	0.214	0.056
-507.756	-120.948	0.274	0.060
-506.741	-200.000	0.004	0.131
-505.726	547.334	0.062	-0.197
-504.712	760.674	0.108	0.387
-503.697	238.785	-0.082	0.180
-502.683	-82.928	0.291	0.123
-501.668	-60.510	-0.143	-0.080
-500.653	26.398	-0.079	0.087
-499.639	294.927	0.066	-0.160
-498.624	664.247	0.109	-0.373
-497.610	193.065	-0.022	0.044
-496.595	-78.162	0.387	-0.174
-495.581	259.575	0.077	-0.174
-494.566	-129.944	0.331	0.059
-493.551	-114.358	0.312	0.078
-492.537	12.375	0.527	0.533
-491.522	52.361	0.124	0.155
-490.508	-73.905	0.239	0.114
-489.493	46.155	0.051	0.062
-488.478	101.453	0.130	-0.199
-487.464	167.165	0.071	-0.133
-486.449	-71.286	0.110	-0.054
-485.435	119.183	-0.130	0.212
-484.420	0.120	-0.402	-0.376
-483.405	9.625	0.203	-0.202
-482.391	-200.000	-0.011	-0.315
-481.376	1.960	0.108	0.102
-480.362	-11.234	-0.559	0.483
-479.347	-88.659	-0.342	-0.133
-478.332	52.891	-0.098	0.123
-477.318	-6.396	0.243	0.218
-476.303	254.717	0.072	0.161
-475.289	341.638	-0.091	0.235
-474.274	-48.107	0.493	0.312
-473.259	-98.906	0.629	0.209
-472.245	-62.363	-0.167	0.091
-471.230	-84.573	0.322	0.133
-470.216	-5.918	0.185	0.166
-469.201	800.000	0.104	0.540
-468.186	58.325	0.310	-0.399
-467.172	800.000	-0.092	-0.445
-466.157	55.689	0.373	0.474
-465.143	5.977	0.183	0.178
-464.128	-99.007	0.716	-0.237
-463.113	-108.701	-0.034	0.009
-462.099	-56.179	-0.346	-0.201
-461.084	-200.000	0.078	0.616
-460.070	-41.742	-0.286	0.192
-459.055	-25.153	0.197	-0.153
-458.040	234.770	0.147	-0.320
-457.026	800.000	0.037	-0.195
-456.011	466.962	-0.022	-0.066
-454.997	-46.645	0.075	-0.048
-453.982	162.487	-0.174	0.321
-452.968	279.195	0.208	-0.488
-451.953	705.973	0.029	-0.102
-450.938	800.000	0.120	0.556
-449.924	139.173	-0.130	-0.225
-448.909	800.000	0.047	0.172
-447.895	227.907	-0.137	-0.294
-446.880	-58.883	0.250	0.141
-445.865	-200.000	-0.024	0.180
-444.851	-200.000	0.002	0.194
-443.836	57.012	-0.087	0.112
-442.822	-78.115	-0.313	-0.141
-441.807	-40.805	-0.096	0.065
-440.792	-80.981	0.365	0.158
-439.778	-34.184	0.321	0.231
-438.763	224.948	0.196	-0.418
-437.749	24.081	0.268	0.290
-436.734	-124.929	-0.399	-0.080
-435.719	-131.394	-0.227	-0.039
-434.705	-40.597	0.368	0.249
-433.690	-11.946	0.181	0.155
-432.676	-200.000	-0.028	-0.221
-431.661	195.929	-0.162	-0.324
-430.646	-171.979	-0.140	-0.006
-429.632	634.642	0.090	-0.300
-428.617	-105.459	0.499	-0.148
-427.603	275.188	-0.046	-0.107
-426.588	309.438	0.267	-0.656
-425.573	-63.092	0.231	-0.125
-424.559	800.000	-0.115	0.424
-423.544	-97.501	0.460	-0.156
-422.530	222.323	-0.061	-0.130
-421.515	-182.626	0.140	-0.003
-420.500	-200.000	-0.036	0.513
-419.486	-200.000	0.028	0.602
-418.471	-8.965	0.146	-0.128
-417.457	-30.369	-0.200	-0.148
-416.442	166.773	-0.180	0.335
-415.428	146.342	0.072	-0.127
-414.413	-130.222	0.377	-0.067
-413.398	-42.735	0.229	0.152
-412.384	-14.038	0.479	-0.405
-411.369	-55.330	-0.163	0.096
-410.355	-56.534	0.121	-0.070
-409.340	-101.277	0.200	0.064
-408.325	15.540	-0.214	0.220
-407.311	-53.968	0.217	-0.129
-406.296	-150.072	0.278	-0.028
-405.282	61.443	0.148	-0.194
-404.267	40.266	-0.373	0.439
-403.252	-119.043	0.393	-0.089
-402.238	-7.133	-0.349	-0.310
-401.223	800.000	-0.110	-0.431
-400.209	523.869	0.118	-0.365
-399.194	-200.000	0.004	0.318
-398.179	104.446	-0.264	-0.407
-397.165	-200.000	0.050	0.479
-396.150	417.295	0.057	0.161
-395.136	-125.265	0.318	0.063
-394.121	-54.869	0.086	-0.051
-393.106	-19.634	-0.378	0.306
-392.092	-170.366	0.198	0.009
-391.077	-85.768	-0.337	0.136
-390.063	-200.000	0.060	0.430
-389.048	465.344	0.139	-0.408
-388.033	-121.462	-0.142	0.031
-387.019	165.431	-0.177	0.329
-386.004	113.427	0.077	-0.123
-384.990	-8.722	-0.309	0.271
-383.975	322.448	0.117	0.294
-382.960	-171.081	0.857	0.037
-381.946	-119.068	-0.305	-0.069
-380.931	-172.793	0.193	0.008
-379.917	304.955	0.133	0.324
-378.902	-35.770	-0.153	0.108
-377.888	-57.098	-0.202	-0.116
-376.873	-181.002	0.326	-0.008
-375.858	-165.011	-0.317	0.018
-374.844	9.422	-0.466	-0.461
-373.829	-20.362	-0.419	-0.337
-372.815	-200.000	0.021	0.175
-371.800	-44.794	0.298	-0.194
-370.785	-49.085	-0.040	0.025
-369.771	-129.864	0.061	0.011
-368.756	-121.096	-0.356	-0.077
-367.742	-110.485	-0.530	0.143
-366.727	-34.152	-0.171	-0.123
-365.712	-111.427	-0.029	0.008
-364.698	106.385	0.208	0.322
-363.683	-80.435	-0.281	-0.122
-362.669	-144.310	0.081	0.010
-361.654	761.866	0.034	0.123
-360.639	-98.146	0.295	-0.099
-359.625	114.608	0.111	-0.177
-358.610	-66.872	0.210	-0.108
-357.596	-176.322	0.292	0.010
-356.581	-166.182	0.248	-0.014
-355.566	-16.596	-0.206	-0.170
-354.552	354.865	0.116	0.302
-353.537	9.216	-0.333	-0.329
-352.523	-104.099	0.330	-0.100
-351.508	-161.637	-0.209	-0.014
-350.493	237.471	-0.242	0.527
-349.479	800.000	0.106	-0.510
-348.464	-158.420	0.353	0.026
-347.450	-126.999	0.702	0.134
-346.435	-89.152	0.083	0.032
-345.420	-1.353	0.287	0.264
-344.406	-38.710	0.254	-0.175
-343.391	-200.000	-0.011	-0.599
-342.377	800.000	-0.014	-0.081
-341.362	-29.275	-0.294	-0.219
-340.348	257.341	-0.178	0.401
-339.333	-20.752	-0.232	0.186
-338.318	-38.775	-0.316	0.217
-337.304	-200.000	-0.089	-0.593
-336.289	-11.543	-0.174	-0.150
-335.275	-43.168	-0.284	-0.188
-334.260	-91.057	0.313	-0.117
-333.245	103.400	-0.168	-0.258
-332.231	129.424	0.095	-0.159
-331.216	23.596	-0.183	0.197
-330.202	80.316	-0.163	0.230
-329.187	800.000	-0.114	0.498
-328.172	-200.000	0.032	0.296
-327.158	9.257	0.076	-0.075
-326.143	-137.241	0.373	0.055
-325.129	-32.892	-0.112	-0.081
-324.114	-114.710	0.420	0.104
-323.099	-54.789	-0.346	0.203
-322.085	317.248	-0.170	0.422
-321.070	-38.541	0.374	-0.257
-320.056	-200.000	0.009	-0.182
-319.041	-200.000	-0.069	-0.553
-318.026	18.653	0.317	-0.331
-317.012	235.352	0.191	-0.413
-315.997	800.000	-0.022	0.085
-314.983	-200.000	-0.050	-0.318
-313.968	-200.000	0.049	0.312
-312.953	14.085	-0.433	-0.439
-311.939	520.678	-0.187	0.576
-310.924	-136.329	0.635	-0.096
-309.910	51.130	0.049	0.061
-308.895	443.769	0.028	0.081
-307.880	298.071	0.237	0.571
-306.866	717.893	-0.048	0.168
-305.851	-200.000	-0.002	-0.264
-304.837	359.684	-0.146	-0.382
-303.822	-28.671	0.261	-0.195
-302.807	58.268	0.113	-0.145
-301.793	-57.006	0.324	-0.186
-300.778	-85.934	-0.072	0.029
-299.764	-61.280	-0.620	-0.340
-298.749	-1.534	-0.087	0.080
-297.735	49.485	0.150	-0.184
-296.720	-88.635	0.465	-0.180
-295.705	44.261	-0.107	0.128
-294.691	-120.463	-0.114	0.025
-293.676	78.124	-0.115	0.161
-292.662	34.689	0.189	-0.216
-291.647	90.016	-0.153	0.224
-290.632	-106.146	-0.061	0.018
-289.618	95.263	-0.197	0.294
-288.603	800.000	0.055	0.305
-287.589	137.612	0.068	0.116
-286.574	179.325	-0.227	-0.435
-285.559	479.137	-0.173	-0.513
-284.545	-50.878	0.103	-0.063
-283.530	-200.000	0.061	-0.462
-282.516	289.065	-0.068	0.161
-281.501	-17.405	0.208	0.170
-280.486	99.971	0.202	0.306
-279.472	-107.816	-0.361	-0.102
-278.457	-200.000	-0.018	0.143
-277.443	-110.605	-0.559	0.150
-276.428	238.408	0.154	0.334
-275.413	-200.000	-0.019	-0.402
-274.399	-16.939	-0.204	0.168
-273.384	-87.480	-0.415	0.163
-272.370	310.102	-0.125	-0.306
-271.355	-200.000	0.058	-0.485
-270.340	-200.000	0.032	0.271
-269.326	-193.026	0.274	-0.003
-268.311	-22.327	-0.376	0.296
-267.297	30.115	-0.324	-0.360
-266.282	196.172	0.273	0.543
-265.267	-34.008	-0.246	0.176
-264.253	-67.865	0.129	0.065
-263.238	-37.174	-0.124	-0.086
-262.224	800.000	0.040	0.198
-261.209	129.734	0.207	0.346
-260.195	-178.414	-0.212	0.006
-259.180	-2.416	-0.298	-0.272
-258.165	-16.710	-0.335	0.275
-257.151	-76.996	0.122	-0.055
-256.136	-200.000	-0.023	0.188
-255.122	-25.114	-0.447	0.344
-254.107	-48.062	-0.157	0.099
-253.092	48.765	0.136	-0.167
-252.078	-127.896	-0.608	0.113
-251.063	-200.000	0.028	0.392
-250.049	-27.414	0.291	0.220
-249.034	-82.988	0.176	-0.074
-248.019	66.353	-0.084	-0.111
-247.005	-166.715	-0.652	-0.035
-245.990	410.528	0.057	-0.159
-244.976	187.729	0.170	0.331
-243.961	800.000	0.103	0.463
-242.946	-61.739	-0.613	-0.333
-241.932	-27.587	-0.480	0.362
-240.917	-106.604	-0.176	-0.051
-239.903	-25.592	-0.112	0.086
-238.888	207.506	-0.176	-0.358
-237.873	-170.088	0.334	0.015
-236.859	-47.972	-0.401	-0.252
-235.844	32.821	-0.064	0.072
-234.830	12.737	0.283	0.284
-233.815	177.612	-0.233	-0.443
-232.800	-139.018	-0.469	0.065
-231.786	88.732	-0.131	0.190
-230.771	-176.177	-0.412	-0.014
-229.757	64.461	0.114	0.150
-228.742	180.345	0.116	0.222
-227.727	75.295	-0.216	-0.297
-226.713	-21.608	-0.373	-0.295
-225.698	-62.757	-0.375	-0.202
-224.684	-166.123	-0.142	0.008
-223.669	800.000	0.046	-0.192
-222.655	-43.381	-0.155	0.102
-221.640	-68.756	-0.170	0.085
-220.625	-87.963	0.459	-0.179
-219.611	-99.146	0.540	-0.177
-218.596	180.197	-0.179	-0.342
-217.582	-17.554	0.293	-0.239
-216.567	28.256	0.088	-0.097
-215.552	-200.000	0.037	-0.253
-214.538	337.210	-0.145	-0.368
-213.523	-77.898	0.287	-0.128
-212.509	-42.963	0.289	-0.190
-211.494	158.502	-0.150	0.271
-210.479	69.806	-0.244	-0.327
-209.465	-200.000	-0.037	-0.257
-208.450	103.674	0.338	0.517
-207.436	-200.000	0.029	-0.348
-206.421	134.592	0.419	0.708
-205.406	-85.193	0.379	0.153
-204.392	-86.525	0.360	0.143
-203.377	-171.526	0.164	0.007
-202.363	-110.065	-0.032	0.009
-201.348	-78.201	0.282	0.126
-200.333	11.171	-0.067	-0.067
-199.319	6.680	0.210	0.203
-198.304	-78.058	-0.264	0.118
-197.290	-157.452	0.314	-0.024
-196.275	-13.334	-0.023	0.019
-195.260	-77.070	-0.325	0.147
-194.246	-121.902	-0.425	0.090
-193.231	342.928	0.238	-0.609
-192.217	-114.741	0.214	0.053
-191.202	-31.700	-0.054	-0.039
-190.187	56.763	-0.163	-0.207
-189.173	-74.820	-0.204	-0.095
-188.158	-122.781	0.556	0.116
-187.144	446.136	-0.067	-0.193
-186.129	-19.026	-0.196	-0.158
-185.114	-127.856	-0.322	-0.060
-184.100	-74.545	0.046	0.022
-183.085	50.849	0.128	-0.157
-182.071	127.878	-0.177	-0.293
-181.056	139.767	-0.090	0.154
-180.042	-79.754	-0.483	-0.210
-179.027	240.832	0.056	0.123
-178.012	312.236	-0.145	-0.354
-176.998	-200.000	0.041	-0.288
-175.983	800.000	0.080	-0.431
-174.969	465.068	0.077	-0.224
-173.954	-101.572	0.144	0.045
-172.939	-93.444	-0.120	0.043
-171.925	-132.784	-0.296	-0.049
-170.910	5.862	-0.174	-0.167
-169.896	29.132	0.242	-0.266
-168.881	-100.821	0.212	-0.067
-167.866	-83.081	0.222	-0.092
-166.852	424.179	0.108	-0.302
-165.837	-74.922	-0.216	-0.100
-164.823	476.719	0.087	0.256
-163.808	-163.059	0.381	0.024
-162.793	-200.000	0.016	-0.118
-161.779	36.667	0.111	0.127
-160.764	800.000	0.052	0.277
-159.750	-110.678	-0.488	-0.130
-158.735	-135.934	-0.450	-0.068
-157.720	83.884	-0.118	0.167
-156.706	1.611	-0.173	-0.162
-155.691	-200.000	0.011	-0.289
-154.677	-72.555	-0.241	-0.115
-153.662	800.000	0.034	-0.128
-152.647	45.869	-0.399	-0.479
-151.633	305.744	-0.091	0.220
-150.618	-200.000	0.092	0.532
-149.604	601.157	0.056	0.181
-148.589	50.167	-0.209	0.257
-147.574	12.200	-0.340	-0.339
-146.560	-68.089	-0.725	0.365
-145.545	-200.000	-0.024	0.416
-144.531	-164.167	-0.185	0.011
-143.516	-97.440	0.349	0.117
-142.502	-62.077	0.077	-0.041
-141.487	-200.000	-0.033	-0.194
-140.472	13.593	-0.170	0.171
-139.458	26.242	-0.300	0.324
-138.443	129.650	-0.261	0.434
-137.429	-200.000	0.047	0.396
-136.414	1.504	-0.233	-0.217
-135.399	-29.240	0.211	0.157
-134.385	-39.954	-0.158	0.106
-133.370	-90.675	-0.475	-0.177
-132.356	-85.326	0.348	-0.140
-131.341	-146.760	-0.479	-0.053
-130.326	-89.687	-0.313	-0.118
-129.312	-200.000	-0.090	0.547
-128.297	178.456	0.220	-0.417
-127.283	674.026	-0.082	-0.276
-126.268	55.483	0.028	-0.036
-125.253	-70.611	-0.099	-0.048
-124.239	-17.039	0.190	-0.155
-123.224	214.849	0.086	-0.177
-122.210	-134.332	0.269	0.042
-121.195	292.793	-0.101	-0.240
-120.180	-43.284	0.083	0.054
-119.166	-20.593	0.446	-0.354
-118.151	-95.024	-0.847	-0.295
-117.137	-75.375	-0.240	-0.110
-116.122	-129.087	-0.424	0.076
-115.107	-200.000	0.062	0.461
-114.093	25.524	-0.239	0.258
-113.078	70.298	0.126	-0.168
-112.064	-200.000	-0.009	-0.065
-111.049	-77.619	-0.222	-0.099
-110.034	-17.265	0.234	-0.191
-109.020	-100.224	0.293	0.094
-108.005	-200.000	0.001	-0.252
-106.991	147.466	-0.183	0.320
-105.976	-96.446	0.335	0.114
-104.962	800.000	-0.168	0.656
-103.947	-109.212	-0.223	0.061
-102.932	204.742	0.153	0.309
-101.918	-31.590	-0.449	0.326
-100.903	-200.000	0.001	0.102
-99.889	11.911	0.183	0.182
-98.874	-35.160	-0.137	-0.097
-97.859	396.255	0.072	0.196
-96.845	800.000	0.043	-0.174
-95.830	32.566	0.187	-0.209
-94.816	42.166	0.137	0.161
-93.801	800.000	0.071	-0.324
-92.786	-145.556	-0.339	-0.039
-91.772	-44.932	-0.262	0.169
-90.757	-178.491	0.224	-0.007
-89.743	-13.631	0.480	-0.401
-88.728	800.000	-0.034	0.137
-87.713	-11.471	0.198	-0.168
-86.699	-200.000	0.042	0.503
-85.684	-200.000	-0.043	-0.446
-84.670	-121.659	0.185	-0.039
-83.655	-118.448	-0.970	0.221
-82.640	-129.667	-0.448	0.079
-81.626	27.634	-0.039	0.043
-80.611	32.232	-0.130	0.145
-79.597	309.519	0.077	0.187
-78.582	737.148	-0.051	-0.178
-77.567	262.902	0.299	0.673
-76.553	-67.124	0.483	0.245
-75.538	800.000	0.048	0.270
-74.524	800.000	-0.049	0.215
-73.509	-120.239	-0.240	0.052
-72.494	395.895	-0.108	0.293
-71.480	51.797	-0.232	0.285
-70.465	800.000	0.035	0.153
-69.451	800.000	-0.121	-0.480
-68.436	53.609	0.156	-0.194
-67.422	-100.221	-0.609	-0.194
-66.407	60.860	-0.310	0.398
-65.392	-169.340	-0.237	0.011
-64.378	67.238	0.116	-0.153
-63.363	358.891	-0.108	0.281
-62.349	-125.709	-0.261	0.051
-61.334	41.459	-2.541	-2.973
-60.319	-54.946	1.862	1.081
-59.305	209.266	-3.608	-7.327
-58.290	31.964	4.080	4.543
-57.276	289.422	4.232	9.958
-56.261	-200.000	23.980	317.128
-55.246	358.260	1297.961	3363.375
-54.232	53.575	2839.033	3521.586
-53.217	51.807	2659.958	3272.034
-52.203	32.089	2389.275	2661.521
-51.188	27.968	2055.154	2238.617
-50.173	24.552	1941.726	2075.152
-49.159	23.572	1929.471	2050.593
-48.144	23.082	1925.331	2040.429
-47.130	22.906	1922.244	2035.047
-46.115	22.895	1921.562	2034.113
-45.100	22.806	1920.306	2031.674
-44.086	23.003	1917.649	2031.057
-43.071	22.892	1916.639	2028.631
-42.057	22.962	1914.897	2027.507
-41.042	22.914	1914.083	2026.018
-40.027	22.857	1912.342	2023.431
-39.013	22.815	1910.680	2021.113
-37.998	22.902	1909.655	2020.948
-36.984	22.816	1908.798	2018.975
-35.969	22.810	1907.841	2017.815
-34.954	22.716	1907.083	2015.846
-33.940	22.958	1903.122	2014.359
-32.925	22.745	1903.380	2012.110
-31.911	22.704	1902.463	2010.586
-30.896	22.804	1900.926	2010.034
-29.881	22.877	1899.323	2009.091
-28.867	22.701	1898.532	2006.167
-27.852	22.752	1896.455	2004.464
-26.838	22.707	1895.339	2002.699
-25.823	22.596	1894.365	2000.327
-24.809	22.872	1891.873	2000.756
-23.794	22.682	1891.979	1998.626
-22.779	22.590	1890.116	1995.528
-21.765	22.704	1889.048	1995.616
-20.750	22.732	1887.891	1994.635
-19.736	22.586	1887.304	1992.281
-18.721	22.711	1885.567	1991.782
-17.706	22.632	1884.129	1989.287
-16.692	22.589	1883.393	1987.945
-15.677	22.558	1882.272	1986.331
-14.663	22.627	1880.573	1985.240
-13.648	22.557	1879.619	1983.361
-12.633	22.550	1878.612	1982.147
-11.619	22.613	1876.519	1980.563
-10.604	22.603	1875.811	1979.624
-9.590	22.591	1874.555	1978.084
-8.575	22.512	1873.580	1976.093
-7.560	22.647	1871.955	1975.820
-6.546	22.665	1870.683	1974.600
-5.531	22.654	1869.162	1972.792
-4.517	22.484	1868.946	1970.580
-3.502	22.722	1866.650	1970.752
-2.487	22.630	1865.946	1968.893
-1.473	22.730	1862.594	1966.404
-0.458	22.514	1844.421	1944.741
0.556	19.300	1990.320	2047.979
1.571	17.948	2193.304	2238.778
2.586	18.719	2232.831	2289.192
3.600	18.756	2235.224	2291.861
4.615	18.639	2235.325	2290.125
5.629	18.647	2233.702	2288.294
6.644	18.699	2231.141	2286.095
7.659	18.693	2228.931	2283.473
8.673	18.772	2226.583	2281.848
9.688	18.432	2236.037	2286.704
10.702	17.301	2315.488	2351.956
11.717	15.844	2379.689	2396.041
12.731	7.791	2360.517	2261.743
13.746	1.102	2342.724	2149.316
14.761	0.264	2339.063	2133.774
15.775	0.072	2336.929	2128.830
16.790	0.049	2336.305	2127.690
17.804	0.086	2333.653	2125.546
18.819	0.052	2333.044	2124.246
19.834	0.043	2331.068	2122.066
20.848	0.054	2330.202	2121.175
21.863	0.127	2327.836	2119.803
22.877	0.106	2326.210	2117.777
23.892	-0.046	2324.626	2113.926
24.907	0.124	2321.858	2113.554
25.921	0.078	2319.745	2110.734
26.936	0.119	2316.598	2108.200
27.950	-0.008	2315.387	2105.058
28.965	0.068	2313.332	2104.004
29.980	0.084	2311.620	2102.415
30.994	0.163	2309.218	2101.096
32.009	4.229	2322.444	2170.154
33.023	13.616	2349.584	2328.344
34.038	17.464	2355.386	2388.190
35.053	17.843	2353.253	2391.084
36.067	17.907	2351.285	2389.702
37.082	17.938	2349.290	2387.823
38.096	17.980	2348.111	2386.925
39.111	18.030	2344.960	2384.136
40.126	18.148	2343.752	2384.279
41.140	18.221	2341.986	2383.226
42.155	18.097	2339.274	2378.436
43.169	18.018	2338.513	2376.279
44.184	18.036	2335.372	2373.052
45.199	17.873	2333.538	2368.637
46.213	17.987	2332.445	2368.831
47.228	18.068	2330.768	2367.964
48.242	18.126	2328.707	2366.398
49.257	18.225	2326.801	2365.553
50.271	18.030	2325.447	2361.187
51.286	18.096	2322.429	2358.758
52.301	18.004	2321.001	2355.745
53.315	18.351	2322.193	2361.480
54.330	19.983	2326.306	2388.027
55.344	21.155	2326.014	2403.666
56.359	21.210	2323.275	2401.317
57.374	21.357	2321.646	2401.371
58.388	21.612	2318.034	2400.864
59.403	21.539	2314.571	2395.992
60.417	21.300	2311.707	2389.449
61.432	21.326	2311.012	2388.801
62.447	21.503	2310.823	2390.756
63.461	21.708	2307.734	2390.083
64.476	21.787	2306.835	2389.953
65.490	21.578	2305.484	2385.395
66.505	21.105	2301.912	2374.952
67.520	19.636	2296.647	2349.174
68.534	18.306	2290.175	2324.125
69.549	18.049	2285.757	2315.869
70.563	18.097	2283.819	2314.287
71.578	18.089	2282.527	2312.583
72.593	18.135	2281.217	2311.611
73.607	18.394	2278.825	2312.417
74.622	18.246	2276.722	2308.011
75.636	18.206	2273.536	2303.953
76.651	18.024	2272.296	2299.964
77.666	18.183	2270.137	2299.651
78.680	18.079	2268.621	2296.438
79.695	18.207	2264.976	2294.197
80.709	18.160	2264.952	2293.266
81.724	18.061	2262.942	2289.617
82.739	18.037	2260.337	2286.387
83.753	18.064	2258.264	2284.381
84.768	18.019	2256.780	2281.999
85.782	17.970	2255.199	2279.472
86.797	17.939	2253.834	2277.400
87.812	18.117	2251.278	2276.939
88.826	18.108	2249.192	2274.429
89.841	18.089	2246.765	2271.457
90.855	18.137	2245.104	2270.138
91.870	18.052	2242.831	2266.442
92.884	18.096	2241.962	2265.869
93.899	17.983	2240.843	2262.972
94.914	18.459	2241.275	2269.474
95.928	19.837	2245.173	2291.505
96.943	20.389	2244.042	2297.422
97.957	19.095	2235.872	2271.626
98.972	18.129	2232.351	2254.978
99.987	17.878	2229.924	2248.932
101.001	17.925	2227.650	2246.995
102.016	17.943	2224.952	2244.234
103.030	17.912	2223.089	2241.677
104.045	18.051	2220.892	2241.026
105.060	18.051	2218.685	2238.531
106.074	18.113	2216.667	2237.047
107.089	18.018	2215.234	2234.082
108.103	18.016	2214.722	2233.273
109.118	18.002	2212.945	2231.024
110.133	18.150	2211.446	2231.195
111.147	18.146	2208.237	2227.639
112.162	18.153	2207.439	2226.653
113.176	18.188	2205.442	2224.838
114.191	18.117	2203.906	2222.088
115.206	17.909	2202.449	2217.635
116.220	18.044	2200.595	2217.265
117.235	17.996	2198.055	2213.814
118.249	18.032	2195.683	2211.629
119.264	18.219	2193.644	2211.745
120.279	18.137	2192.987	2209.746
121.293	18.111	2191.080	2207.226
122.308	18.114	2189.607	2205.513
123.322	18.052	2188.747	2203.582
124.337	18.347	2188.822	2207.216
125.352	20.006	2192.824	2232.505
126.366	20.434	2191.668	2236.595
127.381	18.768	2183.710	2206.711
128.395	17.996	2179.236	2191.970
129.410	18.037	2176.280	2189.262
130.424	18.032	2176.460	2189.116
131.439	18.071	2173.705	2186.595
132.454	18.019	2171.721	2183.666
133.468	18.158	2168.605	2182.055
134.483	18.152	2168.035	2181.135
135.497	18.033	2166.775	2178.089
136.512	18.022	2164.740	2175.643
137.527	18.020	2163.185	2173.786
138.541	17.927	2162.205	2171.359
139.556	17.973	2161.312	2170.790
140.570	18.028	2159.333	2169.237
141.585	18.012	2156.642	2166.079
142.600	17.996	2155.837	2164.799
143.614	17.935	2154.088	2162.008
144.629	17.972	2152.451	2160.578
145.643	17.988	2150.881	2158.946
146.658	17.905	2149.446	2156.196
147.673	17.917	2147.458	2154.091
148.687	17.949	2146.532	2153.319
149.702	18.001	2145.200	2152.385
150.716	18.015	2144.076	2151.167
151.731	18.114	2142.310	2150.395
152.746	18.074	2142.488	2149.804
153.760	18.447	2143.981	2155.773
154.775	20.028	2147.637	2179.191
155.789	20.484	2145.043	2182.065
156.804	18.819	2137.736	2153.407
157.819	18.186	2130.902	2138.311
158.833	18.065	2129.059	2134.687
159.848	18.244	2126.551	2134.159
160.862	18.162	2126.097	2132.423
161.877	18.253	2124.905	2132.112
162.892	18.236	2124.195	2130.928
163.906	18.177	2123.448	2129.192
164.921	18.151	2120.232	2125.388
165.935	18.131	2118.354	2122.993
166.950	18.063	2117.127	2120.664
167.964	17.974	2114.592	2116.763
168.979	17.970	2112.400	2114.261
169.994	18.054	2111.834	2114.491
171.008	18.105	2109.009	2112.044
172.023	17.900	2108.715	2108.944
173.037	18.084	2107.238	2109.508
174.052	18.138	2104.423	2107.098
175.067	18.026	2103.580	2104.615
176.081	18.047	2102.257	2103.298
177.096	17.988	2101.335	2101.397
178.110	17.975	2099.254	2098.904
179.125	17.995	2098.407	2098.050
180.140	18.103	2096.612	2097.335
181.154	18.122	2095.101	2095.811
182.169	18.008	2094.145	2093.204
183.183	18.485	2094.650	2099.335
184.198	20.194	2098.852	2124.356
185.213	20.629	2096.814	2127.386
186.227	18.889	2090.659	2099.536
187.242	18.288	2087.082	2088.323
188.256	18.124	2085.658	2084.639
189.271	18.052	2084.385	2082.241
190.286	18.082	2082.284	2080.252
191.300	18.055	2079.421	2076.818
192.315	17.934	2078.176	2073.855
193.329	18.068	2076.070	2073.135
194.344	18.230	2075.842	2074.637
195.359	18.337	2074.220	2074.066
196.373	18.325	2071.468	2070.918
197.388	18.139	2069.700	2066.649
198.402	18.124	2068.140	2064.654
199.417	18.094	2065.738	2061.646
200.432	18.017	2064.815	2059.554
201.446	18.129	2063.851	2059.699
202.461	18.140	2061.595	2057.335
203.475	17.969	2060.151	2053.581
204.490	18.013	2057.924	2051.648
205.504	18.136	2055.379	2050.343
206.519	17.979	2053.976	2046.811
207.534	17.935	2052.908	2044.965
208.548	18.073	2050.926	2044.413
209.563	18.068	2049.310	2042.491
210.577	18.123	2048.439	2042.038
211.592	18.200	2047.876	2042.153
212.607	19.086	2050.996	2055.668
213.621	20.908	2054.817	2081.149
214.636	20.430	2049.903	2070.186
215.650	18.579	2044.117	2041.973
216.665	18.147	2040.735	2033.186
217.680	18.224	2039.273	2032.400
218.694	18.298	2037.149	2030.924
219.709	18.119	2036.232	2027.636
220.723	18.046	2035.078	2025.378
221.738	18.152	2032.907	2024.239
222.753	18.184	2030.978	2022.449
223.767	18.178	2029.101	2020.263
224.782	18.114	2027.306	2017.481
225.796	18.099	2025.908	2015.664
226.811	18.141	2025.785	2015.800
227.826	18.049	2023.425	2012.128
228.840	18.042	2021.989	2010.369
229.855	18.014	2020.740	2008.557
230.869	18.147	2018.975	2008.135
231.884	18.131	2017.336	2006.076
232.899	17.998	2015.635	2002.577
233.913	18.139	2014.435	2002.801
234.928	18.042	2013.785	2000.776
235.942	18.219	2010.909	1999.760
236.957	18.122	2010.052	1997.528
237.972	17.965	2009.733	1995.129
238.986	18.102	2007.806	1994.582
240.001	18.089	2005.990	1992.387
241.015	17.989	2005.047	1990.046
242.030	18.532	2005.628	1996.736
243.045	20.008	2008.379	2016.533
244.059	20.262	2005.634	2016.503
245.074	18.727	1999.172	1991.868
246.088	18.191	1995.352	1981.586
247.103	18.056	1994.515	1978.949
248.117	18.144	1993.167	1978.400
249.132	18.118	1991.849	1976.555
250.147	18.093	1989.634	1973.827
251.161	17.967	1988.653	1971.153
252.176	18.090	1987.728	1971.425
253.190	18.162	1986.057	1970.369
254.205	18.300	1982.163	1967.870
255.220	18.180	1982.095	1966.180
256.234	18.178	1981.427	1965.252
257.249	18.114	1981.022	1963.878
258.263	18.154	1979.077	1962.181
259.278	18.229	1977.668	1961.409
260.293	18.128	1975.499	1957.862
261.307	17.942	1974.270	1954.264
262.322	17.969	1972.265	1952.357
263.336	17.974	1970.237	1950.173
264.351	17.968	1968.320	1947.977
265.366	17.919	1967.797	1946.664
266.380	18.085	1966.583	1947.130
267.395	17.997	1965.173	1944.493
268.409	18.028	1964.170	1943.620
269.424	18.107	1961.491	1941.646
270.439	18.152	1961.304	1941.743
271.453	18.625	1961.510	1947.103
272.468	20.242	1965.498	1969.298
273.482	20.332	1961.809	1966.393
274.497	18.639	1955.918	1941.017
275.512	18.065	1952.261	1930.641
276.526	18.177	1949.981	1929.422
277.541	18.084	1947.887	1926.068
278.555	17.991	1946.122	1923.035
279.570	17.944	1944.486	1920.660
280.585	18.002	1942.888	1919.508
281.599	17.945	1942.077	1917.839
282.614	18.174	1941.411	1919.534
283.628	18.261	1939.490	1918.381
284.643	18.142	1939.547	1916.872
285.657	18.300	1938.463	1917.347
286.672	18.389	1936.093	1915.775
287.687	18.351	1934.232	1913.280
288.701	18.302	1933.092	1911.365
289.716	18.287	1932.569	1910.454
290.730	18.119	1930.810	1906.610
291.745	18.234	1929.626	1906.496
292.760	18.201	1928.288	1904.576
293.774	18.032	1926.950	1901.136
294.789	18.176	1925.746	1901.328
295.803	18.166	1923.236	1898.517
296.818	18.107	1921.803	1896.214
297.833	18.121	1920.780	1895.132
298.847	18.178	1918.720	1893.512
299.862	18.199	1917.547	1892.358
300.876	18.432	1918.502	1895.666
301.891	20.296	1921.984	1919.623
302.906	20.684	1920.301	1922.024
303.920	18.864	1914.370	1895.694
304.935	18.293	1910.900	1885.705
305.949	18.149	1908.952	1881.969
306.964	18.068	1907.603	1879.516
307.979	18.154	1905.487	1878.158
308.993	18.151	1904.210	1876.637
310.008	18.210	1902.661	1875.545
311.022	18.131	1902.020	1873.818
312.037	18.356	1899.748	1873.830
313.052	18.399	1898.063	1872.407
314.066	18.265	1897.586	1870.244
315.081	18.266	1896.257	1868.726
316.095	18.229	1894.935	1866.795
317.110	18.346	1892.819	1865.766
318.125	18.156	1891.813	1862.469
319.139	18.148	1890.925	1861.284
320.154	18.325	1888.635	1860.743
321.168	18.363	1887.143	1859.461
322.183	18.237	1885.199	1855.950
323.197	18.051	1884.286	1852.805
324.212	17.973	1882.070	1849.552
325.227	18.075	1880.525	1848.922
326.241	18.002	1879.073	1846.477
327.256	18.045	1878.577	1846.242
328.270	18.134	1876.747	1845.187
329.285	18.202	1876.489	1845.448
330.300	18.695	1879.699	1853.736
331.314	20.394	1882.854	1875.088
332.329	20.330	1878.009	1869.345
333.343	18.717	1871.049	1844.783
334.358	18.215	1868.863	1836.985
335.373	18.188	1866.674	1834.331
336.387	18.073	1865.188	1831.411
337.402	18.004	1864.649	1829.913
338.416	18.002	1862.459	1827.522
339.431	18.086	1861.417	1827.192
340.446	18.119	1859.959	1825.888
341.460	18.303	1858.138	1825.859
342.475	18.321	1856.923	1824.636
343.489	18.256	1855.061	1821.891
344.504	18.298	1854.288	1821.365
345.519	18.260	1853.530	1819.995
346.533	18.409	1851.594	1819.472
347.548	18.556	1850.108	1819.365
348.562	18.324	1849.249	1815.822
349.577	18.371	1847.472	1814.368
350.592	18.402	1846.786	1813.798
351.606	18.439	1845.523	1812.734
352.621	18.389	1843.015	1809.522
353.635	18.026	1841.880	1804.344
354.650	18.109	1840.349	1803.511
355.665	18.029	1838.576	1800.711
356.679	18.194	1836.939	1800.639
357.694	18.009	1836.275	1797.815
358.708	18.029	1835.806	1797.354
359.723	18.864	1837.819	1807.940
360.738	20.686	1839.570	1828.714
361.752	20.218	1835.557	1819.573
362.767	18.455	1831.072	1796.348
363.781	17.965	1828.680	1788.621
364.796	18.044	1827.269	1787.867
365.810	17.914	1825.789	1784.835
366.825	17.947	1824.772	1783.970
367.840	18.150	1823.568	1784.708
368.854	18.125	1822.791	1783.474
369.869	18.041	1820.342	1779.987
370.883	17.853	1819.461	1776.945
371.898	17.868	1818.169	1775.631
372.913	18.076	1816.139	1775.607
373.927	18.017	1815.817	1774.458
374.942	18.155	1814.859	1774.748
375.956	18.125	1813.157	1772.558
376.971	18.146	1810.225	1769.700
377.986	18.174	1808.593	1768.190
379.000	18.143	1807.841	1766.915
380.015	18.155	1806.192	1765.216
381.029	18.272	1805.262	1765.313
382.044	18.234	1803.515	1763.001
383.059	18.177	1802.294	1761.009
384.073	17.986	1801.195	1757.743
385.088	18.038	1799.524	1756.440
386.102	18.094	1796.813	1754.163
387.117	17.963	1795.726	1751.543
388.132	17.964	1795.894	1751.501
389.146	18.491	1799.106	1759.862
390.161	20.453	1801.024	1781.780
391.175	20.342	1795.378	1774.840
392.190	18.591	1787.982	1749.387
393.205	18.137	1785.735	1742.327
394.219	18.120	1785.006	1741.230
395.234	18.091	1783.871	1739.617
396.248	18.087	1782.191	1737.732
397.263	18.116	1780.274	1735.948
398.278	18.032	1777.579	1732.257
399.292	18.064	1777.724	1732.524
400.307	18.261	1776.825	1733.443
401.321	18.318	1775.814	1732.824
402.336	18.261	1774.227	1730.490
403.350	18.222	1772.315	1728.021
404.365	18.390	1771.136	1728.373
405.380	18.461	1771.448	1729.187
406.394	18.457	1769.659	1727.194
407.409	18.343	1768.468	1724.676
408.423	18.381	1766.181	1722.618
409.438	18.338	1764.453	1720.292
410.453	18.405	1763.785	1720.115
411.467	18.398	1762.756	1718.830
412.482	18.214	1761.461	1715.515
413.496	18.145	1760.267	1713.444
414.511	18.180	1757.278	1710.682
415.526	18.084	1755.752	1708.035
416.540	18.110	1754.266	1706.640
417.555	18.065	1753.768	1705.505
418.569	18.030	1753.781	1704.964
419.584	18.103	1753.190	1704.910
420.599	18.021	1753.935	1704.608
421.613	18.047	1752.075	1702.854
422.628	18.263	1749.737	1702.540
423.642	18.122	1748.349	1699.583
424.657	18.093	1747.107	1697.875
425.672	17.993	1745.701	1695.310
426.686	18.003	1744.358	1693.907
427.701	18.015	1743.251	1692.744
428.715	17.962	1741.553	1690.367
429.730	18.200	1739.657	1690.690
430.745	18.103	1739.066	1688.948
431.759	18.241	1738.362	1689.433
432.774	18.142	1738.103	1687.992
433.788	18.161	1736.662	1686.588
434.803	18.221	1735.842	1686.183
435.818	18.042	1735.378	1683.751
436.832	18.075	1734.348	1682.883
437.847	17.160	1728.192	1667.677
438.861	9.759	1707.994	1575.559
439.876	1.801	1692.971	1483.830
440.890	0.334	1689.294	1466.097
441.905	0.229	1688.493	1464.197
442.920	0.294	1686.421	1462.866
443.934	0.216	1685.740	1461.338
444.949	0.126	1684.915	1459.566
445.963	0.110	1683.097	1457.660
446.978	0.114	1682.947	1457.394
447.993	0.115	1681.330	1455.835
449.007	0.135	1679.559	1454.321
450.022	0.167	1677.106	1452.332
451.036	0.113	1676.355	1450.984
452.051	1.311	1679.950	1465.554
453.066	9.103	1696.832	1556.246
454.080	16.608	1708.663	1640.297
455.095	17.867	1710.733	1654.364
456.109	18.084	1710.357	1655.920
457.124	18.127	1709.996	1655.792
458.139	17.939	1709.242	1653.027
459.153	18.041	1707.838	1652.460
460.168	18.057	1704.794	1649.473
461.182	17.965	1704.092	1647.712
462.197	18.002	1702.167	1646.014
463.212	17.956	1700.577	1643.831
464.226	18.043	1700.085	1644.003
465.241	18.069	1698.918	1642.925
466.255	18.203	1697.423	1642.570
467.270	18.170	1696.276	1640.950
468.285	17.999	1695.232	1638.096
469.299	18.016	1693.169	1636.068
470.314	18.065	1692.165	1635.371
471.328	18.045	1689.789	1632.695
472.343	18.135	1689.178	1632.772
473.358	18.134	1688.345	1631.758
474.372	18.099	1687.245	1630.164
475.387	18.170	1685.579	1629.043
476.401	18.040	1684.710	1626.763
477.416	18.130	1683.580	1626.338
478.430	18.129	1682.803	1625.379
479.445	18.053	1681.295	1623.002
480.460	17.891	1679.857	1619.877
481.474	17.930	1679.210	1619.427
482.489	18.106	1676.915	1618.700
483.503	18.055	1675.705	1616.851
484.518	18.110	1674.374	1615.899
485.533	18.047	1673.442	1614.209
486.547	18.268	1671.133	1613.880
487.562	18.241	1670.652	1612.964
488.576	18.220	1669.607	1611.568
489.591	18.182	1669.184	1610.603
490.606	18.168	1667.098	1608.269
491.620	18.196	1664.544	1605.880
492.635	18.196	1663.002	1604.192
493.649	18.252	1662.275	1603.834
494.664	18.064	1662.071	1601.668
495.679	17.898	1660.298	1598.212
496.693	17.917	1658.863	1596.810
497.708	17.993	1657.880	1596.391
498.722	18.199	1656.061	1596.384
499.737	18.230	1654.980	1595.434
500.752	18.118	1652.897	1592.186
501.766	18.009	1651.882	1590.000
502.781	18.096	1649.837	1588.661
503.795	18.282	1648.814	1589.216
504.810	18.169	1648.309	1587.488
505.825	18.040	1647.986	1585.780
506.839	18.230	1645.980	1585.433
507.854	18.128	1644.643	1583.004
508.868	18.077	1644.210	1581.924
509.883	18.065	1642.654	1580.126
510.898	18.248	1641.462	1580.485
511.912	18.186	1639.211	1577.555
512.927	18.005	1637.553	1574.101
513.941	17.997	1637.037	1573.340
514.956	18.005	1635.637	1571.883
515.971	18.217	1634.315	1572.382
516.985	18.174	1633.064	1570.588
518.000	18.242	1631.915	1569.925
519.014	17.955	1631.506	1566.696
520.029	18.092	1629.749	1566.080
521.043	18.157	1627.810	1564.629
522.058	18.196	1626.693	1563.732
523.073	18.132	1626.628	1562.888
524.087	18.235	1625.513	1562.580
525.102	18.245	1623.904	1560.932
526.116	18.085	1622.653	1558.079
527.131	18.249	1621.193	1557.992
528.146	18.288	1620.611	1557.601
529.160	18.251	1619.577	1556.082
530.175	18.247	1618.087	1554.435
531.189	18.182	1617.412	1553.001
532.204	18.303	1615.879	1552.447
533.219	18.243	1614.858	1550.735
534.233	18.122	1614.619	1549.221
535.248	18.154	1612.938	1547.711
536.262	18.460	1611.471	1548.897
537.277	18.283	1610.575	1546.243
538.292	18.470	1608.275	1545.546
539.306	18.228	1607.196	1542.135
540.321	18.244	1606.567	1541.494
541.335	18.417	1604.055	1540.463
542.350	18.283	1602.821	1537.882
543.365	18.288	1601.969	1536.925
544.379	18.321	1601.068	1536.168
545.394	18.448	1599.021	1535.165
546.408	18.291	1597.743	1532.348
547.423	18.155	1596.761	1529.994
548.438	18.123	1595.981	1528.774
549.452	18.164	1595.429	1528.438
550.467	18.231	1593.348	1526.861
551.481	18.249	1591.917	1525.470
552.496	18.191	1592.014	1524.857
553.511	18.345	1590.523	1524.626
554.525	18.233	1589.564	1522.517
555.540	18.276	1588.756	1521.951
556.554	18.421	1587.139	1521.510
557.569	18.506	1585.244	1520.269
558.583	18.333	1584.283	1517.623
559.598	18.190	1582.758	1514.709
560.613	18.169	1582.422	1514.025
561.627	18.273	1580.614	1513.039
562.642	18.313	1579.075	1511.735
563.656	18.448	1578.198	1511.909
564.671	18.277	1577.151	1509.211
565.686	18.247	1575.748	1507.427
566.700	18.295	1574.198	1506.186
567.715	18.197	1572.716	1503.726
568.729	18.353	1571.370	1503.636
569.744	18.374	1569.171	1501.535
570.759	18.319	1568.530	1500.252
571.773	18.215	1567.587	1498.256
572.788	18.337	1566.685	1498.286
573.802	18.223	1565.535	1496.013
574.817	18.216	1564.472	1494.749
575.832	18.258	1563.535	1494.045
576.846	18.429	1561.780	1493.694
577.861	18.326	1560.512	1491.396
578.875	18.388	1560.307	1491.569
579.890	18.335	1559.288	1489.946
580.905	18.348	1558.247	1488.886
581.919	18.438	1556.836	1488.146
582.934	18.541	1555.921	1487.997
583.948	18.424	1555.073	1485.986
584.963	18.411	1553.538	1484.229
585.978	18.398	1552.344	1482.792
586.992	18.314	1551.924	1481.491
588.007	18.547	1551.047	1482.497
589.021	18.438	1549.806	1480.183
590.036	18.424	1548.250	1478.402
591.051	18.443	1546.942	1477.137
592.065	18.595	1544.737	1476.176
593.080	18.438	1543.591	1473.546
594.094	18.329	1542.929	1471.793
595.109	18.197	1541.582	1469.198
596.123	18.254	1539.646	1467.665
597.138	18.390	1538.831	1467.881
598.153	18.446	1537.440	1466.866
599.167	18.344	1536.283	1464.707
600.182	18.313	1535.492	1463.506
601.196	18.473	1534.267	1463.542
602.211	18.366	1532.759	1461.014
603.226	18.474	1530.981	1460.069
604.240	18.493	1530.072	1459.190
605.255	18.494	1528.713	1457.727
606.269	18.370	1528.836	1456.610
607.284	18.351	1527.843	1455.325
608.299	18.376	1526.462	1454.051
609.313	18.392	1525.559	1453.154
610.328	18.445	1524.188	1452.123
611.342	18.413	1522.303	1449.879
612.357	18.458	1521.371	1449.199
613.372	18.400	1520.495	1447.699
614.386	18.477	1518.873	1446.640
615.401	18.361	1519.162	1445.757
616.415	18.420	1517.704	1444.691
617.430	18.384	1516.751	1443.308
618.445	18.367	1515.425	1441.727
619.459	18.431	1514.693	1441.400
620.474	18.321	1513.383	1439.056
621.488	18.300	1512.627	1437.981
622.503	18.281	1511.382	1436.472
623.518	18.393	1510.178	1436.096
624.532	18.288	1509.287	1434.196
625.547	18.440	1507.643	1433.736
626.561	18.508	1506.791	1433.326
627.576	18.557	1504.752	1431.625
628.591	18.322	1503.965	1428.736
629.605	18.323	1503.202	1427.846
630.620	18.320	1502.113	1426.616
631.634	18.410	1501.062	1426.202
632.649	18.304	1500.215	1424.344
633.663	18.314	1499.416	1423.492
634.678	18.342	1497.391	1421.636
635.693	18.484	1495.423	1420.779
636.707	18.451	1494.757	1419.700
637.722	18.378	1494.106	1418.308
638.736	18.578	1492.259	1418.048
639.751	18.612	1491.281	1417.230
640.766	18.621	1490.009	1415.924
641.780	18.498	1488.773	1413.560
642.795	18.632	1487.390	1413.193
643.809	18.641	1487.336	1413.043
644.824	18.650	1486.680	1412.328
645.839	18.611	1485.177	1410.410
646.853	18.625	1483.762	1409.013
647.868	18.608	1482.533	1407.535
648.882	18.417	1481.486	1404.795
649.897	18.428	1480.586	1403.867
650.912	18.543	1479.350	1403.470
651.926	18.677	1476.985	1402.165
652.941	18.533	1476.575	1400.422
653.955	18.587	1474.713	1398.930
654.970	18.676	1473.208	1398.066
655.985	18.448	1472.389	1395.258
656.999	18.535	1472.242	1395.663
658.014	18.659	1469.770	1394.160
659.028	18.746	1468.893	1393.875
660.043	18.720	1467.872	1392.522
661.058	18.659	1466.561	1390.621
662.072	18.631	1466.229	1389.909
663.087	18.498	1465.089	1387.577
664.101	18.456	1463.954	1385.994
665.116	18.500	1463.246	1385.520
666.131	18.559	1462.230	1384.871
667.145	18.597	1461.099	1383.938
668.160	18.658	1459.758	1382.998
669.174	18.764	1457.940	1381.972
670.189	18.530	1457.337	1379.339
671.204	18.547	1456.296	1378.329
672.218	18.487	1455.192	1376.635
673.233	18.628	1453.919	1376.403
674.247	18.747	1453.603	1376.894
675.262	18.770	1452.561	1375.932
676.276	18.638	1451.170	1373.386
677.291	18.629	1450.232	1372.264
678.306	18.592	1449.132	1370.755
679.320	18.486	1447.991	1368.663
680.335	18.553	1447.249	1368.340
681.349	18.721	1446.449	1368.760
682.364	18.617	1445.648	1367.011
683.379	18.677	1443.570	1365.363
684.393	18.548	1442.258	1362.921
685.408	18.621	1441.277	1362.415
686.422	18.446	1440.712	1360.320
687.437	18.405	1440.390	1359.532
688.452	18.516	1439.713	1359.610
689.466	18.657	1437.298	1358.290
690.481	18.441	1436.678	1355.822
691.495	18.371	1435.738	1354.219
692.510	18.413	1433.833	1352.597
693.525	18.479	1431.790	1351.028
694.539	18.419	1431.609	1350.220
695.554	18.516	1430.768	1350.030
696.568	18.492	1430.301	1349.239
697.583	18.711	1429.095	1349.669
698.598	18.516	1428.870	1347.759
699.612	18.640	1427.560	1347.338
700.627	18.651	1425.989	1345.786
701.641	18.693	1424.997	1345.018
702.656	18.730	1423.860	1344.075
703.671	18.616	1423.638	1342.808
704.685	18.659	1422.743	1342.140
705.700	18.702	1420.712	1340.403
706.714	18.640	1419.232	1338.354
707.729	18.678	1417.993	1337.324
708.744	18.741	1416.645	1336.391
709.758	18.688	1416.014	1335.220
710.773	18.728	1415.190	1334.593
711.787	18.739	1413.617	1333.038
712.802	18.679	1412.250	1331.121
713.816	18.723	1411.287	1330.397
714.831	18.719	1410.718	1329.672
715.846	18.715	1409.079	1327.934
716.860	18.895	1408.035	1328.188
717.875	18.788	1407.188	1326.404
718.889	18.848	1406.421	1325.982
719.904	18.776	1405.443	1324.343
720.919	18.728	1404.196	1322.640
721.933	18.637	1403.859	1321.457
722.948	18.746	1402.652	1321.007
723.962	18.797	1401.211	1319.891
724.977	18.690	1400.738	1318.454
725.992	18.684	1399.488	1317.079
727.006	18.692	1397.195	1314.823
728.021	18.708	1396.498	1314.135
729.035	18.734	1395.800	1313.514
730.050	18.746	1394.700	1312.418
731.065	18.754	1393.024	1310.743
732.079	18.811	1391.953	1310.017
733.094	18.767	1391.028	1308.651
734.108	18.721	1390.021	1307.200
735.123	18.728	1387.889	1305.091
736.138	18.767	1387.481	1304.851
737.152	18.687	1386.637	1303.283
738.167	18.654	1385.998	1302.283
739.181	18.731	1385.051	1301.821
740.196	18.743	1383.990	1300.760
741.211	18.767	1382.994	1299.851
742.225	18.812	1381.661	1298.781
743.240	18.560	1380.635	1295.752
744.254	18.634	1379.206	1294.812
745.269	18.703	1377.962	1294.017
746.284	18.642	1377.591	1293.047
747.298	18.657	1376.197	1291.699
748.313	18.577	1375.028	1289.842
749.327	18.499	1374.473	1288.575
750.342	18.547	1373.823	1288.179
751.356	18.408	1372.514	1285.747
752.371	18.474	1371.167	1284.826
753.386	18.550	1370.669	1284.777
754.400	18.709	1369.449	1284.676
755.415	18.783	1368.642	1284.325
756.429	18.814	1367.599	1283.423
757.444	18.674	1366.886	1281.549
758.459	18.744	1365.791	1280.894
759.473	18.952	1364.782	1281.354
760.488	18.967	1363.438	1280.051
761.502	18.979	1362.143	1278.774
762.517	18.759	1361.904	1276.755
763.532	18.664	1360.173	1274.271
764.546	18.840	1358.484	1273.845
765.561	18.990	1357.430	1273.822
766.575	18.728	1357.788	1272.051
767.590	18.766	1356.195	1270.690
768.605	18.711	1354.670	1268.697
769.619	18.719	1353.443	1267.459
770.634	18.718	1352.825	1266.718
771.648	18.865	1352.079	1266.962
772.663	18.818	1350.864	1265.324
773.678	19.039	1349.642	1265.663
774.692	18.819	1349.551	1263.798
775.707	18.834	1349.380	1263.600
776.721	18.854	1347.893	1262.197
777.736	18.760	1346.806	1260.338
778.751	18.955	1345.125	1260.050
779.765	18.699	1345.379	1258.252
780.780	18.778	1343.788	1257.197
781.794	18.880	1342.677	1256.751
782.809	18.757	1341.676	1254.764
783.824	18.666	1340.919	1253.238
784.838	18.454	1340.001	1250.671
785.853	18.289	1338.446	1247.863
786.867	18.486	1337.491	1248.265
787.882	18.635	1336.515	1248.298
788.897	18.508	1336.315	1247.033
789.911	18.490	1335.573	1246.061
790.926	18.562	1334.173	1245.130
791.940	18.650	1332.137	1243.722
792.955	18.909	1330.298	1243.735
793.969	18.825	1330.007	1242.706
794.984	18.777	1329.590	1241.819
795.999	18.736	1328.786	1240.620
797.013	18.793	1327.077	1239.289
798.028	18.858	1325.411	1238.061
799.042	18.811	1325.129	1237.305
800.057	18.843	1324.231	1236.551
801.072	18.919	1322.984	1235.788
802.086	18.824	1321.791	1233.837
803.101	18.853	1320.643	1232.829
804.115	18.986	1319.090	1232.187
805.130	18.889	1318.562	1230.850
806.145	18.935	1317.465	1230.009
807.159	18.968	1315.756	1228.502
808.174	18.882	1314.798	1226.845
809.188	18.866	1313.394	1225.273
810.203	18.793	1311.926	1223.234
811.218	18.893	1310.559	1222.527
812.232	18.838	1309.663	1221.153
813.247	18.656	1308.174	1218.323
814.261	18.909	1307.622	1219.467
815.276	18.975	1307.190	1219.387
816.291	18.983	1305.987	1218.180
817.305	19.009	1304.860	1217.163
818.320	18.759	1303.629	1214.095
819.334	18.835	1302.498	1213.437
820.349	18.817	1300.977	1211.742
821.364	19.015	1299.657	1211.776
822.378	18.916	1297.863	1209.256
823.393	18.979	1296.687	1208.459
824.407	18.959	1295.651	1207.209
825.422	18.779	1295.480	1205.632
826.437	18.766	1294.185	1204.193
827.451	18.759	1292.602	1202.528
828.466	18.604	1291.006	1199.807
829.480	18.710	1289.116	1198.652
830.495	18.707	1287.729	1197.196
831.509	18.690	1286.273	1195.581
832.524	18.655	1286.585	1195.486
833.539	18.818	1285.456	1195.436
834.553	18.858	1284.270	1194.463
835.568	18.942	1283.396	1194.095
836.582	18.870	1282.977	1193.064
837.597	18.901	1281.388	1191.658
838.612	19.026	1279.809	1190.915
839.626	18.914	1278.717	1188.980
840.641	18.881	1278.043	1187.982
841.655	18.840	1277.138	1186.711
842.670	18.834	1275.622	1185.119
843.685	18.869	1274.252	1183.949
844.699	18.834	1273.466	1182.830
845.714	18.848	1272.600	1181.982
846.728	18.930	1272.062	1181.909
847.743	18.948	1271.063	1180.966
848.758	18.886	1269.663	1179.093
849.772	18.837	1268.526	1177.557
850.787	18.949	1267.320	1177.070
851.801	18.859	1265.820	1174.919
852.816	18.872	1264.112	1173.280
853.831	18.902	1262.360	1171.719
854.845	18.840	1260.540	1169.471
855.860	18.708	1259.398	1167.366
856.874	18.632	1258.724	1166.083
857.889	18.669	1257.618	1165.171
858.904	18.607	1256.057	1163.162
859.918	18.476	1254.056	1160.277
860.933	18.483	1253.066	1159.272
861.947	18.644	1252.546	1159.743
862.962	18.774	1251.401	1159.428
863.977	18.683	1250.032	1157.403
864.991	18.742	1249.331	1157.016
866.006	18.915	1249.091	1157.826
867.020	18.985	1247.742	1156.910
868.035	18.923	1246.959	1155.630
869.049	19.048	1245.980	1155.426
870.064	18.960	1245.009	1153.795
871.079	18.820	1244.239	1152.000
872.093	19.064	1244.010	1153.290
873.108	19.016	1242.868	1151.775
874.122	19.026	1242.029	1150.925
875.137	18.865	1241.564	1149.270
876.152	18.963	1239.710	1148.077
877.166	18.947	1238.366	1146.585
878.181	19.017	1236.911	1145.571
879.195	19.179	1235.855	1145.544
880.210	19.008	1235.419	1143.857
881.225	18.982	1234.760	1142.933
882.239	18.807	1234.066	1140.990
883.254	19.044	1232.603	1141.079
884.268	19.066	1231.657	1140.214
885.283	19.044	1230.345	1138.719
886.298	19.014	1228.662	1136.819
887.312	19.101	1227.709	1136.384
888.327	19.014	1227.022	1135.031
889.341	19.041	1225.776	1133.923
890.356	18.959	1225.349	1132.847
891.371	19.059	1224.985	1133.041
892.385	18.970	1224.184	1131.576
893.400	18.789	1223.465	1129.576
894.414	18.735	1221.978	1127.713
895.429	18.794	1220.115	1126.247
896.444	18.644	1218.355	1123.504
897.458	18.741	1217.202	1122.943
898.473	18.825	1216.364	1122.586
899.487	18.904	1216.340	1122.947
900.502	18.911	1215.241	1121.842
901.517	18.946	1214.377	1121.144
902.531	19.154	1213.522	1121.582
903.546	18.997	1213.259	1120.176
904.560	19.037	1211.757	1118.920
905.575	19.148	1210.613	1118.453
906.589	19.249	1209.992	1118.401
907.604	18.988	1209.812	1116.400
