DTS Sentinel unit serial number:	SN409020Multiplexer serial number:	ORYXHardware model number:	OX4-SRSoftware version number:	ORYX F/W v3.00 Oryx Data Collector v3.7.2.0data status	okinstallation	HaddamTimeLapsedifferential loss correction	single-endedforward channel	channel 3reverse channel	N/Adate	2011/06/22time	07:16:17forward acquisition time	30.00reverse acquisition time	0.00gamma	498.7831k internal	0.1754k external	0.1754temperature offset calibration	1.0074default loss term (dB/km)	0.3790temperature slope calibration	1.3530multiplexer offset coefficient	1.0000multiplexer slope coefficient	1.0000fibre end	0.00T internal ref (°C)	23.06T ext. ref 1 (°C)	19.91T ext. ref 2 (°C)	0.12length (m)	temperature (°C)	Stokes	anti-Stokes-747.200	-200.000	0.042	-0.370
-746.185	175.528	0.033	-0.064
-745.171	-200.000	0.018	-0.273
-744.156	394.839	0.212	0.588
-743.142	-41.144	-0.391	0.267
-742.127	-200.000	-0.040	0.544
-741.112	-200.000	0.008	-0.272
-740.098	-200.000	-0.033	0.261
-739.083	-197.466	-0.636	0.005
-738.069	-200.000	-0.056	0.362
-737.054	-156.541	-0.360	0.029
-736.039	-176.761	0.131	0.004
-735.025	800.000	0.098	0.396
-734.010	-12.306	-0.249	0.215
-732.996	-200.000	-0.022	-0.195
-731.981	195.109	-0.136	0.274
-730.966	65.892	-0.111	0.149
-729.952	-141.720	-0.224	-0.029
-728.937	-200.000	0.010	-0.316
-727.923	147.546	-0.122	0.218
-726.908	-42.797	-0.306	-0.205
-725.894	56.587	-0.172	0.221
-724.879	800.000	0.092	-0.415
-723.864	340.083	-0.041	-0.106
-722.850	26.193	0.263	-0.291
-721.835	-36.185	-0.216	-0.154
-720.821	-12.225	0.152	-0.132
-719.806	-61.746	0.117	-0.065
-718.791	4.174	0.125	0.121
-717.777	240.792	-0.115	0.255
-716.762	42.996	0.145	-0.176
-715.748	14.124	0.176	-0.182
-714.733	-123.149	0.385	-0.081
-713.718	-137.092	-0.410	-0.061
-712.704	-124.636	-0.706	-0.144
-711.689	800.000	0.051	0.208
-710.675	141.302	0.131	0.231
-709.660	-48.444	-0.208	-0.132
-708.645	-5.988	0.047	0.043
-707.631	-142.843	-0.264	-0.034
-706.616	285.487	0.096	0.230
-705.602	23.335	0.224	-0.244
-704.587	-53.040	-0.143	-0.087
-703.572	140.597	-0.045	-0.079
-702.558	-23.447	0.205	-0.162
-701.543	-76.597	-0.280	-0.130
-700.529	-15.935	-0.296	-0.249
-699.514	227.702	-0.079	-0.172
-698.499	-200.000	-0.000	-0.166
-697.485	-27.425	-0.389	0.299
-696.470	-165.221	-0.319	-0.018
-695.456	-142.218	0.474	-0.061
-694.441	148.580	-0.089	-0.160
-693.426	-120.975	-0.641	-0.141
-692.412	-21.384	-0.294	-0.237
-691.397	-30.231	-0.190	-0.143
-690.383	11.014	0.264	-0.267
-689.368	10.909	0.147	0.148
-688.354	-200.000	-0.032	-0.335
-687.339	-197.756	0.264	0.002
-686.324	-58.990	-0.831	-0.473
-685.310	-32.449	-0.129	0.095
-684.295	-191.540	0.194	0.003
-683.281	0.903	0.313	-0.296
-682.266	188.904	0.139	0.276
-681.251	173.141	0.068	-0.130
-680.237	-38.110	-0.307	-0.215
-679.222	-150.944	-0.122	0.012
-678.208	225.839	0.289	0.621
-677.193	800.000	0.072	0.281
-676.178	-200.000	0.049	0.425
-675.164	122.974	0.318	0.527
-674.149	140.881	0.192	-0.337
-673.135	-55.893	0.463	-0.272
-672.120	362.687	0.165	-0.440
-671.105	-93.603	0.408	0.148
-670.091	-61.806	0.416	-0.229
-669.076	-116.535	0.319	0.077
-668.062	-126.046	-0.820	-0.161
-667.047	-180.302	0.365	0.010
-666.032	105.073	0.297	0.463
-665.018	88.147	0.319	0.468
-664.003	-200.000	0.009	-0.199
-662.989	-106.275	0.236	0.069
-661.974	-147.557	-0.379	-0.042
-660.959	79.139	0.077	0.109
-659.945	800.000	-0.066	-0.369
-658.930	-25.619	0.050	0.039
-657.916	-200.000	0.070	0.443
-656.901	347.300	-0.156	0.408
-655.886	800.000	0.020	0.108
-654.872	-200.000	-0.008	0.054
-653.857	85.407	-0.156	-0.226
-652.843	-82.452	-0.182	-0.078
-651.828	-103.956	0.464	-0.142
-650.814	29.292	0.261	-0.293
-649.799	-118.950	-0.297	-0.068
-648.784	-35.361	-0.271	-0.194
-647.770	-117.031	-0.678	-0.162
-646.755	800.000	0.059	0.276
-645.741	800.000	0.104	-0.576
-644.726	173.738	0.295	-0.563
-643.711	148.248	-0.144	-0.258
-642.697	-200.000	-0.020	0.138
-641.682	-62.167	0.126	-0.069
-640.668	-90.266	-0.245	-0.093
-639.653	-143.021	0.293	-0.037
-638.638	211.073	0.074	0.154
-637.624	-200.000	-0.004	-0.248
-636.609	-150.869	-0.712	0.070
-635.595	-112.571	-0.241	0.063
-634.580	-7.637	-0.124	-0.110
-633.565	-165.181	0.090	-0.005
-632.551	-111.299	-0.212	-0.057
-631.536	-113.494	-0.543	-0.139
-630.522	-67.761	-0.278	-0.143
-629.507	-117.934	-0.391	-0.092
-628.492	359.345	0.039	0.104
-627.478	466.384	0.014	-0.041
-626.463	103.824	-0.077	-0.119
-625.449	-97.161	-0.218	-0.075
-624.434	-144.318	0.433	-0.053
-623.419	-68.798	0.432	-0.220
-622.405	-76.489	-0.321	-0.148
-621.390	800.000	-0.137	-0.519
-620.376	-87.634	0.277	-0.110
-619.361	-46.120	-0.229	0.148
-618.346	698.974	0.071	-0.249
-617.332	-111.826	0.304	-0.080
-616.317	68.421	0.159	0.216
-615.303	527.834	-0.143	-0.449
-614.288	-190.363	-0.147	0.002
-613.273	303.058	-0.132	0.323
-612.259	-96.189	0.306	0.107
-611.244	-64.230	0.363	-0.194
-610.230	-200.000	0.477	0.003
-609.215	-2.433	-0.104	0.096
-608.201	-7.787	0.098	0.087
-607.186	-200.000	-0.029	-0.547
-606.171	-80.216	0.093	-0.041
-605.157	-200.000	-0.041	0.357
-604.142	-118.817	-0.521	0.120
-603.128	24.198	0.186	-0.203
-602.113	52.108	0.185	0.233
-601.098	-61.612	-0.020	0.011
-600.084	-96.550	-0.333	0.115
-599.069	-67.686	-0.351	-0.181
-598.055	50.222	0.434	-0.540
-597.040	-200.000	-0.043	-0.424
-596.025	-200.000	0.025	-0.225
-595.011	329.618	-0.176	-0.449
-593.996	-163.735	-0.196	-0.012
-592.982	-67.533	-0.210	0.108
-591.967	-125.351	-0.204	-0.041
-590.952	163.663	-0.094	0.174
-589.938	-165.117	-0.498	0.029
-588.923	-30.690	0.330	-0.246
-587.909	166.490	0.186	-0.348
-586.894	74.233	0.156	0.216
-585.879	-136.464	-0.477	-0.072
-584.865	-200.000	0.011	0.254
-583.850	-125.257	-0.245	-0.049
-582.836	800.000	-0.018	0.070
-581.821	145.300	-0.229	0.405
-580.806	-22.567	-0.245	0.195
-579.792	766.154	0.055	-0.200
-578.777	-81.869	-0.175	0.075
-577.763	26.918	0.061	0.068
-576.748	-105.128	0.402	-0.120
-575.733	195.815	0.028	0.056
-574.719	2.434	0.448	0.427
-573.704	38.650	-0.403	0.474
-572.690	413.462	-0.065	-0.182
-571.675	-128.330	-0.427	-0.079
-570.661	-87.559	0.577	0.228
-569.646	-92.722	-0.432	-0.159
-568.631	-98.960	-0.508	0.169
-567.617	43.089	-0.256	0.308
-566.602	-200.000	-0.009	-0.319
-565.588	-200.000	-0.105	-0.824
-564.573	-111.105	-0.246	-0.066
-563.558	-200.000	-0.033	0.340
-562.544	189.881	0.048	-0.094
-561.529	-45.728	0.332	0.215
-560.515	-107.432	0.235	-0.068
-559.500	-91.363	-0.326	-0.122
-558.485	62.085	-0.220	-0.289
-557.471	-115.468	-0.412	-0.101
-556.456	-200.000	-0.055	-0.590
-555.442	-200.000	0.024	0.171
-554.427	-145.017	-0.473	0.056
-553.412	-27.095	0.341	-0.261
-552.398	47.928	0.284	0.350
-551.383	800.000	0.191	0.706
-550.369	-90.447	-0.284	0.108
-549.354	-81.411	0.357	-0.154
-548.339	-118.499	0.386	0.089
-547.325	-49.147	-0.339	0.213
-546.310	262.951	-0.140	0.322
-545.296	-173.784	0.405	-0.016
-544.281	73.256	-0.203	0.280
-543.266	8.325	0.391	0.386
-542.252	-2.185	-0.184	-0.170
-541.237	-187.486	0.253	0.004
-540.223	271.847	0.237	-0.552
-539.208	-23.619	0.260	-0.205
-538.193	-200.000	0.025	0.144
-537.179	-80.777	0.174	0.076
-536.164	-200.000	0.036	0.259
-535.150	800.000	-0.101	0.552
-534.135	252.949	-0.197	-0.444
-533.121	38.681	0.150	0.176
-532.106	-173.881	0.191	-0.007
-531.091	-111.140	-0.155	0.041
-530.077	-51.878	0.163	0.099
-529.062	-5.208	-0.415	-0.375
-528.048	-81.802	-0.362	-0.155
-527.033	-61.823	0.045	0.025
-526.018	-24.132	-0.110	-0.086
-525.004	800.000	0.083	0.403
-523.989	-135.146	0.327	-0.051
-522.975	-200.000	-0.041	0.254
-521.960	-128.630	-0.369	-0.068
-520.945	-141.993	0.313	-0.041
-519.931	-200.000	0.003	0.077
-518.916	-63.064	-0.092	-0.050
-517.902	162.393	-0.150	0.277
-516.887	3.991	-0.386	0.371
-515.872	-41.530	-0.114	-0.077
-514.858	-200.000	-0.045	0.278
-513.843	-200.000	0.051	0.465
-512.829	-13.335	0.248	-0.211
-511.814	-108.386	-0.200	0.056
-510.799	-200.000	-0.035	0.301
-509.785	-200.000	0.040	0.514
-508.770	1.219	0.116	0.110
-507.756	-34.852	-0.122	0.087
-506.741	800.000	-0.036	-0.183
-505.726	47.185	-0.298	-0.364
-504.712	800.000	0.044	-0.229
-503.697	-45.745	0.373	-0.241
-502.683	-6.820	-0.142	0.127
-501.668	188.713	-0.099	-0.196
-500.653	-200.000	0.028	-0.287
-499.639	378.367	0.143	0.385
-498.624	-200.000	-0.016	-0.224
-497.610	171.318	0.094	-0.177
-496.595	-154.978	0.453	0.039
-495.581	16.384	0.118	0.122
-494.566	-10.108	0.276	0.241
-493.551	376.666	-0.157	0.422
-492.537	-87.866	0.492	0.193
-491.522	-200.000	-0.021	0.265
-490.508	-57.742	-0.386	-0.221
-489.493	-93.832	-0.301	0.108
-488.478	138.707	0.074	-0.127
-487.464	-33.372	0.252	-0.183
-486.449	-171.000	-0.380	-0.017
-485.435	-152.177	0.098	0.009
-484.420	467.327	0.108	0.318
-483.405	800.000	0.104	0.502
-482.391	-104.727	-0.145	0.044
-481.376	-200.000	-0.012	-0.156
-480.362	-163.043	-0.393	0.025
-479.347	265.789	0.049	-0.113
-478.332	-200.000	0.017	0.174
-477.318	-147.233	0.062	-0.007
-476.303	-139.507	0.202	0.028
-475.289	272.167	0.170	-0.395
-474.274	78.397	0.396	0.556
-473.259	-150.452	-0.155	-0.015
-472.245	-145.503	0.147	0.017
-471.230	62.061	0.102	0.134
-470.216	-200.000	-0.032	0.281
-469.201	-159.182	0.201	-0.015
-468.186	-157.531	0.133	-0.010
-467.172	395.975	-0.027	-0.075
-466.157	-24.360	0.113	0.088
-465.143	20.797	-0.237	-0.252
-464.128	281.152	0.031	0.073
-463.113	-123.868	0.312	-0.064
-462.099	-60.480	-0.288	-0.160
-461.084	-155.715	0.172	0.014
-460.070	-118.647	0.401	0.092
-459.055	-142.681	-0.325	-0.041
-458.040	-29.918	0.093	-0.069
-457.026	-113.956	0.604	0.153
-456.011	107.852	0.125	-0.195
-454.997	-70.990	0.447	-0.219
-453.982	-145.207	-0.453	0.053
-452.968	94.744	-0.187	0.279
-451.953	-183.442	-0.466	0.010
-450.938	143.756	0.307	0.537
-449.924	-200.000	-0.016	-0.228
-448.909	-200.000	-0.051	0.427
-447.895	-178.598	0.228	-0.007
-446.880	-200.000	0.009	-0.104
-445.865	-5.174	0.177	-0.160
-444.851	-113.333	0.410	0.105
-443.836	-66.935	-0.161	0.083
-442.822	800.000	-0.062	-0.225
-441.807	216.458	0.181	0.378
-440.792	448.384	-0.093	-0.269
-439.778	337.623	0.054	0.137
-438.763	35.128	0.345	0.396
-437.749	-137.788	-0.151	0.022
-436.734	-5.489	0.068	0.061
-435.719	-29.078	-0.287	0.216
-434.705	51.586	0.341	-0.425
-433.690	-98.721	0.185	0.061
-432.676	107.822	0.050	0.078
-431.661	-135.167	0.273	0.043
-430.646	-81.893	-0.318	0.136
-429.632	165.586	0.235	-0.436
-428.617	800.000	-0.064	0.348
-427.603	800.000	0.075	-0.281
-426.588	-40.534	-0.585	-0.397
-425.573	38.225	-0.118	0.138
-424.559	137.168	0.068	0.117
-423.544	-100.691	-0.213	-0.068
-422.530	32.384	-0.241	-0.273
-421.515	-200.000	0.025	-0.205
-420.500	-62.758	0.356	0.192
-419.486	24.348	0.237	0.256
-418.471	-120.494	0.129	-0.029
-417.457	-62.045	0.426	-0.232
-416.442	111.363	-0.459	0.726
-415.428	-128.217	0.062	0.012
-414.413	-178.430	0.313	0.009
-413.398	-45.333	-0.167	-0.108
-412.384	-112.376	0.370	0.096
-411.369	0.577	0.518	0.485
-410.355	-36.131	-0.463	0.327
-409.340	-200.000	0.028	0.246
-408.325	676.358	0.071	-0.241
-407.311	193.044	-0.078	-0.155
-406.296	-185.323	-0.385	-0.008
-405.282	19.088	-0.221	-0.232
-404.267	159.911	-0.016	-0.028
-403.252	36.157	0.319	-0.368
-402.238	-200.000	-0.005	-0.091
-401.223	-13.607	0.282	0.239
-400.209	-200.000	-0.572	0.003
-399.194	-109.776	-0.384	0.105
-398.179	-118.874	-0.376	-0.086
-397.165	43.154	-0.209	-0.249
-396.150	-84.505	0.276	-0.114
-395.136	117.608	0.185	-0.298
-394.121	-106.816	0.288	-0.083
-393.106	-2.601	0.102	-0.093
-392.092	-131.725	-0.211	0.036
-391.077	-68.162	-0.682	-0.346
-390.063	202.852	-0.077	-0.156
-389.048	-129.949	0.300	-0.053
-388.033	4.427	0.100	0.096
-387.019	-158.408	0.090	-0.007
-386.004	75.751	0.180	0.249
-384.990	-200.000	0.000	-0.110
-383.975	-144.133	0.164	0.020
-382.960	-100.401	-0.453	-0.146
-381.946	-103.156	0.263	0.081
-380.931	-85.576	0.162	0.066
-379.917	52.292	0.099	-0.123
-378.902	-200.000	0.024	0.228
-377.888	-33.811	0.063	-0.046
-376.873	-200.000	0.634	0.002
-375.858	778.794	-0.082	-0.293
-374.844	33.556	0.249	-0.283
-373.829	24.491	-0.138	-0.149
-372.815	-57.375	0.208	0.119
-371.800	-180.758	0.516	-0.013
-370.785	800.000	0.075	0.281
-369.771	190.313	-0.071	0.139
-368.756	291.953	0.130	0.309
-367.742	800.000	0.109	0.490
-366.727	800.000	0.070	0.259
-365.712	-134.448	-0.155	-0.025
-364.698	-48.351	0.349	0.219
-363.683	-200.000	0.070	-0.452
-362.669	-86.784	-0.172	-0.068
-361.654	-145.833	0.104	0.012
-360.639	-102.573	-0.418	0.130
-359.625	-200.000	-0.025	0.378
-358.610	-20.573	-0.184	-0.147
-357.596	800.000	-0.040	0.183
-356.581	-200.000	0.016	0.364
-355.566	71.816	0.208	-0.282
-354.552	183.260	0.165	-0.319
-353.537	-86.377	0.238	-0.095
-352.523	-3.645	-0.215	0.195
-351.508	44.333	0.110	0.132
-350.493	800.000	-0.026	0.121
-349.479	-200.000	-0.019	-0.118
-348.464	505.985	0.121	0.368
-347.450	-136.036	-0.222	-0.034
-346.435	139.843	-0.226	0.391
-345.420	77.307	0.039	-0.054
-344.406	-123.916	-0.248	-0.050
-343.391	38.983	0.437	0.510
-342.377	-117.771	-0.154	-0.036
-341.362	495.931	0.058	-0.174
-340.348	3.673	-0.221	-0.210
-339.333	-36.795	0.178	-0.124
-338.318	28.201	-0.106	0.117
-337.304	63.377	0.148	0.193
-336.289	102.481	-0.405	-0.619
-335.275	-152.503	-0.448	-0.041
-334.260	-24.603	0.306	-0.237
-333.245	291.918	0.068	-0.161
-332.231	-62.597	-0.224	0.121
-331.216	309.003	0.099	0.243
-330.202	88.297	-0.063	-0.091
-329.187	-132.167	0.078	-0.013
-328.172	138.181	-0.074	0.127
-327.158	-1.919	0.118	-0.108
-326.143	6.386	-0.351	0.340
-325.129	-32.267	0.315	0.229
-324.114	-58.930	0.457	-0.257
-323.099	-11.156	0.096	-0.083
-322.085	-55.983	-0.378	-0.219
-321.070	-73.904	0.235	-0.111
-320.056	4.681	-0.232	0.222
-319.041	-3.087	-0.358	0.326
-318.026	319.907	-0.221	0.549
-317.012	-200.000	0.719	0.003
-315.997	-39.315	-0.206	0.141
-314.983	-142.276	-0.402	0.051
-313.968	326.508	-0.180	-0.451
-312.953	800.000	0.027	0.126
-311.939	22.561	0.403	-0.430
-310.924	-200.000	0.034	-0.814
-309.910	-77.283	-0.519	0.234
-308.895	-143.894	-0.404	-0.049
-307.880	-38.238	-0.369	0.254
-306.866	32.274	-0.423	0.476
-305.851	-115.122	0.410	-0.101
-304.837	7.944	-0.307	0.300
-303.822	-136.018	0.350	-0.053
-302.807	114.403	0.159	0.253
-301.793	-200.000	-0.013	0.157
-300.778	-83.750	-0.171	0.071
-299.764	-113.043	-0.273	-0.070
-298.749	-132.915	-0.510	-0.084
-297.735	-200.000	-0.183	0.000
-296.720	-113.251	-0.225	0.057
-295.705	27.332	0.307	-0.337
-294.691	-131.864	-0.232	0.039
-293.676	52.035	0.020	0.024
-292.662	-159.793	-0.096	-0.007
-291.647	800.000	-0.038	0.153
-290.632	273.962	-0.149	-0.344
-289.618	-105.757	-0.070	-0.020
-288.603	592.469	0.105	-0.340
-287.589	83.937	0.107	-0.153
-286.574	-30.970	0.190	-0.139
-285.559	-59.126	-0.472	0.264
-284.545	-57.341	-0.338	-0.193
-283.530	176.303	-0.120	-0.228
-282.516	-200.000	0.050	0.295
-281.501	-134.726	0.251	0.039
-280.486	-79.712	0.471	0.206
-279.472	800.000	-0.083	-0.322
-278.457	233.805	-0.279	-0.600
-277.443	-55.432	-0.167	0.097
-276.428	-150.224	-0.565	-0.056
-275.413	800.000	0.077	-0.313
-274.399	-94.131	0.623	0.221
-273.384	-20.668	-0.293	0.234
-272.370	154.072	0.151	0.271
-271.355	-3.678	-0.256	-0.231
-270.340	102.196	-0.188	-0.286
-269.326	17.429	-0.112	0.116
-268.311	681.025	0.178	-0.608
-267.297	-155.528	-0.280	-0.023
-266.282	800.000	0.125	0.646
-265.267	114.101	-0.124	0.196
-264.253	-200.000	0.004	-0.182
-263.238	466.375	0.040	-0.117
-262.224	150.224	-0.157	0.278
-261.209	-53.800	0.239	0.141
-260.195	-47.376	0.100	-0.063
-259.180	-195.548	0.480	-0.004
-258.165	-73.380	0.460	0.218
-257.151	169.513	0.244	-0.455
-256.136	800.000	0.099	0.545
-255.122	-32.705	0.088	0.064
-254.107	-62.192	0.326	0.176
-253.092	-151.514	0.587	-0.056
-252.078	76.447	-0.217	0.300
-251.063	-22.295	0.297	0.234
-250.049	-21.268	0.179	-0.142
-249.034	44.488	0.113	0.135
-248.019	578.100	0.173	0.555
-247.005	-46.463	0.407	-0.259
-245.990	-15.458	-0.087	-0.073
-244.976	-93.571	0.204	0.073
-243.961	89.553	-0.056	-0.082
-242.946	180.644	-0.425	-0.814
-241.932	-26.056	-0.424	-0.323
-240.917	101.434	-0.202	0.306
-239.903	-23.980	0.289	0.224
-238.888	55.940	0.235	-0.297
-237.873	800.000	-0.048	0.181
-236.859	585.370	-0.030	0.096
-235.844	-54.460	0.140	0.082
-234.830	-23.242	0.404	-0.316
-233.815	-99.853	-0.417	0.135
-232.800	-153.371	0.335	-0.030
-231.786	379.718	-0.073	-0.196
-230.771	-98.626	0.183	0.060
-229.757	-200.000	-0.013	-0.251
-228.742	-56.669	-0.336	0.193
-227.727	-75.754	0.145	-0.066
-226.713	226.652	-0.107	0.226
-225.698	-200.000	0.001	0.330
-224.684	-195.687	-0.540	-0.005
-223.669	37.824	0.285	0.329
-222.655	69.526	0.062	-0.084
-221.640	3.505	-0.224	0.212
-220.625	-32.218	-0.274	-0.198
-219.611	151.729	-0.209	0.371
-218.596	93.216	-0.114	-0.167
-217.582	43.497	-0.193	0.229
-216.567	25.258	0.239	-0.258
-215.552	800.000	-0.098	0.409
-214.538	715.580	-0.046	0.159
-213.523	4.202	-0.534	-0.507
-212.509	47.537	-0.227	0.275
-211.494	-20.293	-0.217	0.173
-210.479	403.963	0.046	0.128
-209.465	-59.966	0.394	0.218
-208.450	-200.000	-0.038	0.271
-207.436	205.821	-0.209	-0.423
-206.421	434.027	-0.139	-0.394
-205.406	46.144	-0.125	-0.150
-204.392	33.634	-0.285	-0.321
-203.377	-136.887	0.348	-0.051
-202.363	-12.335	0.196	-0.166
-201.348	-200.000	-0.052	0.422
-200.333	-110.701	-0.380	-0.101
-199.319	17.006	-0.083	0.085
-198.304	204.476	-0.136	0.274
-197.290	482.961	-0.149	-0.443
-196.275	-121.810	0.364	0.077
-195.260	5.830	0.167	-0.161
-194.246	-149.331	0.233	0.024
-193.231	800.000	-0.103	0.420
-192.217	197.498	-0.043	0.085
-191.202	-9.402	-0.259	-0.224
-190.187	-13.722	-0.045	-0.037
-189.173	-187.207	0.721	0.012
-188.158	260.166	0.148	0.334
-187.144	-136.271	-0.288	-0.043
-186.129	-104.644	0.382	0.114
-185.114	-71.992	-0.450	0.216
-184.100	83.885	0.094	-0.134
-183.085	-48.949	-0.027	-0.017
-182.071	-107.538	0.338	-0.095
-181.056	185.828	0.274	-0.530
-180.042	182.449	-0.091	-0.175
-179.027	147.358	-0.114	-0.200
-178.012	-87.949	0.230	0.089
-176.998	-153.863	0.413	0.036
-175.983	-36.775	-0.327	0.227
-174.969	-18.812	-0.123	-0.100
-173.954	-43.843	-0.319	0.208
-172.939	-200.000	0.018	0.206
-171.925	136.191	0.278	-0.471
-170.910	76.364	0.124	-0.171
-169.896	-118.786	-0.200	0.045
-168.881	-109.964	0.232	-0.063
-167.866	607.616	0.143	-0.465
-166.852	-135.167	0.257	-0.040
-165.837	-68.440	-0.013	-0.006
-164.823	-53.298	-0.026	-0.015
-163.808	-108.219	0.139	-0.039
-162.793	-200.000	0.111	-0.749
-161.779	800.000	0.008	-0.038
-160.764	12.919	-0.126	0.126
-159.750	0.287	0.515	-0.476
-158.735	93.923	0.245	-0.361
-157.720	-168.079	0.245	0.012
-156.706	-156.756	0.096	0.008
-155.691	-125.486	0.684	0.134
-154.677	757.447	0.099	0.349
-153.662	205.340	0.062	-0.126
-152.647	-93.651	0.231	0.082
-151.633	-126.348	-0.329	0.063
-150.618	-97.398	-0.470	0.158
-149.604	-136.015	0.559	-0.084
-148.589	4.971	0.411	-0.392
-147.574	-200.000	0.022	-0.236
-146.560	142.560	0.187	0.323
-145.545	-109.113	-0.535	-0.146
-144.531	-53.705	-0.328	-0.193
-143.516	-85.545	0.487	-0.195
-142.502	410.533	0.015	-0.040
-141.487	31.753	0.101	0.113
-140.472	4.350	0.191	-0.182
-139.458	537.355	-0.025	0.077
-138.443	73.344	0.135	-0.184
-137.429	-200.000	-0.061	-0.822
-136.414	-152.776	-0.386	-0.035
-135.399	-200.000	0.265	-0.002
-134.385	37.430	-0.154	0.177
-133.370	-83.408	-0.407	0.168
-132.356	-153.827	-0.044	-0.004
-131.341	30.783	0.161	-0.178
-130.326	378.376	-0.109	0.290
-129.312	-39.249	-0.142	-0.096
-128.297	-3.284	-0.248	-0.224
-127.283	-6.046	-0.159	0.140
-126.268	-123.438	-0.430	-0.088
-125.253	-0.365	0.145	0.133
-124.239	-200.000	0.026	-0.265
-123.224	-143.631	0.304	-0.037
-122.210	350.636	0.248	-0.637
-121.195	-94.863	-0.287	0.100
-120.180	165.839	-0.117	0.215
-119.166	-33.626	-0.391	-0.279
-118.151	107.536	0.162	0.250
-117.137	-52.614	-0.218	-0.130
-116.122	-27.148	-0.138	0.104
-115.107	-33.136	0.413	0.296
-114.093	-200.000	-0.002	-0.052
-113.078	265.761	-0.218	-0.494
-112.064	-5.824	0.185	-0.163
-111.049	-200.000	-0.008	0.051
-110.034	-129.751	-0.223	-0.039
-109.020	58.606	0.122	-0.154
-108.005	141.103	0.235	-0.404
-106.991	-200.000	0.014	-0.097
-105.976	-25.711	-0.280	0.213
-104.962	9.822	0.058	0.057
-103.947	-200.000	-0.072	0.674
-102.932	43.301	0.286	-0.337
-101.918	229.798	-0.099	0.209
-100.903	-108.076	-0.554	-0.154
-99.889	134.473	0.045	-0.076
-98.874	-83.919	-0.175	-0.072
-97.859	131.501	0.188	-0.313
-96.845	-46.810	-0.217	-0.137
-95.830	79.796	0.072	0.101
-94.816	458.330	0.180	-0.519
-93.801	-56.351	0.298	-0.171
-92.786	104.409	-0.147	-0.225
-91.772	55.898	0.216	-0.272
-90.757	-17.963	-0.111	-0.090
-89.743	-200.000	0.031	-0.178
-88.728	-181.392	0.254	0.006
-87.713	-12.775	-0.183	-0.154
-86.699	471.902	-0.110	-0.322
-85.684	-62.503	0.228	0.122
-84.670	-115.565	0.215	-0.052
-83.655	91.054	0.144	-0.209
-82.640	-50.010	-0.130	-0.080
-81.626	456.134	-0.047	-0.136
-80.611	-200.000	-0.021	-0.124
-79.597	270.005	-0.086	-0.195
-78.582	-121.372	-0.091	0.020
-77.567	-80.253	-0.128	0.055
-76.553	-200.000	0.030	-0.250
-75.538	29.646	-0.255	0.280
-74.524	35.791	0.162	-0.184
-73.509	501.050	-0.080	-0.239
-72.494	-110.480	-0.495	-0.132
-71.480	-12.529	-0.273	0.230
-70.465	557.398	0.101	0.317
-69.451	-180.898	-0.284	-0.007
-68.436	-200.000	-0.030	-0.453
-67.422	132.342	0.043	0.071
-66.407	71.950	-0.380	0.511
-65.392	-70.556	0.251	0.122
-64.378	9.542	-0.129	0.126
-63.363	-109.021	0.320	0.088
-62.349	800.000	0.156	0.672
-61.334	73.158	-1.869	-2.527
-60.319	147.089	0.951	1.656
-59.305	255.769	-3.365	-7.476
-58.290	73.375	3.825	5.174
-57.276	321.850	4.338	10.702
-56.261	-200.000	23.186	310.916
-55.246	366.142	1283.539	3355.651
-54.232	54.122	2833.604	3520.789
-53.217	52.607	2659.933	3281.517
-52.203	33.083	2391.944	2676.356
-51.188	28.404	2059.598	2246.887
-50.173	25.025	1945.467	2082.887
-49.159	23.841	1934.117	2056.887
-48.144	23.356	1929.958	2046.748
-47.130	23.302	1927.362	2043.286
-46.115	23.345	1925.552	2041.785
-45.100	23.350	1924.790	2040.954
-44.086	23.302	1923.563	2039.017
-43.071	23.254	1921.214	2035.897
-42.057	23.304	1919.361	2034.432
-41.042	23.239	1918.572	2032.758
-40.027	23.273	1916.573	2030.953
-39.013	23.288	1915.302	2029.705
-37.998	23.152	1914.812	2027.538
-36.984	23.272	1912.630	2026.521
-35.969	23.236	1911.546	2024.879
-34.954	23.160	1910.242	2022.548
-33.940	23.128	1910.027	2021.867
-32.925	23.237	1907.810	2020.692
-31.911	23.147	1906.967	2018.683
-30.896	23.175	1905.459	2017.332
-29.881	23.154	1904.139	2015.620
-28.867	23.145	1903.533	2014.786
-27.852	23.276	1900.965	2013.494
-26.838	23.204	1899.865	2011.423
-25.823	23.107	1898.439	2008.728
-24.809	23.173	1896.574	2007.430
-23.794	23.173	1895.850	2006.583
-22.779	23.094	1894.553	2004.221
-21.765	22.984	1894.126	2002.441
-20.750	22.945	1892.996	2000.725
-19.736	22.984	1891.225	1999.219
-18.721	23.052	1889.475	1998.061
-17.706	23.055	1888.474	1996.960
-16.692	23.042	1887.797	1996.017
-15.677	22.880	1886.961	1993.217
-14.663	23.050	1884.447	1992.400
-13.648	22.857	1883.099	1988.719
-12.633	22.944	1882.521	1989.014
-11.619	22.898	1881.257	1987.073
-10.604	22.894	1879.669	1985.278
-9.590	23.047	1878.293	1985.464
-8.575	22.891	1877.721	1983.024
-7.560	22.903	1876.576	1981.872
-6.546	22.817	1875.262	1979.439
-5.531	22.958	1873.456	1979.039
-4.517	22.859	1872.861	1977.220
-3.502	22.821	1871.955	1975.759
-2.487	22.956	1870.050	1975.183
-1.473	23.038	1867.001	1972.801
-0.458	23.041	1850.148	1954.955
0.556	20.238	1997.644	2064.974
1.571	19.199	2202.307	2262.548
2.586	20.022	2242.054	2314.166
3.600	20.038	2244.955	2317.103
4.615	19.983	2243.886	2314.972
5.629	19.964	2241.628	2312.112
6.644	20.069	2239.283	2310.825
7.659	20.106	2238.031	2309.752
8.673	20.009	2236.689	2306.790
9.688	19.823	2244.305	2311.872
10.702	18.829	2324.418	2380.271
11.717	17.080	2387.681	2419.729
12.731	8.233	2365.880	2271.239
13.746	1.184	2346.943	2152.485
14.761	0.295	2343.413	2136.333
15.775	0.031	2343.012	2131.945
16.790	0.163	2339.816	2130.665
17.804	0.130	2338.714	2128.940
18.819	0.087	2337.207	2126.698
19.834	0.080	2335.628	2124.909
20.848	0.026	2335.314	2123.593
21.863	0.063	2332.986	2121.745
22.877	0.088	2330.561	2119.639
23.892	0.088	2328.758	2117.749
24.907	0.045	2325.903	2114.301
25.921	0.041	2325.305	2113.447
26.936	0.010	2322.786	2110.469
27.950	0.052	2319.810	2108.092
28.965	0.171	2317.175	2107.131
29.980	0.098	2316.355	2105.107
30.994	0.172	2314.133	2103.870
32.009	4.222	2326.056	2171.556
33.023	14.589	2356.325	2346.775
34.038	19.415	2366.419	2424.896
35.053	20.067	2365.631	2433.004
36.067	20.065	2362.925	2429.907
37.082	20.028	2360.292	2426.389
38.096	20.062	2359.259	2425.516
39.111	20.252	2356.239	2424.787
40.126	20.308	2353.771	2422.744
41.140	20.495	2352.998	2424.279
42.155	20.182	2351.535	2418.095
43.169	20.217	2349.508	2416.213
44.184	20.252	2346.720	2413.553
45.199	20.353	2344.802	2412.695
46.213	20.354	2344.024	2411.620
47.228	20.253	2344.091	2409.990
48.242	20.421	2340.566	2408.415
49.257	20.458	2339.123	2407.160
50.271	20.375	2335.497	2401.995
51.286	20.387	2332.721	2399.010
52.301	20.243	2331.723	2395.698
53.315	20.273	2331.615	2395.722
54.330	20.790	2332.465	2403.475
55.344	21.201	2330.143	2406.493
56.359	21.205	2327.411	2403.436
57.374	21.254	2325.592	2401.947
58.388	21.474	2323.681	2402.724
59.403	21.443	2320.708	2398.937
60.417	21.467	2317.741	2395.916
61.432	21.506	2316.681	2395.064
62.447	21.713	2315.290	2396.188
63.461	21.648	2313.160	2392.801
64.476	21.816	2310.782	2392.365
65.490	21.828	2309.150	2390.549
66.505	21.582	2308.238	2385.951
67.520	20.905	2304.663	2372.712
68.534	20.167	2300.288	2357.841
69.549	20.157	2297.133	2354.185
70.563	20.185	2296.277	2353.414
71.578	20.264	2293.725	2351.585
72.593	20.187	2292.569	2349.070
73.607	20.411	2291.047	2350.283
74.622	20.441	2288.634	2347.930
75.636	20.244	2285.376	2341.637
76.651	20.194	2284.012	2339.274
77.666	20.307	2282.615	2339.095
78.680	20.488	2280.309	2338.904
79.695	20.507	2277.895	2336.402
80.709	20.621	2278.180	2337.965
81.724	20.739	2275.510	2336.534
82.739	20.704	2272.466	2332.655
83.753	20.514	2269.884	2327.164
84.768	20.359	2268.253	2323.135
85.782	20.291	2266.849	2320.506
86.797	20.323	2264.963	2318.728
87.812	20.253	2263.253	2315.750
88.826	20.309	2261.015	2313.934
89.841	20.312	2259.179	2311.822
90.855	20.418	2256.445	2310.172
91.870	20.223	2254.572	2305.369
92.884	20.282	2253.190	2304.462
93.899	20.254	2252.323	2302.926
94.914	20.274	2252.601	2303.204
95.928	20.821	2253.811	2311.469
96.943	21.176	2250.329	2312.342
97.957	20.403	2246.648	2298.014
98.972	20.250	2243.854	2292.849
99.987	20.255	2239.853	2288.548
101.001	20.130	2238.099	2284.830
102.016	20.147	2237.145	2283.802
103.030	20.295	2235.660	2283.975
104.045	20.463	2233.294	2283.507
105.060	20.523	2230.086	2280.739
106.074	20.439	2228.802	2278.050
107.089	20.453	2227.936	2277.068
108.103	20.454	2227.602	2276.475
109.118	20.433	2224.510	2272.767
110.133	20.616	2222.670	2273.019
111.147	20.623	2221.497	2271.633
112.162	20.709	2219.639	2270.599
113.176	20.458	2216.860	2264.188
114.191	20.434	2215.277	2261.984
115.206	20.382	2213.977	2259.714
116.220	20.287	2212.064	2256.240
117.235	20.247	2209.160	2252.496
118.249	20.162	2207.420	2249.337
119.264	20.195	2206.298	2248.351
120.279	20.321	2205.578	2248.992
121.293	20.337	2202.496	2245.791
122.308	20.376	2200.169	2243.663
123.322	20.354	2200.899	2243.842
124.337	20.465	2199.707	2243.798
125.352	21.187	2201.291	2254.531
126.366	21.169	2199.603	2252.290
127.381	20.281	2193.387	2234.166
128.395	19.987	2190.470	2227.138
129.410	20.197	2189.823	2228.927
130.424	20.208	2188.115	2227.054
131.439	19.882	2185.090	2219.515
132.454	19.940	2183.620	2218.506
133.468	20.160	2181.200	2218.608
134.483	20.166	2179.269	2216.454
135.497	20.315	2177.928	2216.737
136.512	20.249	2175.548	2213.199
137.527	20.133	2174.354	2210.230
138.541	20.159	2173.156	2209.093
139.556	20.035	2172.157	2206.218
140.570	20.231	2170.778	2207.058
141.585	20.384	2169.201	2207.151
142.600	20.426	2168.681	2206.890
143.614	20.404	2167.730	2205.373
144.629	20.364	2164.318	2201.137
145.643	20.324	2163.112	2199.133
146.658	20.241	2161.031	2195.703
147.673	20.403	2159.969	2196.420
148.687	20.497	2158.266	2195.615
149.702	20.557	2157.172	2194.999
150.716	20.365	2155.756	2190.868
151.731	20.359	2154.721	2189.472
152.746	20.275	2154.628	2188.057
153.760	20.310	2154.033	2187.637
154.775	20.869	2154.239	2194.653
155.789	20.875	2151.842	2192.035
156.804	20.265	2145.799	2177.912
157.819	20.095	2143.461	2173.139
158.833	20.473	2140.965	2175.110
159.848	20.547	2138.921	2173.698
160.862	20.598	2137.743	2172.890
161.877	20.485	2136.600	2170.046
162.892	20.345	2135.848	2167.262
163.906	20.421	2133.806	2165.882
164.921	20.491	2131.981	2164.651
165.935	20.553	2130.113	2163.268
166.950	20.510	2128.809	2161.148
167.964	20.394	2126.006	2156.599
168.979	20.410	2125.347	2155.874
169.994	20.465	2124.292	2155.226
171.008	20.459	2122.585	2153.164
172.023	20.580	2119.564	2151.346
173.037	20.425	2118.891	2148.481
174.052	20.432	2116.938	2146.332
175.067	20.412	2115.107	2143.963
176.081	20.356	2113.434	2141.315
177.096	20.131	2112.307	2137.139
178.110	20.030	2110.310	2133.607
179.125	20.134	2109.333	2133.644
180.140	20.243	2108.512	2133.918
181.154	20.311	2106.740	2132.707
182.169	20.051	2105.221	2127.705
183.183	19.985	2104.060	2125.461
184.198	20.820	2104.860	2136.308
185.213	21.120	2104.409	2139.291
186.227	20.399	2101.289	2126.992
187.242	20.172	2099.336	2121.972
188.256	20.372	2096.289	2121.088
189.271	20.284	2095.316	2118.780
190.286	20.328	2093.485	2117.208
191.300	20.308	2090.889	2114.081
192.315	20.148	2088.410	2109.368
193.329	20.169	2088.010	2108.967
194.344	20.361	2086.578	2109.619
195.359	20.542	2085.582	2110.568
196.373	20.494	2083.864	2107.993
197.388	20.341	2080.749	2102.724
198.402	20.202	2079.126	2099.140
199.417	20.114	2076.857	2095.525
200.432	20.298	2075.230	2095.870
201.446	20.502	2075.328	2098.193
202.461	20.553	2073.264	2096.476
203.475	20.489	2072.231	2094.398
204.490	20.498	2068.938	2090.930
205.504	20.364	2066.912	2087.012
206.519	20.241	2064.816	2083.168
207.534	20.162	2062.921	2080.054
208.548	20.157	2063.235	2080.060
209.563	20.363	2061.915	2080.968
210.577	20.151	2059.849	2076.080
211.592	20.313	2058.376	2076.294
212.607	20.659	2058.992	2080.822
213.621	21.380	2060.602	2090.869
214.636	21.031	2057.436	2083.220
215.650	20.202	2053.972	2069.531
216.665	20.073	2051.388	2065.132
217.680	20.267	2050.333	2066.139
218.694	20.355	2048.651	2065.251
219.709	20.586	2046.892	2065.985
220.723	20.677	2046.436	2066.373
221.738	20.524	2044.292	2062.129
222.753	20.351	2041.729	2057.235
223.767	20.400	2039.856	2055.690
224.782	20.289	2037.890	2052.139
225.796	20.466	2037.375	2053.478
226.811	20.370	2036.056	2050.770
227.826	20.559	2034.716	2051.415
228.840	20.511	2034.273	2050.157
229.855	20.540	2031.783	2047.742
230.869	20.705	2030.218	2047.865
231.884	20.374	2029.057	2042.541
232.899	20.173	2026.557	2037.403
233.913	20.134	2025.849	2035.993
234.928	20.192	2024.959	2035.542
235.942	20.506	2023.110	2037.136
236.957	20.495	2021.152	2034.788
237.972	20.374	2019.957	2031.918
238.986	20.431	2019.713	2032.103
240.001	20.594	2017.731	2031.775
241.015	20.445	2015.680	2027.722
242.030	20.424	2015.228	2026.774
243.045	20.892	2014.935	2031.725
244.059	20.847	2012.814	2028.813
245.074	20.369	2009.363	2019.505
246.088	20.242	2006.560	2014.971
247.103	20.225	2005.122	2013.080
248.117	20.103	2003.736	2010.030
249.132	20.218	2002.791	2010.184
250.147	20.229	2000.521	2007.793
251.161	20.315	1999.073	2007.096
252.176	20.544	1997.967	2008.406
253.190	20.740	1995.892	2008.354
254.205	20.729	1993.653	2005.733
255.220	20.742	1994.385	2006.376
256.234	20.965	1993.051	2007.380
257.249	20.708	1992.168	2003.278
258.263	20.624	1990.782	2000.668
259.278	20.638	1988.911	1998.716
260.293	20.651	1987.050	1996.754
261.307	20.555	1984.243	1992.591
262.322	20.280	1983.063	1987.993
263.336	20.373	1981.838	1987.600
264.351	20.457	1978.894	1985.371
265.366	20.377	1979.784	1985.115
266.380	20.483	1978.449	1984.749
267.395	20.259	1976.668	1980.154
268.409	20.233	1973.237	1976.190
269.424	20.374	1972.717	1977.048
270.439	20.598	1972.546	1979.198
271.453	20.581	1971.082	1977.299
272.468	20.847	1971.213	1980.238
273.482	21.083	1968.577	1980.040
274.497	20.654	1964.857	1971.173
275.512	20.541	1962.373	1967.158
276.526	20.639	1961.182	1966.853
277.541	20.623	1958.611	1963.858
278.555	20.526	1957.772	1961.672
279.570	20.221	1955.060	1955.273
280.585	20.255	1953.988	1954.343
281.599	20.455	1951.990	1954.375
282.614	20.424	1951.020	1952.820
283.628	20.399	1951.025	1952.306
284.643	20.263	1949.576	1949.087
285.657	20.561	1948.508	1951.150
286.672	20.614	1947.184	1950.192
287.687	20.359	1945.605	1945.502
288.701	20.414	1943.732	1944.018
289.716	20.478	1942.647	1943.417
290.730	20.494	1940.125	1940.844
291.745	20.204	1939.497	1936.722
292.760	20.232	1938.194	1935.509
293.774	20.349	1937.712	1936.109
294.789	20.494	1935.291	1935.084
295.803	20.250	1933.245	1930.070
296.818	20.381	1932.862	1930.921
297.833	20.335	1931.823	1929.146
298.847	20.695	1929.651	1930.754
299.862	20.618	1927.618	1927.632
300.876	20.374	1927.276	1924.340
301.891	20.926	1928.264	1931.254
302.906	21.308	1926.944	1933.951
303.920	20.822	1923.994	1925.359
304.935	20.485	1921.227	1918.613
305.949	20.287	1919.112	1914.079
306.964	20.439	1917.492	1913.923
307.979	20.557	1916.702	1914.204
308.993	20.520	1913.929	1910.804
310.008	20.542	1912.987	1909.878
311.022	20.611	1912.151	1909.569
312.037	20.563	1909.866	1906.533
313.052	20.574	1908.140	1904.699
314.066	20.414	1906.576	1901.152
315.081	20.438	1906.515	1901.124
316.095	20.413	1904.332	1898.449
317.110	20.525	1903.123	1898.243
318.125	20.597	1902.843	1898.534
319.139	20.661	1901.054	1897.220
320.154	20.606	1899.433	1894.778
321.168	20.586	1898.160	1893.054
322.183	20.523	1896.350	1890.339
323.197	20.463	1895.294	1888.402
324.212	20.359	1893.068	1884.829
325.227	20.272	1891.755	1882.343
326.241	20.397	1889.190	1880.923
327.256	20.518	1888.173	1881.005
328.270	20.582	1887.734	1881.039
329.285	20.602	1887.662	1880.955
330.300	20.739	1887.969	1882.533
331.314	21.297	1887.996	1888.397
332.329	21.222	1884.115	1883.477
333.343	20.589	1881.044	1873.329
334.358	20.648	1879.588	1872.289
335.373	20.555	1877.989	1869.471
336.387	20.448	1875.810	1865.915
337.402	20.428	1874.373	1864.055
338.416	20.432	1872.544	1862.050
339.431	20.468	1871.009	1860.692
340.446	20.648	1869.934	1861.333
341.460	20.667	1868.436	1859.822
342.475	20.599	1866.725	1857.170
343.489	20.618	1866.332	1856.755
344.504	20.731	1865.382	1856.806
345.519	20.660	1863.190	1853.635
346.533	20.500	1861.499	1850.024
347.548	20.633	1860.550	1850.277
348.562	20.791	1859.014	1850.218
349.577	20.627	1858.432	1847.668
350.592	20.613	1856.006	1844.882
351.606	20.521	1854.612	1842.294
352.621	20.571	1852.556	1840.568
353.635	20.129	1851.731	1834.823
354.650	20.102	1849.929	1832.530
355.665	20.277	1848.940	1833.197
356.679	20.339	1847.656	1832.355
357.694	20.325	1845.907	1830.257
358.708	20.435	1845.595	1830.897
359.723	20.799	1845.312	1834.243
360.738	21.227	1845.608	1838.850
361.752	21.000	1844.013	1834.642
362.767	20.225	1840.162	1822.407
363.781	19.916	1837.567	1816.365
364.796	20.167	1836.541	1817.778
365.810	20.326	1835.682	1818.384
366.825	20.316	1834.508	1816.902
367.840	20.195	1832.801	1813.720
368.854	20.331	1831.634	1813.781
369.869	20.220	1829.783	1810.561
370.883	20.108	1828.246	1807.648
371.898	20.237	1827.131	1807.683
372.913	20.330	1827.518	1808.824
373.927	20.570	1825.760	1809.375
374.942	20.547	1825.111	1808.277
375.956	20.681	1823.520	1807.883
376.971	20.323	1820.657	1801.091
377.986	20.174	1818.255	1796.947
379.000	20.207	1817.846	1796.678
380.015	20.550	1816.878	1799.069
381.029	20.591	1814.897	1797.323
382.044	20.656	1814.622	1797.509
383.059	20.800	1812.285	1796.471
384.073	20.598	1811.427	1793.313
385.088	20.270	1809.562	1787.859
386.102	20.087	1807.318	1783.528
387.117	20.202	1805.192	1782.404
388.132	20.266	1805.612	1783.272
389.146	20.534	1806.944	1787.144
390.161	21.119	1806.854	1792.878
391.175	21.108	1802.251	1787.991
392.190	20.354	1796.734	1774.558
393.205	20.131	1795.680	1771.011
394.219	20.254	1794.331	1770.731
395.234	20.351	1793.386	1770.579
396.248	20.387	1791.152	1768.529
397.263	20.364	1789.513	1766.465
398.278	20.251	1787.172	1762.789
399.292	20.327	1787.451	1763.629
400.307	20.609	1786.785	1765.641
401.321	20.585	1784.656	1763.078
402.336	20.355	1783.159	1759.055
403.350	20.424	1782.333	1758.724
404.365	20.709	1781.205	1760.307
405.380	21.014	1780.637	1762.635
406.394	21.155	1779.318	1762.544
407.409	21.026	1778.664	1760.376
408.423	20.972	1776.199	1757.182
409.438	20.723	1774.457	1752.728
410.453	20.732	1773.048	1751.216
411.467	20.726	1772.060	1749.967
412.482	20.778	1771.370	1749.608
413.496	20.483	1769.621	1744.693
414.511	20.392	1767.454	1741.425
415.526	20.463	1765.107	1739.626
416.540	20.479	1764.418	1738.897
417.555	20.568	1763.007	1738.190
418.569	20.296	1763.177	1735.412
419.584	20.316	1763.527	1735.758
420.599	20.438	1762.633	1735.895
421.613	20.528	1760.947	1734.927
422.628	20.593	1760.503	1734.938
423.642	20.671	1759.086	1734.110
424.657	20.575	1756.731	1730.621
425.672	20.433	1755.002	1727.290
426.686	20.360	1753.856	1725.225
427.701	20.144	1752.014	1721.050
428.715	20.195	1750.182	1719.555
429.730	20.361	1749.160	1719.996
430.745	20.536	1747.845	1720.239
431.759	20.443	1747.252	1718.525
432.774	20.140	1746.325	1714.400
433.788	19.775	1744.717	1708.992
434.803	19.780	1743.284	1707.434
435.818	19.729	1742.921	1706.367
436.832	19.621	1741.742	1703.936
437.847	18.456	1733.417	1684.088
438.861	9.766	1711.351	1577.361
439.876	1.702	1696.517	1484.684
440.890	0.307	1693.521	1468.233
441.905	0.159	1692.250	1465.508
442.920	0.222	1690.698	1464.596
443.934	0.141	1689.158	1462.299
444.949	0.248	1687.159	1461.434
445.963	0.188	1687.169	1460.681
446.978	0.087	1686.847	1459.252
447.993	0.116	1685.684	1458.346
449.007	0.024	1683.715	1455.578
450.022	0.283	1680.453	1455.097
451.036	0.253	1679.374	1453.700
452.051	0.557	1682.710	1459.365
453.066	7.592	1700.002	1543.068
454.080	16.681	1714.428	1645.119
455.095	18.958	1717.139	1669.779
456.109	19.205	1717.500	1672.343
457.124	19.252	1715.620	1670.771
458.139	19.230	1714.474	1669.235
459.153	19.219	1714.130	1668.599
460.168	19.157	1712.228	1665.937
461.182	19.144	1710.751	1664.181
462.197	19.441	1709.598	1665.741
463.212	19.348	1707.559	1662.653
464.226	19.533	1706.099	1662.819
465.241	19.394	1704.551	1659.773
466.255	19.405	1704.073	1659.210
467.270	19.307	1702.721	1656.748
468.285	19.439	1701.560	1656.698
469.299	19.415	1700.406	1655.147
470.314	19.386	1698.886	1653.184
471.328	19.367	1698.071	1652.014
472.343	19.483	1696.508	1651.412
473.358	19.376	1695.000	1648.720
474.372	19.365	1694.027	1647.467
475.387	19.324	1692.707	1645.592
476.401	19.429	1690.942	1644.689
477.416	19.346	1689.852	1642.639
478.430	19.366	1688.565	1641.381
479.445	19.304	1687.999	1640.037
480.460	19.541	1686.559	1640.710
481.474	19.501	1685.438	1639.037
482.489	19.200	1684.240	1634.812
483.503	19.224	1682.275	1632.934
484.518	19.336	1680.650	1632.226
485.533	19.300	1679.480	1630.549
486.547	19.148	1677.342	1626.835
487.562	19.250	1676.468	1626.763
488.576	19.200	1675.278	1624.935
489.591	19.235	1673.442	1623.296
490.606	19.365	1672.617	1623.531
491.620	19.363	1671.271	1622.011
492.635	19.278	1669.531	1619.329
493.649	19.142	1668.192	1616.552
494.664	19.406	1667.634	1618.311
495.679	19.348	1666.796	1616.748
496.693	19.405	1665.285	1615.627
497.708	19.305	1663.518	1612.780
498.722	19.155	1662.430	1610.121
499.737	19.299	1660.608	1609.518
500.752	19.348	1659.815	1609.014
501.766	19.383	1657.888	1607.288
502.781	19.266	1656.570	1604.717
503.795	19.310	1655.474	1603.882
504.810	19.255	1654.549	1602.277
505.825	19.227	1653.579	1600.882
506.839	19.393	1651.739	1600.460
507.854	19.261	1650.593	1597.929
508.868	19.263	1648.934	1596.146
509.883	19.061	1649.184	1594.313
510.898	19.111	1646.973	1592.456
511.912	19.023	1645.895	1590.404
512.927	19.119	1643.677	1588.955
513.941	19.051	1642.683	1587.178
514.956	19.093	1641.135	1585.885
515.971	19.156	1639.934	1585.114
516.985	19.221	1638.341	1583.985
518.000	19.086	1637.478	1581.714
519.014	18.984	1636.786	1579.913
520.029	19.002	1635.061	1578.230
521.043	19.077	1633.663	1577.382
522.058	19.119	1632.588	1576.535
523.073	19.095	1631.592	1575.168
524.087	19.066	1630.445	1573.601
525.102	19.124	1629.396	1572.939
526.116	19.428	1628.267	1574.448
527.131	19.333	1627.485	1572.636
528.146	19.239	1626.135	1570.276
529.160	19.128	1625.075	1568.049
530.175	19.122	1624.355	1567.115
531.189	19.200	1623.193	1566.521
532.204	19.077	1621.580	1563.650
533.219	19.247	1620.323	1563.800
534.233	19.414	1620.027	1564.850
535.248	19.179	1618.961	1561.492
536.262	19.107	1617.024	1558.783
537.277	19.101	1616.157	1557.708
538.292	19.142	1614.326	1556.125
539.306	19.135	1612.208	1553.838
540.321	18.999	1611.297	1551.543
541.335	19.110	1609.897	1551.010
542.350	19.007	1608.079	1548.144
543.365	19.161	1606.693	1548.015
544.379	19.059	1605.853	1546.103
545.394	19.029	1604.901	1544.729
546.408	19.305	1602.743	1544.951
547.423	19.353	1602.689	1545.149
548.438	19.366	1601.668	1544.097
549.452	19.221	1600.741	1541.716
550.467	19.102	1599.536	1539.300
551.481	19.162	1598.114	1538.279
552.496	19.089	1597.043	1536.408
553.511	19.025	1595.465	1534.135
554.525	18.960	1594.596	1532.540
555.540	19.001	1593.677	1531.840
556.554	18.979	1592.682	1530.502
557.569	19.040	1591.397	1529.624
558.583	18.988	1590.037	1527.674
559.598	19.040	1588.716	1526.684
560.613	18.900	1588.758	1525.293
561.627	19.005	1586.303	1523.692
562.642	18.989	1584.138	1521.287
563.656	18.976	1582.913	1519.808
564.671	18.882	1581.662	1517.591
565.686	18.778	1580.873	1515.731
566.700	18.674	1579.593	1513.405
567.715	18.825	1578.277	1513.293
568.729	18.802	1577.337	1512.013
569.744	19.089	1574.539	1511.685
570.759	18.842	1573.824	1508.630
571.773	18.860	1573.630	1508.426
572.788	18.849	1571.815	1506.411
573.802	18.832	1570.175	1504.505
574.817	18.860	1568.765	1503.223
575.832	18.751	1567.869	1501.226
576.846	18.832	1566.427	1500.381
577.861	18.935	1565.262	1499.986
578.875	18.983	1564.904	1499.882
579.890	18.956	1563.751	1498.366
580.905	18.863	1562.904	1496.560
581.919	19.001	1562.120	1496.831
582.934	18.968	1560.668	1494.976
583.948	18.877	1559.381	1492.766
584.963	18.857	1558.058	1491.146
585.978	19.126	1557.104	1492.403
586.992	19.040	1556.412	1490.808
588.007	18.908	1555.901	1488.994
589.021	18.921	1554.412	1487.508
590.036	19.024	1553.128	1486.991
591.051	18.835	1552.233	1484.320
592.065	18.879	1549.944	1482.329
593.080	18.899	1548.195	1480.658
594.094	18.933	1546.804	1479.443
595.109	19.096	1546.105	1480.002
596.123	19.206	1543.856	1478.620
597.138	19.224	1542.920	1477.707
598.153	19.012	1541.963	1474.786
599.167	19.021	1540.606	1473.390
600.182	19.018	1540.029	1472.630
601.196	18.931	1539.152	1470.871
602.211	18.953	1537.728	1469.526
603.226	18.848	1536.101	1466.895
604.240	18.848	1535.233	1465.891
605.255	18.864	1534.472	1465.126
606.269	18.802	1533.593	1463.577
607.284	18.941	1532.039	1463.111
608.299	18.870	1530.461	1460.821
609.313	18.741	1529.614	1458.735
610.328	18.944	1528.109	1458.859
611.342	18.923	1526.624	1457.088
612.357	18.884	1525.518	1455.523
613.372	18.844	1524.879	1454.399
614.386	18.883	1523.505	1453.243
615.401	18.838	1522.504	1451.735
616.415	18.772	1521.646	1450.180
617.430	18.902	1520.282	1449.812
618.445	18.887	1518.915	1448.205
619.459	18.845	1518.163	1446.960
620.474	18.843	1517.212	1445.860
621.488	18.957	1515.693	1445.206
622.503	18.976	1515.167	1444.694
623.518	18.634	1514.699	1441.188
624.532	18.650	1512.372	1438.938
625.547	18.656	1512.052	1438.508
626.561	18.606	1510.886	1436.808
627.576	18.718	1509.536	1436.294
628.591	18.673	1508.879	1435.119
629.605	18.687	1507.905	1434.136
630.620	18.776	1506.317	1433.201
631.634	18.952	1505.109	1433.351
632.649	18.994	1504.354	1432.820
633.663	18.886	1502.194	1429.688
634.678	18.675	1500.860	1426.483
635.693	18.776	1499.377	1425.747
636.707	18.581	1498.155	1422.787
637.722	18.718	1497.186	1422.838
638.736	18.727	1496.414	1422.003
639.751	18.730	1495.549	1421.035
640.766	18.629	1494.022	1418.582
641.780	18.708	1493.046	1418.138
642.795	19.023	1491.883	1419.480
643.809	18.846	1491.396	1417.374
644.824	18.877	1490.994	1417.082
645.839	18.896	1489.662	1415.803
646.853	18.855	1488.187	1413.894
647.868	18.858	1486.311	1411.967
648.882	18.885	1485.328	1411.084
649.897	18.909	1484.593	1410.414
650.912	18.802	1482.853	1407.715
651.926	18.967	1481.438	1407.562
652.941	18.739	1481.122	1405.219
653.955	18.891	1479.322	1404.588
654.970	18.823	1477.583	1402.210
655.985	19.025	1475.893	1402.092
656.999	18.944	1475.104	1400.515
658.014	18.915	1474.037	1399.092
659.028	18.886	1472.371	1397.107
660.043	18.857	1471.892	1396.252
661.058	18.768	1470.976	1394.490
662.072	18.744	1470.119	1393.317
663.087	18.746	1469.360	1392.444
664.101	18.873	1467.401	1391.454
665.116	18.852	1466.400	1390.167
666.131	18.849	1465.991	1389.591
667.145	18.897	1464.827	1388.707
668.160	18.711	1463.397	1385.678
669.174	18.772	1461.982	1384.668
670.189	18.776	1461.052	1383.653
671.204	18.817	1460.441	1383.240
672.218	18.734	1459.521	1381.535
673.233	18.738	1457.702	1379.675
674.247	18.829	1456.171	1378.796
675.262	18.988	1454.487	1378.321
676.276	18.870	1454.346	1377.072
677.291	18.691	1454.223	1375.348
678.306	18.801	1452.917	1374.836
679.320	18.630	1451.683	1372.124
680.335	18.731	1450.590	1371.742
681.349	18.849	1450.083	1372.042
682.364	18.803	1449.142	1370.622
683.379	18.710	1447.038	1367.719
684.393	18.710	1445.960	1366.538
685.408	18.774	1444.606	1365.605
686.422	18.732	1444.363	1364.875
687.437	18.666	1443.639	1363.507
688.452	18.655	1442.789	1362.445
689.466	18.598	1440.693	1359.853
690.481	18.683	1439.034	1358.801
691.495	18.691	1438.650	1358.335
692.510	18.719	1438.444	1358.205
693.525	18.891	1436.359	1357.439
694.539	18.710	1435.075	1354.624
695.554	18.651	1434.367	1353.328
696.568	18.778	1433.468	1353.326
697.583	18.711	1432.531	1351.745
698.598	18.562	1431.426	1349.364
699.612	18.649	1430.220	1348.756
700.627	18.594	1429.391	1347.374
701.641	18.745	1428.368	1347.440
702.656	18.770	1427.466	1346.629
703.671	18.745	1426.378	1345.245
704.685	18.688	1425.716	1344.008
705.700	18.680	1424.735	1342.861
706.714	18.890	1422.865	1342.583
707.729	18.866	1421.344	1340.805
708.744	18.837	1420.523	1339.636
709.758	18.706	1419.423	1337.413
710.773	18.870	1418.677	1337.837
711.787	18.859	1417.137	1336.135
712.802	18.702	1415.848	1333.538
713.816	18.735	1415.305	1333.120
714.831	18.785	1414.714	1332.799
715.846	18.795	1413.433	1331.509
716.860	18.930	1411.403	1330.488
717.875	18.902	1410.363	1329.127
718.889	18.947	1409.415	1328.427
719.904	18.946	1408.307	1327.215
720.919	18.981	1407.115	1326.203
721.933	18.714	1406.565	1323.457
722.948	18.726	1405.113	1322.027
723.962	18.747	1403.981	1320.964
724.977	18.804	1403.382	1320.683
725.992	18.720	1402.212	1318.775
727.006	18.820	1400.969	1318.224
728.021	18.679	1399.683	1315.766
729.035	18.686	1398.975	1315.001
730.050	18.690	1397.843	1313.812
731.065	18.785	1395.965	1312.613
732.079	18.712	1395.622	1311.578
733.094	18.873	1394.450	1311.553
734.108	18.893	1392.543	1309.752
735.123	18.881	1391.153	1308.197
736.138	18.839	1390.455	1307.067
737.152	18.549	1390.374	1304.611
738.167	18.660	1389.146	1304.155
739.181	18.734	1388.116	1303.598
740.196	18.747	1387.141	1302.627
741.211	18.680	1386.235	1301.106
742.225	18.794	1384.954	1300.615
743.240	18.699	1384.003	1298.843
744.254	18.649	1382.774	1297.159
745.269	18.734	1381.612	1296.553
746.284	18.547	1380.863	1294.280
747.298	18.666	1379.663	1293.901
748.313	18.623	1378.863	1292.669
749.327	18.626	1377.738	1291.483
750.342	18.855	1377.574	1292.906
751.356	18.926	1376.579	1292.354
752.371	18.808	1374.715	1289.563
753.386	18.703	1373.689	1287.655
754.400	18.828	1372.660	1287.472
755.415	18.752	1371.575	1285.733
756.429	18.764	1370.969	1285.099
757.444	18.746	1369.052	1283.015
758.459	18.767	1368.026	1282.057
759.473	18.671	1367.625	1280.807
760.488	18.805	1366.425	1280.533
761.502	18.816	1365.267	1279.380
762.517	18.928	1363.979	1278.852
763.532	18.791	1363.089	1276.844
764.546	18.771	1361.642	1275.183
765.561	18.833	1361.445	1275.308
766.575	18.910	1360.209	1274.571
767.590	18.845	1359.235	1273.027
768.605	18.981	1357.533	1272.290
769.619	18.961	1355.811	1270.372
770.634	18.832	1355.101	1268.600
771.648	18.719	1354.151	1266.723
772.663	18.858	1353.502	1266.995
773.678	18.884	1352.961	1266.524
774.692	18.764	1352.785	1265.323
775.707	18.710	1352.021	1264.053
776.721	18.738	1350.881	1263.048
777.736	18.692	1349.654	1261.407
778.751	18.736	1348.578	1260.577
779.765	18.873	1347.470	1260.404
780.780	18.770	1346.757	1258.821
781.794	18.687	1345.775	1257.141
782.809	18.687	1344.658	1255.948
783.824	18.794	1342.877	1254.921
784.838	18.639	1341.938	1252.758
785.853	18.694	1341.177	1252.300
786.867	18.661	1340.981	1251.722
787.882	18.623	1340.097	1250.471
788.897	18.581	1338.972	1248.967
789.911	18.599	1338.070	1248.102
790.926	18.643	1336.713	1247.013
791.940	18.521	1335.079	1244.451
792.955	18.703	1334.109	1244.724
793.969	18.605	1333.256	1243.060
794.984	18.615	1332.671	1242.439
795.999	18.625	1331.181	1240.978
797.013	18.656	1329.559	1239.542
798.028	18.582	1329.175	1238.498
799.042	18.593	1328.024	1237.355
800.057	18.698	1326.854	1236.879
801.072	18.958	1324.696	1236.597
802.086	18.708	1324.175	1234.156
803.101	18.753	1323.203	1233.429
804.115	18.824	1321.865	1232.545
805.130	18.883	1320.710	1231.746
806.145	18.828	1320.280	1230.802
807.159	18.834	1318.552	1229.092
808.174	18.820	1317.184	1227.566
809.188	18.863	1316.070	1226.686
810.203	18.815	1314.484	1224.717
811.218	18.838	1313.305	1223.635
812.232	18.868	1312.047	1222.534
813.247	18.867	1310.808	1221.224
814.261	18.942	1311.008	1221.802
815.276	18.734	1310.117	1219.340
816.291	18.628	1309.537	1217.902
817.305	18.735	1308.523	1217.570
818.320	18.723	1306.465	1215.430
819.334	18.625	1304.999	1213.221
820.349	18.641	1303.382	1211.690
821.364	18.857	1302.225	1211.994
822.378	18.650	1300.931	1209.184
823.393	18.843	1298.814	1208.437
824.407	18.577	1298.772	1206.373
825.422	18.583	1298.823	1206.312
826.437	18.709	1296.860	1205.236
827.451	18.687	1295.053	1203.256
828.466	18.595	1293.915	1201.408
829.480	18.779	1291.942	1200.727
830.495	18.828	1289.623	1198.770
831.509	18.651	1289.595	1197.359
832.524	18.643	1288.606	1196.243
833.539	18.759	1287.404	1195.797
834.553	18.663	1287.085	1194.686
835.568	18.734	1285.969	1194.000
836.582	18.777	1284.540	1192.834
837.597	18.868	1282.882	1191.781
838.612	18.917	1281.393	1190.603
839.626	18.814	1281.025	1189.396
840.641	18.841	1280.903	1189.334
841.655	18.836	1279.811	1188.139
842.670	18.930	1279.113	1188.001
843.685	18.894	1277.237	1185.869
844.699	18.934	1276.191	1185.030
845.714	18.739	1274.933	1182.376
846.728	18.822	1273.616	1181.587
847.743	18.856	1273.091	1181.190
848.758	18.779	1271.452	1178.996
849.772	18.895	1269.926	1178.244
850.787	18.769	1268.539	1175.946
851.801	18.677	1268.125	1174.789
852.816	18.693	1267.209	1173.909
853.831	18.599	1265.182	1171.245
854.845	18.740	1263.144	1170.186
855.860	18.708	1261.776	1168.557
856.874	18.536	1260.687	1166.231
857.889	18.686	1259.678	1166.187
858.904	18.788	1257.745	1164.954
859.918	18.704	1256.856	1163.417
860.933	18.703	1255.762	1162.261
861.947	18.621	1255.584	1161.393
862.962	18.651	1254.223	1160.204
863.977	18.662	1252.944	1158.955
864.991	18.696	1252.024	1158.194
866.006	18.671	1251.920	1157.794
867.020	18.797	1250.723	1157.403
868.035	18.801	1248.780	1155.490
869.049	18.890	1247.596	1154.856
870.064	18.805	1247.163	1153.744
871.079	18.903	1246.755	1153.887
872.093	18.754	1246.643	1152.643
873.108	18.888	1245.341	1152.204
874.122	19.069	1243.611	1151.681
875.137	18.875	1243.957	1150.563
876.152	18.979	1242.884	1150.130
877.166	19.063	1240.619	1148.460
878.181	18.961	1239.618	1146.711
879.195	18.861	1238.681	1145.034
880.210	18.921	1238.319	1144.969
881.225	18.747	1237.704	1143.098
882.239	18.912	1235.710	1142.220
883.254	18.830	1234.910	1140.796
884.268	18.755	1234.510	1139.789
885.283	18.891	1232.900	1139.074
886.298	18.806	1231.237	1136.840
887.312	18.941	1230.416	1136.839
888.327	18.969	1229.450	1136.001
889.341	18.915	1228.236	1134.383
890.356	18.730	1227.878	1132.690
891.371	18.715	1227.312	1131.930
892.385	18.827	1226.540	1131.826
893.400	18.868	1225.663	1131.152
894.414	18.856	1224.323	1129.698
895.429	18.896	1222.259	1127.924
896.444	18.886	1221.274	1126.814
897.458	18.818	1220.140	1125.186
898.473	18.724	1219.822	1124.143
899.487	18.765	1219.038	1123.552
900.502	18.816	1217.460	1122.295
901.517	18.789	1216.174	1120.800
902.531	18.951	1215.341	1120.964
903.546	18.785	1214.683	1119.135
904.560	18.919	1214.060	1119.302
905.575	19.047	1212.984	1119.016
906.589	18.919	1212.370	1117.478
907.604	18.966	1211.336	1116.696
