DTS Sentinel unit serial number:	SN409020Multiplexer serial number:	ORYXHardware model number:	OX4-SRSoftware version number:	ORYX F/W v3.00 Oryx Data Collector v3.7.2.0data status	okinstallation	HaddamTimeLapsedifferential loss correction	single-endedforward channel	channel 3reverse channel	N/Adate	2011/06/22time	08:56:17forward acquisition time	30.00reverse acquisition time	0.00gamma	498.7831k internal	0.1796k external	0.1796temperature offset calibration	1.0074default loss term (dB/km)	0.3790temperature slope calibration	1.3530multiplexer offset coefficient	1.0000multiplexer slope coefficient	1.0000fibre end	0.00T internal ref (°C)	27.31T ext. ref 1 (°C)	24.67T ext. ref 2 (°C)	0.18length (m)	temperature (°C)	Stokes	anti-Stokes-747.200	800.000	0.046	0.230
-746.185	-200.000	-0.081	0.558
-745.171	-97.082	-0.321	-0.108
-744.156	-87.432	0.418	0.163
-743.142	-0.977	0.177	-0.162
-742.127	-70.781	0.167	-0.081
-741.112	-88.855	-0.097	0.037
-740.098	96.401	-0.304	0.450
-739.083	-5.155	-0.259	-0.231
-738.069	-2.416	-0.452	0.410
-737.054	33.928	0.205	0.232
-736.039	-200.000	-0.015	-0.462
-735.025	-47.513	-0.212	0.133
-734.010	-71.155	-0.113	-0.055
-732.996	-128.035	-0.487	-0.090
-731.981	800.000	-0.075	-0.273
-730.966	-14.380	0.171	0.142
-729.952	-48.025	-0.126	0.079
-728.937	-188.864	-0.484	0.007
-727.923	-200.000	0.003	0.176
-726.908	-54.322	0.151	0.088
-725.894	400.042	-0.209	-0.570
-724.879	-99.375	0.255	0.083
-723.864	400.475	-0.095	-0.259
-722.850	-200.000	0.059	-0.584
-721.835	49.223	0.189	-0.230
-720.821	-1.725	0.309	-0.281
-719.806	-170.220	0.106	-0.005
-718.791	-64.010	-0.460	0.242
-717.777	146.722	-0.075	0.130
-716.762	800.000	-0.029	-0.131
-715.748	-200.000	-0.076	-0.519
-714.733	84.990	0.314	-0.446
-713.718	208.182	-0.187	-0.379
-712.704	-53.763	-0.291	-0.171
-711.689	-84.340	-0.270	-0.110
-710.675	-73.036	-0.412	0.195
-709.660	265.951	0.045	-0.102
-708.645	-94.127	-0.112	-0.039
-707.631	-200.000	-0.000	0.489
-706.616	800.000	0.024	0.093
-705.602	-83.951	0.148	0.061
-704.587	-154.818	-0.556	-0.047
-703.572	310.875	-0.094	-0.229
-702.558	8.008	-0.041	-0.040
-701.543	-28.375	-0.287	-0.214
-700.529	800.000	-0.039	-0.168
-699.514	-12.916	-0.318	-0.267
-698.499	529.937	0.039	-0.119
-697.485	-108.303	-0.185	0.051
-696.470	248.807	-0.114	-0.250
-695.456	-169.412	-0.180	-0.008
-694.441	-183.598	-0.384	-0.008
-693.426	8.497	-0.197	-0.192
-692.412	77.687	0.141	0.194
-691.397	143.248	0.026	0.045
-690.383	-60.989	-0.209	-0.114
-689.368	800.000	0.066	-0.365
-688.354	800.000	0.110	0.488
-687.339	279.624	-0.143	0.331
-686.324	647.505	-0.034	0.114
-685.310	-69.560	-0.211	0.104
-684.295	-160.334	0.107	-0.007
-683.281	123.598	-0.143	-0.233
-682.266	-154.533	-0.624	-0.053
-681.251	191.550	-0.175	-0.341
-680.237	246.757	-0.029	0.064
-679.222	800.000	0.090	0.472
-678.208	-89.980	0.073	0.027
-677.193	-136.817	0.244	-0.036
-676.178	-200.000	-0.004	0.083
-675.164	-110.746	-0.122	-0.032
-674.149	-4.313	-0.080	0.072
-673.135	3.412	0.289	-0.271
-672.120	142.765	0.144	-0.248
-671.105	282.032	0.054	-0.125
-670.091	3.590	-0.086	-0.081
-669.076	-44.801	0.402	-0.258
-668.062	-9.705	0.083	0.072
-667.047	110.094	-0.053	-0.082
-666.032	-200.000	-0.007	-0.251
-665.018	-182.634	0.664	0.015
-664.003	105.266	0.194	0.296
-662.989	18.102	-0.461	-0.474
-661.974	-45.971	0.095	0.060
-660.959	-161.730	-0.302	0.020
-659.945	-69.272	-0.339	0.167
-658.930	-68.952	-0.152	-0.075
-657.916	-200.000	-0.046	0.382
-656.901	-103.343	0.299	0.090
-655.886	-159.474	-0.269	-0.019
-654.872	-51.036	0.237	0.143
-653.857	-16.263	-0.275	-0.225
-652.843	-89.972	-0.343	-0.128
-651.828	-200.000	-0.026	-0.327
-650.814	-200.000	0.035	-0.260
-649.799	23.260	-0.274	-0.291
-648.784	-81.768	-0.561	-0.236
-647.770	-69.449	0.446	-0.220
-646.755	-200.000	0.015	0.403
-645.741	800.000	0.084	-0.440
-644.726	-110.973	0.078	-0.020
-643.711	8.929	-0.191	-0.185
-642.697	-68.107	0.482	0.241
-641.682	-200.000	-0.072	-0.519
-640.668	-75.034	-0.324	-0.149
-639.653	297.663	0.243	0.577
-638.638	-200.000	0.020	-0.349
-637.624	-48.691	0.338	-0.209
-636.609	-28.865	-0.219	0.162
-635.595	-142.612	-0.540	0.067
-634.580	-44.278	-0.036	0.023
-633.565	79.256	-0.246	-0.341
-632.551	-155.200	-0.329	0.027
-631.536	800.000	-0.200	-0.724
-630.522	-88.692	0.285	-0.109
-629.507	-77.695	-0.409	0.181
-628.492	82.361	0.227	0.318
-627.478	-119.694	0.101	0.022
-626.463	-109.637	-0.103	0.028
-625.449	-180.917	-0.060	0.002
-624.434	125.907	0.241	-0.392
-623.419	-146.374	-0.167	0.019
-622.405	3.358	-0.182	-0.171
-621.390	108.463	0.140	-0.216
-620.376	70.853	0.133	0.177
-619.361	-161.239	-0.226	-0.015
-618.346	-78.102	0.180	-0.080
-617.332	-131.837	-0.199	0.033
-616.317	160.611	0.055	0.099
-615.303	106.443	0.167	0.256
-614.288	133.950	-0.001	-0.002
-613.273	-22.478	0.207	0.161
-612.259	576.107	-0.158	0.501
-611.244	230.268	0.114	0.240
-610.230	-20.208	0.171	0.135
-609.215	-11.940	0.502	-0.423
-608.201	-200.000	0.020	-0.273
-607.186	20.136	-0.403	0.419
-606.171	-95.427	-0.247	0.085
-605.157	-134.008	-0.166	-0.026
-604.142	-127.274	-0.245	-0.046
-603.128	88.927	-0.323	0.463
-602.113	-200.000	0.015	-0.185
-601.098	-200.000	0.005	-0.306
-600.084	752.857	0.074	0.259
-599.069	348.009	-0.050	-0.128
-598.055	-68.473	-0.411	-0.204
-597.040	-87.909	-0.360	0.139
-596.025	-30.097	0.081	-0.059
-595.011	-3.585	0.406	-0.363
-593.996	-91.210	-0.176	0.065
-592.982	-200.000	0.006	-0.218
-591.967	194.009	-0.202	0.396
-590.952	-35.661	-0.403	-0.281
-589.938	-200.000	-0.007	-0.138
-588.923	-158.038	0.154	-0.011
-587.909	153.987	0.050	-0.089
-586.894	-43.775	-0.335	-0.217
-585.879	-65.523	0.402	-0.207
-584.865	-63.772	0.092	0.048
-583.850	-42.801	-0.193	-0.126
-582.836	-101.094	0.313	0.098
-581.821	193.265	-0.151	-0.295
-580.806	-92.022	0.465	-0.168
-579.792	-57.401	0.437	-0.246
-578.777	-79.574	-0.481	-0.208
-577.763	-84.344	-0.235	-0.095
-576.748	95.622	-0.132	0.194
-575.733	-120.774	-0.065	0.014
-574.719	-104.056	-0.397	-0.118
-573.704	252.602	0.071	-0.156
-572.690	800.000	0.060	-0.301
-571.675	226.682	-0.113	0.237
-570.661	-143.229	-0.153	-0.019
-569.646	-99.941	-0.413	0.132
-568.631	-180.453	0.263	-0.007
-567.617	800.000	0.061	0.323
-566.602	-200.000	0.008	-0.208
-565.588	-83.781	0.093	0.038
-564.573	800.000	0.017	0.092
-563.558	235.304	-0.164	-0.348
-562.544	412.785	-0.118	0.323
-561.529	-106.165	-0.399	0.114
-560.515	-163.826	0.565	0.033
-559.500	-110.778	0.096	-0.025
-558.485	-200.000	0.009	-0.123
-557.471	-124.113	0.180	-0.036
-556.456	-19.507	-0.139	-0.110
-555.442	17.444	0.220	0.225
-554.427	-100.782	-0.227	0.071
-553.412	481.364	-0.191	-0.560
-552.398	-136.369	0.465	-0.069
-551.383	-91.671	-0.221	-0.081
-550.369	-36.011	0.136	0.095
-549.354	-56.814	0.120	-0.068
-548.339	210.904	-0.298	-0.603
-547.325	-7.125	-0.239	0.209
-546.310	-10.669	-0.098	-0.083
-545.296	-6.651	0.337	-0.294
-544.281	-200.000	-0.056	-0.539
-543.266	-200.000	-0.049	0.306
-542.252	-200.000	0.051	0.322
-541.237	25.978	-0.160	0.171
-540.223	-200.000	-0.115	0.791
-539.208	-110.243	0.267	0.071
-538.193	-100.433	-0.594	0.188
-537.179	48.201	0.147	-0.177
-536.164	71.628	-0.116	-0.155
-535.150	-200.000	0.015	0.264
-534.135	59.013	0.109	-0.137
-533.121	84.614	-0.433	0.609
-532.106	36.663	0.404	0.458
-531.091	222.528	-0.107	-0.222
-530.077	-26.522	0.241	0.181
-529.062	322.584	0.098	0.242
-528.048	480.135	0.155	0.453
-527.033	-118.617	0.370	-0.083
-526.018	800.000	0.077	-0.351
-525.004	-49.140	-0.078	0.048
-523.989	-84.435	-0.083	0.033
-522.975	119.919	-0.280	-0.447
-521.960	-68.772	-0.071	-0.035
-520.945	317.927	0.150	-0.365
-519.931	-1.935	0.156	0.141
-518.916	-152.747	0.816	0.073
-517.902	-151.086	-0.406	-0.039
-516.887	129.277	-0.101	-0.165
-515.872	-114.767	0.143	0.035
-514.858	126.265	0.117	0.191
-513.843	676.341	-0.019	-0.064
-512.829	-154.544	-0.321	-0.027
-511.814	622.452	-0.076	0.246
-510.799	-3.846	-0.088	-0.078
-509.785	-68.485	-0.302	-0.150
-508.770	-200.000	-0.053	-0.539
-507.756	130.163	0.168	-0.277
-506.741	800.000	0.062	0.232
-505.726	-200.000	-0.006	-0.198
-504.712	-200.000	-0.021	-0.217
-503.697	-95.174	-0.543	-0.187
-502.683	-64.286	0.136	0.071
-501.668	-5.060	0.092	-0.081
-500.653	350.422	-0.142	-0.362
-499.639	-200.000	-0.012	-0.292
-498.624	198.549	-0.165	0.326
-497.610	-79.632	-0.203	-0.087
-496.595	-144.054	0.321	-0.038
-495.581	107.506	0.191	0.291
-494.566	-77.550	0.228	0.101
-493.551	176.140	-0.148	-0.276
-492.537	127.891	0.223	-0.364
-491.522	-102.306	0.025	0.008
-490.508	-200.000	-0.347	-0.001
-489.493	-200.000	-0.063	-0.493
-488.478	-200.000	-0.031	-0.232
-487.464	-85.572	0.721	0.286
-486.449	-3.102	0.209	0.187
-485.435	-169.201	0.413	0.019
-484.420	-173.472	-0.364	0.014
-483.405	-53.891	-0.439	0.256
-482.391	32.321	0.429	0.475
-481.376	-55.138	0.308	0.177
-480.362	113.907	0.106	0.165
-479.347	-116.405	0.366	-0.086
-478.332	-91.183	0.101	-0.037
-477.318	438.955	0.049	-0.139
-476.303	-82.156	0.381	-0.159
-475.289	552.670	-0.118	-0.365
-474.274	353.059	0.088	0.225
-473.259	-115.516	-0.510	0.122
-472.245	-80.299	0.151	-0.064
-471.230	97.907	-0.180	0.266
-470.216	-30.633	-0.064	-0.046
-469.201	-104.207	0.406	-0.120
-468.186	-156.463	-0.205	-0.016
-467.172	-8.831	0.478	0.410
-466.157	800.000	-0.084	0.415
-465.143	-79.863	-0.765	-0.328
-464.128	-169.250	0.230	-0.011
-463.113	-79.834	-0.200	-0.086
-462.099	227.494	-0.072	0.151
-461.084	42.219	-0.220	-0.257
-460.070	800.000	0.056	-0.200
-459.055	800.000	-0.042	-0.222
-458.040	-191.905	-0.472	-0.006
-457.026	-33.319	-0.304	0.215
-456.011	-130.867	-0.603	0.102
-454.997	-8.681	-0.283	0.242
-453.982	-89.823	-0.099	-0.037
-452.968	-156.044	0.040	0.003
-451.953	-200.000	-0.023	-0.151
-450.938	-200.000	0.031	-0.373
-449.924	41.285	-0.138	0.160
-448.909	-200.000	-0.045	-0.571
-447.895	-71.526	-0.478	0.228
-446.880	-134.338	-0.101	-0.016
-445.865	-124.326	0.375	-0.074
-444.851	353.168	-0.050	-0.129
-443.836	-192.099	-0.425	0.005
-442.822	86.875	0.120	0.170
-441.807	288.845	-0.127	-0.296
-440.792	235.653	0.091	-0.192
-439.778	44.812	0.169	-0.199
-438.763	68.196	-0.495	-0.649
-437.749	-86.249	-0.446	0.175
-436.734	-122.655	0.323	0.066
-435.719	22.341	-0.230	-0.240
-434.705	-167.393	-0.225	0.011
-433.690	-92.274	0.730	-0.262
-432.676	-36.698	-0.296	0.203
-431.661	680.532	-0.100	0.335
-430.646	-50.421	0.211	-0.127
-429.632	-43.792	-0.355	0.228
-428.617	254.790	0.185	0.406
-427.603	625.821	-0.033	0.108
-426.588	-174.692	-0.288	0.010
-425.573	-124.571	0.151	-0.030
-424.559	-147.352	0.109	0.012
-423.544	-142.611	-0.149	0.018
-422.530	281.183	-0.198	0.455
-421.515	-151.180	-0.506	0.048
-420.500	-26.499	0.318	0.238
-419.486	-116.215	0.563	-0.133
-418.471	33.581	-0.109	0.121
-417.457	60.361	-0.130	0.165
-416.442	-111.182	-0.504	0.131
-415.428	257.272	0.243	0.536
-414.413	-46.830	0.374	0.233
-413.398	17.238	-0.145	-0.147
-412.384	-169.126	-0.257	-0.012
-411.369	-94.033	0.540	-0.188
-410.355	-32.156	0.150	0.107
-409.340	176.972	0.083	0.155
-408.325	-0.396	0.237	-0.215
-407.311	-93.555	0.583	-0.205
-406.296	-168.890	0.222	-0.011
-405.282	-52.577	0.105	-0.062
-404.267	40.452	0.195	0.225
-403.252	-109.681	0.407	-0.109
-402.238	-138.919	0.229	-0.031
-401.223	-85.742	0.363	-0.143
-400.209	437.553	0.126	-0.351
-399.194	-92.060	-0.300	-0.108
-398.179	145.575	-0.183	0.313
-397.165	800.000	0.108	-0.593
-396.150	-200.000	-0.021	-0.361
-395.136	-151.450	-0.039	-0.004
-394.121	190.875	0.261	-0.502
-393.106	-58.118	0.115	0.064
-392.092	664.950	-0.052	-0.171
-391.077	-47.797	-0.189	-0.116
-390.063	-46.779	0.428	0.267
-389.048	-200.000	-0.018	-0.308
-388.033	-70.841	-0.634	-0.304
-387.019	-39.109	-0.237	0.159
-386.004	-196.577	-0.398	0.003
-384.990	260.315	0.308	0.683
-383.975	-113.481	0.511	0.127
-382.960	-148.673	0.289	0.030
-381.946	-200.000	0.052	-0.375
-380.931	-148.208	0.198	-0.021
-379.917	0.362	0.201	-0.183
-378.902	800.000	0.118	-0.549
-377.888	449.327	-0.087	-0.246
-376.873	-200.000	-0.027	-0.314
-375.858	90.568	-0.327	-0.469
-374.844	-33.298	-0.239	0.168
-373.829	-200.000	0.006	0.263
-372.815	-130.187	0.217	0.037
-371.800	-107.407	0.191	0.053
-370.785	52.736	-0.249	-0.304
-369.771	179.689	-0.061	0.115
-368.756	507.372	0.018	0.055
-367.742	-30.849	0.339	0.244
-366.727	106.595	-0.183	-0.277
-365.712	-52.397	-0.268	0.158
-364.698	-128.489	-0.282	-0.051
-363.683	800.000	0.050	0.205
-362.669	800.000	0.049	-0.233
-361.654	53.966	0.148	0.181
-360.639	126.192	0.086	0.139
-359.625	225.615	-0.038	0.080
-358.610	-66.143	0.516	-0.262
-357.596	-58.961	-0.285	0.157
-356.581	59.035	-0.219	0.275
-355.566	-200.000	-0.014	-0.229
-354.552	207.312	-0.059	-0.117
-353.537	18.186	0.391	0.398
-352.523	-200.000	-0.031	0.192
-351.508	-183.805	0.413	0.009
-350.493	416.700	0.181	0.495
-349.479	24.277	-0.463	0.487
-348.464	45.840	-0.174	0.206
-347.450	231.207	-0.171	0.358
-346.435	-4.439	0.071	-0.062
-345.420	-27.849	-0.257	0.190
-344.406	-127.102	0.436	-0.081
-343.391	-82.958	0.139	0.057
-342.377	-142.627	-0.767	0.095
-341.362	-200.000	-0.013	0.189
-340.348	198.914	-0.132	-0.258
-339.333	95.838	0.174	-0.254
-338.318	41.713	-0.384	0.444
-337.304	-200.000	0.012	-0.089
-336.289	-177.910	-0.374	0.011
-335.275	-165.856	-0.204	-0.011
-334.260	-22.181	-0.083	0.064
-333.245	-90.062	-0.326	-0.120
-332.231	-12.094	0.433	0.361
-331.216	39.274	-0.076	-0.087
-330.202	-36.818	-0.287	-0.196
-329.187	800.000	0.147	-0.625
-328.172	210.921	-0.099	-0.198
-327.158	688.042	-0.103	-0.344
-326.143	800.000	0.064	-0.252
-325.129	-142.419	-0.140	0.017
-324.114	-132.212	0.217	0.035
-323.099	-13.778	0.263	-0.216
-322.085	40.308	-0.206	0.236
-321.070	-42.116	0.249	-0.162
-320.056	-200.000	-0.044	0.260
-319.041	648.823	-0.107	-0.350
-318.026	-200.000	-0.094	0.686
-317.012	493.289	-0.185	0.542
-315.997	179.697	0.240	0.448
-314.983	800.000	0.026	0.145
-313.968	-63.676	0.117	-0.061
-312.953	115.379	-0.130	-0.202
-311.939	-20.280	0.125	0.098
-310.924	-200.000	-0.019	0.418
-309.910	-141.092	0.233	-0.030
-308.895	-122.318	0.481	0.099
-307.880	-135.893	-0.100	0.015
-306.866	120.630	-0.097	0.153
-305.851	-36.442	0.343	-0.235
-304.837	679.028	-0.142	0.472
-303.822	547.826	-0.258	-0.792
-302.807	253.980	0.119	0.259
-301.793	17.481	-0.185	0.187
-300.778	753.883	-0.035	-0.123
-299.764	111.428	-0.247	-0.379
-298.749	-73.526	-0.545	-0.252
-297.735	-158.209	-0.198	-0.014
-296.720	176.369	0.211	-0.391
-295.705	131.280	-0.073	0.119
-294.691	180.573	0.307	0.574
-293.676	-71.282	0.372	0.177
-292.662	-200.000	-0.032	-0.231
-291.647	323.752	0.099	0.242
-290.632	482.803	0.077	0.225
-289.618	743.062	0.140	0.482
-288.603	-68.157	0.467	0.230
-287.589	-152.577	-0.198	-0.018
-286.574	208.950	0.298	0.595
-285.559	-117.880	0.228	0.052
-284.545	-156.578	0.176	0.014
-283.530	470.866	-0.163	0.470
-282.516	38.235	0.076	-0.086
-281.501	-200.000	-0.677	-0.003
-280.486	-198.352	0.433	-0.003
-279.472	12.315	0.199	0.195
-278.457	330.120	-0.116	0.285
-277.443	400.531	-0.143	0.382
-276.428	-95.146	-0.352	-0.120
-275.413	-14.371	-0.141	0.115
-274.399	-67.955	-0.399	0.197
-273.384	183.242	-0.258	-0.485
-272.370	32.778	-0.242	-0.266
-271.355	-200.000	0.289	-0.001
-270.340	144.063	-0.239	-0.406
-269.326	-200.000	0.032	0.254
-268.311	486.708	-0.216	0.628
-267.297	800.000	-0.024	-0.102
-266.282	488.308	-0.120	0.350
-265.267	-155.002	-0.456	0.038
-264.253	97.929	0.076	-0.111
-263.238	391.983	0.150	-0.399
-262.224	342.688	-0.094	-0.236
-261.209	-200.000	0.026	0.260
-260.195	46.156	0.268	0.316
-259.180	17.392	-0.099	0.100
-258.165	-200.000	-0.203	0.000
-257.151	-21.062	0.148	0.115
-256.136	-200.000	-0.036	-0.467
-255.122	-22.885	0.280	0.214
-254.107	240.763	0.300	-0.638
-253.092	-89.997	0.229	-0.084
-252.078	148.907	-0.071	0.122
-251.063	15.310	0.334	0.332
-250.049	-200.000	-0.035	0.275
-249.034	-106.062	0.150	-0.043
-248.019	-196.451	0.250	-0.002
-247.005	-40.555	0.132	0.087
-245.990	-8.411	0.170	0.145
-244.976	-58.766	0.192	0.105
-243.961	-73.521	-0.334	-0.154
-242.946	-76.984	0.330	0.146
-241.932	12.344	0.247	0.242
-240.917	-103.188	-0.131	-0.039
-239.903	-59.691	0.351	0.190
-238.888	800.000	-0.170	0.696
-237.873	181.452	0.131	-0.245
-236.859	-200.000	0.028	0.344
-235.844	-110.118	0.240	-0.063
-234.830	-80.156	0.125	-0.053
-233.815	55.188	-0.179	-0.220
-232.800	-21.499	0.080	-0.062
-231.786	-200.000	0.046	0.359
-230.771	22.837	-0.183	-0.190
-229.757	-79.616	-0.231	0.098
-228.742	-157.416	0.203	0.015
-227.727	5.841	0.117	-0.109
-226.713	104.529	-0.063	-0.095
-225.698	154.805	0.094	-0.165
-224.684	462.854	-0.103	-0.293
-223.669	25.147	0.199	-0.209
-222.655	149.295	0.143	-0.246
-221.640	53.383	-0.164	-0.200
-220.625	800.000	0.036	-0.142
-219.611	185.153	-0.175	0.330
-218.596	-41.137	-0.290	0.189
-217.582	-200.000	-0.005	-0.452
-216.567	-200.000	0.096	-0.609
-215.552	800.000	-0.098	0.356
-214.538	23.762	0.051	0.053
-213.523	-22.547	-0.084	0.064
-212.509	800.000	0.031	-0.130
-211.494	-119.318	0.498	0.109
-210.479	-200.000	0.367	0.002
-209.465	-200.000	0.027	0.287
-208.450	94.508	-0.245	-0.353
-207.436	217.650	-0.280	-0.568
-206.421	11.656	-0.058	0.057
-205.406	69.160	0.024	0.031
-204.392	-200.000	0.028	-0.266
-203.377	281.727	0.292	0.666
-202.363	-99.922	0.325	-0.102
-201.348	110.828	-0.396	0.606
-200.333	-62.244	-0.411	-0.216
-199.319	-60.559	-0.198	0.106
-198.304	-200.000	0.091	-0.554
-197.290	-200.000	-0.013	-0.115
-196.275	93.802	-0.299	-0.431
-195.260	-200.000	0.055	-0.382
-194.246	-105.692	0.151	0.043
-193.231	286.055	0.306	-0.701
-192.217	100.928	-0.270	-0.398
-191.202	-157.938	0.366	-0.027
-190.187	-17.637	0.448	-0.356
-189.173	800.000	0.052	0.286
-188.158	48.917	0.171	-0.204
-187.144	-200.000	-0.018	-0.515
-186.129	-98.078	0.361	-0.117
-185.114	242.123	-0.100	-0.212
-184.100	-45.242	0.243	0.152
-183.085	-60.546	-0.288	0.155
-182.071	53.501	-0.132	0.161
-181.056	-54.099	0.196	-0.113
-180.042	-51.270	0.426	-0.252
-179.027	-85.823	0.577	0.225
-178.012	-200.000	-0.046	0.335
-176.998	-84.015	0.467	0.187
-175.983	-200.000	0.001	0.114
-174.969	33.232	0.081	-0.089
-173.954	-200.000	-0.018	0.338
-172.939	-52.451	0.752	0.439
-171.925	56.083	0.210	0.258
-170.910	17.894	0.498	0.502
-169.896	800.000	0.055	-0.244
-168.881	-200.000	0.001	0.447
-167.866	-42.992	-0.267	-0.171
-166.852	363.649	0.132	0.338
-165.837	101.174	-0.424	0.625
-164.823	-14.081	0.360	0.293
-163.808	-101.158	-0.141	-0.043
-162.793	-120.684	-0.653	0.139
-161.779	-200.000	-0.010	0.148
-160.764	185.433	-0.232	-0.438
-159.750	-118.819	-0.255	-0.056
-158.735	-160.785	-0.436	-0.029
-157.720	800.000	0.045	-0.192
-156.706	147.064	-0.235	0.401
-155.691	41.184	0.273	0.312
-154.677	1.407	0.232	0.211
-153.662	76.920	-0.051	0.069
-152.647	800.000	-0.105	0.382
-151.633	-70.446	-0.243	-0.116
-150.618	-106.870	-0.636	-0.177
-149.604	-49.609	0.471	0.283
-148.589	152.316	0.181	-0.313
-147.574	-18.757	0.266	-0.209
-146.560	-33.994	0.235	0.163
-145.545	-200.000	-0.036	0.352
-144.531	-58.960	-0.551	0.300
-143.516	-200.000	0.059	0.581
-142.502	-29.744	-0.064	-0.046
-141.487	71.947	-0.291	-0.383
-140.472	-119.538	0.495	-0.108
-139.458	299.865	-0.181	-0.423
-138.443	224.509	-0.154	-0.315
-137.429	240.819	0.279	-0.590
-136.414	-108.428	0.431	-0.117
-135.399	80.888	-0.239	-0.326
-134.385	48.215	-0.193	0.228
-133.370	-108.088	-0.355	0.097
-132.356	800.000	-0.095	0.501
-131.341	-200.000	-0.058	-0.452
-130.326	800.000	-0.133	0.524
-129.312	-22.980	-0.102	-0.078
-128.297	303.058	-0.255	-0.599
-127.283	-200.000	-0.021	0.367
-126.268	-200.000	-0.013	-0.080
-125.253	-58.347	0.193	0.106
-124.239	184.429	0.059	0.111
-123.224	-200.000	0.002	-0.226
-122.210	433.001	-0.096	-0.265
-121.195	-91.243	-0.629	0.226
-120.180	9.659	-0.245	-0.235
-119.166	-67.776	-0.497	-0.245
-118.151	282.789	0.167	0.380
-117.137	188.566	-0.114	0.217
-116.122	-200.000	-0.074	-0.535
-115.107	-21.098	0.276	0.213
-114.093	-106.869	-0.348	0.097
-113.078	-89.002	0.140	0.052
-112.064	-200.000	-0.029	0.425
-111.049	-8.870	-0.162	-0.137
-110.034	8.363	-0.075	0.072
-109.020	-147.111	0.100	-0.011
-108.005	29.324	-0.052	-0.056
-106.991	29.154	-0.101	0.109
-105.976	-62.792	-0.311	0.162
-104.962	800.000	-0.024	-0.092
-103.947	313.341	-0.063	0.149
-102.932	-129.775	-0.485	-0.084
-101.918	669.833	0.090	0.295
-100.903	-200.000	-0.000	0.295
-99.889	-102.499	0.353	0.106
-98.874	-200.000	0.019	0.265
-97.859	-38.456	-0.270	0.180
-96.845	-200.000	-0.003	0.134
-95.830	-96.549	0.346	-0.115
-94.816	-10.220	0.154	-0.129
-93.801	-111.816	-0.368	-0.093
-92.786	62.056	0.169	-0.213
-91.772	-200.000	0.005	0.362
-90.757	800.000	0.135	0.726
-89.743	192.517	-0.200	-0.383
-88.728	-36.605	-0.370	-0.251
-87.713	-200.000	0.004	-0.250
-86.699	-95.081	0.382	-0.129
-85.684	-9.704	-0.198	0.166
-84.670	119.665	-0.124	0.194
-83.655	291.429	0.051	0.119
-82.640	-160.978	0.101	0.007
-81.626	295.252	-0.086	-0.200
-80.611	-62.201	-0.377	0.197
-79.597	494.583	0.165	-0.480
-78.582	-200.000	0.035	0.347
-77.567	-200.000	0.045	0.279
-76.553	-59.003	0.128	-0.070
-75.538	178.702	-0.144	-0.266
-74.524	-200.000	-0.002	0.187
-73.509	-27.578	0.262	0.192
-72.494	-64.308	-0.407	0.208
-71.480	75.427	-0.129	-0.172
-70.465	0.058	-0.174	0.156
-69.451	-133.434	-0.082	0.013
-68.436	-78.713	-0.265	0.113
-67.422	-159.897	0.112	0.008
-66.407	-200.000	0.214	-0.000
-65.392	-93.388	-0.351	-0.122
-64.378	-200.000	0.041	0.304
-63.363	-200.000	0.021	0.592
-62.349	139.245	-0.198	0.330
-61.334	33.883	-1.658	-1.820
-60.319	26.409	0.928	0.978
-59.305	271.127	-3.095	-6.896
-58.290	49.156	3.449	4.088
-57.276	378.204	4.183	10.835
-56.261	-200.000	17.300	269.558
-55.246	426.873	1217.086	3324.521
-54.232	60.937	2817.466	3526.181
-53.217	71.022	2695.294	3523.980
-52.203	47.851	2431.308	2862.975
-51.188	37.133	2091.479	2334.021
-50.173	29.619	1972.736	2115.329
-49.159	28.236	1961.548	2087.399
-48.144	27.986	1956.542	2079.133
-47.130	27.621	1955.420	2073.686
-46.115	27.654	1954.114	2072.600
-45.100	27.541	1951.929	2068.906
-44.086	27.684	1950.287	2068.711
-43.071	27.555	1949.569	2066.407
-42.057	27.525	1948.115	2064.432
-41.042	27.534	1946.351	2062.591
-40.027	27.568	1944.864	2061.319
-39.013	27.448	1943.491	2058.412
-37.998	27.372	1942.367	2056.283
-36.984	27.503	1941.240	2056.498
-35.969	27.386	1940.578	2054.388
-34.954	27.434	1938.157	2052.288
-33.940	27.356	1937.593	2050.725
-32.925	27.433	1935.521	2049.321
-31.911	27.382	1934.340	2047.414
-30.896	27.400	1932.989	2046.099
-29.881	27.548	1931.441	2046.052
-28.867	27.471	1929.819	2043.383
-27.852	27.370	1928.955	2041.254
-26.838	27.314	1928.083	2039.616
-25.823	27.350	1925.511	2037.214
-24.809	27.400	1925.099	2037.262
-23.794	27.243	1925.035	2035.345
-22.779	27.416	1921.788	2033.778
-21.765	27.279	1920.977	2031.298
-20.750	27.180	1920.040	2029.118
-19.736	27.292	1918.858	2029.047
-18.721	27.263	1918.057	2027.790
-17.706	27.273	1916.659	2026.347
-16.692	27.311	1915.079	2025.019
-15.677	27.286	1913.868	2023.385
-14.663	27.220	1912.600	2021.220
-13.648	27.284	1910.960	2020.124
-12.633	27.250	1909.816	2018.452
-11.619	27.283	1908.727	2017.586
-10.604	27.162	1907.154	2014.497
-9.590	27.205	1906.106	2013.794
-8.575	27.229	1905.079	2012.889
-7.560	27.220	1904.042	2011.618
-6.546	27.185	1903.141	2010.198
-5.531	27.088	1901.793	2007.613
-4.517	27.159	1899.944	2006.377
-3.502	27.229	1899.515	2006.613
-2.487	27.229	1898.490	2005.456
-1.473	27.309	1895.366	2002.962
-0.458	27.560	1877.352	1986.596
0.556	24.613	2022.985	2093.538
1.571	23.860	2236.678	2304.600
2.586	25.253	2279.547	2366.972
3.600	25.188	2283.310	2369.729
4.615	25.381	2282.381	2371.047
5.629	25.364	2280.551	2368.632
6.644	25.360	2278.226	2365.878
7.659	25.455	2276.101	2364.653
8.673	25.511	2274.769	2363.718
9.688	25.095	2281.149	2364.552
10.702	22.992	2357.850	2414.914
11.717	20.838	2422.700	2450.611
12.731	10.586	2395.672	2278.913
13.746	1.678	2371.107	2130.354
14.761	0.419	2367.249	2108.942
15.775	0.342	2365.354	2105.924
16.790	0.206	2363.767	2102.354
17.804	0.276	2362.016	2101.520
18.819	0.220	2361.107	2099.676
19.834	0.131	2358.914	2096.232
20.848	0.300	2357.259	2096.871
21.863	0.186	2355.871	2093.791
22.877	0.212	2354.498	2092.688
23.892	0.148	2352.233	2089.534
24.907	0.198	2349.471	2087.531
25.921	0.274	2346.659	2085.833
26.936	0.227	2345.480	2083.888
27.950	0.272	2342.471	2081.586
28.965	0.177	2340.527	2078.294
29.980	0.268	2339.517	2078.411
30.994	0.283	2338.030	2077.039
32.009	5.305	2354.252	2161.147
33.023	18.510	2394.583	2383.581
34.038	25.113	2408.571	2489.712
35.053	26.165	2409.304	2504.861
36.067	26.102	2405.728	2499.956
37.082	25.418	2401.706	2485.979
38.096	25.154	2400.358	2480.614
39.111	25.363	2398.240	2481.026
40.126	26.259	2399.474	2494.443
41.140	27.305	2399.860	2509.062
42.155	26.787	2395.964	2497.521
43.169	26.459	2394.007	2490.636
44.184	26.943	2392.060	2495.007
45.199	26.662	2389.276	2487.922
46.213	26.174	2387.151	2478.686
47.228	26.221	2386.143	2477.990
48.242	26.202	2384.435	2475.649
49.257	26.437	2382.503	2476.580
50.271	26.644	2379.962	2476.496
51.286	26.617	2378.245	2474.039
52.301	26.448	2376.552	2469.666
53.315	25.623	2372.946	2454.314
54.330	24.028	2365.726	2424.728
55.344	23.245	2360.192	2408.061
56.359	23.104	2356.701	2402.292
57.374	22.887	2354.695	2397.002
58.388	22.930	2351.967	2394.523
59.403	23.067	2350.313	2394.411
60.417	23.466	2348.770	2397.976
61.432	23.751	2346.764	2399.516
62.447	23.685	2344.698	2396.225
63.461	23.440	2342.674	2390.549
64.476	23.550	2340.943	2389.987
65.490	23.863	2340.883	2393.876
66.505	24.506	2341.437	2402.849
67.520	25.322	2344.024	2416.266
68.534	25.820	2343.149	2421.805
69.549	26.320	2342.321	2427.409
70.563	26.843	2340.011	2431.780
71.578	26.772	2339.029	2429.513
72.593	26.683	2335.715	2424.578
73.607	26.729	2334.830	2423.994
74.622	26.856	2333.517	2424.045
75.636	26.575	2329.882	2416.205
76.651	26.485	2328.316	2413.091
77.666	26.748	2326.192	2414.125
78.680	26.896	2324.520	2414.077
79.695	27.079	2322.941	2414.597
80.709	27.376	2322.664	2417.984
81.724	27.429	2321.528	2417.219
82.739	27.272	2317.252	2410.387
83.753	26.971	2314.598	2403.323
84.768	26.889	2312.591	2399.862
85.782	26.688	2311.705	2395.987
86.797	26.615	2309.759	2392.713
87.812	26.492	2306.334	2387.248
88.826	26.336	2304.863	2383.377
89.841	26.526	2303.328	2384.024
90.855	26.907	2301.519	2386.902
91.870	26.599	2298.950	2379.875
92.884	26.446	2296.490	2375.032
93.899	26.459	2295.949	2374.361
94.914	25.998	2293.716	2365.693
95.928	24.653	2290.254	2344.118
96.943	24.253	2285.558	2333.761
97.957	25.230	2286.712	2347.523
98.972	26.087	2286.608	2358.399
99.987	25.918	2283.642	2352.836
101.001	26.003	2281.524	2351.484
102.016	26.311	2279.207	2352.844
103.030	26.254	2278.192	2350.777
104.045	26.629	2275.942	2353.069
105.060	26.880	2274.803	2354.881
106.074	26.802	2272.609	2351.322
107.089	26.494	2270.038	2344.362
108.103	26.665	2270.367	2346.653
109.118	26.802	2268.647	2346.369
110.133	26.904	2266.810	2345.522
111.147	27.144	2265.236	2346.723
112.162	27.157	2264.150	2345.495
113.176	26.724	2261.021	2336.357
114.191	26.689	2258.932	2333.460
115.206	26.767	2257.709	2332.928
116.220	26.805	2255.206	2330.553
117.235	26.648	2251.559	2324.484
118.249	26.560	2250.171	2321.638
119.264	26.801	2249.290	2323.559
120.279	27.085	2248.042	2325.640
121.293	27.022	2246.004	2322.448
122.308	27.008	2245.171	2321.131
123.322	26.785	2244.945	2317.757
124.337	26.304	2240.291	2306.502
125.352	25.027	2235.680	2285.120
126.366	24.657	2234.433	2278.823
127.381	25.876	2234.368	2294.095
128.395	26.311	2233.627	2298.626
129.410	26.676	2232.773	2302.135
130.424	26.914	2231.792	2303.888
131.439	26.768	2228.296	2298.144
132.454	26.596	2225.858	2293.158
133.468	26.697	2224.279	2292.550
134.483	26.582	2222.268	2288.740
135.497	26.347	2219.770	2282.911
136.512	26.426	2218.156	2281.972
137.527	26.501	2216.332	2280.779
138.541	26.515	2215.977	2280.320
139.556	26.189	2214.483	2274.376
140.570	26.341	2212.405	2273.895
141.585	26.454	2211.254	2273.866
142.600	26.530	2210.629	2273.908
143.614	26.439	2209.122	2270.946
144.629	26.730	2206.658	2271.806
145.643	26.450	2203.905	2265.180
146.658	26.231	2202.457	2260.663
147.673	26.248	2200.862	2258.968
148.687	26.499	2200.935	2261.932
149.702	26.499	2197.822	2258.461
150.716	26.260	2195.917	2253.228
151.731	26.535	2195.817	2256.311
152.746	26.764	2195.624	2258.704
153.760	26.094	2191.880	2246.202
154.775	24.508	2185.834	2219.943
155.789	23.346	2183.225	2202.512
156.804	24.460	2182.794	2215.720
157.819	25.709	2183.821	2232.078
158.833	26.201	2181.618	2235.675
159.848	26.574	2179.810	2238.200
160.862	26.730	2180.491	2240.562
161.877	26.910	2178.459	2240.448
162.892	26.761	2177.547	2237.396
163.906	26.786	2176.116	2235.957
164.921	26.793	2173.725	2233.329
165.935	26.916	2171.383	2232.167
166.950	26.719	2169.943	2227.985
167.964	26.495	2166.617	2221.544
168.979	26.460	2164.195	2218.369
169.994	26.742	2164.540	2221.929
171.008	26.781	2163.143	2220.704
172.023	26.716	2160.917	2217.361
173.037	26.808	2159.510	2216.784
174.052	26.670	2157.330	2212.578
175.067	26.368	2156.027	2207.276
176.081	26.537	2155.728	2208.784
177.096	26.643	2154.574	2208.630
178.110	26.514	2151.580	2203.719
179.125	26.394	2150.566	2200.942
180.140	26.718	2149.741	2203.800
181.154	26.812	2147.636	2202.524
182.169	26.531	2146.376	2197.543
183.183	25.777	2143.427	2185.065
184.198	24.132	2137.577	2158.821
185.213	23.783	2136.311	2153.034
186.227	25.766	2139.907	2180.564
187.242	26.687	2139.495	2191.083
188.256	26.658	2138.349	2189.291
189.271	27.210	2137.377	2194.737
190.286	27.320	2135.615	2194.004
191.300	26.750	2132.852	2183.999
192.315	26.504	2130.923	2178.782
193.329	26.691	2129.453	2179.279
194.344	26.971	2128.212	2181.129
195.359	26.937	2127.437	2179.662
196.373	27.255	2124.669	2180.405
197.388	27.156	2122.462	2176.681
198.402	26.737	2120.834	2169.708
199.417	26.626	2117.544	2164.755
200.432	26.689	2115.063	2162.720
201.446	26.825	2114.935	2163.950
202.461	26.789	2114.162	2162.474
203.475	26.388	2111.966	2155.167
204.490	26.566	2109.321	2154.336
205.504	26.451	2106.899	2150.231
206.519	26.157	2104.451	2143.973
207.534	26.094	2102.182	2140.655
208.548	26.239	2100.890	2140.805
209.563	25.998	2099.864	2136.633
210.577	25.837	2098.613	2133.195
211.592	26.190	2097.117	2135.616
212.607	25.396	2093.629	2122.371
213.621	23.437	2088.633	2093.821
214.636	23.527	2088.060	2094.069
215.650	25.233	2090.109	2116.111
216.665	25.937	2090.692	2124.794
217.680	26.337	2089.854	2128.425
218.694	26.574	2088.743	2129.841
219.709	26.488	2086.290	2126.070
220.723	26.470	2084.947	2124.233
221.738	26.602	2083.153	2123.713
222.753	26.545	2080.849	2120.430
223.767	26.695	2079.594	2120.668
224.782	26.387	2076.652	2113.799
225.796	26.231	2075.944	2110.992
226.811	26.539	2075.170	2113.569
227.826	26.838	2074.508	2116.150
228.840	27.132	2073.715	2118.531
229.855	26.993	2071.705	2114.594
230.869	26.881	2069.809	2111.093
231.884	26.701	2068.777	2107.683
232.899	26.465	2066.131	2101.985
233.913	26.354	2065.447	2099.742
234.928	26.590	2064.355	2101.125
235.942	26.868	2062.538	2102.273
236.957	26.970	2061.398	2102.042
237.972	26.926	2059.594	2099.440
238.986	27.072	2059.474	2100.762
240.001	27.027	2058.544	2099.044
241.015	26.680	2055.443	2091.597
242.030	26.500	2052.809	2086.580
243.045	24.904	2047.348	2062.319
244.059	24.300	2047.190	2054.924
245.074	26.153	2048.048	2076.981
246.088	26.736	2046.061	2081.457
247.103	26.508	2044.062	2076.546
248.117	26.721	2044.761	2079.458
249.132	27.080	2043.086	2081.637
250.147	26.918	2040.033	2076.419
251.161	26.392	2037.993	2068.049
252.176	26.250	2036.338	2064.491
253.190	25.991	2031.478	2056.347
254.205	24.592	2026.975	2035.536
255.220	24.425	2024.773	2031.173
256.234	24.725	2025.008	2034.593
257.249	24.846	2023.721	2034.437
258.263	24.700	2022.743	2031.543
259.278	24.343	2019.813	2024.288
260.293	24.272	2018.708	2022.133
261.307	25.247	2019.967	2034.262
262.322	26.225	2020.713	2045.909
263.336	26.193	2017.454	2042.004
264.351	26.065	2016.735	2039.576
265.366	26.120	2016.121	2039.342
266.380	26.262	2015.442	2040.018
267.395	26.061	2012.827	2034.844
268.409	26.024	2010.872	2032.207
269.424	26.251	2010.991	2034.653
270.439	26.379	2010.363	2035.225
271.453	25.877	2006.087	2024.991
272.468	24.028	2000.069	1997.831
273.482	23.899	1998.224	1994.295
274.497	25.221	1999.840	2010.571
275.512	26.063	1999.608	2019.573
276.526	26.282	1998.227	2020.394
277.541	26.460	1995.950	2019.848
278.555	26.246	1995.105	2016.350
279.570	25.956	1991.974	2009.701
280.585	25.804	1989.633	2005.392
281.599	26.155	1990.001	2009.455
282.614	26.050	1987.607	2005.628
283.628	24.928	1982.955	1988.179
284.643	24.457	1981.114	1980.841
285.657	24.688	1980.091	1982.156
286.672	24.476	1978.359	1977.824
287.687	24.253	1975.773	1972.520
288.701	24.262	1974.758	1971.368
289.716	24.149	1972.747	1967.871
290.730	23.956	1971.195	1963.945
291.745	24.124	1970.658	1965.038
292.760	24.123	1969.913	1964.049
293.774	24.664	1970.924	1970.815
294.789	25.740	1971.824	1983.405
295.803	26.191	1970.974	1987.305
296.818	26.601	1970.383	1991.003
297.833	26.944	1969.025	1993.185
298.847	26.924	1968.521	1992.214
299.862	27.010	1966.892	1991.271
300.876	26.534	1963.001	1981.860
301.891	24.782	1956.567	1955.887
302.906	24.286	1958.023	1951.658
303.920	26.389	1960.275	1976.805
304.935	26.999	1958.399	1981.369
305.949	26.796	1956.131	1976.607
306.964	26.790	1955.289	1975.457
307.979	26.466	1951.965	1968.318
308.993	25.543	1948.086	1954.095
310.008	24.939	1944.777	1943.955
311.022	24.559	1942.871	1937.673
312.037	24.760	1941.627	1938.393
313.052	24.279	1939.071	1930.368
314.066	23.814	1935.954	1921.986
315.081	23.696	1934.440	1918.968
316.095	23.505	1933.847	1916.073
317.110	23.605	1932.913	1916.006
318.125	23.847	1931.165	1916.665
319.139	24.014	1930.408	1917.501
320.154	24.491	1928.689	1920.721
321.168	24.430	1928.438	1919.580
322.183	25.246	1929.703	1929.432
323.197	25.918	1929.731	1936.491
324.212	26.126	1927.263	1936.021
325.227	26.060	1926.542	1934.353
326.241	26.378	1925.487	1936.491
327.256	26.673	1923.864	1937.797
328.270	26.475	1923.385	1934.951
329.285	26.283	1922.486	1931.756
330.300	25.854	1920.226	1924.653
331.314	24.111	1914.747	1900.253
332.329	23.683	1913.914	1894.605
333.343	25.497	1915.801	1915.704
334.358	26.638	1915.068	1926.952
335.373	26.640	1914.027	1925.694
336.387	26.627	1912.100	1923.384
337.402	26.669	1911.120	1922.614
338.416	26.573	1908.648	1918.879
339.431	26.669	1906.984	1917.996
340.446	26.849	1905.044	1917.728
341.460	25.802	1901.208	1902.523
342.475	24.415	1896.954	1883.335
343.489	23.859	1894.150	1874.433
344.504	23.824	1893.357	1873.058
345.519	24.087	1891.280	1873.566
346.533	23.852	1889.873	1869.463
347.548	23.480	1888.433	1863.884
348.562	23.657	1887.148	1864.257
349.577	23.985	1885.630	1865.991
350.592	24.255	1886.056	1869.041
351.606	24.460	1884.753	1869.686
352.621	24.487	1883.117	1868.123
353.635	24.953	1883.471	1873.149
354.650	25.384	1882.716	1876.704
355.665	26.002	1882.086	1882.338
356.679	26.603	1882.913	1889.235
357.694	26.913	1882.281	1891.632
358.708	26.894	1881.784	1890.702
359.723	26.274	1877.977	1880.167
360.738	24.509	1872.478	1856.012
361.752	24.503	1872.926	1856.172
362.767	26.067	1874.324	1873.681
363.781	26.625	1872.748	1877.694
364.796	26.686	1871.827	1877.178
365.810	26.582	1871.017	1875.066
366.825	26.528	1870.204	1873.458
367.840	26.643	1868.876	1873.100
368.854	26.523	1867.114	1869.866
369.869	25.602	1862.675	1855.648
370.883	24.425	1858.185	1838.774
371.898	23.777	1855.936	1829.621
372.913	23.651	1854.203	1826.389
373.927	23.747	1852.534	1825.526
374.942	23.677	1850.974	1823.046
375.956	23.453	1848.926	1818.495
376.971	23.370	1845.815	1814.364
377.986	23.118	1843.928	1809.703
379.000	23.547	1844.911	1814.860
380.015	25.097	1846.865	1832.512
381.029	26.349	1847.288	1845.570
382.044	26.521	1846.281	1846.105
383.059	26.496	1844.732	1844.075
384.073	26.272	1844.159	1840.995
385.088	26.079	1841.677	1836.316
386.102	25.698	1839.855	1830.384
387.117	25.659	1837.452	1827.376
388.132	25.738	1837.814	1828.324
389.146	25.422	1837.319	1824.391
390.161	24.005	1832.596	1805.048
391.175	23.890	1830.065	1801.164
392.190	25.269	1829.491	1814.415
393.205	25.580	1828.871	1816.739
394.219	25.925	1827.708	1818.867
395.234	26.154	1827.032	1820.297
396.248	26.231	1824.614	1818.449
397.263	26.003	1823.250	1814.563
398.278	25.743	1821.314	1809.798
399.292	25.816	1820.096	1809.108
400.307	26.191	1819.668	1812.245
401.321	26.092	1818.005	1809.374
402.336	24.600	1812.807	1788.984
403.350	23.433	1809.302	1773.575
404.365	23.736	1809.099	1776.211
405.380	24.148	1808.698	1779.744
406.394	24.120	1807.597	1778.166
407.409	23.869	1804.429	1772.328
408.423	23.730	1802.674	1768.993
409.438	23.676	1801.545	1767.133
410.453	24.566	1803.222	1777.481
411.467	25.399	1803.695	1786.061
412.482	25.882	1803.546	1790.521
413.496	26.484	1803.668	1796.439
414.511	26.505	1801.426	1794.207
415.526	26.323	1798.447	1789.213
416.540	26.459	1798.191	1790.098
417.555	26.561	1796.333	1789.043
418.569	26.153	1796.953	1785.391
419.584	26.437	1798.011	1789.057
420.599	26.707	1797.571	1791.080
421.613	26.828	1795.540	1790.047
422.628	26.806	1794.123	1788.205
423.642	27.023	1792.633	1788.653
424.657	26.776	1790.678	1784.042
425.672	26.434	1787.979	1777.761
426.686	26.393	1787.704	1776.873
427.701	26.584	1786.655	1777.501
428.715	26.576	1785.024	1775.586
429.730	26.764	1783.317	1775.527
430.745	26.803	1781.643	1774.027
431.759	26.011	1778.740	1763.146
432.774	24.725	1775.584	1747.192
433.788	23.932	1773.827	1737.466
434.803	23.780	1773.256	1735.210
435.818	24.113	1771.866	1736.909
436.832	24.070	1770.480	1734.918
437.847	22.742	1761.766	1713.225
438.861	12.763	1735.229	1590.814
439.876	2.471	1715.939	1473.740
440.890	0.475	1711.192	1450.215
441.905	0.405	1709.382	1447.831
442.920	0.354	1708.200	1446.164
443.934	0.295	1706.671	1444.130
444.949	0.193	1705.616	1442.082
445.963	0.108	1705.516	1441.003
446.978	0.149	1705.172	1440.938
447.993	0.279	1702.747	1439.961
449.007	0.312	1700.260	1438.002
450.022	0.291	1698.664	1436.279
451.036	0.219	1697.831	1434.711
452.051	0.684	1700.316	1441.101
453.066	8.756	1721.243	1536.762
454.080	19.619	1739.830	1658.554
455.095	22.690	1745.217	1693.177
456.109	23.570	1746.762	1702.963
457.124	23.678	1746.088	1703.145
458.139	23.833	1744.237	1702.629
459.153	23.649	1742.819	1699.270
460.168	23.739	1741.187	1698.335
461.182	23.615	1740.180	1695.959
462.197	23.856	1737.947	1695.895
463.212	23.963	1737.067	1695.861
464.226	24.206	1736.147	1697.085
465.241	24.009	1734.761	1693.644
466.255	23.864	1733.627	1690.948
467.270	23.970	1732.094	1690.260
468.285	23.979	1731.186	1689.260
469.299	24.041	1730.125	1688.607
470.314	24.120	1727.685	1686.784
471.328	24.119	1726.779	1685.679
472.343	24.039	1725.821	1683.783
473.358	23.969	1724.214	1681.356
474.372	23.884	1722.011	1678.195
475.387	23.921	1720.538	1676.909
476.401	23.784	1719.354	1674.256
477.416	23.715	1718.438	1672.514
478.430	23.605	1716.848	1669.722
479.445	23.729	1715.750	1669.628
480.460	23.808	1715.243	1669.685
481.474	23.747	1714.525	1668.208
482.489	23.870	1712.173	1666.876
483.503	23.701	1710.001	1662.975
484.518	23.585	1708.381	1660.113
485.533	23.503	1707.926	1658.692
486.547	23.434	1705.514	1655.504
487.562	23.138	1704.207	1651.259
488.576	23.269	1702.628	1650.761
489.591	23.275	1701.603	1649.629
490.606	23.446	1700.436	1649.896
491.620	23.604	1698.925	1649.714
492.635	23.464	1696.643	1645.997
493.649	23.222	1695.454	1642.390
494.664	23.452	1695.858	1644.726
495.679	23.777	1695.165	1646.881
496.693	23.841	1693.115	1645.292
497.708	23.932	1692.163	1645.018
498.722	23.699	1691.152	1641.675
499.737	23.629	1689.587	1639.307
500.752	23.902	1687.494	1639.610
501.766	23.911	1686.780	1638.802
502.781	23.932	1685.238	1637.304
503.795	23.957	1683.460	1635.612
504.810	23.868	1682.671	1633.828
505.825	23.850	1681.758	1632.577
506.839	23.856	1680.463	1631.178
507.854	23.741	1679.449	1628.946
508.868	23.684	1678.115	1626.926
509.883	23.657	1675.129	1623.590
510.898	23.381	1674.756	1620.494
511.912	23.377	1673.505	1619.055
512.927	23.572	1671.015	1618.239
513.941	23.510	1670.002	1616.496
514.956	23.643	1668.994	1616.548
515.971	23.569	1668.096	1614.806
516.985	23.688	1666.589	1614.240
518.000	23.623	1665.396	1612.295
519.014	23.301	1664.197	1608.004
520.029	23.248	1661.753	1604.975
521.043	23.529	1660.437	1606.065
522.058	23.548	1660.127	1605.743
523.073	23.445	1658.239	1602.790
524.087	23.178	1657.494	1599.454
525.102	23.297	1656.455	1599.338
526.116	23.880	1655.573	1603.587
527.131	24.048	1655.085	1604.444
528.146	23.743	1654.198	1600.630
529.160	23.710	1651.658	1597.680
530.175	23.609	1651.370	1596.297
531.189	23.524	1650.364	1594.365
532.204	23.456	1648.408	1591.671
533.219	23.405	1648.136	1590.758
534.233	23.572	1647.253	1591.224
535.248	23.447	1644.985	1587.712
536.262	22.797	1643.543	1580.290
537.277	22.928	1641.886	1579.677
538.292	23.076	1640.764	1579.745
539.306	23.055	1638.909	1577.580
540.321	22.990	1637.305	1575.261
541.335	23.055	1635.636	1574.051
542.350	23.090	1634.173	1572.770
543.365	22.898	1632.767	1569.514
544.379	22.829	1631.690	1567.668
545.394	22.655	1630.076	1564.385
546.408	23.233	1628.991	1568.302
547.423	23.623	1629.367	1571.948
548.438	23.712	1628.330	1571.555
549.452	23.370	1627.912	1567.916
550.467	23.553	1625.226	1566.772
551.481	23.535	1624.507	1565.730
552.496	23.362	1623.734	1563.263
553.511	23.227	1621.244	1559.484
554.525	23.336	1620.782	1559.814
555.540	23.152	1619.683	1556.948
556.554	23.142	1618.633	1555.656
557.569	23.189	1617.342	1554.649
558.583	23.367	1615.858	1554.602
559.598	23.412	1614.387	1553.403
560.613	23.304	1614.083	1551.974
561.627	23.079	1612.332	1548.125
562.642	22.861	1610.407	1544.169
563.656	22.593	1608.346	1539.662
564.671	22.615	1606.875	1538.255
565.686	22.584	1606.532	1537.475
566.700	22.856	1604.735	1537.949
567.715	22.952	1603.143	1537.083
568.729	22.991	1602.962	1537.068
569.744	23.171	1601.759	1537.303
570.759	23.216	1600.118	1535.931
571.773	23.070	1598.589	1533.012
572.788	22.982	1597.111	1530.642
573.802	22.780	1595.175	1526.845
574.817	22.523	1594.161	1523.460
575.832	22.439	1592.312	1520.785
576.846	22.671	1591.257	1521.609
577.861	22.999	1590.726	1523.759
578.875	23.024	1590.744	1523.807
579.890	22.813	1589.031	1520.164
580.905	22.798	1588.034	1518.893
581.919	22.826	1587.600	1518.536
582.934	22.651	1586.003	1515.321
583.948	22.692	1584.448	1514.002
584.963	22.670	1583.621	1512.843
585.978	22.897	1582.136	1513.198
586.992	22.773	1580.252	1510.153
588.007	22.067	1579.529	1503.209
589.021	22.461	1578.599	1505.527
590.036	22.907	1577.650	1508.273
591.051	22.483	1576.498	1503.354
592.065	22.258	1574.091	1498.953
593.080	22.186	1571.877	1496.044
594.094	22.396	1570.077	1495.951
595.109	22.712	1570.219	1498.601
596.123	23.109	1569.419	1501.051
597.138	22.973	1568.503	1498.834
598.153	22.707	1566.723	1494.687
599.167	22.709	1565.605	1493.463
600.182	22.658	1564.684	1491.968
601.196	22.622	1563.208	1490.073
602.211	22.579	1561.844	1488.232
603.226	22.502	1560.097	1485.736
604.240	22.329	1558.789	1482.850
605.255	22.353	1557.376	1481.530
606.269	22.450	1556.836	1481.657
607.284	22.754	1555.504	1482.779
608.299	22.546	1554.650	1480.039
609.313	22.651	1553.776	1479.909
610.328	22.606	1551.899	1477.570
611.342	22.534	1550.774	1475.710
612.357	22.412	1549.729	1473.516
613.372	22.473	1547.875	1472.087
614.386	22.442	1546.746	1470.580
615.401	22.232	1546.514	1468.418
616.415	22.065	1545.558	1465.940
617.430	22.055	1544.277	1464.464
618.445	21.853	1542.944	1461.332
619.459	21.890	1542.433	1460.982
620.474	22.179	1541.767	1462.589
621.488	22.658	1540.930	1465.628
622.503	22.952	1539.948	1466.973
623.518	22.458	1537.615	1460.458
624.532	21.949	1536.118	1454.621
625.547	21.868	1534.710	1452.437
626.561	21.690	1533.385	1449.532
627.576	21.558	1532.124	1447.071
628.591	22.035	1531.043	1449.834
629.605	22.301	1530.683	1451.524
630.620	22.357	1529.955	1451.126
631.634	22.418	1529.154	1450.701
632.649	22.482	1527.451	1449.441
633.663	22.270	1525.219	1445.398
634.678	21.694	1524.235	1439.534
635.693	21.441	1521.930	1435.100
636.707	21.443	1520.498	1433.595
637.722	21.489	1518.534	1431.951
638.736	21.703	1517.708	1432.760
639.751	21.842	1517.889	1433.902
640.766	22.033	1516.381	1433.868
641.780	21.807	1515.123	1430.653
642.795	22.041	1514.721	1432.021
643.809	22.049	1514.714	1431.911
644.824	21.906	1513.704	1429.615
645.839	22.126	1512.738	1430.328
646.853	22.180	1510.540	1428.518
647.868	22.195	1509.125	1427.131
648.882	22.100	1507.370	1424.533
649.897	22.069	1507.171	1423.918
650.912	21.884	1504.963	1420.158
651.926	21.636	1503.610	1416.694
652.941	21.748	1503.107	1416.960
653.955	21.948	1502.070	1417.438
654.970	22.397	1500.707	1419.623
655.985	22.445	1499.380	1418.589
656.999	22.326	1497.924	1416.074
658.014	22.058	1496.231	1412.137
659.028	21.772	1494.720	1408.232
660.043	21.889	1493.571	1407.929
661.058	21.773	1492.259	1405.591
662.072	21.680	1491.271	1403.737
663.087	21.878	1490.563	1404.500
664.101	22.090	1488.989	1404.551
665.116	21.878	1488.042	1401.792
666.131	21.950	1487.616	1401.797
667.145	21.921	1486.660	1400.498
668.160	21.761	1484.794	1397.292
669.174	21.650	1483.141	1394.674
670.189	21.529	1483.004	1393.413
671.204	21.960	1481.995	1395.745
672.218	21.898	1481.187	1394.320
673.233	21.918	1479.032	1392.289
674.247	21.500	1477.762	1387.593
675.262	21.459	1476.682	1386.086
676.276	21.571	1475.501	1385.703
677.291	21.650	1475.620	1386.273
678.306	22.037	1474.877	1388.492
679.320	21.948	1473.268	1386.103
680.335	21.727	1471.762	1382.762
681.349	21.622	1471.367	1381.399
682.364	21.814	1469.292	1380.800
683.379	21.742	1468.043	1378.891
684.393	21.470	1467.394	1375.969
685.408	21.368	1466.313	1373.988
686.422	21.381	1465.292	1372.968
687.437	21.302	1464.331	1371.282
688.452	21.166	1463.092	1368.879
689.466	21.097	1461.371	1366.567
690.481	21.259	1459.628	1366.048
691.495	21.247	1460.114	1366.242
692.510	22.024	1459.046	1371.177
693.525	22.208	1457.612	1371.109
694.539	21.875	1456.300	1367.103
695.554	21.364	1454.903	1361.632
696.568	21.004	1454.208	1358.001
697.583	20.933	1453.348	1356.477
698.598	21.150	1451.407	1356.199
699.612	21.052	1449.956	1353.915
700.627	21.056	1449.583	1353.440
701.641	21.286	1448.733	1354.273
702.656	21.412	1447.288	1353.737
703.671	21.287	1446.980	1352.320
704.685	21.150	1446.320	1350.476
705.700	21.355	1444.942	1350.620
706.714	21.284	1443.697	1348.745
707.729	21.399	1442.782	1348.618
708.744	21.329	1440.803	1346.063
709.758	21.182	1440.044	1344.060
710.773	21.465	1439.589	1345.659
711.787	21.777	1438.041	1346.464
712.802	21.504	1435.980	1342.270
713.816	21.413	1434.995	1340.482
714.831	21.236	1434.386	1338.388
715.846	21.265	1432.177	1336.389
716.860	21.110	1431.404	1334.322
717.875	21.159	1430.389	1333.591
718.889	21.300	1429.140	1333.347
719.904	21.215	1428.492	1331.930
720.919	21.014	1427.219	1329.044
721.933	20.988	1425.917	1327.475
722.948	21.100	1425.285	1327.588
723.962	21.033	1424.546	1326.229
724.977	20.957	1422.983	1324.029
725.992	20.806	1421.997	1321.803
727.006	21.115	1420.991	1323.066
728.021	20.961	1419.251	1320.117
729.035	21.016	1418.036	1319.247
730.050	20.989	1417.521	1318.402
731.065	21.091	1416.614	1318.178
732.079	21.159	1414.146	1316.237
733.094	21.158	1413.615	1315.579
734.108	21.254	1413.010	1315.585
735.123	21.188	1411.492	1313.516
736.138	21.188	1410.846	1312.755
737.152	21.222	1409.110	1311.243
738.167	21.025	1407.346	1307.955
739.181	21.157	1406.607	1308.108
740.196	20.951	1406.192	1306.017
741.211	20.928	1405.329	1304.884
742.225	20.921	1404.518	1303.924
743.240	20.811	1403.194	1301.711
744.254	20.826	1401.521	1300.111
745.269	20.760	1400.076	1298.127
746.284	20.739	1399.734	1297.496
747.298	20.754	1399.387	1297.127
748.313	21.136	1397.995	1298.538
749.327	21.280	1398.111	1299.566
750.342	21.629	1398.001	1301.919
751.356	22.032	1396.536	1303.408
752.371	21.830	1394.576	1299.919
753.386	20.985	1393.361	1292.337
754.400	20.929	1391.667	1290.192
755.415	21.062	1390.692	1290.123
756.429	20.998	1389.110	1288.028
757.444	21.152	1387.188	1287.229
758.459	20.913	1387.381	1285.486
759.473	20.765	1385.440	1282.437
760.488	20.853	1384.514	1282.077
761.502	20.730	1383.781	1280.338
762.517	20.654	1383.281	1279.158
763.532	20.840	1381.632	1278.854
764.546	21.104	1378.872	1278.093
765.561	21.150	1380.501	1279.784
766.575	21.669	1380.338	1283.304
767.590	21.670	1379.117	1282.020
768.605	21.300	1376.714	1276.919
769.619	20.985	1374.867	1272.738
770.634	20.843	1373.986	1270.730
771.648	20.722	1372.776	1268.574
772.663	20.740	1371.090	1266.996
773.678	20.913	1370.396	1267.467
774.692	20.921	1369.890	1266.904
775.707	20.788	1369.691	1265.601
776.721	20.724	1368.912	1264.262
777.736	20.695	1367.681	1262.761
778.751	20.687	1366.883	1261.815
779.765	20.781	1365.832	1261.379
780.780	20.696	1365.040	1259.879
781.794	20.809	1364.003	1259.588
782.809	20.565	1362.944	1256.689
783.824	20.561	1361.351	1255.044
784.838	20.700	1361.101	1255.669
785.853	21.254	1360.357	1258.849
786.867	21.078	1359.833	1256.940
787.882	20.916	1358.215	1254.118
788.897	20.680	1356.843	1251.000
789.911	20.526	1356.210	1249.150
790.926	20.539	1354.778	1247.775
791.940	20.656	1352.907	1246.745
792.955	20.639	1351.535	1245.214
793.969	20.240	1351.204	1241.889
794.984	20.356	1350.589	1242.005
795.999	20.443	1349.476	1241.462
797.013	20.622	1347.176	1240.478
798.028	20.551	1346.089	1238.820
799.042	20.486	1345.666	1237.816
800.057	20.386	1344.685	1236.048
801.072	20.571	1343.291	1235.946
802.086	20.704	1341.331	1234.938
803.101	20.494	1340.641	1232.659
804.115	20.534	1339.796	1232.018
805.130	20.558	1338.391	1230.752
806.145	20.424	1337.389	1228.729
807.159	20.516	1336.317	1228.252
808.174	20.629	1334.923	1227.629
809.188	20.725	1333.557	1226.907
810.203	20.817	1332.180	1226.138
811.218	20.820	1331.311	1225.216
812.232	21.118	1330.762	1226.670
813.247	21.196	1330.005	1226.378
814.261	20.934	1329.328	1223.759
815.276	20.710	1327.285	1220.150
816.291	20.525	1326.129	1217.636
817.305	20.617	1325.103	1217.202
818.320	20.462	1323.061	1214.091
819.334	20.372	1322.213	1212.531
820.349	20.385	1321.508	1211.834
821.364	20.501	1319.186	1210.370
822.378	20.564	1317.916	1209.499
823.393	20.375	1316.914	1207.118
824.407	20.442	1315.755	1206.376
825.422	20.373	1315.113	1205.159
826.437	20.512	1314.027	1204.993
827.451	20.327	1312.639	1202.290
828.466	20.860	1312.036	1205.300
829.480	21.113	1310.497	1205.494
830.495	20.628	1308.571	1200.218
831.509	20.358	1308.356	1198.003
832.524	20.278	1306.924	1195.997
833.539	20.361	1304.682	1194.374
834.553	20.319	1303.402	1192.774
835.568	20.392	1302.290	1192.117
836.582	20.338	1301.371	1190.759
837.597	20.362	1300.406	1189.895
838.612	20.452	1299.085	1189.162
839.626	20.524	1298.053	1188.573
840.641	20.753	1296.897	1188.945
841.655	20.872	1297.198	1189.895
842.670	21.132	1297.497	1191.810
843.685	21.535	1296.310	1193.340
844.699	21.078	1293.997	1187.944
845.714	20.738	1292.102	1183.737
846.728	20.627	1290.880	1181.720
847.743	20.497	1290.203	1180.070
848.758	20.424	1289.129	1178.449
849.772	20.334	1287.209	1175.938
850.787	20.419	1284.995	1174.352
851.801	20.333	1284.245	1172.946
852.816	20.301	1283.223	1171.652
853.831	20.329	1281.518	1170.143
854.845	20.363	1279.914	1168.774
855.860	20.389	1278.422	1167.445
856.874	20.319	1277.737	1166.206
857.889	20.564	1277.023	1167.070
858.904	20.866	1276.075	1168.096
859.918	21.081	1275.030	1168.451
860.933	21.318	1273.311	1168.330
861.947	20.902	1272.449	1164.600
862.962	20.567	1271.082	1160.965
863.977	20.594	1269.164	1159.253
864.991	20.425	1268.737	1157.591
866.006	20.322	1268.094	1156.179
867.020	20.194	1267.315	1154.475
868.035	20.294	1265.655	1153.493
869.049	20.282	1265.363	1153.003
870.064	20.394	1263.859	1152.248
871.079	20.508	1263.114	1152.187
872.093	20.487	1263.009	1151.817
873.108	20.592	1261.438	1150.940
874.122	20.696	1260.530	1150.665
875.137	20.822	1261.172	1151.956
876.152	20.989	1260.191	1152.030
877.166	21.002	1257.786	1149.776
878.181	20.887	1256.173	1147.406
879.195	20.531	1255.442	1144.245
880.210	20.390	1254.781	1142.574
881.225	20.426	1253.327	1141.348
882.239	20.603	1252.643	1141.762
883.254	20.431	1251.564	1139.507
884.268	20.487	1250.467	1138.741
885.283	20.430	1249.187	1137.061
886.298	20.456	1247.146	1135.239
887.312	20.621	1246.139	1135.271
888.327	20.482	1245.144	1133.313
889.341	20.441	1244.193	1132.044
890.356	20.207	1244.064	1130.256
891.371	20.340	1243.472	1130.454
892.385	20.319	1243.218	1129.954
893.400	20.301	1242.049	1128.639
894.414	20.387	1240.895	1128.014
895.429	20.463	1239.686	1127.280
896.444	21.123	1239.253	1131.050
897.458	21.511	1238.484	1132.737
898.473	21.107	1237.048	1128.663
899.487	20.794	1235.271	1124.871
900.502	20.541	1233.837	1121.793
901.517	20.614	1232.102	1120.551
902.531	20.617	1231.553	1119.940
903.546	20.419	1231.063	1118.077
904.560	20.373	1230.410	1117.057
905.575	20.537	1229.424	1117.086
906.589	20.561	1228.429	1116.202
907.604	20.707	1227.915	1116.544
