DTS Sentinel unit serial number:	SN409020Multiplexer serial number:	ORYXHardware model number:	OX4-SRSoftware version number:	ORYX F/W v3.00 Oryx Data Collector v3.7.2.0data status	okinstallation	HaddamTimeLapsedifferential loss correction	single-endedforward channel	channel 3reverse channel	N/Adate	2011/06/21time	21:31:17forward acquisition time	30.00reverse acquisition time	0.00gamma	498.7831k internal	0.1762k external	0.1762temperature offset calibration	1.0074default loss term (dB/km)	0.3790temperature slope calibration	1.3530multiplexer offset coefficient	1.0000multiplexer slope coefficient	1.0000fibre end	0.00T internal ref (°C)	26.16T ext. ref 1 (°C)	19.60T ext. ref 2 (°C)	0.04length (m)	temperature (°C)	Stokes	anti-Stokes-747.200	149.287	0.139	-0.248
-746.185	136.739	0.266	0.460
-745.171	-200.000	0.005	0.218
-744.156	114.738	-0.433	0.699
-743.142	-91.133	-0.408	0.154
-742.127	-169.750	-0.351	-0.016
-741.112	-125.668	-0.200	-0.040
-740.098	479.122	-0.147	0.443
-739.083	-47.605	-0.482	-0.308
-738.069	18.691	-0.333	-0.352
-737.054	9.452	-0.244	-0.244
-736.039	-23.918	0.149	-0.118
-735.025	14.389	-0.174	-0.179
-734.010	-33.882	0.168	-0.122
-732.996	41.535	0.170	-0.203
-731.981	-102.891	-0.185	0.057
-730.966	800.000	-0.062	0.233
-729.952	-53.139	0.171	-0.103
-728.937	-200.000	0.075	-0.565
-727.923	-45.583	-0.149	-0.097
-726.908	-200.000	0.090	-0.798
-725.894	130.627	-0.059	0.100
-724.879	174.684	-0.268	-0.514
-723.864	-152.958	0.329	-0.030
-722.850	800.000	-0.123	0.492
-721.835	19.325	-0.418	0.443
-720.821	-9.301	-0.256	-0.225
-719.806	-137.340	0.191	-0.028
-718.791	-23.159	0.182	0.144
-717.777	-36.228	-0.332	0.236
-716.762	32.551	0.332	-0.378
-715.748	54.709	-0.178	0.227
-714.733	-27.176	0.422	0.323
-713.718	800.000	-0.025	0.133
-712.704	718.864	-0.069	-0.242
-711.689	-67.652	-0.041	-0.021
-710.675	-79.832	0.341	0.151
-709.660	-200.000	0.019	-0.272
-708.645	24.200	-0.141	-0.153
-707.631	180.065	-0.275	0.534
-706.616	-63.718	-0.379	-0.204
-705.602	-121.909	0.271	-0.058
-704.587	-36.673	0.332	-0.235
-703.572	76.217	-0.102	0.143
-702.558	800.000	0.142	0.539
-701.543	-77.613	0.104	-0.047
-700.529	-121.968	-0.352	0.076
-699.514	-125.591	-0.420	0.083
-698.499	-110.243	0.346	-0.094
-697.485	-103.896	0.081	-0.025
-696.470	745.449	0.073	0.261
-695.456	-59.092	-0.243	0.138
-694.441	167.385	-0.032	-0.060
-693.426	579.239	-0.114	0.369
-692.412	270.083	0.132	0.306
-691.397	-55.455	0.310	0.183
-690.383	-131.563	-0.089	0.015
-689.368	23.584	0.240	-0.260
-688.354	-76.004	0.226	0.105
-687.339	-84.076	-0.118	0.049
-686.324	800.000	0.065	0.291
-685.310	-171.153	0.214	-0.009
-684.295	43.605	0.422	-0.509
-683.281	-200.000	-0.342	-0.000
-682.266	-200.000	0.016	0.433
-681.251	17.436	0.067	0.070
-680.237	-17.284	-0.103	0.085
-679.222	11.591	0.092	-0.093
-678.208	-93.257	-0.160	0.058
-677.193	361.882	0.132	-0.350
-676.178	-193.603	0.368	-0.004
-675.164	84.303	-0.032	0.045
-674.149	764.383	-0.193	-0.694
-673.135	-200.000	0.007	0.298
-672.120	-14.954	0.232	-0.195
-671.105	-33.956	0.478	0.346
-670.091	-200.000	0.017	-0.328
-669.076	-126.860	0.398	0.077
-668.062	-87.653	0.443	-0.175
-667.047	-142.798	-0.417	0.053
-666.032	-47.288	0.186	-0.119
-665.018	34.995	0.149	-0.172
-664.003	-60.407	-0.053	0.030
-662.989	157.016	0.045	-0.082
-661.974	235.786	-0.157	0.342
-660.959	-13.115	0.155	0.133
-659.945	265.165	-0.132	0.305
-658.930	-200.000	0.003	0.425
-657.916	12.888	-0.906	0.921
-656.901	653.891	0.061	0.206
-655.886	-38.833	-0.205	-0.142
-654.872	-11.812	-0.295	-0.254
-653.857	-95.450	0.320	0.112
-652.843	255.688	0.218	0.495
-651.828	-138.274	-0.430	0.062
-650.814	-91.031	-0.372	0.140
-649.799	-31.584	0.251	-0.185
-648.784	98.997	0.092	-0.140
-647.770	-60.084	-0.492	0.275
-646.755	-200.000	-0.031	-0.265
-645.741	-200.000	0.012	0.213
-644.726	653.675	0.062	0.210
-643.711	-200.000	0.006	0.215
-642.697	107.140	0.088	0.137
-641.682	46.379	0.094	0.114
-640.668	-135.995	-0.224	0.034
-639.653	215.553	0.139	0.292
-638.638	-59.555	-0.102	-0.057
-637.624	159.766	0.270	0.496
-636.609	17.428	-0.118	0.123
-635.595	-40.277	-0.003	0.002
-634.580	-200.000	0.026	0.214
-633.565	-173.294	-0.237	-0.009
-632.551	-13.798	0.308	-0.262
-631.536	-162.943	-0.475	0.030
-630.522	26.867	-0.171	-0.188
-629.507	56.955	-0.270	0.346
-628.492	800.000	0.031	-0.176
-627.478	800.000	0.103	-0.565
-626.463	-19.221	-0.336	0.274
-625.449	-62.883	-0.501	0.271
-624.434	-89.595	0.258	-0.099
-623.419	267.505	-0.162	0.374
-622.405	19.461	-0.139	-0.147
-621.390	-88.457	-0.199	0.078
-620.376	-200.000	0.068	-0.641
-619.361	129.222	-0.238	0.400
-618.346	-145.080	-0.466	0.055
-617.332	-161.525	0.380	0.025
-616.317	132.821	0.126	0.214
-615.303	25.827	-0.116	0.127
-614.288	-200.000	-0.011	-0.112
-613.273	-52.884	0.288	-0.174
-612.259	48.924	-0.150	0.185
-611.244	-13.246	-0.458	-0.390
-610.230	186.740	0.079	-0.154
-609.215	-200.000	-0.013	0.174
-608.201	-43.058	-0.492	-0.327
-607.186	128.775	-0.243	-0.408
-606.171	182.241	0.154	-0.298
-605.157	-5.957	0.576	-0.516
-604.142	-145.121	0.092	0.011
-603.128	0.122	0.173	-0.161
-602.113	800.000	0.077	0.403
-601.098	32.336	0.107	-0.122
-600.084	-95.262	0.175	0.062
-599.069	800.000	-0.123	0.462
-598.055	800.000	-0.157	0.592
-597.040	-65.227	-0.141	0.075
-596.025	58.105	-0.153	-0.197
-595.011	-200.000	-0.019	-0.208
-593.996	-116.560	-0.287	-0.069
-592.982	-200.000	0.017	-0.242
-591.967	-16.428	0.170	0.141
-590.952	-141.230	0.544	-0.072
-589.938	234.443	-0.043	0.094
-588.923	-143.280	0.658	-0.082
-587.909	152.958	-0.160	0.287
-586.894	-187.740	-0.746	0.013
-585.879	800.000	0.072	-0.379
-584.865	-17.606	-0.350	-0.288
-583.850	737.966	0.087	0.308
-582.836	-166.716	-0.498	-0.027
-581.821	800.000	0.022	-0.120
-580.806	-200.000	-0.007	-0.165
-579.792	121.502	-0.402	-0.659
-578.777	-193.105	0.381	0.004
-577.763	277.274	0.099	-0.232
-576.748	800.000	0.053	-0.249
-575.733	-190.380	0.222	-0.003
-574.719	497.065	0.046	0.140
-573.704	235.465	0.138	0.301
-572.690	-177.742	-0.247	-0.008
-571.675	-66.362	-0.158	-0.082
-570.661	130.746	0.062	0.104
-569.646	-200.000	0.015	0.347
-568.631	38.283	0.239	0.279
-567.617	704.158	0.088	0.307
-566.602	800.000	0.149	-0.715
-565.588	800.000	0.116	-0.442
-564.573	-74.813	-0.354	0.166
-563.558	200.139	0.025	-0.050
-562.544	-200.000	0.274	0.000
-561.529	-117.969	0.946	-0.220
-560.515	300.396	0.045	0.108
-559.500	-62.470	-0.326	0.177
-558.485	130.510	0.115	0.193
-557.471	-200.000	0.018	-0.230
-556.456	124.574	-0.193	0.319
-555.442	50.611	0.072	-0.089
-554.427	89.242	-0.208	0.305
-553.412	336.023	0.086	-0.220
-552.398	68.779	-0.289	-0.390
-551.383	514.081	-0.032	-0.099
-550.369	-73.640	0.055	0.026
-549.354	-18.246	-0.587	-0.480
-548.339	800.000	0.068	0.336
-547.325	-47.507	-0.265	0.169
-546.310	315.979	0.063	0.156
-545.296	-200.000	0.021	0.588
-544.281	-68.871	-0.462	0.233
-543.266	-200.000	0.043	0.309
-542.252	-185.326	0.178	0.004
-541.237	263.658	-0.110	-0.251
-540.223	-157.160	0.517	-0.041
-539.208	-121.372	0.649	-0.140
-538.193	-13.304	0.345	-0.293
-537.179	354.228	0.105	-0.274
-536.164	69.165	0.061	-0.082
-535.150	-1.307	-0.322	-0.297
-534.135	170.844	0.098	-0.184
-533.121	-2.778	-0.126	0.115
-532.106	-15.918	-0.651	0.542
-531.091	96.593	0.196	0.295
-530.077	-200.000	0.062	-0.381
-529.062	-103.476	-0.392	0.120
-528.048	258.031	0.081	0.184
-527.033	-5.603	0.033	-0.029
-526.018	-79.996	-0.306	-0.134
-525.004	52.676	0.079	-0.099
-523.989	20.611	0.417	-0.441
-522.975	-117.767	-0.179	0.042
-521.960	135.022	0.258	-0.440
-520.945	289.529	-0.040	-0.096
-519.931	-60.210	-0.219	0.121
-518.916	74.685	-0.171	0.236
-517.902	-87.428	-0.123	0.048
-516.887	-62.147	-0.342	-0.186
-515.872	800.000	0.054	-0.251
-514.858	58.033	0.305	0.392
-513.843	800.000	0.109	0.450
-512.829	-88.323	-0.202	-0.079
-511.814	17.855	0.281	0.293
-510.799	-176.159	0.108	0.004
-509.785	-123.837	0.122	0.025
-508.770	-22.254	0.427	0.338
-507.756	298.699	0.185	-0.448
-506.741	-13.413	-0.089	0.075
-505.726	39.376	0.229	-0.269
-504.712	538.033	0.047	-0.145
-503.697	306.592	0.280	-0.685
-502.683	-200.000	-0.021	-0.149
-501.668	-200.000	-0.034	-0.343
-500.653	-146.212	0.187	0.021
-499.639	-110.057	0.160	0.043
-498.624	-81.271	-0.137	0.059
-497.610	-200.000	-0.047	0.344
-496.595	550.038	-0.089	0.281
-495.581	-107.503	0.303	-0.086
-494.566	77.432	-0.264	-0.368
-493.551	-109.764	-0.165	-0.045
-492.537	72.190	0.079	-0.108
-491.522	-28.446	0.484	0.364
-490.508	-0.668	-0.206	0.191
-489.493	-71.268	-0.182	0.089
-488.478	611.522	0.166	0.546
-487.464	-130.513	0.195	-0.034
-486.449	-49.083	-0.065	-0.041
-485.435	-71.471	-0.232	-0.113
-484.420	-160.710	0.241	0.016
-483.405	75.885	-0.313	0.432
-482.391	-200.000	0.007	-0.267
-481.376	767.151	0.022	0.079
-480.362	-200.000	-0.034	-0.238
-479.347	-183.969	-0.463	0.010
-478.332	30.948	-0.193	-0.216
-477.318	-82.382	0.557	-0.235
-476.303	435.273	-0.203	0.578
-475.289	-166.065	-0.885	0.048
-474.274	-200.000	0.017	-0.264
-473.259	-139.214	0.504	-0.070
-472.245	-78.404	-0.194	-0.086
-471.230	-126.306	-0.333	0.064
-470.216	749.347	-0.079	0.281
-469.201	-80.440	0.098	0.042
-468.186	-101.451	-0.282	-0.089
-467.172	-200.000	-0.389	0.000
-466.157	-74.909	0.407	-0.190
-465.143	-111.961	0.231	0.060
-464.128	65.263	-0.142	0.188
-463.113	30.061	-0.145	-0.161
-462.099	12.914	0.065	0.065
-461.084	800.000	-0.061	0.289
-460.070	43.630	-0.245	0.292
-459.055	-200.000	-0.024	0.216
-458.040	-11.685	0.418	-0.358
-457.026	-131.750	0.493	0.084
-456.011	800.000	-0.070	-0.270
-454.997	-156.174	-0.330	-0.027
-453.982	-200.000	-0.031	-0.342
-452.968	14.775	-0.081	-0.082
-451.953	-68.219	0.257	-0.130
-450.938	-81.708	-0.759	-0.323
-449.924	-24.309	0.195	0.152
-448.909	-62.656	0.569	0.307
-447.895	800.000	-0.035	0.171
-446.880	43.398	-0.104	0.124
-445.865	800.000	-0.022	0.126
-444.851	-118.503	0.548	0.126
-443.836	0.092	0.406	0.378
-442.822	-56.773	-0.008	0.005
-441.807	166.193	-0.088	0.164
-440.792	130.744	0.127	-0.212
-439.778	234.929	-0.131	-0.284
-438.763	694.249	-0.015	0.053
-437.749	-117.310	0.356	-0.084
-436.734	-31.672	0.198	-0.145
-435.719	551.638	-0.061	-0.193
-434.705	-19.439	-0.341	-0.275
-433.690	-162.443	-0.499	-0.032
-432.676	-200.000	-0.340	0.000
-431.661	7.844	0.358	0.350
-430.646	-200.000	-0.012	-0.240
-429.632	102.338	-0.096	-0.146
-428.617	3.099	-0.282	-0.267
-427.603	102.607	0.141	-0.216
-426.588	185.236	0.018	0.034
-425.573	-112.033	-0.566	0.147
-424.559	-200.000	-0.123	-0.802
-423.544	20.426	0.234	-0.247
-422.530	-175.725	-0.298	0.010
-421.515	-33.916	0.234	-0.168
-420.500	-200.000	-0.020	-0.312
-419.486	103.554	0.071	-0.109
-418.471	-182.689	-0.152	0.004
-417.457	-147.745	0.244	-0.026
-416.442	-108.445	-0.150	-0.042
-415.428	284.501	-0.156	0.367
-414.413	-96.186	-0.233	0.080
-413.398	28.511	-0.321	-0.354
-412.384	-79.297	0.329	0.145
-411.369	-200.000	-0.009	0.103
-410.355	38.027	-0.083	0.097
-409.340	-200.000	-0.040	-0.270
-408.325	59.968	-0.214	-0.275
-407.311	-166.264	-0.371	-0.020
-406.296	-200.000	-0.051	-0.347
-405.282	26.137	0.302	0.328
-404.267	148.148	0.170	-0.299
-403.252	-89.085	-0.105	-0.040
-402.238	172.962	0.062	-0.116
-401.223	102.650	-0.242	0.369
-400.209	672.851	-0.168	0.572
-399.194	19.354	-0.159	0.166
-398.179	-200.000	0.263	0.001
-397.165	-68.130	-0.608	-0.307
-396.150	800.000	0.164	-0.698
-395.136	569.560	0.122	0.388
-394.121	667.418	0.087	0.295
-393.106	146.775	0.210	-0.368
-392.092	-137.944	-0.241	0.035
-391.077	227.276	-0.105	-0.222
-390.063	800.000	0.123	0.455
-389.048	109.865	-0.093	-0.146
-388.033	-200.000	-0.041	-0.595
-387.019	88.368	0.112	-0.162
-386.004	385.551	0.084	0.226
-384.990	-200.000	-0.033	0.391
-383.975	-144.536	0.395	-0.047
-382.960	-78.988	0.451	0.199
-381.946	77.586	0.116	-0.161
-380.931	-183.024	0.485	-0.011
-379.917	-66.328	-0.524	-0.270
-378.902	-53.440	-0.249	-0.148
-377.888	800.000	-0.026	0.143
-376.873	-200.000	0.025	-0.213
-375.858	-110.278	-0.207	-0.056
-374.844	323.370	-0.232	0.579
-373.829	-11.666	-0.060	-0.051
-372.815	-10.891	-0.181	0.155
-371.800	233.814	0.215	0.462
-370.785	29.384	-0.294	0.325
-369.771	-176.271	-0.214	0.007
-368.756	-100.772	0.034	0.011
-367.742	-162.368	0.583	0.037
-366.727	-200.000	0.083	-0.558
-365.712	-5.693	-0.091	0.081
-364.698	-113.411	-0.243	-0.062
-363.683	-81.667	0.147	-0.063
-362.669	-97.422	0.373	0.126
-361.654	800.000	0.053	0.238
-360.639	-28.612	0.608	0.455
-359.625	-92.608	0.323	-0.117
-358.610	234.170	-0.193	0.415
-357.596	-200.000	-0.033	-0.202
-356.581	-126.525	-0.363	-0.069
-355.566	-90.929	0.248	0.092
-354.552	800.000	0.070	0.266
-353.537	-33.756	0.267	-0.191
-352.523	-126.503	-0.299	0.057
-351.508	70.201	0.140	0.188
-350.493	-85.927	-0.313	-0.125
-349.479	43.220	0.137	-0.163
-348.464	-59.879	-0.573	0.318
-347.450	216.516	0.161	-0.334
-346.435	183.352	0.295	0.569
-345.420	-172.377	-0.394	0.016
-344.406	8.322	-0.347	-0.339
-343.391	-200.000	0.001	-0.355
-342.377	-200.000	0.017	-0.362
-341.362	-46.332	-0.273	-0.174
-340.348	12.541	-0.103	-0.103
-339.333	800.000	-0.059	-0.252
-338.318	-105.772	0.527	-0.154
-337.304	147.593	-0.247	-0.434
-336.289	-168.777	0.232	-0.011
-335.275	-52.458	-0.115	-0.069
-334.260	27.981	-0.197	0.216
-333.245	-66.192	0.465	0.240
-332.231	-200.000	-0.041	-0.351
-331.216	17.931	0.286	-0.296
-330.202	-80.434	0.309	0.133
-329.187	-32.085	0.078	0.057
-328.172	-20.373	-0.143	-0.114
-327.158	-19.587	-0.280	0.225
-326.143	-150.198	-0.363	-0.036
-325.129	-158.610	-0.131	-0.010
-324.114	480.562	0.058	-0.171
-323.099	370.953	0.122	-0.322
-322.085	-35.619	-0.364	0.256
-321.070	-135.845	-0.278	-0.042
-320.056	-106.120	0.498	-0.144
-319.041	800.000	-0.113	0.526
-318.026	-200.000	0.052	-0.374
-317.012	136.854	0.066	-0.112
-315.997	193.446	0.183	-0.360
-314.983	36.344	0.117	0.134
-313.968	800.000	-0.163	0.601
-312.953	-55.192	-0.418	0.243
-311.939	-8.236	0.103	-0.090
-310.924	185.374	0.217	0.420
-309.910	800.000	0.090	0.452
-308.895	-200.000	0.028	0.211
-307.880	51.515	-0.199	-0.246
-306.866	-200.000	-0.027	0.202
-305.851	800.000	0.061	-0.346
-304.837	-149.948	0.134	-0.013
-303.822	8.049	0.157	-0.153
-302.807	259.579	0.047	0.107
-301.793	-169.641	-0.035	-0.002
-300.778	407.469	-0.082	-0.225
-299.764	-200.000	-0.011	-0.207
-298.749	335.088	0.180	-0.454
-297.735	800.000	0.047	-0.262
-296.720	-195.829	-0.411	-0.004
-295.705	-138.595	-0.302	0.043
-294.691	-34.698	-0.424	0.300
-293.676	15.664	-0.215	-0.219
-292.662	-41.600	0.435	-0.289
-291.647	23.058	0.381	-0.405
-290.632	-200.000	0.046	0.449
-289.618	-63.641	0.158	0.084
-288.603	-29.900	-0.328	0.242
-287.589	38.407	-0.138	0.159
-286.574	-136.490	-0.154	0.023
-285.559	800.000	-0.065	-0.336
-284.545	129.108	-0.020	0.034
-283.530	430.036	0.119	0.335
-282.516	222.083	-0.053	0.112
-281.501	627.374	0.095	-0.312
-280.486	-6.943	0.182	-0.160
-279.472	-146.885	0.301	-0.033
-278.457	-107.815	0.374	0.105
-277.443	-140.796	0.239	0.032
-276.428	-118.495	-0.107	0.024
-275.413	-30.313	0.125	-0.092
-274.399	51.948	0.215	-0.266
-273.384	-110.610	0.347	-0.092
-272.370	-130.575	-0.253	0.044
-271.355	88.403	0.093	0.135
-270.340	-139.677	-0.426	-0.058
-269.326	621.333	-0.046	0.150
-268.311	407.826	-0.133	0.367
-267.297	94.999	0.035	-0.052
-266.282	-181.854	0.172	0.004
-265.267	224.363	-0.213	0.448
-264.253	-158.813	0.272	0.020
-263.238	-154.344	0.307	0.026
-262.224	-123.577	-0.383	-0.078
-261.209	292.916	0.058	-0.138
-260.195	428.678	-0.130	0.365
-259.180	-63.915	-0.443	0.234
-258.165	150.296	0.228	0.402
-257.151	578.650	-0.047	0.150
-256.136	79.849	-0.289	-0.402
-255.122	-200.000	-0.082	-0.942
-254.107	27.393	-0.349	-0.380
-253.092	132.974	-0.404	0.678
-252.078	-161.104	0.251	-0.017
-251.063	-31.546	0.199	-0.144
-250.049	-200.000	-0.025	-0.168
-249.034	20.684	-0.275	-0.288
-248.019	-200.000	0.075	0.514
-247.005	-27.209	0.177	0.133
-245.990	-110.499	0.490	-0.131
-244.976	-120.851	0.483	0.104
-243.961	39.405	-0.195	0.227
-242.946	204.338	0.027	0.055
-241.932	343.234	0.030	-0.077
-240.917	427.635	0.130	0.364
-239.903	14.416	-0.135	-0.137
-238.888	-80.525	0.230	0.099
-237.873	117.615	-0.053	0.085
-236.859	631.265	0.091	-0.300
-235.844	46.148	-0.050	-0.059
-234.830	-200.000	0.018	0.180
-233.815	800.000	-0.115	0.483
-232.800	-0.742	0.378	0.346
-231.786	-31.409	-0.074	0.054
-230.771	205.090	-0.084	-0.169
-229.757	800.000	-0.028	-0.136
-228.742	-200.000	0.003	0.164
-227.727	-18.646	0.127	0.102
-226.713	800.000	-0.066	0.257
-225.698	-200.000	-0.391	0.001
-224.684	-26.960	0.147	0.111
-223.669	289.688	0.137	0.324
-222.655	-124.159	0.512	0.103
-221.640	-109.590	-0.236	-0.064
-220.625	27.412	-0.287	-0.312
-219.611	-200.000	0.002	-0.160
-218.596	-146.008	-0.425	-0.048
-217.582	-62.753	-0.447	-0.239
-216.567	-24.984	0.285	-0.218
-215.552	293.441	0.184	0.437
-214.538	11.195	0.396	0.392
-213.523	244.093	0.140	-0.305
-212.509	203.609	-0.201	0.403
-211.494	-167.840	0.251	0.013
-210.479	-200.000	-0.023	-0.159
-209.465	175.809	0.170	0.319
-208.450	-43.814	0.388	-0.252
-207.436	132.073	-0.390	-0.652
-206.421	-103.884	0.855	0.257
-205.406	303.231	0.118	0.285
-204.392	333.971	-0.162	-0.408
-203.377	-71.258	0.252	-0.122
-202.363	-70.280	0.093	-0.045
-201.348	6.068	0.272	-0.261
-200.333	800.000	0.070	0.298
-199.319	-200.000	-0.056	0.545
-198.304	-177.557	-0.191	-0.006
-197.290	-6.548	-0.238	0.209
-196.275	75.553	-0.014	0.019
-195.260	-135.749	-0.122	-0.019
-194.246	-102.849	0.481	-0.147
-193.231	203.428	0.118	0.238
-192.217	258.493	0.141	-0.315
-191.202	-76.959	0.754	0.339
-190.187	238.237	-0.139	-0.299
-189.173	800.000	0.077	-0.278
-188.158	800.000	-0.074	0.326
-187.144	-135.483	0.196	-0.030
-186.129	733.014	-0.107	0.374
-185.114	142.493	0.129	-0.222
-184.100	-20.974	-0.373	-0.295
-183.085	349.822	0.162	0.414
-182.071	80.139	0.216	0.300
-181.056	250.940	0.200	-0.440
-180.042	-200.000	0.007	-0.195
-179.027	-123.388	-0.224	0.046
-178.012	800.000	0.148	0.602
-176.998	-200.000	0.001	0.216
-175.983	-71.359	-0.280	-0.135
-174.969	800.000	-0.041	0.201
-173.954	-124.184	-0.488	-0.098
-172.939	-110.434	-0.245	0.065
-171.925	-152.896	-0.322	0.029
-170.910	68.238	0.307	0.406
-169.896	800.000	-0.090	0.332
-168.881	-107.972	-0.367	0.102
-167.866	-153.668	0.447	0.039
-166.852	11.107	0.479	-0.472
-165.837	-104.537	0.382	-0.113
-164.823	45.432	0.326	0.389
-163.808	113.619	0.148	0.232
-162.793	-200.000	0.054	0.376
-161.779	684.008	-0.055	-0.185
-160.764	291.116	-0.092	-0.216
-159.750	429.415	-0.076	0.213
-158.735	-162.603	0.228	-0.014
-157.720	275.747	0.019	0.043
-156.706	-125.767	-0.289	0.056
-155.691	259.504	0.098	-0.219
-154.677	-139.887	-0.132	0.018
-153.662	22.841	-0.246	-0.260
-152.647	-34.542	0.424	-0.299
-151.633	-122.898	-0.623	0.128
-150.618	-200.000	-0.031	-0.255
-149.604	-14.161	0.185	0.154
-148.589	730.327	0.119	0.413
-147.574	-111.951	0.378	-0.098
-146.560	621.172	-0.087	0.285
-145.545	165.842	0.075	0.138
-144.531	800.000	-0.121	0.444
-143.516	145.364	-0.201	-0.348
-142.502	-67.752	0.156	-0.078
-141.487	-157.504	-0.214	0.016
-140.472	158.232	-0.095	0.171
-139.458	-117.321	-0.211	-0.049
-138.443	-200.000	0.012	-0.244
-137.429	96.006	-0.113	-0.167
-136.414	-181.498	-0.198	-0.005
-135.399	71.883	0.033	0.044
-134.385	22.543	-0.443	0.467
-133.370	-16.663	-0.140	-0.114
-132.356	406.950	-0.120	0.327
-131.341	3.211	0.305	0.286
-130.326	-173.444	-0.076	-0.003
-129.312	800.000	-0.113	0.470
-128.297	36.451	0.153	-0.174
-127.283	-92.905	0.443	-0.159
-126.268	125.936	0.060	0.097
-125.253	10.270	-0.318	-0.311
-124.239	52.037	-0.030	-0.037
-123.224	-200.000	-0.053	-0.317
-122.210	800.000	-0.051	0.226
-121.195	800.000	0.084	0.344
-120.180	-137.009	-0.702	0.103
-119.166	42.702	0.077	-0.091
-118.151	91.588	0.189	-0.274
-117.137	36.611	0.087	-0.098
-116.122	-200.000	0.033	-0.235
-115.107	-114.929	0.471	-0.115
-114.093	-200.000	0.003	-0.315
-113.078	800.000	0.077	0.354
-112.064	743.417	-0.147	0.511
-111.049	58.054	-0.200	-0.253
-110.034	-93.573	0.377	0.133
-109.020	-47.151	0.173	0.109
-108.005	-57.393	-0.121	-0.068
-106.991	-200.000	-0.012	-0.264
-105.976	-200.000	0.011	0.225
-104.962	-140.474	0.067	-0.009
-103.947	800.000	-0.067	0.335
-102.932	-200.000	-0.006	0.145
-101.918	-85.632	0.399	0.159
-100.903	91.505	-0.065	0.094
-99.889	-113.168	-0.637	0.160
-98.874	92.657	-0.190	-0.277
-97.859	800.000	0.083	-0.348
-96.845	700.355	0.010	0.034
-95.830	800.000	-0.133	-0.552
-94.816	-170.692	-0.226	-0.010
-93.801	39.470	0.267	-0.308
-92.786	-200.000	0.018	-0.116
-91.772	47.009	0.360	0.431
-90.757	542.534	-0.124	0.382
-89.743	-62.333	-0.247	-0.132
-88.728	-75.468	-0.217	-0.099
-87.713	800.000	-0.081	0.349
-86.699	-20.143	-0.064	-0.051
-85.684	-166.534	0.556	0.029
-84.670	26.175	0.176	0.190
-83.655	-55.065	-0.528	-0.305
-82.640	-200.000	0.015	-0.087
-81.626	211.031	0.093	0.189
-80.611	-103.838	-0.373	-0.111
-79.597	-72.465	-0.332	0.157
-78.582	-200.000	0.010	0.373
-77.567	-200.000	-0.003	-0.328
-76.553	-111.788	0.472	0.122
-75.538	-62.408	0.498	-0.265
-74.524	-41.238	0.300	0.198
-73.509	340.097	0.150	-0.377
-72.494	-66.017	-0.131	-0.067
-71.480	132.808	0.068	-0.112
-70.465	-76.934	0.212	-0.095
-69.451	-174.011	0.193	0.007
-68.436	-200.000	0.001	0.093
-67.422	30.215	-0.207	0.227
-66.407	-159.156	-0.179	-0.013
-65.392	-60.974	0.287	0.155
-64.378	228.783	-0.104	0.218
-63.363	34.705	-0.402	0.452
-62.349	54.298	-0.284	-0.352
-61.334	-20.803	-2.493	-1.962
-60.319	-54.495	1.519	0.882
-59.305	231.477	-3.450	-7.293
-58.290	44.628	3.932	4.648
-57.276	625.301	3.215	10.481
-56.261	-200.000	20.280	295.504
-55.246	368.060	1283.331	3348.391
-54.232	53.667	2856.909	3526.890
-53.217	53.917	2682.449	3315.247
-52.203	36.350	2410.378	2731.873
-51.188	31.776	2074.259	2294.676
-50.173	28.266	1957.481	2124.551
-49.159	26.976	1947.054	2098.167
-48.144	26.500	1942.764	2087.946
-47.130	26.471	1939.564	2084.083
-46.115	26.384	1939.286	2082.696
-45.100	26.373	1938.320	2081.451
-44.086	26.497	1935.822	2080.118
-43.071	26.436	1934.432	2077.836
-42.057	26.389	1932.835	2075.498
-41.042	26.380	1931.234	2073.591
-40.027	26.464	1930.327	2073.500
-39.013	26.375	1928.819	2070.779
-37.998	26.556	1925.867	2069.610
-36.984	26.326	1926.549	2067.608
-35.969	26.268	1924.804	2064.991
-34.954	26.310	1923.437	2063.926
-33.940	26.318	1922.152	2062.556
-32.925	26.258	1920.724	2060.258
-31.911	26.288	1919.093	2058.770
-30.896	26.256	1918.240	2057.407
-29.881	26.184	1917.425	2055.625
-28.867	26.312	1915.124	2054.543
-27.852	26.268	1914.145	2052.899
-26.838	26.158	1913.587	2050.965
-25.823	26.214	1911.514	2049.302
-24.809	26.175	1910.106	2047.267
-23.794	26.098	1909.906	2046.099
-22.779	26.225	1907.496	2044.882
-21.765	26.117	1906.879	2042.903
-20.750	26.077	1906.002	2041.430
-19.736	26.067	1904.439	2039.556
-18.721	26.122	1902.928	2038.481
-17.706	26.123	1902.514	2037.978
-16.692	26.077	1901.333	2036.110
-15.677	26.038	1900.477	2034.670
-14.663	25.997	1898.967	2032.500
-13.648	26.000	1897.289	2030.662
-12.633	26.082	1895.705	2029.809
-11.619	26.027	1895.074	2028.431
-10.604	26.085	1892.377	2026.124
-9.590	26.015	1891.966	2024.816
-8.575	26.018	1890.763	2023.478
-7.560	26.027	1889.309	2021.945
-6.546	26.023	1888.035	2020.451
-5.531	26.040	1886.383	2018.800
-4.517	25.976	1885.944	2017.532
-3.502	25.978	1884.647	2016.085
-2.487	25.983	1884.273	2015.661
-1.473	26.157	1879.401	2012.321
-0.458	25.450	1862.335	1986.115
0.556	21.252	2005.895	2076.652
1.571	19.288	2210.888	2262.710
2.586	20.010	2251.691	2313.885
3.600	20.012	2254.574	2316.598
4.615	20.050	2252.875	2315.092
5.629	19.980	2251.328	2312.289
6.644	19.987	2249.053	2309.761
7.659	19.910	2248.243	2307.623
8.673	20.038	2245.708	2306.455
9.688	19.873	2253.853	2312.327
10.702	18.801	2332.535	2377.853
11.717	16.798	2397.937	2415.565
12.731	8.120	2376.714	2270.147
13.746	1.171	2357.063	2152.224
14.761	0.260	2353.646	2135.877
15.775	0.061	2352.837	2132.053
16.790	0.020	2351.356	2129.859
17.804	0.069	2349.723	2128.835
18.819	0.205	2348.368	2129.274
19.834	0.080	2346.195	2125.283
20.848	-0.087	2346.331	2122.780
21.863	0.058	2343.073	2121.632
22.877	0.034	2341.107	2119.253
23.892	0.100	2339.194	2118.209
24.907	0.009	2336.992	2114.677
25.921	-0.008	2335.622	2112.944
26.936	-0.076	2332.996	2109.349
27.950	0.036	2330.870	2108.760
28.965	-0.007	2328.277	2105.555
29.980	-0.003	2326.841	2104.063
30.994	0.057	2324.770	2102.768
32.009	3.934	2336.159	2167.489
33.023	13.537	2364.782	2330.133
34.038	17.738	2371.934	2396.362
35.053	17.764	2368.986	2393.462
36.067	17.554	2366.499	2387.704
37.082	17.358	2364.109	2382.257
38.096	17.522	2361.801	2381.947
39.111	17.913	2359.173	2384.504
40.126	18.044	2358.158	2385.023
41.140	18.142	2357.148	2385.092
42.155	18.201	2355.429	2383.890
43.169	18.161	2353.041	2380.637
44.184	17.975	2349.324	2373.988
45.199	17.894	2346.512	2369.732
46.213	18.028	2347.457	2372.269
47.228	18.201	2346.723	2373.660
48.242	18.208	2343.931	2370.652
49.257	18.314	2342.224	2370.114
50.271	18.442	2339.948	2369.313
51.286	18.134	2337.227	2361.988
52.301	17.762	2335.070	2354.377
53.315	18.709	2338.778	2370.979
54.330	22.057	2347.819	2426.431
55.344	24.156	2350.170	2457.718
56.359	24.566	2346.589	2459.351
57.374	24.481	2347.034	2458.354
58.388	24.632	2343.869	2456.835
59.403	24.334	2339.622	2447.969
60.417	24.067	2334.921	2439.084
61.432	24.028	2333.997	2437.285
62.447	24.239	2333.193	2439.067
63.461	24.418	2331.161	2439.112
64.476	24.559	2329.002	2438.489
65.490	24.231	2327.238	2431.849
66.505	23.309	2323.411	2414.927
67.520	21.039	2313.932	2373.774
68.534	18.400	2305.100	2328.422
69.549	17.739	2299.876	2313.855
70.563	17.729	2295.593	2309.131
71.578	17.554	2295.211	2306.096
72.593	17.748	2294.358	2307.602
73.607	17.844	2292.925	2307.188
74.622	17.822	2290.445	2304.111
75.636	17.676	2287.254	2298.648
76.651	17.632	2285.020	2295.535
77.666	17.622	2282.372	2292.467
78.680	17.544	2279.439	2288.184
79.695	17.341	2277.363	2283.087
80.709	17.102	2275.864	2278.086
81.724	17.204	2273.222	2276.554
82.739	17.144	2271.619	2273.865
83.753	17.241	2269.566	2272.837
84.768	16.991	2268.592	2268.235
85.782	16.933	2266.505	2265.101
86.797	16.943	2263.785	2262.243
87.812	16.966	2262.071	2260.563
88.826	17.108	2260.860	2260.984
89.841	17.145	2258.226	2258.581
90.855	17.152	2255.011	2255.189
91.870	17.127	2255.066	2254.633
92.884	17.223	2253.066	2253.648
93.899	17.210	2251.045	2251.181
94.914	17.986	2255.600	2265.821
95.928	21.058	2264.727	2315.772
96.943	22.102	2262.816	2327.446
97.957	19.095	2251.074	2275.202
98.972	17.057	2244.738	2241.496
99.987	17.004	2240.534	2236.337
101.001	17.126	2237.532	2234.682
102.016	17.056	2235.998	2231.962
103.030	17.102	2233.533	2229.834
104.045	16.969	2231.920	2226.205
105.060	17.023	2229.145	2223.878
106.074	17.240	2227.051	2224.377
107.089	17.248	2226.748	2223.912
108.103	17.322	2225.100	2222.981
109.118	17.289	2224.331	2221.514
110.133	17.401	2222.888	2221.269
111.147	17.305	2220.229	2217.087
112.162	17.277	2218.696	2214.928
113.176	17.572	2216.863	2216.698
114.191	17.582	2215.976	2215.678
115.206	17.574	2214.996	2214.318
116.220	17.535	2211.298	2209.855
117.235	17.595	2209.717	2208.789
118.249	17.646	2207.703	2207.178
119.264	17.599	2206.647	2205.244
120.279	17.522	2205.472	2202.804
121.293	17.578	2202.717	2200.521
122.308	17.632	2201.606	2199.848
123.322	17.529	2201.015	2197.652
124.337	17.980	2201.880	2204.109
125.352	21.147	2210.661	2253.804
126.366	21.924	2209.192	2262.103
127.381	18.983	2197.016	2211.414
128.395	17.562	2191.812	2187.575
129.410	17.516	2188.499	2183.419
130.424	17.387	2187.396	2180.398
131.439	17.498	2185.717	2179.895
132.454	17.542	2184.673	2179.156
133.468	17.694	2182.815	2178.995
134.483	17.966	2180.846	2180.262
135.497	17.929	2178.934	2177.610
136.512	17.748	2176.433	2172.535
137.527	17.693	2174.658	2169.801
138.541	17.389	2173.269	2164.264
139.556	17.262	2172.656	2161.772
140.570	17.289	2170.709	2159.917
141.585	17.339	2168.570	2158.171
142.600	17.346	2167.035	2156.475
143.614	17.285	2165.241	2153.654
144.629	17.128	2163.298	2149.472
145.643	16.936	2162.077	2145.559
146.658	17.090	2159.903	2145.095
147.673	16.986	2157.319	2140.958
148.687	17.027	2156.653	2140.556
149.702	17.161	2155.791	2141.138
150.716	17.167	2153.838	2139.018
151.731	17.227	2152.484	2138.184
152.746	17.246	2152.240	2137.921
153.760	18.128	2156.021	2152.595
154.775	21.267	2165.251	2201.371
155.789	22.445	2163.518	2214.239
156.804	19.528	2149.991	2163.450
157.819	17.410	2143.692	2130.217
158.833	17.043	2139.760	2121.454
159.848	17.178	2137.689	2120.833
160.862	17.286	2136.683	2120.933
161.877	17.362	2136.566	2121.527
162.892	17.549	2135.747	2122.796
163.906	17.521	2134.265	2120.722
164.921	17.427	2132.012	2117.045
165.935	17.388	2129.810	2114.126
166.950	17.569	2128.717	2115.043
167.964	17.530	2126.554	2112.157
168.979	17.308	2124.016	2106.617
169.994	17.155	2122.640	2103.093
171.008	17.188	2119.586	2100.234
172.023	17.057	2118.946	2097.712
173.037	17.281	2117.898	2099.214
174.052	17.361	2116.731	2098.789
175.067	17.450	2115.382	2098.303
176.081	17.511	2112.843	2096.295
177.096	17.503	2112.446	2095.552
178.110	17.632	2110.762	2095.223
179.125	17.618	2110.124	2094.164
180.140	17.539	2109.077	2091.893
181.154	17.560	2108.153	2090.987
182.169	17.858	2108.006	2094.266
183.183	18.790	2110.396	2107.898
184.198	22.219	2117.550	2157.151
185.213	22.769	2114.482	2160.543
186.227	19.385	2104.160	2108.226
187.242	17.928	2100.516	2086.446
188.256	17.767	2097.598	2081.319
189.271	17.513	2095.058	2075.433
190.286	17.407	2093.351	2072.202
191.300	17.481	2091.398	2070.922
192.315	17.515	2089.899	2069.613
193.329	17.732	2088.621	2070.747
194.344	18.024	2088.112	2073.549
195.359	18.120	2086.805	2073.173
196.373	17.721	2083.697	2064.990
197.388	17.523	2081.753	2060.404
198.402	17.480	2078.968	2056.876
199.417	17.282	2076.956	2052.233
200.432	17.454	2074.718	2051.871
201.446	17.449	2073.389	2050.247
202.461	17.274	2072.009	2046.520
203.475	17.224	2070.789	2044.459
204.490	17.208	2068.579	2041.840
205.504	17.177	2066.353	2039.026
206.519	17.240	2064.477	2037.689
207.534	17.245	2063.002	2036.055
208.548	17.240	2062.025	2034.787
209.563	17.359	2061.141	2035.098
210.577	17.559	2060.202	2036.337
211.592	17.528	2059.450	2034.969
212.607	19.057	2064.560	2058.179
213.621	22.709	2072.990	2110.330
214.636	22.278	2066.389	2098.192
215.650	18.737	2056.326	2045.397
216.665	17.667	2052.644	2028.694
217.680	17.396	2050.646	2023.239
218.694	17.298	2048.649	2019.855
219.709	17.243	2046.091	2016.441
220.723	17.405	2044.894	2016.947
221.738	17.410	2044.282	2016.158
222.753	17.778	2040.997	2017.058
223.767	17.552	2040.010	2013.152
224.782	17.669	2038.367	2012.680
225.796	17.415	2038.038	2009.097
226.811	17.527	2035.365	2007.556
227.826	17.541	2033.928	2006.056
228.840	17.426	2032.281	2002.835
229.855	17.391	2030.939	2000.860
230.869	17.406	2029.480	1999.355
231.884	17.406	2027.735	1997.398
232.899	17.510	2026.392	1997.068
233.913	17.668	2025.412	1997.719
234.928	17.630	2024.574	1996.211
235.942	17.526	2022.725	1992.921
236.957	17.646	2021.772	1993.155
237.972	17.612	2021.376	1992.132
238.986	17.568	2019.657	1989.677
240.001	17.627	2017.538	1988.050
241.015	17.758	2016.868	1988.688
242.030	18.518	2019.559	2000.016
243.045	21.638	2026.210	2043.005
244.059	22.220	2022.661	2045.995
245.074	19.138	2012.202	1999.252
246.088	18.117	2008.463	1983.391
247.103	18.141	2007.380	1982.370
248.117	18.071	2005.352	1979.309
249.132	17.813	2003.301	1974.049
250.147	17.838	2001.103	1971.938
251.161	17.929	1999.189	1970.873
252.176	18.037	1998.528	1971.234
253.190	18.090	1997.230	1970.339
254.205	18.194	1995.615	1969.716
255.220	18.153	1994.539	1967.943
256.234	18.102	1992.984	1965.585
257.249	17.803	1990.558	1959.505
258.263	17.617	1989.304	1955.885
259.278	17.484	1988.349	1953.175
260.293	17.356	1986.637	1949.785
261.307	17.418	1983.717	1947.401
262.322	17.243	1982.240	1943.708
263.336	17.218	1981.178	1942.147
264.351	17.134	1978.732	1938.551
265.366	17.161	1977.194	1937.126
266.380	17.095	1977.336	1936.278
267.395	17.082	1975.407	1934.007
268.409	17.154	1973.759	1932.988
269.424	17.251	1972.446	1932.570
270.439	17.427	1972.353	1934.258
271.453	18.537	1975.510	1949.821
272.468	21.924	1982.059	1994.824
273.482	22.251	1978.023	1994.253
274.497	18.947	1966.529	1944.923
275.512	17.440	1961.568	1922.686
276.526	17.333	1959.487	1919.203
277.541	17.161	1958.109	1915.669
278.555	17.137	1955.855	1912.961
279.570	17.096	1954.731	1911.173
280.585	17.244	1953.528	1911.443
281.599	17.432	1952.257	1912.091
282.614	17.494	1951.924	1912.237
283.628	17.897	1951.439	1916.080
284.643	18.098	1949.838	1916.548
285.657	18.282	1949.264	1917.823
286.672	18.326	1947.634	1916.478
287.687	18.123	1946.236	1912.602
288.701	18.028	1945.079	1910.163
289.716	17.979	1943.616	1907.947
290.730	18.241	1941.144	1908.228
291.745	18.225	1940.198	1906.888
292.760	18.177	1939.902	1905.832
293.774	18.215	1938.503	1904.656
294.789	18.147	1937.290	1902.473
295.803	17.974	1934.860	1897.933
296.818	17.886	1933.985	1895.866
297.833	17.995	1932.118	1895.027
298.847	17.860	1930.791	1891.985
299.862	17.786	1929.769	1889.936
300.876	18.714	1931.162	1901.407
301.891	22.133	1938.847	1946.899
302.906	22.547	1936.230	1948.634
303.920	19.093	1925.870	1899.722
304.935	18.062	1921.625	1883.892
305.949	17.789	1920.123	1879.171
306.964	17.814	1918.460	1877.601
307.979	18.067	1917.190	1878.923
308.993	18.226	1916.160	1879.450
310.008	18.423	1915.256	1880.509
311.022	18.550	1913.409	1879.867
312.037	18.723	1912.331	1880.490
313.052	18.950	1911.486	1881.928
314.066	18.464	1908.997	1873.916
315.081	18.211	1907.221	1869.168
316.095	17.992	1905.075	1864.445
317.110	17.704	1903.271	1859.299
318.125	17.660	1901.485	1856.840
319.139	17.755	1899.432	1855.653
320.154	17.849	1898.770	1855.812
321.168	17.654	1897.799	1852.516
322.183	17.606	1894.721	1848.768
323.197	17.341	1893.868	1844.822
324.212	17.275	1891.169	1841.252
325.227	17.256	1889.439	1839.146
326.241	17.111	1888.121	1836.068
327.256	17.200	1887.404	1836.114
328.270	17.201	1886.268	1834.795
329.285	17.246	1886.796	1835.578
330.300	18.368	1892.046	1852.674
331.314	22.039	1898.830	1899.078
332.329	22.224	1892.385	1894.411
333.343	18.797	1881.869	1846.688
334.358	17.340	1877.786	1826.741
335.373	17.245	1875.633	1823.398
336.387	17.079	1873.735	1819.543
337.402	17.010	1873.160	1818.033
338.416	17.270	1871.846	1819.336
339.431	17.392	1870.537	1819.153
340.446	17.404	1868.629	1817.211
341.460	17.404	1868.505	1816.875
342.475	17.840	1866.918	1819.784
343.489	18.037	1865.377	1820.173
344.504	17.838	1865.521	1817.973
345.519	17.957	1863.325	1816.886
346.533	18.165	1861.260	1816.876
347.548	18.229	1860.756	1816.842
348.562	18.396	1860.755	1818.409
349.577	19.274	1862.592	1829.360
350.592	19.793	1862.096	1834.192
351.606	19.526	1859.448	1828.519
352.621	19.123	1855.884	1820.509
353.635	18.511	1854.285	1812.221
354.650	18.155	1852.199	1806.192
355.665	17.882	1849.583	1800.528
356.679	17.831	1848.218	1798.444
357.694	17.704	1846.796	1795.504
358.708	17.674	1845.272	1793.492
359.723	19.060	1850.306	1812.852
360.738	22.568	1856.141	1855.548
361.752	22.135	1850.872	1845.489
362.767	18.934	1841.994	1802.730
363.781	17.934	1838.363	1788.442
364.796	17.804	1836.309	1784.865
365.810	17.679	1835.023	1782.081
366.825	17.672	1834.252	1781.047
367.840	17.762	1834.200	1781.726
368.854	18.257	1833.889	1786.414
369.869	18.616	1832.701	1788.801
370.883	18.275	1830.069	1782.445
371.898	18.139	1829.333	1780.091
372.913	17.810	1827.311	1774.475
373.927	17.873	1826.043	1773.694
374.942	17.854	1824.701	1771.979
375.956	17.869	1823.594	1770.841
376.971	18.039	1820.679	1769.570
377.986	17.764	1819.042	1764.910
379.000	17.679	1817.335	1762.156
380.015	17.701	1816.598	1761.457
381.029	17.551	1814.927	1758.072
382.044	17.241	1813.057	1752.838
383.059	17.300	1810.349	1750.625
384.073	17.253	1809.926	1749.515
385.088	17.347	1809.822	1750.185
386.102	17.353	1807.935	1748.209
387.117	17.344	1805.987	1746.021
388.132	17.517	1805.415	1747.046
389.146	18.603	1810.008	1762.502
390.161	22.098	1815.849	1804.116
391.175	21.919	1809.740	1795.992
392.190	18.677	1800.015	1752.903
393.205	17.827	1795.539	1739.622
394.219	17.606	1793.523	1735.203
395.234	17.402	1793.482	1732.861
396.248	17.419	1791.589	1731.007
397.263	17.267	1787.974	1725.757
398.278	17.319	1787.101	1725.228
399.292	17.361	1786.064	1724.449
400.307	17.377	1786.051	1724.396
401.321	17.704	1785.231	1726.725
402.336	17.684	1784.160	1725.280
403.350	17.689	1782.025	1723.062
404.365	17.831	1781.033	1723.341
405.380	17.995	1780.485	1724.270
406.394	18.173	1781.211	1726.572
407.409	18.798	1780.191	1731.705
408.423	18.917	1778.728	1731.288
409.438	18.575	1776.483	1725.429
410.453	18.248	1774.988	1720.469
411.467	18.268	1773.915	1719.422
412.482	18.097	1772.789	1716.405
413.496	17.835	1769.832	1710.699
414.511	17.872	1767.161	1708.276
415.526	17.872	1765.499	1706.468
416.540	17.650	1763.831	1702.423
417.555	17.636	1763.963	1702.206
418.569	17.897	1764.226	1704.881
419.584	17.966	1763.391	1704.560
420.599	17.894	1763.615	1703.847
421.613	17.791	1762.160	1701.208
422.628	17.646	1760.655	1698.093
423.642	17.791	1757.773	1696.567
424.657	17.867	1756.340	1695.738
425.672	17.837	1756.920	1695.794
426.686	18.042	1754.808	1695.598
427.701	17.921	1753.478	1692.901
428.715	18.085	1752.021	1692.925
429.730	18.198	1750.923	1692.791
430.745	18.211	1748.866	1690.725
431.759	18.318	1748.355	1691.098
432.774	18.455	1749.633	1693.486
433.788	18.852	1750.313	1697.883
434.803	19.143	1748.794	1699.094
435.818	19.105	1748.648	1698.373
436.832	19.064	1747.483	1696.630
437.847	18.126	1740.744	1680.620
438.861	10.420	1719.101	1584.073
439.876	1.932	1703.186	1486.319
440.890	0.270	1699.730	1466.872
441.905	0.157	1698.280	1464.343
442.920	0.172	1697.255	1463.431
443.934	0.212	1695.257	1461.915
444.949	0.096	1694.407	1459.880
445.963	0.058	1694.192	1459.146
446.978	0.086	1693.306	1458.485
447.993	0.138	1691.259	1457.049
449.007	0.133	1689.158	1455.018
450.022	0.086	1687.511	1452.974
451.036	0.130	1686.163	1452.063
452.051	1.031	1690.616	1464.481
453.066	8.977	1708.595	1557.677
454.080	17.409	1721.997	1652.345
455.095	19.601	1726.499	1677.895
456.109	20.616	1727.165	1688.250
457.124	21.009	1727.203	1691.917
458.139	21.105	1726.752	1692.210
459.153	21.391	1726.207	1694.259
460.168	21.388	1723.800	1691.668
461.182	21.189	1722.536	1688.291
462.197	21.120	1720.397	1685.322
463.212	20.915	1717.967	1680.753
464.226	20.964	1716.798	1679.878
465.241	21.296	1716.382	1682.484
466.255	21.501	1715.874	1683.774
467.270	21.510	1714.637	1682.444
468.285	21.068	1712.542	1675.913
469.299	21.005	1710.786	1673.388
470.314	21.210	1709.411	1673.825
471.328	21.247	1708.124	1672.718
472.343	21.303	1707.378	1672.326
473.358	21.339	1706.189	1671.303
474.372	21.340	1704.932	1669.879
475.387	21.239	1703.053	1666.874
476.401	20.911	1701.844	1662.351
477.416	20.995	1700.424	1661.566
478.430	21.173	1698.847	1661.528
479.445	20.939	1697.818	1658.087
480.460	20.706	1696.460	1654.335
481.474	21.023	1695.414	1656.148
482.489	21.446	1694.842	1659.420
483.503	21.672	1693.756	1660.311
484.518	21.576	1693.080	1658.542
485.533	21.572	1691.453	1656.709
486.547	21.409	1690.119	1653.650
487.562	21.852	1689.756	1657.306
488.576	21.819	1688.000	1655.076
489.591	21.769	1685.325	1651.783
490.606	21.471	1684.525	1647.978
491.620	21.621	1683.033	1647.738
492.635	22.000	1682.150	1650.262
493.649	22.104	1681.210	1650.126
494.664	21.670	1678.876	1643.538
495.679	20.939	1676.457	1634.090
496.693	21.090	1675.445	1634.329
497.708	21.389	1675.227	1636.739
498.722	21.900	1674.432	1640.571
499.737	22.003	1673.278	1640.207
500.752	21.605	1671.300	1634.343
501.766	21.450	1669.425	1630.857
502.781	21.732	1667.671	1631.592
503.795	21.674	1666.221	1629.431
504.810	21.609	1666.072	1628.480
505.825	21.986	1665.613	1631.365
506.839	21.929	1663.811	1628.873
507.854	21.865	1663.347	1627.621
508.868	21.902	1661.405	1625.875
509.883	21.902	1660.824	1625.109
510.898	22.169	1659.662	1626.262
511.912	22.087	1657.172	1622.867
512.927	21.510	1656.236	1616.402
513.941	21.557	1654.895	1615.333
514.956	21.505	1652.711	1612.525
515.971	21.589	1650.814	1611.260
516.985	21.640	1650.663	1611.394
518.000	21.809	1650.865	1612.959
519.014	22.170	1650.193	1615.446
520.029	22.204	1648.334	1613.749
521.043	22.176	1646.893	1611.879
522.058	22.109	1645.011	1609.229
523.073	22.092	1645.331	1609.192
524.087	22.685	1644.580	1613.728
525.102	22.551	1642.584	1610.343
526.116	21.775	1641.044	1601.516
527.131	21.887	1639.464	1600.810
528.146	22.297	1640.110	1605.008
529.160	22.516	1638.442	1605.187
530.175	22.485	1637.756	1604.047
531.189	22.554	1637.257	1603.990
532.204	22.522	1635.353	1601.643
533.219	22.135	1632.450	1595.079
534.233	21.857	1631.339	1591.265
535.248	22.139	1630.861	1593.178
536.262	22.815	1630.878	1599.163
537.277	22.601	1629.965	1596.126
538.292	22.294	1627.223	1590.463
539.306	22.189	1625.931	1588.056
540.321	22.175	1624.335	1586.183
541.335	21.992	1622.696	1582.730
542.350	22.204	1621.238	1583.037
543.365	22.414	1620.851	1584.376
544.379	22.749	1619.716	1586.104
545.394	22.822	1617.934	1584.822
546.408	22.306	1615.184	1577.295
547.423	21.629	1614.612	1570.443
548.438	21.495	1614.238	1568.690
549.452	22.082	1612.833	1572.411
550.467	22.337	1611.158	1572.884
551.481	22.272	1611.116	1572.070
552.496	22.546	1610.946	1574.178
553.511	22.927	1610.022	1576.510
554.525	22.751	1608.710	1573.458
555.540	22.893	1608.238	1574.081
556.554	22.958	1607.245	1573.496
557.569	22.720	1605.478	1569.451
558.583	22.716	1602.727	1566.544
559.598	22.799	1601.616	1566.009
560.613	22.603	1601.934	1564.383
561.627	22.725	1599.992	1563.386
562.642	22.898	1600.057	1564.804
563.656	23.280	1598.533	1566.526
564.671	23.308	1596.815	1564.899
565.686	23.246	1595.061	1562.446
566.700	22.865	1593.494	1557.340
567.715	22.613	1591.673	1553.150
568.729	22.367	1589.919	1549.070
569.744	21.994	1588.082	1543.799
570.759	22.129	1587.207	1543.961
571.773	22.426	1586.331	1545.540
572.788	22.674	1586.214	1547.429
573.802	22.781	1584.797	1546.808
574.817	23.023	1583.925	1547.900
575.832	23.259	1583.432	1549.306
576.846	23.269	1581.487	1547.309
577.861	22.957	1579.945	1542.875
578.875	23.089	1580.029	1543.932
579.890	23.362	1579.023	1545.158
580.905	23.456	1577.722	1544.523
581.919	23.599	1576.853	1544.739
582.934	23.548	1576.533	1543.797
583.948	23.609	1575.663	1543.291
584.963	23.555	1572.902	1539.929
585.978	23.035	1571.780	1534.117
586.992	23.081	1572.030	1534.580
588.007	23.375	1570.541	1535.502
589.021	22.749	1567.947	1527.337
590.036	22.114	1565.846	1519.590
591.051	22.686	1565.544	1524.080
592.065	23.174	1564.482	1527.103
593.080	23.294	1563.553	1527.049
594.094	23.481	1561.403	1526.385
595.109	22.826	1558.677	1517.880
596.123	22.444	1557.226	1512.983
597.138	22.887	1557.554	1516.952
598.153	23.337	1556.143	1519.274
599.167	23.150	1555.424	1516.782
600.182	23.258	1554.740	1516.859
601.196	23.346	1553.925	1516.642
602.211	23.286	1552.843	1514.884
603.226	23.558	1551.823	1516.050
604.240	23.719	1550.583	1516.039
605.255	23.979	1549.558	1517.084
606.269	23.773	1548.748	1514.340
607.284	23.641	1547.405	1511.720
608.299	23.699	1546.075	1510.734
609.313	23.392	1544.187	1506.088
610.328	23.560	1543.822	1506.985
611.342	23.766	1542.159	1506.934
612.357	23.831	1542.303	1507.452
613.372	23.978	1540.074	1506.346
614.386	23.725	1539.062	1503.019
615.401	23.834	1538.895	1503.604
616.415	23.739	1538.616	1502.343
617.430	23.907	1537.582	1502.583
618.445	24.028	1536.598	1502.472
619.459	23.659	1534.780	1497.381
620.474	23.440	1532.361	1492.993
621.488	22.766	1530.506	1485.301
622.503	22.423	1529.706	1481.452
623.518	23.081	1529.724	1486.849
624.532	23.714	1528.774	1491.099
625.547	23.911	1528.235	1492.051
626.561	24.310	1526.902	1493.935
627.576	24.382	1526.708	1494.166
628.591	23.575	1524.045	1484.601
629.605	23.201	1521.986	1479.275
630.620	23.076	1520.394	1476.501
631.634	22.634	1518.430	1470.710
632.649	22.707	1518.881	1471.585
633.663	23.270	1518.387	1475.645
634.678	23.908	1517.775	1480.219
635.693	24.337	1516.036	1481.928
636.707	24.343	1515.269	1481.050
637.722	24.705	1514.388	1483.028
638.736	24.556	1513.834	1481.069
639.751	24.441	1512.064	1478.205
640.766	24.368	1510.490	1475.879
641.780	24.345	1509.035	1474.088
642.795	24.334	1508.080	1472.890
643.809	24.343	1508.177	1472.887
644.824	24.258	1507.054	1470.905
645.839	24.287	1505.870	1469.815
646.853	24.393	1504.231	1468.915
647.868	24.262	1502.035	1465.513
648.882	24.136	1501.095	1463.379
649.897	24.011	1500.155	1461.260
650.912	24.054	1499.530	1460.832
651.926	24.058	1497.985	1459.185
652.941	23.712	1495.682	1453.920
653.955	23.205	1493.178	1447.143
654.970	22.731	1490.913	1440.884
655.985	22.833	1489.042	1439.738
656.999	22.803	1488.635	1438.924
658.014	23.132	1488.796	1441.607
659.028	23.697	1488.269	1445.548
660.043	23.865	1487.708	1446.203
661.058	24.103	1486.542	1446.845
662.072	24.127	1486.370	1446.694
663.087	24.090	1484.862	1444.756
664.101	24.120	1483.571	1443.571
665.116	24.271	1482.851	1443.925
666.131	24.378	1481.796	1443.599
667.145	24.295	1481.273	1442.235
668.160	24.492	1480.194	1442.612
669.174	24.882	1478.784	1444.230
670.189	24.771	1477.196	1441.608
671.204	24.422	1476.314	1437.752
672.218	24.354	1475.812	1436.539
673.233	24.732	1474.319	1437.973
674.247	24.884	1473.689	1438.410
675.262	24.942	1473.233	1438.264
676.276	24.897	1471.988	1436.508
677.291	24.606	1470.836	1432.867
678.306	24.418	1469.298	1429.688
679.320	24.453	1467.488	1428.032
680.335	24.631	1467.765	1429.567
681.349	24.876	1467.130	1430.744
682.364	24.797	1465.359	1428.209
683.379	24.825	1463.937	1426.878
684.393	24.824	1462.778	1425.574
685.408	24.745	1462.295	1424.294
686.422	24.695	1460.363	1421.848
687.437	24.764	1460.159	1422.029
688.452	24.994	1460.443	1423.971
689.466	24.816	1458.123	1420.118
690.481	24.598	1456.947	1417.065
691.495	24.260	1454.697	1412.019
692.510	23.589	1452.448	1404.330
693.525	23.279	1450.075	1399.406
694.539	23.553	1450.803	1402.121
695.554	24.364	1451.365	1408.933
696.568	24.713	1451.610	1411.774
697.583	24.903	1450.615	1412.145
698.598	24.988	1449.670	1411.726
699.612	25.125	1448.283	1411.290
700.627	25.139	1447.385	1410.358
701.641	25.025	1445.412	1407.370
702.656	25.093	1443.757	1406.125
703.671	25.325	1444.423	1408.436
704.685	25.336	1443.960	1407.902
705.700	25.258	1441.704	1404.921
706.714	24.954	1439.595	1400.306
707.729	24.699	1438.030	1396.612
708.744	24.631	1436.795	1394.713
709.758	24.597	1435.282	1392.815
710.773	23.860	1433.691	1385.333
711.787	23.823	1431.150	1382.424
712.802	24.188	1431.056	1385.020
713.816	24.369	1431.086	1386.295
714.831	24.761	1430.099	1388.235
715.846	25.028	1429.699	1389.760
716.860	24.957	1429.016	1388.376
717.875	25.071	1427.341	1387.473
718.889	25.068	1426.288	1386.253
719.904	25.126	1425.536	1385.810
720.919	25.166	1424.300	1384.753
721.933	25.304	1424.258	1385.618
722.948	25.331	1423.228	1384.660
723.962	25.286	1421.956	1382.905
724.977	25.403	1420.520	1382.249
725.992	25.518	1419.743	1382.220
727.006	25.411	1418.362	1379.879
728.021	25.532	1416.936	1379.260
729.035	25.474	1416.564	1378.290
730.050	25.374	1415.674	1376.484
731.065	25.456	1413.899	1375.224
732.079	25.621	1413.166	1375.618
733.094	25.379	1411.581	1372.054
734.108	25.211	1410.531	1369.574
735.123	25.295	1408.853	1368.427
736.138	25.360	1407.696	1367.638
737.152	25.309	1407.624	1367.014
738.167	25.499	1406.803	1367.510
739.181	25.665	1405.474	1367.319
740.196	25.673	1404.636	1366.401
741.211	25.575	1404.121	1364.993
742.225	25.415	1403.201	1362.711
743.240	25.407	1402.139	1361.454
744.254	25.416	1400.382	1359.655
745.269	25.472	1399.142	1358.717
746.284	25.414	1397.512	1356.526
747.298	25.265	1396.050	1353.818
748.313	24.700	1395.180	1348.532
749.327	24.171	1393.409	1342.651
750.342	23.834	1390.343	1336.984
751.356	23.417	1388.669	1332.068
752.371	23.686	1389.359	1334.607
753.386	24.636	1390.077	1342.311
754.400	25.352	1389.815	1347.299
755.415	25.737	1388.443	1348.707
756.429	25.852	1387.550	1348.544
757.444	25.561	1386.832	1345.495
758.459	25.729	1385.960	1345.751
759.473	25.889	1384.712	1345.581
760.488	25.803	1383.717	1343.806
761.502	25.603	1382.528	1340.994
762.517	25.695	1380.939	1339.980
763.532	25.499	1379.463	1336.921
764.546	25.047	1377.880	1331.848
765.561	24.381	1376.566	1325.448
766.575	23.737	1374.387	1318.389
767.590	23.696	1373.385	1316.967
768.605	24.393	1373.428	1322.044
769.619	24.940	1373.110	1325.647
770.634	25.217	1372.316	1326.781
771.648	25.528	1371.960	1328.588
772.663	25.684	1371.508	1329.156
773.678	25.809	1370.332	1328.779
774.692	25.983	1368.889	1328.513
775.707	25.977	1368.266	1327.705
776.721	26.000	1367.989	1327.444
777.736	25.876	1367.105	1325.511
778.751	25.864	1366.273	1324.460
779.765	25.853	1364.819	1322.812
780.780	25.919	1364.116	1322.455
781.794	25.865	1363.256	1321.065
782.809	25.678	1361.993	1318.306
783.824	25.457	1360.783	1315.349
784.838	24.972	1358.211	1309.143
785.853	24.149	1356.101	1300.916
786.867	24.478	1355.810	1302.895
787.882	24.822	1356.223	1305.663
788.897	25.053	1356.221	1307.195
789.911	25.096	1355.926	1307.067
790.926	25.452	1354.490	1308.137
791.940	25.680	1352.563	1307.780
792.955	25.800	1351.068	1307.055
793.969	25.836	1350.340	1306.455
794.984	25.860	1349.927	1306.075
795.999	25.913	1348.955	1305.368
797.013	26.022	1347.447	1304.543
798.028	25.894	1346.597	1302.634
799.042	26.067	1345.601	1302.767
800.057	26.101	1344.432	1301.731
801.072	26.094	1343.662	1300.780
802.086	26.024	1341.862	1298.373
803.101	26.047	1341.514	1298.049
804.115	26.056	1340.207	1296.690
805.130	26.072	1338.937	1295.423
806.145	26.077	1337.541	1293.955
807.159	25.989	1336.185	1291.855
808.174	25.750	1335.151	1288.982
809.188	25.732	1333.720	1287.311
810.203	25.560	1331.028	1283.330
811.218	25.085	1329.464	1278.266
812.232	24.591	1327.649	1272.827
813.247	24.134	1327.115	1268.888
814.261	24.932	1327.478	1274.802
815.276	25.480	1327.107	1278.208
816.291	25.724	1326.791	1279.498
817.305	25.900	1326.173	1280.004
818.320	25.954	1325.164	1279.262
819.334	26.101	1323.580	1278.629
820.349	26.183	1322.066	1277.594
821.364	26.016	1321.222	1275.440
822.378	26.158	1319.030	1274.176
823.393	26.323	1317.783	1273.988
824.407	26.200	1317.147	1272.347
825.422	25.971	1316.811	1270.254
826.437	26.052	1314.591	1268.532
827.451	25.671	1312.321	1263.500
828.466	24.782	1310.403	1255.238
829.480	24.536	1308.235	1251.274
830.495	24.937	1307.008	1252.771
831.509	25.421	1307.511	1256.510
832.524	25.617	1308.039	1258.241
833.539	25.793	1306.914	1258.249
834.553	26.127	1304.832	1258.433
835.568	26.236	1303.794	1258.048
836.582	26.211	1303.341	1257.284
837.597	26.328	1301.755	1256.418
838.612	26.136	1299.918	1253.159
839.626	25.871	1299.139	1250.406
840.641	25.626	1297.484	1246.960
841.655	25.194	1296.178	1242.548
842.670	24.597	1293.991	1236.150
843.685	23.998	1292.695	1230.603
844.699	24.907	1292.497	1236.583
845.714	25.485	1291.435	1239.426
846.728	25.691	1291.211	1240.490
847.743	25.916	1290.947	1241.646
848.758	26.132	1290.005	1242.081
849.772	26.233	1288.851	1241.523
850.787	26.381	1287.424	1241.018
851.801	26.081	1286.643	1238.047
852.816	26.103	1284.953	1236.424
853.831	25.927	1284.021	1234.172
854.845	25.951	1281.857	1232.109
855.860	25.820	1279.493	1228.789
856.874	25.580	1278.256	1225.809
857.889	25.462	1276.523	1223.199
858.904	24.905	1274.636	1217.434
859.918	24.509	1272.414	1212.462
860.933	24.192	1271.104	1208.907
861.947	24.656	1271.999	1212.779
862.962	25.164	1270.911	1215.059
863.977	25.358	1270.059	1215.420
864.991	25.485	1269.946	1216.027
866.006	25.807	1269.753	1217.889
867.020	25.936	1269.056	1217.947
868.035	25.989	1268.206	1217.351
869.049	26.173	1267.425	1217.701
870.064	26.296	1266.127	1217.138
871.079	26.251	1265.154	1215.753
872.093	25.954	1264.379	1212.857
873.108	25.859	1263.154	1210.894
874.122	25.699	1261.267	1207.860
875.137	25.022	1260.458	1202.376
876.152	25.006	1259.047	1200.781
877.166	25.129	1257.617	1200.100
878.181	25.398	1257.424	1201.584
879.195	25.818	1257.350	1204.188
880.210	26.024	1256.398	1204.520
881.225	26.280	1255.056	1204.804
882.239	26.073	1254.304	1202.547
883.254	26.301	1253.374	1203.040
884.268	26.283	1252.119	1201.570
885.283	26.200	1250.849	1199.653
886.298	26.113	1249.757	1197.881
887.312	26.161	1248.469	1196.827
888.327	26.212	1247.632	1196.219
889.341	26.110	1246.577	1194.387
890.356	25.979	1245.874	1192.701
891.371	26.119	1244.802	1192.457
892.385	25.805	1244.086	1189.548
893.400	25.771	1243.051	1188.185
894.414	25.515	1241.780	1185.133
895.429	25.132	1239.055	1179.860
896.444	24.414	1235.796	1171.880
897.458	23.829	1234.683	1166.824
898.473	24.313	1234.887	1170.072
899.487	25.010	1235.429	1175.037
900.502	25.540	1234.657	1177.657
901.517	25.620	1233.684	1177.112
902.531	25.858	1233.125	1178.000
903.546	25.955	1232.794	1178.179
904.560	26.088	1232.308	1178.449
905.575	26.252	1230.686	1177.833
906.589	26.042	1230.590	1176.222
907.604	25.835	1229.130	1173.333
