DTS Sentinel unit serial number:	SN409020Multiplexer serial number:	ORYXHardware model number:	OX4-SRSoftware version number:	ORYX F/W v3.00 Oryx Data Collector v3.7.2.0data status	okinstallation	HaddamTimeLapsedifferential loss correction	single-endedforward channel	channel 3reverse channel	N/Adate	2011/06/22time	03:21:17forward acquisition time	30.00reverse acquisition time	0.00gamma	498.7831k internal	0.1751k external	0.1751temperature offset calibration	1.0074default loss term (dB/km)	0.3790temperature slope calibration	1.3530multiplexer offset coefficient	1.0000multiplexer slope coefficient	1.0000fibre end	0.00T internal ref (°C)	22.31T ext. ref 1 (°C)	17.78T ext. ref 2 (°C)	0.06length (m)	temperature (°C)	Stokes	anti-Stokes-747.200	800.000	-0.074	0.414
-746.185	110.455	-0.506	0.809
-745.171	123.798	-0.231	0.386
-744.156	42.498	-0.412	0.499
-743.142	-45.477	0.211	0.139
-742.127	107.217	-0.225	0.355
-741.112	800.000	-0.030	-0.171
-740.098	5.597	0.122	0.119
-739.083	-34.184	-0.575	-0.419
-738.069	504.788	-0.026	0.081
-737.054	86.022	-0.117	0.172
-736.039	800.000	0.116	0.652
-735.025	11.826	0.154	-0.157
-734.010	91.274	-0.189	0.283
-732.996	-19.418	0.197	0.162
-731.981	-51.497	0.374	-0.231
-730.966	-102.046	0.376	0.119
-729.952	-9.847	0.238	-0.210
-728.937	-200.000	-0.007	0.320
-727.923	-200.000	-0.109	0.661
-726.908	800.000	-0.121	0.488
-725.894	286.599	-0.039	-0.094
-724.879	288.494	-0.123	-0.298
-723.864	-200.000	0.054	0.585
-722.850	104.745	-0.078	-0.122
-721.835	-119.829	-0.461	-0.105
-720.821	-111.688	-0.409	-0.109
-719.806	-6.310	-0.195	-0.177
-718.791	-30.442	0.449	0.337
-717.777	-29.180	0.082	0.062
-716.762	-80.657	-0.521	0.229
-715.748	-78.052	-0.318	0.145
-714.733	240.873	-0.187	0.415
-713.718	800.000	0.056	0.304
-712.704	-13.095	0.032	-0.027
-711.689	-122.517	-0.471	-0.101
-710.675	137.915	-0.078	-0.136
-709.660	133.165	0.188	-0.323
-708.645	5.876	-0.224	0.219
-707.631	-99.887	-0.697	-0.230
-706.616	42.812	-0.101	0.122
-705.602	631.011	0.112	-0.378
-704.587	717.698	-0.083	0.293
-703.572	800.000	-0.146	0.640
-702.558	-94.308	-0.272	0.098
-701.543	43.503	-0.204	0.247
-700.529	500.841	-0.119	-0.366
-699.514	-167.848	-0.278	-0.014
-698.499	395.964	0.118	0.328
-697.485	-4.594	-0.064	0.059
-696.470	-200.000	-0.020	-0.301
-695.456	-200.000	0.005	-0.139
-694.441	-54.877	-0.310	-0.185
-693.426	-103.507	0.493	0.153
-692.412	-7.358	0.433	0.388
-691.397	-14.012	-0.192	-0.164
-690.383	-119.326	0.733	0.168
-689.368	-29.168	-0.252	0.191
-688.354	-42.233	0.326	-0.220
-687.339	-161.222	0.450	-0.031
-686.324	800.000	-0.031	0.149
-685.310	0.915	-0.116	-0.110
-684.295	-131.574	0.186	-0.032
-683.281	53.050	0.343	-0.435
-682.266	109.918	0.270	-0.429
-681.251	-7.940	0.349	-0.312
-680.237	283.612	0.091	0.217
-679.222	-51.465	0.239	0.148
-678.208	-9.281	-0.366	0.323
-677.193	-108.856	0.358	-0.101
-676.178	-121.714	-0.262	0.057
-675.164	506.188	0.113	0.348
-674.149	-68.359	0.158	0.081
-673.135	85.144	-0.144	-0.210
-672.120	-59.349	0.415	-0.236
-671.105	-9.416	0.205	0.181
-670.091	-173.515	-0.326	-0.013
-669.076	-24.079	-0.295	0.233
-668.062	-124.277	-0.464	-0.095
-667.047	-77.150	0.303	0.139
-666.032	-171.813	0.567	-0.024
-665.018	-42.145	-0.180	-0.121
-664.003	800.000	-0.140	-0.531
-662.989	-140.947	0.059	0.008
-661.974	130.825	-0.071	-0.121
-660.959	306.255	-0.033	0.083
-659.945	352.114	0.086	0.227
-658.930	-16.411	-0.049	0.041
-657.916	-36.921	0.296	0.210
-656.901	-95.992	-0.277	0.097
-655.886	-200.000	0.024	-0.274
-654.872	120.766	0.095	-0.157
-653.857	-200.000	0.033	0.262
-652.843	-99.076	-0.202	-0.067
-651.828	151.053	-0.104	0.188
-650.814	-105.980	-0.085	0.025
-649.799	-145.296	0.379	0.045
-648.784	-68.585	0.276	0.141
-647.770	-45.217	-0.486	0.319
-646.755	800.000	-0.040	-0.213
-645.741	-180.459	0.194	-0.005
-644.726	-58.501	0.266	0.153
-643.711	-200.000	0.445	-0.001
-642.697	-31.572	0.028	0.020
-641.682	-7.682	0.154	-0.137
-640.668	85.965	0.279	-0.406
-639.653	-95.971	0.051	-0.018
-638.638	-141.429	0.208	0.028
-637.624	-18.594	0.156	-0.129
-636.609	-39.786	-0.319	-0.220
-635.595	-114.679	0.016	-0.004
-634.580	0.237	0.472	0.445
-633.565	144.208	-0.273	-0.483
-632.551	800.000	-0.077	0.300
-631.536	86.567	-0.198	-0.289
-630.522	124.536	-0.183	-0.305
-629.507	259.192	-0.317	0.726
-628.492	23.128	0.148	0.160
-627.478	-25.554	0.283	0.220
-626.463	485.690	0.102	0.309
-625.449	56.832	-0.176	0.227
-624.434	-101.455	0.323	0.103
-623.419	800.000	-0.148	0.597
-622.405	-102.171	-0.365	0.115
-621.390	67.063	-0.380	0.513
-620.376	-61.790	-0.145	-0.080
-619.361	12.503	0.042	0.043
-618.346	363.659	0.058	0.156
-617.332	-147.086	-0.115	0.013
-616.317	-56.980	0.510	0.296
-615.303	239.285	0.169	-0.372
-614.288	223.714	0.070	-0.150
-613.273	-139.156	0.434	0.061
-612.259	-85.824	0.374	0.152
-611.244	-200.000	-0.050	-0.331
-610.230	800.000	0.031	0.127
-609.215	17.571	-0.167	-0.175
-608.201	218.868	0.101	-0.213
-607.186	159.638	-0.048	-0.089
-606.171	609.015	-0.019	-0.062
-605.157	-115.743	-0.242	-0.059
-604.142	-13.373	-0.195	-0.167
-603.128	-43.861	-0.348	-0.231
-602.113	-200.000	-0.040	-0.333
-601.098	800.000	-0.080	-0.321
-600.084	-68.465	0.244	-0.124
-599.069	442.176	-0.141	-0.409
-598.055	-82.358	-0.347	-0.149
-597.040	113.009	0.393	-0.631
-596.025	40.696	-0.290	-0.346
-595.011	-24.001	0.171	-0.135
-593.996	-200.000	-0.049	-0.342
-592.982	-95.377	0.332	0.117
-591.967	62.481	0.187	-0.247
-590.952	292.546	-0.129	0.312
-589.938	232.953	-0.201	0.437
-588.923	800.000	0.134	0.619
-587.909	-200.000	0.016	-0.194
-586.894	386.148	-0.169	0.464
-585.879	-186.525	-0.279	0.005
-584.865	258.718	0.308	-0.703
-583.850	-200.000	-0.014	0.221
-582.836	-130.016	-0.555	0.099
-581.821	439.456	-0.119	-0.344
-580.806	-27.802	-0.114	-0.087
-579.792	-200.000	-0.008	-0.154
-578.777	-66.204	-0.504	0.264
-577.763	-20.880	-0.115	0.093
-576.748	531.214	-0.088	0.275
-575.733	106.084	-0.360	0.563
-574.719	-200.000	0.003	-0.186
-573.704	-200.000	-0.041	-0.458
-572.690	-85.990	0.327	-0.133
-571.675	-46.333	0.529	0.342
-570.661	-112.283	0.203	0.053
-569.646	-42.393	-0.380	0.255
-568.631	75.053	0.195	-0.272
-567.617	90.676	0.196	-0.290
-566.602	-200.000	0.071	-0.448
-565.588	17.504	-0.060	0.063
-564.573	500.850	-0.116	-0.354
-563.558	-2.082	-0.368	-0.341
-562.544	139.302	0.072	0.126
-561.529	-107.988	-0.245	0.070
-560.515	-66.369	-0.454	-0.237
-559.500	170.359	0.079	-0.149
-558.485	158.441	-0.216	-0.396
-557.471	-109.457	0.131	-0.036
-556.456	126.453	0.011	0.018
-555.442	42.223	0.113	-0.136
-554.427	-200.000	0.002	-0.100
-553.412	-184.435	-0.280	-0.006
-552.398	-178.831	0.306	-0.009
-551.383	42.981	-0.086	0.103
-550.369	-81.663	0.335	-0.144
-549.354	-200.000	0.010	0.500
-548.339	-200.000	-0.044	0.409
-547.325	-33.450	0.163	-0.119
-546.310	-200.000	0.044	-0.298
-545.296	-47.438	0.331	0.211
-544.281	309.748	-0.102	-0.253
-543.266	6.294	0.068	0.066
-542.252	-87.423	0.224	0.089
-541.237	-7.767	-0.108	-0.096
-540.223	78.814	0.344	-0.486
-539.208	-138.352	-0.422	0.061
-538.193	-105.314	-0.388	0.116
-537.179	-116.519	-0.124	0.030
-536.164	10.373	0.237	0.238
-535.150	-138.911	0.468	-0.066
-534.135	-39.146	-0.193	-0.134
-533.121	96.909	-0.172	-0.260
-532.106	-90.226	0.108	-0.041
-531.091	-69.817	0.358	-0.179
-530.077	-190.512	0.287	0.004
-529.062	64.496	0.206	0.274
-528.048	-200.000	0.039	0.298
-527.033	-135.776	-0.215	0.033
-526.018	43.936	0.142	-0.172
-525.004	-76.777	0.308	0.142
-523.989	-102.584	0.730	0.228
-522.975	-71.901	0.531	-0.259
-521.960	86.578	-0.300	-0.436
-520.945	-69.056	0.185	0.093
-519.931	224.594	0.183	0.390
-518.916	-200.000	0.021	0.362
-517.902	69.503	0.254	0.345
-516.887	-56.869	-0.076	0.044
-515.872	800.000	0.077	0.410
-514.858	107.041	-0.091	-0.142
-513.843	-60.978	-0.187	-0.104
-512.829	-2.580	-0.134	0.123
-511.814	-200.000	0.052	0.312
-510.799	-200.000	-0.064	0.512
-509.785	-200.000	-0.040	-0.237
-508.770	-65.705	0.172	0.090
-507.756	29.584	-0.201	0.226
-506.741	-42.430	-0.232	0.156
-505.726	-124.005	0.013	-0.003
-504.712	101.704	0.242	0.372
-503.697	-24.931	0.195	0.152
-502.683	233.935	-0.020	0.043
-501.668	-81.448	0.406	-0.175
-500.653	-34.966	0.339	0.243
-499.639	-200.000	-0.040	0.234
-498.624	-75.973	-0.092	-0.043
-497.610	-200.000	0.028	0.194
-496.595	-102.231	-0.344	0.108
-495.581	-98.778	-0.085	0.028
-494.566	-179.020	-0.492	-0.014
-493.551	69.059	-0.096	-0.130
-492.537	592.203	0.035	-0.114
-491.522	33.118	-0.166	0.189
-490.508	-90.616	-0.388	0.147
-489.493	-200.000	-0.047	-0.276
-488.478	-121.724	0.185	-0.040
-487.464	-112.523	0.117	0.031
-486.449	621.336	-0.035	-0.115
-485.435	-47.888	-0.083	-0.053
-484.420	-87.006	-0.206	-0.082
-483.405	800.000	-0.044	0.213
-482.391	-138.514	-0.447	0.064
-481.376	-47.901	-0.203	-0.129
-480.362	-106.784	0.422	-0.122
-479.347	334.232	0.289	-0.739
-478.332	800.000	0.074	0.306
-477.318	-148.883	-0.542	0.057
-476.303	-132.747	0.848	-0.141
-475.289	-58.013	0.028	-0.016
-474.274	-130.695	-0.298	0.052
-473.259	-193.468	-0.642	0.007
-472.245	153.297	-0.016	-0.029
-471.230	-24.455	-0.176	-0.137
-470.216	-57.252	-0.217	-0.125
-469.201	-150.809	0.556	-0.055
-468.186	29.765	0.075	-0.084
-467.172	-200.000	0.016	0.224
-466.157	97.820	-0.212	-0.321
-465.143	564.821	-0.111	-0.356
-464.128	607.749	-0.067	0.222
-463.113	800.000	0.090	0.357
-462.099	115.002	-0.032	-0.052
-461.084	-104.071	-0.285	-0.087
-460.070	-39.224	-0.043	-0.030
-459.055	-200.000	0.049	0.342
-458.040	-93.795	-0.799	-0.287
-457.026	-64.982	-0.079	-0.042
-456.011	-80.730	0.347	-0.151
-454.997	-200.000	0.004	0.389
-453.982	-136.811	0.257	-0.039
-452.968	-47.352	-0.132	0.084
-451.953	-125.663	-0.575	-0.113
-450.938	-161.779	-0.352	-0.023
-449.924	4.115	0.072	0.069
-448.909	800.000	-0.045	-0.181
-447.895	-200.000	0.025	0.223
-446.880	95.211	-0.178	0.267
-445.865	-147.091	-0.239	-0.026
-444.851	-2.700	0.130	0.119
-443.836	9.460	-0.070	-0.070
-442.822	-200.000	-0.047	-0.279
-441.807	77.761	-0.236	0.331
-440.792	-200.000	0.006	0.441
-439.778	-157.659	0.364	-0.028
-438.763	800.000	-0.040	-0.198
-437.749	208.014	0.114	-0.235
-436.734	-55.787	0.180	0.105
-435.719	-26.003	-0.346	0.267
-434.705	800.000	0.064	-0.285
-433.690	46.829	0.327	0.399
-432.676	-56.997	-0.076	0.044
-431.661	671.707	0.064	-0.220
-430.646	-76.403	-0.060	-0.027
-429.632	-83.437	0.203	0.085
-428.617	-9.236	-0.398	-0.348
-427.603	-108.846	0.110	0.031
-426.588	-85.986	-0.074	0.030
-425.573	288.819	0.129	-0.308
-424.559	-92.435	0.215	0.079
-423.544	-200.000	-0.079	-0.471
-422.530	162.049	0.181	0.333
-421.515	-53.228	0.315	0.189
-420.500	-98.850	-0.467	0.155
-419.486	-37.936	-0.211	0.146
-418.471	-200.000	-0.004	0.097
-417.457	-200.000	-0.075	0.695
-416.442	82.467	0.161	0.230
-415.428	-124.098	0.340	-0.069
-414.413	-86.369	-0.457	0.183
-413.398	120.753	0.078	-0.128
-412.384	-139.897	0.555	-0.076
-411.369	350.389	0.041	0.107
-410.355	63.745	0.228	0.301
-409.340	-143.885	-0.314	0.038
-408.325	349.437	0.202	-0.526
-407.311	40.941	0.230	0.272
-406.296	-43.678	0.152	-0.100
-405.282	-200.000	-0.080	-0.466
-404.267	-144.757	0.281	0.033
-403.252	11.320	0.280	0.281
-402.238	-4.734	0.132	-0.120
-401.223	-57.015	-0.040	0.023
-400.209	-200.000	-0.004	-0.149
-399.194	-11.266	-0.200	0.173
-398.179	-111.306	0.488	-0.130
-397.165	159.103	0.216	0.394
-396.150	363.184	-0.138	0.364
-395.136	-8.337	0.609	0.536
-394.121	59.474	-0.106	0.136
-393.106	-50.206	0.419	0.259
-392.092	-200.000	-0.008	0.357
-391.077	396.833	-0.061	-0.169
-390.063	-60.975	0.251	-0.139
-389.048	78.389	-0.025	-0.035
-388.033	-200.000	-0.081	0.531
-387.019	81.852	-0.268	0.381
-386.004	73.103	0.263	0.360
-384.990	166.584	0.059	0.111
-383.975	44.131	0.192	0.230
-382.960	-9.711	-0.265	0.231
-381.946	-85.894	-0.221	-0.089
-380.931	53.574	-0.305	0.384
-379.917	149.688	-0.163	0.291
-378.902	-42.404	0.053	0.036
-377.888	-88.158	-0.668	-0.261
-376.873	364.091	0.056	-0.148
-375.858	-138.600	0.250	0.035
-374.844	-112.092	-0.251	0.066
-373.829	-34.477	-0.557	-0.399
-372.815	-112.823	0.398	-0.103
-371.800	33.925	0.095	0.108
-370.785	800.000	-0.076	-0.416
-369.771	-5.231	0.235	-0.211
-368.756	-56.630	-0.008	0.005
-367.742	130.796	-0.150	-0.252
-366.727	800.000	-0.024	0.133
-365.712	120.078	-0.064	-0.105
-364.698	800.000	-0.136	-0.497
-363.683	800.000	0.031	0.138
-362.669	-90.349	0.285	-0.108
-361.654	-135.331	0.453	0.070
-360.639	-99.068	-0.363	-0.120
-359.625	-200.000	-0.025	-0.546
-358.610	23.870	0.352	-0.380
-357.596	276.289	0.058	-0.135
-356.581	56.357	0.074	-0.094
-355.566	-75.322	-0.406	-0.189
-354.552	619.020	0.068	0.226
-353.537	475.719	0.041	-0.122
-352.523	-200.000	0.063	0.373
-351.508	37.089	0.134	0.155
-350.493	237.905	0.120	0.262
-349.479	44.277	-0.095	0.115
-348.464	-131.498	-0.401	-0.068
-347.450	-66.144	-0.296	0.154
-346.435	-124.510	0.328	0.066
-345.420	-121.126	0.231	0.050
-344.406	800.000	-0.019	0.099
-343.391	-165.979	-0.252	0.014
-342.377	-43.308	-0.230	0.152
-341.362	-1.852	-0.073	-0.067
-340.348	-101.922	0.324	0.102
-339.333	800.000	0.066	0.291
-338.318	-125.364	0.096	-0.019
-337.304	51.967	0.275	-0.342
-336.289	-177.590	-0.157	-0.005
-335.275	189.104	0.175	-0.343
-334.260	-25.947	-0.061	0.047
-333.245	195.179	-0.092	-0.184
-332.231	-66.630	-0.147	-0.076
-331.216	-200.000	0.025	-0.210
-330.202	18.823	-0.333	-0.348
-329.187	-97.385	-0.314	0.106
-328.172	-165.418	0.223	0.013
-327.158	-48.363	-0.471	0.296
-326.143	-74.662	-0.124	-0.058
-325.129	34.225	0.162	-0.184
-324.114	24.345	-0.512	-0.553
-323.099	-99.313	-0.797	-0.261
-322.085	800.000	0.081	-0.413
-321.070	166.520	0.258	-0.480
-320.056	-135.012	-0.302	0.047
-319.041	-91.632	-0.190	-0.070
-318.026	1.709	-0.327	-0.307
-317.012	-100.524	0.230	-0.074
-315.997	369.746	0.132	-0.351
-314.983	42.119	0.148	0.176
-313.968	-129.466	0.406	-0.073
-312.953	-93.024	-0.215	-0.078
-311.939	37.577	-0.404	0.469
-310.924	86.456	0.133	0.192
-309.910	-200.000	-0.055	0.376
-308.895	-117.640	0.204	-0.048
-307.880	86.489	0.094	0.135
-306.866	349.878	0.160	-0.415
-305.851	73.700	-0.285	-0.390
-304.837	117.750	-0.119	-0.192
-303.822	-96.314	-0.193	-0.066
-302.807	477.527	0.085	0.252
-301.793	16.514	0.141	0.145
-300.778	-2.446	-0.204	0.186
-299.764	-200.000	-0.528	-0.003
-298.749	-200.000	-0.012	-0.116
-297.735	800.000	-0.091	-0.341
-296.720	-200.000	0.018	0.180
-295.705	41.360	-0.219	0.259
-294.691	-68.125	0.156	0.079
-293.676	-200.000	0.030	0.489
-292.662	58.926	-0.308	0.396
-291.647	-116.031	0.330	0.080
-290.632	-55.552	-0.417	-0.243
-289.618	259.831	-0.098	0.222
-288.603	-40.444	0.298	0.201
-287.589	800.000	0.040	-0.211
-286.574	-200.000	0.040	0.359
-285.559	-200.000	0.003	0.364
-284.545	32.611	-0.200	0.225
-283.530	63.058	0.309	-0.404
-282.516	36.065	0.286	-0.329
-281.501	-120.023	0.328	-0.073
-280.486	79.288	-0.075	-0.105
-279.472	-13.639	-0.214	-0.180
-278.457	-127.463	0.321	0.060
-277.443	181.000	0.091	-0.176
-276.428	109.029	-0.114	0.179
-275.413	-200.000	-0.001	0.109
-274.399	38.289	-0.219	0.255
-273.384	-125.982	-0.254	-0.049
-272.370	-73.165	-0.131	-0.062
-271.355	137.808	0.174	-0.298
-270.340	-42.726	0.357	0.236
-269.326	-96.317	-0.477	-0.164
-268.311	133.948	-0.056	0.095
-267.297	551.315	0.071	-0.224
-266.282	-168.719	0.192	-0.009
-265.267	-82.823	0.341	-0.143
-264.253	116.780	-0.153	-0.246
-263.238	43.102	0.019	-0.023
-262.224	-5.428	0.065	0.059
-261.209	-155.367	0.867	0.072
-260.195	-155.796	0.488	0.040
-259.180	253.382	-0.037	0.082
-258.165	-17.385	0.266	0.218
-257.151	-103.833	0.321	0.097
-256.136	-200.000	-0.016	-0.218
-255.122	-90.571	0.093	-0.035
-254.107	-155.220	0.266	0.022
-253.092	-64.170	-0.282	-0.149
-252.078	-76.992	0.383	-0.174
-251.063	-134.734	-0.337	-0.053
-250.049	-17.107	-0.061	0.050
-249.034	-200.000	0.036	0.483
-248.019	-79.214	-0.199	-0.088
-247.005	34.517	0.092	-0.105
-245.990	-79.493	0.297	0.130
-244.976	214.166	0.166	0.343
-243.961	119.294	-0.283	0.457
-242.946	170.734	0.159	0.297
-241.932	736.825	-0.098	0.343
-240.917	265.991	0.174	-0.396
-239.903	-100.376	0.077	0.025
-238.888	-19.606	-0.162	-0.130
-237.873	-200.000	0.037	-0.214
-236.859	65.679	0.224	-0.296
-235.844	172.518	0.065	0.122
-234.830	-131.238	-0.347	-0.059
-233.815	1.984	-0.116	-0.109
-232.800	55.014	0.172	-0.217
-231.786	-22.301	0.079	-0.062
-230.771	-18.936	-0.438	0.354
-229.757	-99.653	-0.194	-0.063
-228.742	-159.498	0.383	0.027
-227.727	774.649	0.027	0.096
-226.713	800.000	-0.120	0.478
-225.698	-128.152	0.361	0.067
-224.684	116.184	0.041	-0.065
-223.669	-138.549	-0.357	0.050
-222.655	682.192	-0.054	0.186
-221.640	11.886	0.468	-0.468
-220.625	13.189	-0.057	0.057
-219.611	-87.828	-0.332	-0.130
-218.596	-135.401	-0.413	-0.064
-217.582	-107.509	0.100	-0.028
-216.567	165.287	0.127	0.235
-215.552	-66.948	0.504	0.258
-214.538	473.318	0.182	0.535
-213.523	17.957	-0.201	0.208
-212.509	-55.823	0.416	0.241
-211.494	-200.000	-0.005	0.246
-210.479	-70.942	-0.213	0.104
-209.465	760.231	-0.087	0.307
-208.450	-37.211	0.135	0.094
-207.436	-98.779	0.445	-0.147
-206.421	156.355	-0.283	-0.509
-205.406	800.000	-0.061	-0.282
-204.392	-24.977	-0.241	-0.186
-203.377	-151.833	-0.209	0.020
-202.363	-3.967	-0.148	-0.133
-201.348	-200.000	-0.027	-0.420
-200.333	91.508	0.213	-0.312
-199.319	-200.000	0.053	0.444
-198.304	-12.983	-0.211	-0.179
-197.290	800.000	-0.100	0.368
-196.275	5.869	-0.473	-0.455
-195.260	-113.690	-0.436	0.110
-194.246	800.000	-0.087	-0.411
-193.231	-200.000	0.033	-0.318
-192.217	-200.000	0.027	-0.355
-191.202	-200.000	-0.015	-0.380
-190.187	-68.755	-0.241	0.120
-189.173	800.000	0.039	0.142
-188.158	-147.283	0.169	-0.018
-187.144	42.045	0.241	-0.285
-186.129	-200.000	-0.033	-0.456
-185.114	70.319	0.140	0.188
-184.100	21.150	0.246	0.259
-183.085	-89.337	-0.467	-0.178
-182.071	162.322	0.187	0.342
-181.056	185.309	-0.015	0.030
-180.042	-109.200	-0.171	0.047
-179.027	-2.769	-0.256	0.232
-178.012	397.879	-0.048	-0.130
-176.998	156.892	-0.223	-0.402
-175.983	43.383	-0.190	-0.226
-174.969	800.000	0.086	0.453
-173.954	-125.800	0.182	0.035
-172.939	427.179	0.148	0.417
-171.925	-84.832	-0.234	0.095
-170.910	107.062	0.207	-0.320
-169.896	148.221	0.037	0.065
-168.881	-151.565	-0.459	-0.044
-167.866	800.000	-0.068	-0.314
-166.852	-200.000	-0.002	-0.454
-165.837	17.358	-0.171	-0.176
-164.823	-141.614	-0.338	0.044
-163.808	-160.128	0.279	-0.019
-162.793	-122.464	0.272	-0.057
-161.779	-71.963	0.585	-0.281
-160.764	11.089	0.133	0.132
-159.750	-100.409	0.128	0.041
-158.735	151.174	0.261	-0.463
-157.720	146.836	-0.278	-0.487
-156.706	-17.086	0.080	-0.066
-155.691	34.579	0.153	0.173
-154.677	-123.341	-0.203	-0.042
-153.662	-193.717	-0.111	0.001
-152.647	800.000	-0.067	0.358
-151.633	85.407	-0.100	0.143
-150.618	169.504	-0.209	-0.388
-149.604	-150.980	-0.445	0.043
-148.589	-28.402	-0.108	0.081
-147.574	-101.067	-0.415	-0.131
-146.560	-125.872	-0.439	0.085
-145.545	349.353	-0.127	0.326
-144.531	-4.284	0.293	0.263
-143.516	800.000	0.049	-0.234
-142.502	-129.394	0.231	-0.041
-141.487	586.897	-0.102	-0.326
-140.472	-110.226	0.267	0.072
-139.458	-64.462	-0.327	0.172
-138.443	-130.430	-0.281	-0.049
-137.429	78.726	-0.124	0.172
-136.414	-200.000	-0.055	-0.491
-135.399	160.608	-0.242	0.439
-134.385	-145.388	-0.162	-0.019
-133.370	-97.117	-0.146	0.049
-132.356	108.597	0.205	0.318
-131.341	398.395	-0.098	0.266
-130.326	-22.273	-0.299	0.235
-129.312	68.740	-0.357	0.476
-128.297	40.850	0.316	0.369
-127.283	-98.057	0.354	0.117
-126.268	433.671	-0.090	-0.256
-125.253	44.191	-0.375	0.446
-124.239	89.137	-0.306	0.443
-123.224	800.000	-0.061	0.239
-122.210	-75.110	0.299	-0.138
-121.195	324.745	0.218	-0.543
-120.180	333.426	0.192	-0.485
-119.166	-36.188	0.067	-0.047
-118.151	-56.324	-0.657	0.377
-117.137	-200.000	0.020	0.504
-116.122	-116.588	-0.196	0.046
-115.107	-56.410	0.244	-0.140
-114.093	-200.000	-0.067	0.700
-113.078	75.005	-0.357	-0.488
-112.064	-102.110	0.275	-0.085
-111.049	-42.844	0.497	-0.327
-110.034	-143.006	-0.238	0.030
-109.020	361.620	0.167	0.435
-108.005	-137.419	0.588	0.085
-106.991	-200.000	0.040	0.330
-105.976	187.208	-0.185	-0.359
-104.962	-36.211	-0.196	0.137
-103.947	-81.888	0.317	0.134
-102.932	-141.533	-0.468	-0.061
-101.918	-18.931	0.297	-0.239
-100.903	-26.016	0.378	0.288
-99.889	-200.000	0.074	0.600
-98.874	-11.869	-0.254	0.215
-97.859	338.047	-0.185	0.468
-96.845	-123.672	0.493	-0.100
-95.830	289.667	-0.130	-0.307
-94.816	-14.197	0.318	-0.265
-93.801	13.015	0.428	-0.429
-92.786	-105.321	0.124	0.036
-91.772	28.557	0.278	-0.304
-90.757	182.873	-0.143	0.274
-89.743	-41.821	0.435	-0.288
-88.728	-148.890	0.114	-0.012
-87.713	212.005	0.256	-0.525
-86.699	326.177	0.188	-0.469
-85.684	26.234	-0.125	0.135
-84.670	-109.828	0.222	0.060
-83.655	-86.016	0.141	-0.056
-82.640	339.063	-0.138	0.349
-81.626	-99.276	-0.198	0.064
-80.611	102.536	0.165	-0.250
-79.597	-20.607	0.036	-0.029
-78.582	-61.348	-0.417	-0.226
-77.567	209.897	-0.218	0.445
-76.553	-142.127	0.574	0.073
-75.538	-200.000	-0.066	-0.397
-74.524	111.036	-0.165	-0.257
-73.509	-40.986	-0.333	-0.222
-72.494	-200.000	0.010	0.353
-71.480	-18.855	0.322	-0.259
-70.465	-83.140	0.377	0.156
-69.451	-98.337	-0.618	0.204
-68.436	-23.672	-0.152	-0.118
-67.422	182.575	0.142	-0.271
-66.407	800.000	-0.083	0.325
-65.392	-140.815	-0.178	-0.024
-64.378	-200.000	-0.014	0.096
-63.363	-28.575	0.421	0.313
-62.349	-121.166	-0.225	0.048
-61.334	25.864	-2.329	-2.512
-60.319	101.875	1.387	2.097
-59.305	179.552	-3.857	-7.326
-58.290	58.253	4.021	5.103
-57.276	637.618	3.135	10.364
-56.261	-200.000	23.900	320.632
-55.246	352.322	1308.252	3368.259
-54.232	52.814	2849.099	3525.213
-53.217	51.392	2659.541	3268.548
-52.203	31.293	2390.136	2653.932
-51.188	27.551	2056.257	2237.032
-50.173	24.197	1943.263	2074.835
-49.159	23.141	1931.034	2049.399
-48.144	22.614	1926.699	2038.603
-47.130	22.634	1923.767	2035.643
-46.115	22.610	1922.347	2033.782
-45.100	22.617	1920.256	2031.569
-44.086	22.574	1919.549	2030.243
-43.071	22.538	1917.473	2027.550
-42.057	22.453	1916.347	2025.295
-41.042	22.509	1914.210	2023.610
-40.027	22.518	1913.294	2022.667
-39.013	22.559	1911.869	2021.548
-37.998	22.422	1911.371	2019.362
-36.984	22.505	1909.867	2018.645
-35.969	22.400	1909.090	2016.542
-34.954	22.395	1907.850	2015.094
-33.940	22.436	1905.616	2013.121
-32.925	22.324	1904.244	2010.315
-31.911	22.448	1902.857	2010.190
-30.896	22.346	1901.863	2007.887
-29.881	22.407	1900.733	2007.318
-28.867	22.429	1899.169	2005.839
-27.852	22.461	1897.736	2004.611
-26.838	22.399	1895.750	2001.721
-25.823	22.337	1895.137	2000.283
-24.809	22.361	1893.846	1999.117
-23.794	22.298	1892.619	1997.026
-22.779	22.322	1891.147	1995.666
-21.765	22.310	1889.403	1993.612
-20.750	22.352	1887.968	1992.496
-19.736	22.233	1888.427	1991.541
-18.721	22.258	1886.640	1989.861
-17.706	22.262	1885.332	1988.448
-16.692	22.200	1885.155	1987.485
-15.677	22.272	1883.072	1986.026
-14.663	22.323	1880.927	1984.268
-13.648	22.251	1880.741	1983.175
-12.633	22.229	1878.778	1980.779
-11.619	22.257	1878.004	1980.199
-10.604	22.181	1877.169	1978.382
-9.590	22.177	1875.618	1976.620
-8.575	22.115	1875.412	1975.623
-7.560	22.147	1873.757	1974.157
-6.546	22.172	1873.028	1973.596
-5.531	22.237	1871.517	1972.664
-4.517	22.271	1869.268	1970.590
-3.502	22.219	1869.101	1969.752
-2.487	22.267	1867.444	1968.470
-1.473	22.314	1863.850	1965.130
-0.458	22.239	1845.983	1945.382
0.556	18.782	1993.430	2047.146
1.571	17.444	2196.084	2237.321
2.586	18.132	2236.208	2287.174
3.600	18.324	2237.576	2290.878
4.615	18.168	2237.261	2288.190
5.629	18.215	2234.823	2286.048
6.644	18.266	2233.035	2284.637
7.659	18.283	2231.249	2282.754
8.673	18.143	2229.446	2278.769
9.688	17.900	2238.525	2284.505
10.702	17.132	2318.658	2355.290
11.717	15.578	2382.715	2397.803
12.731	7.294	2363.127	2259.502
13.746	1.015	2346.344	2153.660
14.761	0.220	2343.240	2139.203
15.775	0.095	2341.423	2135.506
16.790	0.118	2339.369	2133.703
17.804	0.073	2338.047	2131.608
18.819	0.057	2337.191	2130.335
19.834	0.083	2335.340	2128.760
20.848	0.001	2334.217	2126.327
21.863	-0.009	2333.187	2124.982
22.877	0.095	2330.032	2123.327
23.892	0.037	2328.284	2120.658
24.907	0.083	2325.222	2118.272
25.921	0.085	2323.154	2116.165
26.936	0.079	2321.419	2114.246
27.950	0.072	2318.750	2111.458
28.965	0.006	2317.380	2109.029
29.980	0.207	2315.243	2109.666
30.994	0.192	2313.117	2107.269
32.009	3.906	2325.715	2170.946
33.023	13.216	2351.540	2327.079
34.038	17.288	2358.905	2391.798
35.053	17.593	2357.263	2394.157
36.067	17.721	2354.543	2392.908
37.082	17.612	2352.977	2389.496
38.096	17.587	2351.911	2387.768
39.111	17.860	2347.337	2386.679
40.126	17.886	2345.916	2385.313
41.140	18.078	2344.394	2386.179
42.155	18.039	2342.718	2383.636
43.169	17.963	2340.421	2379.955
44.184	17.909	2337.232	2375.676
45.199	17.828	2335.898	2372.903
46.213	17.812	2334.983	2371.453
47.228	17.899	2333.612	2370.992
48.242	18.014	2332.187	2370.869
49.257	18.088	2329.550	2368.932
50.271	18.099	2326.539	2365.745
51.286	17.958	2324.963	2361.894
52.301	17.908	2323.416	2359.352
53.315	18.220	2324.530	2364.539
54.330	19.910	2330.149	2393.473
55.344	21.203	2329.514	2410.494
56.359	21.301	2326.399	2408.338
57.374	21.437	2326.023	2409.544
58.388	21.616	2322.634	2408.216
59.403	21.612	2318.815	2403.922
60.417	21.227	2316.272	2395.684
61.432	21.381	2314.604	2395.796
62.447	21.591	2313.564	2397.319
63.461	21.723	2311.849	2397.072
64.476	21.721	2309.857	2394.690
65.490	21.636	2307.390	2390.677
66.505	21.000	2304.784	2378.983
67.520	19.545	2298.984	2352.796
68.534	18.155	2292.147	2326.526
69.549	17.951	2288.061	2319.310
70.563	17.865	2286.159	2315.932
71.578	17.743	2285.281	2313.102
72.593	17.701	2283.055	2309.999
73.607	17.952	2282.495	2312.577
74.622	17.919	2279.829	2309.140
75.636	17.834	2276.748	2304.595
76.651	17.810	2275.231	2302.464
77.666	17.887	2272.833	2300.796
78.680	17.940	2270.880	2299.263
79.695	17.860	2269.241	2296.246
80.709	17.814	2267.683	2293.780
81.724	17.913	2266.582	2293.717
82.739	17.875	2262.566	2288.871
83.753	17.711	2260.644	2284.452
84.768	17.620	2258.891	2281.174
85.782	17.672	2257.469	2280.164
86.797	17.729	2255.447	2278.622
87.812	17.680	2254.154	2276.386
88.826	17.565	2252.625	2273.024
89.841	17.793	2249.327	2272.475
90.855	17.766	2247.665	2270.161
91.870	17.822	2245.685	2268.638
92.884	17.757	2244.381	2266.176
93.899	17.835	2242.340	2264.897
94.914	18.105	2244.341	2270.244
95.928	19.658	2248.664	2295.102
96.943	20.434	2245.871	2302.317
97.957	18.739	2239.459	2272.937
98.972	17.771	2234.198	2254.466
99.987	17.711	2231.463	2250.634
101.001	17.685	2228.924	2247.459
102.016	17.809	2227.025	2246.920
103.030	17.802	2224.392	2243.903
104.045	17.886	2222.497	2242.829
105.060	17.743	2221.046	2239.216
106.074	17.772	2218.868	2237.134
107.089	17.877	2217.136	2236.505
108.103	17.809	2217.402	2235.602
109.118	17.861	2214.826	2233.420
110.133	17.812	2213.290	2230.966
111.147	17.946	2211.277	2230.428
112.162	17.945	2209.602	2228.454
113.176	17.923	2206.615	2224.891
114.191	17.930	2205.995	2224.095
115.206	17.933	2203.697	2221.542
116.220	17.721	2202.821	2217.630
117.235	17.776	2200.402	2215.649
118.249	17.800	2197.879	2213.149
119.264	17.772	2197.879	2212.522
120.279	17.749	2195.723	2209.790
121.293	17.785	2193.302	2207.554
122.308	17.887	2191.281	2206.586
123.322	17.792	2190.958	2204.764
124.337	18.311	2191.938	2212.228
125.352	20.040	2196.592	2239.145
126.366	20.252	2193.906	2238.879
127.381	18.430	2186.130	2207.110
128.395	17.790	2181.530	2193.936
129.410	17.844	2179.629	2192.454
130.424	17.940	2177.812	2191.599
131.439	17.777	2175.566	2186.979
132.454	17.647	2174.649	2184.121
133.468	17.859	2172.100	2184.029
134.483	17.881	2171.279	2183.217
135.497	17.918	2169.635	2181.783
136.512	17.920	2166.989	2178.887
137.527	17.930	2165.147	2176.907
138.541	17.774	2164.207	2173.696
139.556	17.688	2163.473	2171.603
140.570	17.748	2161.618	2170.252
141.585	17.696	2159.183	2166.883
142.600	17.778	2158.446	2166.926
143.614	17.669	2157.326	2164.151
144.629	17.757	2155.343	2163.025
145.643	17.729	2153.960	2161.017
146.658	17.715	2152.126	2158.746
147.673	17.676	2150.500	2156.354
148.687	17.912	2148.221	2156.806
149.702	17.879	2147.186	2155.096
150.716	17.897	2146.561	2154.440
151.731	17.773	2145.781	2151.830
152.746	17.801	2144.026	2150.164
153.760	18.236	2146.418	2157.823
154.775	20.065	2148.994	2183.339
155.789	20.362	2147.681	2185.497
156.804	18.756	2139.317	2156.474
157.819	17.859	2134.705	2140.262
158.833	17.671	2132.182	2135.109
159.848	17.756	2130.043	2133.784
160.862	17.821	2128.532	2132.826
161.877	17.878	2127.078	2131.832
162.892	17.912	2126.228	2131.158
163.906	17.874	2124.517	2128.709
164.921	17.857	2123.301	2127.025
165.935	17.817	2122.661	2125.630
166.950	17.956	2119.670	2124.118
167.964	17.893	2117.421	2120.816
168.979	17.947	2115.752	2119.563
169.994	17.883	2114.491	2117.252
171.008	17.990	2111.724	2115.555
172.023	17.885	2110.875	2113.154
173.037	17.890	2109.873	2111.960
174.052	17.990	2107.939	2111.013
175.067	17.831	2106.873	2107.719
176.081	17.806	2105.152	2105.434
177.096	17.696	2103.629	2102.295
178.110	17.766	2101.255	2100.536
179.125	17.929	2099.980	2101.020
180.140	17.802	2099.639	2098.865
181.154	17.788	2098.191	2096.987
182.169	17.787	2096.731	2095.273
183.183	18.236	2098.055	2101.883
184.198	20.207	2101.847	2129.788
185.213	20.603	2100.397	2132.939
186.227	18.647	2093.038	2101.161
187.242	18.024	2089.416	2089.617
188.256	17.821	2087.653	2085.112
189.271	17.751	2086.544	2082.901
190.286	17.862	2084.848	2082.317
191.300	17.948	2081.664	2079.944
192.315	17.674	2080.953	2075.625
193.329	17.831	2079.178	2075.528
194.344	17.929	2079.103	2076.401
195.359	17.906	2077.552	2074.318
196.373	18.057	2074.175	2072.550
197.388	17.919	2071.362	2067.813
198.402	17.751	2070.122	2064.277
199.417	17.795	2067.775	2062.222
200.432	17.814	2067.402	2061.832
201.446	17.848	2066.433	2061.040
202.461	17.789	2063.948	2057.601
203.475	17.858	2062.079	2056.325
204.490	17.769	2060.610	2053.534
205.504	17.777	2058.029	2050.810
206.519	17.700	2057.087	2048.703
207.534	17.786	2054.600	2047.014
208.548	17.774	2053.078	2045.105
209.563	17.798	2052.943	2045.019
210.577	17.703	2051.175	2041.863
211.592	17.804	2050.501	2042.167
212.607	18.792	2054.177	2057.487
213.621	20.928	2058.458	2087.263
214.636	20.481	2052.161	2075.275
215.650	18.335	2045.700	2042.786
216.665	17.857	2042.965	2034.080
217.680	17.809	2041.752	2032.049
218.694	17.794	2040.330	2030.211
219.709	17.912	2037.288	2028.359
220.723	17.917	2036.877	2027.758
221.738	17.795	2035.666	2024.863
222.753	17.914	2033.087	2023.467
223.767	17.797	2032.326	2021.074
224.782	17.777	2030.534	2018.809
225.796	17.899	2028.948	2018.447
226.811	17.960	2026.674	2016.660
227.826	17.913	2025.099	2014.305
228.840	17.915	2023.783	2012.775
229.855	17.913	2022.304	2011.037
230.869	17.875	2021.436	2009.488
231.884	17.892	2019.380	2007.403
232.899	17.833	2018.413	2005.497
233.913	17.803	2017.380	2003.882
234.928	17.789	2016.411	2002.514
235.942	17.871	2014.387	2001.230
236.957	17.854	2012.216	1998.639
237.972	17.831	2011.223	1997.142
238.986	17.906	2010.082	1996.653
240.001	17.832	2009.116	1994.579
241.015	17.836	2007.540	1992.828
242.030	18.274	2007.647	1997.826
243.045	19.950	2012.096	2021.707
244.059	20.055	2009.424	2020.012
245.074	18.334	2002.036	1992.235
246.088	17.964	1999.006	1984.664
247.103	17.976	1997.273	1982.844
248.117	17.893	1995.632	1980.012
249.132	17.971	1993.779	1978.840
250.147	17.879	1992.219	1975.989
251.161	17.895	1991.291	1975.009
252.176	17.930	1990.777	1974.673
253.190	18.141	1988.181	1974.311
254.205	18.161	1985.808	1971.953
255.220	18.188	1984.851	1971.082
256.234	18.143	1983.763	1969.235
257.249	17.852	1983.178	1965.051
258.263	17.963	1981.552	1964.492
259.278	18.022	1981.064	1964.456
260.293	17.989	1978.325	1961.126
261.307	17.865	1976.249	1957.401
262.322	17.830	1973.983	1954.524
263.336	17.755	1973.311	1952.757
264.351	17.687	1971.020	1949.474
265.366	17.745	1970.518	1949.407
266.380	17.724	1969.358	1947.792
267.395	17.713	1967.715	1945.804
268.409	17.744	1965.381	1943.614
269.424	17.652	1964.980	1941.941
270.439	17.703	1964.322	1941.641
271.453	18.385	1964.635	1949.516
272.468	20.199	1967.470	1972.866
273.482	20.370	1964.141	1971.245
274.497	18.581	1957.352	1943.827
275.512	17.874	1954.559	1932.779
276.526	17.783	1952.829	1929.805
277.541	17.727	1950.582	1926.709
278.555	17.745	1949.641	1925.761
279.570	17.619	1947.512	1921.995
280.585	17.748	1946.337	1922.063
281.599	17.731	1945.142	1920.462
282.614	17.833	1943.226	1919.500
283.628	17.967	1942.857	1920.412
284.643	18.095	1941.430	1920.218
285.657	18.180	1940.777	1920.303
286.672	18.219	1938.653	1918.414
287.687	17.977	1937.463	1914.279
288.701	18.107	1935.155	1913.236
289.716	17.957	1934.422	1910.593
290.730	18.133	1932.627	1910.570
291.745	17.907	1931.003	1906.195
292.760	17.930	1930.203	1905.439
293.774	17.989	1928.755	1904.444
294.789	17.894	1927.774	1902.182
295.803	17.807	1925.669	1898.904
296.818	17.812	1924.476	1897.553
297.833	17.931	1922.958	1897.164
298.847	18.086	1921.256	1896.981
299.862	18.055	1919.547	1894.722
300.876	18.252	1921.237	1898.362
301.891	20.264	1924.788	1924.091
302.906	20.657	1922.212	1925.657
303.920	18.716	1917.724	1899.369
304.935	17.937	1913.375	1886.187
305.949	17.845	1911.475	1883.068
306.964	17.847	1910.008	1881.424
307.979	18.061	1908.327	1881.908
308.993	18.166	1907.443	1881.974
310.008	18.101	1906.356	1879.964
311.022	18.304	1903.864	1879.516
312.037	18.212	1901.883	1876.321
313.052	18.157	1900.272	1873.901
314.066	18.233	1898.600	1872.866
315.081	18.077	1897.838	1870.171
316.095	18.043	1896.975	1868.730
317.110	18.034	1895.040	1866.502
318.125	18.104	1893.188	1865.215
319.139	18.018	1892.686	1863.551
320.154	18.050	1890.278	1861.315
321.168	18.047	1889.559	1860.344
322.183	18.003	1887.758	1857.870
323.197	17.829	1886.694	1854.702
324.212	17.785	1884.596	1851.938
325.227	17.813	1883.250	1850.702
326.241	17.859	1881.411	1849.170
327.256	17.847	1880.163	1847.588
328.270	17.764	1880.030	1846.336
329.285	17.916	1878.705	1846.464
330.300	18.569	1881.457	1856.054
331.314	20.588	1884.072	1880.386
332.329	20.314	1880.079	1873.203
333.343	18.428	1873.910	1846.420
334.358	17.988	1870.799	1838.375
335.373	17.910	1868.760	1835.309
336.387	17.782	1867.601	1832.564
337.402	17.822	1865.949	1831.156
338.416	17.725	1864.761	1828.733
339.431	17.787	1863.893	1828.325
340.446	17.889	1861.477	1826.837
341.460	18.011	1860.414	1826.881
342.475	17.958	1859.441	1825.142
343.489	18.083	1857.871	1824.724
344.504	18.094	1856.435	1823.211
345.519	18.123	1855.588	1822.478
346.533	18.123	1853.864	1820.565
347.548	18.302	1851.876	1820.304
348.562	18.219	1851.201	1818.541
349.577	18.216	1850.402	1817.502
350.592	18.123	1849.732	1815.637
351.606	18.197	1848.006	1814.509
352.621	18.170	1846.109	1812.139
353.635	17.985	1844.441	1808.318
354.650	17.840	1843.567	1805.703
355.665	17.905	1841.016	1803.682
356.679	17.894	1840.457	1802.802
357.694	17.763	1839.366	1800.130
358.708	17.812	1837.423	1798.532
359.723	18.663	1840.493	1810.343
360.738	20.576	1843.178	1833.061
361.752	20.083	1838.086	1822.568
362.767	18.357	1832.702	1798.807
363.781	17.791	1829.888	1789.854
364.796	17.920	1828.569	1789.718
365.810	17.914	1827.770	1788.651
366.825	17.988	1826.478	1787.950
367.840	17.962	1825.680	1786.682
368.854	17.914	1825.251	1785.552
369.869	17.853	1822.664	1782.162
370.883	17.719	1820.965	1778.888
371.898	17.689	1820.663	1778.065
372.913	17.787	1819.413	1777.657
373.927	17.878	1818.113	1777.119
374.942	17.964	1816.912	1776.631
375.956	17.993	1814.578	1774.443
376.971	17.869	1812.941	1771.341
377.986	17.847	1811.745	1769.725
379.000	17.942	1809.929	1768.728
380.015	18.104	1808.603	1768.910
381.029	18.004	1806.940	1766.030
382.044	17.902	1806.033	1763.872
383.059	17.997	1803.654	1762.326
384.073	17.956	1802.745	1760.799
385.088	17.844	1801.092	1757.815
386.102	17.824	1799.752	1756.090
387.117	17.873	1798.444	1755.107
388.132	17.704	1798.762	1753.463
389.146	18.345	1801.636	1762.693
390.161	20.387	1803.942	1785.870
391.175	20.275	1797.418	1778.039
392.190	18.348	1789.969	1750.671
393.205	17.806	1788.355	1743.324
394.219	17.895	1786.633	1742.346
395.234	17.834	1785.900	1740.801
396.248	17.816	1784.347	1738.889
397.263	17.982	1782.242	1738.333
398.278	17.785	1779.654	1733.586
399.292	17.798	1779.366	1733.230
400.307	17.978	1779.293	1734.793
401.321	18.025	1777.577	1733.388
402.336	17.853	1776.450	1730.330
403.350	17.982	1775.176	1730.194
404.365	18.023	1773.815	1729.083
405.380	18.308	1773.634	1731.596
406.394	18.455	1772.248	1731.532
407.409	18.379	1770.613	1728.949
408.423	18.345	1768.380	1726.216
409.438	18.272	1766.760	1723.692
410.453	18.255	1765.441	1722.030
411.467	18.321	1765.305	1722.353
412.482	18.263	1763.410	1719.720
413.496	18.213	1761.940	1717.572
414.511	18.001	1760.139	1713.476
415.526	18.094	1757.364	1711.503
416.540	18.075	1755.895	1709.679
417.555	17.865	1755.668	1707.138
418.569	17.938	1755.920	1707.916
419.584	18.019	1755.534	1708.145
420.599	18.027	1755.386	1707.881
421.613	17.963	1753.643	1705.335
422.628	18.028	1752.267	1704.443
423.642	17.950	1751.437	1702.652
424.657	17.945	1750.038	1701.036
425.672	17.863	1748.098	1698.132
426.686	17.982	1746.136	1697.213
427.701	17.889	1744.707	1694.687
428.715	18.014	1743.022	1694.096
429.730	18.103	1741.876	1693.665
430.745	18.028	1740.976	1691.838
431.759	18.012	1739.887	1690.424
432.774	18.051	1739.519	1690.253
433.788	18.163	1739.213	1690.858
434.803	18.233	1737.917	1690.097
435.818	18.015	1737.820	1687.636
436.832	17.854	1737.729	1685.746
437.847	17.034	1729.708	1669.656
438.861	9.348	1709.414	1574.485
439.876	1.638	1695.330	1485.863
440.890	0.242	1691.415	1468.583
441.905	0.144	1691.002	1467.090
442.920	0.233	1689.238	1466.254
443.934	0.171	1687.745	1464.177
444.949	0.077	1686.873	1462.328
445.963	0.143	1685.635	1461.725
446.978	0.082	1685.503	1460.838
447.993	0.266	1683.434	1460.665
449.007	0.204	1680.998	1457.771
450.022	0.073	1679.128	1454.697
451.036	0.247	1678.682	1455.833
452.051	1.187	1682.691	1468.281
453.066	8.807	1699.719	1557.653
454.080	16.294	1711.141	1641.340
455.095	17.611	1712.373	1655.197
456.109	17.761	1712.577	1656.658
457.124	17.639	1711.902	1654.617
458.139	17.629	1711.292	1653.736
459.153	17.826	1709.855	1654.070
460.168	17.802	1707.832	1651.682
461.182	17.859	1706.149	1650.404
462.197	17.963	1704.205	1649.337
463.212	18.012	1703.232	1648.677
464.226	17.863	1702.138	1645.975
465.241	18.042	1700.935	1646.342
466.255	18.084	1699.598	1645.258
467.270	17.943	1698.868	1642.995
468.285	17.835	1697.698	1640.625
469.299	17.699	1695.934	1637.409
470.314	17.865	1694.094	1637.041
471.328	17.904	1692.903	1636.064
472.343	17.899	1691.903	1634.855
473.358	17.888	1690.592	1633.290
474.372	17.953	1689.145	1632.316
475.387	17.885	1687.458	1629.837
476.401	17.966	1686.783	1629.765
477.416	17.932	1685.529	1628.039
478.430	17.923	1684.461	1626.721
479.445	17.775	1682.998	1623.701
480.460	17.932	1681.304	1623.376
481.474	17.843	1681.164	1622.195
482.489	17.944	1679.382	1621.240
483.503	18.062	1676.941	1619.813
484.518	17.941	1676.789	1618.327
485.533	17.846	1675.006	1615.503
486.547	17.900	1674.118	1614.967
487.562	18.081	1672.512	1614.949
488.576	18.107	1671.162	1613.698
489.591	18.019	1669.678	1611.239
490.606	17.913	1669.190	1609.566
491.620	17.949	1666.915	1607.517
492.635	17.993	1665.757	1606.630
493.649	18.009	1664.241	1605.121
494.664	17.934	1663.143	1603.165
495.679	17.767	1662.209	1600.497
496.693	17.905	1660.383	1599.845
497.708	17.998	1658.618	1598.829
498.722	18.010	1658.499	1598.637
499.737	18.148	1656.103	1597.433
500.752	18.121	1655.000	1595.928
501.766	17.932	1654.552	1593.528
502.781	18.012	1652.241	1591.861
503.795	18.070	1650.466	1590.503
504.810	18.081	1650.132	1590.098
505.825	18.099	1649.523	1589.482
506.839	18.083	1648.409	1588.069
507.854	18.015	1647.205	1586.085
508.868	18.036	1645.334	1584.291
509.883	18.011	1644.768	1583.329
510.898	18.077	1643.824	1582.840
511.912	17.996	1641.932	1580.078
512.927	17.907	1640.108	1577.308
513.941	17.818	1638.820	1575.050
514.956	17.928	1636.986	1574.120
515.971	17.828	1635.887	1571.950
516.985	17.886	1635.398	1571.829
518.000	17.923	1634.007	1570.648
519.014	17.983	1632.491	1569.552
520.029	18.005	1631.779	1568.883
521.043	18.029	1630.411	1567.599
522.058	18.053	1629.810	1567.061
523.073	17.793	1629.188	1563.875
524.087	18.228	1627.304	1565.882
525.102	18.029	1626.086	1562.697
526.116	18.086	1624.385	1561.396
527.131	17.998	1623.618	1559.666
528.146	18.130	1622.808	1559.916
529.160	18.071	1621.613	1558.030
530.175	18.021	1620.752	1556.565
531.189	17.985	1619.688	1555.021
532.204	18.175	1617.897	1554.857
533.219	18.113	1616.562	1552.824
534.233	17.954	1616.845	1551.456
535.248	18.132	1614.699	1550.836
536.262	18.293	1613.442	1550.906
537.277	18.101	1612.755	1548.315
538.292	18.103	1610.834	1546.298
539.306	18.202	1608.501	1544.775
540.321	18.263	1607.042	1543.740
541.335	18.091	1605.922	1540.922
542.350	18.252	1604.188	1540.530
543.365	18.246	1602.825	1538.984
544.379	18.192	1602.270	1537.778
545.394	18.160	1601.553	1536.615
546.408	18.162	1599.645	1534.624
547.423	18.179	1598.692	1533.673
548.438	18.055	1596.936	1530.693
549.452	18.190	1595.881	1530.711
550.467	18.159	1595.233	1529.627
551.481	18.101	1594.285	1528.019
552.496	18.129	1593.432	1527.268
553.511	18.327	1591.998	1527.487
554.525	18.192	1591.191	1525.322
555.540	18.143	1590.889	1524.410
556.554	18.211	1589.864	1523.850
557.569	18.188	1587.612	1521.306
558.583	18.147	1586.517	1519.706
559.598	18.163	1585.465	1518.659
560.613	18.112	1585.022	1517.599
561.627	18.170	1582.964	1515.967
562.642	18.214	1581.830	1515.084
563.656	18.267	1580.267	1513.880
564.671	18.291	1578.899	1512.604
565.686	18.261	1577.599	1510.913
566.700	18.161	1576.492	1508.785
567.715	18.010	1574.852	1505.693
568.729	17.921	1572.946	1502.903
569.744	17.722	1572.095	1500.149
570.759	17.987	1571.203	1501.466
571.773	18.010	1569.604	1499.958
572.788	18.186	1568.316	1500.098
573.802	18.108	1567.268	1498.230
574.817	18.281	1566.145	1498.502
575.832	18.106	1565.131	1495.816
576.846	18.395	1563.387	1496.505
577.861	18.115	1562.748	1493.258
578.875	18.205	1562.336	1493.470
579.890	18.236	1561.594	1492.857
580.905	18.238	1560.140	1491.307
581.919	18.363	1559.395	1491.513
582.934	18.490	1558.526	1491.608
583.948	18.431	1556.898	1489.356
584.963	18.341	1555.656	1487.206
585.978	18.233	1554.934	1485.399
586.992	18.161	1554.122	1483.815
588.007	18.332	1553.497	1484.528
589.021	18.196	1551.900	1481.640
590.036	18.071	1550.189	1478.741
591.051	18.148	1548.825	1477.940
592.065	18.186	1547.453	1476.782
593.080	18.300	1546.435	1476.622
594.094	18.251	1544.906	1474.560
595.109	18.306	1542.625	1472.677
596.123	18.198	1540.486	1469.532
597.138	18.256	1540.008	1469.395
598.153	18.316	1539.652	1469.398
599.167	18.170	1538.592	1466.953
600.182	18.184	1537.494	1465.855
601.196	18.354	1536.360	1466.055
602.211	18.202	1535.030	1463.308
603.226	18.319	1534.332	1463.476
604.240	18.386	1532.587	1462.209
605.255	18.358	1532.281	1461.501
606.269	18.374	1530.425	1459.688
607.284	18.454	1528.886	1458.736
608.299	18.294	1528.103	1456.446
609.313	18.205	1526.579	1454.055
610.328	18.310	1525.573	1453.820
611.342	18.340	1523.636	1452.059
612.357	18.306	1523.120	1451.103
613.372	18.453	1522.555	1451.641
614.386	18.346	1521.406	1449.465
615.401	18.484	1520.618	1449.712
616.415	18.387	1519.595	1447.739
617.430	18.420	1518.652	1446.948
618.445	18.426	1517.835	1446.043
619.459	18.230	1516.335	1442.786
620.474	18.181	1515.162	1441.077
621.488	18.080	1514.319	1439.252
622.503	18.109	1512.364	1437.464
623.518	18.260	1511.093	1437.363
624.532	18.327	1510.355	1437.048
625.547	18.322	1509.764	1436.272
626.561	18.363	1509.416	1436.118
627.576	18.555	1507.834	1436.056
628.591	18.234	1506.191	1431.616
629.605	18.250	1503.960	1429.459
630.620	18.240	1502.890	1428.190
631.634	18.088	1502.137	1426.029
632.649	18.152	1501.327	1425.629
633.663	18.282	1499.973	1425.261
634.678	18.492	1498.492	1425.437
635.693	18.492	1497.324	1424.156
636.707	18.465	1496.442	1422.918
637.722	18.565	1495.515	1422.705
638.736	18.517	1495.145	1421.774
639.751	18.704	1493.716	1421.810
640.766	18.523	1492.735	1419.194
641.780	18.597	1491.166	1418.152
642.795	18.499	1490.174	1416.219
643.809	18.462	1489.929	1415.517
644.824	18.614	1488.571	1415.318
645.839	18.543	1487.330	1413.377
646.853	18.538	1486.253	1412.140
647.868	18.580	1484.357	1410.522
648.882	18.510	1483.513	1408.971
649.897	18.616	1481.661	1407.922
650.912	18.563	1481.028	1406.713
651.926	18.498	1480.382	1405.395
652.941	18.403	1478.940	1403.072
653.955	18.401	1477.169	1401.207
654.970	18.372	1475.187	1398.924
655.985	18.315	1473.875	1397.045
656.999	18.293	1472.607	1395.493
658.014	18.570	1471.256	1396.314
659.028	18.441	1470.986	1394.833
660.043	18.463	1470.662	1394.541
661.058	18.481	1469.065	1393.008
662.072	18.600	1468.520	1393.297
663.087	18.550	1467.719	1391.963
664.101	18.422	1466.190	1389.302
665.116	18.558	1464.956	1389.071
666.131	18.626	1463.497	1388.073
667.145	18.533	1463.066	1386.748
668.160	18.538	1461.861	1385.480
669.174	18.778	1460.345	1385.825
670.189	18.672	1459.169	1383.681
671.204	18.499	1458.482	1381.464
672.218	18.572	1457.684	1381.132
673.233	18.672	1456.198	1380.368
674.247	18.677	1455.102	1379.203
675.262	18.699	1454.450	1378.598
676.276	18.772	1452.833	1377.487
677.291	18.613	1451.921	1375.175
678.306	18.723	1450.635	1374.685
679.320	18.568	1449.663	1372.348
680.335	18.618	1448.834	1371.801
681.349	18.791	1448.129	1372.359
682.364	18.517	1447.811	1369.696
683.379	18.781	1445.444	1369.403
684.393	18.565	1444.389	1366.516
685.408	18.737	1442.780	1366.199
686.422	18.673	1442.415	1365.184
687.437	18.776	1441.796	1365.258
688.452	18.590	1441.047	1362.899
689.466	18.781	1439.300	1362.606
690.481	18.644	1437.804	1359.937
691.495	18.374	1437.129	1356.986
692.510	18.239	1435.531	1354.240
693.525	18.095	1434.347	1351.816
694.539	18.263	1433.282	1351.987
695.554	18.307	1433.329	1352.213
696.568	18.665	1432.641	1354.246
697.583	18.688	1431.268	1352.969
698.598	18.579	1430.808	1351.506
699.612	18.820	1429.345	1351.870
700.627	18.797	1428.005	1350.258
701.641	18.845	1426.851	1349.382
702.656	18.714	1426.373	1347.737
703.671	18.834	1426.156	1348.318
704.685	18.742	1425.324	1346.646
705.700	18.828	1423.926	1345.843
706.714	18.666	1422.442	1343.006
707.729	18.741	1420.702	1341.789
708.744	18.672	1419.207	1339.670
709.758	18.522	1418.097	1337.288
710.773	18.514	1416.928	1335.961
711.787	18.512	1415.603	1334.540
712.802	18.472	1414.208	1332.752
713.816	18.540	1413.631	1332.579
714.831	18.855	1412.491	1333.807
715.846	18.778	1410.797	1331.448
716.860	18.812	1410.302	1331.083
717.875	18.771	1409.203	1329.568
718.889	18.655	1408.596	1327.933
719.904	18.566	1407.913	1326.436
720.919	18.796	1406.484	1326.718
721.933	18.909	1405.345	1326.366
722.948	19.101	1404.347	1326.749
723.962	18.886	1403.339	1323.974
724.977	18.835	1402.346	1322.488
725.992	18.924	1401.427	1322.144
727.006	19.016	1399.250	1320.649
728.021	18.963	1398.208	1319.093
729.035	18.998	1397.391	1318.433
730.050	18.796	1396.381	1315.769
731.065	18.890	1395.434	1315.442
732.079	18.992	1394.376	1315.071
733.094	18.821	1393.516	1312.789
734.108	19.038	1391.617	1312.509
735.123	18.865	1390.577	1310.043
736.138	18.931	1389.354	1309.244
737.152	18.974	1388.492	1308.601
738.167	18.993	1387.900	1308.033
739.181	19.047	1386.917	1307.363
740.196	19.028	1385.902	1306.106
741.211	18.921	1385.443	1304.700
742.225	18.766	1385.008	1302.948
743.240	18.906	1383.087	1302.055
744.254	18.854	1381.778	1300.272
745.269	18.792	1381.271	1299.169
746.284	18.809	1380.269	1298.193
747.298	18.749	1378.768	1296.177
748.313	18.669	1377.723	1294.427
749.327	18.316	1377.034	1290.953
750.342	18.365	1375.562	1289.787
751.356	18.149	1374.519	1287.024
752.371	18.413	1373.015	1287.455
753.386	18.645	1372.242	1288.331
754.400	18.851	1372.388	1289.867
755.415	18.901	1370.724	1288.526
756.429	18.946	1369.461	1287.524
757.444	18.870	1368.800	1286.174
758.459	18.974	1367.534	1285.612
759.473	19.070	1366.233	1284.955
760.488	19.040	1365.396	1283.789
761.502	19.054	1364.099	1282.518
762.517	18.913	1363.987	1281.206
763.532	19.101	1361.667	1280.278
764.546	18.700	1361.409	1276.883
765.561	18.569	1360.473	1274.878
766.575	18.437	1358.755	1272.128
767.590	18.526	1357.689	1271.643
768.605	18.823	1355.867	1271.993
769.619	18.847	1355.059	1271.258
770.634	18.778	1354.914	1270.461
771.648	18.972	1353.694	1270.605
772.663	19.044	1353.022	1270.353
773.678	19.019	1352.016	1269.074
774.692	19.023	1351.163	1268.155
775.707	19.099	1350.427	1267.874
776.721	19.143	1349.676	1267.338
777.736	19.029	1348.873	1265.588
778.751	19.017	1347.930	1264.469
779.765	19.024	1346.886	1263.390
780.780	19.058	1345.872	1262.537
781.794	18.979	1345.190	1261.163
782.809	19.025	1343.628	1259.889
783.824	18.880	1342.459	1257.571
784.838	18.732	1340.376	1254.386
785.853	18.405	1339.530	1251.044
786.867	18.474	1339.474	1251.347
787.882	18.566	1339.469	1251.865
788.897	18.572	1338.607	1250.955
789.911	18.674	1337.668	1250.673
790.926	18.759	1336.170	1249.745
791.940	18.901	1334.735	1249.296
792.955	18.969	1333.290	1248.287
793.969	18.995	1331.917	1247.038
794.984	18.964	1331.426	1246.210
795.999	18.934	1331.024	1245.466
797.013	18.983	1328.833	1243.622
798.028	19.076	1326.947	1242.382
799.042	19.059	1326.693	1241.869
800.057	18.952	1326.159	1240.444
801.072	19.058	1324.828	1239.824
802.086	19.064	1323.518	1238.489
803.101	19.043	1322.746	1237.471
804.115	19.213	1321.979	1237.833
805.130	19.136	1320.749	1235.977
806.145	19.258	1319.575	1235.606
807.159	19.245	1317.887	1233.783
808.174	19.115	1316.833	1231.718
809.188	19.017	1315.370	1229.496
810.203	18.948	1313.688	1227.282
811.218	18.890	1312.641	1225.739
812.232	18.763	1310.649	1222.825
813.247	18.696	1309.707	1221.323
814.261	18.813	1309.914	1222.208
815.276	18.924	1309.249	1222.233
816.291	19.115	1308.133	1222.407
817.305	19.184	1307.631	1222.285
818.320	19.150	1306.096	1220.462
819.334	19.036	1304.445	1217.962
820.349	19.197	1303.431	1218.012
821.364	19.234	1301.810	1216.614
822.378	19.092	1300.082	1213.845
823.393	19.272	1298.659	1213.650
824.407	19.043	1298.179	1211.431
825.422	19.098	1297.522	1211.065
826.437	19.133	1295.809	1209.565
827.451	19.117	1293.736	1207.374
828.466	18.528	1292.831	1202.235
829.480	18.428	1291.350	1200.010
830.495	18.694	1289.361	1199.889
831.509	18.793	1288.734	1199.853
832.524	18.954	1287.978	1200.135
833.539	19.143	1286.861	1200.277
834.553	19.250	1285.956	1200.038
835.568	19.240	1285.061	1198.990
836.582	19.255	1284.451	1198.380
837.597	19.291	1282.805	1196.959
838.612	19.243	1281.147	1194.930
839.626	19.216	1280.457	1193.956
840.641	19.043	1279.506	1191.720
841.655	18.820	1279.202	1189.746
842.670	18.742	1277.655	1187.619
843.685	18.627	1276.633	1185.726
844.699	18.938	1274.849	1186.086
845.714	18.959	1274.467	1185.733
846.728	18.939	1273.465	1184.525
847.743	19.150	1272.154	1184.621
848.758	19.159	1271.341	1183.787
849.772	19.123	1270.408	1182.525
850.787	19.242	1268.340	1181.278
851.801	19.204	1267.729	1180.305
852.816	19.210	1266.159	1178.743
853.831	19.109	1264.374	1176.251
854.845	19.264	1262.323	1175.264
855.860	19.102	1261.372	1173.125
856.874	19.079	1259.626	1171.203
857.889	18.873	1258.765	1168.854
858.904	18.442	1257.764	1164.840
859.918	18.457	1255.565	1162.770
860.933	18.375	1254.455	1161.044
861.947	18.636	1254.154	1162.401
862.962	18.731	1252.896	1161.746
863.977	18.776	1251.840	1160.930
864.991	18.818	1252.199	1161.412
866.006	18.982	1251.707	1161.933
867.020	19.168	1249.609	1161.104
868.035	19.064	1248.931	1159.632
869.049	19.056	1248.481	1159.018
870.064	19.223	1247.173	1158.795
871.079	19.205	1246.415	1157.831
872.093	19.287	1245.761	1157.641
873.108	19.317	1244.408	1156.448
874.122	19.168	1243.048	1154.042
875.137	18.907	1242.934	1152.040
876.152	18.969	1241.630	1151.109
877.166	18.982	1240.222	1149.750
878.181	19.092	1239.300	1149.501
879.195	19.276	1238.206	1149.577
880.210	19.365	1237.052	1148.967
881.225	19.324	1236.514	1148.054
882.239	19.349	1235.645	1147.280
883.254	19.090	1234.849	1144.669
884.268	19.339	1234.033	1145.439
885.283	19.312	1232.787	1143.968
886.298	19.209	1231.243	1141.710
887.312	19.231	1230.041	1140.610
888.327	19.356	1228.685	1140.044
889.341	19.290	1227.875	1138.719
890.356	19.269	1227.306	1137.911
891.371	19.310	1226.403	1137.210
892.385	19.062	1225.708	1134.790
893.400	19.132	1225.013	1134.472
894.414	19.204	1223.089	1133.027
895.429	19.027	1221.602	1130.347
896.444	18.569	1219.741	1125.469
897.458	18.449	1218.549	1123.444
898.473	18.710	1218.249	1124.750
899.487	18.954	1217.585	1125.612
900.502	19.152	1217.120	1126.345
901.517	19.261	1215.868	1125.773
902.531	19.285	1214.869	1124.872
903.546	19.389	1214.276	1124.867
904.560	19.391	1213.734	1124.241
905.575	19.318	1212.887	1122.844
906.589	19.331	1212.282	1122.236
907.604	19.192	1211.346	1120.329
