DTS Sentinel unit serial number:	SN409020Multiplexer serial number:	ORYXHardware model number:	OX4-SRSoftware version number:	ORYX F/W v3.00 Oryx Data Collector v3.7.2.0data status	okinstallation	HaddamTimeLapsedifferential loss correction	single-endedforward channel	channel 3reverse channel	N/Adate	2011/06/22time	11:16:02forward acquisition time	30.00reverse acquisition time	0.00gamma	498.7831k internal	0.1763k external	0.1763temperature offset calibration	1.0074default loss term (dB/km)	0.3790temperature slope calibration	1.3530multiplexer offset coefficient	1.0000multiplexer slope coefficient	1.0000fibre end	0.00T internal ref (°C)	29.12T ext. ref 1 (°C)	24.06T ext. ref 2 (°C)	-0.10length (m)	temperature (°C)	Stokes	anti-Stokes-747.200	-200.000	-0.008	0.173
-746.185	682.283	0.177	0.611
-745.171	116.603	-0.123	-0.199
-744.156	44.765	-0.385	0.467
-743.142	88.647	0.131	0.192
-742.127	-200.000	-0.017	0.604
-741.112	-200.000	0.003	-0.710
-740.098	23.410	-0.292	0.317
-739.083	-160.851	-0.147	-0.010
-738.069	-200.000	-0.017	0.356
-737.054	-60.420	-0.062	0.034
-736.039	-113.841	-0.368	0.094
-735.025	-96.896	-0.165	0.057
-734.010	12.239	0.185	0.188
-732.996	269.449	-0.163	0.378
-731.981	-106.241	0.531	-0.156
-730.966	-200.000	-0.028	-0.451
-729.952	-129.638	-0.418	0.075
-728.937	-15.668	-0.419	-0.352
-727.923	-99.220	-0.291	-0.096
-726.908	317.047	0.058	0.146
-725.894	104.769	0.102	-0.159
-724.879	-190.340	0.442	0.006
-723.864	-200.000	0.016	0.244
-722.850	-74.019	0.204	-0.097
-721.835	327.481	0.175	-0.445
-720.821	-45.375	-0.239	0.156
-719.806	-49.493	0.365	-0.228
-718.791	-86.383	-0.432	-0.174
-717.777	47.677	-0.084	0.103
-716.762	-49.823	-0.215	0.134
-715.748	-200.000	-0.064	0.456
-714.733	-148.230	0.280	0.030
-713.718	99.238	0.235	-0.359
-712.704	139.455	0.101	-0.176
-711.689	726.284	0.092	-0.326
-710.675	-2.610	-0.240	-0.221
-709.660	162.063	-0.158	0.293
-708.645	247.981	-0.188	0.421
-707.631	-42.920	0.332	-0.221
-706.616	-9.717	0.211	-0.185
-705.602	-200.000	0.041	0.243
-704.587	-108.241	-0.219	-0.062
-703.572	-200.000	0.001	-0.060
-702.558	-114.674	0.122	0.031
-701.543	503.278	-0.096	-0.294
-700.529	-16.545	-0.155	-0.129
-699.514	-200.000	0.014	-0.140
-698.499	-134.497	0.278	-0.044
-697.485	130.017	-0.115	-0.194
-696.470	-75.355	-0.385	-0.180
-695.456	45.658	0.163	-0.198
-694.441	334.075	0.034	0.088
-693.426	-93.710	-0.319	-0.115
-692.412	-76.417	-0.311	-0.143
-691.397	551.292	0.089	0.282
-690.383	-22.031	0.288	0.230
-689.368	51.746	-0.242	-0.304
-688.354	-140.488	-0.384	-0.052
-687.339	-146.077	0.934	-0.107
-686.324	231.460	-0.291	0.631
-685.310	378.272	-0.063	0.170
-684.295	27.357	-0.310	-0.342
-683.281	-200.000	-0.018	0.245
-682.266	192.160	0.029	0.058
-681.251	256.807	0.124	-0.281
-680.237	220.410	0.219	0.464
-679.222	149.661	-0.174	-0.311
-678.208	181.356	-0.087	-0.169
-677.193	174.283	0.105	0.201
-676.178	-127.519	-0.153	-0.029
-675.164	-32.490	-0.105	-0.077
-674.149	-97.390	-0.729	0.248
-673.135	-200.000	0.033	0.205
-672.120	-134.104	-0.456	-0.073
-671.105	718.553	0.079	-0.279
-670.091	-100.882	-0.349	-0.112
-669.076	800.000	-0.014	-0.061
-668.062	67.904	0.362	0.487
-667.047	64.761	-0.136	0.180
-666.032	270.678	0.083	0.193
-665.018	800.000	-0.012	-0.045
-664.003	43.326	-0.127	0.152
-662.989	-28.198	0.340	-0.258
-661.974	-161.000	-0.276	-0.019
-660.959	-83.084	-0.554	-0.233
-659.945	-143.282	-0.062	-0.008
-658.930	-200.000	0.033	0.425
-657.916	138.757	-0.272	0.471
-656.901	52.355	-0.177	0.222
-655.886	600.599	-0.097	-0.317
-654.872	800.000	0.007	-0.039
-653.857	-29.918	-0.216	0.161
-652.843	20.244	0.215	0.228
-651.828	15.496	0.086	0.089
-650.814	-200.000	-0.037	-0.496
-649.799	194.896	-0.113	-0.226
-648.784	-200.000	0.023	-0.295
-647.770	12.026	-0.264	-0.267
-646.755	-73.303	0.159	0.076
-645.741	-52.970	0.060	-0.036
-644.726	-3.657	0.352	0.321
-643.711	-145.523	-0.484	0.056
-642.697	-64.675	0.163	0.087
-641.682	-89.191	0.406	0.157
-640.668	-109.415	-0.430	0.119
-639.653	-68.422	-0.360	-0.183
-638.638	-66.364	-0.328	-0.171
-637.624	-107.352	-0.168	-0.048
-636.609	-200.000	-0.007	0.048
-635.595	-200.000	-0.069	0.421
-634.580	-20.054	-0.132	0.106
-633.565	-200.000	-0.022	0.208
-632.551	-166.557	-0.238	-0.013
-631.536	800.000	0.011	0.054
-630.522	-143.927	0.463	-0.057
-629.507	-34.192	-0.341	-0.246
-628.492	13.202	-0.220	0.224
-627.478	69.038	0.174	-0.235
-626.463	-152.175	0.086	0.008
-625.449	224.380	-0.077	-0.164
-624.434	-22.523	0.221	-0.175
-623.419	125.733	0.225	-0.373
-622.405	648.529	-0.181	0.611
-621.390	-92.306	0.359	0.132
-620.376	181.185	-0.215	-0.417
-619.361	616.351	0.154	0.508
-618.346	75.633	0.107	0.149
-617.332	90.617	0.184	0.271
-616.317	-102.468	0.197	0.061
-615.303	-91.905	-0.455	-0.169
-614.288	-86.940	0.151	0.060
-613.273	-172.291	0.013	-0.001
-612.259	103.676	0.132	-0.204
-611.244	-95.918	-0.233	0.081
-610.230	-131.618	0.323	-0.055
-609.215	423.435	-0.098	-0.279
-608.201	-16.605	0.401	-0.333
-607.186	151.604	-0.105	0.188
-606.171	-54.977	0.325	0.192
-605.157	115.950	-0.239	-0.385
-604.142	780.713	-0.157	-0.567
-603.128	-200.000	-0.012	0.212
-602.113	-200.000	0.017	-0.490
-601.098	-95.713	0.137	0.048
-600.084	-65.857	0.178	0.093
-599.069	140.390	-0.122	-0.212
-598.055	800.000	0.108	-0.606
-597.040	-82.530	-0.479	-0.203
-596.025	86.588	0.208	0.301
-595.011	-63.211	-0.195	-0.105
-593.996	-137.033	0.431	-0.064
-592.982	-200.000	0.013	-0.167
-591.967	190.183	0.116	-0.228
-590.952	-149.360	0.296	-0.030
-589.938	-128.565	-0.513	-0.094
-588.923	412.834	0.190	-0.533
-587.909	-120.836	0.062	-0.014
-586.894	499.983	-0.086	0.261
-585.879	800.000	0.035	0.174
-584.865	-122.850	0.269	-0.056
-583.850	-31.021	0.103	-0.076
-582.836	-200.000	-0.004	-0.110
-581.821	326.999	0.062	-0.156
-580.806	-68.777	-0.357	0.180
-579.792	800.000	-0.092	-0.343
-578.777	18.823	0.136	0.142
-577.763	387.511	0.035	0.097
-576.748	-200.000	0.012	0.461
-575.733	-140.167	-0.370	-0.050
-574.719	196.926	0.183	-0.366
-573.704	-138.216	0.464	-0.067
-572.690	-200.000	-0.093	-0.561
-571.675	-47.948	0.224	-0.142
-570.661	-25.395	-0.295	0.228
-569.646	-200.000	-0.005	0.527
-568.631	-200.000	0.020	0.159
-567.617	-56.905	-0.066	-0.038
-566.602	-200.000	-0.019	0.381
-565.588	-110.267	-0.642	0.174
-564.573	15.326	-0.381	0.391
-563.558	-104.830	0.507	-0.152
-562.544	-15.628	0.275	0.229
-561.529	-91.650	-0.666	0.247
-560.515	-200.000	-0.003	0.097
-559.500	-141.558	0.298	-0.039
-558.485	73.384	0.076	0.104
-557.471	-49.836	0.298	-0.185
-556.456	42.118	0.187	-0.222
-555.442	-200.000	-0.029	0.376
-554.427	162.457	-0.215	0.395
-553.412	-52.780	0.329	0.198
-552.398	692.822	0.162	-0.559
-551.383	-131.122	-0.283	-0.049
-550.369	-44.104	0.143	0.094
-549.354	-132.495	0.388	0.065
-548.339	800.000	0.057	-0.216
-547.325	-96.429	-0.217	-0.075
-546.310	-200.000	-0.017	-0.107
-545.296	-156.565	0.792	-0.064
-544.281	371.981	-0.043	0.115
-543.266	736.559	0.012	0.041
-542.252	-200.000	0.047	-0.538
-541.237	-120.082	0.351	0.078
-540.223	-70.968	0.220	-0.108
-539.208	660.689	-0.090	0.306
-538.193	-137.498	0.046	-0.007
-537.179	-133.697	0.443	0.072
-536.164	-60.887	0.082	-0.045
-535.150	122.029	-0.227	0.371
-534.135	-170.818	-0.362	-0.016
-533.121	101.724	-0.201	0.307
-532.106	5.086	0.262	0.252
-531.091	800.000	-0.021	0.121
-530.077	800.000	-0.043	-0.197
-529.062	88.299	-0.208	-0.303
-528.048	168.705	0.181	0.339
-527.033	-81.751	-0.358	0.153
-526.018	56.712	0.288	-0.367
-525.004	-73.905	-0.382	-0.181
-523.989	-139.432	0.332	-0.046
-522.975	82.316	0.055	-0.078
-521.960	-200.000	0.063	0.842
-520.945	-47.408	-0.276	0.175
-519.931	-200.000	-0.027	-0.308
-518.916	62.065	-0.290	0.378
-517.902	137.604	-0.411	0.705
-516.887	121.774	0.328	-0.536
-515.872	-42.291	-0.393	-0.262
-514.858	-121.480	-0.621	0.134
-513.843	96.573	-0.055	0.083
-512.829	62.515	0.208	0.272
-511.814	98.661	0.087	0.132
-510.799	85.874	-0.201	0.290
-509.785	-75.212	-0.090	-0.042
-508.770	22.214	-0.586	-0.626
-507.756	800.000	-0.150	-0.563
-506.741	800.000	-0.057	-0.330
-505.726	-9.175	0.165	-0.144
-504.712	-200.000	-0.075	-0.530
-503.697	162.828	0.077	-0.142
-502.683	-120.820	0.167	0.037
-501.668	34.046	-0.067	-0.076
-500.653	52.751	-0.373	0.466
-499.639	-107.984	-0.455	-0.128
-498.624	-11.329	-0.195	0.168
-497.610	-167.044	-0.324	-0.017
-496.595	-53.478	0.055	0.033
-495.581	315.789	-0.077	0.190
-494.566	5.465	0.241	0.232
-493.551	-19.379	0.358	0.289
-492.537	-200.000	0.022	-0.679
-491.522	60.896	-0.060	-0.077
-490.508	-200.000	-0.063	0.532
-489.493	-14.426	0.003	-0.003
-488.478	-15.542	-0.176	0.146
-487.464	-200.000	-0.012	0.275
-486.449	42.979	0.085	0.101
-485.435	-126.914	-0.170	-0.032
-484.420	-81.009	-0.083	-0.036
-483.405	400.068	-0.126	-0.346
-482.391	74.935	0.062	0.085
-481.376	-106.910	-0.593	-0.170
-480.362	-30.887	-0.298	0.220
-479.347	42.355	0.091	0.108
-478.332	499.097	-0.156	0.472
-477.318	749.763	0.024	-0.086
-476.303	-23.302	-0.236	0.185
-475.289	142.225	0.039	0.068
-474.274	-42.303	-0.152	0.101
-473.259	-200.000	-0.009	-0.073
-472.245	-41.826	-0.463	0.309
-471.230	-90.629	-0.433	-0.162
-470.216	-193.463	-0.434	0.005
-469.201	800.000	0.035	0.138
-468.186	109.009	-0.094	-0.147
-467.172	-96.588	-0.529	0.181
-466.157	256.617	-0.100	0.225
-465.143	-26.624	0.247	0.188
-464.128	248.989	-0.106	-0.235
-463.113	800.000	0.053	-0.261
-462.099	-200.000	-0.020	-0.222
-461.084	-51.428	-0.112	0.068
-460.070	-23.955	-0.147	0.114
-459.055	-194.464	-0.548	0.006
-458.040	-8.567	0.123	0.108
-457.026	800.000	0.081	0.381
-456.011	7.186	0.189	0.184
-454.997	228.542	0.170	-0.362
-453.982	-150.512	-0.344	0.034
-452.968	800.000	0.057	0.277
-451.953	-152.759	0.454	0.042
-450.938	475.068	-0.082	0.243
-449.924	-69.902	-0.428	0.212
-448.909	150.858	-0.064	-0.114
-447.895	-189.047	-0.141	0.002
-446.880	-34.926	-0.360	0.255
-445.865	800.000	-0.102	0.432
-444.851	-160.314	0.345	-0.024
-443.836	800.000	0.107	-0.569
-442.822	-35.641	-0.317	0.224
-441.807	-29.482	-0.025	0.019
-440.792	-17.415	0.098	0.080
-439.778	10.248	-0.402	-0.398
-438.763	-128.369	0.462	-0.085
-437.749	247.148	0.354	0.781
-436.734	-200.000	0.094	0.586
-435.719	-50.447	-0.218	-0.134
-434.705	-200.000	-0.041	0.425
-433.690	581.929	0.182	0.585
-432.676	-200.000	-0.008	0.434
-431.661	-163.172	-0.112	-0.007
-430.646	196.107	0.178	0.354
-429.632	225.436	-0.164	0.346
-428.617	-98.794	0.213	-0.070
-427.603	-142.259	-0.326	-0.041
-426.588	68.802	0.171	-0.229
-425.573	-27.470	0.395	0.299
-424.559	-31.028	-0.091	0.067
-423.544	800.000	-0.020	-0.101
-422.530	-127.443	-0.097	-0.018
-421.515	-134.104	0.145	0.023
-420.500	-57.655	0.255	0.145
-419.486	-107.235	0.410	-0.117
-418.471	800.000	-0.043	-0.156
-417.457	112.095	0.135	0.213
-416.442	-56.462	0.567	-0.327
-415.428	402.911	0.199	-0.548
-414.413	35.979	0.275	-0.315
-413.398	40.357	-0.335	-0.392
-412.384	142.881	-0.080	0.139
-411.369	-41.022	0.502	0.337
-410.355	800.000	0.013	0.063
-409.340	-200.000	0.013	-0.179
-408.325	-90.617	-0.403	-0.151
-407.311	37.772	-0.282	-0.326
-406.296	319.263	0.045	0.110
-405.282	390.502	0.067	-0.181
-404.267	-39.746	0.707	-0.480
-403.252	129.601	0.266	0.444
-402.238	-200.000	0.013	0.409
-401.223	194.136	-0.386	0.763
-400.209	163.479	0.228	-0.419
-399.194	-76.764	0.217	0.099
-398.179	543.679	-0.155	0.483
-397.165	-113.745	0.355	-0.089
-396.150	16.000	0.120	-0.123
-395.136	119.459	-0.141	0.227
-394.121	-111.192	-0.389	-0.103
-393.106	-158.423	-0.168	0.013
-392.092	-115.441	0.435	0.106
-391.077	182.493	0.159	0.307
-390.063	-112.093	-0.323	-0.084
-389.048	125.469	0.227	0.373
-388.033	-150.954	-0.217	0.021
-387.019	-102.371	-0.276	-0.085
-386.004	-120.993	-0.337	-0.073
-384.990	-200.000	-0.009	0.208
-383.975	37.350	0.042	0.048
-382.960	58.357	0.329	0.420
-381.946	-33.416	0.153	0.110
-380.931	135.909	-0.135	0.229
-379.917	-129.008	0.404	-0.073
-378.902	-112.803	-0.158	0.041
-377.888	28.666	-0.172	0.189
-376.873	-145.554	0.167	-0.019
-375.858	174.239	-0.081	0.152
-374.844	-62.458	0.258	0.139
-373.829	-62.338	0.370	0.200
-372.815	-85.036	0.080	-0.033
-371.800	-95.916	-0.266	0.092
-370.785	-67.696	-0.338	0.171
-369.771	-132.467	-0.418	0.069
-368.756	-90.563	0.396	0.148
-367.742	-200.000	-0.052	0.433
-366.727	-1.021	0.356	-0.327
-365.712	77.554	0.089	-0.124
-364.698	-127.287	-0.091	0.017
-363.683	166.018	-0.151	0.279
-362.669	85.232	0.211	0.302
-361.654	800.000	-0.069	0.334
-360.639	-200.000	0.008	-0.379
-359.625	-2.547	-0.104	-0.095
-358.610	-200.000	0.019	0.245
-357.596	-42.402	0.548	-0.363
-356.581	55.668	0.408	-0.513
-355.566	-52.872	0.319	0.191
-354.552	167.078	0.255	0.471
-353.537	4.553	-0.295	-0.281
-352.523	-93.201	-0.533	-0.191
-351.508	800.000	-0.030	-0.121
-350.493	-24.018	-0.100	-0.078
-349.479	-200.000	-0.010	-0.067
-348.464	-200.000	-0.015	0.160
-347.450	-28.094	-0.339	-0.254
-346.435	-117.100	-0.171	-0.040
-345.420	31.058	0.196	0.219
-344.406	-45.424	-0.213	0.137
-343.391	-108.934	0.433	0.119
-342.377	-200.000	-0.031	0.192
-341.362	230.619	0.062	-0.132
-340.348	13.051	-0.277	0.278
-339.333	-131.711	0.197	0.033
-338.318	458.582	0.154	0.448
-337.304	-58.858	0.220	0.123
-336.289	111.086	-0.084	-0.131
-335.275	31.216	0.223	0.248
-334.260	-116.747	0.775	-0.183
-333.245	755.219	-0.044	-0.154
-332.231	370.219	0.130	0.343
-331.216	-67.684	0.358	-0.181
-330.202	135.805	0.063	-0.106
-329.187	273.106	-0.109	-0.251
-328.172	-200.000	0.010	-0.413
-327.158	0.540	-0.141	-0.131
-326.143	623.678	-0.060	-0.199
-325.129	-110.747	0.652	-0.173
-324.114	-200.000	-0.024	0.165
-323.099	50.649	0.110	-0.135
-322.085	-200.000	0.026	-0.185
-321.070	-31.475	-0.239	-0.174
-320.056	-200.000	-0.040	-0.304
-319.041	-200.000	0.020	-0.444
-318.026	-149.720	-0.317	0.032
-317.012	116.974	-0.098	0.156
-315.997	-85.851	0.765	-0.306
-314.983	-116.396	-0.366	0.087
-313.968	800.000	0.068	0.358
-312.953	-200.000	0.026	0.369
-311.939	-7.030	-0.372	0.327
-310.924	-123.911	0.210	0.043
-309.910	-11.861	0.142	-0.120
-308.895	-65.701	0.142	0.074
-307.880	-23.765	-0.064	-0.049
-306.866	126.756	-0.161	-0.265
-305.851	367.572	-0.064	-0.169
-304.837	-149.955	0.288	0.029
-303.822	-183.086	0.284	-0.006
-302.807	-45.176	0.340	0.218
-301.793	-7.435	0.315	-0.276
-300.778	46.891	0.091	0.110
-299.764	5.480	-0.240	0.230
-298.749	221.933	-0.175	-0.366
-297.735	-102.435	0.524	-0.162
-296.720	800.000	0.067	-0.285
-295.705	63.483	0.141	0.183
-294.691	30.032	0.088	0.098
-293.676	-200.000	0.086	0.599
-292.662	316.459	0.128	0.315
-291.647	237.722	-0.082	-0.177
-290.632	800.000	-0.011	0.050
-289.618	114.147	-0.244	0.385
-288.603	155.997	-0.086	-0.155
-287.589	800.000	0.044	-0.246
-286.574	-76.568	-0.334	-0.151
-285.559	-68.692	0.174	-0.087
-284.545	-200.000	-0.023	0.141
-283.530	-175.100	-0.386	-0.014
-282.516	-111.911	-0.453	-0.118
-281.501	-168.390	0.360	0.018
-280.486	-92.555	-0.290	-0.105
-279.472	88.377	-0.053	-0.077
-278.457	-88.822	-0.484	0.185
-277.443	696.029	-0.146	-0.499
-276.428	800.000	0.061	-0.301
-275.413	-200.000	0.030	-0.200
-274.399	800.000	0.032	-0.165
-273.384	800.000	0.113	0.482
-272.370	-130.270	0.486	0.085
-271.355	-118.326	-0.077	0.017
-270.340	498.281	-0.103	0.309
-269.326	-52.339	0.471	0.282
-268.311	139.806	-0.095	0.162
-267.297	11.626	0.169	-0.168
-266.282	800.000	0.103	-0.482
-265.267	-18.737	-0.214	0.172
-264.253	800.000	0.015	-0.067
-263.238	-16.710	-0.263	-0.215
-262.224	13.391	0.176	0.177
-261.209	-147.508	-0.242	-0.026
-260.195	190.059	-0.102	0.199
-259.180	42.621	-0.054	0.063
-258.165	-56.383	0.034	-0.019
-257.151	-200.000	-0.047	-0.386
-256.136	-112.805	0.203	0.052
-255.122	-189.286	-0.332	0.005
-254.107	31.104	0.270	0.300
-253.092	-185.086	0.408	0.008
-252.078	-98.951	0.181	-0.059
-251.063	205.851	-0.104	0.210
-250.049	-74.706	-0.103	0.048
-249.034	265.654	0.108	-0.245
-248.019	-90.040	-0.245	-0.092
-247.005	-200.000	-0.026	0.202
-245.990	466.901	0.206	-0.599
-244.976	8.526	0.137	-0.133
-243.961	-67.529	0.417	0.211
-242.946	242.700	0.018	-0.040
-241.932	-149.909	-0.402	0.040
-240.917	-88.491	-0.034	0.013
-239.903	-101.378	-0.294	-0.092
-238.888	298.621	-0.112	-0.269
-237.873	-95.695	0.405	0.139
-236.859	347.823	-0.096	0.246
-235.844	-100.545	0.273	0.087
-234.830	800.000	0.086	-0.376
-233.815	-54.282	-0.218	-0.128
-232.800	10.954	-0.454	-0.448
-231.786	-119.096	-0.231	0.052
-230.771	196.077	-0.234	-0.462
-229.757	212.320	-0.039	-0.079
-228.742	-200.000	0.089	-0.593
-227.727	-119.047	-0.208	-0.047
-226.713	-200.000	0.004	0.169
-225.698	17.487	0.298	0.306
-224.684	-74.989	-0.311	0.143
-223.669	-187.054	0.141	0.002
-222.655	-187.174	-0.676	-0.012
-221.640	-67.278	-0.381	0.193
-220.625	182.854	0.077	0.147
-219.611	-94.569	0.520	0.182
-218.596	-200.000	0.023	-0.179
-217.582	-200.000	0.022	0.182
-216.567	30.955	0.246	0.273
-215.552	-200.000	-0.035	0.283
-214.538	-157.015	-0.455	-0.035
-213.523	58.232	-0.044	0.055
-212.509	-200.000	0.027	-0.422
-211.494	-41.357	-0.366	0.243
-210.479	-200.000	-0.000	-0.609
-209.465	41.851	0.171	-0.200
-208.450	199.926	-0.170	0.338
-207.436	-115.257	-0.018	0.004
-206.421	100.401	0.181	-0.272
-205.406	-70.764	-0.280	-0.136
-204.392	363.915	-0.114	-0.297
-203.377	-92.809	0.343	0.123
-202.363	188.087	0.048	-0.092
-201.348	-200.000	-0.003	-0.055
-200.333	195.953	-0.363	-0.715
-199.319	-179.428	0.490	0.014
-198.304	-95.045	0.089	0.031
-197.290	78.910	0.164	-0.227
-196.275	-200.000	0.011	-0.212
-195.260	-128.956	0.096	-0.017
-194.246	-99.730	0.274	0.088
-193.231	-200.000	-0.039	-0.507
-192.217	49.650	0.057	-0.069
-191.202	-200.000	-0.274	-0.001
-190.187	-105.803	-0.262	0.076
-189.173	348.546	-0.161	0.411
-188.158	27.663	0.113	-0.123
-187.144	-200.000	0.065	-0.391
-186.129	63.467	0.269	-0.349
-185.114	-7.886	0.303	-0.264
-184.100	-13.359	-0.096	0.080
-183.085	-144.755	0.357	-0.042
-182.071	251.104	-0.094	-0.207
-181.056	149.491	-0.186	0.327
-180.042	800.000	-0.069	-0.279
-179.027	203.511	-0.039	-0.079
-178.012	61.423	0.362	-0.465
-176.998	-181.443	0.400	-0.010
-175.983	3.942	-0.485	-0.457
-174.969	-23.356	-0.714	-0.553
-173.954	63.785	0.451	0.585
-172.939	-200.000	0.001	0.030
-171.925	-113.227	-0.164	-0.041
-170.910	134.587	-0.121	-0.203
-169.896	678.007	-0.093	-0.313
-168.881	-40.948	0.307	-0.204
-167.866	-62.766	-0.072	0.039
-166.852	-64.844	0.110	0.057
-165.837	-12.541	0.090	-0.076
-164.823	355.893	-0.111	-0.287
-163.808	-54.667	0.344	0.200
-162.793	-200.000	0.038	0.320
-161.779	-133.667	-0.257	-0.041
-160.764	557.603	0.124	-0.386
-159.750	-93.471	0.156	-0.055
-158.735	-99.520	-0.400	-0.129
-157.720	-165.579	0.176	-0.010
-156.706	218.519	0.076	0.157
-155.691	196.262	0.039	0.078
-154.677	99.963	0.078	-0.117
-153.662	800.000	-0.088	-0.372
-152.647	401.029	-0.087	0.236
-151.633	301.482	0.152	0.364
-150.618	-200.000	0.024	0.166
-149.604	125.918	0.232	0.378
-148.589	-121.873	-0.241	-0.051
-147.574	800.000	0.094	0.386
-146.560	303.595	-0.103	-0.248
-145.545	-7.566	-0.383	0.333
-144.531	26.847	0.226	0.244
-143.516	-121.796	-0.426	0.090
-142.502	15.033	-0.135	0.136
-141.487	-92.210	0.272	0.098
-140.472	621.582	0.065	-0.213
-139.458	43.472	0.044	-0.052
-138.443	-5.886	-0.381	-0.335
-137.429	-141.134	0.233	0.030
-136.414	-117.665	-0.642	0.148
-135.399	-99.549	-0.911	0.293
-134.385	193.817	0.167	0.327
-133.370	197.036	-0.147	-0.290
-132.356	-31.213	0.096	0.070
-131.341	204.103	0.155	-0.310
-130.326	148.562	-0.054	0.095
-129.312	44.925	-0.102	-0.121
-128.297	-78.393	-0.416	0.183
-127.283	176.426	0.181	0.339
-126.268	-153.862	-0.718	0.062
-125.253	-70.468	0.196	0.095
-124.239	-123.832	0.171	0.034
-123.224	-50.234	-0.500	0.303
-122.210	370.801	0.136	0.358
-121.195	-200.000	0.011	-0.304
-120.180	-200.000	0.036	0.443
-119.166	-86.204	0.045	0.018
-118.151	-62.863	0.198	-0.105
-117.137	-200.000	-0.051	-0.546
-116.122	13.019	-0.274	-0.273
-115.107	-200.000	-0.006	0.133
-114.093	800.000	0.073	-0.410
-113.078	-98.059	-0.363	-0.120
-112.064	-163.778	0.421	-0.025
-111.049	107.610	-0.131	0.202
-110.034	-48.310	-0.187	0.116
-109.020	-200.000	0.043	-0.294
-108.005	-93.018	-0.526	0.188
-106.991	56.448	0.335	0.419
-105.976	108.109	0.136	0.210
-104.962	18.212	-0.258	0.265
-103.947	-28.136	0.056	0.041
-102.932	-200.000	-0.019	-0.111
-101.918	-78.072	-0.346	-0.153
-100.903	-92.292	0.405	0.146
-99.889	-73.695	-0.320	0.149
-98.874	118.141	0.347	0.551
-97.859	463.738	-0.114	-0.330
-96.845	-8.531	-0.209	0.180
-95.830	-200.000	-0.001	-0.023
-94.816	79.969	-0.109	0.150
-93.801	-200.000	0.027	-0.465
-92.786	-200.000	0.004	-0.123
-91.772	-69.077	-0.160	0.079
-90.757	-87.322	-0.379	-0.147
-89.743	-52.779	0.051	-0.030
-88.728	317.555	0.159	-0.389
-87.713	800.000	0.160	-0.666
-86.699	-31.325	0.135	-0.098
-85.684	46.889	0.337	-0.403
-84.670	-200.000	-0.044	0.672
-83.655	-61.133	-0.444	-0.240
-82.640	-200.000	0.032	0.288
-81.626	191.033	-0.122	0.236
-80.611	-128.218	-0.240	-0.044
-79.597	391.496	-0.219	-0.586
-78.582	800.000	0.017	0.060
-77.567	234.811	0.199	0.424
-76.553	-145.245	-0.560	0.064
-75.538	17.543	0.464	0.474
-74.524	-200.000	0.002	0.135
-73.509	800.000	-0.058	-0.316
-72.494	-200.000	0.112	0.868
-71.480	47.736	-0.101	0.122
-70.465	707.542	-0.047	0.160
-69.451	-39.571	0.124	-0.083
-68.436	75.850	0.157	-0.213
-67.422	-102.303	0.437	-0.134
-66.407	-118.649	-0.127	-0.028
-65.392	25.304	0.306	-0.326
-64.378	-104.493	-0.299	0.088
-63.363	-200.000	0.017	0.255
-62.349	-200.000	0.026	-0.422
-61.334	-19.717	-2.436	-1.932
-60.319	270.647	0.705	1.599
-59.305	228.535	-3.363	-7.062
-58.290	100.638	3.378	5.048
-57.276	384.018	3.852	10.234
-56.261	-200.000	20.664	298.829
-55.246	383.812	1262.881	3354.017
-54.232	54.221	2852.657	3527.524
-53.217	65.117	2707.045	3515.716
-52.203	37.653	2436.843	2778.060
-51.188	36.120	2097.234	2371.857
-50.173	31.167	1980.132	2181.321
-49.159	30.001	1968.648	2154.958
-48.144	29.595	1965.374	2146.543
-47.130	29.454	1963.559	2142.832
-46.115	29.583	1961.170	2141.639
-45.100	29.496	1960.346	2139.639
-44.086	29.496	1958.748	2137.810
-43.071	29.407	1957.557	2135.393
-42.057	29.413	1955.856	2133.525
-41.042	29.375	1953.282	2130.188
-40.027	29.410	1952.324	2129.465
-39.013	29.291	1951.514	2127.117
-37.998	29.318	1950.057	2125.753
-36.984	29.263	1949.001	2123.885
-35.969	29.243	1947.951	2122.427
-34.954	29.295	1946.211	2121.050
-33.940	29.254	1945.870	2120.116
-32.925	29.234	1943.774	2117.522
-31.911	29.248	1942.287	2115.976
-30.896	29.188	1941.528	2114.367
-29.881	29.232	1940.448	2113.626
-28.867	29.078	1938.861	2110.035
-27.852	29.218	1936.695	2109.202
-26.838	29.191	1935.251	2107.232
-25.823	29.161	1933.827	2105.257
-24.809	29.183	1932.839	2104.355
-23.794	29.106	1931.492	2101.913
-22.779	29.153	1930.011	2100.759
-21.765	29.115	1928.907	2099.041
-20.750	29.061	1928.463	2097.857
-19.736	29.085	1926.397	2095.804
-18.721	29.206	1925.004	2095.586
-17.706	29.151	1924.186	2093.984
-16.692	29.089	1922.931	2091.822
-15.677	29.131	1921.359	2090.507
-14.663	29.096	1920.401	2088.991
-13.648	28.985	1919.451	2086.605
-12.633	29.005	1917.756	2084.904
-11.619	29.031	1916.446	2083.695
-10.604	29.002	1914.979	2081.690
-9.590	29.009	1914.433	2081.096
-8.575	28.896	1913.697	2078.924
-7.560	29.013	1912.351	2078.707
-6.546	28.919	1910.543	2075.597
-5.531	29.029	1909.493	2075.621
-4.517	29.016	1908.022	2073.787
-3.502	28.905	1907.249	2071.610
-2.487	29.073	1905.343	2071.363
-1.473	29.184	1901.225	2068.054
-0.458	28.690	1882.872	2042.483
0.556	24.922	2028.632	2142.453
1.571	23.359	2238.073	2342.608
2.586	24.210	2280.686	2398.440
3.600	24.440	2283.720	2404.461
4.615	24.447	2283.329	2403.850
5.629	24.558	2280.190	2401.769
6.644	24.533	2279.152	2400.039
7.659	24.623	2277.527	2399.260
8.673	24.536	2275.341	2395.499
9.688	23.987	2281.793	2394.578
10.702	22.423	2360.756	2455.244
11.717	21.269	2428.128	2508.362
12.731	12.134	2402.380	2350.444
13.746	2.406	2374.227	2183.596
14.761	0.469	2370.741	2152.373
15.775	0.374	2367.773	2148.048
16.790	0.242	2366.351	2144.623
17.804	0.272	2365.129	2143.685
18.819	0.263	2364.814	2143.011
19.834	0.275	2362.474	2140.804
20.848	0.299	2361.273	2139.800
21.863	0.154	2359.505	2135.877
22.877	0.164	2357.883	2134.303
23.892	0.241	2354.773	2132.316
24.907	0.283	2352.774	2130.850
25.921	0.228	2350.964	2128.177
26.936	0.344	2348.572	2127.399
27.950	0.358	2346.054	2125.071
28.965	0.297	2343.887	2121.993
29.980	0.174	2342.562	2118.798
30.994	0.344	2340.411	2118.993
32.009	5.350	2357.209	2205.058
33.023	17.511	2393.588	2413.033
34.038	23.053	2405.097	2503.445
35.053	23.824	2404.173	2513.151
36.067	23.827	2402.656	2511.298
37.082	23.730	2400.544	2507.415
38.096	23.894	2398.088	2506.878
39.111	24.017	2396.375	2506.522
40.126	24.261	2395.679	2508.957
41.140	24.507	2394.066	2510.440
42.155	24.262	2390.702	2503.159
43.169	24.118	2389.490	2499.560
44.184	24.253	2387.186	2498.753
45.199	24.254	2384.201	2495.337
46.213	24.172	2385.085	2494.814
47.228	24.268	2383.811	2494.536
48.242	24.199	2381.704	2491.052
49.257	24.178	2379.221	2487.861
50.271	24.369	2377.086	2488.016
51.286	24.314	2374.564	2484.307
52.301	24.088	2372.563	2478.754
53.315	24.072	2372.142	2477.800
54.330	24.170	2370.877	2477.542
55.344	24.140	2367.930	2473.749
56.359	24.161	2363.985	2469.631
57.374	24.186	2361.409	2466.981
58.388	24.034	2359.589	2462.679
59.403	24.336	2356.600	2463.453
60.417	24.328	2354.487	2460.847
61.432	24.476	2352.261	2460.270
62.447	24.435	2351.457	2458.573
63.461	24.440	2348.566	2455.314
64.476	24.509	2346.720	2454.048
65.490	24.694	2346.415	2455.992
66.505	24.780	2346.853	2457.345
67.520	24.762	2344.452	2454.291
68.534	24.298	2341.229	2444.232
69.549	24.203	2337.259	2438.487
70.563	24.370	2334.802	2437.915
71.578	24.223	2334.073	2434.857
72.593	24.320	2332.084	2433.808
73.607	24.372	2331.254	2433.376
74.622	24.489	2329.390	2432.732
75.636	24.305	2326.253	2426.658
76.651	24.291	2323.748	2423.563
77.666	24.236	2321.772	2420.453
78.680	24.285	2319.951	2418.933
79.695	24.306	2318.816	2417.751
80.709	24.430	2317.879	2418.175
81.724	24.577	2315.451	2417.344
82.739	24.589	2312.288	2413.922
83.753	24.537	2309.968	2410.505
84.768	24.395	2308.585	2406.841
85.782	24.293	2308.518	2405.103
86.797	24.315	2306.323	2402.827
87.812	24.284	2303.210	2398.882
88.826	24.141	2301.543	2394.927
89.841	24.279	2299.716	2394.598
90.855	24.522	2297.334	2395.113
91.870	24.265	2295.386	2389.332
92.884	24.098	2294.692	2386.075
93.899	24.208	2293.277	2385.788
94.914	24.116	2292.072	2383.016
95.928	24.071	2291.696	2381.734
96.943	24.196	2289.075	2380.405
97.957	24.001	2286.956	2375.301
98.972	23.989	2284.265	2372.065
99.987	23.841	2280.848	2366.252
101.001	23.912	2278.050	2364.013
102.016	23.879	2278.149	2363.392
103.030	24.124	2274.385	2362.473
104.045	24.077	2273.245	2360.371
105.060	24.474	2271.421	2363.492
106.074	24.404	2269.492	2360.265
107.089	24.243	2267.783	2356.062
108.103	24.346	2267.782	2357.156
109.118	24.474	2265.535	2356.230
110.133	24.604	2263.964	2356.039
111.147	24.680	2261.981	2354.697
112.162	24.581	2260.183	2351.236
113.176	24.420	2256.870	2345.386
114.191	24.266	2255.570	2341.718
115.206	24.171	2253.404	2337.941
116.220	24.152	2252.645	2336.619
117.235	24.127	2249.968	2333.237
118.249	24.084	2247.103	2329.415
119.264	24.395	2245.810	2331.882
120.279	24.353	2245.313	2330.535
121.293	24.318	2243.194	2327.599
122.308	24.376	2240.878	2325.679
123.322	24.339	2240.096	2324.100
124.337	24.047	2238.745	2318.593
125.352	24.263	2237.841	2320.213
126.366	24.434	2237.457	2321.776
127.381	24.333	2234.468	2317.076
128.395	24.106	2231.735	2310.996
129.410	24.379	2229.483	2311.949
130.424	24.323	2227.661	2309.052
131.439	24.255	2225.788	2305.958
132.454	24.194	2223.986	2303.021
133.468	24.310	2221.665	2301.842
134.483	24.299	2220.481	2300.194
135.497	24.068	2218.309	2294.682
136.512	24.377	2215.658	2295.660
137.527	24.312	2214.128	2292.957
138.541	24.251	2212.527	2290.242
139.556	24.176	2211.186	2287.616
140.570	24.203	2211.267	2287.775
141.585	24.342	2208.917	2286.862
142.600	24.424	2207.773	2286.452
143.614	24.282	2205.678	2282.184
144.629	24.367	2203.432	2280.675
145.643	24.085	2201.976	2275.282
146.658	24.056	2199.538	2272.116
147.673	24.253	2197.174	2271.929
148.687	24.200	2196.265	2270.032
149.702	24.154	2195.663	2268.550
150.716	24.153	2193.959	2266.502
151.731	24.314	2192.889	2267.188
152.746	24.304	2192.683	2266.573
153.760	24.052	2192.600	2262.997
154.775	23.981	2190.928	2260.087
155.789	23.918	2188.011	2256.015
156.804	23.810	2184.162	2250.396
157.819	23.830	2180.875	2246.998
158.833	23.931	2179.736	2246.832
159.848	24.182	2177.441	2247.383
160.862	24.380	2176.006	2248.145
161.877	24.400	2176.008	2248.133
162.892	24.430	2175.142	2247.339
163.906	24.571	2173.961	2247.632
164.921	24.630	2171.284	2245.349
165.935	24.627	2169.090	2242.772
166.950	24.476	2167.136	2238.576
167.964	24.348	2164.270	2233.746
168.979	24.260	2163.510	2231.576
169.994	24.397	2162.722	2232.229
171.008	24.378	2160.299	2229.223
172.023	24.316	2159.208	2227.047
173.037	24.445	2157.083	2226.207
174.052	24.270	2155.710	2222.336
175.067	24.153	2153.538	2218.356
176.081	24.052	2152.474	2215.734
177.096	24.277	2150.805	2216.563
178.110	24.106	2149.131	2212.440
179.125	24.097	2147.871	2210.766
180.140	24.189	2146.410	2210.143
181.154	24.267	2145.202	2209.612
182.169	24.133	2143.006	2205.416
183.183	24.071	2141.887	2203.223
184.198	24.003	2141.591	2201.809
185.213	24.045	2139.916	2200.346
186.227	24.094	2138.092	2198.820
187.242	24.125	2135.757	2196.535
188.256	24.181	2134.514	2195.687
189.271	24.313	2134.628	2197.182
190.286	24.378	2132.786	2195.829
191.300	24.226	2129.302	2190.101
192.315	24.229	2126.693	2187.182
193.329	24.218	2126.978	2187.089
194.344	24.419	2125.938	2188.230
195.359	24.582	2124.577	2188.577
196.373	24.669	2122.722	2187.473
197.388	24.713	2119.496	2184.426
198.402	24.486	2116.440	2178.229
199.417	24.366	2115.434	2175.464
200.432	24.346	2114.114	2173.606
201.446	24.451	2112.536	2173.004
202.461	24.494	2110.539	2171.220
203.475	24.228	2109.016	2166.136
204.490	24.159	2107.227	2163.204
205.504	24.175	2104.974	2160.826
206.519	24.070	2101.327	2155.541
207.534	23.989	2100.757	2153.719
208.548	24.045	2100.318	2153.691
209.563	24.003	2097.185	2149.706
210.577	23.955	2096.893	2148.571
211.592	24.043	2095.806	2148.263
212.607	24.147	2094.517	2147.954
213.621	23.720	2093.315	2141.280
214.636	23.631	2092.056	2138.665
215.650	23.888	2090.554	2139.983
216.665	23.978	2088.019	2138.222
217.680	24.154	2086.463	2138.487
218.694	24.263	2085.855	2138.933
219.709	24.124	2083.798	2134.891
220.723	24.190	2084.037	2135.675
221.738	24.328	2080.952	2133.911
222.753	24.380	2079.058	2132.339
223.767	24.224	2078.174	2129.312
224.782	24.204	2074.931	2125.488
225.796	24.177	2073.245	2123.188
226.811	24.457	2072.993	2126.029
227.826	24.585	2071.405	2125.668
228.840	24.651	2070.211	2124.978
229.855	24.437	2069.154	2121.088
230.869	24.588	2066.328	2119.738
231.884	24.317	2065.535	2115.443
232.899	24.161	2063.821	2111.576
233.913	24.347	2061.882	2111.546
234.928	24.370	2061.597	2111.274
235.942	24.294	2060.054	2108.544
236.957	24.349	2058.374	2107.228
237.972	24.377	2056.626	2105.514
238.986	24.451	2055.482	2104.966
240.001	24.200	2053.416	2099.628
241.015	24.049	2052.357	2096.499
242.030	24.240	2051.271	2097.400
243.045	24.335	2050.385	2097.370
244.059	24.330	2049.236	2095.881
245.074	24.337	2045.391	2091.778
246.088	24.268	2043.258	2088.536
247.103	24.367	2041.971	2088.136
248.117	24.425	2040.357	2086.925
249.132	24.497	2038.516	2085.630
250.147	24.460	2035.546	2081.914
251.161	24.196	2035.056	2078.060
252.176	24.359	2034.467	2079.120
253.190	24.394	2032.506	2077.285
254.205	24.428	2028.791	2073.637
255.220	24.281	2028.451	2071.322
256.234	24.256	2027.950	2070.269
257.249	24.354	2025.826	2068.994
258.263	24.232	2025.135	2066.618
259.278	24.123	2024.360	2064.314
260.293	24.050	2022.911	2061.741
261.307	24.091	2021.232	2060.253
262.322	24.098	2019.469	2058.296
263.336	24.099	2016.382	2054.913
264.351	24.058	2014.079	2051.850
265.366	24.003	2013.580	2050.454
266.380	24.017	2013.140	2049.921
267.395	23.759	2010.881	2044.392
268.409	23.941	2008.846	2044.184
269.424	24.156	2007.698	2045.255
270.439	24.271	2007.254	2045.883
271.453	24.215	2006.158	2043.878
272.468	23.998	2004.565	2039.509
273.482	23.994	2002.340	2036.957
274.497	24.159	1999.483	2035.698
275.512	24.122	1997.418	2032.922
276.526	24.170	1994.876	2030.647
277.541	24.081	1993.741	2028.226
278.555	24.000	1991.815	2025.103
279.570	23.823	1989.273	2020.253
280.585	23.992	1986.766	2019.394
281.599	24.006	1987.296	2019.852
282.614	24.153	1986.128	2020.100
283.628	24.231	1985.147	2019.744
284.643	24.228	1984.658	2018.975
285.657	24.364	1983.688	2019.292
286.672	24.420	1981.224	2017.172
287.687	24.224	1979.826	2013.282
288.701	24.050	1979.396	2010.633
289.716	24.099	1976.730	2008.238
290.730	24.170	1974.730	2006.767
291.745	24.174	1973.735	2005.564
292.760	24.061	1973.036	2003.337
293.774	24.217	1972.035	2003.843
294.789	24.418	1971.073	2004.895
295.803	24.372	1968.826	2001.849
296.818	24.342	1967.362	1999.781
297.833	24.391	1966.097	1998.811
298.847	24.379	1965.410	1997.739
299.862	24.232	1963.945	1994.353
300.876	24.247	1962.524	1992.846
301.891	24.248	1960.245	1990.305
302.906	24.358	1958.997	1990.031
303.920	24.561	1958.216	1991.274
304.935	24.416	1955.705	1986.859
305.949	24.462	1953.098	1984.483
306.964	24.452	1952.950	1983.985
307.979	24.602	1950.721	1983.161
308.993	24.114	1948.250	1974.976
310.008	24.052	1946.490	1972.265
311.022	24.257	1945.047	1972.849
312.037	24.288	1943.375	1971.262
313.052	24.075	1941.437	1966.692
314.066	23.781	1939.452	1961.180
315.081	23.608	1938.543	1958.112
316.095	23.464	1937.156	1954.877
317.110	23.573	1935.421	1954.102
318.125	23.737	1933.738	1953.986
319.139	23.806	1934.179	1954.955
320.154	24.163	1932.073	1956.533
321.168	24.122	1930.693	1954.456
322.183	24.200	1929.788	1954.164
323.197	24.169	1928.044	1951.825
324.212	24.035	1926.328	1948.376
325.227	24.061	1924.094	1946.170
326.241	23.921	1923.280	1943.574
327.256	24.115	1922.004	1944.178
328.270	24.233	1920.956	1944.180
329.285	24.126	1920.784	1942.603
330.300	24.169	1920.158	1942.211
331.314	24.157	1918.445	1940.115
332.329	23.959	1916.557	1935.800
333.343	24.195	1914.477	1936.052
334.358	24.340	1912.521	1935.419
335.373	24.435	1911.104	1934.789
336.387	24.401	1909.150	1932.207
337.402	24.135	1908.438	1928.369
338.416	24.142	1906.576	1926.332
339.431	24.215	1905.307	1925.604
340.446	24.410	1904.251	1926.427
341.460	24.494	1902.594	1925.428
342.475	24.450	1900.019	1922.114
343.489	24.179	1898.191	1917.103
344.504	24.155	1897.434	1915.853
345.519	24.139	1895.473	1913.470
346.533	23.981	1893.517	1909.563
347.548	24.031	1892.396	1908.743
348.562	24.224	1891.309	1909.500
349.577	24.200	1889.858	1907.548
350.592	24.149	1888.702	1905.605
351.606	24.179	1888.470	1905.461
352.621	24.032	1886.223	1901.387
353.635	24.041	1884.219	1899.244
354.650	24.084	1882.637	1897.883
355.665	24.089	1881.036	1896.093
356.679	24.159	1880.903	1896.483
357.694	24.337	1878.058	1895.286
358.708	24.415	1877.663	1895.492
359.723	24.372	1877.241	1894.381
360.738	24.239	1875.952	1891.435
361.752	24.237	1874.402	1889.627
362.767	24.320	1873.073	1888.944
363.781	24.306	1870.720	1886.198
364.796	24.379	1869.243	1885.258
365.810	24.393	1868.552	1884.478
366.825	24.420	1867.049	1883.020
367.840	24.422	1866.380	1882.142
368.854	24.437	1865.376	1881.068
369.869	24.553	1864.625	1881.311
370.883	24.394	1862.733	1877.496
371.898	24.162	1859.804	1871.865
372.913	24.170	1858.390	1870.302
373.927	24.195	1857.852	1869.804
374.942	24.244	1855.792	1868.028
375.956	24.125	1855.071	1865.823
376.971	24.112	1851.687	1862.056
377.986	23.884	1850.103	1857.849
379.000	23.869	1849.360	1856.724
380.015	24.306	1848.279	1859.997
381.029	24.279	1847.156	1858.365
382.044	24.377	1845.500	1857.502
383.059	24.472	1843.127	1855.886
384.073	24.112	1841.791	1850.550
385.088	23.989	1841.020	1848.272
386.102	24.004	1839.112	1846.295
387.117	23.947	1837.196	1843.556
388.132	23.936	1836.912	1842.932
389.146	24.095	1837.333	1844.792
390.161	23.890	1836.726	1841.830
391.175	24.120	1832.522	1839.777
392.190	24.008	1829.104	1834.968
393.205	23.982	1827.579	1832.952
394.219	24.028	1826.115	1831.733
395.234	24.002	1825.648	1830.778
396.248	23.994	1822.964	1827.792
397.263	23.967	1820.934	1825.260
398.278	23.993	1818.671	1823.035
399.292	23.987	1817.146	1821.226
400.307	24.132	1818.068	1823.431
401.321	24.185	1816.629	1822.312
402.336	23.810	1814.692	1816.301
403.350	23.710	1812.735	1813.091
404.365	24.048	1811.795	1815.398
405.380	24.156	1810.920	1815.417
406.394	24.067	1809.258	1812.621
407.409	23.861	1807.611	1808.647
408.423	23.832	1805.526	1806.047
409.438	23.800	1804.611	1804.591
410.453	23.876	1803.848	1804.389
411.467	24.112	1803.560	1806.288
412.482	24.343	1802.303	1807.164
413.496	24.375	1800.880	1805.848
414.511	24.208	1799.279	1802.334
415.526	24.162	1797.485	1799.852
416.540	24.326	1795.607	1799.416
417.555	24.212	1794.963	1797.401
418.569	24.112	1794.527	1795.740
419.584	24.175	1794.382	1796.014
420.599	24.062	1792.944	1793.216
421.613	23.976	1791.774	1790.964
422.628	24.041	1790.281	1789.908
423.642	24.241	1789.584	1791.022
424.657	24.276	1786.736	1788.311
425.672	23.902	1784.758	1782.344
426.686	24.018	1783.793	1782.339
427.701	24.001	1783.021	1781.180
428.715	24.041	1782.059	1780.410
429.730	24.108	1781.594	1780.404
430.745	24.205	1779.975	1779.552
431.759	24.050	1778.029	1775.841
432.774	23.598	1776.030	1769.098
433.788	23.039	1774.148	1761.413
434.803	22.901	1772.616	1758.301
435.818	22.777	1772.207	1756.449
436.832	22.713	1771.795	1755.187
437.847	21.560	1763.143	1734.932
438.861	12.009	1737.976	1615.721
439.876	2.102	1718.704	1500.135
440.890	0.487	1714.478	1480.347
441.905	0.406	1713.170	1478.242
442.920	0.307	1711.667	1475.799
443.934	0.280	1710.433	1474.295
444.949	0.183	1710.197	1472.960
445.963	0.228	1708.804	1472.023
446.978	0.128	1708.443	1470.560
447.993	0.182	1706.135	1468.924
449.007	0.185	1704.215	1467.120
450.022	0.284	1702.359	1466.318
451.036	0.544	1700.761	1467.302
452.051	1.608	1704.031	1480.361
453.066	8.588	1723.709	1566.156
454.080	19.285	1742.620	1689.061
455.095	22.921	1748.362	1730.292
456.109	24.156	1750.841	1744.705
457.124	24.588	1750.134	1748.045
458.139	24.393	1748.318	1744.104
459.153	24.181	1747.577	1741.071
460.168	24.207	1745.210	1738.757
461.182	24.159	1743.952	1736.829
462.197	24.173	1741.534	1734.353
463.212	24.042	1740.431	1731.765
464.226	24.147	1739.408	1731.568
465.241	24.162	1738.401	1730.501
466.255	24.233	1737.454	1730.046
467.270	24.327	1735.424	1728.731
468.285	24.182	1734.672	1726.367
469.299	24.177	1733.220	1724.659
470.314	24.212	1731.920	1723.502
471.328	24.219	1730.049	1721.503
472.343	24.202	1729.405	1720.489
473.358	24.326	1728.163	1720.256
474.372	24.249	1726.725	1717.867
475.387	24.388	1725.463	1717.755
476.401	24.260	1724.132	1714.987
477.416	24.153	1722.788	1712.405
478.430	24.363	1721.842	1713.291
479.445	24.153	1721.194	1710.415
480.460	24.234	1718.959	1708.765
481.474	24.252	1718.719	1708.498
482.489	24.388	1717.619	1708.513
483.503	24.454	1714.752	1706.084
484.518	24.273	1713.883	1703.285
485.533	24.457	1711.972	1702.941
486.547	24.336	1711.129	1700.742
487.562	24.407	1710.639	1700.727
488.576	24.478	1708.735	1699.313
489.591	24.474	1707.474	1697.819
490.606	24.581	1705.944	1697.112
491.620	24.447	1704.091	1693.790
492.635	24.744	1702.237	1694.578
493.649	24.391	1701.390	1690.169
494.664	24.265	1699.958	1687.339
495.679	24.231	1698.635	1685.502
496.693	24.215	1696.723	1683.252
497.708	24.355	1695.738	1683.403
498.722	24.340	1695.652	1682.973
499.737	24.439	1693.751	1681.826
500.752	24.279	1691.454	1677.826
501.766	24.199	1690.579	1676.006
502.781	24.366	1689.248	1676.062
503.795	24.356	1687.111	1673.645
504.810	24.273	1686.501	1672.056
505.825	24.273	1685.702	1671.066
506.839	24.440	1684.647	1671.392
507.854	24.306	1683.822	1669.117
508.868	24.360	1681.367	1666.982
509.883	24.288	1680.915	1665.660
510.898	24.258	1678.919	1663.209
511.912	24.228	1677.193	1661.017
512.927	24.260	1675.414	1659.353
513.941	24.381	1673.697	1658.581
514.956	24.426	1674.188	1659.292
515.971	24.739	1672.792	1660.632
516.985	24.643	1671.383	1658.144
518.000	24.497	1670.760	1655.960
519.014	24.368	1669.854	1653.669
520.029	24.263	1667.902	1650.557
521.043	24.206	1665.852	1647.799
522.058	24.257	1664.284	1646.524
523.073	24.191	1664.300	1645.730
524.087	24.300	1662.862	1645.124
525.102	24.294	1661.521	1643.549
526.116	24.377	1660.625	1643.234
527.131	24.351	1660.402	1642.576
528.146	24.426	1658.700	1641.388
529.160	24.367	1657.143	1639.105
530.175	24.444	1656.131	1638.618
531.189	24.396	1655.258	1637.118
532.204	24.364	1654.299	1635.673
533.219	24.228	1652.633	1632.576
534.233	24.370	1651.588	1632.654
535.248	24.402	1650.376	1631.558
536.262	24.398	1649.469	1630.434
537.277	24.562	1648.388	1630.674
538.292	24.533	1646.395	1628.237
539.306	24.549	1644.601	1626.419
540.321	24.590	1642.892	1624.904
541.335	24.447	1641.500	1622.027
542.350	24.493	1640.851	1621.616
543.365	24.516	1639.690	1620.485
544.379	24.577	1638.120	1619.288
545.394	24.522	1636.987	1617.479
546.408	24.366	1635.558	1614.456
547.423	24.344	1634.046	1612.570
548.438	24.299	1633.466	1611.388
549.452	24.557	1631.477	1611.575
550.467	24.493	1629.760	1609.110
551.481	24.393	1629.710	1607.962
552.496	24.376	1629.161	1607.074
553.511	24.558	1626.922	1606.322
554.525	24.462	1626.121	1604.465
555.540	24.449	1625.800	1603.838
556.554	24.473	1624.592	1602.673
557.569	24.505	1622.639	1600.841
558.583	24.516	1621.064	1599.202
559.598	24.343	1620.347	1596.738
560.613	24.379	1619.624	1596.165
561.627	24.297	1617.729	1593.369
562.642	24.228	1616.174	1591.028
563.656	24.178	1614.851	1589.087
564.671	24.141	1613.682	1587.409
565.686	24.243	1612.582	1587.054
566.700	24.221	1610.599	1584.717
567.715	24.263	1609.914	1584.222
568.729	24.344	1608.746	1583.609
569.744	24.641	1606.697	1584.051
570.759	24.782	1605.588	1584.021
571.773	24.745	1604.670	1582.602
572.788	24.735	1603.365	1581.036
573.802	24.670	1600.957	1577.894
574.817	24.323	1599.252	1572.947
575.832	24.259	1598.749	1571.697
576.846	24.237	1597.984	1570.565
577.861	24.388	1596.632	1570.385
578.875	24.425	1596.714	1570.606
579.890	24.443	1594.902	1568.791
580.905	24.391	1593.972	1567.232
581.919	24.462	1593.208	1566.915
582.934	24.564	1591.816	1566.259
583.948	24.459	1590.579	1563.925
584.963	24.298	1589.341	1561.112
585.978	24.320	1588.011	1559.805
586.992	24.309	1587.487	1559.012
588.007	24.286	1587.005	1558.151
589.021	24.374	1585.204	1556.966
590.036	24.224	1584.018	1554.302
591.051	24.441	1582.674	1554.694
592.065	24.438	1581.280	1553.108
593.080	24.314	1579.830	1550.422
594.094	24.555	1578.085	1550.629
595.109	24.515	1576.746	1548.775
596.123	24.390	1575.491	1546.267
597.138	24.401	1574.153	1544.868
598.153	24.413	1572.784	1543.441
599.167	24.346	1571.349	1541.266
600.182	24.404	1570.338	1540.592
601.196	24.434	1569.872	1540.215
602.211	24.425	1568.119	1538.230
603.226	24.409	1566.581	1536.396
604.240	24.377	1565.621	1534.996
605.255	24.375	1563.318	1532.538
606.269	24.286	1563.865	1532.122
607.284	24.334	1563.019	1531.519
608.299	24.398	1561.016	1529.927
609.313	24.407	1559.700	1528.530
610.328	24.486	1558.189	1527.551
611.342	24.454	1557.430	1526.348
612.357	24.340	1556.617	1524.386
613.372	24.400	1554.928	1523.065
614.386	24.300	1554.052	1521.168
615.401	24.449	1553.231	1521.459
616.415	24.284	1551.974	1518.633
617.430	24.314	1551.051	1517.808
618.445	24.237	1549.116	1515.075
619.459	24.355	1548.462	1515.259
620.474	24.357	1548.361	1514.997
621.488	24.593	1547.517	1516.004
622.503	24.704	1545.829	1515.116
623.518	24.640	1544.657	1513.234
624.532	24.366	1543.171	1509.272
625.547	24.292	1541.670	1506.989
626.561	24.078	1541.312	1504.650
627.576	24.133	1539.963	1503.619
628.591	24.340	1539.087	1504.335
629.605	24.741	1538.232	1506.718
630.620	24.654	1536.727	1504.326
631.634	24.853	1535.227	1504.357
632.649	24.806	1534.533	1503.104
633.663	24.796	1532.916	1501.252
634.678	24.473	1531.620	1497.084
635.693	24.247	1529.856	1493.274
636.707	24.152	1527.653	1490.150
637.722	23.994	1526.618	1487.633
638.736	24.172	1525.811	1488.167
639.751	24.198	1525.013	1487.425
640.766	24.234	1523.670	1486.241
641.780	24.372	1522.534	1486.106
642.795	24.263	1521.411	1483.924
643.809	24.299	1520.663	1483.314
644.824	24.361	1520.387	1483.386
645.839	24.354	1519.573	1482.361
646.853	24.465	1517.122	1480.719
647.868	24.126	1516.268	1476.875
648.882	24.392	1514.746	1477.436
649.897	24.202	1513.976	1474.928
650.912	24.260	1512.639	1473.932
651.926	24.492	1511.132	1474.210
652.941	24.296	1510.285	1471.579
653.955	24.357	1508.431	1470.106
654.970	24.187	1507.047	1467.168
655.985	24.145	1505.145	1464.793
656.999	24.129	1503.987	1463.360
658.014	24.125	1503.111	1462.305
659.028	24.056	1502.942	1461.395
660.043	24.344	1501.638	1462.324
661.058	24.440	1500.238	1461.579
662.072	24.289	1499.561	1459.496
663.087	24.407	1498.166	1458.940
664.101	24.322	1497.387	1457.302
665.116	24.266	1496.544	1455.846
666.131	24.152	1495.402	1453.632
667.145	24.291	1493.181	1452.433
668.160	24.178	1492.705	1450.877
669.174	24.067	1490.654	1447.799
670.189	24.411	1489.322	1449.138
671.204	24.363	1488.726	1447.996
672.218	24.296	1488.171	1446.736
673.233	24.320	1486.272	1444.911
674.247	24.413	1484.778	1444.041
675.262	24.332	1483.491	1441.961
676.276	24.154	1483.083	1439.942
677.291	24.193	1482.623	1439.641
678.306	24.341	1480.987	1439.083
679.320	24.171	1480.486	1437.049
680.335	24.039	1479.352	1434.703
681.349	24.127	1478.324	1434.249
682.364	24.205	1477.755	1434.155
683.379	24.173	1475.909	1431.934
684.393	24.025	1474.297	1429.006
685.408	24.006	1473.241	1427.654
686.422	24.192	1471.814	1427.601
687.437	23.918	1471.846	1425.257
688.452	23.899	1470.931	1424.040
689.466	23.996	1468.724	1422.518
690.481	24.099	1467.420	1421.908
691.495	24.239	1467.839	1423.266
692.510	24.546	1467.065	1424.806
693.525	24.622	1465.365	1423.597
694.539	24.499	1464.459	1421.561
695.554	24.195	1463.532	1418.056
696.568	23.861	1461.922	1413.659
697.583	23.766	1460.815	1411.666
698.598	23.871	1459.489	1411.050
699.612	24.008	1458.710	1411.220
700.627	23.955	1456.618	1408.610
701.641	24.127	1454.865	1408.107
702.656	24.049	1454.819	1407.273
703.671	24.059	1454.877	1407.246
704.685	23.930	1454.123	1405.321
705.700	24.079	1453.458	1405.695
706.714	24.109	1451.661	1404.025
707.729	24.188	1449.561	1402.447
708.744	24.167	1448.343	1400.937
709.758	24.134	1447.684	1399.874
710.773	23.940	1446.641	1397.165
711.787	24.045	1444.744	1395.995
712.802	24.201	1443.583	1395.931
713.816	24.275	1442.934	1395.717
714.831	24.191	1441.846	1393.844
715.846	24.088	1440.661	1391.722
716.860	24.029	1439.395	1389.865
717.875	24.083	1438.299	1389.062
718.889	24.219	1436.875	1388.589
719.904	24.045	1436.098	1386.314
720.919	24.087	1434.875	1385.290
721.933	23.881	1434.458	1383.115
722.948	24.034	1432.690	1382.437
723.962	24.010	1431.438	1380.875
724.977	23.891	1430.312	1378.699
725.992	23.881	1429.942	1378.098
727.006	24.098	1428.062	1377.808
728.021	23.852	1426.655	1374.376
729.035	23.886	1425.729	1373.580
730.050	23.944	1425.015	1373.179
731.065	23.808	1424.037	1371.020
732.079	23.827	1422.630	1369.646
733.094	23.940	1422.067	1369.815
734.108	24.022	1420.351	1368.632
735.123	23.965	1418.677	1366.419
736.138	23.922	1417.935	1365.204
737.152	24.006	1416.455	1364.261
738.167	23.824	1415.402	1361.689
739.181	23.851	1414.953	1361.296
740.196	23.808	1414.083	1359.971
741.211	23.696	1413.780	1358.656
742.225	23.961	1412.526	1359.319
743.240	23.963	1410.466	1357.188
744.254	23.918	1408.672	1354.958
745.269	23.679	1408.554	1352.852
746.284	23.696	1407.782	1352.075
747.298	23.796	1407.125	1352.051
748.313	24.052	1406.541	1353.288
749.327	24.277	1405.803	1354.129
750.342	24.436	1405.693	1355.078
751.356	24.646	1404.513	1355.375
752.371	24.528	1402.539	1352.410
753.386	24.159	1400.441	1347.419
754.400	23.757	1399.840	1343.625
755.415	23.791	1398.409	1342.354
756.429	23.922	1396.923	1341.758
757.444	24.029	1395.579	1341.118
758.459	23.862	1394.821	1338.963
759.473	23.830	1393.787	1337.570
760.488	23.796	1392.364	1335.785
761.502	23.766	1391.035	1334.125
762.517	23.812	1390.278	1333.587
763.532	23.968	1389.039	1333.409
764.546	23.866	1388.252	1331.730
765.561	23.982	1387.420	1331.642
766.575	23.781	1387.003	1329.571
767.590	23.969	1385.524	1329.408
768.605	24.089	1383.877	1328.572
769.619	24.120	1382.221	1327.052
770.634	24.037	1381.089	1325.186
771.648	23.760	1380.154	1322.062
772.663	23.662	1379.403	1320.446
773.678	23.681	1378.634	1319.695
774.692	23.855	1378.043	1320.268
775.707	23.755	1377.475	1318.821
776.721	23.687	1376.570	1317.294
777.736	23.667	1375.184	1315.660
778.751	23.665	1374.000	1314.357
779.765	23.634	1373.360	1313.357
780.780	23.857	1372.194	1313.734
781.794	23.676	1371.558	1311.628
782.809	23.602	1369.810	1309.252
783.824	23.636	1369.030	1308.604
784.838	23.783	1368.582	1309.101
785.853	24.140	1368.371	1311.392
786.867	24.106	1367.452	1310.102
787.882	23.936	1366.318	1307.596
788.897	23.920	1365.176	1306.234
789.911	23.625	1363.484	1302.278
790.926	23.675	1361.847	1300.929
791.940	23.687	1360.607	1299.678
792.955	23.419	1359.592	1296.586
793.969	23.564	1358.520	1296.472
794.984	23.651	1356.965	1295.470
795.999	23.671	1356.061	1294.598
797.013	23.581	1354.648	1292.434
798.028	23.616	1353.190	1291.147
799.042	23.515	1352.880	1289.957
800.057	23.661	1351.649	1289.693
801.072	23.573	1349.948	1287.279
802.086	23.530	1348.861	1285.775
803.101	23.424	1347.889	1283.921
804.115	23.663	1346.921	1284.581
805.130	23.732	1345.649	1283.719
806.145	23.578	1345.046	1281.870
807.159	23.587	1343.431	1280.242
808.174	23.748	1342.599	1280.464
809.188	23.731	1341.889	1279.510
810.203	23.775	1340.367	1278.221
811.218	23.818	1338.659	1276.753
812.232	23.759	1337.748	1275.305
813.247	23.805	1336.788	1274.571
814.261	23.748	1336.241	1273.484
815.276	23.853	1334.719	1272.637
816.291	23.674	1333.722	1270.247
817.305	23.467	1332.461	1267.404
818.320	23.517	1330.837	1266.070
819.334	23.556	1330.057	1265.455
820.349	23.522	1329.122	1264.167
821.364	23.534	1327.456	1262.518
822.378	23.388	1325.933	1259.880
823.393	23.492	1323.766	1258.408
824.407	23.585	1323.429	1258.599
825.422	23.353	1323.239	1256.617
826.437	23.509	1322.180	1256.572
827.451	23.557	1320.138	1254.823
828.466	23.772	1319.897	1255.969
829.480	24.086	1318.726	1256.936
830.495	23.798	1316.226	1252.359
831.509	23.442	1315.232	1248.743
832.524	23.410	1314.150	1247.342
833.539	23.505	1312.407	1246.206
834.553	23.462	1311.036	1244.456
835.568	23.256	1310.369	1242.219
836.582	23.293	1309.306	1241.322
837.597	23.541	1308.007	1241.692
838.612	23.441	1306.444	1239.355
839.626	23.597	1305.130	1239.056
840.641	23.618	1305.010	1238.940
841.655	23.670	1304.113	1238.305
842.670	23.686	1303.336	1237.530
843.685	23.749	1301.742	1236.308
844.699	23.579	1300.846	1234.120
845.714	23.585	1299.900	1233.118
846.728	23.315	1298.496	1229.753
847.743	23.488	1297.652	1230.017
848.758	23.429	1295.852	1227.752
849.772	23.499	1293.801	1226.145
850.787	23.451	1292.573	1224.506
851.801	23.421	1292.021	1223.624
852.816	23.371	1290.531	1221.725
853.831	23.389	1289.613	1220.833
854.845	23.356	1287.660	1218.610
855.860	23.264	1286.823	1217.034
856.874	23.319	1285.728	1216.235
857.889	23.630	1284.585	1217.152
858.904	24.026	1283.666	1218.858
859.918	24.106	1282.766	1218.408
860.933	24.155	1281.712	1217.601
861.947	23.922	1280.434	1214.640
862.962	23.643	1278.929	1211.157
863.977	23.574	1277.924	1209.581
864.991	23.429	1276.607	1207.204
866.006	23.379	1275.887	1206.036
867.020	23.266	1274.818	1204.105
868.035	23.329	1273.291	1202.948
869.049	23.382	1272.007	1201.951
870.064	23.514	1270.732	1201.506
871.079	23.395	1270.697	1200.516
872.093	23.330	1270.073	1199.339
873.108	23.441	1268.881	1198.827
874.122	23.655	1267.559	1198.889
875.137	23.514	1267.517	1197.747
876.152	23.589	1266.981	1197.604
877.166	23.572	1264.455	1194.958
878.181	23.533	1263.030	1193.210
879.195	23.462	1262.314	1191.904
880.210	23.204	1262.020	1189.743
881.225	23.457	1260.542	1189.913
882.239	23.368	1259.606	1188.293
883.254	23.372	1258.422	1187.056
884.268	23.320	1257.943	1186.113
885.283	23.368	1256.536	1184.969
886.298	23.251	1254.699	1182.310
887.312	23.327	1253.597	1181.635
888.327	23.283	1253.055	1180.691
889.341	23.346	1251.124	1179.152
890.356	23.382	1250.587	1178.745
891.371	23.394	1250.485	1178.587
892.385	23.380	1249.997	1177.895
893.400	23.524	1249.008	1177.783
894.414	23.502	1247.715	1176.278
895.429	23.651	1246.786	1176.249
896.444	24.049	1245.468	1177.511
897.458	24.233	1244.964	1178.116
898.473	24.187	1243.389	1176.179
899.487	23.965	1241.971	1173.227
900.502	23.517	1240.537	1168.767
901.517	23.447	1239.144	1166.850
902.531	23.411	1238.004	1165.400
903.546	23.432	1237.530	1164.951
904.560	23.218	1237.360	1163.239
905.575	23.156	1236.509	1161.893
906.589	23.426	1235.184	1162.289
907.604	23.360	1234.263	1160.850
