DTS Sentinel unit serial number:	SN409020Multiplexer serial number:	ORYXHardware model number:	OX4-SRSoftware version number:	ORYX F/W v3.00 Oryx Data Collector v3.7.2.0data status	okinstallation	HaddamTimeLapsedifferential loss correction	single-endedforward channel	channel 3reverse channel	N/Adate	2011/06/22time	10:41:00forward acquisition time	30.00reverse acquisition time	0.00gamma	498.7831k internal	0.1797k external	0.1797temperature offset calibration	1.0074default loss term (dB/km)	0.3790temperature slope calibration	1.3530multiplexer offset coefficient	1.0000multiplexer slope coefficient	1.0000fibre end	0.00T internal ref (°C)	30.31T ext. ref 1 (°C)	25.70T ext. ref 2 (°C)	-0.05length (m)	temperature (°C)	Stokes	anti-Stokes-747.200	-179.590	-0.279	-0.008
-746.185	800.000	-0.027	-0.098
-745.171	-28.552	0.283	-0.210
-744.156	218.213	0.182	0.378
-743.142	119.302	0.342	0.548
-742.127	-200.000	0.015	0.684
-741.112	-165.752	-0.452	-0.025
-740.098	616.693	-0.117	0.383
-739.083	-200.000	0.019	0.288
-738.069	-179.173	0.259	0.007
-737.054	-136.491	-0.576	-0.086
-736.039	-102.780	-0.041	0.012
-735.025	528.701	0.128	0.392
-734.010	800.000	0.118	0.468
-732.996	692.427	-0.072	0.246
-731.981	159.463	0.180	-0.326
-730.966	-81.731	-0.259	0.109
-729.952	-200.000	-0.017	0.135
-728.937	-99.062	0.115	-0.038
-727.923	-35.386	-0.147	-0.103
-726.908	-92.911	-0.636	-0.228
-725.894	-111.954	0.091	0.024
-724.879	-15.039	0.194	0.161
-723.864	-57.259	-0.323	-0.183
-722.850	-200.000	0.015	0.175
-721.835	294.861	-0.062	-0.146
-720.821	112.339	-0.245	-0.384
-719.806	-131.476	-0.437	0.074
-718.791	-154.621	0.201	-0.017
-717.777	-5.917	-0.336	-0.297
-716.762	106.491	-0.079	-0.122
-715.748	-200.000	0.035	-0.324
-714.733	21.042	-0.268	0.281
-713.718	175.696	-0.203	-0.382
-712.704	-76.324	0.292	0.132
-711.689	516.144	-0.079	-0.238
-710.675	-200.000	-0.033	0.195
-709.660	48.165	-0.266	-0.322
-708.645	63.017	-0.272	-0.353
-707.631	-123.270	0.104	0.021
-706.616	-200.000	-0.002	0.423
-705.602	177.923	0.256	0.483
-704.587	-171.447	-0.194	-0.008
-703.572	271.067	-0.131	-0.299
-702.558	-92.233	-0.034	0.012
-701.543	-180.601	0.351	-0.009
-700.529	-15.982	-0.249	-0.204
-699.514	-200.000	-0.023	0.301
-698.499	-77.200	0.689	0.309
-697.485	178.561	-0.223	-0.422
-696.470	-14.882	-0.447	0.370
-695.456	-156.014	0.215	-0.017
-694.441	170.612	-0.143	0.265
-693.426	310.408	0.144	0.350
-692.412	90.510	0.105	0.152
-691.397	-113.152	0.213	-0.054
-690.383	-200.000	0.002	0.121
-689.368	185.587	0.073	0.141
-688.354	83.747	-0.214	-0.301
-687.339	349.183	-0.122	-0.312
-686.324	791.653	0.199	-0.711
-685.310	-200.000	0.039	-0.325
-684.295	635.685	-0.076	0.249
-683.281	-67.466	-0.244	-0.123
-682.266	-66.011	-0.024	0.012
-681.251	85.909	-0.165	0.235
-680.237	-91.918	0.391	-0.142
-679.222	546.283	-0.048	-0.149
-678.208	-114.104	0.285	0.071
-677.193	-72.366	0.316	0.150
-676.178	-111.267	-0.559	-0.146
-675.164	253.097	-0.075	0.166
-674.149	326.533	-0.168	-0.418
-673.135	795.590	0.057	-0.202
-672.120	96.641	-0.086	-0.127
-671.105	-140.105	0.518	0.070
-670.091	-105.997	-0.058	-0.017
-669.076	-10.589	0.163	0.139
-668.062	-182.405	-0.565	0.013
-667.047	-104.215	-0.171	0.051
-666.032	-90.520	0.209	-0.078
-665.018	-200.000	-0.035	-0.573
-664.003	357.390	0.239	-0.618
-662.989	-86.247	-0.085	-0.034
-661.974	-104.331	0.191	-0.057
-660.959	800.000	0.066	-0.365
-659.945	47.470	0.117	0.141
-658.930	-180.637	0.073	0.002
-657.916	800.000	0.010	0.046
-656.901	-105.536	-0.094	0.027
-655.886	-200.000	0.012	0.122
-654.872	-131.742	-0.487	-0.082
-653.857	15.308	0.033	-0.034
-652.843	-92.913	0.089	-0.032
-651.828	-50.996	-0.403	0.243
-650.814	-190.177	-0.596	-0.008
-649.799	-92.949	-0.101	0.036
-648.784	-113.319	-0.122	-0.031
-647.770	800.000	0.114	0.629
-646.755	20.065	-0.115	0.120
-645.741	-114.256	-0.286	-0.071
-644.726	82.528	-0.135	-0.189
-643.711	19.039	0.065	-0.068
-642.697	-200.000	0.016	0.120
-641.682	-200.000	0.004	-0.334
-640.668	-200.000	0.073	-0.507
-639.653	-147.038	-0.126	0.014
-638.638	-117.040	-0.197	0.046
-637.624	-87.927	-0.313	0.121
-636.609	-72.898	-0.414	0.195
-635.595	-123.746	0.397	0.080
-634.580	205.654	-0.053	0.107
-633.565	-162.566	-0.255	-0.016
-632.551	800.000	-0.055	0.286
-631.536	70.008	0.086	-0.115
-630.522	800.000	-0.095	0.343
-629.507	86.334	-0.236	-0.336
-628.492	182.565	-0.193	0.369
-627.478	-69.985	-0.103	0.050
-626.463	209.208	0.198	-0.401
-625.449	-86.549	-0.288	-0.113
-624.434	-54.075	-0.368	0.215
-623.419	-27.463	-0.090	0.067
-622.405	-155.529	0.260	0.021
-621.390	530.703	0.096	-0.294
-620.376	-200.000	0.032	0.512
-619.361	63.426	-0.056	0.073
-618.346	-173.731	0.216	0.008
-617.332	231.438	0.217	-0.459
-616.317	207.487	0.104	0.211
-615.303	20.249	-0.199	0.207
-614.288	153.365	-0.218	-0.385
-613.273	463.473	-0.207	-0.600
-612.259	-118.638	0.348	0.078
-611.244	-89.177	0.251	-0.095
-610.230	-14.123	0.197	-0.163
-609.215	-119.633	0.164	-0.036
-608.201	-77.925	0.355	-0.157
-607.186	-109.792	0.286	-0.077
-606.171	563.996	0.008	-0.026
-605.157	161.637	-0.093	-0.167
-604.142	-56.428	0.305	0.174
-603.128	-21.137	0.239	0.188
-602.113	32.261	0.103	0.114
-601.098	268.626	0.061	-0.139
-600.084	43.990	0.142	-0.168
-599.069	58.990	-0.380	0.481
-598.055	112.162	0.163	-0.254
-597.040	-26.984	0.316	0.237
-596.025	532.176	0.065	0.198
-595.011	-200.000	-0.020	-0.641
-593.996	-68.186	-0.183	0.091
-592.982	16.984	-0.117	-0.119
-591.967	24.835	0.240	0.256
-590.952	-36.669	0.127	0.088
-589.938	189.277	-0.207	0.400
-588.923	37.569	-0.175	0.200
-587.909	-75.010	-0.163	-0.075
-586.894	-139.961	-0.097	0.013
-585.879	355.721	-0.133	-0.342
-584.865	280.204	-0.050	-0.116
-583.850	-29.119	0.176	0.130
-582.836	-200.000	0.023	0.202
-581.821	5.847	-0.095	-0.090
-580.806	-147.815	0.483	0.051
-579.792	-55.210	0.150	-0.086
-578.777	139.025	0.201	-0.341
-577.763	-200.000	-0.050	0.000
-576.748	-200.000	-0.092	-0.523
-575.733	-79.298	0.151	0.066
-574.719	428.394	0.198	0.551
-573.704	-181.579	0.333	0.008
-572.690	-46.445	0.330	0.208
-571.675	800.000	0.098	-0.353
-570.661	122.264	0.308	-0.496
-569.646	-200.000	-0.066	0.687
-568.631	-200.000	-0.006	0.098
-567.617	5.485	-0.083	-0.079
-566.602	-142.212	0.281	-0.035
-565.588	-200.000	0.079	-0.449
-564.573	-200.000	0.022	0.226
-563.558	-50.561	0.316	0.191
-562.544	-48.300	0.286	-0.177
-561.529	670.135	0.132	0.441
-560.515	103.064	-0.093	0.140
-559.500	122.081	-0.124	0.200
-558.485	-113.923	-0.556	0.138
-557.471	-89.959	0.059	-0.022
-556.456	-123.997	0.408	0.082
-555.442	-189.408	0.353	0.005
-554.427	-126.887	-0.255	0.048
-553.412	-108.555	0.122	-0.034
-552.398	-41.992	0.334	0.219
-551.383	-57.692	-0.173	-0.097
-550.369	-87.429	0.351	-0.136
-549.354	-130.948	0.463	0.079
-548.339	631.263	-0.137	-0.447
-547.325	-122.357	-0.563	-0.117
-546.310	-200.000	-0.049	-0.855
-545.296	341.016	0.112	-0.281
-544.281	-82.472	-0.127	0.053
-543.266	520.468	0.203	-0.615
-542.252	30.526	-0.280	-0.307
-541.237	-66.623	0.468	-0.237
-540.223	27.554	-0.317	-0.343
-539.208	125.324	-0.272	0.441
-538.193	-112.466	-0.354	-0.090
-537.179	233.639	-0.106	-0.224
-536.164	167.305	-0.245	0.448
-535.150	144.851	-0.145	-0.249
-534.135	126.839	0.336	-0.547
-533.121	-200.000	-0.146	-0.000
-532.106	-100.265	-0.351	-0.111
-531.091	-73.437	-0.294	-0.137
-530.077	-136.252	0.432	-0.064
-529.062	93.065	-0.409	-0.594
-528.048	19.714	0.243	-0.251
-527.033	642.124	-0.077	-0.252
-526.018	-89.937	-0.310	0.116
-525.004	362.695	-0.084	0.217
-523.989	-200.000	0.038	0.258
-522.975	-16.082	-0.112	-0.091
-521.960	800.000	0.028	-0.111
-520.945	-10.315	0.567	-0.482
-519.931	-118.865	0.478	-0.107
-518.916	7.687	-0.545	0.523
-517.902	-127.907	-0.373	0.068
-516.887	-102.647	-0.213	-0.065
-515.872	-23.988	0.185	-0.142
-514.858	286.233	0.115	-0.266
-513.843	-200.000	0.015	0.084
-512.829	153.337	0.119	-0.209
-511.814	482.030	-0.032	0.094
-510.799	42.526	-0.353	0.413
-509.785	237.343	0.062	-0.131
-508.770	134.593	-0.190	-0.316
-507.756	-87.462	0.461	-0.178
-506.741	246.123	0.265	-0.575
-505.726	-56.049	0.261	-0.149
-504.712	-151.314	-0.175	-0.017
-503.697	-115.967	-0.166	0.039
-502.683	-60.271	-0.408	-0.222
-501.668	16.554	0.068	-0.069
-500.653	-0.162	-0.188	-0.171
-499.639	59.010	-0.436	0.551
-498.624	-92.338	-0.487	0.175
-497.610	-59.563	-0.490	0.269
-496.595	109.492	-0.099	0.152
-495.581	-200.000	0.022	-0.488
-494.566	-70.425	0.268	0.130
-493.551	80.236	0.075	-0.103
-492.537	352.893	-0.162	-0.414
-491.522	360.229	-0.192	-0.495
-490.508	-84.753	0.500	-0.200
-489.493	46.194	0.181	-0.215
-488.478	213.591	0.190	0.387
-487.464	-200.000	-0.006	-0.297
-486.449	267.733	-0.098	0.220
-485.435	-37.849	-0.382	0.260
-484.420	513.778	0.084	0.253
-483.405	-113.115	-0.382	0.096
-482.391	-57.213	-0.302	0.170
-481.376	173.794	-0.119	0.222
-480.362	70.019	-0.368	0.487
-479.347	24.879	-0.208	0.221
-478.332	800.000	0.212	0.830
-477.318	188.074	-0.041	-0.079
-476.303	-54.650	-0.147	0.085
-475.289	234.515	0.048	-0.102
-474.274	-77.389	-0.267	0.118
-473.259	-197.363	-0.214	0.002
-472.245	7.088	0.205	-0.195
-471.230	-65.414	-0.664	0.341
-470.216	0.899	-0.516	0.473
-469.201	660.576	0.145	0.479
-468.186	54.787	-0.154	0.190
-467.172	-107.803	0.039	-0.011
-466.157	-200.000	0.007	-0.310
-465.143	-120.878	0.080	-0.017
-464.128	-162.667	0.363	0.022
-463.113	258.572	0.304	0.674
-462.099	-80.602	-0.429	0.182
-461.084	-77.349	-0.066	0.029
-460.070	-75.164	0.130	-0.059
-459.055	55.120	0.190	0.235
-458.040	-77.132	0.213	-0.095
-457.026	800.000	0.090	-0.437
-456.011	13.950	0.300	-0.299
-454.997	-200.000	0.056	0.537
-453.982	46.810	0.053	-0.063
-452.968	218.562	0.133	-0.273
-451.953	749.647	0.160	-0.555
-450.938	-64.048	0.168	0.088
-449.924	-152.691	0.155	-0.014
-448.909	-88.460	0.052	0.020
-447.895	401.094	0.054	0.146
-446.880	-59.163	0.243	-0.134
-445.865	800.000	-0.053	-0.276
-444.851	-200.000	-0.003	0.057
-443.836	193.515	-0.195	-0.379
-442.822	36.681	-0.309	0.349
-441.807	9.528	-0.166	-0.161
-440.792	566.482	0.165	-0.514
-439.778	-172.639	0.460	0.018
-438.763	-200.000	-0.032	0.302
-437.749	264.835	-0.146	-0.326
-436.734	435.015	0.127	-0.355
-435.719	22.020	0.278	0.290
-434.705	-38.210	0.222	-0.150
-433.690	130.331	0.239	-0.392
-432.676	33.172	0.114	-0.126
-431.661	-14.417	0.270	0.222
-430.646	-200.000	-0.075	0.444
-429.632	86.149	-0.215	0.303
-428.617	80.851	0.121	0.168
-427.603	-22.044	-0.536	0.415
-426.588	-13.099	-0.504	-0.418
-425.573	56.029	-0.050	0.063
-424.559	36.679	-0.356	0.402
-423.544	372.249	-0.104	0.270
-422.530	-130.605	0.323	-0.055
-421.515	-40.207	-0.107	0.071
-420.500	237.560	-0.237	-0.504
-419.486	267.605	0.141	-0.315
-418.471	184.923	-0.217	-0.413
-417.457	0.187	-0.096	-0.088
-416.442	-200.000	-0.008	-0.342
-415.428	31.823	0.323	-0.355
-414.413	361.511	-0.187	0.481
-413.398	793.425	-0.031	0.109
-412.384	800.000	0.095	-0.418
-411.369	337.524	0.145	0.362
-410.355	87.904	-0.203	0.288
-409.340	66.552	-0.202	0.262
-408.325	-90.910	0.552	0.202
-407.311	800.000	0.051	0.209
-406.296	25.916	0.098	0.105
-405.282	382.218	0.219	0.577
-404.267	-200.000	0.007	0.274
-403.252	141.481	0.314	0.533
-402.238	19.162	-0.523	-0.536
-401.223	-124.590	-0.172	-0.034
-400.209	-200.000	0.011	-0.241
-399.194	-55.972	-0.095	-0.054
-398.179	21.978	-0.202	-0.211
-397.165	-141.636	-0.080	0.010
-396.150	-62.125	0.265	-0.141
-395.136	159.344	-0.127	-0.226
-394.121	-51.290	0.368	0.219
-393.106	-121.581	0.404	-0.085
-392.092	-70.177	0.285	0.138
-391.077	-102.633	0.300	0.091
-390.063	800.000	0.131	-0.492
-389.048	-47.731	-0.416	0.257
-388.033	210.012	0.070	-0.140
-387.019	36.267	-0.171	-0.192
-386.004	240.763	-0.050	0.106
-384.990	173.027	-0.159	-0.294
-383.975	-200.000	0.015	0.244
-382.960	523.122	-0.085	-0.257
-381.946	-139.406	0.336	-0.045
-380.931	800.000	-0.061	0.297
-379.917	-1.847	0.358	0.321
-378.902	61.555	-0.244	-0.309
-377.888	-108.181	-0.603	-0.165
-376.873	-29.513	0.155	0.113
-375.858	587.391	0.049	0.154
-374.844	-29.109	0.516	-0.376
-373.829	226.277	-0.262	0.544
-372.815	-166.510	0.410	-0.021
-371.800	-186.058	0.276	-0.005
-370.785	274.081	-0.035	-0.080
-369.771	524.129	-0.054	0.164
-368.756	-200.000	0.014	-0.235
-367.742	-159.417	-0.188	0.013
-366.727	796.160	0.099	0.349
-365.712	104.996	-0.322	-0.485
-364.698	800.000	-0.084	-0.418
-363.683	-69.392	0.270	-0.132
-362.669	-6.365	-0.057	-0.049
-361.654	45.472	0.252	0.297
-360.639	-11.175	0.297	-0.249
-359.625	134.253	-0.257	0.425
-358.610	75.903	0.457	0.617
-357.596	-178.115	-0.051	0.002
-356.581	-68.156	-0.476	-0.235
-355.566	-69.141	-0.324	0.158
-354.552	-200.000	-0.009	-0.052
-353.537	-53.875	0.361	-0.209
-352.523	429.087	-0.104	-0.287
-351.508	56.006	-0.260	-0.321
-350.493	-98.414	0.332	-0.108
-349.479	-200.000	-0.030	0.237
-348.464	-171.322	-0.253	0.011
-347.450	-0.898	-0.141	0.127
-346.435	537.614	-0.111	0.337
-345.420	7.607	0.367	0.350
-344.406	-27.791	0.110	-0.081
-343.391	-200.000	0.027	-0.216
-342.377	-3.314	0.544	-0.482
-341.362	-73.140	0.616	0.287
-340.348	1.681	-0.208	-0.191
-339.333	-150.806	-0.209	0.020
-338.318	222.016	0.130	0.268
-337.304	8.140	0.217	0.207
-336.289	667.109	0.099	0.329
-335.275	-168.012	-0.159	0.008
-334.260	800.000	0.045	-0.165
-333.245	-90.212	-0.206	0.076
-332.231	477.834	-0.111	0.321
-331.216	-50.270	0.230	0.138
-330.202	-200.000	0.017	0.306
-329.187	-159.589	-0.291	0.020
-328.172	-200.000	-0.015	-0.099
-327.158	503.145	-0.090	0.265
-326.143	-130.886	-0.227	-0.038
-325.129	-200.000	0.004	-0.272
-324.114	-80.529	-0.368	0.156
-323.099	-37.400	0.395	0.268
-322.085	649.475	-0.134	-0.440
-321.070	-4.076	-0.324	-0.285
-320.056	-172.592	-0.453	-0.018
-319.041	34.821	-0.211	0.235
-318.026	-77.067	0.155	0.068
-317.012	-110.048	0.246	-0.065
-315.997	-120.044	-0.032	-0.007
-314.983	-53.452	0.444	0.258
-313.968	800.000	0.043	0.160
-312.953	-75.972	-0.152	-0.068
-311.939	-79.390	0.226	-0.097
-310.924	155.205	-0.140	0.246
-309.910	-83.881	-0.359	-0.145
-308.895	-138.375	-0.088	-0.012
-307.880	-101.159	-0.675	-0.209
-306.866	-97.725	-0.534	0.175
-305.851	-200.000	-0.002	0.117
-304.837	-82.970	-0.255	0.104
-303.822	-137.916	0.332	0.047
-302.807	-120.034	0.266	-0.057
-301.793	88.237	0.181	0.256
-300.778	-144.979	0.036	0.004
-299.764	-200.000	0.037	0.303
-298.749	-200.000	0.051	0.485
-297.735	144.232	-0.226	0.384
-296.720	-200.000	0.037	0.317
-295.705	43.013	0.199	0.231
-294.691	-32.942	-0.290	-0.204
-293.676	800.000	-0.025	-0.128
-292.662	352.122	0.054	-0.136
-291.647	-87.106	0.235	-0.090
-290.632	-82.601	0.092	0.038
-289.618	-90.171	0.475	0.175
-288.603	-124.354	0.084	-0.017
-287.589	-22.312	-0.101	-0.077
-286.574	-200.000	-0.017	-0.639
-285.559	-148.978	0.535	-0.054
-284.545	-127.465	-0.400	0.073
-283.530	582.964	0.074	-0.234
-282.516	-78.330	-0.401	0.174
-281.501	45.423	-0.119	0.140
-280.486	-1.309	0.210	-0.188
-279.472	155.158	-0.191	-0.335
-278.457	275.220	0.173	0.391
-277.443	-200.000	0.006	-0.265
-276.428	65.242	-0.276	-0.355
-275.413	228.504	0.253	0.526
-274.399	-200.000	0.054	-0.344
-273.384	26.528	0.208	0.221
-272.370	101.090	0.215	0.318
-271.355	-200.000	-0.015	-0.219
-270.340	-61.747	0.288	-0.152
-269.326	-33.749	-0.387	0.270
-268.311	800.000	0.077	0.280
-267.297	-10.888	0.187	-0.157
-266.282	103.064	-0.071	0.105
-265.267	7.537	0.246	0.234
-264.253	-38.220	0.586	0.394
-263.238	-67.687	0.474	0.235
-262.224	-57.755	-0.323	-0.179
-261.209	800.000	0.039	0.198
-260.195	13.101	0.239	0.235
-259.180	-151.619	-0.323	-0.030
-258.165	800.000	-0.062	0.278
-257.151	-106.590	-0.398	-0.112
-256.136	-82.266	-0.419	-0.172
-255.122	-134.658	0.229	-0.035
-254.107	-200.000	0.025	0.439
-253.092	-143.739	0.371	-0.044
-252.078	140.483	-0.169	0.284
-251.063	466.042	-0.131	-0.374
-250.049	27.200	-0.189	0.202
-249.034	-200.000	0.011	-0.292
-248.019	45.122	0.246	-0.288
-247.005	34.128	0.270	0.299
-245.990	-134.488	-0.032	0.005
-244.976	170.885	-0.189	0.344
-243.961	800.000	-0.146	0.588
-242.946	-192.822	0.285	0.003
-241.932	-67.331	0.516	0.256
-240.917	800.000	0.029	-0.105
-239.903	13.240	-0.545	-0.535
-238.888	-71.489	0.329	-0.156
-237.873	167.053	0.124	-0.224
-236.859	367.756	0.077	0.199
-235.844	-71.872	0.059	0.028
-234.830	-90.790	-0.489	-0.178
-233.815	34.897	-0.173	0.192
-232.800	-69.063	0.174	0.085
-231.786	-39.252	-0.108	0.072
-230.771	-8.275	-0.063	0.054
-229.757	-33.270	-0.460	-0.323
-228.742	190.870	0.138	-0.264
-227.727	-84.779	0.125	0.050
-226.713	-158.640	-0.173	-0.012
-225.698	56.832	-0.130	-0.161
-224.684	144.466	0.328	0.556
-223.669	89.412	-0.186	-0.263
-222.655	-22.120	-0.447	0.344
-221.640	86.499	-0.197	-0.276
-220.625	-127.527	-0.342	-0.062
-219.611	-72.714	0.424	-0.197
-218.596	75.555	-0.091	-0.122
-217.582	-159.602	0.149	-0.010
-216.567	30.453	-0.319	0.345
-215.552	-91.555	0.112	-0.040
-214.538	-119.844	-0.360	0.078
-213.523	12.677	-0.163	-0.160
-212.509	-104.597	0.380	-0.110
-211.494	43.606	-0.156	0.181
-210.479	109.996	-0.156	-0.238
-209.465	-149.510	0.540	-0.053
-208.450	-200.000	-0.066	-0.371
-207.436	103.960	-0.183	-0.272
-206.421	20.559	0.115	-0.117
-205.406	293.888	-0.220	0.511
-204.392	-22.570	-0.646	-0.495
-203.377	548.530	0.011	0.034
-202.363	800.000	0.048	-0.173
-201.348	29.700	0.319	-0.345
-200.333	-132.671	0.199	0.032
-199.319	-200.000	-0.015	0.662
-198.304	241.343	-0.059	-0.125
-197.290	-152.225	0.313	0.028
-196.275	-85.986	0.434	-0.169
-195.260	166.970	0.284	0.512
-194.246	800.000	0.044	-0.206
-193.231	-88.024	-0.170	0.064
-192.217	303.338	-0.175	0.412
-191.202	-55.109	0.302	-0.172
-190.187	-182.554	0.496	0.011
-189.173	-74.214	0.397	0.181
-188.158	-49.702	-0.196	0.118
-187.144	-6.225	-0.463	-0.400
-186.129	30.392	-0.277	0.300
-185.114	76.808	-0.255	-0.343
-184.100	98.563	-0.103	0.151
-183.085	48.505	-0.286	0.339
-182.071	-200.000	-0.069	0.697
-181.056	273.028	0.294	-0.660
-180.042	-86.251	-0.471	-0.183
-179.027	-200.000	-0.011	0.190
-178.012	-54.891	-0.026	-0.015
-176.998	-60.320	0.234	0.126
-175.983	800.000	-0.019	-0.082
-174.969	-59.232	0.318	-0.173
-173.954	800.000	-0.063	0.321
-172.939	209.728	-0.154	0.306
-171.925	-101.856	0.454	0.138
-170.910	-118.031	-0.428	0.096
-169.896	36.879	-0.069	-0.077
-168.881	-77.824	0.058	-0.025
-167.866	-111.337	-0.151	-0.039
-166.852	117.733	-0.323	-0.504
-165.837	147.149	0.319	-0.545
-164.823	29.541	0.047	0.050
-163.808	52.986	0.166	-0.201
-162.793	-118.987	-0.406	-0.089
-161.779	-60.075	0.255	-0.137
-160.764	90.685	0.124	-0.176
-159.750	-123.054	-0.152	-0.031
-158.735	-200.000	-0.035	0.240
-157.720	-15.577	0.052	0.042
-156.706	-200.000	0.072	0.615
-155.691	-145.456	-0.119	-0.013
-154.677	-109.894	0.400	0.105
-153.662	24.858	-0.188	-0.197
-152.647	-29.325	0.598	-0.432
-151.633	207.826	-0.311	-0.616
-150.618	745.850	-0.108	-0.370
-149.604	-83.465	0.295	0.119
-148.589	-103.303	0.387	0.115
-147.574	-137.780	0.217	-0.030
-146.560	-85.843	-0.407	0.158
-145.545	-17.958	-0.040	-0.031
-144.531	-42.546	0.496	-0.319
-143.516	-137.156	-0.243	0.035
-142.502	-70.803	-0.236	0.112
-141.487	-156.312	0.176	0.014
-140.472	38.773	0.323	0.365
-139.458	-200.000	0.016	0.696
-138.443	551.352	-0.026	0.079
-137.429	75.439	-0.178	-0.238
-136.414	622.566	-0.104	0.332
-135.399	232.933	0.160	-0.334
-134.385	410.478	-0.047	-0.127
-133.370	-68.114	-0.464	-0.227
-132.356	-100.703	0.130	-0.040
-131.341	-31.004	0.320	-0.228
-130.326	-145.755	0.259	-0.029
-129.312	564.788	-0.063	0.195
-128.297	-117.840	0.125	0.028
-127.283	-80.581	0.462	-0.194
-126.268	10.965	-0.332	0.320
-125.253	8.224	-0.144	0.137
-124.239	412.125	-0.022	-0.061
-123.224	384.521	-0.017	0.046
-122.210	64.771	0.184	-0.235
-121.195	6.175	0.182	-0.170
-120.180	-176.724	0.494	-0.016
-119.166	11.209	0.086	0.083
-118.151	-200.000	-0.016	0.348
-117.137	91.387	0.159	-0.226
-116.122	-59.806	-0.492	0.265
-115.107	-135.467	-0.159	-0.024
-114.093	-200.000	-0.012	0.199
-113.078	-25.798	-0.274	0.203
-112.064	-36.873	-0.295	0.199
-111.049	-200.000	0.037	0.245
-110.034	-106.900	-0.632	0.176
-109.020	-75.455	-0.356	-0.159
-108.005	-200.000	0.024	0.144
-106.991	-71.106	0.452	-0.214
-105.976	800.000	-0.156	-0.608
-104.962	-200.000	-0.004	-0.057
-103.947	-200.000	-0.008	-0.135
-102.932	-92.349	-0.212	-0.075
-101.918	7.598	0.343	0.324
-100.903	-168.665	-0.173	0.008
-99.889	800.000	0.011	-0.048
-98.874	702.228	-0.222	0.743
-97.859	-82.554	0.027	0.011
-96.845	-150.440	0.213	0.020
-95.830	164.658	-0.272	0.485
-94.816	10.660	-0.143	-0.137
-93.801	356.547	-0.127	-0.320
-92.786	-160.029	-0.315	0.021
-91.772	531.459	0.095	0.286
-90.757	13.618	0.085	-0.083
-89.743	-91.166	0.473	-0.170
-88.728	-111.826	0.114	0.029
-87.713	406.257	0.153	0.409
-86.699	195.328	-0.097	0.187
-85.684	-10.835	-0.068	-0.057
-84.670	-94.860	0.217	-0.074
-83.655	-200.000	0.044	0.471
-82.640	34.953	-0.229	-0.253
-81.626	-200.000	0.036	-0.209
-80.611	800.000	-0.054	-0.271
-79.597	-174.435	0.406	-0.014
-78.582	-61.395	-0.200	0.106
-77.567	-68.899	0.575	0.279
-76.553	99.519	-0.098	0.143
-75.538	-91.644	0.128	0.046
-74.524	343.320	0.060	0.149
-73.509	367.388	0.088	0.224
-72.494	-55.535	-0.182	-0.103
-71.480	-48.108	-0.298	-0.181
-70.465	106.765	-0.135	-0.202
-69.451	-185.283	0.197	-0.004
-68.436	39.923	0.252	0.285
-67.422	-200.000	-0.009	0.173
-66.407	-94.192	0.228	0.078
-65.392	416.830	0.109	-0.295
-64.378	-108.131	-0.366	0.099
-63.363	162.646	-0.050	0.088
-62.349	-139.957	-0.227	-0.030
-61.334	59.034	-1.901	-2.358
-60.319	20.673	1.025	1.045
-59.305	288.830	-3.317	-7.602
-58.290	45.142	3.474	4.036
-57.276	420.049	3.933	10.662
-56.261	-200.000	18.744	276.233
-55.246	422.795	1226.676	3334.835
-54.232	60.080	2831.912	3528.639
-53.217	70.326	2707.095	3527.005
-52.203	59.958	2437.635	3035.454
-51.188	37.029	2094.186	2334.433
-50.173	33.434	1973.092	2158.277
-49.159	31.340	1961.968	2122.147
-48.144	30.794	1958.457	2112.048
-47.130	30.796	1955.668	2108.981
-46.115	30.667	1953.936	2105.561
-45.100	30.477	1953.483	2102.828
-44.086	30.504	1951.838	2101.275
-43.071	30.716	1948.399	2099.893
-42.057	30.584	1948.084	2097.972
-41.042	30.560	1946.647	2096.069
-40.027	30.506	1945.377	2094.014
-39.013	30.481	1944.405	2092.595
-37.998	30.520	1942.715	2091.133
-36.984	30.434	1942.389	2089.726
-35.969	30.408	1941.212	2088.089
-34.954	30.448	1939.229	2086.329
-33.940	30.549	1937.347	2085.352
-32.925	30.339	1936.235	2081.707
-31.911	30.442	1935.096	2081.567
-30.896	30.395	1933.408	2079.138
-29.881	30.398	1932.287	2077.882
-28.867	30.392	1931.266	2076.635
-27.852	30.229	1930.217	2073.593
-26.838	30.388	1928.320	2073.251
-25.823	30.363	1927.815	2072.352
-24.809	30.350	1925.211	2069.316
-23.794	30.280	1924.191	2067.356
-22.779	30.269	1923.174	2066.064
-21.765	30.311	1921.684	2064.850
-20.750	30.271	1920.903	2063.485
-19.736	30.319	1919.109	2062.003
-18.721	30.304	1917.622	2060.166
-17.706	30.304	1916.684	2059.074
-16.692	30.273	1915.148	2056.999
-15.677	30.204	1914.200	2055.122
-14.663	30.140	1914.105	2054.231
-13.648	30.262	1911.847	2053.081
-12.633	30.134	1910.796	2050.445
-11.619	30.238	1909.380	2049.999
-10.604	30.238	1907.481	2047.886
-9.590	30.279	1906.704	2047.419
-8.575	30.183	1906.074	2045.598
-7.560	30.333	1904.075	2045.030
-6.546	30.194	1902.779	2042.020
-5.531	30.169	1901.292	2040.074
-4.517	30.281	1900.069	2039.917
-3.502	30.226	1899.582	2038.702
-2.487	30.208	1898.769	2037.553
-1.473	30.397	1895.286	2035.812
-0.458	30.175	1875.590	2012.153
0.556	26.652	2019.408	2112.502
1.571	25.775	2231.843	2323.088
2.586	27.125	2274.818	2385.370
3.600	27.217	2277.663	2389.280
4.615	27.182	2277.895	2388.771
5.629	27.213	2275.085	2385.950
6.644	27.145	2273.347	2382.937
7.659	27.216	2271.993	2382.179
8.673	27.405	2269.988	2382.277
9.688	26.799	2275.728	2380.015
10.702	24.342	2350.439	2424.327
11.717	21.794	2415.984	2455.814
12.731	12.143	2391.233	2295.230
13.746	2.393	2363.366	2132.141
14.761	0.537	2357.274	2100.451
15.775	0.384	2355.416	2096.404
16.790	0.302	2353.475	2093.275
17.804	0.380	2351.522	2092.370
18.819	0.274	2351.174	2090.336
19.834	0.347	2349.145	2089.303
20.848	0.276	2348.064	2087.102
21.863	0.279	2345.868	2084.937
22.877	0.245	2344.842	2083.310
23.892	0.278	2342.422	2081.373
24.907	0.290	2339.438	2078.637
25.921	0.277	2338.301	2077.199
26.936	0.247	2335.810	2074.315
27.950	0.342	2332.837	2072.734
28.965	0.377	2330.087	2070.537
29.980	0.324	2329.831	2069.325
30.994	0.389	2327.446	2067.858
32.009	5.746	2346.689	2159.017
33.023	19.151	2387.127	2383.652
34.038	25.531	2399.968	2485.135
35.053	26.676	2399.336	2500.083
36.067	27.027	2398.787	2504.068
37.082	26.798	2395.460	2497.126
38.096	26.376	2393.816	2489.284
39.111	26.762	2391.569	2491.988
40.126	27.154	2391.711	2497.249
41.140	27.561	2390.363	2501.150
42.155	27.038	2386.136	2489.229
43.169	26.636	2386.093	2483.348
44.184	26.861	2382.732	2482.649
45.199	26.815	2379.916	2478.790
46.213	26.775	2378.582	2476.546
47.228	26.673	2377.556	2473.786
48.242	26.621	2375.690	2470.837
49.257	26.733	2373.432	2469.719
50.271	26.855	2371.173	2468.751
51.286	26.878	2370.009	2467.558
52.301	26.766	2367.203	2462.813
53.315	26.026	2365.463	2450.597
54.330	25.081	2359.796	2431.557
55.344	24.369	2354.702	2416.329
56.359	24.370	2351.729	2412.999
57.374	24.077	2350.055	2407.011
58.388	24.130	2346.475	2403.774
59.403	24.499	2343.770	2405.721
60.417	24.813	2342.066	2407.929
61.432	24.830	2340.962	2406.734
62.447	24.797	2338.973	2403.962
63.461	24.643	2336.242	2398.791
64.476	24.773	2333.917	2397.867
65.490	25.247	2334.247	2404.294
66.505	25.617	2335.945	2410.753
67.520	25.998	2337.100	2416.785
68.534	26.075	2334.798	2415.153
69.549	26.455	2331.463	2416.515
70.563	26.628	2329.764	2416.790
71.578	26.637	2328.353	2415.150
72.593	26.748	2326.283	2414.203
73.607	26.856	2325.078	2414.104
74.622	26.887	2324.142	2413.259
75.636	26.689	2320.922	2406.984
76.651	26.822	2319.065	2406.551
77.666	26.959	2317.264	2406.213
78.680	27.023	2315.218	2404.653
79.695	27.361	2313.413	2406.993
80.709	27.437	2314.297	2408.622
81.724	27.536	2311.272	2406.508
82.739	27.458	2309.197	2403.022
83.753	27.253	2306.883	2397.614
84.768	27.241	2304.722	2394.912
85.782	27.125	2302.837	2391.144
86.797	27.081	2301.309	2388.678
87.812	26.971	2299.262	2384.817
88.826	26.941	2297.486	2382.294
89.841	27.080	2296.203	2382.512
90.855	27.283	2293.879	2382.492
91.870	27.028	2291.236	2376.110
92.884	27.018	2290.124	2374.534
93.899	27.132	2289.808	2375.423
94.914	26.661	2287.891	2366.968
95.928	25.545	2283.071	2347.068
96.943	25.014	2279.646	2336.310
97.957	26.116	2281.160	2352.020
98.972	26.938	2280.326	2361.631
99.987	26.780	2277.166	2356.016
101.001	26.759	2274.833	2353.052
102.016	26.903	2273.093	2352.841
103.030	26.943	2271.311	2351.239
104.045	27.120	2269.603	2351.488
105.060	27.259	2267.816	2351.168
106.074	27.192	2265.157	2347.260
107.089	27.090	2263.404	2343.841
108.103	27.053	2263.593	2343.265
109.118	27.131	2261.977	2342.329
110.133	27.225	2260.498	2341.732
111.147	27.294	2258.548	2340.330
112.162	27.228	2256.795	2337.377
113.176	26.987	2253.660	2330.742
114.191	26.905	2250.674	2326.312
115.206	26.866	2249.202	2324.015
116.220	26.657	2247.931	2319.728
117.235	26.814	2244.242	2317.663
118.249	26.827	2242.806	2316.075
119.264	26.957	2242.188	2316.819
120.279	26.956	2241.289	2315.604
121.293	26.815	2238.570	2310.716
122.308	26.810	2236.928	2308.671
123.322	26.996	2234.846	2308.624
124.337	26.235	2232.076	2295.771
125.352	25.323	2229.922	2281.644
126.366	25.389	2228.798	2281.065
127.381	26.154	2227.227	2288.931
128.395	26.445	2226.678	2291.798
129.410	26.739	2224.501	2293.022
130.424	26.827	2222.909	2292.224
131.439	26.735	2220.487	2288.291
132.454	26.754	2218.774	2286.495
133.468	26.916	2216.809	2286.238
134.483	26.886	2215.221	2283.950
135.497	26.933	2214.250	2283.267
136.512	27.110	2211.935	2282.843
137.527	27.085	2209.861	2280.117
138.541	26.863	2209.635	2276.808
139.556	26.877	2208.166	2275.200
140.570	26.930	2207.041	2274.438
141.585	27.002	2204.281	2272.229
142.600	27.048	2203.059	2271.269
143.614	27.025	2201.484	2269.093
144.629	27.034	2200.217	2267.620
145.643	26.993	2198.476	2265.048
146.658	26.940	2196.959	2262.549
147.673	26.945	2194.751	2260.058
148.687	27.235	2192.510	2261.112
149.702	27.096	2191.961	2258.534
150.716	26.988	2190.619	2255.534
151.731	27.182	2190.155	2257.203
152.746	27.141	2189.199	2255.439
153.760	26.617	2186.529	2245.895
154.775	25.144	2181.810	2222.439
155.789	24.661	2178.298	2212.586
156.804	25.698	2178.057	2224.968
157.819	26.515	2177.426	2234.197
158.833	26.858	2175.902	2236.619
159.848	27.200	2174.487	2239.131
160.862	27.278	2173.756	2239.085
161.877	27.257	2171.824	2236.559
162.892	27.236	2171.627	2235.831
163.906	27.459	2171.103	2237.780
164.921	27.580	2168.760	2236.594
165.935	27.485	2165.994	2232.295
166.950	27.382	2163.650	2228.352
167.964	27.189	2161.216	2223.205
168.979	27.120	2159.347	2220.166
169.994	27.109	2157.854	2218.233
171.008	27.146	2155.683	2216.187
172.023	26.795	2154.364	2210.266
173.037	26.963	2152.911	2210.571
174.052	26.915	2151.397	2208.163
175.067	26.812	2148.538	2203.702
176.081	26.823	2147.108	2202.109
177.096	26.669	2146.337	2199.176
178.110	26.526	2144.399	2195.185
179.125	26.697	2142.736	2195.305
180.140	26.755	2142.915	2195.925
181.154	26.890	2140.911	2195.258
182.169	26.696	2138.456	2190.113
183.183	26.080	2136.054	2179.912
184.198	24.966	2131.436	2161.441
185.213	24.743	2130.965	2158.001
186.227	26.013	2133.148	2175.353
187.242	26.574	2131.799	2180.513
188.256	26.468	2131.013	2178.162
189.271	26.964	2129.163	2182.007
190.286	27.100	2127.151	2181.333
191.300	26.829	2124.613	2175.204
192.315	26.642	2122.767	2170.795
193.329	26.861	2122.270	2172.658
194.344	27.077	2121.640	2174.357
195.359	27.268	2120.448	2175.176
196.373	27.382	2118.361	2174.138
197.388	27.290	2115.222	2169.559
198.402	27.126	2113.086	2165.145
199.417	26.966	2111.462	2161.305
200.432	27.123	2110.229	2161.662
201.446	27.170	2108.277	2159.965
202.461	27.091	2106.624	2157.071
203.475	26.869	2105.967	2153.483
204.490	27.054	2103.655	2153.067
205.504	27.263	2100.639	2152.216
206.519	26.906	2099.426	2146.465
207.534	26.944	2098.280	2145.496
208.548	27.140	2096.136	2145.367
209.563	26.853	2093.739	2139.260
210.577	26.683	2093.656	2136.901
211.592	27.090	2092.293	2140.071
212.607	26.321	2089.287	2127.652
213.621	24.493	2083.716	2100.127
214.636	24.455	2083.787	2099.495
215.650	26.182	2084.544	2120.419
216.665	26.694	2085.324	2126.992
217.680	27.044	2083.364	2128.873
218.694	27.264	2081.868	2129.669
219.709	27.262	2080.763	2128.263
220.723	27.139	2080.472	2126.264
221.738	27.254	2078.130	2124.964
222.753	27.164	2074.656	2120.105
223.767	26.963	2073.355	2116.172
224.782	26.824	2071.028	2111.918
225.796	26.771	2070.835	2110.839
226.811	27.272	2069.329	2114.910
227.826	27.411	2068.261	2115.194
228.840	27.349	2066.204	2112.108
229.855	27.206	2065.051	2109.012
230.869	27.103	2063.207	2105.676
231.884	26.846	2061.004	2100.183
232.899	26.661	2059.406	2096.150
233.913	26.774	2058.328	2096.115
234.928	26.841	2057.609	2095.911
235.942	26.826	2054.705	2092.531
236.957	26.912	2052.506	2091.034
237.972	26.864	2051.665	2089.374
238.986	26.892	2051.495	2089.276
240.001	26.985	2049.784	2088.356
241.015	26.783	2047.474	2083.425
242.030	26.560	2045.673	2078.770
243.045	25.534	2042.424	2063.383
244.059	25.365	2040.935	2059.687
245.074	26.526	2041.728	2073.618
246.088	26.841	2039.179	2074.405
247.103	26.898	2037.435	2073.043
248.117	26.873	2037.051	2072.110
249.132	26.939	2035.512	2071.053
250.147	26.842	2033.090	2067.232
251.161	26.651	2031.725	2063.417
252.176	26.732	2029.646	2061.978
253.190	26.783	2026.157	2058.771
254.205	26.400	2023.333	2051.285
255.220	26.251	2022.714	2048.719
256.234	26.385	2022.813	2050.099
257.249	26.489	2022.056	2050.274
258.263	26.492	2021.731	2049.732
259.278	26.396	2019.436	2046.070
260.293	26.431	2017.880	2044.640
261.307	26.760	2015.985	2046.213
262.322	26.850	2015.087	2046.074
263.336	26.847	2012.792	2043.465
264.351	26.693	2011.590	2040.257
265.366	26.857	2011.041	2041.309
266.380	27.075	2008.942	2041.397
267.395	26.692	2008.102	2035.972
268.409	26.868	2006.123	2035.716
269.424	27.277	2004.803	2038.742
270.439	27.256	2004.835	2038.285
271.453	26.703	2001.218	2028.151
272.468	25.162	1995.575	2004.886
273.482	24.729	1994.144	1998.342
274.497	26.107	1994.435	2013.870
275.512	26.819	1993.195	2020.350
276.526	26.826	1991.888	2018.857
277.541	26.686	1989.642	2014.780
278.555	26.604	1988.450	2012.417
279.570	26.399	1987.033	2008.450
280.585	26.553	1984.547	2007.417
281.599	26.609	1983.290	2006.530
282.614	26.616	1982.100	2005.163
283.628	26.419	1979.625	2000.230
284.643	26.241	1979.554	1997.942
285.657	26.315	1977.700	1996.644
286.672	26.023	1975.749	1991.200
287.687	26.071	1973.010	1988.738
288.701	25.950	1971.380	1985.512
289.716	25.875	1970.620	1983.684
290.730	25.746	1969.666	1981.056
291.745	25.863	1967.932	1980.362
292.760	26.149	1967.263	1982.619
293.774	26.392	1966.357	1984.139
294.789	26.699	1966.213	1987.142
295.803	26.955	1965.445	1988.953
296.818	27.024	1963.522	1987.526
297.833	27.029	1962.783	1986.594
298.847	27.117	1960.806	1985.327
299.862	26.959	1959.229	1981.761
300.876	26.587	1955.632	1973.809
301.891	25.213	1952.142	1955.013
302.906	25.121	1952.631	1954.255
303.920	26.559	1953.275	1970.413
304.935	27.069	1951.468	1973.925
305.949	26.842	1951.135	1970.877
306.964	26.979	1949.265	1970.246
307.979	27.116	1946.626	1968.829
308.993	26.445	1943.295	1957.932
310.008	26.027	1940.870	1950.710
311.022	26.002	1940.687	1950.014
312.037	26.211	1939.718	1951.078
313.052	25.993	1935.936	1944.686
314.066	25.544	1933.031	1936.672
315.081	25.269	1932.260	1932.688
316.095	25.174	1930.928	1930.104
317.110	25.275	1930.241	1930.271
318.125	25.802	1929.153	1934.643
319.139	26.289	1928.893	1939.409
320.154	26.386	1928.209	1939.535
321.168	26.393	1926.899	1938.064
322.183	26.674	1925.630	1939.581
323.197	26.776	1924.821	1939.625
324.212	26.758	1922.890	1937.251
325.227	26.754	1920.654	1934.728
326.241	26.761	1919.827	1933.738
327.256	26.943	1917.914	1933.528
328.270	26.825	1917.560	1931.681
329.285	26.830	1916.658	1930.588
330.300	26.422	1914.779	1924.108
331.314	24.880	1910.456	1903.062
332.329	24.708	1908.843	1899.391
333.343	26.014	1910.074	1914.337
334.358	26.983	1909.077	1923.437
335.373	27.206	1908.276	1924.766
336.387	27.270	1906.429	1923.359
337.402	27.146	1904.607	1919.972
338.416	26.913	1903.793	1916.444
339.431	26.984	1902.004	1915.169
340.446	27.189	1899.950	1915.042
341.460	27.074	1897.559	1911.186
342.475	26.756	1894.602	1904.620
343.489	26.339	1893.508	1898.895
344.504	26.204	1892.455	1896.184
345.519	26.007	1889.994	1891.414
346.533	25.714	1887.547	1885.652
347.548	25.860	1886.053	1885.472
348.562	25.998	1885.801	1886.444
349.577	26.053	1884.771	1885.765
350.592	26.079	1884.061	1885.104
351.606	26.027	1882.831	1883.106
352.621	26.017	1881.225	1881.169
353.635	26.215	1880.906	1882.696
354.650	26.467	1879.062	1883.262
355.665	26.564	1877.783	1882.775
356.679	26.817	1876.471	1883.869
357.694	26.909	1875.641	1883.774
358.708	26.943	1874.306	1882.561
359.723	26.607	1872.253	1876.772
360.738	25.134	1867.805	1856.776
361.752	25.303	1868.154	1858.656
362.767	26.464	1868.310	1870.666
363.781	26.832	1866.987	1872.936
364.796	27.021	1865.560	1873.245
365.810	26.911	1865.242	1871.555
366.825	27.056	1863.651	1871.241
367.840	26.991	1862.917	1869.608
368.854	26.935	1861.834	1867.718
369.869	26.824	1860.537	1865.045
370.883	26.809	1858.482	1862.602
371.898	26.538	1855.860	1856.956
372.913	26.257	1854.192	1852.170
373.927	26.460	1852.943	1852.792
374.942	26.589	1852.346	1853.298
375.956	26.583	1851.244	1851.916
376.971	26.455	1847.961	1847.101
377.986	26.021	1845.396	1839.864
379.000	26.218	1845.207	1841.469
380.015	26.903	1844.700	1847.762
381.029	27.280	1843.959	1850.658
382.044	27.318	1842.660	1849.515
383.059	27.289	1840.763	1847.098
384.073	27.034	1838.797	1842.307
385.088	26.665	1837.269	1836.791
386.102	26.695	1835.671	1835.275
387.117	26.845	1833.737	1834.647
388.132	26.855	1833.741	1834.536
389.146	26.490	1833.111	1829.973
390.161	24.993	1828.056	1809.520
391.175	24.989	1826.038	1807.265
392.190	26.393	1825.811	1821.054
393.205	26.800	1824.345	1823.488
394.219	27.023	1823.805	1824.987
395.234	26.908	1821.528	1821.329
396.248	26.698	1820.044	1817.509
397.263	26.749	1818.055	1815.812
398.278	26.625	1815.884	1812.184
399.292	26.467	1815.387	1809.886
400.307	26.946	1814.488	1813.579
401.321	26.935	1813.185	1811.955
402.336	26.138	1809.950	1800.520
403.350	25.713	1807.992	1794.096
404.365	26.116	1807.305	1797.237
405.380	26.095	1806.227	1795.731
406.394	25.519	1803.768	1787.321
407.409	25.599	1802.346	1786.493
408.423	25.522	1801.001	1784.183
409.438	25.541	1799.818	1782.989
410.453	25.713	1799.238	1783.912
411.467	26.256	1798.816	1788.685
412.482	26.460	1798.655	1790.339
413.496	26.796	1797.464	1792.280
414.511	26.854	1795.469	1790.651
415.526	26.899	1792.762	1788.183
416.540	27.030	1791.930	1788.436
417.555	26.901	1791.112	1786.127
418.569	26.745	1790.370	1783.636
419.584	26.674	1790.763	1783.112
420.599	26.751	1790.189	1783.085
421.613	26.722	1789.070	1781.470
422.628	26.806	1787.981	1781.005
423.642	27.045	1786.564	1781.734
424.657	26.893	1784.448	1777.917
425.672	26.479	1782.130	1771.313
426.686	26.579	1780.743	1770.709
427.701	26.609	1778.913	1768.975
428.715	26.622	1776.967	1766.958
429.730	26.855	1776.436	1768.503
430.745	26.823	1775.683	1767.227
431.759	26.586	1774.587	1763.602
432.774	25.903	1771.707	1753.851
433.788	24.734	1768.169	1738.721
434.803	24.132	1766.596	1731.088
435.818	24.224	1766.133	1731.328
436.832	24.234	1765.106	1730.211
437.847	22.889	1755.746	1707.765
438.861	13.269	1729.845	1589.810
439.876	2.635	1711.121	1470.294
440.890	0.523	1706.020	1445.416
441.905	0.351	1704.865	1442.614
442.920	0.275	1703.418	1440.485
443.934	0.250	1702.308	1439.134
444.949	0.280	1699.970	1437.270
445.963	0.240	1699.826	1436.599
446.978	0.332	1698.631	1436.290
447.993	0.281	1697.513	1434.690
449.007	0.270	1695.002	1432.287
450.022	0.264	1693.457	1430.754
451.036	0.676	1692.760	1433.927
452.051	2.427	1697.906	1454.849
453.066	10.451	1718.940	1550.079
454.080	20.792	1736.425	1665.597
455.095	24.159	1742.575	1703.721
456.109	25.557	1744.949	1719.282
457.124	25.831	1743.505	1720.288
458.139	25.633	1742.111	1716.809
459.153	25.365	1741.163	1713.092
460.168	25.490	1738.406	1711.380
461.182	25.378	1737.173	1708.884
462.197	25.441	1735.727	1707.860
463.212	25.434	1734.263	1706.145
464.226	25.504	1732.450	1704.832
465.241	25.510	1731.689	1703.937
466.255	25.543	1731.126	1703.488
467.270	25.509	1730.001	1701.852
468.285	25.715	1728.148	1701.789
469.299	25.661	1726.708	1699.653
470.314	25.690	1725.191	1698.234
471.328	25.668	1723.608	1696.258
472.343	25.718	1722.922	1695.856
473.358	25.636	1721.578	1693.551
474.372	25.693	1720.353	1692.681
475.387	25.689	1718.877	1690.996
476.401	25.528	1717.484	1687.898
477.416	25.314	1715.809	1684.031
478.430	25.296	1714.996	1682.868
479.445	25.589	1712.921	1683.384
480.460	25.590	1712.635	1682.911
481.474	25.702	1711.222	1682.370
482.489	25.818	1709.804	1681.871
483.503	25.667	1707.395	1677.882
484.518	25.383	1707.118	1674.748
485.533	25.428	1705.864	1673.739
486.547	25.415	1703.756	1671.350
487.562	25.235	1702.511	1668.247
488.576	25.344	1701.066	1667.650
489.591	25.400	1700.718	1667.630
490.606	25.543	1699.621	1667.682
491.620	25.660	1697.600	1666.593
492.635	25.731	1694.794	1664.302
493.649	25.500	1694.076	1661.251
494.664	25.346	1693.890	1659.435
495.679	25.587	1692.459	1660.074
496.693	25.471	1690.799	1657.167
497.708	25.532	1689.403	1656.168
498.722	25.488	1688.478	1654.654
499.737	25.637	1686.740	1654.133
500.752	25.643	1685.743	1653.012
501.766	25.726	1684.487	1652.349
502.781	25.680	1682.746	1650.016
503.795	25.745	1681.081	1648.787
504.810	25.674	1679.933	1646.809
505.825	25.355	1680.396	1644.131
506.839	25.572	1678.344	1643.925
507.854	25.663	1676.876	1643.124
508.868	25.473	1675.075	1639.415
509.883	25.364	1674.486	1637.645
510.898	25.204	1672.850	1634.387
511.912	25.153	1671.025	1631.938
512.927	25.364	1668.697	1631.400
513.941	25.388	1667.351	1630.102
514.956	25.615	1667.950	1632.565
515.971	25.865	1665.617	1632.364
516.985	25.737	1665.211	1630.604
518.000	25.380	1664.717	1626.683
519.014	25.145	1662.967	1622.640
520.029	25.221	1660.330	1620.562
521.043	25.253	1659.213	1619.564
522.058	25.280	1657.754	1618.196
523.073	25.184	1657.402	1616.785
524.087	25.102	1656.467	1614.942
525.102	25.151	1655.110	1613.867
526.116	25.391	1654.326	1615.074
527.131	25.535	1653.294	1615.171
528.146	25.461	1652.000	1613.054
529.160	25.399	1650.566	1610.899
530.175	25.428	1649.899	1610.313
531.189	25.386	1648.630	1608.510
532.204	25.433	1646.782	1606.931
533.219	25.582	1645.251	1606.589
534.233	25.522	1645.039	1605.649
535.248	25.427	1643.062	1602.676
536.262	25.131	1642.111	1598.901
537.277	25.221	1641.416	1598.835
538.292	25.395	1639.709	1598.544
539.306	25.454	1638.000	1597.214
540.321	25.170	1636.230	1592.756
541.335	25.212	1634.826	1591.574
542.350	25.377	1632.758	1590.844
543.365	25.283	1632.378	1589.446
544.379	25.368	1630.888	1588.563
545.394	25.224	1629.923	1586.150
546.408	25.517	1628.128	1586.813
547.423	25.494	1627.953	1586.251
548.438	25.574	1626.754	1585.597
549.452	25.517	1625.359	1583.548
550.467	25.477	1623.828	1581.508
551.481	25.412	1622.900	1579.843
552.496	25.363	1621.303	1577.668
553.511	25.190	1620.347	1575.023
554.525	25.221	1618.731	1573.537
555.540	25.223	1618.495	1573.131
556.554	25.150	1616.892	1570.743
557.569	25.274	1615.193	1569.994
558.583	25.370	1614.349	1569.831
559.598	25.206	1613.754	1567.628
560.613	25.229	1612.086	1566.017
561.627	25.144	1610.040	1563.103
562.642	25.082	1608.559	1560.932
563.656	24.852	1606.326	1556.570
564.671	24.740	1605.822	1554.916
565.686	24.738	1605.119	1554.032
566.700	24.898	1603.374	1553.552
567.715	25.092	1601.672	1553.409
568.729	25.183	1600.927	1553.286
569.744	25.550	1599.826	1555.224
570.759	25.501	1598.565	1553.391
571.773	25.370	1597.415	1550.950
572.788	25.127	1596.284	1547.556
573.802	24.894	1595.010	1544.115
574.817	24.784	1592.944	1540.982
575.832	24.646	1591.532	1538.233
576.846	24.852	1590.742	1539.070
577.861	25.076	1589.598	1539.715
578.875	25.068	1588.780	1538.669
579.890	25.004	1587.743	1536.928
580.905	24.963	1587.048	1535.718
581.919	25.096	1585.908	1535.576
582.934	25.039	1584.418	1533.458
583.948	24.790	1584.193	1530.915
584.963	24.880	1582.302	1529.677
585.978	25.035	1580.919	1529.482
586.992	24.921	1580.361	1527.783
588.007	24.887	1578.680	1525.689
589.021	24.860	1578.123	1524.736
590.036	24.653	1576.539	1521.247
591.051	24.800	1575.076	1520.915
592.065	24.940	1572.723	1519.652
593.080	24.886	1571.805	1518.126
594.094	24.961	1570.585	1517.402
595.109	25.136	1569.056	1517.235
596.123	25.274	1567.862	1517.065
597.138	25.232	1566.524	1515.234
598.153	25.064	1565.672	1512.808
599.167	25.098	1564.108	1511.399
600.182	24.919	1563.773	1509.383
601.196	25.005	1562.756	1508.947
602.211	24.988	1560.720	1506.657
603.226	24.800	1559.685	1503.888
604.240	24.749	1558.291	1501.937
605.255	24.799	1556.656	1500.602
606.269	24.900	1555.778	1500.428
607.284	24.866	1554.272	1498.503
608.299	24.931	1552.522	1497.184
609.313	24.977	1551.407	1496.316
610.328	24.947	1550.877	1495.378
611.342	24.829	1548.969	1492.368
612.357	24.655	1548.289	1490.074
613.372	24.834	1547.198	1490.345
614.386	24.663	1546.410	1487.982
615.401	24.527	1545.725	1486.004
616.415	24.412	1544.691	1483.869
617.430	24.320	1542.400	1480.727
618.445	24.239	1541.364	1478.878
619.459	24.462	1540.594	1479.818
620.474	24.550	1540.797	1480.566
621.488	24.951	1540.104	1483.066
622.503	25.257	1539.523	1484.878
623.518	24.712	1537.710	1478.416
624.532	24.490	1534.816	1473.623
625.547	24.270	1533.292	1470.153
626.561	24.260	1531.725	1468.397
627.576	24.072	1531.182	1466.145
628.591	24.392	1531.484	1468.908
629.605	24.806	1530.702	1471.399
630.620	24.920	1529.471	1470.980
631.634	25.326	1529.266	1473.963
632.649	25.191	1527.842	1471.298
633.663	24.905	1524.924	1465.964
634.678	24.431	1523.549	1460.561
635.693	24.074	1521.589	1455.575
636.707	23.981	1520.075	1453.193
637.722	23.975	1518.578	1451.536
638.736	24.110	1517.475	1451.417
639.751	24.403	1516.639	1452.841
640.766	24.420	1516.169	1452.355
641.780	24.345	1514.924	1450.378
642.795	24.423	1514.305	1450.247
643.809	24.583	1513.698	1450.795
644.824	24.519	1512.970	1449.402
645.839	24.646	1512.043	1449.374
646.853	24.592	1510.059	1446.866
647.868	24.660	1508.871	1446.107
648.882	24.549	1507.552	1443.768
649.897	24.702	1505.981	1443.332
650.912	24.645	1504.368	1441.150
651.926	24.547	1502.953	1438.827
652.941	24.567	1502.272	1438.162
653.955	24.630	1500.349	1436.664
654.970	24.535	1499.251	1434.669
655.985	24.406	1497.937	1432.200
656.999	24.212	1496.995	1429.561
658.014	24.283	1495.360	1428.406
659.028	24.286	1494.348	1427.288
660.043	24.432	1494.182	1428.133
661.058	24.542	1492.092	1426.848
662.072	24.382	1491.860	1425.172
663.087	24.414	1490.887	1424.330
664.101	24.596	1489.332	1424.131
665.116	24.510	1488.540	1422.513
666.131	24.585	1487.100	1421.567
667.145	24.566	1485.391	1419.611
668.160	24.439	1484.010	1417.115
669.174	24.088	1482.654	1412.849
670.189	24.258	1481.634	1413.059
671.204	24.342	1481.339	1413.283
672.218	24.373	1480.573	1412.626
673.233	24.377	1478.982	1410.967
674.247	24.188	1477.452	1407.840
675.262	24.168	1475.908	1406.040
676.276	24.049	1475.373	1404.424
677.291	24.229	1475.190	1405.504
678.306	24.485	1474.017	1406.248
679.320	24.520	1471.814	1404.257
680.335	24.160	1471.323	1400.769
681.349	24.137	1470.711	1399.844
682.364	24.174	1469.247	1398.573
683.379	24.026	1468.194	1396.231
684.393	24.092	1466.188	1394.676
685.408	23.839	1465.607	1391.972
686.422	23.934	1464.712	1391.695
687.437	23.788	1463.783	1389.500
688.452	23.580	1462.663	1386.637
689.466	23.645	1461.289	1385.684
690.481	23.847	1459.461	1385.363
691.495	23.986	1459.699	1386.515
692.510	24.606	1459.818	1391.314
693.525	25.048	1457.831	1392.708
694.539	24.764	1455.852	1388.435
695.554	23.999	1455.125	1381.611
696.568	23.689	1453.439	1377.423
697.583	23.524	1452.492	1375.077
698.598	23.544	1451.069	1373.718
699.612	23.616	1449.587	1372.711
700.627	23.734	1448.594	1372.526
701.641	23.873	1447.809	1372.697
702.656	24.068	1446.690	1372.979
703.671	23.768	1445.894	1369.735
704.685	23.934	1445.552	1370.534
705.700	23.985	1444.984	1370.228
706.714	23.871	1443.386	1367.667
707.729	24.119	1442.267	1368.357
708.744	24.185	1440.615	1367.133
709.758	23.896	1439.913	1364.078
710.773	23.893	1438.560	1362.614
711.787	23.913	1437.628	1361.721
712.802	24.085	1436.115	1361.443
713.816	24.126	1434.908	1360.449
714.831	24.016	1433.814	1358.408
715.846	23.983	1432.171	1356.437
716.860	23.783	1431.385	1354.000
717.875	23.874	1430.604	1353.791
718.889	23.900	1429.894	1353.160
719.904	23.835	1428.919	1351.577
720.919	23.815	1426.970	1349.419
721.933	23.630	1426.019	1346.944
722.948	23.561	1425.220	1345.509
723.962	23.698	1423.637	1344.892
724.977	23.577	1422.212	1342.465
725.992	23.702	1421.752	1342.819
727.006	23.782	1420.178	1341.781
728.021	23.715	1418.731	1339.742
729.035	23.703	1417.514	1338.341
730.050	23.650	1417.035	1337.330
731.065	23.725	1415.902	1336.669
732.079	23.486	1414.949	1333.803
733.094	23.742	1413.724	1334.425
734.108	24.026	1412.172	1334.938
735.123	23.815	1410.777	1331.867
736.138	23.686	1410.054	1330.056
737.152	23.717	1409.061	1329.196
738.167	23.651	1407.461	1327.030
739.181	23.586	1406.689	1325.653
740.196	23.598	1405.606	1324.565
741.211	23.531	1404.756	1323.103
742.225	23.625	1403.611	1322.570
743.240	23.680	1401.816	1321.134
744.254	23.517	1400.784	1318.784
745.269	23.278	1399.728	1315.849
746.284	23.346	1398.888	1315.410
747.298	23.459	1398.805	1316.016
748.313	23.741	1398.099	1317.296
749.327	24.084	1397.875	1319.483
750.342	24.553	1397.573	1322.527
751.356	24.608	1397.467	1322.684
752.371	24.512	1395.325	1319.779
753.386	23.793	1392.457	1311.581
754.400	23.403	1391.493	1307.623
755.415	23.509	1390.143	1306.986
756.429	23.469	1388.839	1305.308
757.444	23.652	1387.091	1304.855
758.459	23.501	1386.115	1302.668
759.473	23.349	1385.583	1300.894
760.488	23.501	1384.083	1300.451
761.502	23.316	1382.930	1297.850
762.517	23.556	1381.935	1298.522
763.532	23.746	1381.161	1299.034
764.546	23.545	1380.331	1296.627
765.561	23.667	1379.431	1296.519
766.575	23.680	1379.366	1296.395
767.590	23.710	1378.451	1295.600
768.605	23.795	1376.507	1294.243
769.619	23.804	1374.832	1292.578
770.634	23.555	1373.669	1289.513
771.648	23.447	1372.010	1287.016
772.663	23.273	1371.104	1284.738
773.678	23.214	1370.858	1283.927
774.692	23.255	1370.717	1283.936
775.707	23.252	1369.773	1282.877
776.721	23.307	1368.485	1281.916
777.736	23.329	1366.993	1280.525
778.751	23.161	1366.304	1278.511
779.765	23.321	1364.749	1278.063
780.780	23.332	1364.707	1277.949
781.794	23.409	1363.139	1276.885
782.809	23.143	1361.843	1273.591
783.824	23.123	1360.453	1271.998
784.838	23.405	1360.316	1273.755
785.853	23.923	1360.839	1277.830
786.867	23.846	1359.024	1275.424
787.882	23.447	1358.014	1271.446
788.897	23.221	1357.483	1269.169
789.911	23.148	1355.354	1266.501
790.926	23.049	1353.532	1263.935
791.940	22.918	1351.964	1261.379
792.955	23.050	1350.858	1261.143
793.969	22.912	1350.049	1259.246
794.984	22.914	1349.565	1258.660
795.999	23.076	1347.986	1258.193
797.013	23.104	1346.821	1257.159
798.028	23.079	1345.339	1255.444
799.042	23.004	1345.346	1254.768
800.057	22.923	1343.697	1252.497
801.072	22.932	1342.491	1251.289
802.086	22.986	1341.310	1250.423
803.101	22.950	1340.144	1248.934
804.115	23.028	1338.746	1248.033
805.130	23.026	1338.079	1247.247
806.145	22.993	1337.060	1245.914
807.159	23.056	1335.806	1245.041
808.174	23.181	1335.102	1245.120
809.188	23.260	1334.145	1244.634
810.203	23.476	1332.027	1244.037
811.218	23.311	1331.085	1241.842
812.232	23.387	1329.509	1240.759
813.247	23.503	1329.154	1241.098
814.261	23.378	1328.244	1239.222
815.276	23.396	1326.580	1237.648
816.291	23.179	1325.311	1234.788
817.305	23.021	1324.540	1232.815
818.320	22.868	1323.569	1230.692
819.334	22.923	1322.453	1229.897
820.349	23.018	1321.001	1229.063
821.364	22.833	1319.039	1225.799
822.378	22.702	1317.888	1223.671
823.393	22.754	1316.696	1222.779
824.407	22.731	1315.687	1221.531
825.422	22.871	1315.618	1222.300
826.437	22.841	1313.880	1220.326
827.451	22.922	1312.129	1219.116
828.466	23.422	1312.191	1222.494
829.480	23.770	1311.018	1223.664
830.495	23.508	1307.688	1218.601
831.509	23.106	1306.730	1214.786
832.524	22.754	1306.134	1211.663
833.539	22.787	1304.909	1210.606
834.553	22.753	1303.745	1209.150
835.568	22.749	1302.164	1207.513
836.582	22.661	1301.871	1206.486
837.597	22.805	1300.289	1205.867
838.612	22.904	1298.685	1204.913
839.626	22.948	1298.053	1204.487
840.641	23.079	1297.060	1204.317
841.655	23.330	1296.556	1205.423
842.670	23.344	1296.464	1205.289
843.685	23.479	1294.859	1204.570
844.699	23.325	1293.256	1201.884
845.714	23.121	1291.367	1198.599
846.728	22.872	1290.705	1196.149
847.743	22.861	1289.722	1195.018
848.758	22.881	1288.123	1193.527
849.772	22.716	1286.936	1191.166
850.787	22.654	1285.663	1189.426
851.801	22.584	1284.304	1187.552
852.816	22.715	1283.088	1187.170
853.831	22.589	1282.208	1185.365
854.845	22.673	1280.645	1184.343
855.860	22.617	1278.965	1182.272
856.874	22.772	1278.308	1182.566
857.889	22.941	1277.841	1183.127
858.904	23.327	1276.891	1184.704
859.918	23.903	1275.806	1187.424
860.933	24.059	1274.451	1187.064
861.947	23.494	1272.568	1181.388
862.962	23.219	1270.912	1177.867
863.977	23.062	1269.816	1175.659
864.991	22.850	1268.394	1172.793
866.006	22.816	1268.206	1172.251
867.020	22.860	1266.558	1170.878
868.035	22.744	1265.622	1169.102
869.049	22.599	1264.689	1167.136
870.064	22.648	1263.953	1166.641
871.079	22.731	1263.395	1166.538
872.093	22.744	1263.010	1166.131
873.108	22.900	1261.217	1165.365
874.122	22.856	1260.501	1164.275
875.137	23.011	1260.479	1165.143
876.152	23.275	1258.989	1165.372
877.166	23.199	1256.486	1162.416
878.181	22.981	1255.240	1159.685
879.195	22.799	1255.045	1158.165
880.210	22.735	1254.037	1156.674
881.225	22.784	1252.674	1155.604
882.239	22.671	1252.456	1154.522
883.254	22.689	1250.989	1153.149
884.268	22.757	1250.439	1152.949
885.283	22.808	1248.851	1151.680
886.298	22.684	1247.549	1149.531
887.312	22.560	1246.963	1148.038
888.327	22.650	1245.658	1147.287
889.341	22.727	1243.835	1145.980
890.356	22.739	1243.386	1145.508
891.371	22.663	1243.544	1145.020
892.385	22.737	1242.525	1144.421
893.400	22.735	1241.749	1143.557
894.414	22.815	1240.502	1142.795
895.429	23.096	1239.533	1143.589
896.444	23.918	1238.996	1148.294
897.458	24.395	1238.135	1150.451
898.473	23.762	1237.350	1145.487
899.487	23.322	1235.412	1140.709
900.502	23.007	1233.597	1136.857
901.517	22.757	1232.247	1133.865
902.531	22.782	1230.938	1132.685
903.546	22.740	1230.505	1131.880
904.560	22.650	1230.133	1130.823
905.575	22.805	1229.066	1130.704
906.589	22.830	1228.096	1129.836
907.604	22.813	1227.283	1128.842
