DTS Sentinel unit serial number:	SN409020Multiplexer serial number:	ORYXHardware model number:	OX4-SRSoftware version number:	ORYX F/W v3.00 Oryx Data Collector v3.7.2.0data status	okinstallation	HaddamTimeLapsedifferential loss correction	single-endedforward channel	channel 3reverse channel	N/Adate	2011/06/21time	19:36:17forward acquisition time	30.00reverse acquisition time	0.00gamma	498.7831k internal	0.1796k external	0.1796temperature offset calibration	1.0074default loss term (dB/km)	0.3790temperature slope calibration	1.3530multiplexer offset coefficient	1.0000multiplexer slope coefficient	1.0000fibre end	0.00T internal ref (°C)	33.66T ext. ref 1 (°C)	25.68T ext. ref 2 (°C)	0.25length (m)	temperature (°C)	Stokes	anti-Stokes-747.200	52.970	0.248	-0.307
-746.185	42.880	-0.151	0.178
-745.171	-57.891	-0.117	-0.066
-744.156	-200.000	-0.060	0.451
-743.142	-8.144	-0.609	0.531
-742.127	208.074	-0.073	0.149
-741.112	-89.595	0.312	-0.118
-740.098	-105.586	-0.268	-0.078
-739.083	-193.044	-0.714	-0.008
-738.069	-200.000	-0.024	0.223
-737.054	511.625	0.124	-0.377
-736.039	800.000	-0.047	0.210
-735.025	169.160	-0.321	-0.596
-734.010	208.709	0.028	-0.056
-732.996	800.000	-0.046	-0.249
-731.981	-68.683	-0.424	0.212
-730.966	-200.000	-0.391	-0.002
-729.952	-200.000	0.024	-0.558
-728.937	42.838	-0.308	-0.364
-727.923	-57.050	-0.199	0.113
-726.908	-114.303	0.286	0.071
-725.894	478.343	-0.051	-0.149
-724.879	179.688	0.209	-0.397
-723.864	-200.000	0.054	-0.316
-722.850	-94.920	-0.144	0.050
-721.835	-200.000	0.013	0.142
-720.821	-200.000	0.009	-0.315
-719.806	-11.147	-0.060	-0.051
-718.791	800.000	0.044	-0.218
-717.777	-145.431	0.215	-0.025
-716.762	-72.773	0.160	0.076
-715.748	-100.528	-0.304	-0.097
-714.733	-200.000	-0.053	-0.312
-713.718	115.868	0.015	-0.023
-712.704	800.000	0.068	0.261
-711.689	-61.753	-0.219	0.119
-710.675	149.070	0.282	-0.495
-709.660	-20.087	0.184	-0.146
-708.645	325.688	-0.112	0.277
-707.631	169.182	0.172	-0.318
-706.616	60.782	-0.127	-0.163
-705.602	-16.077	-0.061	-0.050
-704.587	1.633	0.319	-0.297
-703.572	306.472	-0.213	-0.515
-702.558	123.172	-0.144	0.233
-701.543	75.844	0.125	0.171
-700.529	68.030	0.064	0.084
-699.514	800.000	-0.212	-0.820
-698.499	-200.000	-0.025	-0.408
-697.485	-200.000	0.048	-0.386
-696.470	-150.472	0.388	-0.038
-695.456	293.421	0.055	-0.130
-694.441	43.709	0.227	-0.269
-693.426	800.000	0.047	0.251
-692.412	-124.840	0.070	0.014
-691.397	24.870	-0.282	-0.302
-690.383	800.000	-0.052	0.208
-689.368	16.866	-0.154	-0.157
-688.354	-152.986	-0.428	0.039
-687.339	448.870	-0.283	-0.809
-686.324	573.138	0.101	-0.321
-685.310	800.000	0.099	-0.540
-684.295	-51.808	0.484	-0.291
-683.281	-200.000	0.007	-0.441
-682.266	-90.194	-0.175	0.066
-681.251	173.288	-0.235	0.438
-680.237	-53.877	-0.294	-0.173
-679.222	136.812	-0.144	0.244
-678.208	-51.362	0.164	0.099
-677.193	-5.392	-0.165	0.146
-676.178	6.379	0.173	0.166
-675.164	-39.109	-0.175	0.119
-674.149	87.561	-0.313	0.449
-673.135	62.214	0.215	0.277
-672.120	-129.477	-0.168	0.030
-671.105	800.000	0.096	-0.354
-670.091	-51.189	0.330	-0.199
-669.076	-62.762	-0.210	-0.112
-668.062	-20.939	0.138	0.109
-667.047	-99.580	0.231	0.075
-666.032	800.000	0.124	0.473
-665.018	-89.931	0.388	-0.146
-664.003	458.710	0.215	-0.619
-662.989	36.672	0.076	-0.087
-661.974	-179.402	-0.360	-0.010
-660.959	-102.016	-0.474	0.147
-659.945	-18.014	0.275	0.222
-658.930	-111.880	-0.214	-0.055
-657.916	105.892	0.191	-0.293
-656.901	-200.000	0.008	-0.195
-655.886	-121.906	-0.192	0.041
-654.872	800.000	-0.031	0.112
-653.857	-2.944	-0.044	-0.040
-652.843	377.492	-0.212	0.562
-651.828	800.000	0.079	-0.322
-650.814	15.935	-0.389	-0.395
-649.799	37.114	-0.148	0.169
-648.784	-48.062	-0.269	-0.167
-647.770	-99.054	0.424	-0.138
-646.755	-117.879	-0.224	-0.051
-645.741	-84.742	-0.158	-0.064
-644.726	23.267	0.078	0.083
-643.711	188.061	-0.104	0.202
-642.697	334.697	-0.087	0.218
-641.682	130.061	-0.091	-0.151
-640.668	-4.180	0.295	0.263
-639.653	-174.453	0.416	-0.015
-638.638	97.361	-0.137	0.203
-637.624	-189.856	-0.161	-0.002
-636.609	-115.203	-0.457	-0.111
-635.595	21.925	0.401	0.422
-634.580	-200.000	-0.056	0.318
-633.565	253.103	0.023	0.050
-632.551	319.126	-0.108	-0.266
-631.536	-83.360	0.321	-0.132
-630.522	-200.000	-0.013	-0.404
-629.507	-200.000	0.065	-0.431
-628.492	-200.000	0.017	-0.253
-627.478	-106.196	-0.243	-0.070
-626.463	-52.862	0.089	-0.052
-625.449	193.174	-0.085	-0.166
-624.434	487.006	-0.052	-0.153
-623.419	-155.043	0.335	-0.028
-622.405	4.185	0.324	0.305
-621.390	119.314	-0.140	0.224
-620.376	173.246	0.307	-0.571
-619.361	41.086	0.254	-0.296
-618.346	33.945	-0.141	0.159
-617.332	91.294	-0.241	-0.349
-616.317	-200.000	0.001	-0.158
-615.303	-200.000	0.017	-0.457
-614.288	-200.000	-0.035	0.346
-613.273	-41.124	-0.163	-0.108
-612.259	35.137	0.139	0.157
-611.244	369.837	-0.168	0.440
-610.230	103.734	-0.254	-0.384
-609.215	51.511	0.126	0.154
-608.201	298.080	-0.051	-0.120
-607.186	-97.800	-0.140	-0.046
-606.171	78.940	-0.144	-0.199
-605.157	302.582	0.038	-0.092
-604.142	239.043	-0.017	0.037
-603.128	93.915	-0.223	-0.327
-602.113	-92.866	0.304	0.109
-601.098	-79.890	-0.442	0.191
-600.084	-63.036	-0.186	0.099
-599.069	-200.000	0.018	-0.345
-598.055	-200.000	0.020	-0.651
-597.040	-21.951	-0.176	-0.138
-596.025	384.482	-0.032	-0.085
-595.011	-174.299	0.256	0.009
-593.996	40.302	-0.147	-0.170
-592.982	-104.321	0.190	0.056
-591.967	-84.923	0.442	-0.178
-590.952	-107.884	0.056	-0.016
-589.938	-143.679	-0.167	-0.020
-588.923	-119.723	-0.161	-0.035
-587.909	-50.725	-0.265	0.160
-586.894	-152.119	-0.569	-0.053
-585.879	-200.000	-0.062	-0.509
-584.865	-62.861	-0.108	-0.057
-583.850	156.977	0.169	0.301
-582.836	-155.432	0.160	-0.013
-581.821	76.373	0.040	-0.054
-580.806	-153.519	0.169	-0.015
-579.792	800.000	0.086	0.353
-578.777	-72.855	-0.247	-0.116
-577.763	-200.000	0.049	-0.394
-576.748	800.000	-0.068	-0.271
-575.733	71.710	0.265	-0.355
-574.719	-73.725	0.453	-0.211
-573.704	800.000	0.121	0.517
-572.690	209.723	0.082	0.166
-571.675	-13.767	-0.434	-0.360
-570.661	-67.747	-0.431	0.216
-569.646	-65.421	0.077	0.040
-568.631	-11.030	0.627	0.531
-567.617	800.000	-0.106	0.471
-566.602	800.000	0.069	0.333
-565.588	-200.000	-0.001	-0.082
-564.573	-60.507	-0.156	-0.085
-563.558	104.716	-0.061	0.093
-562.544	-186.888	-0.263	-0.005
-561.529	35.051	-0.266	-0.300
-560.515	19.776	-0.123	-0.127
-559.500	-200.000	-0.071	0.422
-558.485	8.296	0.191	0.184
-557.471	-7.023	-0.065	-0.057
-556.456	-76.248	0.118	0.053
-555.442	-78.610	-0.187	0.082
-554.427	-200.000	-0.493	-0.003
-553.412	-200.000	-0.079	0.474
-552.398	-75.850	0.082	0.037
-551.383	50.568	0.071	0.086
-550.369	-148.816	0.679	-0.070
-549.354	530.248	-0.236	0.721
-548.339	800.000	-0.090	0.357
-547.325	-123.365	0.253	0.052
-546.310	4.307	0.452	0.426
-545.296	-13.977	-0.091	0.076
-544.281	-175.015	-0.234	-0.008
-543.266	-10.639	-0.245	-0.208
-542.252	21.570	0.284	0.297
-541.237	-70.773	0.076	0.037
-540.223	-154.381	-0.157	0.013
-539.208	-200.000	-0.064	0.498
-538.193	-200.000	-0.023	0.315
-537.179	-134.749	-0.237	-0.037
-536.164	45.762	0.263	0.312
-535.150	-105.035	0.123	0.036
-534.135	-54.451	0.140	-0.081
-533.121	-200.000	0.000	-0.104
-532.106	-95.961	-0.158	-0.054
-531.091	-75.861	0.526	0.238
-530.077	-200.000	0.029	0.264
-529.062	-130.894	-0.068	0.012
-528.048	-19.500	0.311	0.247
-527.033	204.322	-0.249	0.498
-526.018	-41.936	0.321	0.211
-525.004	253.726	0.190	-0.418
-523.989	-200.000	-0.026	-0.490
-522.975	-150.450	-0.315	-0.031
-521.960	-200.000	0.083	-0.607
-520.945	-87.132	-0.136	-0.053
-519.931	-123.308	-0.162	-0.033
-518.916	-187.387	-0.154	0.003
-517.902	-74.130	0.119	0.055
-516.887	-94.523	-0.145	-0.050
-515.872	38.687	-0.476	0.546
-514.858	215.003	-0.146	0.299
-513.843	-82.141	0.157	-0.065
-512.829	-129.719	0.314	-0.055
-511.814	-145.660	0.375	0.042
-510.799	133.352	0.263	-0.438
-509.785	-56.787	0.102	-0.058
-508.770	-122.123	0.120	-0.025
-507.756	37.109	0.162	0.184
-506.741	137.361	-0.289	0.487
-505.726	-200.000	0.008	-0.482
-504.712	-27.384	0.327	0.244
-503.697	-11.227	0.143	0.120
-502.683	293.798	-0.142	-0.334
-501.668	-26.854	-0.294	-0.220
-500.653	-200.000	-0.067	0.432
-499.639	105.741	0.207	-0.314
-498.624	-35.934	0.144	0.100
-497.610	-200.000	0.072	0.511
-496.595	24.495	-0.354	-0.376
-495.581	-167.579	-0.347	0.017
-494.566	-200.000	-0.018	-0.125
-493.551	271.852	0.141	-0.320
-492.537	1.589	-0.171	-0.158
-491.522	-115.876	-0.301	0.072
-490.508	52.286	-0.351	0.430
-489.493	237.802	-0.165	-0.353
-488.478	800.000	0.162	-0.729
-487.464	269.072	0.045	-0.101
-486.449	0.003	0.177	0.161
-485.435	-189.410	-0.550	-0.008
-484.420	-122.516	0.121	-0.025
-483.405	-162.615	0.005	-0.000
-482.391	45.581	0.306	0.362
-481.376	-9.361	-0.496	0.424
-480.362	-200.000	0.050	-0.445
-479.347	-78.571	-0.147	-0.064
-478.332	-93.394	-0.280	0.099
-477.318	-179.958	-0.577	0.015
-476.303	-41.077	-0.146	-0.096
-475.289	295.592	-0.153	0.361
-474.274	800.000	0.054	0.249
-473.259	-200.000	0.008	-0.554
-472.245	-39.090	0.426	-0.287
-471.230	-200.000	0.001	0.570
-470.216	-200.000	0.022	0.237
-469.201	-10.369	0.248	-0.210
-468.186	365.245	0.094	0.244
-467.172	-200.000	-0.050	-0.722
-466.157	25.218	-0.245	-0.261
-465.143	234.974	-0.076	0.161
-464.128	9.510	0.183	0.177
-463.113	13.620	-0.345	0.344
-462.099	-200.000	0.028	0.270
-461.084	130.221	-0.130	-0.214
-460.070	109.893	-0.342	-0.527
-459.055	-200.000	0.060	0.472
-458.040	-111.920	-0.242	-0.062
-457.026	-68.301	-0.678	-0.336
-456.011	37.876	-0.285	-0.324
-454.997	-131.703	0.099	0.016
-453.982	800.000	-0.062	0.325
-452.968	-91.286	-0.330	-0.120
-451.953	251.703	0.214	0.468
-450.938	455.516	0.105	-0.298
-449.924	-116.670	-0.197	0.046
-448.909	-169.230	0.350	-0.016
-447.895	524.104	-0.045	-0.135
-446.880	-19.684	-0.385	0.304
-445.865	326.078	-0.081	-0.199
-444.851	-54.841	0.176	-0.101
-443.836	582.438	-0.096	-0.303
-442.822	-200.000	-0.047	-0.320
-441.807	-111.735	-0.623	-0.160
-440.792	76.673	0.044	-0.060
-439.778	-200.000	-0.004	-0.268
-438.763	17.016	-0.241	0.244
-437.749	-57.395	0.193	-0.108
-436.734	-173.976	0.619	-0.023
-435.719	-200.000	-0.027	0.186
-434.705	-143.550	-0.417	0.050
-433.690	-200.000	0.052	-0.400
-432.676	125.053	0.100	-0.162
-431.661	800.000	-0.125	0.547
-430.646	20.113	-0.462	0.477
-429.632	632.822	0.024	0.080
-428.617	-140.273	0.216	-0.029
-427.603	224.819	0.153	0.317
-426.588	-200.000	0.042	0.326
-425.573	44.817	-0.222	0.262
-424.559	-20.191	-0.379	0.298
-423.544	800.000	0.061	0.328
-422.530	-200.000	-0.004	0.318
-421.515	-200.000	-0.049	0.422
-420.500	114.781	0.216	0.338
-419.486	800.000	-0.122	0.439
-418.471	13.328	-0.412	-0.408
-417.457	143.874	-0.131	0.224
-416.442	-104.388	0.483	0.142
-415.428	-166.653	0.233	0.012
-414.413	-99.810	0.360	-0.115
-413.398	-200.000	-0.031	0.262
-412.384	-157.373	0.609	0.046
-411.369	215.818	-0.224	-0.456
-410.355	-200.000	0.043	-0.332
-409.340	-200.000	-0.003	-0.146
-408.325	-60.080	-0.449	0.244
-407.311	89.553	-0.044	0.063
-406.296	800.000	-0.014	0.066
-405.282	-15.196	-0.181	0.148
-404.267	-145.291	-0.319	0.036
-403.252	-185.290	-0.504	-0.010
-402.238	194.379	-0.012	0.023
-401.223	301.370	0.037	-0.087
-400.209	-132.765	-0.114	-0.018
-399.194	-102.190	0.414	-0.126
-398.179	-114.823	-0.365	-0.088
-397.165	22.583	-0.280	-0.293
-396.150	35.378	0.184	0.206
-395.136	-200.000	-0.072	0.477
-394.121	-145.013	0.250	0.029
-393.106	-128.131	-0.192	0.035
-392.092	-60.629	-0.280	-0.151
-391.077	-95.925	0.594	-0.201
-390.063	-5.458	0.260	0.228
-389.048	-200.000	0.232	0.001
-388.033	-200.000	0.026	-0.187
-387.019	480.224	0.167	0.486
-386.004	-93.267	-0.448	0.158
-384.990	-200.000	-0.043	-0.304
-383.975	66.867	0.186	-0.243
-382.960	-34.342	0.192	0.135
-381.946	-173.860	-0.328	0.012
-380.931	-6.794	-0.436	0.379
-379.917	-200.000	0.233	-0.000
-378.902	-131.514	0.439	-0.073
-377.888	98.033	0.134	0.198
-376.873	-103.092	0.315	0.095
-375.858	79.537	-0.194	0.266
-374.844	-192.132	-0.306	-0.004
-373.829	-113.888	0.290	0.071
-372.815	-9.466	0.272	-0.232
-371.800	-200.000	0.016	0.475
-370.785	-188.950	-0.522	0.008
-369.771	169.144	0.070	-0.128
-368.756	-32.109	-0.290	-0.207
-367.742	-200.000	-0.007	0.435
-366.727	-200.000	-0.049	-0.312
-365.712	-200.000	0.038	0.352
-364.698	-147.280	0.156	0.017
-363.683	-74.495	0.224	-0.103
-362.669	-138.950	-0.367	-0.050
-361.654	11.294	0.376	0.367
-360.639	-173.353	0.155	0.006
-359.625	-3.715	-0.326	0.289
-358.610	2.836	0.199	-0.184
-357.596	-200.000	0.055	0.409
-356.581	90.882	0.217	0.311
-355.566	150.157	0.271	-0.470
-354.552	-52.007	-0.307	-0.182
-353.537	148.020	-0.248	-0.428
-352.523	-200.000	0.038	-0.825
-351.508	-178.940	0.297	0.008
-350.493	-41.650	0.347	0.227
-349.479	-200.000	0.058	0.430
-348.464	-80.180	-0.164	0.070
-347.450	-137.371	-0.420	0.060
-346.435	-200.000	0.058	-0.378
-345.420	216.922	-0.049	-0.100
-344.406	-77.808	0.500	0.219
-343.391	-8.633	-0.138	-0.118
-342.377	461.560	0.223	0.639
-341.362	-81.495	-0.358	-0.149
-340.348	800.000	0.021	-0.101
-339.333	-200.000	-0.342	-0.002
-338.318	-16.719	-0.097	-0.078
-337.304	-117.871	-0.722	-0.164
-336.289	108.956	-0.309	-0.473
-335.275	-118.816	0.409	-0.091
-334.260	96.496	0.392	-0.573
-333.245	324.347	0.208	-0.508
-332.231	566.388	0.103	0.320
-331.216	-115.373	0.394	-0.094
-330.202	185.432	0.173	-0.327
-329.187	188.844	-0.069	0.131
-328.172	362.991	0.064	0.165
-327.158	-32.417	-0.395	-0.280
-326.143	800.000	0.175	0.653
-325.129	-200.000	0.072	0.472
-324.114	176.942	0.149	-0.278
-323.099	-11.241	-0.209	-0.175
-322.085	22.422	0.243	0.253
-321.070	726.219	0.107	-0.367
-320.056	104.761	-0.298	0.448
-319.041	-7.088	0.118	0.102
-318.026	-105.521	0.117	-0.033
-317.012	585.182	0.098	-0.309
-315.997	16.226	0.479	-0.481
-314.983	-200.000	0.010	-0.283
-313.968	-52.306	-0.494	-0.291
-312.953	247.993	0.078	0.170
-311.939	61.304	0.211	0.267
-310.924	-64.586	0.493	-0.254
-309.910	-200.000	-0.008	-0.073
-308.895	-57.293	-0.221	-0.124
-307.880	-147.270	-0.383	0.041
-306.866	58.211	0.065	-0.081
-305.851	-200.000	0.043	0.243
-304.837	-91.034	0.190	0.069
-303.822	-41.814	0.062	-0.040
-302.807	16.106	-0.181	0.181
-301.793	-71.249	-0.515	0.245
-300.778	-109.383	-0.090	0.024
-299.764	-200.000	0.044	-0.733
-298.749	97.760	0.052	-0.076
-297.735	-27.894	0.368	-0.271
-296.720	-200.000	0.485	-0.000
-295.705	30.282	-0.372	-0.404
-294.691	-200.000	-0.107	-0.743
-293.676	634.757	-0.035	-0.113
-292.662	12.626	-0.123	-0.121
-291.647	800.000	-0.121	-0.611
-290.632	67.033	0.118	-0.153
-289.618	4.577	-0.264	0.247
-288.603	-45.830	0.571	0.358
-287.589	234.440	0.167	-0.352
-286.574	-200.000	0.022	-0.320
-285.559	-200.000	-0.013	0.318
-284.545	-123.980	0.163	-0.032
-283.530	31.484	-0.172	-0.188
-282.516	-200.000	-0.018	-0.398
-281.501	-200.000	-0.036	0.339
-280.486	-138.224	0.230	-0.032
-279.472	-33.839	0.413	-0.289
-278.457	-87.867	-0.215	-0.082
-277.443	-126.385	-0.439	0.082
-276.428	-92.832	-0.356	0.126
-275.413	-181.611	0.101	0.002
-274.399	-139.179	-0.354	-0.048
-273.384	12.003	-0.274	-0.267
-272.370	-145.928	-0.421	-0.047
-271.355	-162.994	0.233	0.014
-270.340	21.259	0.154	-0.159
-269.326	-200.000	-0.045	0.344
-268.311	58.645	-0.189	-0.236
-267.297	62.217	0.017	0.022
-266.282	373.773	0.138	0.358
-265.267	-54.203	0.363	0.209
-264.253	180.650	-0.041	-0.077
-263.238	41.903	0.043	0.050
-262.224	176.697	-0.146	0.271
-261.209	-84.804	0.174	0.069
-260.195	21.022	-0.163	-0.168
-259.180	-200.000	0.032	-0.187
-258.165	42.996	0.049	0.057
-257.151	-5.473	-0.293	0.255
-256.136	641.666	-0.086	0.280
-255.122	182.748	0.124	0.233
-254.107	-93.314	-0.284	-0.099
-253.092	-19.281	-0.276	0.218
-252.078	800.000	0.093	-0.371
-251.063	259.954	0.240	-0.528
-250.049	-61.647	0.091	-0.049
-249.034	-122.497	0.430	-0.088
-248.019	-101.423	0.239	-0.074
-247.005	-200.000	0.042	-0.421
-245.990	-200.000	-0.085	-0.595
-244.976	103.826	-0.108	-0.161
-243.961	243.895	0.168	-0.359
-242.946	-42.329	0.514	-0.333
-241.932	350.548	0.134	0.339
-240.917	150.555	-0.242	-0.418
-239.903	-141.955	-0.164	-0.021
-238.888	-200.000	-0.014	0.198
-237.873	-45.978	0.140	0.087
-236.859	800.000	-0.076	0.414
-235.844	76.383	-0.340	0.458
-234.830	559.015	0.104	0.321
-233.815	-62.612	0.258	-0.136
-232.800	-138.042	0.441	0.062
-231.786	-91.149	0.228	0.083
-230.771	-45.259	0.129	-0.081
-229.757	91.443	0.238	-0.340
-228.742	22.615	-0.039	0.040
-227.727	-166.123	0.285	0.015
-226.713	-2.996	-0.205	-0.181
-225.698	-200.000	-0.006	0.112
-224.684	-113.598	-0.177	0.044
-223.669	104.002	-0.118	0.176
-222.655	-200.000	0.049	-0.285
-221.640	-32.842	0.170	0.120
-220.625	78.314	0.147	0.199
-219.611	-105.714	-0.468	-0.133
-218.596	137.742	-0.170	-0.283
-217.582	-150.019	-0.455	0.044
-216.567	-82.796	-0.630	0.257
-215.552	96.994	0.242	-0.352
-214.538	800.000	0.048	0.184
-213.523	-5.409	0.139	0.121
-212.509	-15.550	0.386	0.312
-211.494	171.752	0.248	-0.453
-210.479	46.486	0.034	-0.040
-209.465	66.947	-0.121	-0.156
-208.450	-63.021	-0.357	0.187
-207.436	-128.762	-0.155	0.028
-206.421	-95.723	0.678	-0.228
-205.406	516.664	-0.108	0.321
-204.392	8.509	-0.260	0.248
-203.377	-50.619	0.171	0.102
-202.363	-181.468	0.591	-0.014
-201.348	-109.966	0.312	-0.082
-200.333	-200.000	-0.022	-0.125
-199.319	66.448	0.239	-0.308
-198.304	611.884	-0.097	0.310
-197.290	800.000	0.173	0.712
-196.275	111.977	-0.130	0.200
-195.260	800.000	0.118	-0.443
-194.246	-90.951	-0.174	-0.063
-193.231	0.118	-0.091	-0.082
-192.217	379.015	-0.228	-0.594
-191.202	267.954	0.153	-0.340
-190.187	60.319	0.302	-0.379
-189.173	111.564	-0.174	0.266
-188.158	38.120	0.393	-0.443
-187.144	377.297	-0.160	0.416
-186.129	-200.000	0.015	0.202
-185.114	192.180	0.166	0.318
-184.100	2.793	-0.063	0.057
-183.085	490.399	0.062	-0.182
-182.071	-180.908	-0.159	-0.004
-181.056	-92.429	-0.287	0.102
-180.042	-200.000	0.447	0.001
-179.027	-24.444	-0.287	0.216
-178.012	-152.448	-0.221	0.020
-176.998	-121.860	-0.158	0.033
-175.983	-78.943	-0.264	-0.114
-174.969	-54.590	-0.355	-0.203
-173.954	431.238	0.167	0.462
-172.939	800.000	0.024	0.119
-171.925	150.911	0.260	0.449
-170.910	12.871	0.112	-0.110
-169.896	-139.591	0.067	-0.009
-168.881	-84.793	0.635	-0.252
-167.866	-104.706	0.351	-0.102
-166.852	83.787	-0.102	-0.142
-165.837	387.034	-0.122	-0.321
-164.823	-31.564	-0.119	0.084
-163.808	-200.000	-0.002	0.457
-162.793	-141.910	0.741	0.093
-161.779	111.397	0.197	0.301
-160.764	-200.000	-0.049	0.292
-159.750	42.508	0.177	-0.204
-158.735	-75.562	0.190	-0.085
-157.720	422.136	0.120	0.328
-156.706	-67.429	0.371	0.184
-155.691	-187.511	0.267	0.004
-154.677	-39.286	-0.252	0.167
-153.662	99.795	0.266	-0.391
-152.647	25.380	0.365	0.384
-151.633	-94.325	-0.318	0.109
-150.618	800.000	0.071	-0.320
-149.604	39.329	-0.080	-0.090
-148.589	73.560	-0.173	0.229
-147.574	327.050	-0.033	-0.081
-146.560	87.770	0.290	-0.407
-145.545	-103.475	0.473	-0.140
-144.531	-66.411	0.136	-0.068
-143.516	-200.000	0.022	0.282
-142.502	800.000	-0.020	0.107
-141.487	-110.413	-0.495	0.129
-140.472	-105.922	-0.587	-0.166
-139.458	340.212	-0.134	-0.331
-138.443	175.483	-0.100	0.185
-137.429	-200.000	-0.078	0.591
-136.414	-13.977	-0.141	0.115
-135.399	332.752	-0.145	0.355
-134.385	800.000	-0.070	-0.316
-133.370	-175.925	0.537	0.018
-132.356	290.688	0.076	0.175
-131.341	308.707	0.140	0.332
-130.326	6.367	0.338	-0.317
-129.312	-199.788	0.666	-0.004
-128.297	-82.258	-0.418	0.171
-127.283	264.372	-0.133	0.295
-126.268	-200.000	0.048	-0.402
-125.253	70.525	0.401	-0.525
-124.239	34.172	0.123	0.136
-123.224	800.000	-0.125	0.495
-122.210	367.185	-0.231	0.593
-121.195	-121.985	0.110	-0.023
-120.180	3.000	-0.273	-0.251
-119.166	1.026	-0.214	-0.194
-118.151	-200.000	0.054	0.594
-117.137	-34.361	-0.228	0.158
-116.122	-200.000	-0.036	-0.587
-115.107	800.000	0.039	-0.204
-114.093	-144.847	0.655	0.075
-113.078	43.371	0.317	-0.366
-112.064	-200.000	-0.006	0.132
-111.049	195.784	-0.242	-0.466
-110.034	289.672	-0.118	0.272
-109.020	156.963	-0.168	0.295
-108.005	800.000	0.094	0.361
-106.991	800.000	-0.097	-0.446
-105.976	-200.000	-0.004	0.058
-104.962	26.606	0.106	-0.112
-103.947	85.875	0.210	-0.292
-102.932	32.484	-0.286	0.312
-101.918	-23.430	-0.500	0.379
-100.903	-105.648	0.094	0.027
-99.889	88.441	0.105	-0.148
-98.874	489.386	0.189	0.548
-97.859	800.000	0.023	0.114
-96.845	118.308	-0.019	0.029
-95.830	-21.780	0.165	-0.127
-94.816	-182.763	-0.237	-0.005
-93.801	-87.784	0.293	0.111
-92.786	-12.070	-0.222	0.184
-91.772	-18.464	0.099	0.078
-90.757	-48.230	-0.390	-0.237
-89.743	-103.910	0.272	0.080
-88.728	-200.000	-0.096	-0.547
-87.713	-52.476	0.341	-0.198
-86.699	-2.522	-0.157	-0.139
-85.684	-128.222	-0.589	0.105
-84.670	800.000	0.046	-0.228
-83.655	-200.000	0.017	-0.431
-82.640	-28.856	0.280	0.203
-81.626	-159.523	-0.500	0.035
-80.611	-38.114	-0.090	-0.060
-79.597	-53.266	-0.490	0.283
-78.582	-81.922	0.344	0.141
-77.567	36.948	0.495	-0.553
-76.553	145.457	0.151	0.256
-75.538	-106.516	-0.098	-0.028
-74.524	157.645	-0.312	-0.547
-73.509	-104.585	-0.512	-0.148
-72.494	73.961	-0.202	-0.268
-71.480	-123.240	-0.617	-0.124
-70.465	-99.249	-0.437	0.138
-69.451	-159.586	-0.251	0.017
-68.436	-200.000	0.020	0.262
-67.422	-60.545	-0.206	0.110
-66.407	28.417	0.400	0.427
-65.392	-103.525	-0.242	0.071
-64.378	702.598	0.161	-0.539
-63.363	532.940	-0.177	-0.531
-62.349	-128.036	0.237	0.042
-61.334	-28.454	-1.537	-1.116
-60.319	152.869	0.469	0.811
-59.305	325.572	-2.733	-6.622
-58.290	4.235	3.149	2.906
-57.276	434.923	3.837	10.572
-56.261	-200.000	15.322	234.140
-55.246	432.668	1197.398	3291.416
-54.232	59.212	2840.278	3528.880
-53.217	68.418	2725.330	3525.699
-52.203	45.675	2452.893	2859.225
-51.188	42.843	2104.172	2418.482
-50.173	35.844	1977.213	2192.660
-49.159	34.444	1965.856	2164.016
-48.144	34.180	1961.915	2156.593
-47.130	33.984	1959.744	2151.888
-46.115	33.969	1958.655	2150.440
-45.100	34.033	1956.550	2148.765
-44.086	34.030	1955.108	2147.065
-43.071	33.938	1954.310	2145.062
-42.057	33.863	1953.010	2142.691
-41.042	33.980	1950.337	2140.998
-40.027	33.881	1950.056	2139.490
-39.013	33.918	1947.238	2136.726
-37.998	33.810	1946.529	2134.647
-36.984	33.795	1945.327	2133.077
-35.969	33.923	1943.748	2132.708
-34.954	33.786	1942.482	2129.679
-33.940	33.827	1941.483	2128.969
-32.925	33.850	1940.018	2127.540
-31.911	33.816	1939.437	2126.433
-30.896	33.860	1937.665	2124.893
-29.881	33.796	1936.168	2122.451
-28.867	33.776	1934.697	2120.537
-27.852	33.835	1933.771	2120.097
-26.838	33.704	1932.236	2116.855
-25.823	33.625	1931.055	2114.600
-24.809	33.883	1928.202	2114.270
-23.794	33.785	1927.763	2112.617
-22.779	33.770	1926.466	2110.940
-21.765	33.554	1925.903	2107.824
-20.750	33.604	1924.441	2106.698
-19.736	33.591	1922.697	2104.562
-18.721	33.456	1922.355	2102.594
-17.706	33.520	1920.401	2101.096
-16.692	33.507	1919.413	2099.782
-15.677	33.481	1918.009	2097.872
-14.663	33.486	1916.689	2096.397
-13.648	33.610	1914.087	2094.846
-12.633	33.547	1913.990	2093.966
-11.619	33.488	1912.782	2091.907
-10.604	33.521	1910.909	2090.140
-9.590	33.500	1910.725	2089.616
-8.575	33.478	1909.964	2088.464
-7.560	33.509	1907.526	2086.056
-6.546	33.398	1907.562	2084.779
-5.531	33.526	1905.623	2083.991
-4.517	33.462	1904.719	2082.214
-3.502	33.666	1903.016	2082.527
-2.487	33.580	1901.988	2080.371
-1.473	33.610	1899.122	2077.482
-0.458	33.510	1878.290	2053.527
0.556	28.950	2011.667	2133.460
1.571	26.712	2224.858	2330.379
2.586	27.878	2271.462	2394.282
3.600	27.887	2274.106	2396.911
4.615	27.992	2272.917	2396.752
5.629	27.877	2270.974	2392.894
6.644	27.952	2269.677	2392.238
7.659	28.075	2268.073	2391.878
8.673	28.126	2266.775	2390.886
9.688	27.500	2271.431	2387.266
10.702	24.714	2342.738	2424.013
11.717	21.567	2407.698	2446.781
12.731	11.090	2380.564	2272.631
13.746	1.705	2355.292	2117.475
14.761	0.243	2350.595	2092.603
15.775	0.103	2348.163	2088.226
16.790	0.102	2346.759	2086.718
17.804	0.022	2344.844	2083.647
18.819	0.023	2344.136	2082.781
19.834	0.018	2341.979	2080.550
20.848	-0.002	2341.838	2079.895
21.863	0.090	2339.318	2078.687
22.877	-0.004	2337.071	2075.144
23.892	-0.084	2335.287	2072.194
24.907	-0.059	2333.572	2070.782
25.921	-0.024	2331.578	2069.241
26.936	0.063	2328.926	2067.846
27.950	0.053	2326.453	2065.256
28.965	0.014	2323.987	2062.285
29.980	0.072	2322.257	2061.299
30.994	0.129	2321.184	2060.896
32.009	5.846	2339.391	2155.954
33.023	18.058	2375.840	2359.724
34.038	23.030	2384.625	2437.245
35.053	23.351	2382.011	2438.730
36.067	23.229	2379.447	2434.123
37.082	23.031	2377.736	2429.345
38.096	23.058	2374.895	2426.518
39.111	23.083	2373.589	2425.241
40.126	23.084	2371.125	2422.447
41.140	23.247	2369.202	2422.442
42.155	23.210	2367.293	2419.684
43.169	23.167	2366.135	2417.625
44.184	23.179	2362.250	2413.532
45.199	23.111	2360.023	2410.039
46.213	23.242	2358.502	2409.984
47.228	23.180	2358.737	2409.094
48.242	23.077	2357.026	2405.643
49.257	23.134	2356.120	2405.207
50.271	23.376	2353.444	2405.495
51.286	23.712	2350.570	2406.847
52.301	23.571	2349.825	2403.876
53.315	23.920	2351.595	2410.152
54.330	25.467	2355.030	2434.463
55.344	26.474	2354.023	2446.827
56.359	26.743	2350.087	2446.102
57.374	26.668	2349.447	2444.127
58.388	26.664	2346.101	2440.293
59.403	26.498	2342.428	2433.931
60.417	26.194	2338.972	2425.946
61.432	26.309	2338.104	2426.317
62.447	26.387	2336.261	2425.156
63.461	26.419	2334.581	2423.560
64.476	26.625	2331.880	2423.233
65.490	26.645	2330.473	2421.750
66.505	26.099	2327.656	2411.203
67.520	25.136	2324.302	2394.515
68.534	24.685	2321.654	2385.457
69.549	24.266	2316.598	2374.363
70.563	24.108	2312.572	2367.842
71.578	24.031	2311.643	2365.581
72.593	24.182	2309.487	2365.111
73.607	23.974	2307.200	2359.716
74.622	24.141	2305.198	2359.607
75.636	24.321	2303.673	2360.159
76.651	24.283	2301.190	2356.824
77.666	24.321	2300.245	2356.075
78.680	24.071	2296.771	2348.923
79.695	23.658	2294.124	2340.469
80.709	23.383	2291.248	2333.612
81.724	23.162	2289.350	2328.477
82.739	23.555	2287.563	2331.574
83.753	24.306	2287.345	2340.986
84.768	24.235	2285.890	2338.282
85.782	24.232	2285.607	2337.672
86.797	24.179	2282.793	2333.810
87.812	23.956	2280.403	2328.159
88.826	24.162	2279.499	2329.666
89.841	24.332	2277.807	2329.891
90.855	24.462	2274.344	2327.775
91.870	24.382	2273.727	2325.816
92.884	24.351	2271.782	2323.148
93.899	24.090	2270.721	2318.361
94.914	24.293	2269.909	2319.908
95.928	24.930	2271.966	2330.068
96.943	25.327	2270.275	2333.240
97.957	24.615	2265.627	2318.899
98.972	23.897	2262.795	2306.373
99.987	24.097	2259.739	2305.581
101.001	24.253	2256.586	2304.117
102.016	24.465	2254.788	2304.758
103.030	24.063	2251.787	2296.201
104.045	23.825	2247.545	2288.524
105.060	23.879	2247.073	2288.474
106.074	24.139	2246.011	2290.475
107.089	23.870	2244.311	2284.993
108.103	23.594	2241.884	2278.685
109.118	23.870	2241.328	2281.404
110.133	23.986	2238.885	2280.143
111.147	24.086	2238.056	2280.311
112.162	24.125	2236.479	2278.935
113.176	24.082	2233.792	2275.377
114.191	23.700	2231.213	2267.576
115.206	23.716	2229.671	2265.934
116.220	24.117	2227.490	2268.588
117.235	24.089	2226.319	2266.761
118.249	23.910	2224.219	2262.066
119.264	23.787	2222.109	2258.083
120.279	23.712	2220.799	2255.521
121.293	23.868	2218.046	2254.440
122.308	23.808	2217.623	2252.981
123.322	23.754	2215.516	2249.879
124.337	23.625	2214.386	2246.818
125.352	24.676	2218.337	2263.948
126.366	25.496	2219.085	2274.880
127.381	24.918	2213.324	2261.362
128.395	24.466	2209.346	2251.299
129.410	24.083	2206.203	2242.982
130.424	24.219	2204.483	2242.686
131.439	24.500	2203.986	2245.457
132.454	24.470	2202.123	2242.914
133.468	24.670	2199.831	2242.838
134.483	24.492	2197.319	2237.763
135.497	24.251	2196.192	2233.318
136.512	24.294	2193.982	2231.340
137.527	24.538	2192.525	2232.651
138.541	24.483	2191.948	2231.114
139.556	24.640	2191.290	2232.140
140.570	24.602	2189.099	2229.173
141.585	24.196	2185.152	2219.803
142.600	23.915	2183.534	2214.375
143.614	23.946	2182.147	2213.090
144.629	23.915	2180.875	2211.143
145.643	23.755	2178.209	2206.184
146.658	23.618	2177.014	2203.004
147.673	23.573	2174.146	2199.273
148.687	23.580	2172.308	2197.233
149.702	23.637	2172.132	2197.511
150.716	24.042	2171.700	2201.841
151.731	24.242	2170.652	2203.001
152.746	23.988	2170.292	2199.216
153.760	24.350	2171.137	2204.313
154.775	25.201	2171.897	2215.381
155.789	25.685	2170.670	2219.875
156.804	25.075	2165.986	2207.267
157.819	24.261	2159.808	2190.663
158.833	23.904	2156.010	2182.135
159.848	23.768	2155.242	2179.429
160.862	23.961	2152.882	2179.151
161.877	24.151	2153.065	2181.417
162.892	24.333	2151.764	2182.075
163.906	24.297	2150.765	2180.361
164.921	24.217	2148.046	2176.356
165.935	23.864	2145.332	2169.022
166.950	23.821	2143.597	2166.478
167.964	24.033	2140.927	2166.122
168.979	23.823	2140.644	2162.999
169.994	23.978	2137.943	2161.914
171.008	23.917	2136.503	2159.447
172.023	23.766	2136.166	2157.003
173.037	24.000	2135.698	2159.129
174.052	23.981	2133.257	2156.170
175.067	23.889	2131.707	2153.227
176.081	23.899	2129.762	2151.133
177.096	24.199	2129.522	2154.270
178.110	24.345	2128.028	2154.282
179.125	24.236	2127.604	2152.266
180.140	24.318	2125.280	2150.648
181.154	24.135	2124.349	2147.234
182.169	24.136	2123.442	2146.071
183.183	24.701	2123.144	2152.358
184.198	25.636	2124.709	2165.004
185.213	25.856	2123.939	2166.612
186.227	24.846	2118.388	2148.512
187.242	24.225	2114.047	2136.370
188.256	23.953	2113.356	2132.144
189.271	24.354	2112.509	2135.862
190.286	24.071	2110.162	2129.827
191.300	23.966	2107.280	2125.402
192.315	24.146	2106.281	2126.296
193.329	24.257	2105.698	2126.784
194.344	24.257	2103.170	2123.983
195.359	24.237	2101.742	2122.047
196.373	24.360	2099.963	2121.467
197.388	24.098	2097.991	2116.094
198.402	24.117	2095.328	2113.382
199.417	24.289	2094.197	2114.040
200.432	24.266	2091.157	2110.438
201.446	24.047	2090.783	2107.210
202.461	24.146	2088.927	2106.261
203.475	24.148	2086.628	2103.715
204.490	23.960	2084.910	2099.500
205.504	23.953	2082.977	2097.219
206.519	23.898	2080.922	2094.242
207.534	23.953	2079.174	2092.885
208.548	24.193	2077.780	2094.073
209.563	23.811	2076.834	2088.358
210.577	24.135	2076.669	2091.764
211.592	24.552	2075.262	2095.013
212.607	24.531	2077.468	2096.739
213.621	25.342	2077.821	2106.417
214.636	25.416	2075.908	2105.093
215.650	25.235	2072.910	2099.670
216.665	25.072	2069.985	2094.545
217.680	24.368	2065.751	2081.760
218.694	24.135	2063.768	2076.773
219.709	24.011	2062.285	2073.582
220.723	23.875	2060.734	2070.190
221.738	24.120	2059.908	2071.976
222.753	24.384	2057.412	2072.291
223.767	24.378	2056.154	2070.712
224.782	24.262	2054.428	2067.378
225.796	24.255	2052.252	2064.859
226.811	24.153	2050.352	2061.510
227.826	24.021	2048.658	2058.027
228.840	23.685	2046.821	2052.035
229.855	23.930	2046.368	2054.174
230.869	24.075	2045.649	2054.890
231.884	24.379	2044.553	2057.065
232.899	24.503	2043.703	2057.407
233.913	24.390	2041.811	2053.943
234.928	24.158	2040.761	2049.961
235.942	23.811	2037.693	2042.622
236.957	23.764	2035.189	2039.325
237.972	23.871	2035.870	2041.001
238.986	23.890	2034.282	2039.385
240.001	23.668	2032.100	2034.389
241.015	23.839	2030.464	2034.485
242.030	24.559	2031.990	2044.048
243.045	25.491	2032.727	2055.268
244.059	25.842	2032.354	2058.672
245.074	25.192	2027.782	2046.342
246.088	24.636	2022.622	2034.531
247.103	24.350	2022.935	2031.328
248.117	24.841	2021.942	2035.710
249.132	24.854	2019.283	2032.936
250.147	24.501	2016.488	2025.847
251.161	24.098	2013.764	2018.278
252.176	24.294	2012.948	2019.458
253.190	24.243	2010.783	2016.466
254.205	24.247	2008.383	2013.857
255.220	24.037	2006.760	2009.602
256.234	23.636	2005.347	2003.402
257.249	23.586	2003.522	2000.773
258.263	23.682	2003.714	2001.813
259.278	23.753	2002.536	2001.199
260.293	23.763	2001.059	1999.596
261.307	24.015	1999.150	2000.302
262.322	24.232	1998.941	2002.303
263.336	23.970	1995.659	1995.815
264.351	23.869	1994.709	1993.491
265.366	24.148	1994.598	1996.285
266.380	24.220	1993.763	1996.018
267.395	24.311	1992.269	1995.312
268.409	24.556	1991.077	1996.632
269.424	24.373	1989.083	1992.338
270.439	24.202	1987.839	1988.935
271.453	25.085	1988.573	1999.338
272.468	25.769	1988.729	2006.920
273.482	25.517	1986.994	2002.106
274.497	24.866	1981.639	1989.206
275.512	24.533	1978.570	1982.175
276.526	24.395	1975.641	1977.465
277.541	24.010	1973.315	1970.618
278.555	23.889	1971.408	1967.125
279.570	23.911	1970.204	1965.931
280.585	23.920	1969.202	1964.799
281.599	23.949	1967.901	1963.590
282.614	24.071	1966.861	1963.669
283.628	24.309	1965.875	1965.082
284.643	24.235	1964.008	1962.163
285.657	23.770	1961.909	1954.695
286.672	23.885	1960.606	1954.432
287.687	23.606	1957.988	1948.508
288.701	23.511	1957.366	1946.605
289.716	23.411	1954.851	1942.775
290.730	23.034	1953.051	1936.605
291.745	23.720	1953.749	1944.612
292.760	24.035	1952.539	1946.638
293.774	23.792	1951.751	1942.950
294.789	23.909	1950.708	1942.961
295.803	24.142	1948.614	1943.197
296.818	24.087	1948.134	1941.888
297.833	24.441	1947.472	1944.873
298.847	24.280	1945.187	1940.594
299.862	23.995	1942.783	1934.849
300.876	24.253	1944.012	1938.666
301.891	25.508	1945.916	1954.056
302.906	25.765	1944.058	1954.757
303.920	24.632	1939.214	1937.316
304.935	24.259	1936.161	1929.976
305.949	24.111	1934.277	1926.254
306.964	24.204	1932.204	1924.969
307.979	23.778	1930.049	1917.970
308.993	23.203	1926.934	1908.421
310.008	22.377	1923.308	1895.664
311.022	22.135	1921.469	1891.002
312.037	22.228	1920.182	1890.520
313.052	22.105	1917.885	1886.700
314.066	21.971	1915.658	1882.839
315.081	22.183	1915.426	1884.670
316.095	22.183	1913.692	1882.743
317.110	21.845	1911.807	1877.025
318.125	21.738	1909.634	1873.515
319.139	21.713	1909.265	1872.661
320.154	22.050	1908.512	1875.321
321.168	22.092	1907.063	1874.120
322.183	23.092	1907.962	1885.501
323.197	24.063	1909.039	1896.748
324.212	24.178	1907.916	1896.636
325.227	23.914	1905.644	1891.325
326.241	24.222	1905.516	1894.265
327.256	24.407	1903.721	1894.221
328.270	24.077	1902.045	1888.811
329.285	23.915	1902.280	1887.091
330.300	24.286	1902.650	1891.191
331.314	25.313	1904.328	1903.583
332.329	25.627	1901.572	1903.946
333.343	24.680	1896.624	1888.707
334.358	24.021	1893.857	1878.736
335.373	24.116	1891.770	1877.446
336.387	24.262	1890.811	1877.813
337.402	24.528	1889.220	1878.825
338.416	24.643	1887.686	1878.295
339.431	24.549	1886.601	1875.992
340.446	24.309	1884.411	1871.064
341.460	23.838	1881.768	1863.251
342.475	23.517	1877.920	1855.848
343.489	22.686	1874.960	1843.968
344.504	22.117	1873.154	1835.996
345.519	22.119	1871.674	1834.341
346.533	21.969	1869.200	1830.124
347.548	22.079	1867.534	1829.429
348.562	22.238	1867.308	1830.658
349.577	22.303	1867.281	1831.089
350.592	22.598	1866.408	1833.098
351.606	22.468	1865.013	1830.155
352.621	22.135	1862.294	1823.792
353.635	21.901	1861.190	1820.049
354.650	22.633	1861.313	1827.580
355.665	23.466	1861.191	1835.919
356.679	23.836	1861.013	1839.375
357.694	23.987	1861.145	1840.854
358.708	24.312	1860.239	1843.114
359.723	24.585	1861.054	1846.533
360.738	25.687	1861.241	1857.941
361.752	25.623	1861.185	1856.996
362.767	25.322	1857.434	1849.923
363.781	24.841	1853.248	1840.554
364.796	24.276	1851.983	1833.244
365.810	24.269	1850.199	1831.187
366.825	24.273	1847.361	1828.198
367.840	23.011	1843.888	1811.550
368.854	21.965	1842.030	1798.743
369.869	22.064	1839.865	1797.425
370.883	22.443	1839.173	1800.428
371.898	22.595	1838.463	1801.081
372.913	22.484	1835.744	1797.069
373.927	22.214	1833.653	1792.037
374.942	22.246	1833.585	1792.086
375.956	22.652	1834.755	1797.176
376.971	22.961	1832.694	1798.100
377.986	23.052	1831.213	1797.364
379.000	23.059	1830.074	1796.103
380.015	23.065	1827.825	1793.735
381.029	23.672	1827.596	1799.483
382.044	23.912	1826.737	1800.873
383.059	23.853	1825.553	1798.887
384.073	24.152	1825.470	1801.630
385.088	24.423	1824.736	1803.438
386.102	24.211	1822.761	1799.127
387.117	23.773	1820.193	1791.928
388.132	23.786	1820.081	1791.736
389.146	24.353	1821.651	1798.822
390.161	25.424	1822.581	1810.382
391.175	25.702	1817.081	1807.508
392.190	24.483	1812.613	1790.558
393.205	24.243	1809.868	1785.218
394.219	23.815	1808.429	1779.279
395.234	23.661	1806.800	1775.913
396.248	23.788	1804.949	1775.164
397.263	23.687	1802.917	1771.934
398.278	23.910	1801.489	1772.558
399.292	23.820	1800.154	1770.128
400.307	23.590	1799.142	1766.621
401.321	23.472	1796.970	1763.096
402.336	23.747	1797.290	1765.949
403.350	23.873	1795.008	1764.749
404.365	23.625	1793.756	1760.838
405.380	23.141	1790.232	1752.353
406.394	22.212	1787.112	1739.854
407.409	21.975	1785.244	1735.469
408.423	22.006	1784.070	1734.431
409.438	21.969	1782.784	1732.606
410.453	22.033	1781.365	1731.655
411.467	22.255	1780.401	1732.703
412.482	22.261	1781.158	1733.297
413.496	23.521	1782.415	1746.794
414.511	24.128	1781.299	1751.487
415.526	24.032	1778.851	1747.923
416.540	23.922	1777.543	1745.347
417.555	23.997	1776.870	1745.213
418.569	24.359	1776.942	1748.646
419.584	24.292	1776.116	1746.960
420.599	24.538	1776.614	1749.666
421.613	24.895	1776.066	1752.432
422.628	24.483	1774.112	1746.246
423.642	23.986	1770.980	1738.077
424.657	23.826	1769.115	1734.468
425.672	24.089	1768.356	1736.093
426.686	23.798	1766.321	1731.039
427.701	23.191	1763.784	1722.412
428.715	23.462	1762.919	1724.003
429.730	23.828	1762.472	1726.935
430.745	24.165	1761.853	1729.411
431.759	24.372	1761.593	1730.970
432.774	24.483	1761.645	1731.896
433.788	24.080	1758.186	1724.362
434.803	23.151	1756.272	1713.246
435.818	23.036	1756.252	1711.899
436.832	23.135	1754.685	1711.133
437.847	22.466	1749.432	1699.315
438.861	14.069	1724.383	1594.181
439.876	2.947	1702.707	1467.606
440.890	0.270	1698.020	1437.738
441.905	0.120	1697.010	1435.265
442.920	0.062	1695.493	1433.259
443.934	0.053	1694.002	1431.745
444.949	0.053	1692.310	1430.140
445.963	0.001	1691.440	1428.739
446.978	-0.023	1691.722	1428.574
447.993	-0.005	1690.359	1427.428
449.007	-0.045	1687.351	1424.331
450.022	0.087	1685.006	1423.442
451.036	0.133	1684.057	1422.907
452.051	1.489	1690.576	1441.171
453.066	11.898	1715.237	1562.266
454.080	21.712	1729.906	1669.915
455.095	24.195	1734.575	1698.041
456.109	25.976	1738.038	1718.296
457.124	26.596	1737.632	1723.630
458.139	26.314	1736.208	1719.315
459.153	26.123	1734.821	1715.905
460.168	26.028	1733.423	1713.413
461.182	26.422	1731.997	1715.558
462.197	26.832	1731.467	1718.732
463.212	26.608	1729.570	1714.511
464.226	26.681	1728.275	1713.712
465.241	27.096	1727.988	1717.170
466.255	27.325	1727.511	1718.663
467.270	27.255	1726.229	1716.518
468.285	27.121	1724.822	1713.646
469.299	27.102	1723.874	1712.317
470.314	27.496	1721.991	1713.967
471.328	27.505	1720.886	1712.749
472.343	27.470	1720.605	1711.935
473.358	27.510	1719.269	1710.774
474.372	27.593	1717.801	1709.892
475.387	27.576	1716.522	1708.259
476.401	27.450	1714.485	1704.839
477.416	27.156	1713.230	1700.621
478.430	27.396	1712.438	1701.892
479.445	27.259	1710.506	1698.482
480.460	27.051	1708.442	1694.280
481.474	27.295	1708.002	1695.921
482.489	27.805	1707.677	1700.173
483.503	27.991	1706.206	1700.247
484.518	27.745	1704.951	1696.494
485.533	27.778	1704.266	1695.919
486.547	27.881	1701.869	1694.285
487.562	27.989	1700.784	1694.013
488.576	28.024	1700.185	1693.535
489.591	28.078	1698.862	1692.524
490.606	28.060	1696.828	1690.125
491.620	27.921	1695.581	1687.387
492.635	28.276	1694.573	1689.475
493.649	28.149	1692.666	1686.201
494.664	27.569	1690.996	1678.966
495.679	27.046	1688.677	1671.623
496.693	27.330	1687.127	1672.509
497.708	27.674	1687.026	1675.390
498.722	28.150	1686.726	1679.285
499.737	28.204	1686.038	1678.899
500.752	28.003	1683.755	1674.571
501.766	27.839	1682.728	1671.841
502.781	27.990	1681.098	1671.413
503.795	27.922	1679.379	1668.876
504.810	27.819	1678.376	1666.731
505.825	28.051	1676.974	1667.268
506.839	27.792	1676.028	1663.752
507.854	27.666	1674.149	1660.540
508.868	27.751	1672.185	1659.168
509.883	27.486	1671.030	1655.400
510.898	27.552	1669.380	1654.170
511.912	27.173	1667.380	1648.540
512.927	26.641	1664.676	1640.825
513.941	26.256	1664.042	1636.501
514.956	26.472	1663.104	1637.341
515.971	26.886	1661.849	1639.674
516.985	26.942	1659.979	1638.145
518.000	26.619	1659.372	1634.415
519.014	26.586	1658.867	1633.428
520.029	26.708	1656.979	1632.476
521.043	26.796	1655.219	1631.346
522.058	26.982	1654.549	1632.172
523.073	27.137	1654.980	1633.795
524.087	27.576	1654.468	1637.065
525.102	27.700	1653.460	1636.987
526.116	27.512	1651.916	1633.571
527.131	27.541	1651.072	1632.800
528.146	28.249	1650.217	1638.128
529.160	28.342	1649.712	1638.271
530.175	28.529	1648.737	1638.786
531.189	28.576	1648.510	1638.786
532.204	28.755	1646.212	1637.905
533.219	28.276	1644.498	1631.716
534.233	27.821	1643.147	1626.111
535.248	27.752	1642.488	1624.641
536.262	28.283	1642.091	1628.801
537.277	28.480	1641.539	1629.824
538.292	28.496	1639.003	1627.256
539.306	28.609	1636.752	1625.826
540.321	28.289	1635.496	1621.539
541.335	27.882	1634.442	1616.684
542.350	28.270	1633.130	1618.638
543.365	28.612	1632.656	1621.012
544.379	28.851	1630.940	1621.229
545.394	28.795	1630.041	1619.652
546.408	28.412	1627.011	1613.060
547.423	27.876	1625.628	1606.752
548.438	27.823	1624.969	1605.438
549.452	28.345	1623.761	1608.664
550.467	28.311	1622.771	1607.192
551.481	28.275	1622.203	1606.123
552.496	28.443	1621.982	1607.191
553.511	28.780	1621.174	1609.166
554.525	28.748	1619.959	1607.486
555.540	28.735	1618.721	1605.949
556.554	28.705	1617.626	1604.408
557.569	28.567	1615.602	1600.992
558.583	28.114	1613.693	1594.944
559.598	28.105	1612.435	1593.433
560.613	28.159	1611.507	1592.793
561.627	28.295	1609.781	1592.083
562.642	28.088	1608.450	1588.772
563.656	27.984	1606.557	1585.801
564.671	27.892	1605.168	1583.446
565.686	27.645	1603.446	1579.407
566.700	27.361	1601.849	1575.169
567.715	27.254	1600.301	1572.531
568.729	27.060	1598.572	1568.957
569.744	27.214	1597.305	1568.862
570.759	27.286	1597.167	1569.165
571.773	27.245	1595.989	1567.469
572.788	27.293	1595.106	1566.827
573.802	27.354	1592.625	1564.728
574.817	27.377	1591.632	1563.766
575.832	27.773	1591.280	1566.649
576.846	28.117	1590.580	1568.738
577.861	28.354	1589.953	1569.971
578.875	28.373	1589.872	1569.874
579.890	28.631	1589.136	1571.178
580.905	28.874	1588.835	1572.783
581.919	29.073	1588.164	1573.633
582.934	29.135	1587.245	1573.071
583.948	29.087	1585.748	1570.983
584.963	28.957	1583.477	1567.438
585.978	28.595	1581.322	1562.015
586.992	28.381	1581.077	1559.755
588.007	28.817	1580.033	1562.270
589.021	28.173	1577.769	1554.348
590.036	27.347	1575.094	1544.480
591.051	27.998	1575.310	1550.059
592.065	28.767	1574.608	1555.735
593.080	29.013	1573.999	1557.037
594.094	29.127	1572.242	1556.081
595.109	28.559	1569.347	1548.213
596.123	28.394	1568.333	1545.627
597.138	28.738	1568.080	1548.112
598.153	28.802	1567.383	1547.777
599.167	28.636	1565.107	1543.939
600.182	28.611	1564.460	1542.905
601.196	28.864	1563.179	1543.592
602.211	28.954	1562.380	1543.378
603.226	28.919	1561.313	1541.845
604.240	29.040	1560.715	1542.091
605.255	29.215	1559.961	1542.633
606.269	29.119	1559.172	1540.863
607.284	28.948	1557.618	1537.709
608.299	28.999	1555.490	1535.846
609.313	28.812	1553.154	1531.788
610.328	28.636	1552.180	1529.171
611.342	28.695	1550.718	1528.044
612.357	28.921	1550.215	1529.253
613.372	28.783	1548.937	1526.658
614.386	28.595	1547.403	1523.394
615.401	28.551	1547.089	1522.533
616.415	28.489	1546.409	1521.170
617.430	28.204	1544.721	1516.950
618.445	28.150	1542.716	1514.350
619.459	27.955	1541.778	1511.626
620.474	27.698	1539.928	1507.502
621.488	27.544	1538.924	1505.054
622.503	27.593	1537.844	1504.226
623.518	27.717	1536.619	1503.873
624.532	27.877	1535.325	1503.753
625.547	28.008	1534.009	1503.368
626.561	28.010	1534.056	1503.254
627.576	28.176	1533.570	1503.966
628.591	28.062	1530.993	1500.318
629.605	27.812	1529.918	1497.023
630.620	28.138	1528.705	1498.345
631.634	28.004	1528.013	1496.384
632.649	28.142	1527.368	1496.704
633.663	28.187	1525.750	1495.316
634.678	28.094	1524.755	1493.397
635.693	28.188	1523.612	1492.870
636.707	28.266	1521.817	1491.570
637.722	28.403	1520.528	1491.246
638.736	28.746	1520.280	1493.628
639.751	29.058	1520.123	1495.850
640.766	28.926	1518.817	1493.308
641.780	29.066	1517.229	1492.705
642.795	29.048	1516.497	1491.660
643.809	29.081	1516.480	1491.735
644.824	29.446	1514.903	1492.976
645.839	29.434	1514.700	1492.495
646.853	29.460	1513.285	1491.136
647.868	29.229	1511.446	1487.273
648.882	29.166	1509.833	1484.991
649.897	29.151	1508.438	1483.324
650.912	29.051	1506.949	1480.872
651.926	29.216	1505.734	1480.837
652.941	29.080	1504.614	1478.455
653.955	28.530	1502.226	1471.499
654.970	27.845	1499.059	1462.706
655.985	27.620	1497.354	1459.063
656.999	27.478	1496.200	1456.620
658.014	27.927	1496.064	1459.924
659.028	28.480	1496.370	1464.484
660.043	28.942	1496.465	1468.111
661.058	29.030	1495.594	1467.785
662.072	29.209	1494.474	1467.943
663.087	28.811	1494.038	1464.153
664.101	28.816	1492.477	1462.489
665.116	29.056	1491.132	1462.913
666.131	29.176	1490.428	1463.007
667.145	29.220	1489.205	1461.983
668.160	29.399	1487.946	1461.996
669.174	29.390	1486.364	1460.197
670.189	29.369	1485.495	1459.002
671.204	29.426	1484.843	1458.635
672.218	29.250	1484.678	1456.905
673.233	29.538	1483.003	1457.373
674.247	29.614	1482.197	1457.006
675.262	29.526	1480.816	1454.777
676.276	29.524	1479.360	1453.159
677.291	29.321	1478.872	1450.900
678.306	29.379	1477.392	1449.733
679.320	29.165	1475.695	1446.206
680.335	29.172	1474.825	1445.237
681.349	29.377	1474.234	1446.094
682.364	29.255	1472.897	1443.655
683.379	29.110	1471.052	1440.533
684.393	28.806	1469.834	1436.773
685.408	28.949	1468.720	1436.637
686.422	28.780	1467.473	1433.921
687.437	28.625	1466.748	1431.823
688.452	28.458	1465.870	1429.487
689.466	28.400	1464.117	1427.157
690.481	28.358	1462.249	1424.837
691.495	28.326	1461.684	1423.864
692.510	28.488	1460.720	1424.021
693.525	28.344	1458.876	1420.930
694.539	28.296	1457.812	1419.349
695.554	28.318	1457.910	1419.441
696.568	28.399	1456.330	1418.365
697.583	28.326	1455.962	1417.269
698.598	28.652	1455.525	1419.212
699.612	29.026	1454.551	1420.994
700.627	29.059	1452.617	1419.188
701.641	29.292	1451.972	1420.193
702.656	29.201	1451.337	1418.698
703.671	29.522	1451.149	1420.825
704.685	29.428	1451.167	1419.951
705.700	29.473	1449.366	1418.362
706.714	29.272	1446.769	1414.101
707.729	28.914	1446.029	1410.451
708.744	28.959	1444.626	1409.261
709.758	29.022	1442.165	1407.178
710.773	28.214	1440.605	1399.279
711.787	28.066	1439.108	1396.516
712.802	28.542	1438.974	1399.874
713.816	28.891	1438.555	1401.972
714.831	29.146	1437.720	1402.946
715.846	29.246	1436.305	1402.162
716.860	29.330	1435.260	1401.617
717.875	29.295	1433.929	1399.884
718.889	29.174	1433.138	1398.020
719.904	29.183	1431.911	1396.728
720.919	29.189	1430.949	1395.662
721.933	29.187	1430.171	1394.723
722.948	29.057	1429.112	1392.536
723.962	29.014	1427.940	1390.900
724.977	29.198	1426.918	1391.137
725.992	29.370	1426.308	1391.676
727.006	29.584	1425.118	1391.970
728.021	29.539	1423.145	1389.533
729.035	29.676	1421.959	1389.245
730.050	29.613	1420.939	1387.609
731.065	29.561	1420.095	1386.227
732.079	29.365	1419.372	1383.877
733.094	29.478	1418.375	1383.589
734.108	29.468	1416.377	1381.401
735.123	29.445	1415.618	1380.326
736.138	29.220	1414.853	1377.721
737.152	29.280	1413.116	1376.313
738.167	29.351	1411.979	1375.577
739.181	29.572	1411.021	1376.131
740.196	29.491	1410.631	1374.982
741.211	29.384	1409.980	1373.378
742.225	29.200	1408.291	1370.196
743.240	29.133	1406.851	1368.135
744.254	29.194	1405.063	1366.684
745.269	28.843	1404.071	1362.938
746.284	28.522	1403.689	1360.013
747.298	28.628	1401.570	1358.584
748.313	28.417	1400.326	1355.651
749.327	28.396	1400.150	1355.163
750.342	28.436	1399.180	1354.357
751.356	28.534	1397.367	1353.169
752.371	28.527	1396.657	1352.266
753.386	28.478	1396.402	1351.491
754.400	29.009	1395.862	1354.737
755.415	29.384	1395.165	1356.671
756.429	29.457	1394.404	1356.314
757.444	29.520	1392.988	1355.238
758.459	29.462	1391.627	1353.320
759.473	29.439	1390.695	1352.084
760.488	29.281	1389.118	1349.228
761.502	29.059	1387.692	1346.046
762.517	29.092	1387.154	1345.609
763.532	29.236	1385.465	1344.868
764.546	29.140	1383.734	1342.317
765.561	28.470	1381.919	1335.493
766.575	27.682	1379.861	1327.583
767.590	27.562	1379.787	1326.474
768.605	28.521	1379.277	1332.835
769.619	28.995	1378.758	1335.633
770.634	29.173	1377.586	1335.639
771.648	29.128	1376.558	1334.156
772.663	29.131	1375.802	1333.284
773.678	29.280	1375.444	1333.858
774.692	29.530	1374.928	1335.013
775.707	29.415	1374.949	1334.041
776.721	29.537	1373.763	1333.615
777.736	29.434	1371.917	1330.919
778.751	29.484	1370.904	1330.136
779.765	29.617	1369.843	1329.913
780.780	29.542	1369.813	1329.178
781.794	29.383	1368.660	1326.752
782.809	28.983	1367.144	1322.238
783.824	28.477	1365.645	1316.978
784.838	28.471	1363.226	1314.445
785.853	28.557	1361.921	1313.644
786.867	28.535	1361.980	1313.385
787.882	28.460	1361.742	1312.460
788.897	28.398	1360.797	1310.948
789.911	28.509	1359.411	1310.249
790.926	28.687	1357.878	1309.892
791.940	28.686	1357.158	1309.034
792.955	28.913	1355.546	1308.946
793.969	29.027	1354.866	1308.947
794.984	29.099	1354.364	1308.825
795.999	29.198	1353.796	1308.822
797.013	29.407	1352.228	1308.646
798.028	29.348	1351.477	1307.340
799.042	29.420	1350.015	1306.283
800.057	29.578	1348.994	1306.260
801.072	29.411	1347.564	1303.535
802.086	29.361	1346.609	1302.097
803.101	29.392	1345.638	1301.222
804.115	29.280	1345.436	1300.079
805.130	29.221	1344.404	1298.507
806.145	29.197	1342.541	1296.381
807.159	29.202	1340.571	1294.362
808.174	29.291	1339.840	1294.127
809.188	29.256	1338.730	1292.654
810.203	28.849	1337.412	1288.357
811.218	28.617	1335.084	1284.332
812.232	28.140	1332.925	1278.749
813.247	27.889	1331.283	1275.263
814.261	28.479	1332.176	1280.107
815.276	28.983	1331.995	1283.314
816.291	28.940	1331.426	1282.312
817.305	28.917	1329.497	1280.136
818.320	29.151	1329.104	1281.242
819.334	29.198	1328.102	1280.451
820.349	29.331	1326.703	1279.875
821.364	29.352	1325.757	1278.957
822.378	29.374	1324.517	1277.758
823.393	29.247	1322.238	1274.530
824.407	29.232	1321.125	1273.195
825.422	29.193	1320.820	1272.482
826.437	29.017	1319.368	1269.711
827.451	28.853	1316.762	1265.914
828.466	28.453	1315.802	1262.070
829.480	28.541	1313.835	1260.640
830.495	28.582	1312.180	1259.183
831.509	28.612	1311.740	1258.819
832.524	28.779	1311.262	1259.365
833.539	29.106	1310.694	1260.914
834.553	29.207	1309.780	1260.583
835.568	29.250	1308.791	1259.774
836.582	29.237	1307.608	1258.396
837.597	29.362	1306.229	1257.778
838.612	29.257	1304.287	1255.037
839.626	28.933	1303.246	1251.669
840.641	28.777	1302.371	1249.608
841.655	28.557	1301.430	1247.054
842.670	28.080	1298.746	1241.084
843.685	27.485	1297.277	1235.472
844.699	28.143	1297.178	1239.716
845.714	28.680	1296.876	1242.937
846.728	28.705	1295.701	1241.831
847.743	28.767	1295.224	1241.642
848.758	28.932	1294.436	1241.859
849.772	29.136	1293.415	1242.113
850.787	29.175	1291.823	1240.701
851.801	29.246	1290.893	1240.141
852.816	29.120	1289.753	1238.044
853.831	28.991	1287.573	1234.936
854.845	29.008	1285.803	1233.203
855.860	28.676	1284.504	1229.574
856.874	28.458	1283.491	1226.992
857.889	28.425	1281.949	1225.146
858.904	28.640	1280.261	1224.831
859.918	28.566	1279.089	1223.070
860.933	28.479	1278.293	1221.578
861.947	28.641	1277.266	1221.536
862.962	28.610	1275.725	1219.707
863.977	28.554	1274.437	1217.953
864.991	28.664	1273.876	1218.006
866.006	28.385	1274.654	1216.746
867.020	28.768	1272.991	1217.561
868.035	29.043	1271.572	1217.886
869.049	29.071	1271.551	1217.910
870.064	29.233	1270.464	1217.796
871.079	29.165	1269.598	1216.372
872.093	29.011	1268.066	1213.739
873.108	28.894	1266.484	1211.301
874.122	28.665	1265.498	1208.697
875.137	28.241	1264.849	1205.128
876.152	28.175	1263.684	1203.443
877.166	28.155	1262.119	1201.670
878.181	28.397	1261.169	1202.217
879.195	28.668	1260.469	1203.195
880.210	28.770	1259.802	1203.086
881.225	29.031	1259.176	1204.062
882.239	28.845	1259.008	1202.536
883.254	29.059	1257.142	1202.014
884.268	29.089	1256.370	1201.325
885.283	29.034	1255.167	1199.673
886.298	28.957	1254.528	1198.411
887.312	28.925	1253.449	1197.032
888.327	29.124	1251.562	1196.382
889.341	28.997	1250.355	1194.261
890.356	28.771	1249.694	1192.009
891.371	28.774	1249.143	1191.362
892.385	28.608	1248.466	1189.495
893.400	28.580	1247.151	1187.912
894.414	28.526	1246.077	1186.398
895.429	28.602	1244.225	1184.986
896.444	28.437	1242.637	1182.266
897.458	28.570	1241.029	1181.451
898.473	28.498	1240.633	1180.470
899.487	28.445	1239.733	1179.130
900.502	28.432	1239.030	1178.234
901.517	28.626	1237.881	1178.251
902.531	28.678	1237.081	1177.683
903.546	28.820	1236.775	1178.170
904.560	29.076	1235.557	1178.512
905.575	29.027	1234.776	1177.312
906.589	29.089	1233.658	1176.504
907.604	28.637	1233.258	1173.077
