DTS Sentinel unit serial number:	SN409020Multiplexer serial number:	ORYXHardware model number:	OX4-SRSoftware version number:	ORYX F/W v3.00 Oryx Data Collector v3.7.2.0data status	okinstallation	HaddamTimeLapsedifferential loss correction	single-endedforward channel	channel 3reverse channel	N/Adate	2011/06/22time	03:51:17forward acquisition time	30.00reverse acquisition time	0.00gamma	498.7831k internal	0.1751k external	0.1751temperature offset calibration	1.0074default loss term (dB/km)	0.3790temperature slope calibration	1.3530multiplexer offset coefficient	1.0000multiplexer slope coefficient	1.0000fibre end	0.00T internal ref (°C)	22.44T ext. ref 1 (°C)	18.05T ext. ref 2 (°C)	0.09length (m)	temperature (°C)	Stokes	anti-Stokes-747.200	593.967	-0.068	-0.224
-746.185	800.000	0.121	0.585
-745.171	-86.166	-0.200	0.081
-744.156	800.000	-0.118	0.584
-743.142	166.274	-0.105	0.199
-742.127	14.640	-0.278	0.288
-741.112	-65.015	-0.280	0.149
-740.098	430.709	-0.193	0.558
-739.083	-65.384	-0.151	0.080
-738.069	-200.000	0.001	0.483
-737.054	-39.270	0.226	-0.157
-736.039	-48.999	0.066	-0.042
-735.025	-98.147	0.461	-0.157
-734.010	-44.562	-0.114	0.075
-732.996	-73.793	-0.259	-0.124
-731.981	-31.751	-0.337	0.250
-730.966	99.140	-0.181	-0.278
-729.952	-44.564	0.369	-0.244
-728.937	70.953	-0.131	-0.181
-727.923	-139.115	0.104	0.015
-726.908	-53.122	-0.269	0.164
-725.894	349.017	0.157	0.414
-724.879	-122.279	-0.446	0.096
-723.864	-200.000	-0.019	-0.252
-722.850	43.003	-0.093	0.113
-721.835	443.517	0.179	-0.525
-720.821	48.763	-0.132	0.165
-719.806	48.699	0.074	-0.092
-718.791	-80.238	-0.216	-0.096
-717.777	1.234	0.221	-0.210
-716.762	-122.193	-0.131	-0.028
-715.748	-93.107	0.445	-0.164
-714.733	-128.096	-0.422	0.079
-713.718	-17.766	-0.220	0.183
-712.704	-200.000	-0.036	-0.713
-711.689	-200.000	-0.036	-0.241
-710.675	-24.227	-0.446	-0.352
-709.660	-101.497	-0.137	0.044
-708.645	800.000	0.073	0.375
-707.631	-200.000	-0.059	-0.365
-706.616	-54.659	0.357	0.214
-705.602	-44.569	0.268	0.177
-704.587	22.619	0.161	-0.175
-703.572	800.000	0.153	-0.628
-702.558	-16.699	0.231	-0.194
-701.543	178.403	-0.151	0.293
-700.529	800.000	-0.093	-0.348
-699.514	-103.799	0.331	-0.102
-698.499	800.000	-0.037	0.139
-697.485	-56.782	0.058	-0.034
-696.470	800.000	0.070	-0.323
-695.456	94.410	-0.116	-0.175
-694.441	-200.000	0.428	-0.001
-693.426	-90.555	0.126	-0.048
-692.412	-200.000	-0.030	0.568
-691.397	-200.000	-0.010	0.442
-690.383	-110.448	0.444	0.121
-689.368	-144.136	-0.062	0.008
-688.354	201.104	-0.199	-0.406
-687.339	-24.157	-0.374	0.295
-686.324	9.960	-0.470	-0.473
-685.310	139.805	0.115	-0.201
-684.295	-200.000	-0.032	-0.344
-683.281	-138.837	0.659	-0.094
-682.266	-105.784	-0.160	0.048
-681.251	-129.535	0.329	0.060
-680.237	166.542	0.084	-0.158
-679.222	-85.586	0.281	-0.115
-678.208	800.000	0.015	-0.057
-677.193	-145.236	-0.732	0.087
-676.178	10.133	-0.312	0.314
-675.164	-123.425	-0.222	-0.046
-674.149	172.602	0.080	0.153
-673.135	331.450	0.034	0.087
-672.120	-87.246	-0.315	-0.126
-671.105	-44.553	0.652	-0.431
-670.091	73.174	-0.440	-0.610
-669.076	800.000	0.035	-0.171
-668.062	-200.000	-0.013	-0.125
-667.047	-159.272	-0.588	-0.043
-666.032	800.000	-0.036	-0.201
-665.018	-45.972	0.287	-0.187
-664.003	181.822	0.172	0.336
-662.989	-200.000	-0.040	0.357
-661.974	-22.381	0.158	-0.127
-660.959	-148.904	-0.183	0.019
-659.945	-55.600	-0.348	0.205
-658.930	128.784	-0.139	-0.235
-657.916	28.720	0.316	0.355
-656.901	56.117	0.073	-0.094
-655.886	-92.409	0.430	0.159
-654.872	57.791	0.111	-0.144
-653.857	-41.528	-0.275	-0.187
-652.843	-40.525	0.459	0.315
-651.828	54.534	0.230	0.294
-650.814	-41.870	0.312	-0.211
-649.799	-67.728	-0.214	-0.111
-648.784	-66.014	0.321	-0.169
-647.770	146.151	-0.065	-0.115
-646.755	-80.100	-0.275	0.122
-645.741	-121.547	-0.195	0.043
-644.726	-200.000	-0.005	0.245
-643.711	-77.243	0.617	-0.283
-642.697	143.094	-0.112	-0.197
-641.682	-9.036	0.232	-0.205
-640.668	106.475	0.091	-0.144
-639.653	-18.075	-0.211	0.175
-638.638	29.451	0.160	-0.180
-637.624	265.217	-0.096	-0.223
-636.609	-200.000	-0.085	0.595
-635.595	119.769	-0.040	0.066
-634.580	-177.434	-0.156	0.005
-633.565	-94.382	-0.240	0.086
-632.551	-200.000	0.035	0.265
-631.536	-41.798	-0.196	-0.133
-630.522	800.000	0.086	0.317
-629.507	-11.837	0.137	-0.119
-628.492	-176.270	-0.285	-0.010
-627.478	732.242	-0.198	0.706
-626.463	-200.000	-0.016	-0.304
-625.449	197.607	0.193	-0.390
-624.434	-133.532	0.304	-0.050
-623.419	-151.211	-0.393	0.038
-622.405	216.816	-0.150	0.316
-621.390	-77.202	0.492	-0.226
-620.376	129.225	-0.117	0.199
-619.361	740.455	0.095	0.340
-618.346	-85.146	-0.250	0.103
-617.332	158.962	0.138	0.254
-616.317	29.616	-0.143	-0.161
-615.303	-69.553	0.174	0.088
-614.288	-108.607	-0.468	0.132
-613.273	800.000	0.068	-0.320
-612.259	71.461	-0.163	-0.224
-611.244	-114.702	-0.130	0.033
-610.230	-93.303	-0.515	-0.188
-609.215	-200.000	0.086	-0.640
-608.201	-156.293	-0.283	0.023
-607.186	800.000	-0.041	0.218
-606.171	39.137	0.271	0.320
-605.157	-200.000	-0.024	0.295
-604.142	-99.897	0.166	0.055
-603.128	168.967	-0.160	-0.302
-602.113	-200.000	-0.009	-0.058
-601.098	-120.361	0.230	-0.051
-600.084	508.983	-0.122	-0.377
-599.069	-73.874	0.379	-0.181
-598.055	-77.161	0.185	0.085
-597.040	-112.632	-0.316	0.082
-596.025	108.836	0.072	0.114
-595.011	80.441	0.040	-0.057
-593.996	-32.507	-0.287	-0.211
-592.982	-101.172	-0.721	0.231
-591.967	-98.494	0.318	0.107
-590.952	15.272	0.312	-0.323
-589.938	-86.836	-0.274	-0.110
-588.923	-117.313	0.382	-0.091
-587.909	800.000	-0.056	0.290
-586.894	70.589	0.200	0.273
-585.879	77.685	-0.123	-0.173
-584.865	-148.809	-0.428	-0.045
-583.850	686.397	-0.112	-0.388
-582.836	800.000	0.099	-0.414
-581.821	-110.796	0.337	-0.091
-580.806	-121.506	0.408	0.089
-579.792	-101.238	-0.124	-0.040
-578.777	87.921	0.067	0.099
-577.763	-200.000	0.003	0.245
-576.748	-200.000	0.038	0.225
-575.733	-81.312	-0.486	0.211
-574.719	-136.310	-0.337	0.051
-573.704	-136.528	-0.699	0.106
-572.690	-172.881	-0.632	-0.025
-571.675	-142.112	0.505	-0.066
-570.661	-200.000	-0.032	0.195
-569.646	-164.980	-0.399	0.023
-568.631	-38.271	-0.470	0.328
-567.617	800.000	-0.076	-0.322
-566.602	-142.722	-0.169	0.021
-565.588	-0.301	0.106	0.099
-564.573	4.283	0.205	0.198
-563.558	-96.276	0.218	0.076
-562.544	-169.955	-0.612	0.028
-561.529	-156.364	-0.254	-0.021
-560.515	522.520	-0.192	-0.598
-559.500	-59.121	0.146	-0.083
-558.485	800.000	-0.118	-0.582
-557.471	-200.000	-0.042	0.336
-556.456	20.460	-0.319	0.340
-555.442	136.599	0.178	-0.308
-554.427	-90.674	0.236	0.089
-553.412	-72.012	-0.246	-0.120
-552.398	-147.491	-0.308	-0.034
-551.383	-77.497	0.383	0.174
-550.369	8.242	0.512	0.507
-549.354	-96.223	-0.332	-0.115
-548.339	-200.000	0.004	0.369
-547.325	-200.000	-0.049	-0.376
-546.310	242.678	-0.068	-0.151
-545.296	6.688	0.213	-0.209
-544.281	-162.645	0.453	-0.029
-543.266	108.137	-0.159	0.251
-542.252	15.515	-0.424	0.439
-541.237	-113.199	-0.139	-0.036
-540.223	-156.935	0.169	-0.013
-539.208	92.944	0.298	0.445
-538.193	31.952	0.044	0.050
-537.179	-172.228	0.290	0.012
-536.164	-152.720	0.510	-0.047
-535.150	-139.276	-0.260	0.036
-534.135	301.218	0.231	0.564
-533.121	-84.043	0.384	0.160
-532.106	-200.000	0.019	-0.347
-531.091	-83.588	0.340	-0.143
-530.077	125.188	-0.376	0.626
-529.062	-200.000	0.022	-0.516
-528.048	-76.039	0.271	0.126
-527.033	-121.113	-0.082	0.018
-526.018	-104.838	0.071	-0.021
-525.004	254.639	-0.139	0.315
-523.989	-18.737	0.314	0.257
-522.975	-200.000	-0.287	-0.001
-521.960	104.655	-0.133	-0.206
-520.945	-200.000	0.087	0.534
-519.931	68.438	-0.383	0.518
-518.916	-91.468	0.293	-0.109
-517.902	800.000	0.037	-0.144
-516.887	353.596	-0.132	-0.347
-515.872	-3.816	-0.379	-0.346
-514.858	-103.859	0.224	0.068
-513.843	6.091	0.167	-0.163
-512.829	-10.498	-0.238	-0.207
-511.814	-0.266	0.444	0.415
-510.799	-80.573	0.141	-0.062
-509.785	-127.664	0.454	-0.086
-508.770	-163.393	0.273	0.017
-507.756	-177.639	0.156	-0.005
-506.741	52.183	-0.250	0.314
-505.726	274.865	-0.070	-0.164
-504.712	-123.990	-0.277	-0.057
-503.697	-200.000	-0.022	-0.276
-502.683	-145.050	-0.242	0.029
-501.668	47.990	0.056	-0.068
-500.653	-32.285	0.289	-0.212
-499.639	-9.632	-0.199	0.174
-498.624	127.465	0.187	0.312
-497.610	800.000	0.054	0.202
-496.595	-200.000	-0.002	-0.168
-495.581	35.648	0.095	0.110
-494.566	-200.000	-0.043	0.443
-493.551	-70.875	0.206	-0.102
-492.537	-18.322	0.422	-0.347
-491.522	800.000	0.077	0.360
-490.508	-196.233	0.273	-0.002
-489.493	800.000	-0.050	0.284
-488.478	800.000	0.070	-0.295
-487.464	104.740	0.079	-0.122
-486.449	-22.921	-0.261	-0.207
-485.435	-4.211	-0.118	0.107
-484.420	-37.994	0.328	-0.229
-483.405	-62.862	0.403	-0.219
-482.391	800.000	0.028	0.144
-481.376	-123.153	-0.073	0.015
-480.362	58.742	0.392	0.507
-479.347	174.336	-0.129	0.245
-478.332	-200.000	0.030	0.251
-477.318	126.519	-0.167	0.279
-476.303	-106.616	-0.476	-0.138
-475.289	-112.836	-0.201	-0.052
-474.274	800.000	0.058	-0.255
-473.259	-66.849	0.281	-0.146
-472.245	-68.573	-0.141	0.071
-471.230	800.000	-0.121	-0.626
-470.216	243.539	-0.172	-0.380
-469.201	-79.492	0.353	-0.156
-468.186	-104.783	0.190	-0.057
-467.172	-105.842	0.096	0.028
-466.157	-27.009	0.203	0.156
-465.143	-121.752	-0.425	0.091
-464.128	-200.000	0.050	0.488
-463.113	114.567	-0.132	-0.212
-462.099	160.422	0.138	0.254
-461.084	5.708	-0.065	0.063
-460.070	617.917	-0.064	-0.214
-459.055	79.407	-0.414	-0.584
-458.040	-127.173	0.531	0.101
-457.026	-58.956	0.445	-0.252
-456.011	-56.241	0.224	0.130
-454.997	-92.953	0.132	-0.048
-453.982	70.971	0.116	-0.159
-452.968	120.389	0.231	-0.378
-451.953	-128.780	0.202	0.037
-450.938	-37.884	0.250	0.174
-449.924	-138.161	0.218	-0.031
-448.909	800.000	-0.095	-0.382
-447.895	-99.809	-0.106	-0.035
-446.880	184.151	0.358	0.697
-445.865	800.000	0.103	-0.406
-444.851	-82.689	0.528	-0.223
-443.836	134.603	0.207	-0.354
-442.822	6.312	-0.108	-0.105
-441.807	-31.308	-0.179	-0.132
-440.792	-146.410	0.182	0.021
-439.778	28.322	0.291	0.323
-438.763	-84.422	0.068	-0.028
-437.749	-200.000	0.073	0.466
-436.734	234.407	0.184	0.400
-435.719	154.428	0.177	-0.319
-434.705	3.490	-0.196	0.187
-433.690	-133.696	0.209	0.034
-432.676	-200.000	-0.002	0.321
-431.661	64.395	0.388	0.513
-430.646	-200.000	0.053	0.458
-429.632	-200.000	0.008	-0.309
-428.617	-200.000	0.102	-0.764
-427.603	-63.809	-0.249	0.133
-426.588	-148.997	0.328	-0.034
-425.573	-25.823	0.160	0.123
-424.559	800.000	-0.055	0.246
-423.544	-146.620	-0.315	0.035
-422.530	-79.301	0.105	-0.047
-421.515	-137.902	0.218	-0.032
-420.500	296.831	0.138	0.333
-419.486	-71.177	0.305	0.149
-418.471	5.232	0.225	-0.217
-417.457	26.017	0.230	0.252
-416.442	800.000	0.037	0.201
-415.428	392.815	0.120	-0.329
-414.413	-63.261	-0.074	-0.040
-413.398	-162.753	-0.406	-0.026
-412.384	-147.269	-0.420	0.046
-411.369	-200.000	-0.043	-0.507
-410.355	800.000	-0.010	0.048
-409.340	-119.948	0.368	-0.082
-408.325	-95.002	-0.265	-0.093
-407.311	-64.166	-0.359	-0.191
-406.296	103.396	-0.080	-0.124
-405.282	800.000	-0.097	0.408
-404.267	-44.862	0.059	-0.038
-403.252	-48.301	-0.082	-0.052
-402.238	-100.257	-0.499	-0.162
-401.223	-200.000	-0.086	0.507
-400.209	800.000	0.080	0.459
-399.194	-200.000	0.017	-0.605
-398.179	-130.993	0.397	0.069
-397.165	-84.274	0.242	-0.100
-396.150	-5.556	0.362	-0.325
-395.136	676.013	0.108	0.369
-394.121	56.427	-0.121	-0.154
-393.106	-63.238	-0.226	0.122
-392.092	-94.875	0.253	0.089
-391.077	-84.075	-0.358	0.148
-390.063	-170.274	0.333	-0.015
-389.048	-31.862	-0.572	-0.419
-388.033	-87.220	0.397	-0.157
-387.019	521.842	0.061	-0.187
-386.004	172.824	0.119	-0.226
-384.990	-169.382	-0.284	-0.013
-383.975	320.376	-0.285	-0.712
-382.960	-167.936	-0.457	0.023
-381.946	89.198	-0.309	0.452
-380.931	-156.936	-0.336	0.027
-379.917	153.300	-0.139	-0.249
-378.902	-130.414	0.021	0.004
-377.888	-127.907	-0.136	0.025
-376.873	-115.620	0.592	-0.144
-375.858	-85.905	0.161	0.065
-374.844	-200.000	-0.062	-0.467
-373.829	-97.306	-0.159	-0.054
-372.815	299.485	0.218	0.528
-371.800	-200.000	0.272	0.001
-370.785	-90.704	-0.278	0.105
-369.771	166.288	0.054	0.100
-368.756	800.000	-0.050	0.187
-367.742	800.000	-0.072	0.325
-366.727	-158.663	0.373	-0.028
-365.712	41.532	0.174	0.207
-364.698	-101.605	0.367	0.116
-363.683	-200.000	-0.070	0.481
-362.669	178.164	0.147	-0.282
-361.654	82.371	0.070	0.100
-360.639	-200.000	-0.019	0.218
-359.625	-59.872	0.196	-0.109
-358.610	32.638	-0.287	-0.325
-357.596	-53.543	-0.147	0.088
-356.581	-34.187	0.144	0.103
-355.566	54.574	0.251	-0.317
-354.552	332.662	0.148	0.374
-353.537	-128.708	0.440	-0.080
-352.523	-62.584	-0.227	0.123
-351.508	130.608	-0.076	0.127
-350.493	-84.989	0.281	0.115
-349.479	-200.000	-0.051	-0.481
-348.464	-51.804	0.260	-0.158
-347.450	-200.000	-0.010	-0.311
-346.435	250.810	0.129	-0.287
-345.420	-41.643	0.234	0.157
-344.406	-55.285	0.196	0.115
-343.391	-64.074	-0.239	-0.127
-342.377	-178.771	0.381	-0.011
-341.362	369.245	-0.109	0.290
-340.348	44.246	0.564	0.677
-339.333	-79.966	0.115	0.050
-338.318	766.758	0.128	-0.459
-337.304	359.563	0.171	-0.450
-336.289	800.000	0.100	0.407
-335.275	114.973	-0.066	0.106
-334.260	-25.416	-0.104	-0.080
-333.245	490.005	-0.162	-0.486
-332.231	-81.228	0.242	0.104
-331.216	-31.104	-0.067	-0.049
-330.202	-132.456	-0.208	0.035
-329.187	-105.833	-0.470	0.138
-328.172	146.923	0.070	-0.123
-327.158	-110.589	-0.798	-0.214
-326.143	13.872	0.083	-0.084
-325.129	-200.000	0.065	0.476
-324.114	-150.637	0.087	0.009
-323.099	-82.557	-0.348	0.147
-322.085	800.000	0.079	0.376
-321.070	-200.000	-0.018	-0.136
-320.056	-5.445	-0.207	-0.185
-319.041	-112.791	-0.522	-0.134
-318.026	-101.106	-0.403	-0.128
-317.012	-56.050	0.187	0.109
-315.997	-13.259	0.217	0.184
-314.983	-145.324	-0.420	0.049
-313.968	5.969	0.331	-0.320
-312.953	79.198	0.223	-0.312
-311.939	314.056	0.053	-0.130
-310.924	-128.699	-0.206	0.038
-309.910	7.679	-0.323	0.315
-308.895	-36.909	-0.303	-0.212
-307.880	-72.377	-0.209	0.101
-306.866	227.728	0.058	0.123
-305.851	-148.205	0.529	0.056
-304.837	-200.000	0.017	-0.626
-303.822	-11.508	0.086	0.074
-302.807	-22.164	-0.307	-0.243
-301.793	-185.662	-0.220	-0.004
-300.778	-58.129	-0.550	-0.312
-299.764	-144.663	-0.572	-0.068
-298.749	212.581	-0.271	0.559
-297.735	-17.687	0.357	0.292
-296.720	-58.852	-0.225	-0.127
-295.705	-82.893	-0.188	-0.079
-294.691	-83.147	0.356	-0.149
-293.676	-43.573	0.241	-0.159
-292.662	83.969	-0.133	0.190
-291.647	-82.599	-0.449	0.189
-290.632	-132.635	0.114	0.019
-289.618	-12.357	0.112	0.095
-288.603	31.740	-0.169	-0.190
-287.589	391.567	-0.125	-0.341
-286.574	800.000	-0.082	0.393
-285.559	720.903	0.071	-0.248
-284.545	-200.000	-0.007	-0.139
-283.530	-173.629	-0.190	0.007
-282.516	541.002	-0.112	0.350
-281.501	-19.672	0.170	-0.137
-280.486	-146.608	-0.289	-0.032
-279.472	292.154	0.083	0.198
-278.457	176.449	0.140	-0.266
-277.443	-113.528	-0.307	-0.078
-276.428	206.072	0.024	0.050
-275.413	-47.984	0.366	-0.230
-274.399	165.267	0.236	-0.436
-273.384	-32.081	-0.376	0.274
-272.370	27.929	0.196	0.215
-271.355	44.223	-0.263	0.314
-270.340	66.350	-0.336	0.446
-269.326	-22.337	0.322	-0.254
-268.311	-200.000	-0.047	0.352
-267.297	14.417	-0.156	0.159
-266.282	586.940	0.041	-0.133
-265.267	-126.258	-0.239	0.046
-264.253	1.726	0.060	-0.056
-263.238	-31.481	-0.139	-0.102
-262.224	-200.000	-0.029	0.332
-261.209	-92.840	-0.384	0.139
-260.195	-200.000	0.015	-0.280
-259.180	-62.767	0.125	0.067
-258.165	315.308	-0.060	-0.148
-257.151	218.062	-0.190	0.397
-256.136	800.000	0.087	0.371
-255.122	-200.000	-0.099	-0.775
-254.107	800.000	-0.037	-0.171
-253.092	13.027	0.307	0.310
-252.078	-28.280	0.327	0.245
-251.063	-200.000	-0.053	-0.331
-250.049	800.000	0.113	-0.435
-249.034	-182.199	-0.209	0.005
-248.019	-69.716	-0.167	0.083
-247.005	800.000	0.084	-0.364
-245.990	55.716	-0.163	0.206
-244.976	-131.494	0.146	0.025
-243.961	-6.135	-0.428	-0.380
-242.946	48.405	-0.041	-0.050
-241.932	349.360	-0.176	-0.454
-240.917	-200.000	0.017	0.109
-239.903	-103.250	-0.514	-0.157
-238.888	-140.977	-0.205	-0.027
-237.873	-200.000	0.039	-0.310
-236.859	3.330	-0.254	0.240
-235.844	-174.798	-0.148	0.005
-234.830	22.586	0.167	0.178
-233.815	-104.448	0.256	-0.077
-232.800	19.554	-0.469	-0.491
-231.786	-8.226	0.574	0.503
-230.771	74.102	-0.232	0.317
-229.757	800.000	-0.046	0.216
-228.742	597.785	-0.127	-0.413
-227.727	-171.738	-0.479	0.020
-226.713	479.563	-0.157	-0.466
-225.698	24.034	0.481	-0.516
-224.684	-151.199	0.636	-0.061
-223.669	45.077	-0.226	-0.272
-222.655	-36.463	-0.403	-0.282
-221.640	34.599	0.187	0.213
-220.625	-62.287	-0.138	-0.075
-219.611	800.000	0.027	-0.144
-218.596	97.262	-0.189	-0.283
-217.582	-136.035	0.113	-0.017
-216.567	-200.000	0.046	0.281
-215.552	104.775	0.339	0.521
-214.538	-112.702	-0.392	-0.101
-213.523	55.531	-0.134	0.169
-212.509	602.430	-0.112	0.364
-211.494	-21.312	-0.153	0.122
-210.479	-53.055	0.422	0.252
-209.465	-200.000	0.013	0.220
-208.450	26.855	0.308	0.336
-207.436	-68.738	0.107	-0.054
-206.421	-8.259	-0.352	-0.308
-205.406	800.000	-0.053	-0.264
-204.392	-192.633	0.094	-0.001
-203.377	800.000	0.084	0.402
-202.363	64.082	0.429	0.561
-201.348	11.141	0.331	0.329
-200.333	-41.239	-0.512	-0.342
-199.319	182.778	-0.218	-0.420
-198.304	-48.032	0.229	-0.144
-197.290	-200.000	0.002	-0.071
-196.275	-47.966	-0.114	0.071
-195.260	-69.815	-0.501	-0.248
-194.246	73.108	0.059	-0.080
-193.231	211.000	0.171	-0.351
-192.217	32.392	-0.183	-0.206
-191.202	503.898	0.265	-0.801
-190.187	-9.544	0.208	-0.180
-189.173	141.757	0.207	-0.357
-188.158	800.000	0.104	-0.481
-187.144	5.993	-0.289	0.278
-186.129	13.423	-0.240	0.242
-185.114	-153.568	0.413	0.037
-184.100	-141.523	0.839	0.109
-183.085	-177.647	0.385	0.012
-182.071	118.543	0.186	-0.299
-181.056	-200.000	0.042	0.374
-180.042	615.753	-0.154	0.503
-179.027	378.999	-0.051	-0.137
-178.012	-200.000	0.011	-0.291
-176.998	441.507	-0.084	-0.241
-175.983	-136.875	-0.759	0.112
-174.969	-95.326	0.070	-0.024
-173.954	-147.702	0.033	-0.004
-172.939	-121.471	0.299	0.064
-171.925	800.000	-0.040	0.169
-170.910	278.596	-0.158	-0.367
-169.896	311.698	0.207	0.507
-168.881	14.127	0.284	0.287
-167.866	-166.831	0.468	-0.025
-166.852	-200.000	-0.049	0.372
-165.837	-68.259	-0.308	0.155
-164.823	-92.715	0.182	0.066
-163.808	-200.000	0.017	-0.233
-162.793	33.785	0.340	0.384
-161.779	800.000	-0.163	-0.871
-160.764	-12.256	-0.404	0.343
-159.750	-200.000	0.028	0.492
-158.735	77.714	0.085	0.117
-157.720	196.439	-0.141	0.279
-156.706	600.435	-0.127	0.411
-155.691	7.171	-0.152	-0.147
-154.677	773.133	0.031	-0.110
-153.662	-52.208	0.271	-0.162
-152.647	48.747	-0.338	0.412
-151.633	-63.218	-0.070	-0.038
-150.618	138.459	-0.301	0.513
-149.604	76.177	0.134	0.184
-148.589	235.911	-0.029	-0.062
-147.574	-2.216	0.178	0.162
-146.560	-112.530	-0.093	-0.024
-145.545	-200.000	-0.039	-0.247
-144.531	477.980	-0.089	-0.264
-143.516	123.152	0.451	0.735
-142.502	136.748	0.431	0.733
-141.487	174.250	-0.055	0.104
-140.472	-128.066	0.275	-0.051
-139.458	-200.000	0.006	-0.281
-138.443	-200.000	0.047	-0.777
-137.429	730.476	-0.133	-0.464
-136.414	-24.529	0.044	-0.034
-135.399	174.870	0.181	-0.341
-134.385	146.540	-0.301	-0.526
-133.370	288.507	-0.253	0.597
-132.356	778.015	-0.049	-0.176
-131.341	97.728	0.097	-0.145
-130.326	-10.683	0.146	0.125
-129.312	-162.271	0.309	-0.020
-128.297	-47.477	0.344	0.216
-127.283	800.000	0.133	0.618
-126.268	5.730	0.316	-0.303
-125.253	-200.000	-0.003	-0.056
-124.239	71.940	-0.196	0.264
-123.224	65.078	-0.103	-0.136
-122.210	-35.401	-0.130	0.091
-121.195	-119.855	-0.277	-0.061
-120.180	-192.980	0.179	0.002
-119.166	-96.691	0.107	-0.036
-118.151	-113.401	0.342	-0.086
-117.137	279.447	-0.096	-0.223
-116.122	-87.629	-0.290	-0.113
-115.107	54.695	0.098	-0.122
-114.093	-18.298	-0.312	-0.252
-113.078	-200.000	-0.000	0.323
-112.064	66.305	-0.348	-0.458
-111.049	-109.317	-0.726	-0.198
-110.034	-102.529	-0.389	-0.120
-109.020	-140.316	-0.319	-0.043
-108.005	-114.679	0.230	-0.057
-106.991	-67.356	-0.195	-0.099
-105.976	-200.000	-0.001	-0.163
-104.962	549.034	0.059	-0.184
-103.947	800.000	0.017	0.078
-102.932	72.233	-0.186	0.251
-101.918	-133.261	0.334	-0.054
-100.903	7.367	-0.294	-0.284
-99.889	-100.249	0.417	0.133
-98.874	-200.000	-0.045	0.332
-97.859	126.775	-0.178	-0.292
-96.845	-81.249	-0.142	0.060
-95.830	594.825	-0.110	-0.354
-94.816	-63.643	0.267	0.141
-93.801	532.751	0.224	0.690
-92.786	274.766	0.083	0.191
-91.772	800.000	-0.025	0.099
-90.757	800.000	-0.023	0.110
-89.743	-119.903	0.067	-0.015
-88.728	-1.279	-0.393	0.359
-87.713	10.805	-0.424	0.419
-86.699	-134.928	0.644	0.100
-85.684	-41.791	0.276	0.183
-84.670	35.962	-0.136	0.155
-83.655	-123.433	0.394	-0.081
-82.640	-27.315	-0.063	-0.047
-81.626	800.000	0.011	-0.056
-80.611	2.820	-0.209	0.196
-79.597	-161.369	-0.255	0.017
-78.582	336.291	-0.059	0.148
-77.567	-160.560	-0.778	-0.053
-76.553	38.498	0.361	0.416
-75.538	-142.302	0.113	0.014
-74.524	800.000	-0.059	0.234
-73.509	6.875	0.274	-0.264
-72.494	-114.839	-0.420	-0.103
-71.480	75.806	-0.042	0.057
-70.465	10.777	-0.150	0.148
-69.451	70.008	0.123	0.164
-68.436	-66.505	0.197	-0.101
-67.422	-102.546	-0.324	-0.099
-66.407	-200.000	0.017	0.360
-65.392	-133.765	-0.197	0.032
-64.378	800.000	0.125	0.518
-63.363	-111.655	-0.368	0.096
-62.349	-161.086	-0.374	0.025
-61.334	26.665	-2.401	-2.600
-60.319	3.866	1.672	1.578
-59.305	192.619	-3.801	-7.444
-58.290	76.018	3.955	5.417
-57.276	349.820	4.023	10.324
-56.261	-200.000	24.307	322.132
-55.246	352.532	1305.658	3361.729
-54.232	52.619	2845.322	3516.516
-53.217	51.165	2658.936	3263.559
-52.203	31.636	2388.334	2656.228
-51.188	27.730	2054.199	2236.495
-50.173	24.332	1941.614	2074.190
-49.159	23.309	1929.332	2049.097
-48.144	22.797	1924.575	2038.019
-47.130	22.705	1922.295	2034.461
-46.115	22.618	1920.949	2031.938
-45.100	22.664	1918.963	2030.291
-44.086	22.693	1917.182	2028.671
-43.071	22.697	1915.666	2027.025
-42.057	22.704	1914.249	2025.533
-41.042	22.495	1913.841	2022.603
-40.027	22.580	1911.841	2021.391
-39.013	22.685	1909.611	2020.160
-37.998	22.583	1909.347	2018.622
-36.984	22.609	1908.394	2017.844
-35.969	22.576	1906.865	2015.763
-34.954	22.592	1905.076	2013.975
-33.940	22.586	1903.887	2012.565
-32.925	22.584	1902.687	2011.203
-31.911	22.577	1901.747	2010.044
-30.896	22.597	1899.607	2007.930
-29.881	22.449	1899.501	2006.042
-28.867	22.399	1898.555	2004.389
-27.852	22.440	1896.412	2002.520
-26.838	22.371	1894.879	2000.036
-25.823	22.378	1893.778	1998.875
-24.809	22.380	1892.367	1997.328
-23.794	22.441	1891.038	1996.540
-22.779	22.507	1888.754	1994.803
-21.765	22.312	1888.208	1991.924
-20.750	22.473	1886.633	1992.016
-19.736	22.409	1886.179	1990.726
-18.721	22.435	1884.754	1989.438
-17.706	22.508	1882.728	1988.051
-16.692	22.369	1882.805	1986.484
-15.677	22.419	1880.553	1984.594
-14.663	22.491	1879.031	1983.717
-13.648	22.461	1878.318	1982.550
-12.633	22.319	1877.792	1980.305
-11.619	22.261	1877.279	1979.030
-10.604	22.262	1875.845	1977.454
-9.590	22.255	1873.869	1975.219
-8.575	22.323	1872.153	1974.097
-7.560	22.300	1871.832	1973.412
-6.546	22.373	1870.399	1972.651
-5.531	22.355	1868.704	1970.578
-4.517	22.213	1867.948	1968.106
-3.502	22.334	1866.678	1968.052
-2.487	22.398	1865.937	1967.915
-1.473	22.449	1862.793	1965.089
-0.458	22.313	1844.118	1943.799
0.556	19.012	1991.849	2047.810
1.571	17.682	2195.894	2239.765
2.586	18.462	2234.256	2289.099
3.600	18.459	2237.035	2291.630
4.615	18.448	2236.187	2290.341
5.629	18.427	2234.269	2287.825
6.644	18.450	2232.363	2285.905
7.659	18.496	2230.204	2284.035
8.673	18.431	2228.324	2280.962
9.688	18.202	2236.735	2286.222
10.702	17.395	2316.194	2355.925
11.717	15.860	2380.737	2399.315
12.731	7.455	2362.293	2260.511
13.746	1.060	2344.941	2152.537
14.761	0.134	2341.763	2136.150
15.775	0.114	2339.116	2133.196
16.790	0.086	2337.161	2130.761
17.804	0.002	2336.555	2128.748
18.819	0.106	2334.569	2128.162
19.834	0.015	2334.052	2126.153
20.848	0.101	2331.788	2125.049
21.863	0.090	2330.267	2123.258
22.877	0.091	2327.565	2120.559
23.892	0.128	2326.017	2119.411
24.907	0.056	2323.826	2116.139
25.921	0.012	2323.026	2114.544
26.936	0.042	2319.196	2111.220
27.950	0.027	2317.342	2109.078
28.965	0.058	2315.341	2107.434
29.980	0.053	2313.862	2105.772
30.994	0.014	2312.246	2103.495
32.009	3.987	2323.998	2169.995
33.023	13.299	2350.776	2326.987
34.038	17.588	2358.725	2395.323
35.053	17.905	2355.785	2396.516
36.067	18.060	2353.402	2395.985
37.082	17.961	2351.870	2392.748
38.096	17.939	2349.678	2389.926
39.111	18.063	2347.900	2389.575
40.126	18.189	2346.388	2389.515
41.140	18.323	2344.698	2389.388
42.155	18.151	2342.636	2384.598
43.169	18.245	2339.636	2382.565
44.184	18.123	2337.174	2378.069
45.199	18.114	2334.863	2375.309
46.213	18.073	2335.139	2374.729
47.228	18.200	2333.800	2374.856
48.242	18.226	2331.471	2372.566
49.257	18.296	2329.143	2370.884
50.271	18.236	2327.563	2368.162
51.286	18.110	2324.618	2363.127
52.301	18.232	2321.725	2361.609
53.315	18.505	2323.594	2367.011
54.330	20.113	2328.239	2393.799
55.344	21.139	2327.975	2407.474
56.359	21.340	2324.228	2406.086
57.374	21.453	2324.515	2407.661
58.388	21.615	2321.075	2406.047
59.403	21.406	2317.385	2399.053
60.417	21.317	2314.556	2394.610
61.432	21.409	2313.501	2394.500
62.447	21.675	2311.072	2395.362
63.461	21.753	2309.335	2394.349
64.476	21.861	2307.817	2393.971
65.490	21.715	2305.750	2389.532
66.505	21.081	2304.279	2379.032
67.520	19.557	2299.323	2352.773
68.534	18.464	2291.460	2329.528
69.549	18.142	2288.152	2321.484
70.563	18.156	2286.269	2319.487
71.578	18.249	2284.272	2318.453
72.593	18.295	2282.902	2317.411
73.607	18.440	2281.890	2318.075
74.622	18.513	2279.262	2316.128
75.636	18.242	2276.747	2309.614
76.651	18.250	2274.816	2307.493
77.666	18.210	2273.216	2305.044
78.680	18.287	2270.733	2303.291
79.695	18.269	2268.520	2300.527
80.709	18.211	2267.135	2298.068
81.724	18.231	2265.124	2296.030
82.739	18.220	2262.613	2293.052
83.753	18.232	2260.174	2290.467
84.768	18.114	2259.092	2287.513
85.782	18.060	2258.343	2285.755
86.797	18.007	2255.176	2281.559
87.812	18.111	2253.028	2280.508
88.826	18.105	2251.497	2278.617
89.841	18.094	2249.295	2275.964
90.855	18.164	2246.470	2273.768
91.870	18.172	2245.647	2272.766
92.884	18.171	2243.509	2270.315
93.899	18.166	2242.380	2268.840
94.914	18.429	2243.619	2273.328
95.928	19.901	2248.226	2297.378
96.943	20.457	2246.102	2302.342
97.957	19.096	2238.031	2275.722
98.972	18.081	2234.759	2258.644
99.987	18.140	2230.854	2255.212
101.001	18.090	2227.940	2251.329
102.016	18.021	2226.505	2248.702
103.030	18.076	2224.547	2247.178
104.045	17.914	2223.405	2243.622
105.060	18.214	2220.326	2244.204
106.074	18.147	2218.625	2241.332
107.089	18.156	2216.455	2238.982
108.103	18.028	2217.173	2237.756
109.118	18.195	2214.406	2236.887
110.133	18.264	2213.881	2236.996
111.147	18.334	2210.783	2234.518
112.162	18.313	2209.538	2232.720
113.176	18.303	2207.194	2229.959
114.191	18.378	2204.737	2228.192
115.206	18.223	2203.623	2224.768
116.220	18.137	2202.419	2222.163
117.235	18.118	2199.888	2219.092
118.249	18.073	2198.231	2216.571
119.264	18.205	2196.152	2215.924
120.279	18.238	2195.624	2215.558
121.293	18.148	2193.197	2211.673
122.308	18.184	2191.628	2210.294
123.322	18.143	2189.413	2207.268
124.337	18.281	2191.326	2210.717
125.352	20.111	2194.888	2237.827
126.366	20.386	2192.802	2238.989
127.381	18.723	2185.732	2210.000
128.395	18.015	2180.991	2195.801
129.410	17.994	2179.630	2193.901
130.424	18.063	2177.876	2192.757
131.439	18.122	2175.980	2191.356
132.454	18.133	2173.182	2188.408
133.468	18.101	2171.188	2185.733
134.483	18.046	2170.033	2183.605
135.497	18.037	2168.686	2181.863
136.512	18.043	2166.823	2179.815
137.527	18.085	2165.042	2178.299
138.541	17.871	2164.724	2174.980
139.556	18.042	2162.392	2174.561
140.570	18.057	2160.776	2172.870
141.585	18.055	2158.911	2170.702
142.600	18.001	2158.113	2168.953
143.614	17.988	2156.318	2166.728
144.629	17.975	2153.830	2163.796
145.643	17.912	2152.576	2161.480
146.658	17.976	2150.744	2160.190
147.673	17.872	2149.658	2157.528
148.687	18.078	2147.859	2158.068
149.702	18.026	2147.933	2157.229
150.716	18.005	2146.519	2155.283
151.731	18.088	2144.850	2154.396
152.746	18.196	2143.754	2154.411
153.760	18.511	2144.741	2159.138
154.775	20.020	2149.242	2182.533
155.789	20.500	2146.228	2185.274
156.804	18.947	2138.515	2157.591
157.819	18.107	2133.551	2141.746
158.833	18.086	2130.454	2138.121
159.848	18.215	2128.346	2137.373
160.862	18.335	2127.955	2138.231
161.877	18.240	2127.967	2136.794
162.892	18.262	2126.380	2135.225
163.906	18.275	2125.051	2133.793
164.921	18.279	2122.707	2131.232
165.935	18.368	2119.959	2129.327
166.950	18.256	2118.669	2126.386
167.964	18.148	2116.542	2122.650
168.979	17.950	2115.062	2118.437
169.994	18.210	2112.811	2119.166
171.008	18.124	2111.920	2116.956
172.023	18.075	2110.548	2114.718
173.037	18.119	2109.181	2113.631
174.052	18.146	2107.576	2112.113
175.067	18.108	2105.056	2108.864
176.081	18.153	2104.571	2108.677
177.096	17.998	2103.231	2105.170
178.110	18.016	2101.292	2103.196
179.125	18.015	2100.828	2102.463
180.140	18.130	2099.486	2102.292
181.154	18.057	2097.524	2099.181
182.169	17.973	2096.243	2096.604
183.183	18.327	2097.006	2101.481
184.198	20.311	2101.347	2130.088
185.213	20.510	2100.215	2131.139
186.227	19.030	2093.300	2105.665
187.242	18.350	2089.128	2092.870
188.256	18.161	2087.568	2088.736
189.271	18.143	2086.432	2087.126
190.286	18.193	2084.408	2085.468
191.300	18.104	2080.974	2080.691
192.315	17.961	2079.946	2077.665
193.329	18.234	2078.956	2079.765
194.344	18.440	2078.286	2081.360
195.359	18.444	2077.697	2080.573
196.373	18.195	2074.894	2074.483
197.388	18.229	2072.418	2072.171
198.402	18.184	2070.975	2069.931
199.417	17.993	2068.961	2065.358
200.432	18.113	2066.882	2064.486
201.446	18.196	2065.784	2064.153
202.461	18.095	2064.396	2061.295
203.475	18.164	2061.747	2059.235
204.490	18.131	2059.732	2056.572
205.504	18.096	2057.760	2053.938
206.519	17.956	2056.782	2051.028
207.534	18.026	2053.808	2048.660
208.548	18.014	2053.718	2048.177
209.563	18.081	2051.421	2046.451
210.577	17.996	2050.949	2044.717
211.592	18.266	2049.819	2046.583
212.607	19.080	2052.754	2059.061
213.621	20.963	2057.246	2085.995
214.636	20.516	2052.299	2075.362
215.650	18.629	2046.013	2046.162
216.665	18.172	2043.174	2037.606
217.680	18.265	2041.231	2036.541
218.694	18.343	2039.105	2035.101
219.709	18.255	2037.861	2032.564
220.723	18.245	2036.669	2031.014
221.738	18.274	2035.223	2029.673
222.753	18.234	2032.451	2026.198
223.767	18.148	2031.830	2024.313
224.782	18.118	2029.627	2021.515
225.796	18.134	2028.650	2020.493
226.811	18.261	2027.172	2020.277
227.826	18.225	2025.587	2018.036
228.840	18.334	2023.640	2017.147
229.855	18.275	2022.459	2015.027
230.869	18.236	2020.871	2012.744
231.884	18.355	2018.622	2011.670
232.899	18.171	2017.297	2007.929
233.913	18.051	2017.036	2006.013
234.928	18.197	2015.876	2006.351
235.942	18.186	2014.295	2004.407
236.957	18.225	2011.747	2002.080
237.972	18.130	2011.133	2000.118
238.986	18.137	2010.250	1999.078
240.001	18.201	2007.516	1996.879
241.015	18.070	2006.319	1993.908
242.030	18.319	2008.208	1998.466
243.045	20.072	2009.982	2020.556
244.059	20.232	2008.476	2020.676
245.074	18.775	2001.724	1996.630
246.088	18.263	1997.772	1986.476
247.103	18.291	1996.363	1985.169
248.117	18.257	1996.680	1984.844
249.132	18.306	1993.890	1982.406
250.147	18.156	1991.922	1978.464
251.161	18.166	1989.992	1976.434
252.176	18.300	1989.249	1977.012
253.190	18.527	1987.105	1977.280
254.205	18.349	1985.604	1973.480
255.220	18.366	1984.164	1972.018
256.234	18.295	1983.705	1970.503
257.249	18.181	1982.400	1967.647
258.263	18.259	1980.826	1966.755
259.278	18.250	1980.388	1965.978
260.293	18.215	1977.647	1962.618
261.307	18.215	1975.211	1959.970
262.322	18.121	1974.603	1958.053
263.336	18.088	1972.542	1955.389
264.351	18.049	1970.293	1952.479
265.366	18.130	1969.359	1952.250
266.380	18.063	1968.465	1950.358
267.395	18.017	1967.352	1948.493
268.409	17.986	1965.502	1946.076
269.424	18.151	1963.766	1946.006
270.439	18.263	1962.329	1945.639
271.453	18.625	1964.274	1951.463
272.468	20.310	1966.198	1972.418
273.482	20.233	1963.048	1968.137
274.497	18.838	1956.244	1945.214
275.512	18.164	1953.201	1934.303
276.526	18.158	1951.424	1932.245
277.541	17.997	1949.526	1928.300
278.555	18.056	1948.095	1927.330
279.570	17.939	1946.008	1923.707
280.585	17.845	1945.062	1921.476
281.599	18.162	1943.679	1923.459
282.614	18.261	1943.307	1923.983
283.628	18.387	1942.128	1924.011
284.643	18.447	1941.182	1923.520
285.657	18.487	1940.278	1922.843
286.672	18.430	1939.113	1920.821
287.687	18.416	1936.418	1917.756
288.701	18.434	1935.693	1917.018
289.716	18.315	1934.478	1914.242
290.730	18.253	1932.804	1911.663
291.745	18.494	1930.083	1911.441
292.760	18.317	1929.973	1909.123
293.774	18.224	1929.665	1907.551
294.789	18.301	1927.622	1906.158
295.803	18.084	1924.763	1900.680
296.818	18.040	1924.577	1899.781
297.833	18.205	1923.135	1899.969
298.847	18.183	1921.683	1898.067
299.862	18.165	1919.935	1895.910
300.876	18.543	1921.034	1900.974
301.891	20.258	1923.898	1922.711
302.906	20.721	1922.010	1925.744
303.920	18.962	1916.184	1900.155
304.935	18.329	1912.756	1889.506
305.949	18.137	1910.184	1884.617
306.964	18.135	1908.620	1882.822
307.979	18.324	1907.371	1883.457
308.993	18.294	1906.194	1881.737
310.008	18.252	1904.343	1879.218
311.022	18.460	1902.921	1879.886
312.037	18.474	1901.700	1878.612
313.052	18.412	1900.344	1876.359
314.066	18.387	1898.062	1873.611
315.081	18.292	1897.555	1871.837
316.095	18.337	1896.645	1871.211
317.110	18.321	1894.581	1868.773
318.125	18.286	1893.500	1867.102
319.139	18.296	1891.622	1865.139
320.154	18.407	1890.462	1864.988
321.168	18.381	1888.241	1862.292
322.183	18.433	1887.060	1861.470
323.197	18.156	1886.140	1857.312
324.212	18.052	1884.339	1854.182
325.227	18.071	1881.754	1851.620
326.241	18.160	1880.245	1850.881
327.256	18.291	1879.276	1851.136
328.270	18.141	1878.850	1848.864
329.285	18.074	1879.040	1848.101
330.300	18.685	1882.490	1857.917
331.314	20.604	1883.820	1879.882
332.329	20.391	1879.947	1873.487
333.343	18.698	1873.176	1848.205
334.358	18.250	1870.126	1840.136
335.373	18.194	1869.058	1838.258
336.387	18.103	1867.949	1835.970
337.402	18.223	1865.805	1834.935
338.416	18.196	1864.627	1833.265
339.431	18.133	1863.802	1831.552
340.446	18.212	1861.953	1830.363
341.460	18.425	1860.373	1830.884
342.475	18.590	1858.873	1830.963
343.489	18.415	1857.269	1827.281
344.504	18.456	1856.208	1826.458
345.519	18.444	1855.185	1825.106
346.533	18.626	1853.170	1824.853
347.548	18.446	1852.618	1822.169
348.562	18.453	1851.559	1820.978
349.577	18.472	1850.105	1819.537
350.592	18.486	1848.460	1817.845
351.606	18.491	1847.722	1816.957
352.621	18.405	1845.214	1813.360
353.635	18.229	1843.826	1809.904
354.650	18.123	1842.246	1807.010
355.665	18.114	1840.770	1805.251
356.679	18.118	1839.843	1804.170
357.694	18.140	1837.955	1802.336
358.708	18.281	1836.789	1802.472
359.723	18.987	1839.622	1812.516
360.738	20.746	1841.437	1832.721
361.752	20.227	1837.484	1823.083
362.767	18.611	1832.182	1800.575
363.781	18.248	1829.033	1793.441
364.796	18.055	1828.374	1790.548
365.810	17.948	1827.182	1788.039
366.825	18.113	1825.923	1788.323
367.840	18.133	1825.723	1788.129
368.854	18.274	1823.955	1787.659
369.869	18.081	1821.653	1783.170
370.883	18.058	1820.413	1781.494
371.898	17.952	1819.453	1779.235
372.913	17.948	1818.960	1778.499
373.927	18.174	1817.998	1779.705
374.942	18.202	1815.801	1777.641
375.956	18.190	1815.228	1776.737
376.971	18.211	1812.341	1773.919
377.986	18.033	1811.076	1770.618
379.000	18.058	1809.964	1769.579
380.015	18.269	1808.698	1770.319
381.029	18.381	1807.257	1769.858
382.044	18.334	1805.531	1767.468
383.059	18.248	1803.321	1764.202
384.073	18.260	1801.907	1762.734
385.088	18.179	1801.487	1761.275
386.102	18.085	1800.104	1758.743
387.117	18.098	1797.339	1755.966
388.132	18.113	1796.509	1755.098
389.146	18.721	1799.295	1763.885
390.161	20.375	1803.195	1784.602
391.175	20.292	1796.832	1777.243
392.190	18.603	1789.403	1752.349
393.205	18.031	1787.504	1744.416
394.219	18.095	1786.475	1743.857
395.234	18.105	1785.184	1742.486
396.248	18.148	1783.034	1740.622
397.263	18.148	1781.335	1738.755
398.278	18.040	1779.700	1735.844
399.292	18.035	1778.864	1734.775
400.307	18.163	1778.685	1735.701
401.321	18.267	1778.179	1736.055
402.336	18.347	1775.915	1734.449
403.350	18.328	1774.635	1732.799
404.365	18.541	1773.213	1733.374
405.380	18.668	1772.075	1733.344
406.394	18.654	1771.408	1732.337
407.409	18.461	1769.838	1728.641
408.423	18.588	1767.648	1727.579
409.438	18.370	1766.741	1724.281
410.453	18.413	1766.131	1723.908
411.467	18.463	1764.924	1723.029
412.482	18.349	1762.869	1719.665
413.496	18.335	1761.158	1717.656
414.511	18.307	1760.082	1716.120
415.526	18.095	1757.437	1711.198
416.540	18.107	1755.582	1709.305
417.555	18.164	1754.765	1708.884
418.569	18.098	1755.081	1708.322
419.584	18.125	1755.587	1708.886
420.599	18.134	1754.625	1707.826
421.613	18.162	1753.353	1706.668
422.628	18.304	1752.747	1707.297
423.642	18.279	1750.477	1704.629
424.657	18.152	1748.913	1701.635
425.672	18.227	1746.421	1699.753
426.686	18.278	1745.251	1698.920
427.701	18.086	1744.408	1695.988
428.715	18.050	1742.493	1693.561
429.730	18.278	1741.736	1694.892
430.745	18.291	1740.308	1693.425
431.759	18.186	1740.114	1691.995
432.774	18.273	1739.314	1691.877
433.788	18.285	1738.912	1691.401
434.803	18.509	1737.921	1692.459
435.818	18.338	1737.824	1690.463
436.832	18.290	1735.919	1687.930
437.847	17.339	1728.486	1671.115
438.861	9.677	1708.487	1576.519
439.876	1.780	1694.001	1485.762
440.890	0.425	1690.222	1469.007
441.905	0.120	1689.613	1465.316
442.920	0.146	1688.782	1464.673
443.934	0.135	1686.395	1462.321
444.949	0.096	1685.905	1461.344
445.963	0.069	1684.865	1460.006
446.978	0.140	1684.141	1459.894
447.993	0.131	1682.675	1458.366
449.007	0.156	1680.303	1456.371
450.022	0.149	1679.217	1455.193
451.036	0.151	1677.153	1453.244
452.051	1.179	1681.663	1466.981
453.066	8.953	1699.102	1558.165
454.080	16.531	1710.781	1642.940
455.095	17.822	1712.552	1657.061
456.109	17.972	1711.435	1657.247
457.124	17.988	1710.903	1656.684
458.139	18.099	1710.101	1656.796
459.153	17.960	1709.046	1654.222
460.168	17.995	1707.336	1652.702
461.182	18.032	1705.324	1650.922
462.197	18.086	1703.347	1649.336
463.212	18.140	1701.788	1648.150
464.226	18.116	1700.630	1646.601
465.241	18.189	1699.561	1646.074
466.255	18.108	1698.217	1643.787
467.270	18.225	1696.315	1642.877
468.285	18.062	1695.851	1640.661
469.299	18.107	1694.905	1639.983
470.314	18.138	1693.215	1638.456
471.328	18.065	1692.081	1636.453
472.343	18.071	1690.682	1634.960
473.358	18.166	1689.270	1634.319
474.372	18.028	1688.247	1631.805
475.387	18.021	1687.922	1631.228
476.401	18.024	1686.010	1629.214
477.416	18.020	1684.693	1627.708
478.430	17.961	1683.739	1626.028
479.445	17.960	1682.397	1624.526
480.460	18.038	1680.663	1623.403
481.474	18.056	1680.097	1622.833
482.489	18.153	1677.979	1621.519
483.503	18.182	1676.318	1619.993
484.518	18.104	1674.983	1617.767
485.533	18.183	1673.441	1616.833
486.547	18.126	1672.885	1615.561
487.562	18.087	1672.918	1615.033
488.576	18.073	1670.808	1612.668
489.591	18.243	1668.817	1612.165
490.606	18.031	1668.415	1609.577
491.620	18.113	1666.574	1608.387
492.635	18.193	1664.652	1607.088
493.649	18.122	1664.098	1605.690
494.664	18.084	1662.696	1603.795
495.679	17.952	1661.353	1601.064
496.693	18.070	1659.875	1600.558
497.708	18.147	1658.171	1599.443
498.722	18.160	1657.518	1598.741
499.737	18.203	1656.656	1598.123
500.752	18.125	1654.680	1595.300
501.766	18.114	1653.837	1594.185
502.781	18.044	1651.603	1591.190
503.795	18.214	1649.666	1590.723
504.810	18.091	1649.650	1589.372
505.825	18.203	1648.849	1589.454
506.839	18.188	1647.088	1587.426
507.854	18.217	1646.022	1586.473
508.868	18.088	1644.417	1583.536
509.883	18.187	1643.662	1583.540
510.898	18.197	1642.337	1582.168
511.912	18.081	1641.061	1579.671
512.927	18.112	1638.837	1577.628
513.941	18.055	1637.532	1575.657
514.956	18.134	1636.262	1574.975
515.971	18.033	1635.331	1572.960
516.985	18.057	1634.399	1572.098
518.000	18.003	1633.859	1570.891
519.014	18.014	1632.693	1569.681
520.029	18.139	1631.142	1569.160
521.043	18.032	1629.864	1566.758
522.058	18.222	1628.440	1566.950
523.073	18.141	1627.913	1565.505
524.087	18.328	1626.534	1565.708
525.102	18.132	1625.653	1562.878
526.116	18.136	1623.836	1560.981
527.131	18.061	1623.126	1559.426
528.146	18.211	1622.177	1559.700
529.160	18.126	1620.894	1557.496
530.175	18.146	1620.142	1556.771
531.189	18.188	1619.137	1556.008
532.204	18.220	1617.094	1554.145
533.219	18.132	1616.065	1552.172
534.233	18.142	1615.113	1551.165
535.248	18.247	1614.376	1551.224
536.262	18.301	1612.841	1550.051
537.277	18.253	1612.717	1549.313
538.292	18.094	1610.721	1545.762
539.306	18.149	1608.959	1544.394
540.321	18.222	1607.214	1543.188
541.335	18.259	1605.647	1541.840
542.350	18.217	1604.410	1540.087
543.365	18.175	1602.890	1538.059
544.379	18.278	1601.791	1537.757
545.394	18.323	1600.433	1536.669
546.408	18.195	1599.188	1534.142
547.423	18.104	1598.000	1531.995
548.438	18.295	1596.775	1532.354
549.452	18.320	1595.716	1531.385
550.467	18.323	1594.288	1529.857
551.481	18.093	1593.519	1526.869
552.496	18.124	1593.232	1526.690
553.511	18.257	1591.910	1526.428
554.525	18.285	1590.466	1525.112
555.540	18.283	1590.311	1524.763
556.554	18.292	1588.592	1523.013
557.569	18.372	1586.305	1521.358
558.583	18.255	1585.843	1519.686
559.598	18.331	1584.381	1518.784
560.613	18.328	1582.500	1516.770
561.627	18.265	1581.882	1515.439
562.642	18.250	1580.994	1514.271
563.656	18.268	1579.731	1513.038
564.671	18.228	1578.756	1511.566
565.686	18.235	1577.024	1509.793
566.700	18.364	1575.256	1509.062
567.715	18.059	1574.434	1505.393
568.729	18.202	1572.744	1504.859
569.744	18.098	1570.681	1501.788
570.759	18.086	1569.618	1500.489
571.773	18.125	1568.625	1499.704
572.788	18.159	1568.076	1499.295
573.802	18.187	1566.509	1497.863
574.817	18.243	1565.026	1496.757
575.832	18.309	1564.656	1496.808
576.846	18.374	1562.469	1495.108
577.861	18.284	1561.756	1493.454
578.875	18.237	1561.123	1492.258
579.890	18.231	1560.986	1491.896
580.905	18.301	1559.917	1491.311
581.919	18.378	1558.673	1490.620
582.934	18.375	1557.963	1489.731
583.948	18.548	1555.956	1489.149
584.963	18.397	1554.558	1486.317
585.978	18.367	1553.304	1484.674
586.992	18.313	1553.237	1483.959
588.007	18.455	1551.731	1483.582
589.021	18.353	1550.875	1481.696
590.036	18.326	1549.545	1480.015
591.051	18.362	1548.102	1478.773
592.065	18.409	1546.112	1477.104
593.080	18.312	1544.500	1474.549
594.094	18.436	1543.431	1474.419
595.109	18.283	1541.640	1471.214
596.123	18.380	1540.219	1470.512
597.138	18.209	1539.707	1468.379
598.153	18.252	1538.777	1467.681
599.167	18.439	1536.893	1467.318
600.182	18.398	1536.372	1466.297
601.196	18.475	1535.243	1465.705
602.211	18.483	1533.973	1464.382
603.226	18.526	1532.905	1463.559
604.240	18.437	1531.347	1461.133
605.255	18.358	1530.480	1459.456
606.269	18.383	1529.688	1458.741
607.284	18.496	1528.202	1458.111
608.299	18.499	1526.492	1456.336
609.313	18.363	1525.956	1454.491
610.328	18.406	1524.666	1453.454
611.342	18.388	1523.479	1451.992
612.357	18.491	1522.860	1452.102
613.372	18.504	1522.001	1451.225
614.386	18.455	1520.612	1449.305
615.401	18.522	1519.729	1448.861
616.415	18.330	1519.291	1446.638
617.430	18.417	1518.172	1446.140
618.445	18.455	1516.628	1444.819
619.459	18.240	1516.177	1442.396
620.474	18.197	1514.936	1440.679
621.488	18.222	1512.904	1438.779
622.503	18.204	1511.968	1437.573
623.518	18.151	1511.330	1436.342
624.532	18.339	1509.823	1436.325
625.547	18.299	1508.852	1434.890
626.561	18.473	1507.646	1435.040
627.576	18.539	1507.134	1434.930
628.591	18.428	1505.372	1432.150
629.605	18.312	1503.808	1429.515
630.620	18.258	1502.774	1427.908
631.634	18.174	1501.807	1426.115
632.649	18.094	1501.363	1424.853
633.663	18.169	1499.290	1423.343
634.678	18.366	1498.044	1423.637
635.693	18.442	1496.490	1422.623
636.707	18.390	1496.085	1421.637
637.722	18.427	1495.369	1421.090
638.736	18.627	1493.422	1420.740
639.751	18.573	1492.515	1419.254
640.766	18.493	1491.609	1417.558
641.780	18.564	1489.798	1416.257
642.795	18.603	1488.684	1415.356
643.809	18.669	1487.960	1415.043
644.824	18.514	1488.091	1413.715
645.839	18.584	1486.643	1412.752
646.853	18.532	1485.166	1410.744
647.868	18.394	1483.535	1407.883
648.882	18.404	1482.814	1407.113
649.897	18.512	1481.141	1406.249
650.912	18.478	1479.883	1404.609
651.926	18.668	1478.778	1404.955
652.941	18.378	1477.621	1401.304
653.955	18.357	1476.003	1399.433
654.970	18.351	1474.255	1397.555
655.985	18.318	1473.103	1396.023
656.999	18.318	1471.980	1394.790
658.014	18.372	1470.584	1393.742
659.028	18.512	1469.707	1393.894
660.043	18.476	1468.987	1392.744
661.058	18.548	1467.973	1392.211
662.072	18.578	1467.540	1391.878
663.087	18.475	1466.145	1389.542
664.101	18.567	1464.976	1389.021
665.116	18.432	1464.430	1387.240
666.131	18.564	1462.984	1386.772
667.145	18.604	1461.370	1385.406
668.160	18.578	1460.342	1384.050
669.174	18.719	1458.709	1383.485
670.189	18.584	1458.337	1381.873
671.204	18.496	1457.287	1379.999
672.218	18.625	1456.459	1380.095
673.233	18.532	1455.327	1378.104
674.247	18.617	1454.830	1378.152
675.262	18.683	1452.945	1376.731
676.276	18.715	1451.876	1375.817
677.291	18.578	1451.521	1374.210
678.306	18.698	1449.809	1373.393
679.320	18.424	1448.648	1369.923
680.335	18.597	1448.261	1370.781
681.349	18.632	1447.099	1369.803
682.364	18.695	1446.338	1369.424
683.379	18.566	1444.960	1366.919
684.393	18.307	1444.190	1363.953
685.408	18.671	1442.580	1365.181
686.422	18.422	1441.569	1362.072
687.437	18.480	1441.887	1362.672
688.452	18.660	1440.372	1362.515
689.466	18.517	1438.318	1359.266
690.481	18.535	1436.806	1357.819
691.495	18.351	1436.390	1355.801
692.510	18.320	1434.363	1353.479
693.525	18.301	1432.760	1351.656
694.539	18.293	1432.485	1351.170
695.554	18.388	1432.543	1351.814
696.568	18.689	1431.031	1352.613
697.583	18.563	1430.662	1351.099
698.598	18.524	1429.972	1349.983
699.612	18.618	1427.932	1348.635
700.627	18.545	1427.187	1347.196
701.641	18.578	1425.707	1345.898
702.656	18.605	1424.764	1345.054
703.671	18.657	1424.594	1345.148
704.685	18.697	1423.585	1344.348
705.700	18.833	1422.144	1343.896
706.714	18.664	1420.903	1341.236
707.729	18.688	1419.717	1340.144
708.744	18.608	1418.260	1337.980
709.758	18.522	1416.832	1335.795
710.773	18.569	1415.947	1335.170
711.787	18.603	1414.070	1333.509
712.802	18.495	1412.996	1331.489
713.816	18.496	1412.186	1330.579
714.831	18.653	1411.505	1330.999
715.846	18.841	1410.666	1331.513
716.860	18.823	1409.229	1329.858
717.875	18.822	1407.977	1328.511
718.889	18.813	1406.957	1327.317
719.904	18.644	1406.636	1325.546
720.919	18.736	1405.660	1325.181
721.933	18.868	1404.167	1324.640
722.948	18.803	1403.307	1323.166
723.962	18.842	1401.925	1322.004
724.977	18.762	1401.096	1320.445
725.992	18.706	1400.683	1319.466
727.006	18.738	1398.990	1317.961
728.021	18.729	1397.609	1316.430
729.035	18.834	1396.689	1316.219
730.050	18.817	1395.337	1314.652
731.065	18.724	1394.572	1313.061
732.079	18.777	1394.134	1312.897
733.094	18.708	1393.114	1311.249
734.108	18.691	1391.053	1309.025
735.123	18.779	1389.351	1307.938
736.138	18.790	1388.785	1307.335
737.152	18.657	1388.398	1305.797
738.167	18.779	1386.999	1305.260
739.181	18.823	1386.156	1304.641
740.196	18.660	1385.649	1302.762
741.211	18.709	1384.302	1301.716
742.225	18.761	1383.675	1301.370
743.240	18.752	1382.342	1299.889
744.254	18.598	1380.733	1297.046
745.269	18.753	1379.923	1297.310
746.284	18.693	1379.156	1295.975
747.298	18.727	1377.443	1294.470
748.313	18.517	1375.991	1291.362
749.327	18.528	1375.453	1290.785
750.342	18.362	1374.859	1288.820
751.356	18.331	1373.631	1287.280
752.371	18.377	1372.194	1286.125
753.386	18.480	1371.261	1285.874
754.400	18.658	1370.654	1286.494
755.415	18.799	1369.823	1286.617
756.429	18.986	1367.720	1285.898
757.444	18.816	1366.980	1283.769
758.459	18.763	1365.929	1282.233
759.473	18.827	1365.898	1282.529
760.488	18.920	1364.570	1281.824
761.502	18.967	1363.493	1281.009
762.517	18.941	1362.191	1279.440
763.532	18.796	1360.624	1276.736
764.546	18.843	1359.354	1275.742
765.561	18.797	1358.019	1273.990
766.575	18.561	1357.991	1272.052
767.590	18.621	1357.004	1271.424
768.605	18.649	1355.778	1270.328
769.619	18.494	1354.881	1268.185
770.634	18.816	1353.496	1269.131
771.648	18.817	1352.527	1268.078
772.663	18.776	1352.585	1267.674
773.678	19.045	1351.336	1268.347
774.692	18.909	1350.267	1266.186
775.707	18.841	1350.027	1265.300
776.721	19.068	1348.620	1265.511
777.736	18.902	1347.719	1263.285
778.751	18.904	1347.035	1262.507
779.765	18.982	1345.213	1261.224
780.780	19.129	1344.403	1261.401
781.794	18.842	1344.456	1259.184
782.809	18.673	1343.325	1256.729
783.824	18.809	1340.870	1255.280
784.838	18.598	1339.363	1252.175
785.853	18.324	1339.056	1249.727
786.867	18.413	1337.934	1249.179
787.882	18.594	1337.721	1250.158
788.897	18.615	1336.971	1249.465
789.911	18.719	1336.197	1249.354
790.926	18.704	1334.800	1247.784
791.940	18.686	1333.608	1246.391
792.955	18.835	1332.436	1246.228
793.969	18.923	1331.337	1245.697
794.984	18.723	1331.394	1244.144
795.999	18.865	1329.787	1243.523
797.013	18.985	1327.960	1242.539
798.028	18.823	1326.846	1240.173
799.042	18.824	1326.024	1239.267
800.057	19.052	1324.980	1239.793
801.072	18.971	1323.829	1237.978
802.086	18.868	1322.649	1235.981
803.101	19.021	1321.512	1235.881
804.115	19.039	1320.950	1235.337
805.130	18.970	1319.867	1233.678
806.145	19.046	1318.228	1232.542
807.159	19.072	1316.548	1231.009
808.174	18.943	1316.006	1229.428
809.188	18.987	1314.493	1228.183
810.203	18.837	1313.031	1225.597
811.218	18.834	1311.442	1223.946
812.232	18.664	1310.157	1221.388
813.247	18.585	1309.438	1220.005
814.261	18.618	1309.346	1220.005
815.276	18.886	1307.856	1220.384
816.291	18.987	1307.265	1220.411
817.305	19.099	1305.553	1219.463
818.320	18.933	1304.862	1217.492
819.334	18.922	1303.903	1216.373
820.349	18.896	1302.461	1214.692
821.364	19.005	1300.554	1213.544
822.378	18.952	1299.616	1212.150
823.393	18.980	1297.545	1210.272
824.407	18.952	1296.678	1209.118
825.422	18.974	1296.526	1208.990
826.437	19.001	1295.494	1208.068
827.451	18.730	1294.048	1204.670
828.466	18.520	1292.204	1201.329
829.480	18.478	1290.867	1199.645
830.495	18.653	1288.678	1198.700
831.509	18.532	1288.379	1197.425
832.524	18.675	1288.300	1198.212
833.539	18.939	1286.858	1198.577
834.553	18.956	1285.167	1196.976
835.568	18.903	1284.450	1195.796
836.582	19.114	1283.407	1196.157
837.597	19.000	1281.744	1193.672
838.612	19.025	1280.674	1192.707
839.626	18.950	1279.819	1191.244
840.641	18.975	1278.963	1190.477
841.655	18.702	1278.440	1187.947
842.670	18.613	1277.488	1186.301
843.685	18.769	1275.382	1185.285
844.699	18.827	1274.536	1184.765
845.714	18.689	1274.356	1183.496
846.728	18.923	1273.386	1184.075
847.743	19.127	1272.127	1184.169
848.758	19.030	1270.313	1181.670
849.772	19.053	1268.628	1180.119
850.787	19.040	1267.695	1179.020
851.801	19.014	1267.059	1178.113
852.816	18.998	1265.694	1176.589
853.831	18.975	1263.903	1174.627
854.845	18.923	1262.356	1172.695
855.860	18.704	1261.431	1170.193
856.874	18.707	1260.259	1168.986
857.889	18.745	1258.396	1167.378
858.904	18.658	1257.115	1165.455
859.918	18.527	1255.343	1162.780
860.933	18.453	1254.644	1161.491
861.947	18.375	1254.058	1160.279
862.962	18.641	1252.478	1160.484
863.977	18.717	1251.274	1159.746
864.991	18.946	1250.549	1160.493
866.006	19.002	1250.155	1160.362
867.020	18.965	1249.025	1158.928
868.035	19.070	1247.974	1158.523
869.049	18.971	1247.932	1157.674
870.064	19.273	1246.165	1157.937
871.079	19.067	1245.354	1155.653
872.093	18.922	1245.735	1154.888
873.108	18.990	1244.395	1153.971
874.122	18.941	1242.622	1151.854
875.137	18.721	1242.169	1149.821
876.152	18.942	1241.231	1150.302
877.166	18.984	1238.901	1148.287
878.181	18.909	1238.518	1147.287
879.195	19.122	1237.892	1147.999
880.210	19.195	1236.981	1147.506
881.225	19.144	1235.614	1145.761
882.239	19.223	1235.004	1145.586
883.254	19.334	1233.596	1144.880
884.268	19.266	1233.235	1143.955
885.283	19.117	1232.093	1141.764
886.298	19.248	1230.308	1140.848
887.312	19.207	1229.516	1139.708
888.327	19.108	1228.359	1137.836
889.341	19.137	1227.203	1136.827
890.356	19.131	1226.502	1136.000
891.371	18.907	1226.449	1134.329
892.385	19.094	1225.377	1134.437
893.400	19.077	1224.193	1133.094
894.414	18.987	1222.735	1131.013
895.429	18.996	1220.812	1129.163
896.444	18.623	1219.164	1125.044
897.458	18.526	1218.134	1123.321
898.473	18.825	1217.623	1124.679
899.487	18.945	1217.231	1124.975
900.502	18.994	1215.877	1123.911
901.517	19.065	1214.930	1123.362
902.531	19.164	1213.912	1122.940
903.546	19.285	1213.462	1123.177
904.560	19.252	1213.126	1122.521
905.575	19.188	1212.513	1121.398
906.589	19.240	1211.481	1120.650
907.604	19.125	1210.952	1119.277
