DTS Sentinel unit serial number:	SN409020Multiplexer serial number:	ORYXHardware model number:	OX4-SRSoftware version number:	ORYX F/W v3.00 Oryx Data Collector v3.7.2.0data status	okinstallation	HaddamTimeLapsedifferential loss correction	single-endedforward channel	channel 3reverse channel	N/Adate	2011/06/22time	10:11:16forward acquisition time	30.00reverse acquisition time	0.00gamma	498.7831k internal	0.1813k external	0.1813temperature offset calibration	1.0074default loss term (dB/km)	0.3790temperature slope calibration	1.3530multiplexer offset coefficient	1.0000multiplexer slope coefficient	1.0000fibre end	0.00T internal ref (°C)	29.47T ext. ref 1 (°C)	26.70T ext. ref 2 (°C)	0.22length (m)	temperature (°C)	Stokes	anti-Stokes-747.200	-141.156	-0.170	-0.022
-746.185	-200.000	-0.038	0.232
-745.171	-200.000	0.041	-0.472
-744.156	-53.203	0.314	0.184
-743.142	76.357	-0.137	0.186
-742.127	24.781	0.254	0.270
-741.112	2.648	-0.286	-0.266
-740.098	95.337	0.247	0.361
-739.083	290.357	-0.111	-0.259
-738.069	800.000	-0.065	0.297
-737.054	-200.000	-0.007	-0.319
-736.039	-49.622	0.084	0.051
-735.025	162.825	0.284	0.512
-734.010	83.549	0.296	0.415
-732.996	11.339	0.107	-0.105
-731.981	-87.079	-0.203	-0.079
-730.966	257.012	-0.213	-0.472
-729.952	261.848	0.218	-0.486
-728.937	-171.620	0.370	0.015
-727.923	-116.759	-0.456	0.107
-726.908	-68.858	-0.162	0.080
-725.894	800.000	0.027	0.115
-724.879	-96.673	-0.096	0.032
-723.864	-157.617	-0.473	-0.036
-722.850	-158.751	0.308	0.022
-721.835	-80.403	0.537	0.229
-720.821	12.138	0.164	-0.162
-719.806	-70.414	-0.061	-0.029
-718.791	-142.584	0.033	-0.004
-717.777	-84.378	-0.314	0.126
-716.762	800.000	-0.077	-0.338
-715.748	-76.349	-0.327	-0.147
-714.733	108.197	-0.104	-0.160
-713.718	94.191	-0.200	-0.292
-712.704	-200.000	-0.057	-0.510
-711.689	170.093	0.037	0.069
-710.675	-200.000	0.022	0.430
-709.660	55.173	0.072	0.090
-708.645	-200.000	-0.007	-0.139
-707.631	-122.096	0.175	-0.036
-706.616	615.534	-0.063	0.203
-705.602	-135.444	-0.341	-0.052
-704.587	800.000	-0.096	0.384
-703.572	-41.765	0.242	-0.159
-702.558	-147.595	0.228	-0.024
-701.543	-9.815	0.246	0.210
-700.529	272.243	-0.060	0.136
-699.514	46.860	0.327	0.389
-698.499	-200.000	-0.026	-0.192
-697.485	-100.860	0.299	0.094
-696.470	-200.000	-0.019	-0.525
-695.456	-200.000	-0.005	-0.385
-694.441	315.641	-0.097	-0.235
-693.426	-7.023	-0.039	-0.034
-692.412	54.757	-0.109	-0.134
-691.397	4.005	-0.169	-0.158
-690.383	-129.328	-0.086	-0.015
-689.368	-95.959	-0.265	-0.090
-688.354	67.900	-0.269	-0.353
-687.339	36.935	-0.088	0.100
-686.324	360.521	0.144	0.370
-685.310	181.842	-0.102	0.194
-684.295	-117.190	-0.502	-0.116
-683.281	-83.798	0.333	-0.135
-682.266	-116.573	-0.316	0.074
-681.251	-89.295	0.330	0.124
-680.237	-53.795	0.301	-0.175
-679.222	-115.033	0.341	-0.082
-678.208	-78.019	-0.428	-0.188
-677.193	-83.620	0.189	-0.077
-676.178	-200.000	-0.023	-0.142
-675.164	-200.000	0.027	0.285
-674.149	800.000	0.087	0.405
-673.135	-106.491	-0.289	0.082
-672.120	-130.299	-0.181	0.031
-671.105	-118.545	-0.357	-0.080
-670.091	-129.945	0.294	-0.051
-669.076	-200.000	0.000	0.058
-668.062	-67.676	-0.113	-0.056
-667.047	53.667	-0.119	-0.146
-666.032	-100.913	0.245	0.077
-665.018	-118.471	0.103	0.023
-664.003	-64.644	0.184	-0.095
-662.989	159.916	-0.155	0.278
-661.974	104.340	-0.355	-0.535
-660.959	32.882	0.164	-0.182
-659.945	454.003	-0.119	0.338
-658.930	317.884	0.176	-0.427
-657.916	-166.066	0.343	0.018
-656.901	-121.316	0.384	-0.081
-655.886	23.559	-0.149	-0.157
-654.872	59.759	0.271	-0.343
-653.857	28.201	0.402	-0.434
-652.843	-67.105	-0.275	0.138
-651.828	-51.219	0.215	-0.128
-650.814	-4.597	0.271	-0.239
-649.799	234.099	-0.072	-0.152
-648.784	-200.000	-0.050	0.302
-647.770	32.183	0.098	0.108
-646.755	-200.000	-0.022	-0.278
-645.741	33.898	0.021	-0.023
-644.726	-33.083	0.189	-0.134
-643.711	2.616	-0.166	0.153
-642.697	-90.024	0.307	-0.114
-641.682	-178.712	-0.072	0.002
-640.668	-28.945	-0.161	0.118
-639.653	-156.046	-0.459	-0.037
-638.638	-135.773	0.302	0.045
-637.624	245.667	0.093	-0.200
-636.609	-3.530	-0.445	0.395
-635.595	125.334	0.088	0.142
-634.580	-73.403	-0.290	-0.135
-633.565	-52.139	-0.343	-0.203
-632.551	180.393	-0.190	-0.358
-631.536	-116.380	0.336	-0.079
-630.522	-64.932	0.196	-0.101
-629.507	-200.000	-0.001	0.045
-628.492	-84.359	-0.118	-0.048
-627.478	-6.813	0.331	0.287
-626.463	-99.674	-0.558	0.178
-625.449	-80.374	-0.178	-0.076
-624.434	78.486	0.208	0.284
-623.419	-139.661	0.194	-0.026
-622.405	171.233	-0.282	-0.517
-621.390	61.895	-0.237	0.301
-620.376	-200.000	0.009	0.051
-619.361	-114.284	0.118	-0.029
-618.346	46.492	-0.133	-0.158
-617.332	-142.899	0.140	0.017
-616.317	713.884	0.047	0.160
-615.303	-135.640	-0.630	-0.094
-614.288	-200.000	0.055	0.363
-613.273	34.397	-0.043	-0.048
-612.259	47.229	0.101	-0.120
-611.244	-73.768	-0.363	0.168
-610.230	67.401	-0.260	0.339
-609.215	800.000	-0.068	0.330
-608.201	-200.000	0.003	-0.087
-607.186	800.000	-0.084	-0.408
-606.171	-72.015	-0.263	0.124
-605.157	36.559	0.231	0.261
-604.142	9.201	-0.173	-0.167
-603.128	-200.000	0.001	0.291
-602.113	-200.000	-0.006	0.200
-601.098	458.786	0.058	-0.165
-600.084	22.388	0.355	0.370
-599.069	235.577	-0.135	0.286
-598.055	800.000	-0.199	0.717
-597.040	-200.000	-0.016	0.225
-596.025	70.743	-0.101	-0.134
-595.011	4.556	0.117	0.110
-593.996	379.006	-0.019	-0.050
-592.982	-79.797	-0.412	0.176
-591.967	-200.000	0.012	0.142
-590.952	-130.758	-0.383	0.065
-589.938	109.033	0.133	0.203
-588.923	-200.000	0.034	0.702
-587.909	419.928	-0.170	0.465
-586.894	-133.743	-0.244	-0.038
-585.879	21.961	0.047	-0.049
-584.865	-100.405	-0.153	-0.048
-583.850	-57.126	-0.239	0.134
-582.836	721.016	0.066	0.227
-581.821	-99.341	-0.200	0.064
-580.806	-200.000	0.001	0.016
-579.792	-64.325	0.147	-0.076
-578.777	-50.187	0.182	-0.110
-577.763	800.000	-0.042	-0.171
-576.748	-155.539	-0.476	-0.039
-575.733	311.855	-0.077	0.184
-574.719	-200.000	-0.005	-0.262
-573.704	15.050	0.133	-0.133
-572.690	172.895	0.240	0.441
-571.675	5.044	0.308	-0.289
-570.661	-48.656	-0.253	0.154
-569.646	-7.425	-0.200	-0.173
-568.631	-61.661	-0.297	0.158
-567.617	128.902	0.277	0.451
-566.602	-12.540	-0.269	-0.224
-565.588	-200.000	0.019	0.155
-564.573	702.537	-0.090	0.304
-563.558	167.729	-0.122	0.222
-562.544	329.102	0.080	0.196
-561.529	800.000	0.042	0.220
-560.515	-200.000	-0.016	-0.093
-559.500	275.189	-0.116	-0.263
-558.485	-114.179	-0.445	-0.109
-557.471	800.000	-0.072	-0.273
-556.456	179.857	0.105	0.196
-555.442	218.765	-0.043	-0.087
-554.427	9.911	-0.293	0.283
-553.412	-99.068	-0.846	-0.271
-552.398	-156.969	-0.220	-0.017
-551.383	-95.652	0.257	-0.087
-550.369	-145.299	0.299	-0.034
-549.354	-124.905	0.372	-0.072
-548.339	-57.218	-0.120	0.067
-547.325	-129.018	-0.298	-0.053
-546.310	-51.145	-0.131	0.078
-545.296	-118.819	0.461	0.102
-544.281	66.751	-0.103	0.134
-543.266	-200.000	-0.002	-0.255
-542.252	-200.000	0.058	0.551
-541.237	479.988	-0.158	0.460
-540.223	93.304	-0.026	0.038
-539.208	800.000	0.086	-0.418
-538.193	18.581	0.282	-0.287
-537.179	408.160	0.107	0.289
-536.164	48.830	0.134	0.161
-535.150	-80.794	0.083	-0.035
-534.135	-8.937	-0.273	-0.232
-533.121	-136.605	0.545	0.079
-532.106	800.000	0.194	-0.777
-531.091	260.118	-0.118	0.260
-530.077	302.094	0.204	-0.482
-529.062	-64.765	0.156	-0.080
-528.048	260.140	-0.034	0.075
-527.033	695.601	0.103	0.347
-526.018	18.458	0.031	-0.031
-525.004	-160.979	-0.123	-0.008
-523.989	-165.798	0.273	0.015
-522.975	-111.800	0.208	-0.053
-521.960	-158.861	0.399	0.029
-520.945	21.625	0.062	0.064
-519.931	-5.677	-0.138	-0.120
-518.916	753.253	-0.105	-0.363
-517.902	470.077	0.105	0.301
-516.887	-14.273	0.106	-0.087
-515.872	800.000	0.032	-0.129
-514.858	-68.899	-0.377	0.184
-513.843	-200.000	-0.028	0.295
-512.829	192.608	0.024	0.046
-511.814	-86.258	-0.632	-0.246
-510.799	-54.107	0.135	-0.078
-509.785	800.000	0.112	-0.410
-508.770	13.137	0.010	0.009
-507.756	-131.345	0.380	-0.063
-506.741	800.000	-0.018	-0.102
-505.726	-160.458	-0.055	0.004
-504.712	4.271	0.312	0.291
-503.697	-200.000	0.009	0.314
-502.683	102.135	-0.048	0.071
-501.668	177.647	0.092	-0.171
-500.653	-42.304	-0.151	0.098
-499.639	800.000	0.017	-0.077
-498.624	-200.000	-0.071	0.668
-497.610	-170.208	0.192	0.008
-496.595	-129.119	-0.371	0.065
-495.581	-200.000	0.080	0.474
-494.566	106.353	-0.159	0.240
-493.551	-79.747	-0.399	-0.170
-492.537	209.297	0.079	-0.157
-491.522	23.793	-0.290	-0.303
-490.508	763.510	0.019	0.067
-489.493	-200.000	-0.005	-0.103
-488.478	-16.452	-0.204	0.164
-487.464	87.509	0.136	0.192
-486.449	51.232	-0.169	-0.203
-485.435	-183.687	-0.251	0.005
-484.420	800.000	0.066	0.241
-483.405	800.000	0.070	-0.334
-482.391	800.000	-0.068	-0.334
-481.376	51.946	0.085	-0.103
-480.362	-123.341	-0.180	-0.036
-479.347	-45.051	-0.252	0.159
-478.332	-122.247	0.717	-0.148
-477.318	-14.046	0.269	-0.220
-476.303	-101.739	0.299	-0.091
-475.289	-16.159	-0.061	0.049
-474.274	471.371	-0.128	-0.368
-473.259	-60.433	-0.241	0.129
-472.245	-200.000	-0.035	0.663
-471.230	-70.476	-0.689	-0.330
-470.216	-116.487	0.183	0.042
-469.201	233.545	0.082	-0.171
-468.186	-36.708	0.468	-0.319
-467.172	-200.000	0.076	0.435
-466.157	-69.957	0.543	-0.262
-465.143	-83.728	0.016	0.006
-464.128	-107.421	-0.112	-0.031
-463.113	-86.128	-0.396	0.154
-462.099	-108.401	0.355	-0.097
-461.084	-98.884	0.294	0.094
-460.070	131.351	0.166	-0.271
-459.055	185.464	-0.222	-0.419
-458.040	148.906	-0.067	0.116
-457.026	-197.997	0.079	-0.001
-456.011	-200.000	0.008	0.399
-454.997	-200.000	0.082	0.462
-453.982	-200.000	0.032	-0.396
-452.968	-152.281	0.340	0.031
-451.953	262.866	-0.104	0.229
-450.938	260.445	-0.187	-0.412
-449.924	-200.000	0.002	0.116
-448.909	62.947	0.162	-0.206
-447.895	-20.047	-0.138	-0.108
-446.880	-50.974	-0.250	0.148
-445.865	9.641	0.166	-0.159
-444.851	-49.882	0.389	0.234
-443.836	-61.836	-0.371	-0.196
-442.822	-200.000	0.050	-0.312
-441.807	-29.105	-0.288	-0.209
-440.792	93.848	-0.151	-0.218
-439.778	573.154	0.079	0.244
-438.763	-130.793	-0.136	0.023
-437.749	16.319	0.138	0.138
-436.734	-106.737	0.511	-0.143
-435.719	-200.000	0.066	-0.375
-434.705	-95.094	-0.359	0.122
-433.690	-156.252	0.316	0.025
-432.676	800.000	-0.128	-0.451
-431.661	-48.806	0.490	-0.297
-430.646	-200.000	0.074	0.684
-429.632	83.644	0.164	0.227
-428.617	-200.000	0.039	-0.398
-427.603	-105.595	-0.236	-0.067
-426.588	-155.401	0.393	0.032
-425.573	745.171	-0.090	0.309
-424.559	224.284	-0.265	-0.545
-423.544	-100.998	0.383	-0.118
-422.530	-150.272	0.277	-0.027
-421.515	-17.711	0.427	-0.339
-420.500	491.480	0.157	-0.456
-419.486	22.494	0.038	-0.039
-418.471	-50.794	0.145	0.086
-417.457	254.232	-0.102	0.221
-416.442	-141.098	-0.425	0.054
-415.428	-5.189	-0.075	0.065
-414.413	-8.050	0.371	0.317
-413.398	800.000	0.146	-0.724
-412.384	-149.352	-0.302	0.030
-411.369	-33.332	-0.167	-0.116
-410.355	-90.585	-0.220	-0.080
-409.340	151.812	-0.188	0.325
-408.325	-134.135	-0.508	0.079
-407.311	-2.653	-0.076	-0.067
-406.296	-84.581	-0.381	0.151
-405.282	-29.993	0.204	0.147
-404.267	42.683	-0.218	-0.252
-403.252	-70.273	0.215	-0.103
-402.238	-17.181	-0.072	-0.058
-401.223	800.000	-0.044	-0.215
-400.209	-151.534	-0.163	-0.015
-399.194	-81.158	0.218	0.091
-398.179	62.061	-0.244	0.308
-397.165	93.798	-0.046	0.067
-396.150	363.155	-0.139	0.356
-395.136	2.437	-0.072	-0.066
-394.121	23.820	0.535	0.558
-393.106	-200.000	0.055	0.481
-392.092	79.364	-0.168	0.228
-391.077	31.007	-0.161	0.174
-390.063	217.213	0.168	-0.340
-389.048	800.000	-0.129	-0.459
-388.033	258.516	0.187	0.409
-387.019	127.722	-0.279	0.449
-386.004	12.310	0.204	-0.199
-384.990	-152.932	0.278	-0.025
-383.975	93.310	-0.200	0.286
-382.960	800.000	0.035	0.160
-381.946	-148.883	0.105	0.011
-380.931	80.359	-0.086	0.117
-379.917	-200.000	-0.055	0.461
-378.902	-132.931	-0.275	0.044
-377.888	-200.000	0.013	0.245
-376.873	800.000	-0.016	-0.068
-375.858	-21.291	-0.465	-0.358
-374.844	-126.122	-0.338	-0.063
-373.829	-200.000	-0.023	-0.285
-372.815	162.619	0.165	0.293
-371.800	-21.533	-0.333	0.256
-370.785	-57.354	-0.261	-0.145
-369.771	422.737	0.221	-0.602
-368.756	109.848	-0.171	-0.259
-367.742	7.611	-0.208	-0.197
-366.727	-10.972	-0.096	-0.080
-365.712	44.038	0.099	0.115
-364.698	-16.734	-0.263	-0.210
-363.683	-21.107	-0.423	-0.326
-362.669	-200.000	-0.007	-0.139
-361.654	794.820	0.093	0.326
-360.639	674.625	0.028	-0.093
-359.625	363.887	0.085	-0.218
-358.610	-200.000	-0.045	-0.628
-357.596	-200.000	0.030	-0.328
-356.581	-0.720	-0.291	0.260
-355.566	-93.267	0.310	-0.108
-354.552	-200.000	0.021	-0.198
-353.537	-126.362	0.358	0.067
-352.523	-128.895	0.070	-0.012
-351.508	-28.738	0.179	0.130
-350.493	346.069	-0.210	0.523
-349.479	577.101	-0.167	-0.520
-348.464	-105.618	0.452	0.128
-347.450	14.209	0.247	-0.243
-346.435	29.349	0.247	0.265
-345.420	107.814	-0.346	-0.521
-344.406	-13.759	0.180	0.147
-343.391	7.235	0.420	0.395
-342.377	-28.129	-0.322	-0.235
-341.362	-200.000	-0.016	-0.131
-340.348	-153.046	-0.109	-0.010
-339.333	-86.703	0.145	-0.056
-338.318	-79.485	-0.124	0.053
-337.304	-147.892	-0.454	-0.047
-336.289	165.233	0.061	-0.110
-335.275	800.000	-0.090	-0.456
-334.260	-72.746	0.120	-0.056
-333.245	0.258	0.130	-0.117
-332.231	-119.735	0.413	-0.089
-331.216	23.799	0.160	0.167
-330.202	111.865	-0.232	-0.354
-329.187	-75.349	-0.358	-0.160
-328.172	212.738	-0.125	-0.251
-327.158	-67.106	0.103	-0.051
-326.143	-119.540	0.317	-0.069
-325.129	-22.705	-0.247	0.188
-324.114	-88.389	-0.129	0.048
-323.099	-101.005	0.731	-0.225
-322.085	-103.667	-0.141	-0.041
-321.070	-145.108	-0.150	0.017
-320.056	-200.000	-0.064	0.382
-319.041	-73.570	0.469	0.215
-318.026	-200.000	0.001	-0.162
-317.012	-200.000	-0.014	-0.485
-315.997	15.921	0.373	0.370
-314.983	800.000	-0.090	0.403
-313.968	-88.112	0.124	-0.047
-312.953	0.122	-0.237	-0.213
-311.939	586.636	0.164	-0.512
-310.924	4.246	0.287	0.265
-309.910	-92.889	0.316	0.111
-308.895	-19.346	0.314	-0.245
-307.880	-121.067	0.372	0.078
-306.866	800.000	-0.044	0.199
-305.851	-10.716	-0.151	-0.126
-304.837	-131.107	-0.718	0.119
-303.822	-200.000	0.003	-0.062
-302.807	541.979	0.089	0.270
-301.793	-135.653	0.360	0.053
-300.778	235.026	0.242	0.505
-299.764	647.572	0.062	-0.200
-298.749	-200.000	-0.004	-0.646
-297.735	403.138	0.110	-0.293
-296.720	800.000	-0.060	-0.274
-295.705	92.341	0.079	-0.112
-294.691	-105.755	0.156	0.044
-293.676	195.676	0.099	0.191
-292.662	-95.201	0.275	-0.093
-291.647	37.197	0.198	-0.221
-290.632	573.141	0.202	-0.625
-289.618	-9.476	-0.089	0.075
-288.603	46.313	-0.242	0.283
-287.589	-46.275	-0.342	0.211
-286.574	131.429	0.260	0.423
-285.559	140.163	-0.083	0.138
-284.545	-55.848	0.131	-0.073
-283.530	97.999	0.096	0.140
-282.516	388.953	0.036	-0.093
-281.501	230.317	-0.150	0.311
-280.486	-137.591	0.564	0.079
-279.472	800.000	-0.062	0.314
-278.457	-200.000	0.015	0.203
-277.443	-200.000	-0.057	-0.602
-276.428	397.382	0.038	0.101
-275.413	62.046	-0.044	-0.056
-274.399	-200.000	0.048	-0.480
-273.384	-111.602	0.567	0.144
-272.370	-29.616	-0.130	-0.093
-271.355	6.840	-0.231	-0.217
-270.340	472.175	-0.067	-0.191
-269.326	-29.748	-0.581	-0.417
-268.311	-139.561	0.249	0.033
-267.297	442.180	0.093	0.256
-266.282	75.976	-0.124	0.166
-265.267	108.709	-0.158	-0.238
-264.253	-200.000	-0.008	0.055
-263.238	241.725	0.217	-0.458
-262.224	800.000	-0.040	0.199
-261.209	-92.378	-0.307	0.108
-260.195	-68.669	0.321	-0.156
-259.180	7.129	0.326	-0.306
-258.165	95.678	0.236	0.340
-257.151	450.481	-0.167	0.466
-256.136	-23.354	0.270	0.204
-255.122	142.246	-0.184	0.308
-254.107	108.695	-0.480	-0.724
-253.092	98.700	-0.255	-0.371
-252.078	76.810	-0.434	0.581
-251.063	37.427	0.205	-0.228
-250.049	-87.570	0.252	0.095
-249.034	-32.968	0.146	-0.101
-248.019	-200.000	-0.032	0.450
-247.005	800.000	0.142	0.612
-245.990	-46.163	0.307	0.189
-244.976	-17.369	-0.588	0.465
-243.961	20.598	0.186	0.189
-242.946	-70.587	-0.422	-0.200
-241.932	-114.216	0.369	-0.089
-240.917	800.000	-0.070	-0.255
-239.903	-77.669	0.440	0.190
-238.888	-55.109	0.210	-0.119
-237.873	35.626	0.279	0.308
-236.859	-200.000	-0.086	0.646
-235.844	-200.000	0.036	-0.261
-234.830	146.279	-0.158	-0.267
-233.815	59.924	0.068	-0.085
-232.800	-117.235	-0.137	0.031
-231.786	-95.706	-0.231	0.077
-230.771	-173.406	-0.422	0.016
-229.757	-133.991	0.186	-0.029
-228.742	-200.000	-0.010	-0.309
-227.727	800.000	-0.042	-0.189
-226.713	-80.380	0.064	0.027
-225.698	25.254	0.483	0.504
-224.684	-200.000	-0.030	-0.306
-223.669	-200.000	0.051	0.609
-222.655	368.554	-0.196	-0.501
-221.640	-3.142	0.182	0.159
-220.625	150.434	-0.135	-0.231
-219.611	-200.000	-0.014	-0.307
-218.596	74.739	-0.238	-0.315
-217.582	-51.018	0.130	-0.076
-216.567	41.442	-0.118	0.134
-215.552	295.474	0.241	-0.556
-214.538	-105.403	0.705	-0.200
-213.523	-200.000	-0.029	-0.226
-212.509	187.891	0.123	0.231
-211.494	97.379	-0.083	-0.120
-210.479	-68.731	0.250	-0.121
-209.465	383.838	-0.036	0.094
-208.450	-200.000	-0.018	0.348
-207.436	-21.486	-0.375	0.287
-206.421	800.000	-0.059	-0.300
-205.406	61.243	-0.122	-0.153
-204.392	-200.000	-0.014	-0.218
-203.377	79.382	-0.123	-0.166
-202.363	-128.671	-0.118	-0.021
-201.348	26.438	0.279	-0.293
-200.333	800.000	0.092	0.492
-199.319	-62.930	0.172	0.089
-198.304	-13.275	0.093	0.076
-197.290	800.000	0.088	-0.366
-196.275	-10.988	0.247	-0.204
-195.260	-200.000	0.052	-0.325
-194.246	-135.697	-0.244	0.036
-193.231	269.157	0.166	0.367
-192.217	-165.634	0.525	-0.028
-191.202	-74.499	0.111	-0.050
-190.187	-108.057	-0.186	-0.050
-189.173	800.000	0.032	-0.171
-188.158	-165.838	-0.269	0.014
-187.144	-181.500	0.271	0.007
-186.129	789.985	-0.111	0.384
-185.114	800.000	-0.102	0.524
-184.100	255.879	0.186	0.401
-183.085	-167.763	0.585	-0.029
-182.071	-22.652	-0.210	0.159
-181.056	-11.195	0.232	0.192
-180.042	-200.000	0.013	0.530
-179.027	58.752	-0.153	0.189
-178.012	166.964	0.025	0.045
-176.998	800.000	-0.063	-0.248
-175.983	44.576	0.292	-0.336
-174.969	-25.213	-0.358	-0.266
-173.954	800.000	0.055	0.293
-172.939	-171.140	0.267	-0.011
-171.925	44.002	0.109	0.125
-170.910	800.000	0.026	-0.131
-169.896	-200.000	-0.005	0.158
-168.881	-78.076	-0.265	0.114
-167.866	-140.085	-0.179	-0.023
-166.852	392.525	0.028	0.073
-165.837	-200.000	0.017	0.304
-164.823	-9.965	-0.219	-0.182
-163.808	-200.000	0.003	0.080
-162.793	-85.368	-0.472	-0.184
-161.779	-130.342	-0.334	0.056
-160.764	-51.604	0.047	-0.027
-159.750	45.832	-0.216	-0.250
-158.735	-65.931	-0.451	-0.225
-157.720	-200.000	-0.001	-0.229
-156.706	46.533	0.176	0.204
-155.691	162.915	0.424	-0.749
-154.677	53.186	0.112	0.134
-153.662	132.437	-0.107	-0.173
-152.647	-58.415	0.381	-0.207
-151.633	-154.702	-0.060	-0.005
-150.618	-57.722	-0.131	0.071
-149.604	486.859	-0.110	-0.316
-148.589	-153.470	0.283	-0.024
-147.574	-39.646	0.152	-0.100
-146.560	-122.858	0.143	-0.029
-145.545	187.207	0.195	-0.365
-144.531	-40.020	-0.326	-0.213
-143.516	800.000	0.027	-0.101
-142.502	-144.579	-0.385	0.044
-141.487	-32.002	0.160	0.112
-140.472	-122.460	-0.121	-0.024
-139.458	-81.001	0.098	-0.041
-138.443	254.649	-0.191	-0.411
-137.429	-98.946	-0.138	0.044
-136.414	294.057	0.107	0.246
-135.399	-200.000	-0.054	-0.581
-134.385	-93.328	0.241	0.083
-133.370	294.517	-0.109	-0.252
-132.356	49.077	0.150	-0.177
-131.341	67.011	-0.139	0.178
-130.326	-140.546	0.431	0.055
-129.312	416.450	0.100	0.268
-128.297	-130.824	-0.259	0.043
-127.283	163.466	0.209	-0.368
-126.268	4.242	-0.170	-0.156
-125.253	-125.434	-0.146	0.028
-124.239	14.100	0.203	-0.197
-123.224	90.613	-0.287	-0.404
-122.210	-55.353	0.231	0.130
-121.195	529.684	0.142	-0.422
-120.180	82.530	-0.453	-0.617
-119.166	-77.574	0.513	-0.222
-118.151	-200.000	-0.012	0.166
-117.137	162.970	-0.111	0.195
-116.122	-176.107	-0.561	0.018
-115.107	149.158	-0.128	0.217
-114.093	-115.499	-0.207	-0.048
-113.078	800.000	0.067	0.257
-112.064	203.222	0.055	-0.106
-111.049	800.000	0.097	0.383
-110.034	-200.000	-0.650	0.000
-109.020	-146.789	-0.160	0.017
-108.005	247.546	-0.177	0.377
-106.991	-143.659	0.429	-0.050
-105.976	-46.644	0.735	0.449
-104.962	-200.000	-0.023	0.234
-103.947	-31.861	-0.086	-0.060
-102.932	-92.160	-0.287	0.101
-101.918	-200.000	-0.033	-0.259
-100.903	-35.312	-0.468	-0.318
-99.889	-71.363	0.155	0.072
-98.874	141.733	-0.126	0.210
-97.859	175.602	0.198	-0.360
-96.845	800.000	0.067	-0.264
-95.830	-113.965	0.201	0.048
-94.816	320.995	-0.120	-0.286
-93.801	-161.232	-0.058	0.004
-92.786	-27.638	0.640	-0.463
-91.772	-31.944	0.379	-0.265
-90.757	121.829	0.253	-0.396
-89.743	33.656	-0.136	-0.147
-88.728	-200.000	0.003	0.672
-87.713	-94.134	0.074	0.025
-86.699	12.517	-0.257	-0.248
-85.684	162.665	-0.147	0.259
-84.670	800.000	-0.076	-0.407
-83.655	242.479	-0.065	-0.136
-82.640	-19.981	-0.129	-0.099
-81.626	-105.865	-0.134	0.038
-80.611	-10.455	0.196	0.163
-79.597	-44.381	0.210	-0.131
-78.582	-170.435	0.172	0.007
-77.567	-62.411	0.213	-0.110
-76.553	113.545	-0.162	-0.246
-75.538	263.145	0.273	0.596
-74.524	13.873	-0.320	0.311
-73.509	-35.676	-0.230	0.155
-72.494	-7.024	-0.437	-0.370
-71.480	-153.822	-0.494	-0.042
-70.465	-200.000	0.004	-0.164
-69.451	-200.000	-0.034	0.385
-68.436	403.736	0.054	-0.143
-67.422	384.263	0.061	-0.158
-66.407	-135.066	-0.066	-0.010
-65.392	-131.576	-0.581	-0.095
-64.378	-106.952	-0.160	0.044
-63.363	71.479	0.188	-0.244
-62.349	-72.012	0.074	-0.034
-61.334	-12.894	-1.798	-1.461
-60.319	76.388	0.876	1.160
-59.305	257.606	-3.201	-6.904
-58.290	13.910	3.715	3.608
-57.276	644.073	3.519	11.275
-56.261	-200.000	16.420	247.800
-55.246	447.842	1194.515	3300.726
-54.232	63.517	2813.424	3529.073
-53.217	72.346	2707.940	3527.679
-52.203	60.446	2441.449	3020.752
-51.188	36.439	2097.674	2311.179
-50.173	32.623	1974.795	2132.399
-49.159	30.362	1964.183	2095.245
-48.144	29.965	1960.408	2086.639
-47.130	29.927	1957.441	2082.962
-46.115	29.862	1955.802	2080.404
-45.100	29.813	1954.913	2078.828
-44.086	29.685	1952.840	2075.090
-43.071	29.702	1951.799	2074.098
-42.057	29.754	1949.744	2072.412
-41.042	29.686	1948.268	2069.999
-40.027	29.641	1946.845	2067.895
-39.013	29.662	1946.003	2067.154
-37.998	29.701	1943.940	2065.325
-36.984	29.542	1943.119	2062.580
-35.969	29.641	1941.628	2062.025
-34.954	29.558	1940.660	2059.988
-33.940	29.594	1938.549	2058.070
-32.925	29.500	1937.676	2056.008
-31.911	29.465	1937.324	2055.165
-30.896	29.539	1935.174	2053.622
-29.881	29.544	1934.012	2052.371
-28.867	29.418	1933.351	2050.181
-27.852	29.614	1930.895	2049.677
-26.838	29.435	1930.147	2046.808
-25.823	29.486	1928.850	2045.922
-24.809	29.463	1927.719	2044.383
-23.794	29.509	1926.523	2043.548
-22.779	29.629	1923.735	2041.840
-21.765	29.443	1922.815	2038.714
-20.750	29.453	1922.471	2038.380
-19.736	29.406	1920.773	2035.974
-18.721	29.528	1919.756	2036.176
-17.706	29.348	1919.020	2033.312
-16.692	29.377	1917.155	2031.583
-15.677	29.451	1915.747	2030.825
-14.663	29.506	1914.628	2030.172
-13.648	29.420	1912.722	2027.117
-12.633	29.268	1911.999	2024.588
-11.619	29.441	1909.686	2023.969
-10.604	29.362	1909.400	2022.715
-9.590	29.390	1907.896	2021.346
-8.575	29.375	1907.539	2020.722
-7.560	29.336	1906.162	2018.760
-6.546	29.324	1905.413	2017.753
-5.531	29.434	1903.238	2016.573
-4.517	29.322	1902.629	2014.623
-3.502	29.381	1902.019	2014.542
-2.487	29.401	1900.766	2013.355
-1.473	29.489	1897.476	2010.759
-0.458	29.795	1878.876	1994.280
0.556	26.904	2020.640	2098.665
1.571	26.318	2235.716	2314.220
2.586	27.630	2281.359	2378.400
3.600	27.559	2284.806	2380.775
4.615	27.655	2283.444	2380.332
5.629	27.781	2281.742	2379.919
6.644	27.780	2279.680	2377.474
7.659	27.845	2277.457	2375.726
8.673	27.872	2275.833	2374.106
9.688	27.258	2282.095	2372.301
10.702	25.133	2357.284	2421.352
11.717	23.143	2423.781	2461.561
12.731	12.165	2393.931	2278.490
13.746	2.112	2366.433	2112.747
14.761	0.596	2360.899	2086.522
15.775	0.407	2359.584	2082.480
16.790	0.394	2357.391	2080.121
17.804	0.308	2356.242	2077.658
18.819	0.218	2356.396	2076.304
19.834	0.312	2353.552	2074.847
20.848	0.314	2351.959	2073.221
21.863	0.329	2350.396	2071.806
22.877	0.298	2348.890	2069.798
23.892	0.270	2347.031	2067.531
24.907	0.203	2344.426	2064.067
25.921	0.283	2343.016	2063.679
26.936	0.218	2340.459	2060.281
27.950	0.312	2338.149	2059.290
28.965	0.296	2334.775	2055.863
29.980	0.320	2334.409	2055.616
30.994	0.396	2332.425	2054.666
32.009	5.864	2352.237	2147.238
33.023	20.742	2398.139	2396.215
34.038	28.903	2416.612	2527.675
35.053	30.682	2418.348	2553.765
36.067	31.050	2416.476	2556.548
37.082	31.066	2414.622	2554.503
38.096	31.069	2412.528	2552.024
39.111	31.366	2411.688	2554.912
40.126	31.743	2410.792	2558.831
41.140	32.481	2410.242	2568.062
42.155	31.595	2406.476	2551.616
43.169	31.185	2403.645	2542.690
44.184	31.483	2401.779	2544.492
45.199	31.462	2398.447	2540.369
46.213	31.341	2397.076	2536.963
47.228	31.065	2396.137	2531.893
48.242	30.934	2394.369	2527.939
49.257	31.218	2392.222	2529.234
50.271	31.476	2391.057	2531.216
51.286	31.672	2389.138	2531.543
52.301	31.469	2386.236	2525.415
53.315	29.716	2379.613	2494.352
54.330	26.383	2367.477	2436.275
55.344	24.305	2359.452	2399.648
56.359	24.178	2354.857	2392.971
57.374	23.854	2352.715	2386.140
58.388	23.770	2350.843	2382.817
59.403	24.231	2347.570	2385.422
60.417	24.575	2347.427	2389.622
61.432	24.816	2345.803	2390.917
62.447	24.634	2342.843	2385.169
63.461	24.490	2340.451	2380.518
64.476	24.482	2337.841	2377.479
65.490	25.113	2339.480	2387.305
66.505	26.364	2342.931	2407.302
67.520	28.312	2348.918	2439.267
68.534	29.431	2349.909	2454.984
69.549	30.384	2348.579	2466.023
70.563	30.727	2347.374	2469.037
71.578	30.761	2346.279	2468.048
72.593	30.930	2345.480	2469.165
73.607	31.521	2345.042	2476.275
74.622	31.686	2343.636	2476.688
75.636	31.375	2339.015	2467.381
76.651	30.994	2336.403	2459.279
77.666	31.076	2332.996	2456.479
78.680	30.996	2331.709	2453.773
79.695	31.288	2332.262	2457.926
80.709	31.655	2331.610	2461.796
81.724	31.772	2330.941	2462.334
82.739	32.056	2328.261	2462.954
83.753	31.971	2326.349	2459.522
84.768	31.788	2323.396	2453.696
85.782	31.695	2322.160	2450.876
86.797	31.683	2320.472	2448.642
87.812	31.299	2317.308	2439.971
88.826	30.871	2314.577	2431.186
89.841	31.391	2313.044	2436.104
90.855	32.139	2312.837	2445.390
91.870	31.552	2308.918	2433.276
92.884	31.255	2307.363	2427.473
93.899	31.625	2307.202	2431.845
94.914	30.654	2301.835	2413.237
95.928	27.269	2291.420	2358.002
96.943	25.761	2287.248	2333.800
97.957	28.551	2294.859	2377.687
98.972	30.733	2297.422	2408.491
99.987	30.466	2293.355	2400.461
101.001	30.645	2290.784	2399.814
102.016	30.859	2290.115	2401.593
103.030	30.964	2287.684	2400.122
104.045	31.281	2287.747	2404.001
105.060	32.076	2286.282	2412.446
106.074	31.960	2283.387	2407.611
107.089	31.017	2280.405	2392.017
108.103	31.272	2281.025	2395.673
109.118	31.832	2279.528	2401.024
110.133	31.842	2277.406	2398.631
111.147	31.786	2276.704	2396.887
112.162	31.626	2273.533	2391.203
113.176	31.201	2269.806	2381.545
114.191	31.039	2267.164	2376.422
115.206	30.932	2265.993	2373.531
116.220	30.788	2264.251	2369.586
117.235	30.570	2260.876	2362.986
118.249	30.599	2258.377	2360.461
119.264	31.014	2258.763	2365.870
120.279	31.453	2258.303	2370.707
121.293	31.111	2255.530	2363.164
122.308	30.793	2253.708	2356.916
123.322	30.752	2251.375	2353.681
124.337	29.553	2245.135	2331.670
125.352	26.903	2237.636	2290.033
126.366	26.459	2236.960	2283.428
127.381	28.876	2241.015	2317.977
128.395	30.182	2240.205	2333.391
129.410	30.887	2240.752	2342.593
130.424	31.231	2239.729	2345.585
131.439	31.006	2236.139	2338.715
132.454	30.809	2234.812	2334.566
133.468	31.263	2233.209	2338.329
134.483	30.984	2230.659	2331.864
135.497	30.435	2228.980	2322.930
136.512	31.039	2227.703	2328.910
137.527	31.096	2225.953	2327.514
138.541	30.959	2224.967	2324.488
139.556	30.798	2223.256	2320.402
140.570	30.927	2221.907	2320.334
141.585	31.174	2221.311	2322.528
142.600	31.458	2220.780	2325.248
143.614	31.475	2218.144	2322.421
144.629	31.804	2218.145	2326.248
145.643	31.415	2215.079	2317.901
146.658	31.058	2212.834	2310.835
147.673	31.074	2210.978	2308.819
148.687	31.475	2210.032	2312.536
149.702	31.449	2209.006	2310.861
150.716	31.271	2206.914	2306.195
151.731	31.876	2207.456	2313.988
152.746	32.379	2208.362	2320.899
153.760	30.743	2201.859	2293.545
154.775	26.995	2190.189	2234.843
155.789	25.237	2184.890	2207.441
156.804	27.962	2189.610	2245.666
157.819	30.181	2192.562	2275.837
158.833	30.824	2191.570	2282.457
159.848	31.403	2190.807	2288.510
160.862	31.918	2190.764	2294.531
161.877	32.212	2190.326	2297.411
162.892	32.205	2189.040	2295.699
163.906	32.158	2188.187	2293.953
164.921	32.057	2186.410	2290.582
165.935	32.005	2182.715	2285.798
166.950	31.667	2179.647	2278.178
167.964	31.213	2176.174	2268.733
168.979	30.995	2175.057	2264.628
169.994	31.398	2173.946	2268.119
171.008	31.536	2172.828	2268.373
172.023	31.089	2171.270	2261.020
173.037	31.386	2169.655	2262.684
174.052	31.138	2166.974	2256.609
175.067	30.806	2163.780	2248.979
176.081	30.798	2162.779	2247.570
177.096	31.139	2161.039	2249.633
178.110	30.772	2158.242	2242.006
179.125	30.585	2157.932	2239.150
180.140	30.797	2157.523	2241.022
181.154	30.808	2155.066	2238.333
182.169	30.255	2153.262	2229.521
183.183	29.047	2147.721	2208.951
184.198	26.052	2137.402	2162.058
185.213	25.412	2137.111	2153.789
186.227	28.851	2144.971	2202.968
187.242	30.462	2145.209	2222.343
188.256	30.753	2145.597	2225.979
189.271	31.658	2146.675	2237.706
190.286	31.771	2145.697	2237.767
191.300	31.121	2140.771	2224.580
192.315	30.843	2138.461	2218.586
193.329	31.167	2138.338	2222.067
194.344	31.674	2137.162	2226.644
195.359	31.732	2136.837	2226.735
196.373	32.092	2135.861	2229.741
197.388	32.114	2132.823	2226.569
198.402	31.558	2130.015	2216.759
199.417	31.301	2127.743	2211.064
200.432	31.495	2126.306	2211.617
201.446	31.702	2126.371	2213.876
202.461	31.815	2123.984	2212.472
203.475	31.416	2120.472	2203.814
204.490	31.134	2119.304	2198.996
205.504	31.356	2116.461	2198.413
206.519	31.126	2114.073	2192.947
207.534	31.171	2112.710	2191.813
208.548	31.449	2112.266	2194.362
209.563	30.923	2109.747	2185.282
210.577	30.821	2107.847	2181.857
211.592	31.380	2109.052	2189.421
212.607	29.837	2101.213	2162.914
213.621	25.590	2088.648	2099.989
214.636	25.396	2091.256	2100.085
215.650	29.360	2098.596	2153.846
216.665	31.087	2099.325	2174.593
217.680	31.723	2099.228	2181.673
218.694	31.999	2099.796	2185.242
219.709	31.880	2096.570	2180.226
220.723	31.886	2096.024	2179.465
221.738	32.137	2094.330	2180.381
222.753	31.818	2091.733	2173.689
223.767	31.412	2089.444	2166.329
224.782	31.006	2085.078	2156.816
225.796	30.777	2083.973	2152.757
226.811	31.237	2084.454	2158.341
227.826	31.618	2083.478	2161.495
228.840	32.003	2082.644	2164.840
229.855	31.547	2080.802	2157.384
230.869	31.357	2078.399	2152.430
231.884	31.266	2075.825	2148.462
232.899	31.015	2074.429	2143.860
233.913	31.022	2073.331	2142.548
234.928	31.205	2073.221	2144.285
235.942	31.464	2072.303	2146.072
236.957	31.366	2070.212	2142.513
237.972	31.243	2068.513	2139.088
238.986	31.478	2067.602	2140.592
240.001	31.125	2065.138	2133.724
241.015	30.627	2062.128	2124.651
242.030	29.978	2059.001	2113.726
243.045	27.272	2049.926	2073.197
244.059	26.305	2048.222	2060.159
245.074	29.628	2053.447	2103.268
246.088	30.629	2053.517	2114.526
247.103	30.647	2051.307	2112.209
248.117	30.903	2050.982	2114.540
249.132	31.300	2051.577	2119.430
250.147	31.126	2048.433	2113.945
251.161	30.474	2045.768	2103.527
252.176	30.659	2044.190	2103.758
253.190	30.249	2039.184	2093.696
254.205	29.246	2035.012	2077.806
255.220	29.419	2034.840	2079.337
256.234	29.586	2035.374	2081.527
257.249	29.800	2035.045	2083.367
258.263	29.887	2033.857	2082.890
259.278	29.542	2030.813	2075.621
260.293	29.410	2028.956	2071.990
261.307	30.301	2028.845	2081.670
262.322	30.937	2028.824	2088.577
263.336	30.763	2026.301	2083.771
264.351	30.870	2024.752	2083.132
265.366	31.084	2024.855	2085.385
266.380	31.130	2024.386	2085.178
267.395	30.791	2022.249	2078.922
268.409	30.961	2021.350	2079.651
269.424	31.736	2021.212	2087.945
270.439	32.079	2020.565	2090.876
271.453	30.729	2014.028	2068.780
272.468	26.577	2001.763	2009.715
273.482	25.722	2001.378	1999.549
274.497	29.139	2007.601	2043.725
275.512	31.230	2009.124	2068.339
276.526	31.650	2007.085	2070.667
277.541	31.615	2004.763	2067.630
278.555	31.318	2003.809	2063.097
279.570	30.693	2000.691	2052.714
280.585	30.283	1999.330	2046.525
281.599	30.909	1999.288	2053.179
282.614	31.071	1996.416	2051.773
283.628	30.040	1993.339	2036.974
284.643	30.001	1992.436	2035.385
285.657	30.193	1992.193	2037.010
286.672	29.964	1989.682	2031.670
287.687	29.381	1986.288	2021.543
288.701	28.882	1982.953	2012.415
289.716	28.619	1981.461	2007.771
290.730	28.685	1980.058	2006.832
291.745	29.165	1979.274	2011.073
292.760	29.266	1978.769	2011.419
293.774	29.356	1979.019	2012.420
294.789	30.819	1981.217	2030.467
295.803	31.388	1978.943	2034.121
296.818	31.079	1977.638	2029.161
297.833	31.118	1977.278	2028.976
298.847	31.229	1976.359	2028.997
299.862	31.285	1973.720	2026.654
300.876	30.155	1967.461	2007.692
301.891	26.597	1958.313	1959.490
302.906	25.944	1959.145	1952.980
303.920	29.628	1966.081	1999.837
304.935	31.078	1966.686	2015.975
305.949	31.062	1963.768	2012.570
306.964	31.395	1963.330	2015.492
307.979	31.474	1961.769	2014.501
308.993	30.200	1956.537	1995.122
310.008	29.043	1952.572	1978.347
311.022	29.140	1952.423	1979.010
312.037	29.714	1951.866	1984.400
313.052	29.228	1947.302	1974.295
314.066	28.158	1941.896	1957.076
315.081	27.444	1940.378	1947.640
316.095	27.146	1939.599	1943.421
317.110	27.315	1938.557	1943.956
318.125	28.011	1938.330	1950.964
319.139	28.768	1938.731	1959.256
320.154	29.901	1939.778	1972.227
321.168	29.945	1936.929	1969.558
322.183	30.224	1937.838	1973.233
323.197	30.925	1938.732	1981.405
324.212	31.256	1936.318	1982.235
325.227	31.163	1935.820	1980.494
326.241	31.446	1935.092	1982.533
327.256	31.743	1933.523	1983.852
328.270	31.541	1932.762	1980.674
329.285	31.707	1932.147	1981.576
330.300	30.753	1927.000	1965.934
331.314	26.332	1915.603	1907.301
332.329	25.887	1915.477	1902.226
333.343	29.738	1923.331	1950.728
334.358	31.946	1925.974	1976.591
335.373	32.349	1924.520	1979.136
336.387	32.156	1922.398	1974.670
337.402	32.118	1920.717	1972.310
338.416	31.882	1918.878	1967.698
339.431	31.744	1917.666	1964.764
340.446	32.236	1915.427	1967.414
341.460	31.621	1912.663	1957.877
342.475	30.814	1908.585	1944.994
343.489	30.044	1904.645	1932.677
344.504	29.420	1902.842	1924.081
345.519	28.931	1900.480	1916.339
346.533	28.425	1897.370	1907.680
347.548	28.514	1896.311	1907.320
348.562	29.076	1896.473	1913.121
349.577	29.280	1895.173	1913.711
350.592	28.850	1894.025	1907.839
351.606	28.714	1892.478	1904.638
352.621	28.608	1889.895	1900.700
353.635	29.185	1890.918	1907.509
354.650	29.786	1890.056	1912.667
355.665	30.051	1889.110	1914.236
356.679	30.247	1888.343	1915.264
357.694	30.694	1888.656	1919.983
358.708	31.012	1888.852	1923.254
359.723	30.076	1882.496	1906.878
360.738	26.534	1872.748	1860.255
361.752	26.583	1875.672	1863.444
362.767	30.133	1880.237	1904.493
363.781	31.258	1879.925	1915.557
364.796	31.557	1880.081	1918.564
365.810	31.181	1878.586	1912.936
366.825	31.342	1877.362	1913.123
367.840	31.596	1877.009	1915.141
368.854	31.514	1876.440	1913.493
369.869	30.962	1873.036	1904.129
370.883	30.465	1870.804	1896.528
371.898	29.898	1867.390	1887.031
372.913	29.648	1865.011	1881.840
373.927	29.582	1863.772	1879.695
374.942	29.616	1861.841	1877.864
375.956	29.520	1860.439	1875.248
376.971	29.300	1857.028	1869.341
377.986	28.542	1854.627	1858.984
379.000	28.983	1855.603	1864.234
380.015	30.554	1857.630	1882.055
381.029	31.493	1857.765	1891.509
382.044	31.758	1857.192	1893.399
383.059	32.134	1856.383	1896.161
384.073	31.804	1853.401	1889.547
385.088	31.101	1850.583	1879.324
386.102	30.873	1848.724	1874.910
387.117	30.707	1847.100	1871.355
388.132	30.902	1848.030	1874.055
389.146	30.296	1843.749	1863.366
390.161	26.324	1833.987	1813.315
391.175	26.092	1832.660	1809.449
392.190	29.709	1836.979	1849.956
393.205	30.599	1837.491	1859.200
394.219	31.004	1836.442	1861.989
395.234	31.055	1835.551	1861.371
396.248	31.243	1834.667	1862.132
397.263	31.234	1832.287	1859.409
398.278	30.952	1829.049	1853.076
399.292	30.532	1827.921	1847.519
400.307	31.016	1829.435	1853.666
401.321	31.128	1826.653	1851.744
402.336	29.650	1820.747	1830.829
403.350	28.277	1817.129	1813.316
404.365	28.698	1817.594	1817.749
405.380	29.065	1815.316	1818.901
406.394	27.842	1811.773	1803.008
407.409	27.467	1810.464	1797.765
408.423	27.521	1808.303	1795.938
409.438	27.785	1806.893	1796.934
410.453	28.032	1807.187	1799.459
411.467	28.875	1809.951	1810.347
412.482	30.295	1810.504	1824.723
413.496	30.635	1811.109	1828.480
414.511	30.604	1808.062	1824.876
415.526	30.633	1805.693	1822.559
416.540	31.166	1804.211	1826.082
417.555	31.006	1803.112	1823.183
418.569	30.474	1803.160	1817.781
419.584	30.562	1803.351	1818.616
420.599	30.361	1801.486	1814.544
421.613	29.986	1799.445	1808.592
422.628	30.467	1798.890	1812.543
423.642	31.177	1797.924	1818.300
424.657	30.895	1795.829	1813.207
425.672	29.947	1793.475	1801.351
426.686	30.529	1793.815	1807.166
427.701	30.674	1792.150	1806.691
428.715	30.270	1789.554	1799.914
429.730	30.405	1788.953	1800.406
430.745	30.940	1788.035	1804.479
431.759	30.646	1785.808	1799.154
432.774	29.063	1781.210	1778.943
433.788	26.779	1776.015	1751.390
434.803	25.975	1773.145	1740.555
435.818	25.893	1772.408	1738.829
436.832	25.846	1771.292	1737.075
437.847	24.663	1763.331	1717.639
438.861	14.803	1734.861	1595.523
439.876	3.061	1712.951	1463.361
440.890	0.617	1707.527	1435.234
441.905	0.436	1706.408	1432.389
442.920	0.330	1705.353	1430.319
443.934	0.237	1703.987	1428.122
444.949	0.373	1702.645	1428.122
445.963	0.249	1701.720	1425.992
446.978	0.229	1701.135	1425.137
447.993	0.238	1699.487	1423.675
449.007	0.229	1698.118	1422.272
450.022	0.378	1695.488	1421.310
451.036	0.382	1693.417	1419.443
452.051	0.875	1697.691	1427.528
453.066	9.917	1720.765	1533.372
454.080	21.925	1741.321	1666.842
455.095	25.038	1746.976	1701.824
456.109	26.016	1748.406	1712.348
457.124	26.290	1746.655	1713.039
458.139	26.010	1746.188	1709.708
459.153	25.848	1745.205	1707.001
460.168	25.977	1743.323	1706.186
461.182	26.155	1741.893	1706.271
462.197	26.306	1740.092	1705.737
463.212	26.583	1738.793	1706.888
464.226	26.622	1738.511	1706.775
465.241	26.572	1737.122	1704.733
466.255	26.344	1735.394	1700.679
467.270	26.394	1734.420	1699.990
468.285	26.656	1733.758	1701.608
469.299	26.896	1732.560	1702.502
470.314	26.817	1730.379	1699.410
471.328	26.828	1728.776	1697.737
472.343	26.782	1727.967	1696.304
473.358	26.781	1726.815	1694.959
474.372	26.729	1725.919	1693.388
475.387	26.896	1724.227	1693.095
476.401	26.714	1721.939	1688.939
477.416	26.253	1719.818	1682.345
478.430	26.175	1718.767	1680.378
479.445	26.262	1719.390	1681.606
480.460	26.721	1718.789	1685.106
481.474	26.873	1717.083	1684.648
482.489	26.762	1714.916	1681.285
483.503	26.292	1712.400	1674.241
484.518	26.278	1711.120	1672.660
485.533	26.195	1709.368	1669.978
486.547	25.999	1706.673	1665.327
487.562	25.395	1705.353	1658.238
488.576	25.722	1704.866	1660.596
489.591	26.020	1703.520	1661.849
490.606	26.337	1703.456	1664.524
491.620	26.478	1701.992	1664.193
492.635	26.200	1699.387	1658.876
493.649	25.702	1698.175	1652.900
494.664	26.118	1698.187	1656.553
495.679	26.712	1697.743	1661.400
496.693	26.703	1695.879	1659.290
497.708	26.501	1693.921	1655.321
498.722	26.128	1692.756	1650.554
499.737	26.097	1692.121	1649.459
500.752	26.462	1690.099	1650.633
501.766	26.578	1688.238	1649.685
502.781	26.515	1687.128	1647.823
503.795	26.491	1686.056	1646.360
504.810	26.575	1684.012	1644.937
505.825	26.251	1683.451	1641.237
506.839	26.219	1682.658	1639.972
507.854	26.349	1680.869	1639.216
508.868	26.187	1677.894	1634.645
509.883	25.867	1677.375	1631.032
510.898	25.513	1676.247	1626.522
511.912	25.519	1674.269	1624.461
512.927	25.724	1672.462	1624.371
513.941	25.686	1671.583	1622.978
514.956	25.907	1670.620	1623.854
515.971	25.890	1669.400	1622.323
516.985	25.682	1667.887	1618.775
518.000	25.612	1665.825	1615.952
519.014	25.348	1664.269	1611.867
520.029	25.229	1663.395	1609.747
521.043	25.295	1662.253	1609.044
522.058	25.636	1661.634	1611.327
523.073	25.698	1660.033	1610.142
524.087	25.152	1659.017	1604.052
525.102	25.187	1658.108	1603.300
526.116	26.125	1657.648	1611.078
527.131	26.439	1657.145	1613.211
528.146	25.913	1655.866	1607.063
529.160	25.831	1653.647	1603.985
530.175	25.814	1652.659	1602.676
531.189	25.811	1651.164	1601.015
532.204	25.562	1650.189	1597.654
533.219	25.924	1649.182	1599.712
534.233	26.297	1649.174	1602.843
535.248	25.892	1647.726	1597.631
536.262	25.293	1645.022	1589.491
537.277	25.354	1644.084	1588.941
538.292	25.703	1642.432	1590.247
539.306	25.727	1640.601	1588.502
540.321	25.312	1639.458	1583.522
541.335	25.134	1637.694	1580.055
542.350	25.359	1636.383	1580.590
543.365	25.497	1634.712	1580.010
544.379	25.424	1633.511	1578.018
545.394	25.267	1632.161	1575.137
546.408	25.550	1633.076	1578.327
547.423	26.208	1632.840	1583.716
548.438	26.364	1631.569	1583.664
549.452	26.158	1629.351	1579.509
550.467	25.892	1627.827	1575.505
551.481	26.015	1625.841	1574.479
552.496	25.771	1624.134	1570.492
553.511	25.290	1623.338	1565.321
554.525	25.260	1622.406	1563.971
555.540	25.331	1621.039	1563.094
556.554	25.150	1620.273	1560.579
557.569	25.198	1618.358	1558.972
558.583	25.373	1616.947	1558.952
559.598	25.387	1616.312	1558.270
560.613	25.468	1615.249	1557.770
561.627	25.145	1612.968	1552.571
562.642	24.983	1610.700	1548.792
563.656	24.528	1608.537	1542.583
564.671	24.457	1607.270	1540.562
565.686	24.408	1607.043	1539.737
566.700	24.717	1605.878	1541.117
567.715	24.842	1604.381	1540.575
568.729	24.803	1603.763	1539.460
569.744	25.200	1602.436	1541.428
570.759	25.148	1600.586	1539.020
571.773	24.974	1599.405	1536.198
572.788	24.740	1598.189	1532.833
573.802	24.626	1596.733	1530.268
574.817	24.636	1593.969	1527.528
575.832	24.296	1593.006	1523.500
576.846	24.507	1592.850	1524.982
577.861	24.949	1592.429	1528.181
578.875	25.128	1591.076	1528.238
579.890	24.824	1590.274	1524.684
580.905	24.804	1589.211	1523.307
581.919	24.843	1588.235	1522.521
582.934	24.902	1585.995	1520.699
583.948	24.609	1584.715	1516.788
584.963	24.543	1584.652	1515.985
585.978	25.092	1583.641	1519.518
586.992	25.030	1581.363	1516.620
588.007	24.509	1581.308	1511.956
589.021	24.544	1580.164	1510.978
590.036	24.573	1578.742	1509.683
591.051	24.385	1576.843	1506.090
592.065	24.458	1574.500	1504.293
593.080	24.426	1572.814	1502.227
594.094	24.656	1572.032	1503.244
595.109	25.112	1572.042	1506.931
596.123	25.735	1571.468	1511.455
597.138	25.292	1570.412	1506.525
598.153	24.954	1567.362	1500.576
599.167	24.979	1565.860	1499.161
600.182	24.859	1565.815	1497.930
601.196	24.851	1564.415	1496.345
602.211	24.893	1562.849	1495.020
603.226	24.586	1561.299	1490.789
604.240	24.607	1560.264	1489.792
605.255	24.362	1558.939	1486.303
606.269	24.476	1557.718	1485.910
607.284	24.521	1557.632	1486.027
608.299	24.584	1555.518	1484.363
609.313	24.643	1553.852	1483.088
610.328	24.547	1552.618	1480.929
611.342	24.518	1550.801	1478.776
612.357	24.363	1549.858	1476.414
613.372	24.074	1549.485	1473.480
614.386	24.293	1547.578	1473.306
615.401	24.141	1546.145	1470.507
616.415	23.970	1546.025	1468.798
617.430	23.811	1544.649	1465.997
618.445	23.746	1542.763	1463.489
619.459	23.688	1541.963	1462.078
620.474	24.133	1542.005	1465.619
621.488	24.580	1541.508	1468.673
622.503	24.851	1540.387	1469.661
623.518	24.236	1537.954	1462.099
624.532	23.773	1536.089	1456.333
625.547	23.672	1533.816	1453.177
626.561	23.627	1532.743	1451.613
627.576	23.307	1532.474	1448.554
628.591	23.813	1532.342	1452.414
629.605	24.282	1531.038	1454.856
630.620	24.375	1530.278	1454.719
631.634	24.891	1529.245	1457.788
632.649	24.536	1528.684	1454.174
633.663	24.042	1525.980	1447.390
634.678	23.685	1523.710	1442.154
635.693	23.319	1522.199	1437.562
636.707	23.475	1520.432	1436.995
637.722	23.134	1519.222	1432.899
638.736	23.348	1518.725	1434.004
639.751	23.647	1517.727	1435.317
640.766	23.771	1516.742	1435.221
641.780	23.772	1515.611	1433.987
642.795	23.974	1515.125	1434.991
643.809	23.999	1514.110	1434.067
644.824	23.847	1514.218	1432.766
645.839	24.103	1513.214	1433.711
646.853	23.988	1511.138	1430.643
647.868	24.082	1510.118	1430.268
648.882	24.098	1509.143	1429.304
649.897	24.213	1507.447	1428.450
650.912	24.089	1505.681	1425.613
651.926	23.934	1504.516	1423.087
652.941	24.056	1503.552	1422.991
653.955	24.082	1502.212	1421.757
654.970	24.141	1500.395	1420.345
655.985	24.028	1499.011	1417.956
656.999	23.753	1497.657	1414.309
658.014	23.688	1496.190	1412.230
659.028	23.724	1494.639	1410.885
660.043	23.841	1494.451	1411.474
661.058	23.955	1493.221	1411.050
662.072	23.855	1492.511	1409.412
663.087	24.065	1491.598	1410.057
664.101	24.097	1491.073	1409.644
665.116	24.038	1489.944	1407.941
666.131	23.831	1489.286	1405.503
667.145	23.991	1487.034	1404.480
668.160	23.820	1485.526	1401.535
669.174	23.580	1483.714	1397.758
670.189	23.627	1483.196	1397.469
671.204	23.753	1483.254	1398.355
672.218	23.858	1481.822	1397.672
673.233	23.746	1480.182	1395.071
674.247	23.507	1478.061	1391.024
675.262	23.223	1476.865	1387.493
676.276	23.431	1476.091	1388.236
677.291	23.664	1475.255	1389.116
678.306	23.908	1475.043	1390.671
679.320	23.766	1474.299	1388.683
680.335	23.444	1472.815	1384.591
681.349	23.388	1471.606	1382.853
682.364	23.492	1470.589	1382.544
683.379	23.484	1468.313	1380.179
684.393	23.464	1467.226	1378.838
685.408	23.170	1466.488	1375.680
686.422	23.304	1464.240	1374.451
687.437	23.008	1464.458	1372.180
688.452	22.771	1463.319	1369.100
689.466	23.125	1460.684	1369.226
690.481	22.958	1460.329	1367.428
691.495	23.204	1460.756	1369.584
692.510	23.824	1460.778	1374.258
693.525	24.342	1459.289	1376.713
694.539	23.749	1457.313	1370.089
695.554	23.192	1455.045	1363.480
696.568	22.733	1453.918	1358.707
697.583	22.626	1453.243	1357.090
698.598	22.806	1452.277	1357.411
699.612	22.827	1450.479	1355.736
700.627	22.920	1449.978	1355.820
701.641	23.285	1448.700	1357.273
702.656	23.154	1447.730	1355.199
703.671	22.893	1447.464	1352.776
704.685	23.067	1446.683	1353.225
705.700	23.258	1445.921	1353.816
706.714	23.327	1444.054	1352.435
707.729	23.504	1442.965	1352.614
708.744	23.364	1441.627	1350.119
709.758	23.387	1440.111	1348.717
710.773	23.135	1439.519	1346.074
711.787	23.254	1437.920	1345.325
712.802	23.372	1436.448	1344.687
713.816	23.300	1436.143	1343.694
714.831	23.240	1435.267	1342.256
715.846	23.063	1433.157	1338.777
716.860	23.058	1432.158	1337.641
717.875	23.054	1431.762	1337.083
718.889	23.251	1430.129	1336.894
719.904	23.281	1428.677	1335.602
720.919	23.163	1427.803	1333.732
721.933	22.919	1426.954	1330.932
722.948	22.831	1425.883	1329.106
723.962	22.819	1424.730	1327.785
724.977	22.734	1423.735	1326.055
725.992	22.877	1422.396	1325.730
727.006	23.015	1421.003	1325.315
728.021	22.807	1419.187	1321.893
729.035	22.995	1418.267	1322.295
730.050	22.880	1417.496	1320.554
731.065	22.986	1416.490	1320.251
732.079	22.778	1415.500	1317.609
733.094	22.912	1414.767	1317.776
734.108	23.110	1413.484	1317.902
735.123	23.097	1412.032	1316.298
736.138	23.007	1410.488	1314.030
737.152	23.032	1408.733	1312.422
738.167	22.783	1408.284	1309.990
739.181	22.655	1407.473	1308.124
740.196	22.766	1406.140	1307.551
741.211	22.758	1405.745	1306.967
742.225	22.668	1404.888	1305.350
743.240	22.653	1403.128	1303.445
744.254	22.552	1401.570	1301.096
745.269	22.555	1400.572	1300.032
746.284	22.470	1399.845	1298.571
747.298	22.599	1399.193	1298.766
748.313	22.827	1398.453	1299.616
749.327	23.257	1398.529	1302.710
750.342	23.672	1398.280	1305.384
751.356	24.039	1397.871	1307.562
752.371	23.794	1396.226	1304.054
753.386	23.016	1393.368	1295.507
754.400	22.599	1391.712	1290.739
755.415	22.713	1390.565	1290.361
756.429	22.808	1389.589	1289.995
757.444	22.788	1388.688	1288.863
758.459	22.758	1387.036	1286.952
759.473	22.677	1385.997	1285.240
760.488	22.658	1384.815	1283.850
761.502	22.479	1383.853	1281.498
762.517	22.590	1382.989	1281.356
763.532	22.859	1381.552	1281.832
764.546	22.857	1380.672	1280.847
765.561	22.815	1380.447	1280.183
766.575	23.109	1379.973	1281.726
767.590	23.177	1378.851	1281.031
768.605	23.114	1376.935	1278.636
769.619	22.904	1375.973	1276.063
770.634	22.695	1374.841	1273.345
771.648	22.564	1373.049	1270.586
772.663	22.288	1372.261	1267.706
773.678	22.448	1371.159	1267.692
774.692	22.530	1370.553	1267.575
775.707	22.541	1370.461	1267.422
776.721	22.473	1369.212	1265.620
777.736	22.549	1367.538	1264.473
778.751	22.347	1366.568	1261.962
779.765	22.564	1365.844	1262.712
780.780	22.600	1364.976	1262.018
781.794	22.526	1364.346	1260.751
782.809	22.417	1362.629	1258.229
783.824	22.258	1361.681	1256.059
784.838	22.535	1361.822	1258.028
785.853	23.201	1360.702	1261.620
786.867	22.947	1360.143	1259.128
787.882	22.537	1359.239	1255.206
788.897	22.391	1357.635	1252.534
789.911	22.278	1356.168	1250.218
790.926	22.287	1354.500	1248.597
791.940	22.230	1353.419	1247.046
792.955	22.116	1352.106	1244.875
793.969	22.175	1350.548	1243.712
794.984	22.278	1349.672	1243.486
795.999	22.345	1349.086	1243.272
797.013	22.376	1347.429	1241.818
798.028	22.199	1346.659	1239.707
799.042	22.229	1345.437	1238.646
800.057	22.264	1344.464	1237.848
801.072	22.270	1343.231	1236.604
802.086	22.166	1342.425	1234.982
803.101	22.312	1340.675	1234.256
804.115	22.152	1340.227	1232.566
805.130	22.103	1339.269	1231.194
806.145	22.142	1338.172	1230.307
807.159	22.186	1336.488	1228.926
808.174	22.248	1335.938	1228.710
809.188	22.472	1334.682	1228.976
810.203	22.578	1332.839	1227.875
811.218	22.703	1330.965	1226.876
812.232	22.875	1329.986	1227.025
813.247	22.643	1330.261	1225.511
814.261	22.597	1329.387	1224.240
815.276	22.626	1327.687	1222.729
816.291	22.157	1326.779	1218.482
817.305	22.291	1325.056	1217.685
818.320	22.215	1323.377	1215.471
819.334	22.295	1322.010	1214.620
820.349	22.308	1320.939	1213.585
821.364	22.244	1319.398	1211.581
822.378	22.093	1318.621	1209.673
823.393	22.068	1316.857	1207.738
824.407	22.068	1316.159	1206.955
825.422	21.859	1316.272	1205.470
826.437	22.059	1314.682	1205.249
827.451	22.158	1312.518	1203.802
828.466	22.489	1312.860	1206.253
829.480	22.981	1311.087	1207.860
830.495	22.588	1308.501	1202.639
831.509	22.254	1307.196	1199.004
832.524	22.081	1306.115	1196.685
833.539	22.125	1305.313	1196.108
834.553	22.039	1304.264	1194.416
835.568	22.056	1303.472	1193.666
836.582	21.987	1301.874	1191.590
837.597	22.096	1300.726	1191.138
838.612	22.192	1298.839	1189.923
839.626	22.099	1298.640	1188.964
840.641	22.366	1298.699	1190.686
841.655	22.416	1297.826	1190.084
842.670	22.743	1296.814	1191.237
843.685	23.117	1295.697	1192.600
844.699	22.672	1294.134	1188.006
845.714	22.335	1292.571	1184.149
846.728	22.228	1292.115	1182.870
847.743	22.119	1290.303	1180.333
848.758	22.045	1288.973	1178.474
849.772	22.022	1287.277	1176.628
850.787	21.955	1286.215	1175.068
851.801	22.058	1284.374	1173.939
852.816	21.902	1283.612	1172.051
853.831	21.877	1282.755	1170.960
854.845	22.080	1280.494	1170.119
855.860	21.894	1279.471	1167.799
856.874	22.074	1278.158	1167.658
857.889	22.392	1276.739	1168.349
858.904	22.639	1276.224	1169.383
859.918	22.758	1275.973	1169.808
860.933	23.071	1275.030	1170.887
861.947	22.786	1273.419	1167.372
862.962	22.485	1270.895	1162.922
863.977	22.457	1269.639	1161.446
864.991	22.081	1268.695	1157.956
866.006	22.044	1268.474	1157.371
867.020	22.072	1266.899	1155.977
868.035	21.963	1265.669	1153.993
869.049	21.910	1265.149	1153.030
870.064	22.069	1264.829	1153.653
871.079	21.985	1263.506	1151.757
872.093	22.051	1262.943	1151.539
873.108	22.099	1261.787	1150.665
874.122	22.348	1260.380	1150.879
875.137	22.394	1260.318	1150.989
876.152	22.592	1259.775	1151.653
877.166	22.568	1257.905	1149.649
878.181	22.444	1256.620	1147.525
879.195	22.109	1255.823	1144.470
880.210	22.060	1255.046	1143.300
881.225	22.112	1253.578	1142.168
882.239	22.049	1252.739	1140.854
883.254	22.070	1251.477	1139.706
884.268	22.117	1250.820	1139.280
885.283	21.901	1249.739	1136.747
886.298	22.031	1247.849	1135.741
887.312	22.072	1246.442	1134.588
888.327	22.116	1245.483	1133.868
889.341	22.129	1244.246	1132.692
890.356	22.042	1243.728	1131.520
891.371	21.973	1243.512	1130.741
892.385	22.147	1243.176	1131.422
893.400	22.021	1242.641	1129.984
894.414	22.128	1241.116	1129.157
895.429	22.264	1240.207	1129.070
896.444	22.983	1239.876	1133.273
897.458	23.577	1239.066	1136.218
898.473	23.175	1237.437	1132.004
899.487	22.672	1236.302	1127.599
900.502	22.282	1234.140	1122.993
901.517	22.159	1232.695	1120.754
902.531	22.080	1231.533	1119.057
903.546	22.058	1231.598	1118.839
904.560	22.111	1230.490	1118.037
905.575	22.108	1229.609	1117.087
906.589	22.144	1228.308	1116.000
907.604	22.132	1227.624	1115.169
