DTS Sentinel unit serial number:	SN409020Multiplexer serial number:	ORYXHardware model number:	OX4-SRSoftware version number:	ORYX F/W v3.00 Oryx Data Collector v3.7.2.0data status	okinstallation	HaddamTimeLapsedifferential loss correction	single-endedforward channel	channel 3reverse channel	N/Adate	2011/06/22time	08:01:17forward acquisition time	30.00reverse acquisition time	0.00gamma	498.7831k internal	0.1767k external	0.1767temperature offset calibration	1.0074default loss term (dB/km)	0.3790temperature slope calibration	1.3530multiplexer offset coefficient	1.0000multiplexer slope coefficient	1.0000fibre end	0.00T internal ref (°C)	24.62T ext. ref 1 (°C)	22.11T ext. ref 2 (°C)	0.14length (m)	temperature (°C)	Stokes	anti-Stokes-747.200	44.407	0.173	-0.209
-746.185	52.046	0.230	0.289
-745.171	-200.000	0.024	-0.215
-744.156	-200.000	0.007	0.126
-743.142	268.171	0.016	-0.037
-742.127	-69.937	0.672	0.336
-741.112	-89.462	-0.472	-0.182
-740.098	-200.000	0.024	0.431
-739.083	92.201	-0.183	0.272
-738.069	50.080	-0.033	0.041
-737.054	793.763	0.119	-0.433
-736.039	-23.374	-0.306	0.242
-735.025	-83.544	-0.089	0.037
-734.010	-51.385	-0.149	0.091
-732.996	-200.000	-0.014	-0.208
-731.981	-78.618	-0.101	-0.045
-730.966	-127.433	-0.402	0.076
-729.952	20.842	0.095	-0.101
-728.937	-200.000	0.017	-0.207
-727.923	-45.307	-0.288	-0.187
-726.908	-38.878	-0.354	0.245
-725.894	142.986	-0.220	-0.386
-724.879	-136.364	-0.476	-0.072
-723.864	-134.476	-0.395	0.063
-722.850	-175.708	0.234	-0.008
-721.835	98.689	0.223	-0.339
-720.821	217.363	-0.066	-0.139
-719.806	-50.071	-0.417	-0.259
-718.791	-44.144	0.191	-0.126
-717.777	-18.452	0.019	0.016
-716.762	84.367	0.109	0.158
-715.748	487.769	0.094	-0.284
-714.733	-159.117	0.391	0.029
-713.718	81.818	0.056	0.080
-712.704	17.601	-0.348	0.363
-711.689	134.690	0.108	-0.184
-710.675	-40.651	-0.578	-0.393
-709.660	-11.738	0.283	-0.244
-708.645	-118.435	0.326	0.075
-707.631	-107.698	-0.548	-0.156
-706.616	369.962	-0.051	-0.137
-705.602	-150.188	0.418	0.042
-704.587	-139.358	-0.061	0.008
-703.572	-150.390	-0.099	-0.010
-702.558	-142.677	-0.058	-0.007
-701.543	800.000	-0.118	0.473
-700.529	-180.454	0.286	-0.008
-699.514	-200.000	0.025	0.224
-698.499	-80.715	0.153	0.066
-697.485	-200.000	0.040	-0.407
-696.470	789.404	-0.067	-0.243
-695.456	100.172	-0.093	0.143
-694.441	-100.767	0.210	-0.068
-693.426	800.000	-0.036	-0.143
-692.412	-200.000	0.112	-0.682
-691.397	-200.000	0.049	-0.485
-690.383	-149.772	-0.418	0.043
-689.368	66.322	-0.273	-0.365
-688.354	-65.201	-0.443	0.233
-687.339	-103.537	0.221	0.068
-686.324	-156.589	0.669	-0.054
-685.310	-200.000	0.044	0.272
-684.295	-35.661	0.078	0.055
-683.281	-127.079	-0.158	-0.030
-682.266	-200.000	0.030	-0.351
-681.251	384.485	0.143	-0.389
-680.237	-55.500	0.344	0.202
-679.222	-50.416	0.131	-0.081
-678.208	-152.929	0.526	-0.048
-677.193	35.300	-0.377	-0.434
-676.178	-73.902	0.427	-0.203
-675.164	-200.000	-0.013	0.267
-674.149	-77.147	0.204	-0.093
-673.135	91.385	0.108	-0.159
-672.120	-16.807	-0.422	0.350
-671.105	105.499	-0.056	0.087
-670.091	-155.625	-0.242	-0.020
-669.076	123.911	-0.125	0.207
-668.062	-24.933	-0.121	0.094
-667.047	291.008	0.084	0.200
-666.032	239.164	-0.117	-0.256
-665.018	-79.914	-0.329	-0.144
-664.003	-83.439	0.474	0.198
-662.989	-16.278	-0.307	0.255
-661.974	-45.921	-0.288	0.186
-660.959	-83.295	-0.206	-0.086
-659.945	44.682	0.154	-0.186
-658.930	-28.337	-0.203	-0.153
-657.916	-136.627	0.150	-0.022
-656.901	122.862	-0.087	-0.143
-655.886	250.133	-0.253	-0.566
-654.872	55.356	0.123	0.156
-653.857	334.924	-0.190	0.484
-652.843	-110.484	0.595	0.161
-651.828	-200.000	0.032	-0.196
-650.814	-44.934	0.129	0.084
-649.799	-26.445	-0.108	0.083
-648.784	58.710	0.300	0.386
-647.770	-17.433	0.397	-0.327
-646.755	-200.000	0.018	-0.277
-645.741	-97.241	0.332	-0.113
-644.726	545.899	0.118	-0.372
-643.711	9.067	0.169	0.167
-642.697	21.429	0.240	-0.256
-641.682	-66.132	-0.098	0.051
-640.668	246.194	0.076	0.168
-639.653	-70.105	-0.577	0.287
-638.638	-120.857	0.183	-0.040
-637.624	112.406	0.090	0.143
-636.609	-6.877	-0.194	0.173
-635.595	499.566	-0.113	0.344
-634.580	-165.582	0.519	-0.029
-633.565	137.332	0.061	-0.105
-632.551	16.561	0.089	0.092
-631.536	2.835	-0.123	-0.117
-630.522	-130.927	-0.798	-0.139
-629.507	-139.947	-0.363	0.050
-628.492	-77.338	-0.299	0.136
-627.478	-121.973	-0.150	-0.032
-626.463	-200.000	0.014	0.269
-625.449	-196.942	-0.447	0.004
-624.434	800.000	0.068	0.347
-623.419	35.030	-0.395	0.454
-622.405	765.704	-0.150	0.538
-621.390	-73.392	-0.105	-0.050
-620.376	63.390	-0.114	0.149
-619.361	-102.011	0.286	-0.090
-618.346	-9.427	0.051	0.044
-617.332	800.000	-0.035	-0.163
-616.317	-20.554	-0.111	-0.089
-615.303	-136.476	0.093	-0.014
-614.288	-200.000	-0.223	0.001
-613.273	83.904	0.164	-0.234
-612.259	-24.094	-0.201	-0.157
-611.244	-200.000	-0.001	0.018
-610.230	-39.751	0.147	0.101
-609.215	-54.819	0.489	0.288
-608.201	-90.233	0.238	-0.090
-607.186	-66.639	-0.118	-0.061
-606.171	-66.144	0.329	-0.171
-605.157	-200.000	0.045	0.345
-604.142	-106.718	-0.559	-0.162
-603.128	579.128	0.096	-0.309
-602.113	-81.554	-0.338	-0.145
-601.098	-11.189	0.325	-0.280
-600.084	158.212	-0.068	-0.123
-599.069	-200.000	-0.003	-0.162
-598.055	-132.215	0.229	-0.039
-597.040	-200.000	-0.010	0.072
-596.025	-9.145	0.328	-0.287
-595.011	341.515	-0.112	-0.288
-593.996	-18.194	0.223	0.182
-592.982	19.925	-0.060	-0.063
-591.967	-97.473	0.257	-0.087
-590.952	285.965	-0.162	-0.385
-589.938	-7.179	-0.163	0.145
-588.923	-16.245	0.223	-0.185
-587.909	-141.795	-0.341	0.044
-586.894	5.446	0.277	-0.267
-585.879	-74.836	-0.178	-0.083
-584.865	-200.000	-0.002	0.145
-583.850	-33.084	-0.464	0.336
-582.836	315.129	0.179	0.444
-581.821	3.995	-0.088	0.084
-580.806	411.318	0.063	0.175
-579.792	-56.455	-0.329	0.190
-578.777	-127.384	-0.253	0.048
-577.763	-200.000	-0.005	-0.302
-576.748	7.932	-0.131	0.129
-575.733	70.598	0.227	-0.308
-574.719	-49.532	-0.389	0.242
-573.704	-200.000	-0.004	-0.233
-572.690	800.000	0.037	-0.135
-571.675	214.336	0.319	-0.662
-570.661	-200.000	-0.004	0.060
-569.646	-119.543	-0.230	-0.052
-568.631	-72.741	0.327	0.157
-567.617	272.491	0.138	-0.320
-566.602	-97.137	0.083	0.028
-565.588	-0.262	0.165	-0.153
-564.573	149.650	-0.088	0.156
-563.558	13.046	-0.351	0.355
-562.544	32.218	0.302	-0.340
-561.529	41.436	-0.152	-0.180
-560.515	-200.000	-0.008	0.308
-559.500	-80.811	-0.253	-0.109
-558.485	-200.000	-0.028	0.352
-557.471	-56.429	-0.329	0.190
-556.456	266.162	0.128	0.292
-555.442	144.546	-0.092	0.160
-554.427	750.579	0.040	0.140
-553.412	-105.701	-0.724	0.213
-552.398	139.862	0.093	0.161
-551.383	425.710	0.079	-0.223
-550.369	-25.581	0.273	-0.210
-549.354	-9.615	-0.325	-0.283
-548.339	672.700	-0.061	-0.206
-547.325	-200.000	0.025	-0.212
-546.310	-85.792	-0.240	0.097
-545.296	-200.000	0.006	0.248
-544.281	164.819	-0.020	0.037
-543.266	80.076	0.180	-0.254
-542.252	7.177	0.360	-0.350
-541.237	-24.122	-0.185	0.144
-540.223	-77.066	0.245	-0.111
-539.208	42.916	0.174	-0.207
-538.193	51.020	0.325	0.403
-537.179	-55.201	-0.607	-0.355
-536.164	-200.000	0.029	-0.304
-535.150	365.087	-0.058	0.154
-534.135	204.100	0.200	0.405
-533.121	-52.442	-0.247	0.148
-532.106	124.452	-0.080	-0.131
-531.091	-200.000	-0.038	0.463
-530.077	-19.736	0.116	0.093
-529.062	210.891	0.206	0.424
-528.048	-85.293	0.585	0.237
-527.033	-200.000	0.073	-0.477
-526.018	155.662	0.200	0.360
-525.004	-44.299	-0.206	0.135
-523.989	-89.850	-0.291	0.110
-522.975	589.043	-0.185	0.599
-521.960	-85.820	0.317	-0.128
-520.945	-131.451	-0.557	0.095
-519.931	-200.000	-0.023	0.224
-518.916	-41.227	-0.301	0.202
-517.902	-180.080	0.459	0.012
-516.887	-96.396	0.570	-0.196
-515.872	151.487	-0.132	-0.234
-514.858	475.259	-0.141	-0.417
-513.843	262.005	-0.187	-0.424
-512.829	9.793	-0.403	-0.398
-511.814	800.000	-0.034	-0.143
-510.799	-131.441	0.074	-0.013
-509.785	306.561	0.002	0.005
-508.770	100.443	0.215	-0.327
-507.756	-70.003	-0.271	0.134
-506.741	47.677	-0.208	0.254
-505.726	-136.146	0.166	0.025
-504.712	-127.565	-0.057	-0.011
-503.697	108.127	0.271	-0.422
-502.683	-112.605	0.973	0.251
-501.668	-35.266	0.118	-0.083
-500.653	-200.000	0.015	-0.277
-499.639	-200.000	0.013	0.491
-498.624	-200.000	-0.053	0.618
-497.610	-3.001	-0.279	0.254
-496.595	-200.000	0.028	0.274
-495.581	62.372	0.104	-0.136
-494.566	66.234	-0.052	0.069
-493.551	142.563	0.167	-0.290
-492.537	800.000	-0.028	-0.151
-491.522	-75.824	-0.170	-0.078
-490.508	253.881	-0.073	-0.163
-489.493	98.717	0.151	0.228
-488.478	800.000	-0.061	-0.225
-487.464	-9.525	-0.205	0.178
-486.449	322.188	0.066	-0.165
-485.435	800.000	-0.124	0.454
-484.420	488.400	0.076	0.227
-483.405	-124.554	-0.361	-0.073
-482.391	12.005	0.134	0.134
-481.376	-100.206	0.357	0.115
-480.362	-87.632	0.442	0.173
-479.347	-105.675	0.279	0.082
-478.332	-200.000	0.006	-0.229
-477.318	-86.876	-0.577	-0.228
-476.303	-103.137	0.228	-0.070
-475.289	-96.618	-0.143	-0.049
-474.274	-145.774	0.450	0.052
-473.259	-97.969	-0.345	0.115
-472.245	800.000	0.067	0.318
-471.230	6.819	-0.064	0.062
-470.216	800.000	-0.058	-0.222
-469.201	-93.760	-0.106	0.038
-468.186	-57.174	0.077	-0.044
-467.172	-88.150	0.315	-0.122
-466.157	484.898	0.037	-0.110
-465.143	-107.294	-0.366	0.104
-464.128	-36.083	0.096	0.067
-463.113	91.057	-0.103	0.150
-462.099	-183.057	0.311	-0.007
-461.084	-200.000	-0.003	-0.255
-460.070	-114.497	-0.440	0.109
-459.055	65.760	-0.289	0.382
-458.040	-20.040	0.092	-0.073
-457.026	-41.171	0.126	-0.084
-456.011	10.308	0.161	0.160
-454.997	58.079	0.132	-0.168
-453.982	637.553	0.135	-0.450
-452.968	-119.401	-0.577	-0.129
-451.953	-95.984	-0.143	0.049
-450.938	-113.986	-0.271	-0.068
-449.924	-131.935	0.590	0.099
-448.909	732.965	-0.083	-0.292
-447.895	21.703	-0.220	-0.233
-446.880	-61.483	0.135	-0.074
-445.865	-200.000	0.003	0.070
-444.851	400.705	-0.138	0.379
-443.836	800.000	0.023	0.126
-442.822	208.595	0.222	-0.453
-441.807	14.627	0.195	-0.198
-440.792	-95.320	-0.186	0.065
-439.778	48.386	-0.365	0.445
-438.763	-138.135	0.150	-0.021
-437.749	589.013	0.095	0.305
-436.734	32.038	0.212	0.238
-435.719	-200.000	0.072	0.632
-434.705	695.864	0.110	0.378
-433.690	406.139	0.061	-0.168
-432.676	-106.389	-0.381	0.110
-431.661	312.117	-0.023	-0.056
-430.646	-41.243	-0.302	0.202
-429.632	171.412	0.155	-0.290
-428.617	-100.104	-0.154	-0.049
-427.603	-140.652	-0.462	-0.062
-426.588	150.682	-0.288	0.510
-425.573	-109.441	0.320	-0.087
-424.559	23.113	0.097	0.103
-423.544	-116.779	-0.356	0.084
-422.530	85.558	0.226	0.323
-421.515	22.369	-0.094	0.099
-420.500	-29.894	-0.081	0.060
-419.486	19.393	0.364	0.380
-418.471	-144.959	0.614	0.072
-417.457	-130.206	-0.373	-0.065
-416.442	-4.822	0.238	-0.213
-415.428	-72.512	-0.639	0.305
-414.413	-111.031	-0.431	-0.114
-413.398	-8.129	-0.123	0.107
-412.384	-200.000	0.098	-0.799
-411.369	-186.092	-0.231	0.004
-410.355	-117.908	0.201	-0.047
-409.340	150.884	0.290	-0.513
-408.325	-200.000	0.008	-0.297
-407.311	-98.549	0.276	0.091
-406.296	661.705	-0.132	0.444
-405.282	-28.845	0.120	-0.089
-404.267	800.000	-0.058	0.224
-403.252	249.488	0.153	-0.337
-402.238	309.280	0.042	0.102
-401.223	-200.000	-0.058	-0.484
-400.209	451.045	-0.160	-0.461
-399.194	-113.803	0.348	-0.087
-398.179	-200.000	0.044	-0.370
-397.165	215.368	-0.231	-0.477
-396.150	-63.864	0.376	0.199
-395.136	-140.820	-0.600	-0.079
-394.121	17.235	0.122	-0.125
-393.106	266.737	0.196	-0.445
-392.092	-114.748	0.340	0.084
-391.077	800.000	-0.109	0.448
-390.063	-200.000	0.004	0.244
-389.048	-200.000	0.031	0.271
-388.033	-95.427	0.124	-0.043
-387.019	296.307	0.148	0.353
-386.004	-195.525	0.308	-0.003
-384.990	800.000	-0.029	0.111
-383.975	8.488	-0.534	0.521
-382.960	325.471	-0.103	0.258
-381.946	-98.535	0.076	-0.025
-380.931	4.900	0.281	0.268
-379.917	347.158	0.038	0.097
-378.902	-104.448	0.441	0.131
-377.888	-112.906	0.563	-0.144
-376.873	-99.927	0.061	0.020
-375.858	284.610	0.119	0.279
-374.844	28.284	-0.121	0.132
-373.829	405.417	0.175	0.482
-372.815	-132.102	-0.315	0.053
-371.800	-69.625	-0.390	-0.193
-370.785	-149.610	-0.408	-0.041
-369.771	-200.000	-0.023	0.274
-368.756	-45.467	0.128	-0.082
-367.742	-15.729	-0.220	-0.182
-366.727	2.560	0.149	-0.140
-365.712	-24.561	-0.472	-0.364
-364.698	-83.530	0.369	0.153
-363.683	-200.000	-0.041	0.409
-362.669	31.791	0.335	0.374
-361.654	49.640	-0.185	0.227
-360.639	189.527	0.162	-0.316
-359.625	-156.613	-0.261	0.021
-358.610	-68.972	0.394	0.196
-357.596	-30.880	-0.213	0.155
-356.581	15.755	-0.199	0.203
-355.566	-118.888	-0.377	0.085
-354.552	800.000	0.070	-0.354
-353.537	-200.000	-0.028	0.318
-352.523	800.000	0.048	0.274
-351.508	70.645	-0.219	-0.294
-350.493	42.755	-0.365	-0.431
-349.479	-200.000	-0.005	-0.250
-348.464	-200.000	-0.038	0.233
-347.450	-100.886	-0.222	0.070
-346.435	62.189	-0.304	-0.393
-345.420	-96.868	0.066	-0.022
-344.406	-177.050	-0.309	-0.010
-343.391	-53.563	-0.429	-0.254
-342.377	-200.000	-0.021	0.151
-341.362	-98.536	-0.370	0.122
-340.348	214.263	-0.264	0.542
-339.333	-72.441	-0.109	0.052
-338.318	-87.344	0.455	-0.178
-337.304	764.172	-0.040	-0.143
-336.289	-200.000	-0.047	0.305
-335.275	136.723	-0.075	-0.127
-334.260	-4.463	-0.084	-0.075
-333.245	102.414	0.128	0.194
-332.231	55.841	-0.197	0.248
-331.216	-200.000	0.049	-0.290
-330.202	23.753	0.271	-0.289
-329.187	85.864	-0.150	-0.214
-328.172	598.707	0.067	-0.217
-327.158	-142.166	0.532	-0.068
-326.143	-41.736	-0.170	-0.113
-325.129	-130.178	0.468	-0.082
-324.114	121.957	-0.321	0.520
-323.099	-9.652	0.214	0.185
-322.085	800.000	0.135	-0.538
-321.070	800.000	-0.056	-0.218
-320.056	13.991	-0.230	-0.231
-319.041	-200.000	-0.023	0.162
-318.026	-41.153	-0.460	-0.307
-317.012	-123.638	-0.294	-0.060
-315.997	213.493	0.132	0.270
-314.983	-132.287	0.690	0.114
-313.968	800.000	0.126	-0.608
-312.953	-62.546	0.019	-0.010
-311.939	282.361	0.160	0.373
-310.924	-200.000	0.026	-0.273
-309.910	72.377	-0.176	-0.237
-308.895	800.000	-0.059	-0.324
-307.880	121.580	0.084	0.135
-306.866	211.895	0.183	0.375
-305.851	-90.603	0.311	0.116
-304.837	116.111	0.196	0.311
-303.822	-200.000	0.018	0.130
-302.807	217.500	0.090	-0.187
-301.793	-0.311	-0.158	0.145
-300.778	79.746	-0.104	-0.144
-299.764	-30.657	-0.150	0.110
-298.749	205.892	-0.093	-0.187
-297.735	-95.185	-0.188	0.065
-296.720	142.514	-0.115	0.197
-295.705	800.000	-0.065	0.281
-294.691	-48.326	-0.235	0.146
-293.676	266.742	-0.043	0.098
-292.662	20.378	0.439	0.458
-291.647	734.767	-0.241	0.839
-290.632	-84.846	-0.334	-0.135
-289.618	-59.364	-0.326	-0.181
-288.603	-68.335	-0.034	-0.017
-287.589	27.674	0.279	-0.303
-286.574	-200.000	-0.012	0.237
-285.559	-101.559	-0.477	0.149
-284.545	-95.313	-0.433	0.150
-283.530	-49.270	-0.146	0.090
-282.516	-200.000	-0.018	-0.497
-281.501	-135.057	0.109	-0.017
-280.486	-66.713	0.120	-0.061
-279.472	-98.682	0.559	0.183
-278.457	723.732	-0.071	-0.244
-277.443	-108.351	-0.124	0.034
-276.428	585.053	-0.070	0.224
-275.413	-140.784	-0.379	0.050
-274.399	800.000	-0.033	-0.128
-273.384	49.975	0.262	0.319
-272.370	-108.005	-0.109	0.030
-271.355	-200.000	0.040	0.237
-270.340	-200.000	0.038	-0.290
-269.326	-113.043	0.145	0.037
-268.311	119.735	0.072	0.116
-267.297	408.649	0.082	-0.224
-266.282	800.000	-0.092	0.443
-265.267	14.778	0.120	0.121
-264.253	-38.412	0.207	-0.141
-263.238	5.526	-0.235	0.224
-262.224	25.609	0.204	-0.219
-261.209	-14.624	-0.328	0.272
-260.195	230.127	-0.161	-0.342
-259.180	-128.584	0.119	-0.022
-258.165	-15.012	0.079	-0.065
-257.151	208.890	0.081	-0.163
-256.136	2.250	0.056	-0.053
-255.122	800.000	0.033	0.124
-254.107	-24.523	-0.241	0.185
-253.092	-160.700	0.466	0.031
-252.078	140.677	-0.291	0.497
-251.063	58.010	-0.157	0.199
-250.049	-200.000	-0.005	0.333
-249.034	-18.598	0.143	-0.115
-248.019	65.198	-0.224	-0.292
-247.005	-200.000	-0.047	0.375
-245.990	-125.458	0.229	0.045
-244.976	136.592	0.122	-0.207
-243.961	800.000	-0.083	-0.403
-242.946	-13.187	-0.190	0.159
-241.932	-63.297	-0.258	0.137
-240.917	800.000	-0.014	-0.057
-239.903	381.753	0.040	-0.108
-238.888	55.360	-0.016	-0.020
-237.873	199.590	-0.134	-0.266
-236.859	-54.693	0.213	-0.124
-235.844	-200.000	0.047	-0.429
-234.830	-161.755	0.217	0.014
-233.815	-121.670	0.583	-0.124
-232.800	51.126	0.043	0.053
-231.786	-20.544	-0.377	0.298
-230.771	31.306	0.295	0.327
-229.757	-200.000	-0.173	-0.000
-228.742	-125.263	-0.351	0.069
-227.727	-64.051	-0.278	0.146
-226.713	487.676	0.113	0.336
-225.698	9.072	0.099	-0.097
-224.684	-83.142	-0.288	-0.119
-223.669	-200.000	0.007	0.088
-222.655	48.456	0.294	-0.356
-221.640	800.000	0.051	0.238
-220.625	288.002	-0.201	-0.472
-219.611	-200.000	-0.045	-0.458
-218.596	800.000	-0.036	-0.158
-217.582	-200.000	0.018	-0.129
-216.567	-200.000	-0.001	-0.340
-215.552	-172.620	-0.365	-0.015
-214.538	-117.226	0.396	0.092
-213.523	-87.863	-0.391	-0.151
-212.509	-107.929	-0.150	-0.042
-211.494	-200.000	0.104	-0.000
-210.479	123.741	0.143	0.233
-209.465	184.803	0.013	-0.024
-208.450	63.926	0.231	-0.300
-207.436	76.789	-0.284	-0.389
-206.421	-200.000	-0.013	-0.148
-205.406	65.436	0.325	-0.425
-204.392	-152.094	0.480	-0.044
-203.377	800.000	0.081	-0.375
-202.363	-51.395	0.282	-0.169
-201.348	-48.897	-0.181	-0.111
-200.333	-41.888	-0.254	-0.167
-199.319	800.000	0.072	0.275
-198.304	163.968	0.086	0.157
-197.290	-17.308	0.277	-0.225
-196.275	800.000	0.090	-0.430
-195.260	333.472	-0.118	-0.295
-194.246	149.451	0.212	0.372
-193.231	11.372	0.260	0.257
-192.217	-128.481	-0.249	0.045
-191.202	10.195	-0.180	0.177
-190.187	-142.106	0.325	-0.041
-189.173	-200.000	0.615	-0.002
-188.158	151.715	-0.087	-0.153
-187.144	-85.991	0.201	-0.080
-186.129	-59.912	0.366	0.201
-185.114	-37.353	0.347	0.238
-184.100	-97.413	0.525	0.175
-183.085	179.755	0.259	-0.490
-182.071	-139.428	0.540	-0.074
-181.056	-45.390	0.150	-0.096
-180.042	800.000	-0.106	-0.556
-179.027	96.666	0.174	0.257
-178.012	-89.278	-0.695	-0.262
-176.998	-142.701	-0.524	0.065
-175.983	-103.923	0.494	0.148
-174.969	-9.409	0.172	0.148
-173.954	-200.000	0.010	-0.376
-172.939	-137.199	-0.213	-0.031
-171.925	103.398	0.225	0.341
-170.910	800.000	-0.077	-0.393
-169.896	118.038	-0.281	-0.446
-168.881	-175.059	-0.237	0.008
-167.866	-200.000	0.012	-0.149
-166.852	-9.429	0.141	0.121
-165.837	-192.733	-0.289	0.003
-164.823	121.651	0.188	-0.302
-163.808	-77.274	-0.320	-0.142
-162.793	-92.202	0.406	0.147
-161.779	800.000	0.027	-0.117
-160.764	360.093	-0.063	0.163
-159.750	457.608	0.126	0.362
-158.735	-96.218	-0.190	0.064
-157.720	800.000	-0.074	-0.284
-156.706	623.949	0.056	-0.182
-155.691	-84.218	0.280	-0.113
-154.677	239.538	0.104	-0.223
-153.662	-53.154	0.204	-0.120
-152.647	114.955	0.091	-0.143
-151.633	-76.362	0.206	-0.093
-150.618	-200.000	-0.040	-0.280
-149.604	168.039	-0.132	-0.241
-148.589	-98.725	0.362	-0.118
-147.574	-200.000	-0.009	0.094
-146.560	800.000	0.063	0.294
-145.545	-147.640	0.203	-0.022
-144.531	-200.000	0.060	-0.454
-143.516	-178.676	0.121	0.003
-142.502	-173.270	0.207	-0.008
-141.487	800.000	0.090	0.391
-140.472	170.315	-0.210	0.387
-139.458	800.000	-0.118	-0.443
-138.443	-12.513	-0.605	-0.507
-137.429	-133.451	-0.286	0.046
-136.414	50.969	0.326	-0.398
-135.399	800.000	-0.044	-0.162
-134.385	-200.000	0.021	-0.456
-133.370	800.000	-0.096	0.349
-132.356	-77.870	0.250	0.110
-131.341	-159.935	-0.289	-0.020
-130.326	37.854	-0.148	-0.169
-129.312	754.359	-0.076	0.266
-128.297	79.538	-0.186	-0.257
-127.283	657.762	-0.127	0.421
-126.268	-200.000	-0.009	-0.085
-125.253	128.268	-0.110	0.181
-124.239	109.446	-0.051	-0.079
-123.224	-200.000	0.009	0.172
-122.210	-4.308	0.360	-0.320
-121.195	-129.592	0.611	-0.108
-120.180	-104.175	-0.191	0.057
-119.166	-88.981	-0.377	0.143
-118.151	-71.936	0.251	-0.119
-117.137	-45.418	0.323	-0.205
-116.122	385.436	-0.233	-0.621
-115.107	-200.000	0.003	-0.386
-114.093	-89.496	-0.370	0.139
-113.078	-200.000	-0.098	0.681
-112.064	-165.781	0.195	0.011
-111.049	-143.920	0.185	0.022
-110.034	800.000	-0.046	0.229
-109.020	-49.429	-0.469	-0.286
-108.005	-44.226	-0.358	-0.230
-106.991	-31.933	0.446	-0.320
-105.976	418.397	0.079	0.217
-104.962	-138.493	-0.330	0.046
-103.947	421.899	-0.140	-0.388
-102.932	-200.000	0.027	0.159
-101.918	-200.000	-0.004	-0.096
-100.903	-89.202	0.475	-0.179
-99.889	-200.000	-0.055	-0.449
-98.874	10.016	-0.422	0.411
-97.859	-200.000	-0.037	0.213
-96.845	40.189	-0.208	0.241
-95.830	39.459	-0.203	0.233
-94.816	-74.579	-0.271	0.125
-93.801	142.132	0.182	0.311
-92.786	-200.000	0.005	-0.037
-91.772	-85.153	0.392	-0.156
-90.757	-200.000	0.002	0.112
-89.743	141.366	0.140	-0.238
-88.728	-83.268	-0.570	-0.234
-87.713	-200.000	-0.370	0.000
-86.699	25.115	0.386	-0.411
-85.684	-139.960	0.118	-0.016
-84.670	105.723	-0.150	0.228
-83.655	-19.962	-0.216	0.171
-82.640	-73.489	0.262	0.122
-81.626	-91.310	0.369	-0.134
-80.611	254.998	-0.025	-0.055
-79.597	-160.833	0.218	-0.015
-78.582	-68.153	-0.227	-0.113
-77.567	-101.409	0.284	-0.088
-76.553	-96.342	-0.370	-0.125
-75.538	800.000	0.071	0.357
-74.524	800.000	0.147	0.619
-73.509	-145.067	-0.383	-0.044
-72.494	-188.248	0.464	-0.007
-71.480	-200.000	0.006	-0.045
-70.465	-106.243	-0.162	0.046
-69.451	261.308	-0.140	-0.313
-68.436	-126.484	-0.602	-0.114
-67.422	371.813	-0.100	0.262
-66.407	-70.986	-0.255	0.123
-65.392	-200.000	0.015	0.140
-64.378	58.713	0.199	-0.251
-63.363	800.000	-0.093	-0.375
-62.349	-118.514	-0.162	0.036
-61.334	23.801	-2.170	-2.291
-60.319	5.332	1.214	1.146
-59.305	243.761	-3.351	-7.230
-58.290	12.060	4.412	4.347
-57.276	436.525	3.875	10.866
-56.261	-200.000	21.238	292.635
-55.246	376.756	1271.756	3342.479
-54.232	55.651	2837.873	3524.797
-53.217	60.178	2667.576	3382.108
-52.203	30.948	2402.189	2637.515
-51.188	30.490	2067.288	2264.117
-50.173	26.942	1953.115	2097.849
-49.159	25.583	1943.200	2071.391
-48.144	25.046	1937.821	2059.376
-47.130	24.985	1935.858	2056.494
-46.115	24.933	1935.110	2055.020
-45.100	24.835	1934.737	2053.417
-44.086	24.941	1931.439	2051.057
-43.071	24.917	1929.882	2049.038
-42.057	24.891	1928.972	2047.702
-41.042	24.715	1928.690	2045.292
-40.027	24.815	1927.166	2044.744
-39.013	24.900	1924.077	2042.355
-37.998	24.726	1923.631	2039.813
-36.984	24.749	1921.851	2038.103
-35.969	24.776	1921.017	2037.449
-34.954	24.887	1919.782	2037.323
-33.940	24.828	1918.025	2034.712
-32.925	24.793	1917.742	2033.925
-31.911	24.856	1916.007	2032.730
-30.896	24.797	1915.068	2030.976
-29.881	24.859	1912.344	2028.710
-28.867	24.718	1912.027	2026.685
-27.852	24.587	1910.906	2023.930
-26.838	24.568	1909.870	2022.537
-25.823	24.591	1908.374	2021.134
-24.809	24.576	1907.064	2019.499
-23.794	24.731	1904.799	2018.780
-22.779	24.652	1904.275	2017.238
-21.765	24.564	1902.911	2014.723
-20.750	24.524	1901.960	2013.176
-19.736	24.516	1901.105	2012.111
-18.721	24.670	1898.091	2010.579
-17.706	24.596	1897.802	2009.356
-16.692	24.512	1896.539	2006.993
-15.677	24.487	1895.783	2005.832
-14.663	24.591	1894.180	2005.225
-13.648	24.430	1892.583	2001.641
-12.633	24.466	1891.970	2001.322
-11.619	24.541	1890.699	2000.735
-10.604	24.532	1889.129	1998.893
-9.590	24.436	1888.538	1997.110
-8.575	24.419	1886.466	1994.649
-7.560	24.577	1885.480	1995.308
-6.546	24.482	1883.687	1992.256
-5.531	24.531	1883.071	1992.082
-4.517	24.434	1882.730	1990.547
-3.502	24.433	1882.114	1989.807
-2.487	24.548	1880.034	1988.817
-1.473	24.634	1877.019	1986.513
-0.458	24.712	1859.627	1968.888
0.556	21.926	2006.834	2079.196
1.571	21.174	2214.363	2284.039
2.586	22.037	2255.680	2337.932
3.600	22.051	2258.582	2340.852
4.615	22.157	2257.868	2341.247
5.629	22.076	2256.290	2338.249
6.644	22.022	2253.689	2334.554
7.659	22.021	2252.345	2332.866
8.673	22.143	2249.535	2331.303
9.688	21.868	2257.797	2335.906
10.702	20.563	2337.279	2399.750
11.717	19.136	2401.786	2445.327
12.731	9.586	2378.263	2285.480
13.746	1.397	2356.571	2148.303
14.761	0.276	2351.997	2127.970
15.775	0.162	2349.472	2123.806
16.790	0.154	2348.142	2122.236
17.804	0.145	2348.107	2121.825
18.819	0.104	2346.769	2119.783
19.834	0.049	2344.670	2116.846
20.848	0.057	2343.027	2115.222
21.863	0.140	2340.837	2114.167
22.877	-0.014	2339.440	2110.478
23.892	-0.017	2337.752	2108.668
24.907	-0.008	2334.606	2105.698
25.921	0.183	2332.907	2106.610
26.936	0.025	2331.469	2102.833
27.950	0.056	2328.012	2099.903
28.965	0.169	2325.227	2098.716
29.980	0.059	2324.875	2096.602
30.994	0.179	2322.087	2095.524
32.009	4.781	2338.735	2175.025
33.023	16.506	2373.783	2373.685
34.038	21.740	2383.767	2457.353
35.053	22.547	2381.602	2466.177
36.067	22.446	2378.960	2461.731
37.082	22.174	2377.102	2455.698
38.096	22.402	2375.098	2456.531
39.111	22.237	2373.191	2451.946
40.126	22.320	2370.773	2450.326
41.140	22.618	2369.605	2452.994
42.155	22.479	2368.734	2449.857
43.169	22.693	2368.138	2451.927
44.184	22.972	2365.021	2452.308
45.199	23.058	2361.773	2449.836
46.213	22.717	2359.755	2442.713
47.228	22.415	2358.441	2436.850
48.242	22.752	2357.063	2439.817
49.257	22.942	2356.041	2441.113
50.271	22.554	2352.093	2431.347
51.286	22.398	2350.930	2427.695
52.301	22.722	2349.738	2430.667
53.315	22.236	2347.565	2421.391
54.330	21.876	2343.897	2412.344
55.344	21.796	2341.270	2408.251
56.359	21.720	2338.080	2403.635
57.374	21.648	2336.377	2400.609
58.388	21.770	2333.294	2398.830
59.403	22.051	2329.797	2398.806
60.417	22.062	2328.692	2397.532
61.432	22.114	2327.866	2397.111
62.447	22.260	2326.125	2397.020
63.461	22.224	2324.250	2394.316
64.476	22.220	2321.952	2391.610
65.490	22.422	2321.813	2393.933
66.505	22.638	2320.361	2395.103
67.520	22.620	2319.875	2394.074
68.534	22.434	2317.453	2388.750
69.549	22.870	2314.393	2391.247
70.563	22.968	2311.981	2389.799
71.578	22.953	2310.704	2387.989
72.593	22.835	2308.607	2383.938
73.607	23.022	2307.611	2385.149
74.622	23.229	2306.189	2386.207
75.636	23.301	2303.036	2383.624
76.651	23.141	2302.815	2380.951
77.666	23.202	2300.260	2378.850
78.680	23.171	2298.034	2375.849
79.695	23.331	2296.422	2376.046
80.709	23.414	2295.631	2376.065
81.724	23.454	2293.577	2374.194
82.739	23.242	2289.745	2367.097
83.753	23.139	2289.168	2364.828
84.768	23.252	2288.174	2365.038
85.782	23.549	2286.372	2366.874
86.797	23.468	2284.120	2363.170
87.812	23.062	2280.660	2353.883
88.826	23.153	2278.823	2352.924
89.841	23.337	2277.386	2353.610
90.855	23.402	2275.095	2351.829
91.870	23.206	2274.435	2348.255
92.884	23.377	2272.362	2348.116
93.899	23.362	2270.677	2345.885
94.914	22.956	2269.357	2338.838
95.928	22.519	2267.130	2330.456
96.943	22.319	2263.326	2323.611
97.957	22.669	2263.582	2328.243
98.972	23.122	2262.565	2332.931
99.987	22.918	2257.922	2325.162
101.001	22.928	2255.906	2322.943
102.016	23.128	2254.765	2324.127
103.030	22.905	2251.498	2317.543
104.045	22.839	2248.995	2313.814
105.060	22.791	2247.438	2311.307
106.074	23.041	2245.019	2311.829
107.089	22.818	2244.727	2308.320
108.103	22.973	2244.071	2309.406
109.118	23.086	2243.295	2309.812
110.133	23.200	2240.691	2308.348
111.147	23.306	2239.409	2308.149
112.162	23.545	2237.954	2309.498
113.176	23.423	2234.458	2304.013
114.191	23.024	2231.904	2295.907
115.206	22.784	2230.138	2290.682
116.220	22.779	2227.908	2288.049
117.235	22.786	2225.190	2285.072
118.249	22.691	2223.086	2281.400
119.264	22.796	2222.873	2282.280
120.279	23.036	2221.873	2284.102
121.293	22.929	2218.682	2279.160
122.308	22.913	2217.640	2277.604
123.322	22.828	2216.920	2275.486
124.337	22.421	2213.677	2266.620
125.352	22.229	2213.376	2263.556
126.366	22.408	2213.053	2265.269
127.381	22.493	2210.109	2263.085
128.395	22.447	2205.967	2257.988
129.410	22.455	2205.006	2256.832
130.424	22.731	2204.023	2259.107
131.439	22.712	2201.785	2256.304
132.454	22.862	2199.669	2255.788
133.468	22.798	2198.172	2253.165
134.483	22.512	2196.289	2247.292
135.497	22.507	2194.597	2245.237
136.512	22.645	2192.710	2244.800
137.527	22.673	2191.640	2243.797
138.541	22.920	2189.306	2244.285
139.556	22.709	2189.210	2241.232
140.570	22.706	2188.449	2240.138
141.585	22.878	2186.099	2239.655
142.600	22.836	2184.626	2237.348
143.614	22.616	2183.077	2232.688
144.629	22.847	2181.228	2233.479
145.643	22.774	2179.245	2230.252
146.658	22.869	2177.119	2229.007
147.673	22.919	2175.725	2227.946
148.687	23.094	2174.659	2228.804
149.702	23.306	2174.810	2231.383
150.716	23.272	2173.910	2229.758
151.731	23.386	2172.027	2229.001
152.746	23.364	2171.084	2227.488
153.760	22.998	2169.199	2220.666
154.775	22.316	2166.576	2209.114
155.789	21.888	2163.792	2200.621
156.804	22.182	2161.888	2202.116
157.819	22.831	2158.895	2206.965
158.833	23.093	2156.803	2207.853
159.848	23.213	2154.866	2207.106
160.862	23.090	2154.088	2204.507
161.877	23.230	2152.862	2204.735
162.892	23.196	2153.363	2204.557
163.906	23.226	2151.885	2203.160
164.921	23.126	2149.261	2198.965
165.935	23.050	2146.487	2194.915
166.950	23.006	2144.668	2192.243
167.964	22.841	2142.454	2187.665
168.979	22.736	2139.565	2183.139
169.994	22.955	2139.300	2185.332
171.008	22.955	2137.660	2183.403
172.023	23.126	2136.398	2183.969
173.037	23.244	2135.368	2184.117
174.052	22.970	2132.993	2178.035
175.067	22.754	2130.256	2172.302
176.081	22.740	2129.161	2170.760
177.096	22.738	2127.996	2169.287
178.110	22.496	2125.274	2163.257
179.125	22.526	2124.322	2162.403
180.140	22.799	2124.384	2165.570
181.154	22.680	2121.465	2160.871
182.169	22.418	2119.736	2155.630
183.183	22.226	2118.062	2151.312
184.198	21.971	2116.598	2146.427
185.213	21.902	2116.639	2145.368
186.227	22.434	2114.465	2149.439
187.242	22.467	2113.319	2148.419
188.256	22.506	2112.024	2147.326
189.271	22.921	2111.285	2151.391
190.286	23.044	2109.513	2150.836
191.300	22.583	2106.644	2142.025
192.315	22.624	2104.039	2139.622
193.329	22.724	2104.048	2140.594
194.344	23.059	2102.252	2142.587
195.359	22.945	2101.752	2140.434
196.373	22.890	2100.513	2138.246
197.388	22.914	2096.656	2134.360
198.402	22.902	2095.552	2132.833
199.417	22.875	2092.826	2129.478
200.432	23.102	2090.662	2129.761
201.446	23.189	2090.277	2130.170
202.461	23.040	2089.418	2127.238
203.475	22.954	2087.135	2123.626
204.490	23.099	2085.130	2123.080
205.504	23.111	2081.721	2119.492
206.519	22.798	2081.331	2115.072
207.534	23.076	2077.831	2114.612
208.548	22.972	2078.027	2113.309
209.563	22.945	2076.729	2111.410
210.577	22.835	2075.716	2108.802
211.592	22.901	2074.107	2107.705
212.607	22.467	2073.767	2101.902
213.621	22.107	2070.954	2094.496
214.636	21.925	2069.241	2090.333
215.650	22.403	2068.752	2095.302
216.665	22.687	2067.274	2096.949
217.680	23.120	2066.647	2101.235
218.694	23.519	2066.260	2105.356
219.709	23.759	2065.575	2107.264
220.723	23.565	2063.149	2102.228
221.738	23.289	2060.216	2095.697
222.753	22.989	2057.940	2089.577
223.767	22.973	2056.565	2087.736
224.782	22.867	2053.404	2083.019
225.796	22.759	2052.714	2080.788
226.811	22.964	2050.783	2081.014
227.826	23.003	2049.077	2079.496
228.840	23.046	2048.292	2078.953
229.855	22.790	2046.324	2073.687
230.869	22.885	2045.090	2073.312
231.884	23.042	2043.663	2073.464
232.899	22.801	2042.049	2068.737
233.913	22.640	2039.819	2064.336
234.928	22.702	2039.161	2064.153
235.942	22.873	2037.737	2064.475
236.957	22.741	2035.715	2060.631
237.972	22.772	2034.795	2059.819
238.986	22.867	2034.279	2060.166
240.001	22.782	2031.849	2056.453
241.015	22.624	2030.134	2052.624
242.030	22.771	2028.845	2052.797
243.045	22.378	2026.945	2046.037
244.059	22.119	2025.809	2041.626
245.074	22.521	2022.683	2042.919
246.088	22.536	2020.157	2040.291
247.103	22.537	2019.210	2039.106
248.117	22.609	2018.029	2038.507
249.132	22.837	2016.447	2039.304
250.147	22.615	2014.418	2034.438
251.161	22.413	2013.463	2030.885
252.176	22.561	2012.345	2031.236
253.190	22.880	2010.902	2033.225
254.205	22.804	2008.878	2030.052
255.220	23.046	2007.288	2031.006
256.234	23.032	2006.723	2030.025
257.249	22.857	2005.093	2026.112
258.263	22.783	2004.012	2023.930
259.278	22.792	2003.074	2022.845
260.293	22.826	2001.277	2021.177
261.307	22.864	1998.666	2018.739
262.322	22.799	1997.122	2016.181
263.336	22.839	1994.903	2014.169
264.351	22.807	1993.789	2012.426
265.366	23.000	1993.321	2013.929
266.380	23.036	1992.814	2013.587
267.395	22.799	1991.504	2009.311
268.409	22.862	1989.224	2007.491
269.424	23.331	1987.963	2011.333
270.439	23.211	1988.572	2010.334
271.453	23.094	1984.793	2004.946
272.468	22.243	1981.748	1991.938
273.482	22.072	1980.517	1988.524
274.497	22.669	1978.498	1993.036
275.512	23.198	1976.827	1997.114
276.526	23.051	1975.488	1993.861
277.541	23.065	1973.526	1991.801
278.555	23.132	1972.791	1991.584
279.570	22.924	1970.498	1986.669
280.585	22.793	1968.525	1982.971
281.599	22.755	1966.958	1980.719
282.614	22.792	1965.905	1979.842
283.628	22.786	1964.616	1978.235
284.643	22.733	1963.791	1976.570
285.657	22.814	1961.945	1975.395
286.672	22.677	1960.289	1971.945
287.687	22.369	1957.522	1965.468
288.701	22.274	1956.248	1962.898
289.716	22.220	1953.990	1959.789
290.730	22.080	1952.281	1956.270
291.745	22.040	1951.888	1955.197
292.760	22.345	1950.736	1957.221
293.774	22.438	1950.429	1957.709
294.789	22.451	1949.938	1957.129
295.803	22.599	1947.227	1955.830
296.818	22.673	1946.478	1955.661
297.833	22.733	1944.628	1954.245
298.847	22.460	1943.469	1949.809
299.862	22.546	1941.241	1948.288
300.876	22.289	1938.961	1942.917
301.891	21.992	1938.033	1938.458
302.906	22.353	1937.847	1942.047
303.920	22.663	1936.645	1944.041
304.935	22.590	1934.843	1941.201
305.949	22.490	1932.074	1937.086
306.964	22.471	1930.976	1935.539
307.979	22.534	1928.428	1933.447
308.993	22.253	1926.843	1928.534
310.008	22.381	1925.381	1928.246
311.022	22.566	1925.211	1929.882
312.037	22.579	1922.896	1927.475
313.052	22.305	1920.534	1921.863
314.066	22.136	1918.819	1918.065
315.081	22.150	1916.532	1915.706
316.095	22.023	1915.185	1912.732
317.110	22.092	1914.932	1913.012
318.125	22.414	1914.452	1915.821
319.139	22.560	1914.600	1917.335
320.154	22.926	1912.380	1918.881
321.168	23.076	1911.035	1918.943
322.183	23.115	1909.805	1917.902
323.197	23.117	1908.277	1916.160
324.212	23.092	1906.852	1914.229
325.227	23.120	1905.666	1913.113
326.241	23.207	1903.526	1911.682
327.256	23.194	1902.799	1910.583
328.270	23.234	1902.380	1910.365
329.285	22.996	1901.473	1906.639
330.300	22.702	1900.848	1902.602
331.314	22.229	1898.108	1894.511
332.329	22.199	1894.862	1890.721
333.343	22.620	1894.675	1894.857
334.358	23.203	1893.688	1899.937
335.373	23.573	1891.885	1901.884
336.387	23.299	1890.703	1897.519
337.402	23.380	1889.513	1896.971
338.416	23.155	1887.642	1892.441
339.431	23.218	1886.203	1891.458
340.446	23.495	1884.071	1892.061
341.460	23.325	1882.252	1888.182
342.475	23.138	1880.675	1884.374
343.489	22.982	1879.075	1880.882
344.504	22.762	1877.746	1876.970
345.519	22.616	1875.212	1872.654
346.533	22.384	1872.611	1867.363
347.548	22.518	1871.876	1867.832
348.562	22.630	1870.624	1867.546
349.577	22.343	1869.785	1863.438
350.592	22.356	1868.183	1861.750
351.606	22.432	1867.116	1861.279
352.621	22.432	1864.560	1858.501
353.635	22.171	1863.507	1854.467
354.650	22.045	1861.830	1851.241
355.665	22.225	1860.098	1851.203
356.679	22.352	1860.251	1852.471
357.694	22.744	1857.834	1853.982
358.708	22.712	1857.380	1852.976
359.723	22.463	1857.624	1850.368
360.738	22.230	1854.805	1844.884
361.752	22.253	1853.307	1843.408
362.767	22.467	1851.850	1843.997
363.781	22.552	1850.008	1842.831
364.796	22.795	1849.799	1844.951
365.810	22.993	1848.445	1845.464
366.825	22.851	1847.015	1842.321
367.840	23.025	1846.719	1843.630
368.854	23.255	1845.539	1844.649
369.869	22.896	1844.152	1839.281
370.883	22.812	1841.479	1835.513
371.898	22.646	1840.449	1832.535
372.913	22.414	1839.866	1829.308
373.927	22.553	1838.519	1829.206
374.942	22.628	1837.169	1828.420
375.956	22.890	1836.707	1830.472
376.971	23.312	1834.424	1832.371
377.986	23.293	1833.356	1830.891
379.000	23.332	1832.105	1829.827
380.015	23.425	1830.407	1828.878
381.029	23.560	1829.147	1828.798
382.044	23.529	1827.387	1826.497
383.059	23.468	1825.798	1824.062
384.073	23.177	1825.034	1820.064
385.088	23.071	1823.775	1817.504
386.102	23.046	1821.971	1815.221
387.117	23.218	1819.430	1814.251
388.132	23.110	1819.027	1812.522
389.146	22.969	1819.377	1811.193
390.161	22.527	1816.039	1803.116
391.175	22.366	1813.458	1798.679
392.190	22.909	1810.693	1801.286
393.205	22.811	1808.945	1798.334
394.219	22.824	1808.440	1797.747
395.234	23.173	1807.066	1799.739
396.248	23.241	1804.950	1798.108
397.263	22.959	1802.892	1792.965
398.278	22.626	1801.351	1787.828
399.292	22.626	1799.704	1785.974
400.307	22.753	1799.227	1786.578
401.321	22.829	1798.447	1786.366
402.336	22.751	1795.989	1782.914
403.350	22.628	1794.581	1780.062
404.365	23.005	1793.833	1782.926
405.380	23.262	1792.987	1784.480
406.394	23.263	1791.569	1782.860
407.409	23.159	1789.205	1779.241
408.423	22.974	1787.111	1775.082
409.438	22.580	1786.402	1770.187
410.453	22.608	1784.538	1768.411
411.467	22.565	1783.484	1766.725
412.482	22.417	1782.229	1763.776
413.496	22.556	1781.415	1764.161
414.511	22.611	1779.009	1762.120
415.526	22.450	1776.769	1758.070
416.540	22.421	1775.548	1756.361
417.555	22.385	1775.362	1755.612
418.569	22.348	1774.644	1754.321
419.584	22.599	1774.487	1756.466
420.599	23.045	1774.884	1761.111
421.613	22.878	1774.772	1759.126
422.628	23.103	1772.933	1759.342
423.642	23.142	1770.900	1757.495
424.657	22.711	1769.589	1751.691
425.672	22.664	1767.526	1748.969
426.686	22.762	1765.189	1747.423
427.701	22.419	1763.285	1741.912
428.715	22.224	1760.409	1736.928
429.730	22.286	1759.463	1736.409
430.745	22.297	1758.811	1735.667
431.759	22.155	1757.889	1733.139
432.774	21.866	1755.567	1727.779
433.788	21.481	1754.123	1722.341
434.803	21.219	1753.516	1718.944
435.818	21.239	1753.915	1719.328
436.832	21.146	1753.025	1717.331
437.847	20.273	1744.776	1700.449
438.861	11.351	1721.042	1590.057
439.876	1.964	1704.194	1482.890
440.890	0.392	1699.686	1463.462
441.905	0.153	1698.299	1459.767
442.920	0.136	1697.286	1458.556
443.934	0.081	1696.094	1456.821
444.949	0.151	1694.379	1455.856
445.963	0.130	1693.588	1454.797
446.978	0.106	1692.615	1453.553
447.993	0.104	1692.139	1452.944
449.007	0.165	1688.869	1450.553
450.022	0.099	1687.199	1448.314
451.036	0.237	1685.557	1448.059
452.051	0.629	1689.069	1454.696
453.066	8.493	1707.926	1547.515
454.080	18.153	1723.603	1655.988
455.095	20.428	1727.261	1681.469
456.109	21.093	1727.306	1687.781
457.124	20.914	1726.741	1685.285
458.139	20.943	1726.099	1684.738
459.153	20.857	1724.789	1682.420
460.168	20.913	1722.395	1680.427
461.182	20.854	1721.313	1678.596
462.197	21.023	1719.516	1678.279
463.212	21.172	1717.915	1677.953
464.226	21.148	1717.665	1677.275
465.241	21.078	1716.327	1675.098
466.255	21.003	1714.711	1672.594
467.270	21.093	1713.724	1672.301
468.285	21.078	1712.790	1671.043
469.299	21.078	1711.137	1669.233
470.314	21.012	1708.858	1666.175
471.328	21.202	1707.067	1666.046
472.343	21.095	1706.566	1664.333
473.358	20.889	1705.212	1660.842
474.372	20.990	1703.326	1659.774
475.387	20.899	1702.203	1657.610
476.401	20.866	1701.263	1656.178
477.416	20.784	1699.593	1653.577
478.430	20.762	1698.551	1652.152
479.445	20.890	1697.373	1652.034
480.460	20.941	1696.521	1651.491
481.474	20.938	1696.193	1650.944
482.489	20.912	1694.164	1648.523
483.503	20.827	1691.718	1645.142
484.518	20.753	1689.911	1642.479
485.533	20.582	1689.351	1640.125
486.547	20.662	1686.936	1638.335
487.562	20.403	1685.576	1634.368
488.576	20.525	1684.678	1634.462
489.591	20.525	1683.874	1633.484
490.606	20.691	1682.738	1633.753
491.620	20.749	1681.243	1632.652
492.635	20.739	1679.065	1630.245
493.649	20.569	1677.188	1626.631
494.664	20.857	1676.886	1628.847
495.679	21.073	1676.728	1630.526
496.693	20.976	1675.409	1628.140
497.708	20.996	1673.424	1626.209
498.722	20.823	1672.289	1623.289
499.737	20.762	1670.754	1621.030
500.752	21.030	1669.825	1622.445
501.766	21.094	1668.027	1621.101
502.781	20.919	1666.615	1617.902
503.795	20.959	1665.313	1616.815
504.810	20.954	1664.618	1615.905
505.825	20.907	1663.546	1614.230
506.839	20.972	1662.473	1613.597
507.854	20.842	1661.624	1611.372
508.868	20.834	1659.109	1608.663
509.883	20.761	1658.447	1607.160
510.898	20.689	1656.871	1604.764
511.912	20.712	1654.576	1602.568
512.927	20.682	1653.195	1600.760
513.941	20.584	1652.160	1598.664
514.956	20.956	1651.114	1600.891
515.971	20.906	1649.804	1598.967
516.985	20.715	1649.135	1596.365
518.000	20.704	1648.147	1595.115
519.014	20.591	1645.994	1591.806
520.029	20.554	1644.801	1590.123
521.043	20.511	1643.405	1588.187
522.058	20.583	1642.396	1587.684
523.073	20.484	1641.660	1585.873
524.087	20.350	1640.209	1583.051
525.102	20.556	1638.969	1583.555
526.116	20.944	1638.382	1586.347
527.131	20.937	1637.572	1585.306
528.146	20.653	1636.344	1581.334
529.160	20.707	1634.959	1580.297
530.175	20.652	1633.676	1578.373
531.189	20.702	1632.187	1577.193
532.204	20.590	1630.267	1574.133
533.219	20.762	1629.348	1574.622
534.233	20.732	1628.965	1573.792
535.248	20.541	1627.803	1570.749
536.262	20.351	1626.508	1567.579
537.277	20.280	1625.355	1565.636
538.292	20.331	1623.842	1564.454
539.306	20.500	1621.454	1563.494
540.321	20.328	1620.082	1560.434
541.335	20.304	1619.277	1559.253
542.350	20.438	1617.220	1558.291
543.365	20.427	1615.328	1556.186
544.379	20.322	1613.719	1553.505
545.394	20.224	1613.142	1551.880
546.408	20.365	1612.293	1552.152
547.423	20.778	1612.246	1555.623
548.438	20.856	1610.842	1554.782
549.452	20.719	1609.212	1551.800
550.467	20.706	1607.619	1549.956
551.481	20.712	1607.048	1549.277
552.496	20.462	1606.523	1546.353
553.511	20.400	1604.289	1543.462
554.525	20.575	1603.356	1543.940
555.540	20.401	1602.713	1541.586
556.554	20.345	1601.321	1539.565
557.569	20.423	1600.622	1539.400
558.583	20.522	1599.704	1539.214
559.598	20.620	1597.610	1537.890
560.613	20.475	1596.645	1535.487
561.627	20.508	1595.006	1534.015
562.642	20.346	1593.248	1530.710
563.656	20.090	1591.728	1526.796
564.671	20.077	1590.045	1524.888
565.686	20.096	1588.914	1523.789
566.700	20.336	1587.575	1524.439
567.715	20.288	1587.035	1523.314
568.729	20.342	1585.758	1522.385
569.744	20.519	1584.615	1522.657
570.759	20.333	1583.508	1519.781
571.773	20.310	1582.914	1518.826
572.788	20.232	1580.536	1515.675
573.802	20.192	1578.751	1513.429
574.817	20.052	1576.962	1510.313
575.832	20.107	1575.860	1509.557
576.846	20.117	1575.050	1508.685
577.861	20.241	1574.401	1508.963
578.875	20.374	1573.840	1509.408
579.890	20.297	1572.488	1507.258
580.905	20.423	1571.173	1506.916
581.919	20.267	1570.244	1504.488
582.934	20.123	1569.554	1502.397
583.948	20.098	1567.979	1500.490
584.963	20.224	1566.525	1500.013
585.978	20.244	1566.233	1499.727
586.992	20.231	1564.527	1497.801
588.007	19.929	1564.213	1494.701
589.021	20.062	1563.406	1494.903
590.036	20.275	1561.330	1494.580
591.051	20.120	1560.164	1491.946
592.065	20.072	1557.909	1489.203
593.080	19.953	1556.187	1486.347
594.094	19.928	1555.921	1485.701
595.109	20.338	1553.910	1487.135
596.123	20.451	1552.275	1486.360
597.138	20.198	1552.338	1484.069
598.153	20.167	1550.736	1482.089
599.167	20.097	1549.604	1480.234
600.182	20.109	1547.812	1478.444
601.196	20.116	1547.464	1477.997
602.211	20.093	1545.912	1476.144
603.226	20.056	1543.978	1473.799
604.240	20.047	1542.529	1472.168
605.255	20.052	1541.160	1470.729
606.269	19.985	1541.905	1470.685
607.284	20.005	1540.715	1469.546
608.299	20.053	1538.318	1467.496
609.313	20.194	1537.199	1467.446
610.328	20.327	1535.800	1467.072
611.342	20.156	1534.119	1463.838
612.357	20.077	1533.570	1462.470
613.372	20.058	1532.761	1461.363
614.386	20.044	1531.112	1459.493
615.401	19.945	1530.572	1457.967
616.415	19.889	1530.067	1456.835
617.430	19.895	1528.448	1455.168
618.445	19.723	1527.284	1452.440
619.459	19.878	1526.013	1452.361
620.474	20.071	1525.537	1453.366
621.488	20.223	1524.740	1453.708
622.503	20.359	1523.624	1453.619
623.518	20.052	1522.117	1449.423
624.532	19.805	1520.380	1445.525
625.547	19.682	1519.072	1443.069
626.561	19.595	1518.298	1441.433
627.576	19.423	1517.248	1438.827
628.591	19.888	1516.200	1441.551
629.605	19.907	1515.633	1441.001
630.620	20.121	1513.871	1440.941
631.634	20.284	1512.998	1441.296
632.649	19.981	1512.322	1437.950
633.663	19.875	1510.585	1435.241
634.678	19.658	1508.859	1431.623
635.693	19.581	1506.683	1428.748
636.707	19.594	1505.122	1427.210
637.722	19.561	1503.528	1425.254
638.736	19.563	1503.541	1425.113
639.751	19.857	1502.137	1426.043
640.766	19.803	1501.350	1424.677
641.780	19.758	1500.296	1423.135
642.795	20.010	1498.875	1423.703
643.809	19.935	1498.783	1422.822
644.824	19.826	1498.456	1421.445
645.839	19.875	1497.215	1420.497
646.853	19.891	1495.597	1418.926
647.868	19.864	1494.240	1417.242
648.882	19.964	1493.181	1416.897
649.897	19.867	1492.148	1414.943
650.912	19.729	1490.689	1412.259
651.926	19.767	1489.119	1410.917
652.941	19.748	1488.121	1409.643
653.955	19.846	1487.152	1409.359
654.970	20.027	1485.529	1409.133
655.985	19.895	1484.220	1406.647
656.999	19.824	1483.335	1405.057
658.014	19.789	1481.323	1402.703
659.028	19.691	1480.357	1400.821
660.043	19.883	1479.584	1401.485
661.058	19.671	1478.310	1398.387
662.072	19.770	1477.615	1398.364
663.087	19.906	1476.105	1397.872
664.101	20.012	1475.012	1397.531
665.116	19.762	1474.555	1394.906
666.131	19.753	1473.547	1393.708
667.145	19.639	1472.446	1391.575
668.160	19.717	1470.872	1390.553
669.174	19.666	1468.646	1387.876
670.189	19.789	1467.616	1387.721
671.204	19.772	1467.723	1387.519
672.218	19.789	1466.876	1386.695
673.233	19.750	1465.028	1384.462
674.247	19.646	1463.488	1382.007
675.262	19.541	1462.337	1379.910
676.276	19.599	1461.785	1379.691
677.291	19.621	1460.979	1378.943
678.306	19.805	1459.886	1379.218
679.320	19.867	1458.569	1378.306
680.335	19.702	1457.893	1376.181
681.349	19.714	1457.353	1375.604
682.364	19.598	1456.606	1373.810
683.379	19.478	1455.135	1371.299
684.393	19.614	1452.741	1369.963
685.408	19.470	1452.350	1368.278
686.422	19.382	1451.305	1366.436
687.437	19.351	1450.810	1365.558
688.452	19.389	1449.082	1364.068
689.466	19.245	1447.158	1360.951
690.481	19.451	1445.633	1360.983
691.495	19.514	1445.505	1361.202
692.510	19.742	1445.562	1362.904
693.525	19.875	1444.177	1362.482
694.539	19.677	1443.061	1359.705
695.554	19.249	1441.660	1354.837
696.568	19.177	1440.420	1352.943
697.583	19.371	1439.042	1353.019
698.598	19.193	1438.309	1350.761
699.612	19.217	1436.873	1349.443
700.627	19.467	1435.464	1349.919
701.641	19.403	1434.933	1348.760
702.656	19.558	1433.550	1348.515
703.671	19.463	1432.756	1346.856
704.685	19.322	1432.711	1345.551
705.700	19.482	1431.573	1345.573
706.714	19.653	1429.976	1345.250
707.729	19.466	1429.085	1342.790
708.744	19.385	1427.883	1340.868
709.758	19.478	1426.229	1339.875
710.773	19.606	1425.449	1339.983
711.787	19.809	1423.563	1339.630
712.802	19.544	1423.068	1336.944
713.816	19.406	1422.703	1335.362
714.831	19.523	1421.259	1334.758
715.846	19.401	1419.938	1332.411
716.860	19.446	1417.963	1330.747
717.875	19.578	1416.695	1330.420
718.889	19.576	1416.207	1329.785
719.904	19.464	1415.065	1327.689
720.919	19.495	1413.165	1325.988
721.933	19.451	1412.992	1325.328
722.948	19.403	1412.529	1324.364
723.962	19.386	1410.819	1322.471
724.977	19.495	1409.200	1321.635
725.992	19.305	1408.844	1319.677
727.006	19.362	1407.399	1318.608
728.021	19.412	1405.987	1317.512
729.035	19.475	1404.515	1316.453
730.050	19.476	1403.708	1315.549
731.065	19.432	1402.715	1314.125
732.079	19.358	1402.153	1312.871
733.094	19.484	1400.955	1312.556
734.108	19.556	1399.291	1311.390
735.123	19.559	1397.852	1309.908
736.138	19.350	1397.014	1307.379
737.152	19.511	1396.469	1307.938
738.167	19.337	1395.164	1305.235
739.181	19.336	1393.914	1303.897
740.196	19.353	1393.621	1303.595
741.211	19.390	1392.217	1302.410
742.225	19.333	1391.760	1301.392
743.240	19.312	1389.872	1299.309
744.254	19.275	1388.254	1297.368
745.269	19.155	1387.458	1295.559
746.284	19.065	1386.859	1294.165
747.298	19.322	1385.390	1294.578
748.313	19.309	1385.156	1294.107
749.327	19.370	1384.809	1294.086
750.342	19.663	1384.303	1295.666
751.356	19.810	1383.238	1295.621
752.371	19.650	1381.221	1292.378
753.386	19.337	1380.077	1288.802
754.400	19.277	1378.447	1286.672
755.415	19.333	1377.168	1285.744
756.429	19.218	1375.895	1283.541
757.444	19.353	1375.232	1283.783
758.459	19.217	1374.971	1282.367
759.473	19.267	1373.792	1281.484
760.488	19.268	1372.202	1279.855
761.502	19.454	1370.794	1279.777
762.517	19.350	1370.279	1278.370
763.532	19.450	1368.450	1277.252
764.546	19.454	1367.430	1276.180
765.561	19.509	1367.635	1276.626
766.575	19.556	1367.066	1276.290
767.590	19.768	1365.521	1276.271
768.605	19.688	1363.424	1273.564
769.619	19.420	1362.553	1270.614
770.634	19.357	1361.342	1268.867
771.648	19.283	1360.628	1267.502
772.663	19.324	1359.203	1266.321
773.678	19.381	1358.742	1266.163
774.692	19.348	1357.638	1264.739
775.707	19.247	1357.096	1263.339
776.721	19.349	1356.126	1263.035
777.736	19.186	1354.864	1260.512
778.751	19.196	1354.279	1259.885
779.765	19.196	1352.773	1258.335
780.780	19.288	1351.820	1257.973
781.794	19.323	1350.964	1257.281
782.809	19.025	1350.249	1254.282
783.824	19.043	1349.299	1253.387
784.838	19.220	1347.881	1253.212
785.853	19.354	1347.299	1253.502
786.867	19.241	1346.847	1252.104
787.882	19.162	1346.230	1250.805
788.897	18.986	1345.374	1248.573
789.911	19.115	1343.862	1247.964
790.926	19.183	1342.195	1246.757
791.940	18.973	1340.590	1243.593
792.955	18.979	1339.703	1242.663
793.969	18.928	1339.028	1241.517
794.984	18.944	1338.125	1240.651
795.999	19.054	1337.111	1240.358
797.013	19.157	1335.357	1239.325
798.028	19.095	1334.264	1237.717
799.042	19.091	1333.581	1236.903
800.057	19.170	1332.043	1235.901
801.072	19.097	1330.445	1233.749
802.086	19.157	1329.004	1232.690
803.101	19.118	1328.322	1231.632
804.115	19.144	1328.051	1231.421
805.130	19.155	1327.256	1230.617
806.145	19.288	1325.590	1229.879
807.159	19.277	1323.912	1228.095
808.174	19.296	1323.257	1227.479
809.188	19.291	1321.962	1226.091
810.203	19.258	1320.948	1224.769
811.218	19.318	1319.431	1223.644
812.232	19.460	1318.885	1224.002
813.247	19.317	1317.889	1221.912
814.261	19.248	1317.412	1220.837
815.276	19.256	1315.891	1219.334
816.291	19.245	1314.329	1217.665
817.305	19.148	1313.008	1215.607
818.320	19.082	1312.164	1214.212
819.334	19.088	1310.881	1212.923
820.349	19.252	1308.422	1211.660
821.364	19.190	1307.709	1210.415
822.378	19.052	1306.325	1208.019
823.393	19.166	1304.819	1207.286
824.407	19.033	1304.154	1205.587
825.422	19.064	1303.984	1205.501
826.437	18.905	1302.954	1203.287
827.451	18.903	1301.027	1201.352
828.466	19.148	1300.204	1202.166
829.480	19.304	1298.146	1201.214
830.495	19.144	1296.464	1198.391
831.509	18.959	1295.879	1196.413
832.524	19.046	1294.406	1195.523
833.539	19.170	1292.842	1194.798
834.553	19.097	1292.301	1193.647
835.568	19.007	1291.568	1192.198
836.582	19.107	1290.377	1191.652
837.597	19.274	1288.960	1191.360
838.612	19.319	1287.231	1189.932
839.626	19.198	1286.223	1188.021
840.641	19.214	1285.911	1187.700
841.655	19.219	1285.725	1187.419
842.670	19.447	1285.068	1188.251
843.685	19.789	1283.536	1189.059
844.699	19.581	1281.929	1185.987
845.714	19.380	1280.010	1182.687
846.728	19.325	1279.626	1181.812
847.743	19.148	1278.804	1179.692
848.758	19.252	1277.391	1178.962
849.772	19.057	1276.010	1176.211
850.787	19.007	1274.781	1174.588
851.801	18.946	1272.812	1172.221
852.816	19.032	1271.467	1171.429
853.831	18.975	1270.507	1170.013
854.845	19.022	1268.678	1168.507
855.860	18.955	1267.681	1166.993
856.874	18.918	1266.265	1165.299
857.889	19.065	1265.374	1165.341
858.904	19.215	1263.586	1164.575
859.918	19.241	1263.109	1164.173
860.933	19.346	1261.542	1163.300
861.947	19.176	1260.505	1161.056
862.962	19.154	1259.476	1159.820
863.977	19.190	1257.623	1158.213
864.991	19.013	1257.561	1156.823
866.006	18.926	1257.349	1155.900
867.020	19.007	1255.720	1154.813
868.035	19.135	1253.911	1153.871
869.049	19.156	1253.412	1153.417
870.064	19.124	1252.513	1152.234
871.079	19.074	1252.120	1151.400
872.093	19.047	1252.143	1151.100
873.108	19.296	1250.548	1151.168
874.122	19.331	1249.415	1150.226
875.137	19.377	1249.174	1150.171
876.152	19.430	1247.899	1149.218
877.166	19.464	1246.070	1147.622
878.181	19.375	1244.568	1145.504
879.195	19.257	1244.530	1144.547
880.210	19.096	1243.383	1142.278
881.225	19.333	1241.783	1142.251
882.239	19.185	1241.167	1140.562
883.254	19.174	1240.178	1139.446
884.268	19.211	1239.785	1139.197
885.283	19.253	1237.697	1137.420
886.298	19.157	1236.159	1135.234
887.312	19.077	1235.479	1133.945
888.327	19.341	1234.444	1134.604
889.341	19.268	1232.895	1132.561
890.356	19.016	1232.974	1130.836
891.371	19.112	1232.535	1130.930
892.385	19.109	1231.534	1129.856
893.400	19.135	1230.648	1129.076
894.414	19.132	1229.273	1127.664
895.429	19.360	1227.413	1127.320
896.444	19.504	1226.854	1127.617
897.458	19.751	1225.642	1127.988
898.473	19.316	1225.071	1124.475
899.487	19.277	1224.208	1123.292
900.502	19.269	1222.296	1121.351
901.517	19.348	1220.870	1120.427
902.531	19.413	1220.104	1120.013
903.546	19.263	1220.066	1118.869
904.560	19.294	1218.812	1117.787
905.575	19.109	1218.363	1116.030
906.589	19.222	1217.764	1116.085
907.604	19.337	1216.954	1115.961
