DTS Sentinel unit serial number:	SN409020Multiplexer serial number:	ORYXHardware model number:	OX4-SRSoftware version number:	ORYX F/W v3.00 Oryx Data Collector v3.7.2.0data status	okinstallation	HaddamTimeLapsedifferential loss correction	single-endedforward channel	channel 3reverse channel	N/Adate	2011/06/22time	07:51:16forward acquisition time	30.00reverse acquisition time	0.00gamma	498.7831k internal	0.1764k external	0.1764temperature offset calibration	1.0074default loss term (dB/km)	0.3790temperature slope calibration	1.3530multiplexer offset coefficient	1.0000multiplexer slope coefficient	1.0000fibre end	0.00T internal ref (°C)	24.22T ext. ref 1 (°C)	21.76T ext. ref 2 (°C)	0.15length (m)	temperature (°C)	Stokes	anti-Stokes-747.200	313.838	-0.063	0.157
-746.185	254.579	-0.194	0.440
-745.171	-8.399	0.225	0.199
-744.156	-103.057	0.232	0.072
-743.142	90.786	-0.076	-0.112
-742.127	-200.000	-0.097	0.000
-741.112	308.640	0.161	-0.397
-740.098	94.236	-0.016	0.024
-739.083	66.331	0.276	-0.370
-738.069	-6.332	0.400	0.360
-737.054	203.256	-0.248	-0.508
-736.039	-129.822	0.173	-0.031
-735.025	-21.253	-0.408	-0.328
-734.010	-112.870	-0.221	-0.057
-732.996	-52.373	-0.195	0.119
-731.981	-120.744	-0.163	0.036
-730.966	-200.000	-0.168	-0.001
-729.952	800.000	0.176	-0.667
-728.937	-148.102	0.252	-0.027
-727.923	200.344	-0.167	0.339
-726.908	357.309	0.148	0.391
-725.894	-106.892	0.062	0.018
-724.879	66.508	-0.247	-0.332
-723.864	278.302	0.181	-0.427
-722.850	-104.329	0.065	0.020
-721.835	-162.115	-0.710	-0.046
-720.821	382.227	-0.086	-0.234
-719.806	-200.000	-0.032	0.406
-718.791	-200.000	-0.068	0.591
-717.777	370.728	0.055	-0.148
-716.762	122.922	0.245	0.405
-715.748	800.000	-0.110	-0.496
-714.733	-12.576	-0.244	0.209
-713.718	-37.577	0.194	0.136
-712.704	-78.095	0.102	0.046
-711.689	-124.722	-0.309	0.062
-710.675	52.988	0.244	0.308
-709.660	800.000	0.055	-0.250
-708.645	10.208	0.197	0.198
-707.631	161.375	-0.150	0.276
-706.616	-200.000	0.011	-0.078
-705.602	-200.000	-0.053	-0.471
-704.587	144.849	-0.061	-0.108
-703.572	74.215	0.137	0.190
-702.558	-48.459	-0.230	0.145
-701.543	-47.333	-0.341	-0.218
-700.529	-70.790	-0.176	-0.087
-699.514	-59.158	0.318	-0.180
-698.499	-200.000	-0.042	-0.287
-697.485	150.440	0.112	0.200
-696.470	-73.654	-0.475	-0.227
-695.456	26.937	0.118	0.131
-694.441	-51.029	-0.377	-0.232
-693.426	-117.393	-0.370	-0.087
-692.412	800.000	0.061	0.321
-691.397	800.000	0.045	0.181
-690.383	448.932	0.049	-0.143
-689.368	76.040	0.209	-0.292
-688.354	-113.914	0.249	-0.063
-687.339	191.346	0.184	-0.366
-686.324	-134.599	-0.277	-0.044
-685.310	-84.430	0.267	-0.111
-684.295	-13.246	-0.112	0.095
-683.281	-133.889	-0.291	-0.047
-682.266	-200.000	0.033	0.546
-681.251	-78.075	0.485	0.219
-680.237	-11.305	-0.086	-0.074
-679.222	-114.838	0.106	-0.026
-678.208	-23.494	-0.380	0.300
-677.193	62.353	-0.446	-0.586
-676.178	-0.309	-0.157	0.146
-675.164	-124.178	0.475	0.097
-674.149	18.634	0.444	-0.467
-673.135	55.494	0.252	-0.321
-672.120	-166.815	-0.521	-0.028
-671.105	55.468	0.217	0.277
-670.091	-10.251	-0.034	-0.029
-669.076	-146.053	0.110	0.013
-668.062	-112.910	0.200	0.052
-667.047	-78.154	0.398	-0.179
-666.032	-107.626	0.152	-0.043
-665.018	52.207	0.232	-0.291
-664.003	800.000	0.031	-0.179
-662.989	-200.000	-0.001	0.564
-661.974	152.802	-0.243	0.438
-660.959	32.572	-0.230	-0.261
-659.945	154.852	-0.173	0.314
-658.930	-200.000	0.003	-0.291
-657.916	-41.569	-0.355	-0.239
-656.901	800.000	-0.037	-0.174
-655.886	235.458	-0.179	0.389
-654.872	-200.000	0.026	0.347
-653.857	181.126	0.073	0.141
-652.843	-105.461	-0.114	0.034
-651.828	-73.906	-0.388	-0.184
-650.814	-200.000	-0.031	0.200
-649.799	-125.585	0.585	-0.116
-648.784	-135.120	-0.310	-0.048
-647.770	228.938	0.063	0.135
-646.755	-158.715	-0.408	0.030
-645.741	788.868	-0.117	-0.426
-644.726	-110.064	-0.252	0.069
-643.711	-51.436	-0.079	-0.048
-642.697	47.215	0.170	-0.208
-641.682	245.738	0.192	-0.427
-640.668	-68.020	-0.692	-0.353
-639.653	234.839	-0.153	-0.333
-638.638	-57.189	0.371	0.214
-637.624	341.768	0.060	0.154
-636.609	-126.571	-0.390	0.075
-635.595	122.615	-0.133	0.218
-634.580	-54.972	-0.304	-0.179
-633.565	144.749	0.431	0.759
-632.551	-141.302	-0.756	0.100
-631.536	-49.907	0.259	0.161
-630.522	-95.685	0.213	-0.074
-629.507	-33.620	-0.358	-0.259
-628.492	-168.289	0.518	0.026
-627.478	-185.949	-0.266	-0.005
-626.463	199.231	-0.078	0.158
-625.449	-50.437	-0.137	-0.084
-624.434	16.216	-0.247	0.255
-623.419	-178.189	0.191	0.006
-622.405	675.200	0.225	-0.772
-621.390	179.501	-0.065	0.124
-620.376	99.184	0.097	0.147
-619.361	-75.064	0.098	-0.046
-618.346	-122.209	-0.063	0.013
-617.332	131.136	0.040	-0.067
-616.317	110.552	-0.328	0.519
-615.303	-72.415	-0.258	0.125
-614.288	800.000	-0.050	0.188
-613.273	304.287	0.038	-0.093
-612.259	-150.461	-0.132	0.013
-611.244	-200.000	-0.008	-0.106
-610.230	-10.543	-0.170	0.148
-609.215	-107.589	0.334	0.095
-608.201	-200.000	-0.003	0.194
-607.186	-57.326	0.422	-0.243
-606.171	-67.533	0.280	0.143
-605.157	-32.049	-0.225	-0.165
-604.142	-21.200	-0.091	-0.073
-603.128	-183.042	0.585	0.013
-602.113	270.029	0.123	-0.285
-601.098	10.180	0.064	-0.063
-600.084	-82.211	0.210	0.089
-599.069	301.137	-0.103	-0.251
-598.055	774.194	-0.048	-0.173
-597.040	-93.725	0.200	-0.072
-596.025	-169.983	-0.262	-0.012
-595.011	-101.395	-0.159	-0.050
-593.996	800.000	0.031	-0.168
-592.982	29.764	-0.169	0.188
-591.967	98.472	-0.100	-0.151
-590.952	236.101	-0.105	0.228
-589.938	-34.863	0.539	0.385
-588.923	-35.474	-0.209	0.148
-587.909	52.633	-0.204	-0.255
-586.894	304.878	0.110	-0.268
-585.879	182.857	-0.135	-0.261
-584.865	-121.413	-0.359	0.078
-583.850	30.789	-0.231	-0.259
-582.836	-89.780	-0.198	0.076
-581.821	122.219	0.065	-0.106
-580.806	460.401	-0.148	0.435
-579.792	-21.531	-0.205	-0.164
-578.777	-142.848	-0.171	-0.022
-577.763	-102.227	0.219	0.069
-576.748	-200.000	0.068	0.413
-575.733	121.767	0.208	-0.341
-574.719	800.000	-0.064	-0.350
-573.704	-138.979	-0.433	0.061
-572.690	-165.389	-0.190	0.011
-571.675	-82.509	-0.433	0.183
-570.661	94.756	-0.117	-0.174
-569.646	402.223	0.092	0.255
-568.631	800.000	-0.090	0.417
-567.617	800.000	0.094	-0.542
-566.602	-200.000	0.027	-0.221
-565.588	400.250	-0.039	-0.109
-564.573	-120.471	0.240	0.053
-563.558	5.039	0.263	0.253
-562.544	402.120	0.066	-0.183
-561.529	50.063	-0.369	0.456
-560.515	452.075	0.085	-0.249
-559.500	800.000	0.031	-0.119
-558.485	-7.546	-0.082	-0.072
-557.471	207.897	-0.118	0.241
-556.456	189.936	-0.206	-0.407
-555.442	136.116	0.077	0.131
-554.427	571.742	-0.109	0.348
-553.412	-124.760	0.470	-0.094
-552.398	366.192	0.154	0.409
-551.383	-21.619	-0.536	-0.427
-550.369	129.631	0.218	-0.365
-549.354	21.211	0.263	-0.280
-548.339	-200.000	-0.037	-0.291
-547.325	32.064	0.414	-0.467
-546.310	47.044	-0.360	-0.439
-545.296	172.793	-0.152	-0.288
-544.281	24.502	-0.152	-0.164
-543.266	64.879	0.269	-0.355
-542.252	-2.305	-0.135	-0.124
-541.237	12.349	-0.327	0.329
-540.223	-145.635	0.475	-0.055
-539.208	-149.509	0.129	-0.013
-538.193	314.254	-0.010	0.024
-537.179	16.113	0.314	0.323
-536.164	3.371	0.258	-0.246
-535.150	-90.382	-0.434	-0.164
-534.135	469.750	-0.055	0.163
-533.121	-200.000	0.011	0.074
-532.106	-87.079	-0.325	-0.129
-531.091	800.000	0.085	-0.391
-530.077	196.728	0.177	0.353
-529.062	79.214	0.044	-0.062
-528.048	-10.397	0.586	0.508
-527.033	-200.000	0.013	0.330
-526.018	-92.881	-0.478	-0.174
-525.004	-62.211	0.333	0.181
-523.989	-62.443	0.165	-0.089
-522.975	-148.988	-0.070	-0.007
-521.960	35.551	-0.265	0.304
-520.945	-177.127	-0.503	0.016
-519.931	10.011	-0.222	-0.220
-518.916	-70.526	0.692	-0.341
-517.902	-122.334	0.411	-0.087
-516.887	-200.000	-0.002	0.255
-515.872	-111.383	-0.040	-0.010
-514.858	-98.581	0.330	-0.110
-513.843	195.210	-0.049	0.097
-512.829	-86.744	-0.224	0.089
-511.814	19.251	-0.244	0.256
-510.799	-111.824	-0.181	-0.047
-509.785	-47.327	0.335	0.212
-508.770	-175.799	-0.451	-0.016
-507.756	-74.440	-0.576	0.270
-506.741	-23.575	-0.154	0.120
-505.726	15.935	0.245	0.252
-504.712	460.212	-0.063	0.185
-503.697	-118.178	0.295	-0.068
-502.683	-22.595	-0.237	0.187
-501.668	-73.882	0.288	0.136
-500.653	-42.662	-0.223	-0.148
-499.639	613.025	0.202	-0.663
-498.624	-129.002	0.428	0.078
-497.610	-160.069	0.359	-0.025
-496.595	500.154	0.141	-0.426
-495.581	66.538	-0.159	0.211
-494.566	800.000	-0.098	-0.419
-493.551	417.457	0.103	0.288
-492.537	-200.000	-0.002	-0.176
-491.522	129.915	0.081	-0.136
-490.508	482.077	-0.052	0.156
-489.493	-36.456	-0.283	-0.199
-488.478	-151.493	0.275	0.026
-487.464	242.799	-0.059	0.129
-486.449	17.170	0.232	0.240
-485.435	290.095	0.211	0.503
-484.420	-172.844	0.205	0.008
-483.405	-89.664	-0.055	0.021
-482.391	-200.000	-0.006	0.047
-481.376	-37.618	0.254	-0.176
-480.362	-135.242	-0.413	-0.064
-479.347	-99.988	-0.307	0.099
-478.332	119.557	-0.126	-0.205
-477.318	-167.537	-0.401	-0.021
-476.303	-185.970	-0.217	0.004
-475.289	115.307	0.219	0.350
-474.274	-99.359	0.481	0.157
-473.259	129.099	-0.188	0.314
-472.245	32.812	0.218	-0.247
-471.230	-113.588	0.598	-0.151
-470.216	115.392	0.112	0.180
-469.201	5.896	0.204	-0.197
-468.186	-110.933	-0.312	0.083
-467.172	-150.239	0.249	-0.025
-466.157	-200.000	0.011	-0.446
-465.143	337.850	0.081	-0.206
-464.128	89.455	0.187	0.272
-463.113	-53.715	-0.259	0.154
-462.099	197.854	-0.169	-0.337
-461.084	-200.000	0.012	0.379
-460.070	-200.000	-0.002	0.118
-459.055	-18.020	-0.387	-0.315
-458.040	-200.000	-0.025	0.216
-457.026	-3.792	0.255	0.231
-456.011	800.000	0.095	0.488
-454.997	-49.572	0.263	0.163
-453.982	-170.319	0.244	0.011
-452.968	-188.639	-0.301	-0.005
-451.953	7.546	0.189	-0.184
-450.938	227.228	0.101	-0.215
-449.924	800.000	0.018	0.092
-448.909	129.036	-0.203	-0.338
-447.895	-67.711	0.113	0.057
-446.880	800.000	0.128	0.486
-445.865	-200.000	0.002	0.261
-444.851	117.496	0.204	0.328
-443.836	-84.754	0.498	-0.203
-442.822	-155.922	-0.288	-0.024
-441.807	228.795	0.176	-0.376
-440.792	-72.944	0.233	-0.111
-439.778	-59.147	-0.284	-0.159
-438.763	800.000	-0.032	-0.175
-437.749	7.729	-0.229	-0.223
-436.734	-55.923	-0.299	0.173
-435.719	44.373	0.005	-0.006
-434.705	-6.568	0.161	0.143
-433.690	-124.021	0.753	-0.153
-432.676	-34.776	-0.369	-0.262
-431.661	582.411	0.051	0.163
-430.646	-200.000	-0.045	0.486
-429.632	1.338	0.302	0.283
-428.617	-200.000	-0.120	0.747
-427.603	-48.122	-0.323	0.203
-426.588	-142.320	-0.257	0.033
-425.573	-120.623	-0.166	-0.036
-424.559	-126.161	-0.353	-0.068
-423.544	-14.301	-0.143	0.120
-422.530	63.829	0.189	-0.248
-421.515	-68.707	0.332	-0.167
-420.500	-200.000	0.006	0.255
-419.486	-6.083	-0.366	0.325
-418.471	800.000	-0.105	-0.404
-417.457	800.000	0.092	-0.435
-416.442	-139.229	-0.333	0.046
-415.428	800.000	0.045	-0.237
-414.413	-56.899	0.490	-0.281
-413.398	-64.932	0.095	-0.050
-412.384	-21.949	-0.097	-0.077
-411.369	53.793	0.166	0.207
-410.355	577.895	0.072	0.231
-409.340	-200.000	0.014	0.146
-408.325	-9.011	-0.243	-0.211
-407.311	155.954	0.136	0.244
-406.296	-200.000	0.038	0.770
-405.282	406.808	0.177	0.489
-404.267	800.000	0.048	-0.265
-403.252	-47.493	0.599	-0.378
-402.238	313.546	0.156	-0.384
-401.223	800.000	-0.066	0.321
-400.209	-16.368	0.178	0.147
-399.194	-200.000	-0.023	-0.438
-398.179	199.527	-0.154	0.309
-397.165	-33.250	0.063	-0.045
-396.150	-200.000	0.018	-0.599
-395.136	455.206	0.093	0.269
-394.121	128.086	-0.046	0.076
-393.106	-91.424	-0.082	0.030
-392.092	185.492	-0.037	-0.072
-391.077	-101.920	0.395	0.123
-390.063	38.097	0.042	-0.048
-389.048	0.981	0.066	-0.061
-388.033	23.147	0.318	0.339
-387.019	-144.474	0.377	0.045
-386.004	-11.014	-0.178	0.153
-384.990	203.059	-0.122	-0.246
-383.975	-23.396	0.203	0.159
-382.960	730.343	-0.084	0.294
-381.946	-29.962	0.253	0.187
-380.931	-80.173	0.147	0.064
-379.917	-19.039	0.260	0.210
-378.902	-63.535	-0.188	0.100
-377.888	-113.211	0.357	0.091
-376.873	59.502	0.138	0.178
-375.858	-30.281	0.436	0.321
-374.844	-86.366	0.345	0.137
-373.829	23.164	-0.196	-0.209
-372.815	-31.320	0.690	0.504
-371.800	-116.665	0.217	0.051
-370.785	-15.281	0.143	0.119
-369.771	357.434	-0.076	0.198
-368.756	383.426	-0.117	0.315
-367.742	-80.510	-0.085	-0.037
-366.727	-93.851	-0.071	0.025
-365.712	-117.029	0.221	-0.052
-364.698	800.000	0.040	0.178
-363.683	800.000	-0.070	-0.352
-362.669	-6.602	0.181	0.160
-361.654	55.274	0.117	0.147
-360.639	-127.333	0.228	0.043
-359.625	-40.658	-0.143	-0.096
-358.610	165.409	0.182	-0.335
-357.596	-143.839	-0.077	-0.009
-356.581	-66.816	0.105	-0.054
-355.566	165.707	-0.176	-0.325
-354.552	-89.351	0.189	-0.072
-353.537	123.904	-0.091	0.149
-352.523	-154.716	-0.286	0.024
-351.508	-200.000	-0.023	-0.300
-350.493	-95.800	-0.377	0.130
-349.479	-200.000	0.025	-0.729
-348.464	-200.000	-0.079	-0.485
-347.450	-33.503	0.138	0.099
-346.435	-112.030	0.309	0.080
-345.420	-54.167	0.225	-0.132
-344.406	-65.837	0.124	0.064
-343.391	138.665	0.138	-0.236
-342.377	-9.516	0.193	0.167
-341.362	129.604	0.132	0.219
-340.348	-117.910	-0.282	0.065
-339.333	-25.063	-0.258	0.199
-338.318	521.568	0.084	0.257
-337.304	-8.446	-0.132	0.115
-336.289	-30.929	-0.273	-0.200
-335.275	-141.125	-0.191	-0.025
-334.260	-169.989	-0.438	-0.020
-333.245	91.528	-0.500	-0.730
-332.231	-0.117	0.075	-0.069
-331.216	-88.970	-0.156	-0.060
-330.202	-28.092	0.036	0.027
-329.187	-89.826	0.372	0.140
-328.172	0.402	0.186	0.172
-327.158	26.216	-0.394	-0.427
-326.143	182.448	-0.330	0.633
-325.129	-38.441	0.329	0.225
-324.114	579.302	0.145	0.461
-323.099	280.438	0.068	-0.157
-322.085	29.992	-0.310	-0.343
-321.070	-63.094	-0.676	-0.361
-320.056	-69.073	-0.301	0.150
-319.041	-107.868	-0.672	-0.188
-318.026	26.234	-0.235	-0.254
-317.012	-200.000	0.013	0.320
-315.997	4.117	0.311	0.295
-314.983	-200.000	-0.022	0.149
-313.968	77.843	0.338	0.468
-312.953	201.693	-0.088	0.177
-311.939	-35.780	-0.472	-0.331
-310.924	397.970	-0.157	0.429
-309.910	-33.708	-0.097	-0.070
-308.895	-187.720	0.442	-0.007
-307.880	339.301	0.282	-0.717
-306.866	-112.305	-0.432	0.111
-305.851	125.118	0.149	0.244
-304.837	205.623	0.118	0.239
-303.822	-93.934	-0.136	0.048
-302.807	-156.011	0.265	0.021
-301.793	1.508	-0.057	-0.053
-300.778	-107.567	0.235	0.066
-299.764	800.000	-0.076	-0.359
-298.749	291.721	-0.171	0.405
-297.735	225.909	0.278	0.586
-296.720	-29.735	0.126	0.093
-295.705	-128.926	0.290	-0.052
-294.691	-19.058	-0.506	-0.407
-293.676	657.748	0.021	0.070
-292.662	272.985	-0.158	-0.364
-291.647	-200.000	0.060	-0.622
-290.632	262.783	0.114	-0.258
-289.618	68.784	-0.240	-0.319
-288.603	25.525	-0.115	0.124
-287.589	-84.675	-0.143	-0.058
-286.574	-27.641	0.129	0.097
-285.559	800.000	0.049	-0.241
-284.545	-100.017	-0.520	-0.167
-283.530	-98.384	-0.278	-0.092
-282.516	-200.000	-0.012	0.224
-281.501	88.923	0.107	0.154
-280.486	306.295	0.076	0.183
-279.472	-45.080	0.313	0.201
-278.457	488.874	0.037	0.111
-277.443	229.262	-0.138	0.292
-276.428	800.000	-0.058	0.242
-275.413	-200.000	-0.012	0.103
-274.399	295.804	-0.050	-0.119
-273.384	-19.045	0.316	-0.254
-272.370	-147.445	-0.162	0.018
-271.355	-200.000	-0.047	0.283
-270.340	181.794	-0.070	0.133
-269.326	-126.640	0.594	0.113
-268.311	270.703	0.045	0.103
-267.297	144.917	-0.091	-0.158
-266.282	-108.394	0.179	-0.050
-265.267	164.487	-0.029	-0.053
-264.253	-136.640	0.100	-0.015
-263.238	-200.000	-0.045	-0.349
-262.224	-129.786	0.103	-0.018
-261.209	136.446	0.197	0.334
-260.195	671.746	0.102	-0.343
-259.180	-19.427	-0.335	0.269
-258.165	-131.719	0.178	-0.030
-257.151	-39.426	0.086	0.058
-256.136	-49.553	0.180	-0.111
-255.122	540.938	-0.070	0.218
-254.107	67.157	-0.176	0.232
-253.092	-171.814	-0.167	-0.007
-252.078	-162.817	-0.277	-0.017
-251.063	473.484	0.046	0.135
-250.049	-49.749	-0.444	0.272
-249.034	29.579	-0.177	-0.194
-248.019	-200.000	0.043	0.277
-247.005	-144.183	0.085	0.010
-245.990	-184.777	-0.332	-0.007
-244.976	-40.704	0.260	0.174
-243.961	-118.913	-0.270	-0.061
-242.946	-175.853	-0.159	0.005
-241.932	-136.125	-0.248	-0.037
-240.917	15.691	-0.543	-0.552
-239.903	-51.911	-0.293	-0.176
-238.888	672.991	0.173	-0.583
-237.873	218.211	-0.120	0.249
-236.859	-55.861	-0.224	-0.129
-235.844	-28.088	-0.256	0.191
-234.830	-6.659	-0.175	-0.154
-233.815	-200.000	0.090	-0.653
-232.800	-95.283	-0.419	-0.145
-231.786	109.628	0.143	-0.222
-230.771	25.494	0.241	-0.259
-229.757	96.364	0.059	0.087
-228.742	800.000	-0.066	0.368
-227.727	165.566	-0.335	-0.613
-226.713	-200.000	0.033	-0.420
-225.698	-31.232	0.181	0.132
-224.684	-200.000	0.010	0.176
-223.669	777.636	0.151	-0.538
-222.655	-18.749	0.426	-0.342
-221.640	-22.466	0.347	-0.271
-220.625	-200.000	0.057	0.527
-219.611	800.000	-0.019	-0.077
-218.596	-64.285	-0.275	-0.144
-217.582	264.344	-0.091	0.204
-216.567	147.731	-0.032	-0.055
-215.552	-144.617	0.126	0.015
-214.538	-95.734	0.106	0.037
-213.523	29.264	0.492	-0.540
-212.509	-16.796	-0.228	0.186
-211.494	207.731	0.037	0.075
-210.479	730.709	-0.137	0.476
-209.465	286.381	0.184	0.431
-208.450	32.328	-0.310	-0.346
-207.436	-150.655	0.263	0.026
-206.421	-99.358	-0.147	0.047
-205.406	64.282	0.172	0.224
-204.392	-200.000	-0.000	0.062
-203.377	176.680	-0.056	-0.106
-202.363	25.575	-0.329	-0.353
-201.348	-153.733	0.234	0.020
-200.333	-114.679	0.521	0.128
-199.319	-32.713	0.383	0.274
-198.304	410.066	-0.098	0.271
-197.290	-137.518	-0.200	0.029
-196.275	56.043	0.271	-0.339
-195.260	319.139	0.223	-0.548
-194.246	112.932	-0.081	0.127
-193.231	-200.000	-0.011	0.300
-192.217	800.000	-0.054	0.273
-191.202	663.710	-0.113	-0.378
-190.187	5.439	-0.269	0.256
-189.173	-101.930	-0.555	0.172
-188.158	-24.173	-0.068	0.052
-187.144	302.326	0.034	0.082
-186.129	93.051	-0.259	0.378
-185.114	-7.510	-0.081	-0.071
-184.100	32.331	-0.385	0.429
-183.085	-41.805	0.536	-0.354
-182.071	-150.056	0.357	0.035
-181.056	17.792	0.441	0.453
-180.042	301.761	-0.036	-0.087
-179.027	136.942	0.222	-0.375
-178.012	81.522	0.148	0.207
-176.998	-35.617	-0.113	0.079
-175.983	41.572	-0.127	0.149
-174.969	-70.847	-0.206	0.100
-173.954	158.754	0.116	-0.208
-172.939	48.331	0.379	-0.458
-171.925	-92.310	0.057	-0.021
-170.910	151.036	-0.205	-0.361
-169.896	169.205	-0.137	0.252
-168.881	-38.891	-0.199	0.135
-167.866	238.217	0.075	-0.161
-166.852	-21.767	0.234	0.183
-165.837	-156.073	0.243	0.020
-164.823	800.000	-0.129	0.546
-163.808	9.446	-0.116	-0.113
-162.793	800.000	0.050	0.223
-161.779	-136.541	0.093	-0.014
-160.764	-200.000	0.012	-0.179
-159.750	-39.841	-0.493	0.331
-158.735	-200.000	0.015	-0.184
-157.720	230.357	-0.302	-0.639
-156.706	-109.648	-0.213	0.057
-155.691	4.035	-0.279	-0.263
-154.677	91.530	-0.113	0.165
-153.662	-23.291	0.380	-0.294
-152.647	-85.160	0.053	-0.021
-151.633	63.839	0.156	-0.202
-150.618	235.080	-0.048	-0.102
-149.604	-200.000	-0.001	-0.163
-148.589	-146.977	-0.102	-0.011
-147.574	88.574	-0.124	-0.178
-146.560	-200.000	-0.001	-0.156
-145.545	-122.892	0.561	0.116
-144.531	56.237	0.164	-0.205
-143.516	0.186	0.254	0.233
-142.502	-200.000	0.071	0.611
-141.487	-98.942	-0.407	-0.132
-140.472	211.776	0.220	-0.448
-139.458	-71.312	0.270	0.130
-138.443	-113.760	0.567	-0.141
-137.429	-144.785	-0.706	-0.083
-136.414	-36.609	-0.316	-0.218
-135.399	-200.000	0.026	-0.333
-134.385	-36.959	0.296	0.204
-133.370	-171.826	-0.271	-0.011
-132.356	800.000	0.024	0.096
-131.341	25.872	0.317	-0.340
-130.326	-124.960	-0.488	-0.096
-129.312	-102.260	-0.091	-0.028
-128.297	-132.054	0.644	0.107
-127.283	800.000	0.062	-0.312
-126.268	-75.174	-0.289	0.132
-125.253	-57.460	0.331	-0.186
-124.239	800.000	0.058	0.324
-123.224	-114.477	0.256	0.063
-122.210	-31.942	-0.116	-0.084
-121.195	800.000	0.033	-0.169
-120.180	15.861	0.069	0.070
-119.166	800.000	-0.106	0.392
-118.151	-200.000	0.002	-0.091
-117.137	6.556	0.155	0.148
-116.122	-50.771	0.434	0.262
-115.107	-31.860	-0.349	-0.251
-114.093	-156.915	-0.706	-0.055
-113.078	3.762	-0.197	-0.185
-112.064	511.975	-0.191	-0.574
-111.049	-87.577	0.123	0.048
-110.034	-45.856	-0.162	0.103
-109.020	-46.556	-0.226	-0.142
-108.005	-118.295	-0.351	-0.080
-106.991	-54.671	0.255	0.148
-105.976	80.449	0.068	0.095
-104.962	344.940	-0.020	0.050
-103.947	20.043	-0.237	0.246
-102.932	-200.000	0.039	0.444
-101.918	3.373	-0.116	-0.109
-100.903	232.179	-0.037	0.079
-99.889	-139.373	-0.182	-0.025
-98.874	-91.670	0.267	0.097
-97.859	330.176	0.156	0.388
-96.845	-131.911	-0.450	0.075
-95.830	136.658	0.056	-0.095
-94.816	518.112	-0.115	-0.347
-93.801	-129.362	-0.273	0.048
-92.786	800.000	-0.038	0.187
-91.772	41.078	-0.179	0.208
-90.757	-63.558	-0.140	0.074
-89.743	-108.358	0.086	-0.024
-88.728	-200.000	0.004	-0.087
-87.713	-176.201	0.359	0.012
-86.699	-36.606	0.258	-0.178
-85.684	-102.029	-0.334	-0.103
-84.670	-115.740	-0.208	0.050
-83.655	216.911	-0.133	0.273
-82.640	-102.711	0.514	-0.156
-81.626	-58.161	-0.181	0.101
-80.611	186.632	-0.175	-0.336
-79.597	-200.000	-0.023	-0.291
-78.582	179.460	0.158	0.297
-77.567	-125.230	0.503	-0.098
-76.553	-136.771	-0.125	0.018
-75.538	-200.000	-0.065	0.393
-74.524	-31.119	-0.319	0.231
-73.509	-31.597	-0.521	-0.375
-72.494	-123.218	-0.629	0.128
-71.480	-200.000	0.088	-0.695
-70.465	-58.137	0.227	-0.127
-69.451	-127.567	-0.309	-0.057
-68.436	800.000	-0.040	-0.151
-67.422	387.721	0.169	-0.450
-66.407	-42.742	-0.297	0.194
-65.392	-200.000	0.015	0.199
-64.378	-83.313	0.137	-0.056
-63.363	57.383	0.178	-0.224
-62.349	-40.881	0.278	0.184
-61.334	23.469	-2.243	-2.369
-60.319	123.502	1.119	1.806
-59.305	249.910	-3.467	-7.579
-58.290	44.847	3.965	4.687
-57.276	370.676	3.980	10.405
-56.261	-200.000	21.706	294.633
-55.246	373.846	1274.055	3343.307
-54.232	54.714	2843.772	3523.520
-53.217	56.038	2667.054	3324.706
-52.203	31.807	2400.395	2652.775
-51.188	30.283	2069.209	2267.974
-50.173	26.377	1956.081	2098.422
-49.159	25.207	1944.472	2072.312
-48.144	24.772	1940.535	2062.994
-47.130	24.580	1938.249	2058.251
-46.115	24.498	1936.997	2055.892
-45.100	24.618	1934.676	2054.734
-44.086	24.596	1933.437	2053.086
-43.071	24.444	1932.678	2050.440
-42.057	24.506	1930.410	2048.672
-41.042	24.448	1929.292	2046.729
-40.027	24.558	1927.550	2046.076
-39.013	24.436	1926.475	2043.448
-37.998	24.343	1924.848	2040.570
-36.984	24.441	1923.319	2039.994
-35.969	24.384	1922.494	2038.381
-34.954	24.354	1920.982	2036.352
-33.940	24.348	1920.119	2035.284
-32.925	24.335	1918.761	2033.618
-31.911	24.357	1917.464	2032.418
-30.896	24.354	1916.537	2031.316
-29.881	24.325	1915.402	2029.701
-28.867	24.205	1912.712	2025.399
-27.852	24.288	1911.020	2024.481
-26.838	24.340	1909.520	2023.401
-25.823	24.214	1908.989	2021.317
-24.809	24.201	1907.802	2019.841
-23.794	24.178	1906.959	2018.606
-22.779	24.265	1904.866	2017.299
-21.765	24.211	1903.885	2015.563
-20.750	24.206	1902.486	2013.950
-19.736	24.220	1901.104	2012.565
-18.721	24.166	1900.854	2011.600
-17.706	24.200	1898.858	2009.790
-16.692	24.109	1897.858	2007.621
-15.677	24.175	1896.181	2006.517
-14.663	24.123	1895.394	2005.023
-13.648	24.193	1893.793	2004.036
-12.633	24.143	1893.170	2002.733
-11.619	24.107	1891.668	2000.662
-10.604	23.966	1891.082	1998.368
-9.590	24.197	1888.949	1998.642
-8.575	23.962	1889.080	1996.049
-7.560	24.146	1886.325	1995.132
-6.546	24.089	1885.721	1993.772
-5.531	24.067	1885.045	1992.728
-4.517	24.139	1883.407	1991.727
-3.502	24.187	1882.378	1991.099
-2.487	24.055	1881.906	1989.044
-1.473	24.205	1878.586	1987.130
-0.458	24.330	1861.139	1969.985
0.556	21.571	2008.973	2081.108
1.571	20.626	2218.691	2285.612
2.586	21.644	2258.271	2339.790
3.600	21.660	2262.054	2343.640
4.615	21.764	2260.566	2343.219
5.629	21.705	2259.317	2340.842
6.644	21.820	2257.380	2340.096
7.659	21.743	2254.980	2336.296
8.673	21.833	2252.978	2335.155
9.688	21.521	2261.152	2339.151
10.702	20.096	2340.054	2400.658
11.717	18.397	2404.575	2442.221
12.731	9.137	2381.312	2286.334
13.746	1.465	2361.054	2157.440
14.761	0.333	2356.229	2136.645
15.775	0.120	2355.396	2132.607
16.790	0.070	2353.581	2129.997
17.804	0.139	2352.303	2129.568
18.819	0.195	2350.423	2128.394
19.834	0.189	2349.169	2126.926
20.848	0.102	2348.348	2124.690
21.863	0.178	2346.429	2123.786
22.877	0.169	2343.656	2120.886
23.892	0.096	2341.605	2117.744
24.907	0.125	2339.828	2116.293
25.921	0.122	2337.751	2114.122
26.936	0.071	2335.135	2110.780
27.950	0.100	2333.040	2109.045
28.965	0.081	2330.790	2106.490
29.980	0.185	2329.540	2106.573
30.994	0.190	2326.860	2103.971
32.009	4.729	2342.538	2181.965
33.023	15.788	2375.942	2370.179
34.038	20.746	2384.296	2448.507
35.053	21.280	2383.634	2455.087
36.067	21.194	2379.382	2449.192
37.082	20.712	2376.502	2439.148
38.096	20.702	2374.903	2437.075
39.111	21.057	2372.914	2439.733
40.126	21.715	2372.962	2448.740
41.140	22.276	2372.965	2456.331
42.155	21.988	2369.611	2448.517
43.169	22.029	2367.666	2446.800
44.184	22.095	2366.371	2446.081
45.199	22.098	2364.917	2444.330
46.213	21.676	2362.596	2435.744
47.228	21.550	2360.914	2431.954
48.242	21.911	2359.725	2435.481
49.257	22.006	2358.762	2435.521
50.271	21.829	2355.070	2428.959
51.286	21.885	2352.672	2426.968
52.301	22.253	2352.558	2431.680
53.315	22.014	2352.143	2427.630
54.330	21.682	2349.532	2420.034
55.344	21.722	2345.231	2415.868
56.359	21.675	2341.958	2411.559
57.374	21.629	2340.863	2409.505
58.388	21.771	2337.974	2408.215
59.403	21.821	2335.291	2405.848
60.417	21.945	2333.616	2405.546
61.432	22.059	2332.384	2405.558
62.447	22.291	2330.191	2406.193
63.461	22.153	2326.863	2400.572
64.476	22.181	2326.011	2399.791
65.490	22.325	2325.635	2401.090
66.505	22.592	2324.535	2403.327
67.520	22.426	2322.161	2398.313
68.534	22.080	2319.443	2390.485
69.549	22.199	2316.773	2389.082
70.563	22.163	2315.836	2387.333
71.578	22.283	2313.670	2386.456
72.593	22.259	2310.548	2382.615
73.607	22.187	2309.791	2380.568
74.622	22.211	2309.065	2379.867
75.636	22.135	2305.771	2375.152
76.651	22.342	2303.630	2375.480
77.666	22.333	2302.462	2373.868
78.680	22.347	2299.636	2370.852
79.695	22.361	2298.316	2369.403
80.709	22.517	2296.792	2369.654
81.724	22.409	2294.080	2365.120
82.739	22.321	2290.899	2360.371
83.753	22.391	2289.676	2359.769
84.768	22.535	2289.217	2360.951
85.782	22.620	2288.900	2361.486
86.797	22.619	2286.819	2359.035
87.812	22.494	2284.297	2354.480
88.826	22.606	2282.701	2354.057
89.841	22.550	2280.108	2350.353
90.855	22.487	2277.054	2346.073
91.870	22.410	2274.906	2342.553
92.884	22.672	2272.950	2343.757
93.899	22.441	2272.352	2339.770
94.914	22.014	2271.578	2333.001
95.928	22.016	2270.497	2331.631
96.943	21.957	2268.522	2328.538
97.957	22.000	2265.618	2325.849
98.972	22.143	2263.557	2325.362
99.987	21.897	2260.389	2318.558
101.001	22.015	2258.340	2317.753
102.016	22.291	2255.955	2318.682
103.030	22.144	2253.474	2313.902
104.045	22.030	2251.897	2310.501
105.060	22.125	2249.845	2309.381
106.074	22.117	2248.344	2307.450
107.089	22.037	2246.627	2304.355
108.103	22.135	2245.138	2303.847
109.118	22.017	2244.069	2300.921
110.133	22.283	2242.245	2302.271
111.147	22.370	2240.601	2301.454
112.162	22.688	2239.113	2303.829
113.176	22.169	2236.522	2294.081
114.191	21.896	2234.095	2287.736
115.206	21.820	2232.862	2285.199
116.220	21.823	2230.937	2283.000
117.235	21.831	2227.353	2279.166
118.249	21.800	2224.959	2276.037
119.264	22.094	2224.978	2279.625
120.279	22.286	2224.013	2280.865
121.293	22.188	2220.867	2276.092
122.308	22.158	2220.395	2274.942
123.322	22.227	2218.906	2274.038
124.337	22.110	2216.688	2269.970
125.352	22.013	2218.108	2269.889
126.366	22.331	2215.836	2271.424
127.381	22.182	2212.264	2265.566
128.395	21.693	2209.442	2256.076
129.410	21.691	2207.310	2253.596
130.424	21.890	2205.522	2254.074
131.439	21.669	2205.005	2250.429
132.454	21.799	2201.593	2248.345
133.468	21.711	2199.697	2245.003
134.483	21.632	2198.159	2242.157
135.497	21.532	2197.155	2239.571
136.512	21.683	2193.483	2237.502
137.527	21.859	2192.763	2238.762
138.541	21.902	2191.964	2238.231
139.556	21.722	2190.478	2234.141
140.570	21.808	2189.615	2234.089
141.585	22.196	2187.455	2236.582
142.600	22.126	2185.695	2233.620
143.614	21.907	2184.634	2229.471
144.629	22.009	2182.183	2228.009
145.643	21.812	2180.240	2223.248
146.658	21.899	2178.593	2222.408
147.673	22.103	2176.956	2223.059
148.687	22.413	2176.041	2225.802
149.702	22.481	2176.413	2226.780
150.716	22.447	2174.796	2224.431
151.731	22.476	2173.418	2223.118
152.746	22.113	2172.772	2217.594
153.760	21.922	2170.626	2212.709
154.775	21.786	2170.221	2210.313
155.789	21.580	2167.059	2204.217
156.804	21.560	2163.676	2200.257
157.819	21.843	2160.937	2200.779
158.833	22.113	2159.009	2201.965
159.848	22.238	2156.672	2200.888
160.862	22.154	2155.695	2198.568
161.877	22.153	2154.959	2197.543
162.892	22.260	2153.458	2197.090
163.906	22.276	2153.396	2196.967
164.921	22.232	2150.018	2192.707
165.935	22.129	2147.188	2188.270
166.950	22.058	2145.501	2185.394
167.964	21.807	2143.605	2180.067
168.979	21.830	2142.203	2178.667
169.994	22.068	2140.553	2179.697
171.008	22.318	2139.229	2181.211
172.023	22.541	2138.600	2183.078
173.037	22.461	2137.516	2180.720
174.052	22.236	2134.457	2174.538
175.067	21.931	2133.482	2169.499
176.081	22.079	2131.403	2168.955
177.096	21.882	2129.010	2163.824
178.110	21.760	2127.343	2160.353
179.125	21.872	2126.178	2160.306
180.140	22.133	2126.427	2163.524
181.154	22.066	2123.675	2159.642
182.169	21.632	2122.588	2152.916
183.183	21.537	2121.229	2150.109
184.198	21.633	2120.543	2150.338
185.213	21.915	2118.770	2151.755
186.227	21.959	2118.127	2151.396
187.242	21.918	2116.054	2148.529
188.256	21.989	2113.741	2146.787
189.271	22.064	2112.474	2146.168
190.286	22.153	2111.537	2146.057
191.300	22.114	2109.045	2142.789
192.315	21.956	2106.292	2137.793
193.329	21.996	2105.252	2136.975
194.344	22.138	2104.503	2137.691
195.359	22.140	2104.068	2137.016
196.373	22.102	2101.205	2133.392
197.388	22.071	2098.830	2130.350
198.402	22.116	2096.819	2128.597
199.417	21.877	2094.203	2122.783
200.432	21.885	2093.084	2121.494
201.446	22.132	2092.281	2123.423
202.461	22.112	2090.327	2120.951
203.475	22.152	2088.448	2119.275
204.490	22.025	2086.178	2115.172
205.504	21.930	2084.376	2111.945
206.519	21.852	2081.148	2107.483
207.534	21.703	2079.668	2103.927
208.548	21.933	2079.441	2106.221
209.563	22.328	2077.737	2109.012
210.577	21.979	2077.313	2104.122
211.592	21.910	2076.973	2102.691
212.607	22.104	2074.992	2102.769
213.621	21.852	2074.677	2099.170
214.636	21.737	2071.659	2094.481
215.650	21.666	2069.605	2091.298
216.665	21.676	2068.412	2089.970
217.680	22.145	2067.974	2094.892
218.694	22.582	2067.340	2099.233
219.709	22.888	2066.030	2101.313
220.723	22.643	2064.850	2096.928
221.738	22.392	2060.423	2089.196
222.753	22.023	2058.697	2082.794
223.767	21.991	2057.388	2080.841
224.782	21.745	2054.362	2074.597
225.796	21.775	2053.393	2073.728
226.811	22.016	2052.484	2075.434
227.826	22.127	2051.197	2075.200
228.840	22.208	2049.431	2074.126
229.855	21.982	2049.375	2071.140
230.869	22.152	2047.188	2070.697
231.884	22.206	2044.983	2068.849
232.899	21.916	2043.136	2063.305
233.913	21.865	2041.825	2061.137
234.928	21.804	2041.227	2059.571
235.942	21.996	2040.569	2060.927
236.957	22.146	2038.055	2059.906
237.972	22.060	2036.550	2057.128
238.986	22.090	2035.777	2056.449
240.001	22.198	2034.278	2055.960
241.015	22.153	2033.162	2054.057
242.030	22.078	2031.094	2050.844
243.045	21.964	2030.245	2048.397
244.059	21.835	2028.676	2045.063
245.074	21.617	2025.273	2038.832
246.088	21.893	2022.093	2038.607
247.103	21.960	2021.342	2038.394
248.117	21.881	2020.218	2036.091
249.132	22.046	2018.885	2036.434
250.147	21.940	2017.297	2033.349
251.161	21.925	2014.937	2030.557
252.176	21.858	2014.747	2029.346
253.190	22.193	2012.762	2030.984
254.205	22.316	2010.696	2030.089
255.220	22.421	2010.120	2030.475
256.234	22.400	2009.563	2029.431
257.249	22.232	2007.683	2025.344
258.263	22.233	2006.254	2023.668
259.278	21.976	2005.631	2019.825
260.293	21.914	2003.478	2016.703
261.307	21.851	2001.115	2013.353
262.322	21.798	1999.043	2010.423
263.336	21.808	1997.446	2008.692
264.351	21.646	1995.269	2004.393
265.366	21.808	1994.379	2005.127
266.380	21.988	1993.624	2006.196
267.395	21.751	1991.873	2001.471
268.409	21.820	1989.619	1999.760
269.424	22.068	1989.099	2001.839
270.439	22.008	1988.189	1999.990
271.453	21.861	1986.421	1996.294
272.468	21.677	1984.818	1992.337
273.482	21.756	1982.593	1990.768
274.497	21.649	1980.182	1986.888
275.512	21.960	1977.932	1987.937
276.526	21.962	1976.356	1986.144
277.541	21.870	1974.641	1983.132
278.555	22.134	1973.496	1984.741
279.570	21.802	1971.870	1979.104
280.585	21.508	1970.590	1974.253
281.599	21.828	1968.372	1975.418
282.614	21.907	1967.068	1974.763
283.628	21.816	1966.319	1972.741
284.643	21.700	1965.161	1970.031
285.657	21.783	1964.012	1969.580
286.672	21.747	1961.866	1966.788
287.687	21.733	1959.163	1963.688
288.701	21.578	1958.917	1961.460
289.716	21.657	1956.697	1959.898
290.730	21.527	1955.431	1956.935
291.745	21.731	1953.625	1957.175
292.760	21.735	1953.374	1956.742
293.774	21.794	1953.052	1956.838
294.789	21.749	1951.478	1954.530
295.803	21.790	1949.096	1952.360
296.818	22.058	1948.179	1954.207
297.833	22.041	1947.556	1953.164
298.847	21.938	1946.523	1950.745
299.862	22.033	1943.364	1948.403
300.876	21.934	1942.077	1945.776
301.891	21.940	1940.763	1944.292
302.906	22.136	1940.459	1945.939
303.920	22.117	1939.217	1944.252
304.935	21.731	1936.712	1937.213
305.949	21.812	1933.546	1934.713
306.964	21.858	1931.707	1933.152
307.979	21.860	1930.227	1931.457
308.993	21.942	1929.684	1931.600
310.008	22.094	1929.613	1932.978
311.022	22.141	1927.156	1930.800
312.037	21.960	1924.061	1925.470
313.052	21.643	1923.072	1920.759
314.066	21.720	1920.771	1919.076
315.081	21.633	1920.497	1917.617
316.095	21.597	1918.737	1915.237
317.110	21.574	1917.483	1913.496
318.125	21.771	1916.107	1914.066
319.139	22.040	1915.659	1916.333
320.154	22.163	1913.953	1915.744
321.168	22.325	1913.220	1916.557
322.183	22.219	1911.932	1913.884
323.197	22.116	1910.868	1911.462
324.212	22.045	1907.770	1907.353
325.227	21.970	1906.444	1904.980
326.241	21.930	1904.656	1902.535
327.256	22.005	1903.741	1902.206
328.270	22.075	1903.001	1902.004
329.285	21.977	1902.089	1899.799
330.300	21.892	1902.358	1898.913
331.314	22.097	1900.659	1899.214
332.329	21.697	1897.430	1891.427
333.343	21.708	1894.668	1888.570
334.358	21.988	1894.062	1890.771
335.373	22.058	1893.140	1890.373
336.387	21.977	1891.300	1887.442
337.402	22.178	1889.683	1887.770
338.416	22.001	1887.437	1883.393
339.431	21.900	1886.997	1881.633
340.446	22.165	1884.797	1882.068
341.460	22.061	1883.721	1879.658
342.475	22.105	1881.541	1877.721
343.489	21.990	1880.519	1875.244
344.504	22.033	1880.034	1875.001
345.519	21.778	1876.712	1868.728
346.533	21.796	1875.247	1867.242
347.548	21.827	1874.981	1867.083
348.562	21.902	1873.334	1866.024
349.577	21.872	1871.549	1863.703
350.592	21.698	1870.101	1860.178
351.606	21.626	1870.048	1859.129
352.621	21.970	1867.295	1859.841
353.635	21.872	1865.053	1856.340
354.650	21.497	1865.147	1852.226
355.665	21.868	1862.867	1853.682
356.679	21.930	1861.767	1853.016
357.694	21.839	1860.923	1850.992
358.708	21.820	1860.206	1849.856
359.723	21.855	1859.596	1849.403
360.738	21.818	1858.425	1847.618
361.752	21.911	1856.519	1846.492
362.767	21.773	1853.467	1841.772
363.781	21.616	1851.917	1838.360
364.796	22.077	1851.250	1842.333
365.810	22.025	1851.911	1842.229
366.825	22.082	1848.607	1839.320
367.840	21.957	1848.139	1837.316
368.854	21.922	1847.647	1836.242
369.869	22.136	1845.209	1835.842
370.883	22.034	1843.844	1833.199
371.898	21.795	1842.669	1829.303
372.913	21.828	1841.665	1828.435
373.927	21.932	1840.922	1828.563
374.942	22.029	1838.772	1827.222
375.956	22.138	1837.417	1826.804
376.971	22.111	1835.557	1824.455
377.986	22.071	1833.060	1821.335
379.000	22.183	1832.788	1822.008
380.015	22.335	1831.881	1822.475
381.029	22.470	1830.224	1822.012
382.044	22.212	1827.809	1816.711
383.059	22.137	1826.017	1813.932
384.073	22.042	1825.307	1812.024
385.088	21.904	1823.664	1808.749
386.102	21.941	1821.981	1807.245
387.117	21.799	1820.075	1803.668
388.132	21.643	1819.759	1801.532
389.146	21.769	1819.914	1802.770
390.161	21.847	1819.097	1802.553
391.175	22.028	1815.236	1800.379
392.190	21.933	1811.120	1795.096
393.205	21.669	1809.272	1790.341
394.219	21.644	1808.328	1788.936
395.234	21.723	1807.542	1788.756
396.248	21.886	1805.493	1788.182
397.263	21.807	1802.980	1784.669
398.278	21.746	1801.142	1782.021
399.292	21.702	1800.787	1780.998
400.307	21.889	1800.319	1782.238
401.321	21.922	1799.179	1781.227
402.336	21.827	1797.655	1778.540
403.350	21.997	1796.145	1778.564
404.365	22.390	1795.669	1781.877
405.380	22.562	1795.388	1783.142
406.394	22.915	1794.530	1785.660
407.409	22.842	1793.040	1783.226
408.423	22.562	1790.130	1777.272
409.438	22.102	1788.843	1771.128
410.453	22.007	1787.642	1768.764
411.467	22.050	1786.474	1767.828
412.482	22.115	1785.212	1767.023
413.496	21.980	1784.048	1764.300
414.511	22.068	1781.771	1762.726
415.526	22.017	1779.675	1759.929
416.540	22.063	1778.274	1758.797
417.555	22.140	1776.939	1758.037
418.569	21.965	1776.313	1755.449
419.584	21.965	1776.433	1755.360
420.599	22.289	1777.026	1758.989
421.613	22.348	1776.732	1759.081
422.628	22.625	1775.545	1760.471
423.642	22.568	1773.956	1758.120
424.657	22.280	1772.390	1753.473
425.672	22.489	1769.629	1752.620
426.686	22.389	1768.244	1750.042
427.701	21.964	1766.180	1743.546
428.715	21.929	1764.769	1741.588
429.730	22.092	1763.174	1741.438
430.745	21.984	1761.712	1738.701
431.759	21.600	1760.401	1733.383
432.774	21.116	1759.218	1727.194
433.788	20.775	1756.946	1721.374
434.803	20.670	1755.343	1718.554
435.818	20.760	1755.502	1719.399
436.832	20.675	1755.632	1718.471
437.847	19.559	1746.792	1698.588
438.861	10.799	1723.021	1589.473
439.876	1.927	1706.654	1487.488
440.890	0.350	1702.949	1468.644
441.905	0.154	1702.032	1465.757
442.920	0.157	1700.626	1464.396
443.934	0.168	1698.659	1462.639
444.949	0.230	1697.103	1461.724
445.963	0.041	1697.375	1459.940
446.978	0.042	1696.915	1459.385
447.993	0.134	1695.406	1458.801
449.007	0.220	1693.099	1457.479
450.022	0.248	1690.288	1455.155
451.036	0.118	1689.275	1452.849
452.051	0.746	1691.702	1460.868
453.066	8.209	1710.352	1549.875
454.080	17.590	1726.324	1656.244
455.095	20.110	1730.421	1684.627
456.109	20.762	1730.777	1691.143
457.124	20.722	1729.711	1689.509
458.139	20.630	1728.605	1687.324
459.153	20.587	1727.863	1685.982
460.168	20.781	1725.303	1685.175
461.182	20.774	1724.057	1683.689
462.197	20.710	1722.598	1681.436
463.212	20.842	1720.653	1680.614
464.226	20.908	1720.075	1680.487
465.241	20.915	1718.814	1679.124
466.255	20.741	1718.106	1676.548
467.270	20.827	1716.673	1675.783
468.285	20.915	1715.512	1675.298
469.299	20.818	1714.185	1672.866
470.314	20.978	1711.855	1671.929
471.328	20.900	1710.549	1669.710
472.343	20.767	1710.377	1668.059
473.358	20.750	1708.718	1666.073
474.372	20.787	1707.516	1665.059
475.387	20.774	1706.092	1663.348
476.401	20.762	1704.389	1661.371
477.416	20.655	1702.176	1657.996
478.430	20.608	1701.172	1656.361
479.445	20.708	1700.832	1656.797
480.460	20.905	1699.388	1657.072
481.474	20.920	1698.003	1655.663
482.489	20.921	1696.477	1653.987
483.503	20.758	1694.642	1650.447
484.518	20.613	1693.778	1648.026
485.533	20.539	1692.866	1646.240
486.547	20.299	1690.892	1641.841
487.562	20.284	1689.186	1639.851
488.576	20.323	1687.908	1638.776
489.591	20.376	1687.106	1638.308
490.606	20.578	1685.510	1638.472
491.620	20.589	1684.591	1637.489
492.635	20.460	1681.730	1633.297
493.649	20.351	1680.725	1631.093
494.664	20.590	1680.328	1632.765
495.679	20.771	1679.765	1633.730
496.693	20.793	1678.378	1632.396
497.708	20.779	1676.694	1630.432
498.722	20.632	1675.444	1627.636
499.737	20.626	1674.201	1626.183
500.752	20.767	1672.633	1625.785
501.766	20.862	1671.545	1625.423
502.781	20.770	1669.689	1622.566
503.795	20.810	1667.982	1621.089
504.810	20.882	1667.054	1620.658
505.825	20.823	1666.081	1618.968
506.839	20.782	1665.322	1617.652
507.854	20.822	1663.729	1616.286
508.868	20.704	1662.146	1613.456
509.883	20.669	1660.883	1611.714
510.898	20.575	1659.436	1609.242
511.912	20.475	1657.770	1606.501
512.927	20.581	1656.291	1605.863
513.941	20.554	1655.422	1604.580
514.956	20.624	1654.460	1604.102
515.971	20.692	1652.533	1602.668
516.985	20.598	1651.382	1600.491
518.000	20.499	1651.147	1599.155
519.014	20.355	1649.281	1595.827
520.029	20.248	1648.057	1593.465
521.043	20.321	1646.455	1592.399
522.058	20.525	1644.907	1592.588
523.073	20.560	1643.592	1591.450
524.087	20.356	1643.022	1588.828
525.102	20.378	1642.134	1587.982
526.116	20.751	1642.048	1591.138
527.131	20.826	1640.632	1590.266
528.146	20.621	1638.898	1586.515
529.160	20.466	1637.864	1583.903
530.175	20.525	1636.547	1582.978
531.189	20.447	1635.041	1580.614
532.204	20.372	1633.406	1578.168
533.219	20.495	1633.170	1578.868
534.233	20.606	1632.413	1578.965
535.248	20.632	1630.419	1577.080
536.262	20.297	1628.798	1572.275
537.277	20.206	1627.694	1570.194
538.292	20.381	1625.698	1569.674
539.306	20.208	1624.604	1566.850
540.321	20.128	1622.989	1564.384
541.335	20.252	1621.302	1563.697
542.350	20.129	1620.385	1561.506
543.365	20.221	1618.337	1560.178
544.379	20.122	1617.139	1557.946
545.394	20.117	1616.036	1556.652
546.408	20.371	1616.151	1558.870
547.423	20.627	1615.014	1559.890
548.438	20.683	1613.425	1558.671
549.452	20.506	1612.254	1555.768
550.467	20.544	1611.181	1554.880
551.481	20.410	1610.351	1552.689
552.496	20.386	1608.786	1550.778
553.511	20.184	1608.106	1548.131
554.525	20.155	1607.076	1546.691
555.540	20.233	1606.052	1546.215
556.554	20.189	1604.974	1544.602
557.569	20.238	1603.549	1543.485
558.583	20.339	1602.048	1542.756
559.598	20.419	1600.372	1541.670
560.613	20.410	1599.061	1540.149
561.627	20.176	1597.656	1536.528
562.642	20.176	1595.851	1534.608
563.656	20.005	1594.137	1531.252
564.671	19.886	1593.666	1529.557
565.686	19.949	1592.541	1528.857
566.700	20.057	1590.815	1527.977
567.715	20.158	1589.144	1527.081
568.729	20.137	1588.170	1525.775
569.744	20.319	1586.876	1525.954
570.759	20.160	1586.038	1523.569
571.773	20.238	1584.480	1522.573
572.788	20.153	1582.908	1520.133
573.802	20.098	1581.512	1518.129
574.817	19.943	1579.592	1514.735
575.832	19.809	1579.082	1512.892
576.846	19.912	1578.422	1512.979
577.861	20.261	1577.964	1515.426
578.875	20.101	1577.397	1513.295
579.890	20.044	1575.693	1510.975
580.905	20.263	1573.906	1511.006
581.919	19.960	1573.579	1507.859
582.934	19.920	1572.332	1506.128
583.948	19.855	1570.862	1503.974
584.963	19.907	1569.400	1502.851
585.978	20.112	1568.930	1504.008
586.992	19.998	1567.158	1501.134
588.007	19.699	1567.107	1498.300
589.021	19.882	1566.214	1498.858
590.036	19.943	1564.523	1497.591
591.051	19.927	1562.223	1495.070
592.065	19.626	1560.469	1490.610
593.080	19.738	1558.896	1489.895
594.094	19.725	1558.333	1489.067
595.109	20.019	1557.565	1490.700
596.123	20.394	1555.895	1492.162
597.138	20.172	1554.656	1488.878
598.153	20.000	1553.285	1485.909
599.167	19.859	1552.515	1483.770
600.182	19.989	1550.402	1482.700
601.196	20.114	1549.789	1483.006
602.211	20.055	1547.912	1480.526
603.226	19.845	1547.424	1478.082
604.240	19.911	1544.751	1475.917
605.255	19.834	1543.541	1473.927
606.269	19.994	1543.411	1474.997
607.284	19.942	1542.307	1473.316
608.299	19.868	1541.517	1471.753
609.313	19.969	1540.537	1471.503
610.328	19.969	1539.334	1470.175
611.342	19.932	1537.001	1467.455
612.357	19.936	1535.757	1466.131
613.372	19.842	1535.171	1464.594
614.386	19.847	1534.212	1463.546
615.401	19.630	1533.452	1460.805
616.415	19.700	1532.263	1460.093
617.430	19.582	1530.844	1457.564
618.445	19.469	1530.044	1455.668
619.459	19.618	1528.930	1455.697
620.474	19.690	1528.712	1455.922
621.488	19.924	1527.922	1456.974
622.503	20.040	1526.070	1456.013
623.518	19.759	1524.691	1452.159
624.532	19.585	1523.204	1449.099
625.547	19.481	1521.577	1446.500
626.561	19.392	1520.806	1444.843
627.576	19.276	1519.697	1442.639
628.591	19.531	1519.307	1444.246
629.605	19.598	1518.168	1443.547
630.620	19.713	1516.896	1443.133
631.634	19.844	1516.003	1443.213
632.649	19.832	1514.489	1441.494
633.663	19.734	1512.467	1438.580
634.678	19.553	1510.966	1435.463
635.693	19.265	1509.229	1431.239
636.707	19.285	1508.262	1430.319
637.722	19.387	1506.979	1429.782
638.736	19.388	1506.360	1429.031
639.751	19.480	1505.325	1428.645
640.766	19.504	1503.929	1427.346
641.780	19.684	1502.427	1427.245
642.795	19.662	1501.843	1426.338
643.809	19.735	1501.426	1426.380
644.824	19.686	1500.461	1424.882
645.839	19.774	1499.389	1424.423
646.853	19.633	1497.894	1421.664
647.868	19.728	1496.596	1421.045
648.882	19.801	1495.224	1420.174
649.897	19.708	1494.339	1418.398
650.912	19.648	1492.723	1416.202
651.926	19.414	1491.480	1412.927
652.941	19.664	1490.317	1413.712
653.955	19.653	1489.300	1412.488
654.970	19.825	1487.968	1412.471
655.985	19.777	1486.476	1410.489
656.999	19.711	1485.092	1408.468
658.014	19.638	1483.745	1406.425
659.028	19.555	1482.509	1404.405
660.043	19.582	1481.690	1403.684
661.058	19.433	1479.811	1400.518
662.072	19.415	1479.873	1400.258
663.087	19.591	1479.294	1400.984
664.101	19.599	1477.661	1399.333
665.116	19.698	1476.730	1399.085
666.131	19.538	1475.907	1396.840
667.145	19.543	1474.774	1395.638
668.160	19.470	1473.105	1393.306
669.174	19.474	1471.139	1391.305
670.189	19.512	1470.526	1390.869
671.204	19.635	1470.124	1391.322
672.218	19.571	1469.115	1389.683
673.233	19.589	1467.220	1387.864
674.247	19.407	1466.002	1385.083
675.262	19.316	1465.084	1383.314
676.276	19.370	1463.912	1382.475
677.291	19.461	1463.918	1383.051
678.306	19.683	1462.981	1383.784
679.320	19.632	1461.653	1381.954
680.335	19.498	1460.779	1379.883
681.349	19.472	1459.680	1378.470
682.364	19.376	1458.495	1376.415
683.379	19.350	1456.918	1374.553
684.393	19.254	1455.197	1371.996
685.408	19.251	1454.342	1371.002
686.422	19.308	1453.580	1370.581
687.437	19.138	1452.734	1368.257
688.452	19.223	1451.452	1367.570
689.466	19.178	1449.713	1365.409
690.481	19.217	1448.302	1364.226
691.495	19.320	1447.746	1364.354
692.510	19.435	1447.820	1365.177
693.525	19.611	1446.212	1364.897
694.539	19.393	1444.597	1361.482
695.554	19.196	1443.790	1358.992
696.568	19.099	1442.607	1356.948
697.583	19.018	1441.807	1355.391
698.598	19.171	1441.066	1355.741
699.612	19.071	1439.616	1353.425
700.627	19.001	1438.741	1351.886
701.641	19.324	1437.618	1353.222
702.656	19.240	1436.586	1351.426
703.671	19.187	1436.504	1350.770
704.685	19.206	1435.504	1349.815
705.700	19.276	1433.702	1348.514
706.714	19.420	1432.964	1348.785
707.729	19.373	1431.571	1346.943
708.744	19.380	1430.130	1345.484
709.758	19.199	1428.806	1342.660
710.773	19.271	1428.109	1342.406
711.787	19.357	1426.329	1341.245
712.802	19.312	1424.386	1338.908
713.816	19.294	1423.988	1338.232
714.831	19.381	1423.398	1338.195
715.846	19.293	1421.808	1335.853
716.860	19.194	1420.429	1333.628
717.875	19.358	1419.249	1333.633
718.889	19.245	1418.775	1332.152
719.904	19.255	1418.054	1331.391
720.919	19.281	1416.789	1330.246
721.933	19.180	1415.617	1328.209
722.948	19.153	1414.606	1326.891
723.962	19.364	1413.679	1327.491
724.977	19.232	1412.413	1325.130
725.992	19.293	1411.443	1324.525
727.006	19.278	1409.651	1322.571
728.021	19.423	1408.397	1322.359
729.035	19.263	1407.021	1319.676
730.050	19.258	1406.431	1318.925
731.065	19.239	1405.298	1317.560
732.079	19.072	1404.706	1315.557
733.094	19.064	1403.091	1313.833
734.108	19.356	1402.202	1315.082
735.123	19.332	1400.055	1312.722
736.138	19.208	1399.656	1311.246
737.152	19.272	1398.274	1310.280
738.167	19.257	1396.973	1308.791
739.181	19.153	1395.809	1306.754
740.196	19.281	1394.710	1306.543
741.211	19.082	1394.612	1304.776
742.225	19.177	1393.446	1304.256
743.240	19.135	1392.242	1302.649
744.254	19.105	1390.681	1300.804
745.269	18.998	1389.729	1298.950
746.284	19.018	1389.561	1298.790
747.298	19.036	1388.540	1297.813
748.313	18.969	1387.585	1296.259
749.327	19.191	1387.146	1297.377
750.342	19.448	1386.510	1298.570
751.356	19.752	1384.891	1299.194
752.371	19.411	1384.418	1296.020
753.386	18.936	1383.282	1291.216
754.400	19.160	1381.262	1290.867
755.415	19.291	1379.525	1290.075
756.429	19.138	1378.566	1287.874
757.444	18.999	1378.152	1286.286
758.459	19.077	1377.027	1285.665
759.473	19.180	1376.492	1285.783
760.488	19.083	1374.883	1283.404
761.502	19.290	1373.053	1283.086
762.517	19.126	1372.170	1280.882
763.532	19.309	1370.351	1280.397
764.546	19.308	1369.364	1279.320
765.561	19.452	1369.065	1279.955
766.575	19.435	1369.458	1280.047
767.590	19.518	1367.891	1279.046
768.605	19.288	1366.219	1275.618
769.619	19.237	1364.770	1273.733
770.634	19.172	1363.657	1272.061
771.648	19.146	1362.065	1270.226
772.663	19.128	1361.811	1269.705
773.678	19.136	1361.136	1268.986
774.692	19.120	1360.601	1268.220
775.707	19.022	1360.192	1266.961
776.721	19.023	1359.020	1265.718
777.736	18.985	1358.072	1264.406
778.751	18.983	1357.071	1263.304
779.765	19.206	1355.885	1263.698
780.780	18.985	1355.400	1261.465
781.794	19.096	1354.049	1260.875
782.809	18.991	1352.791	1258.778
783.824	18.935	1351.425	1256.945
784.838	19.011	1349.736	1255.780
785.853	19.219	1349.310	1256.759
786.867	19.137	1348.991	1255.709
787.882	18.981	1347.753	1253.269
788.897	19.044	1346.704	1252.606
789.911	18.923	1345.889	1250.808
790.926	18.961	1344.925	1250.045
791.940	18.969	1343.242	1248.384
792.955	19.001	1341.410	1246.768
793.969	18.945	1340.431	1245.300
794.984	18.910	1339.561	1244.092
795.999	19.089	1338.763	1244.500
797.013	19.082	1337.389	1243.020
798.028	19.024	1336.001	1241.162
799.042	19.093	1335.855	1241.376
800.057	19.076	1334.507	1239.857
801.072	19.046	1333.261	1238.329
802.086	19.016	1331.557	1236.386
803.101	19.056	1330.750	1235.772
804.115	18.968	1330.569	1234.826
805.130	19.082	1329.604	1234.603
806.145	19.056	1328.087	1232.860
807.159	19.209	1326.445	1232.287
808.174	19.137	1325.514	1230.760
809.188	19.087	1324.709	1229.504
810.203	19.212	1322.671	1228.361
811.218	19.148	1321.947	1227.083
812.232	19.131	1321.418	1226.322
813.247	19.249	1320.084	1225.781
814.261	19.256	1318.799	1224.494
815.276	19.104	1317.658	1222.205
816.291	18.998	1316.924	1220.620
817.305	18.978	1316.027	1219.501
818.320	19.066	1314.211	1218.298
819.334	18.977	1313.053	1216.448
820.349	19.046	1311.355	1215.220
821.364	19.109	1309.313	1213.624
822.378	19.009	1308.680	1212.189
823.393	18.958	1307.380	1210.477
824.407	18.879	1306.789	1209.228
825.422	19.012	1305.904	1209.201
826.437	18.911	1305.419	1207.891
827.451	18.843	1303.431	1205.430
828.466	19.081	1301.848	1205.499
829.480	19.130	1300.391	1204.350
830.495	19.110	1298.188	1202.022
831.509	18.926	1297.593	1200.036
832.524	18.828	1297.298	1198.938
833.539	18.797	1296.509	1197.844
834.553	18.877	1295.262	1197.113
835.568	18.988	1293.797	1196.386
836.582	18.923	1292.935	1194.992
837.597	18.931	1291.498	1193.578
838.612	19.121	1289.473	1192.888
839.626	19.103	1288.965	1192.148
840.641	19.229	1288.292	1192.264
841.655	19.280	1287.442	1191.684
842.670	19.430	1286.797	1191.986
843.685	19.423	1285.965	1191.028
844.699	19.253	1284.389	1188.247
845.714	19.175	1282.394	1185.722
846.728	19.112	1282.119	1184.886
847.743	19.261	1280.754	1184.513
848.758	19.040	1279.926	1182.079
849.772	19.116	1278.288	1180.949
850.787	19.036	1276.148	1178.281
851.801	19.010	1275.384	1177.256
852.816	18.830	1274.401	1174.970
853.831	18.864	1273.098	1173.860
854.845	18.920	1271.249	1172.402
855.860	18.911	1269.576	1170.652
856.874	18.869	1269.029	1169.720
857.889	18.911	1267.201	1168.186
858.904	19.110	1266.020	1168.311
859.918	19.270	1265.143	1168.454
860.933	19.204	1264.039	1166.843
861.947	19.264	1263.358	1166.487
862.962	19.052	1261.833	1163.496
863.977	19.084	1260.004	1161.891
864.991	18.898	1259.246	1159.787
866.006	18.919	1259.080	1159.640
867.020	19.032	1257.537	1158.848
868.035	19.039	1256.289	1157.606
869.049	18.878	1256.165	1156.266
870.064	19.090	1255.108	1156.586
871.079	18.954	1254.630	1155.088
872.093	19.061	1254.140	1155.216
873.108	19.152	1252.343	1154.040
874.122	19.284	1250.984	1153.535
875.137	19.313	1251.005	1153.612
876.152	19.517	1250.214	1154.117
877.166	19.438	1248.278	1151.661
878.181	19.421	1246.924	1150.163
879.195	19.326	1246.315	1148.825
880.210	19.135	1245.522	1146.680
881.225	19.098	1244.039	1144.930
882.239	19.065	1243.278	1143.869
883.254	19.066	1242.951	1143.441
884.268	19.140	1241.570	1142.527
885.283	19.123	1239.967	1140.798
886.298	19.010	1238.578	1138.634
887.312	19.102	1238.306	1138.858
888.327	19.154	1236.863	1137.744
889.341	19.210	1235.241	1136.484
890.356	19.139	1235.119	1135.767
891.371	19.033	1234.623	1134.472
892.385	18.943	1234.523	1133.649
893.400	19.174	1233.021	1133.657
894.414	19.001	1231.555	1131.034
895.429	19.080	1230.525	1130.472
896.444	19.297	1229.776	1131.080
897.458	19.603	1227.788	1131.133
898.473	19.453	1227.252	1129.519
899.487	19.074	1226.341	1126.054
900.502	19.223	1224.666	1125.359
901.517	19.151	1223.126	1123.336
902.531	19.356	1222.323	1123.806
903.546	19.204	1222.345	1122.693
904.560	19.297	1220.883	1121.823
905.575	19.264	1220.260	1120.904
906.589	19.274	1220.085	1120.675
907.604	19.454	1218.718	1120.463
