DTS Sentinel unit serial number:	SN409020Multiplexer serial number:	ORYXHardware model number:	OX4-SRSoftware version number:	ORYX F/W v3.00 Oryx Data Collector v3.7.2.0data status	okinstallation	HaddamTimeLapsedifferential loss correction	single-endedforward channel	channel 3reverse channel	N/Adate	2011/06/22time	04:46:17forward acquisition time	30.00reverse acquisition time	0.00gamma	498.7831k internal	0.1753k external	0.1753temperature offset calibration	1.0074default loss term (dB/km)	0.3790temperature slope calibration	1.3530multiplexer offset coefficient	1.0000multiplexer slope coefficient	1.0000fibre end	0.00T internal ref (°C)	22.75T ext. ref 1 (°C)	17.87T ext. ref 2 (°C)	0.15length (m)	temperature (°C)	Stokes	anti-Stokes-747.200	-152.157	0.680	0.065
-746.185	108.061	0.280	0.444
-745.171	133.425	-0.137	-0.236
-744.156	-200.000	-0.019	0.571
-743.142	693.315	-0.075	-0.263
-742.127	86.194	-0.247	0.361
-741.112	5.998	-0.270	-0.265
-740.098	149.911	-0.401	0.724
-739.083	237.492	0.202	-0.446
-738.069	-72.901	0.373	-0.181
-737.054	-200.000	0.015	0.119
-736.039	-75.792	-0.173	-0.081
-735.025	61.035	0.117	-0.154
-734.010	-88.407	-0.122	0.048
-732.996	-81.351	-0.144	0.063
-731.981	-98.698	-0.348	-0.117
-730.966	154.234	-0.201	0.367
-729.952	-200.000	0.006	0.095
-728.937	46.356	0.273	-0.336
-727.923	-32.828	0.191	-0.140
-726.908	121.513	0.058	-0.096
-725.894	-12.986	0.198	-0.170
-724.879	-126.288	-0.055	0.011
-723.864	-68.385	-0.234	0.120
-722.850	800.000	0.092	0.380
-721.835	439.184	0.178	0.518
-720.821	99.736	-0.237	-0.364
-719.806	-136.466	0.168	0.026
-718.791	85.866	-0.089	-0.131
-717.777	800.000	0.110	-0.426
-716.762	-98.245	0.146	0.049
-715.748	-105.642	-0.263	0.078
-714.733	-10.024	0.170	-0.150
-713.718	-87.237	0.146	-0.059
-712.704	-1.427	-0.191	-0.179
-711.689	-82.342	0.299	0.128
-710.675	-27.752	-0.171	0.132
-709.660	25.780	-0.250	-0.276
-708.645	-74.017	-0.182	-0.087
-707.631	37.442	0.280	0.329
-706.616	774.249	-0.034	0.123
-705.602	-144.283	-0.316	-0.039
-704.587	-67.827	-0.338	-0.175
-703.572	-21.822	0.010	0.008
-702.558	-115.654	0.427	0.105
-701.543	19.330	0.252	-0.268
-700.529	-73.261	0.391	0.189
-699.514	-70.211	-0.158	-0.079
-698.499	-138.078	0.249	-0.036
-697.485	-35.910	0.342	-0.245
-696.470	82.101	0.065	0.093
-695.456	594.832	0.098	0.322
-694.441	-132.482	-0.370	0.063
-693.426	-52.381	-0.214	-0.131
-692.412	-133.056	0.235	-0.039
-691.397	-200.000	-0.002	0.196
-690.383	-200.000	-0.003	0.069
-689.368	-120.577	-0.524	-0.117
-688.354	188.351	0.187	-0.371
-687.339	-64.382	-0.071	-0.038
-686.324	-81.102	0.251	-0.109
-685.310	163.470	-0.069	-0.128
-684.295	800.000	-0.037	0.169
-683.281	45.357	0.219	-0.267
-682.266	-25.986	-0.182	0.141
-681.251	-65.985	0.137	-0.072
-680.237	225.936	-0.045	0.097
-679.222	48.008	0.154	0.191
-678.208	60.192	0.080	0.105
-677.193	-113.781	0.392	-0.100
-676.178	201.556	0.373	0.763
-675.164	43.859	0.060	0.073
-674.149	386.494	-0.134	-0.368
-673.135	-113.083	0.121	-0.031
-672.120	-200.000	-0.015	0.215
-671.105	-55.795	0.244	-0.144
-670.091	-87.815	-0.278	-0.110
-669.076	375.913	-0.100	-0.271
-668.062	-156.032	-0.099	-0.008
-667.047	73.713	-0.298	0.414
-666.032	91.693	0.165	0.246
-665.018	-200.000	-0.023	0.398
-664.003	2.663	-0.210	0.201
-662.989	110.667	-0.158	0.252
-661.974	723.043	0.058	-0.207
-660.959	-174.103	0.267	0.010
-659.945	-14.825	0.315	0.267
-658.930	-147.940	-0.276	-0.030
-657.916	64.385	0.044	0.059
-656.901	-140.621	-0.517	-0.070
-655.886	-94.139	0.165	0.060
-654.872	143.093	-0.235	-0.414
-653.857	-200.000	0.016	-0.843
-652.843	-197.904	-0.502	0.004
-651.828	-29.817	0.118	-0.089
-650.814	203.220	0.098	0.202
-649.799	-141.038	0.674	0.090
-648.784	397.054	0.149	0.413
-647.770	-59.225	-0.251	0.143
-646.755	-25.158	-0.266	0.208
-645.741	99.788	-0.239	-0.367
-644.726	-131.053	0.202	0.035
-643.711	-73.913	0.381	0.182
-642.697	160.571	-0.140	-0.258
-641.682	-70.593	0.165	0.082
-640.668	-127.940	-0.226	0.043
-639.653	-42.344	-0.345	0.232
-638.638	-200.000	-0.025	-0.344
-637.624	800.000	0.142	-0.640
-636.609	800.000	-0.058	-0.271
-635.595	-10.372	0.112	-0.098
-634.580	-30.345	0.307	0.230
-633.565	-200.000	-0.002	-0.078
-632.551	155.443	-0.184	-0.336
-631.536	-153.347	0.142	0.013
-630.522	-200.000	-0.014	0.109
-629.507	800.000	-0.036	-0.195
-628.492	-200.000	0.002	-0.255
-627.478	-189.388	0.245	0.004
-626.463	-200.000	0.041	0.401
-625.449	-83.883	-0.439	-0.184
-624.434	10.389	-0.099	0.100
-623.419	-50.460	0.527	0.328
-622.405	3.718	-0.215	0.207
-621.390	110.865	-0.044	-0.069
-620.376	-133.542	-0.297	0.049
-619.361	-52.762	0.440	-0.267
-618.346	204.256	0.262	-0.539
-617.332	311.926	-0.072	-0.178
-616.317	-99.368	-0.351	-0.116
-615.303	-142.389	-0.193	-0.025
-614.288	-151.733	-0.109	-0.010
-613.273	6.029	0.174	-0.171
-612.259	-77.802	0.313	-0.142
-611.244	800.000	0.029	0.112
-610.230	-97.255	0.196	0.067
-609.215	522.525	-0.015	0.046
-608.201	800.000	-0.079	0.387
-607.186	53.839	0.274	0.347
-606.171	-153.473	-0.116	0.010
-605.157	-200.000	-0.009	0.158
-604.142	800.000	-0.074	0.323
-603.128	71.464	-0.294	0.403
-602.113	103.314	0.180	-0.279
-601.098	-170.961	0.221	0.010
-600.084	-29.017	-0.265	-0.201
-599.069	-74.343	0.220	0.105
-598.055	-200.000	0.009	0.309
-597.040	-63.890	-0.677	-0.364
-596.025	-146.169	-0.403	0.046
-595.011	-1.120	-0.313	-0.292
-593.996	-119.279	0.232	-0.053
-592.982	-70.254	-0.286	0.143
-591.967	129.195	-0.118	-0.200
-590.952	82.296	0.055	-0.079
-589.938	-42.947	-0.330	0.220
-588.923	-145.783	0.045	0.005
-587.909	43.054	-0.120	-0.144
-586.894	28.082	-0.077	-0.086
-585.879	-40.091	0.204	0.140
-584.865	-200.000	0.107	0.680
-583.850	-44.469	0.114	-0.075
-582.836	800.000	-0.099	-0.401
-581.821	437.059	-0.150	-0.434
-580.806	-143.570	-0.129	0.016
-579.792	64.132	0.183	0.243
-578.777	-200.000	-0.020	-0.218
-577.763	-62.588	0.679	0.370
-576.748	-200.000	-0.040	-0.369
-575.733	-200.000	-0.003	-0.841
-574.719	-200.000	-0.004	-0.123
-573.704	191.703	0.249	0.497
-572.690	-158.208	-0.259	0.020
-571.675	800.000	0.106	-0.390
-570.661	86.845	-0.124	-0.180
-569.646	-101.371	-0.439	0.140
-568.631	-173.743	-0.327	-0.013
-567.617	-0.207	-0.338	-0.317
-566.602	-136.725	-0.609	-0.092
-565.588	-47.535	0.103	-0.065
-564.573	-54.019	0.024	-0.014
-563.558	-96.200	-0.519	0.180
-562.544	-131.030	0.453	-0.079
-561.529	-30.059	0.130	0.097
-560.515	19.640	-0.054	0.058
-559.500	-124.064	-0.329	-0.068
-558.485	-125.734	-0.257	-0.051
-557.471	-110.092	0.063	0.017
-556.456	279.262	0.128	-0.301
-555.442	70.946	0.229	0.313
-554.427	-9.308	-0.184	-0.162
-553.412	-84.448	-0.432	-0.179
-552.398	-105.212	0.443	-0.132
-551.383	82.549	0.225	0.323
-550.369	-200.000	-0.056	0.367
-549.354	-83.468	-0.256	0.107
-548.339	800.000	0.052	0.237
-547.325	-89.458	0.338	-0.130
-546.310	800.000	-0.033	0.169
-545.296	-76.281	-0.146	-0.067
-544.281	-62.978	0.267	0.145
-543.266	-75.498	-0.265	-0.123
-542.252	-128.734	0.748	-0.138
-541.237	-107.134	-0.265	-0.076
-540.223	-38.198	-0.228	0.159
-539.208	789.922	-0.115	-0.417
-538.193	-30.577	-0.376	-0.280
-537.179	-68.209	-0.408	0.208
-536.164	-106.924	-0.342	-0.099
-535.150	-82.233	0.524	-0.224
-534.135	-135.342	-0.498	-0.078
-533.121	127.721	-0.207	0.346
-532.106	60.290	0.289	0.377
-531.091	-200.000	0.041	0.489
-530.077	-76.166	-0.432	0.200
-529.062	-200.000	0.003	-0.323
-528.048	131.426	0.064	0.108
-527.033	95.269	0.018	0.028
-526.018	-162.747	-0.175	-0.011
-525.004	-67.430	0.304	-0.157
-523.989	800.000	-0.089	-0.399
-522.975	209.574	-0.221	-0.457
-521.960	64.428	-0.077	-0.102
-520.945	-90.054	-0.143	-0.054
-519.931	-21.260	-0.049	0.040
-518.916	-114.970	0.455	-0.113
-517.902	333.996	0.065	-0.166
-516.887	6.486	-0.282	-0.276
-515.872	-70.070	0.360	-0.179
-514.858	-14.449	-0.029	-0.024
-513.843	800.000	0.079	-0.413
-512.829	-200.000	-0.015	-0.207
-511.814	582.998	0.104	0.339
-510.799	27.827	-0.063	0.069
-509.785	-200.000	0.008	-0.176
-508.770	-128.327	-0.168	0.031
-507.756	367.775	-0.096	0.255
-506.741	210.814	-0.139	0.288
-505.726	-200.000	-0.028	0.243
-504.712	293.741	0.118	0.285
-503.697	-122.194	0.490	0.105
-502.683	-128.488	-0.345	-0.064
-501.668	40.169	-0.147	0.174
-500.653	12.814	0.074	-0.075
-499.639	8.394	0.324	0.320
-498.624	59.232	-0.098	0.127
-497.610	26.569	-0.432	0.475
-496.595	-200.000	-0.024	0.394
-495.581	-151.013	-0.422	0.041
-494.566	45.517	0.057	0.069
-493.551	-82.256	0.236	0.100
-492.537	-31.558	-0.089	-0.065
-491.522	-200.000	-0.006	0.163
-490.508	800.000	0.023	0.115
-489.493	-94.265	-0.151	-0.054
-488.478	-97.354	0.153	0.052
-487.464	-112.873	-0.197	-0.051
-486.449	260.082	0.172	0.393
-485.435	-79.773	-0.512	0.225
-484.420	-146.110	-0.356	0.041
-483.405	-84.161	0.257	-0.106
-482.391	100.291	0.198	-0.303
-481.376	-74.224	0.784	0.371
-480.362	-146.099	-0.435	0.050
-479.347	169.162	-0.169	0.318
-478.332	-147.921	-0.174	-0.019
-477.318	-121.897	0.292	-0.063
-476.303	-72.305	0.288	-0.139
-475.289	-21.705	0.115	0.092
-474.274	-200.000	0.032	-0.244
-473.259	113.751	0.309	0.494
-472.245	-162.708	0.386	-0.024
-471.230	209.234	0.187	-0.386
-470.216	-65.689	0.209	-0.110
-469.201	14.408	0.146	0.149
-468.186	454.421	-0.128	0.374
-467.172	-138.960	-0.360	0.051
-466.157	-39.045	0.181	0.124
-465.143	300.464	0.096	-0.233
-464.128	-120.419	0.160	-0.035
-463.113	119.847	0.053	0.087
-462.099	-145.317	-0.047	-0.006
-461.084	-200.000	0.026	-0.174
-460.070	26.042	-0.146	0.160
-459.055	-200.000	0.048	0.308
-458.040	224.382	-0.046	0.098
-457.026	-32.772	0.205	0.149
-456.011	525.686	0.169	0.526
-454.997	-200.000	-0.020	0.532
-453.982	-70.500	0.325	-0.161
-452.968	0.293	0.089	-0.083
-451.953	-200.000	0.001	-0.149
-450.938	-200.000	-0.013	0.168
-449.924	8.241	-0.121	-0.119
-448.909	800.000	0.029	0.135
-447.895	-98.316	0.307	-0.103
-446.880	-84.868	-0.558	-0.229
-445.865	-116.448	0.317	0.076
-444.851	-176.344	-0.494	-0.017
-443.836	-85.576	-0.241	-0.098
-442.822	-200.000	0.075	-0.594
-441.807	-88.383	-0.563	0.219
-440.792	34.440	-0.332	0.381
-439.778	-122.073	-0.256	0.055
-438.763	-79.425	0.415	-0.183
-437.749	105.713	-0.137	-0.212
-436.734	800.000	-0.101	-0.540
-435.719	11.886	0.185	-0.186
-434.705	-116.797	-0.164	0.039
-433.690	143.978	0.159	-0.278
-432.676	114.144	0.135	-0.216
-431.661	-125.051	0.030	-0.006
-430.646	-36.809	0.285	-0.200
-429.632	34.041	0.199	-0.227
-428.617	-39.635	0.485	-0.332
-427.603	424.432	0.087	-0.248
-426.588	-55.794	-0.314	-0.183
-425.573	-155.606	0.098	-0.008
-424.559	34.362	0.196	0.224
-423.544	800.000	0.081	0.425
-422.530	800.000	0.043	0.239
-421.515	-75.100	-0.241	0.112
-420.500	-151.365	-0.150	-0.014
-419.486	72.335	0.185	0.253
-418.471	129.535	0.062	-0.105
-417.457	-200.000	-0.010	0.514
-416.442	98.230	0.158	-0.239
-415.428	800.000	0.061	-0.290
-414.413	26.138	0.493	-0.539
-413.398	17.528	-0.411	-0.427
-412.384	8.564	0.146	0.144
-411.369	-154.950	0.146	-0.012
-410.355	22.900	0.146	0.156
-409.340	-49.138	0.160	0.100
-408.325	74.768	-0.213	-0.294
-407.311	26.573	-0.218	-0.239
-406.296	-139.910	0.188	0.026
-405.282	-146.865	-0.686	-0.076
-404.267	-70.358	-0.211	-0.104
-403.252	66.540	-0.112	0.149
-402.238	-89.372	0.563	-0.216
-401.223	-200.000	0.003	0.136
-400.209	-63.098	-0.181	0.097
-399.194	66.568	-0.384	0.512
-398.179	-200.000	-0.025	0.447
-397.165	-99.788	-0.152	-0.049
-396.150	-43.721	-0.200	0.132
-395.136	-106.747	0.370	-0.107
-394.121	-200.000	0.006	0.043
-393.106	-74.380	0.414	-0.195
-392.092	-8.883	-0.329	-0.288
-391.077	-200.000	0.687	0.003
-390.063	-89.603	0.686	0.262
-389.048	89.640	-0.197	-0.288
-388.033	800.000	-0.080	0.376
-387.019	377.762	-0.101	-0.272
-386.004	55.072	-0.042	0.053
-384.990	-54.170	-0.301	0.179
-383.975	-119.112	-0.640	0.145
-382.960	72.408	0.177	-0.241
-381.946	353.020	0.108	-0.281
-380.931	-14.999	-0.154	0.129
-379.917	49.013	-0.172	0.212
-378.902	45.166	0.237	-0.286
-377.888	-177.402	0.190	0.006
-376.873	64.237	-0.128	-0.169
-375.858	110.480	-0.050	0.079
-374.844	-15.605	0.094	0.078
-373.829	-145.027	-0.381	0.045
-372.815	495.140	-0.143	0.431
-371.800	-76.249	-0.254	0.117
-370.785	196.537	0.077	-0.154
-369.771	43.518	0.253	-0.302
-368.756	-200.000	0.030	0.235
-367.742	127.375	-0.240	-0.400
-366.727	-114.870	-0.225	-0.056
-365.712	22.000	-0.144	0.153
-364.698	-200.000	-0.041	-0.282
-363.683	-25.241	0.132	-0.102
-362.669	254.858	-0.044	0.099
-361.654	-200.000	0.004	0.182
-360.639	-4.946	-0.159	0.143
-359.625	124.716	-0.163	0.269
-358.610	-124.290	0.553	-0.112
-357.596	-200.000	-0.014	-0.166
-356.581	-200.000	-0.048	-0.346
-355.566	235.842	-0.104	-0.226
-354.552	578.796	-0.083	-0.267
-353.537	343.888	-0.150	0.387
-352.523	-137.559	0.308	-0.045
-351.508	800.000	0.070	0.301
-350.493	-200.000	-0.016	-0.125
-349.479	-200.000	-0.067	-0.468
-348.464	-129.695	0.267	0.048
-347.450	-200.000	0.030	0.343
-346.435	510.398	0.083	0.254
-345.420	800.000	-0.124	0.594
-344.406	34.082	0.468	-0.533
-343.391	18.203	-0.093	0.097
-342.377	-79.688	-0.410	-0.180
-341.362	-91.764	-0.221	0.081
-340.348	-200.000	-0.028	-0.171
-339.333	800.000	-0.093	-0.382
-338.318	-200.000	0.015	-0.224
-337.304	162.573	0.071	-0.131
-336.289	-132.574	0.358	0.059
-335.275	396.626	0.070	-0.192
-334.260	-95.045	0.959	-0.336
-333.245	-101.778	0.568	0.179
-332.231	-13.928	-0.257	-0.217
-331.216	-109.838	0.462	-0.126
-330.202	576.156	-0.133	-0.428
-329.187	-200.000	0.088	-0.687
-328.172	30.599	-0.146	-0.164
-327.158	800.000	-0.127	-0.514
-326.143	-3.782	0.355	0.321
-325.129	-5.236	-0.155	0.139
-324.114	-200.000	-0.018	-0.116
-323.099	92.381	-0.212	0.312
-322.085	132.481	-0.316	0.532
-321.070	145.395	0.167	0.292
-320.056	-200.000	-0.010	0.102
-319.041	-200.000	-0.017	-0.316
-318.026	39.865	-0.132	0.155
-317.012	371.894	-0.157	0.417
-315.997	-200.000	0.035	-0.251
-314.983	-86.205	0.384	-0.154
-313.968	-38.959	-0.188	-0.129
-312.953	53.061	-0.194	-0.242
-311.939	-112.683	0.163	-0.042
-310.924	474.175	0.085	-0.251
-309.910	-19.285	0.259	0.209
-308.895	-33.982	0.280	-0.201
-307.880	800.000	-0.102	-0.525
-306.866	57.447	0.203	-0.259
-305.851	-200.000	0.029	0.229
-304.837	179.095	-0.078	-0.149
-303.822	-138.391	-0.163	0.023
-302.807	-200.000	-0.174	-0.001
-301.793	-65.664	0.061	-0.032
-300.778	-4.991	-0.254	-0.228
-299.764	-200.000	-0.025	0.496
-298.749	-14.874	0.227	0.190
-297.735	-46.933	0.369	0.234
-296.720	102.585	0.147	-0.225
-295.705	-125.333	0.250	-0.049
-294.691	800.000	0.090	-0.368
-293.676	-9.928	-0.359	0.311
-292.662	4.179	-0.036	-0.035
-291.647	-200.000	0.117	-0.705
-290.632	-29.705	-0.305	-0.227
-289.618	-66.160	-0.189	-0.098
-288.603	107.320	-0.235	-0.364
-287.589	50.470	-0.127	0.157
-286.574	-1.481	-0.292	0.268
-285.559	-113.709	-0.634	0.160
-284.545	65.044	-0.076	0.100
-283.530	-20.973	0.097	-0.078
-282.516	-7.591	-0.292	-0.257
-281.501	-142.354	-0.445	0.057
-280.486	-200.000	0.011	0.238
-279.472	-86.223	-0.237	-0.095
-278.457	800.000	0.100	0.491
-277.443	79.171	0.116	0.162
-276.428	54.001	-0.143	0.180
-275.413	110.431	-0.141	0.221
-274.399	-142.104	-0.159	-0.020
-273.384	-200.000	-0.008	-0.049
-272.370	7.482	0.204	-0.199
-271.355	123.091	0.303	0.495
-270.340	-200.000	0.033	-0.409
-269.326	383.351	0.121	-0.325
-268.311	299.422	0.039	-0.093
-267.297	160.952	-0.171	-0.312
-266.282	391.976	0.176	0.479
-265.267	-64.437	-0.182	0.096
-264.253	-111.673	0.188	0.049
-263.238	184.079	0.170	0.328
-262.224	-98.774	-0.329	-0.108
-261.209	-133.680	0.257	-0.041
-260.195	2.716	0.385	-0.363
-259.180	-87.471	0.495	-0.194
-258.165	42.253	-0.015	0.018
-257.151	-200.000	0.002	0.445
-256.136	-145.229	0.155	-0.018
-255.122	-23.801	0.231	0.180
-254.107	-108.928	-0.275	0.076
-253.092	126.275	-0.170	0.281
-252.078	-79.184	0.267	-0.117
-251.063	196.633	0.089	0.176
-250.049	-132.883	-0.452	0.074
-249.034	195.106	-0.079	0.156
-248.019	-200.000	-0.077	0.671
-247.005	83.804	0.219	-0.311
-245.990	18.000	-0.191	0.198
-244.976	-149.031	0.092	0.009
-243.961	404.509	-0.184	0.506
-242.946	10.979	0.111	-0.110
-241.932	-31.589	-0.246	0.179
-240.917	-111.400	-0.386	0.102
-239.903	26.103	0.368	0.400
-238.888	-56.445	0.451	0.260
-237.873	27.293	0.025	0.027
-236.859	-200.000	0.722	0.004
-235.844	-80.920	0.183	0.079
-234.830	-175.568	-0.183	0.006
-233.815	64.764	0.056	-0.073
-232.800	62.700	0.209	-0.273
-231.786	40.129	-0.440	0.515
-230.771	-2.144	0.263	0.240
-229.757	65.685	0.322	-0.425
-228.742	-32.774	-0.153	-0.111
-227.727	-105.178	0.136	-0.040
-226.713	-26.475	0.229	0.175
-225.698	18.372	-0.423	-0.440
-224.684	-67.572	0.266	-0.135
-223.669	-8.424	0.271	0.237
-222.655	-30.061	-0.064	0.047
-221.640	53.737	-0.370	-0.463
-220.625	-200.000	0.010	-0.194
-219.611	-47.788	0.072	-0.045
-218.596	-200.000	-0.104	0.657
-217.582	-71.795	0.246	-0.119
-216.567	-6.405	-0.450	0.399
-215.552	-82.072	-0.051	0.021
-214.538	-138.205	0.380	0.054
-213.523	-54.272	0.265	0.156
-212.509	406.731	-0.079	0.217
-211.494	-94.080	-0.364	-0.129
-210.479	-176.502	0.318	0.010
-209.465	-130.330	0.274	0.048
-208.450	-105.984	-0.403	0.117
-207.436	-8.873	-0.128	-0.111
-206.421	237.609	-0.118	-0.255
-205.406	-158.895	0.507	-0.037
-204.392	-200.000	-0.010	-0.070
-203.377	-34.604	-0.144	-0.102
-202.363	50.666	-0.206	-0.253
-201.348	-167.711	-0.167	-0.008
-200.333	-31.616	0.296	0.215
-199.319	-200.000	0.079	-0.631
-198.304	-49.984	-0.512	-0.315
-197.290	45.182	0.297	-0.356
-196.275	-18.056	0.120	-0.097
-195.260	111.523	-0.118	-0.186
-194.246	-98.541	-0.379	-0.125
-193.231	-200.000	-0.042	-0.273
-192.217	-17.401	-0.285	-0.233
-191.202	-200.000	-0.001	-0.193
-190.187	-97.878	-0.271	0.090
-189.173	-47.297	0.169	0.106
-188.158	-133.539	-0.150	0.024
-187.144	-28.392	-0.110	0.082
-186.129	-200.000	-0.014	-0.128
-185.114	60.785	-0.124	-0.160
-184.100	-179.130	-0.101	-0.003
-183.085	-160.385	0.205	0.014
-182.071	159.167	0.074	-0.134
-181.056	303.202	-0.193	0.466
-180.042	-119.135	-0.330	0.074
-179.027	760.064	-0.056	0.199
-178.012	-200.000	-0.037	-0.257
-176.998	521.798	0.070	0.213
-175.983	-107.917	0.244	0.068
-174.969	-109.717	0.376	-0.102
-173.954	-155.468	0.507	0.042
-172.939	-200.000	0.004	0.516
-171.925	121.178	0.183	0.296
-170.910	9.272	-0.087	-0.085
-169.896	-25.816	-0.239	0.182
-168.881	-40.638	0.645	0.433
-167.866	-41.379	0.246	0.164
-166.852	635.191	-0.070	-0.231
-165.837	-200.000	0.017	0.370
-164.823	64.429	-0.097	0.127
-163.808	-129.207	0.218	-0.039
-162.793	-200.000	-0.008	-0.344
-161.779	384.444	-0.191	-0.514
-160.764	-94.646	-0.209	0.073
-159.750	-88.158	0.569	-0.220
-158.735	185.096	-0.162	0.313
-157.720	439.415	-0.076	0.216
-156.706	800.000	-0.084	0.390
-155.691	568.278	0.099	0.313
-154.677	761.055	-0.117	0.414
-153.662	-200.000	-0.020	0.279
-152.647	-128.149	0.290	0.053
-151.633	239.540	0.031	-0.067
-150.618	800.000	0.089	0.424
-149.604	-181.104	0.483	-0.012
-148.589	-147.831	-0.262	-0.028
-147.574	726.359	-0.062	-0.215
-146.560	-93.683	-0.223	0.079
-145.545	392.705	0.221	-0.598
-144.531	-8.594	-0.190	-0.165
-143.516	463.777	-0.041	-0.118
-142.502	28.218	-0.141	0.154
-141.487	-164.103	0.135	0.008
-140.472	-200.000	-0.080	0.615
-139.458	-140.365	0.098	-0.013
-138.443	-200.000	-0.021	-0.316
-137.429	-135.054	0.222	0.034
-136.414	315.805	-0.145	0.355
-135.399	149.495	-0.308	-0.543
-134.385	-200.000	-0.029	-0.286
-133.370	39.705	-0.061	0.071
-132.356	251.788	-0.138	-0.305
-131.341	91.832	-0.103	0.151
-130.326	-200.000	-0.008	0.066
-129.312	66.458	0.306	-0.404
-128.297	233.875	0.123	0.263
-127.283	184.954	0.234	0.451
-126.268	800.000	-0.026	-0.128
-125.253	-111.802	0.544	0.141
-124.239	800.000	0.210	-0.825
-123.224	-27.974	-0.543	0.406
-122.210	201.651	-0.266	-0.532
-121.195	91.998	0.248	-0.363
-120.180	-120.824	-0.455	0.099
-119.166	145.916	-0.198	0.345
-118.151	115.172	0.141	0.223
-117.137	-159.360	-0.294	0.021
-116.122	138.473	0.036	-0.061
-115.107	43.701	-0.213	0.253
-114.093	189.895	0.077	-0.151
-113.078	54.687	-0.104	0.130
-112.064	-97.472	0.547	0.183
-111.049	800.000	0.065	0.247
-110.034	-65.446	0.102	-0.053
-109.020	506.003	-0.114	-0.345
-108.005	22.128	0.339	-0.358
-106.991	5.249	0.089	-0.085
-105.976	800.000	0.080	0.309
-104.962	610.917	-0.094	-0.305
-103.947	131.213	0.171	-0.285
-102.932	14.421	0.155	-0.156
-101.918	800.000	0.031	-0.130
-100.903	88.214	-0.062	-0.089
-99.889	-200.000	0.043	0.496
-98.874	71.373	0.046	0.062
-97.859	-200.000	-0.042	0.314
-96.845	-189.969	-0.388	0.006
-95.830	-84.671	0.374	0.152
-94.816	10.947	-0.176	0.174
-93.801	800.000	-0.073	0.294
-92.786	353.985	0.108	0.279
-91.772	-17.742	0.093	-0.076
-90.757	-97.682	0.265	0.088
-89.743	73.796	0.175	0.237
-88.728	-88.609	0.372	-0.142
-87.713	-146.149	0.289	-0.033
-86.699	800.000	-0.024	-0.098
-85.684	-16.760	0.362	0.296
-84.670	155.279	0.120	-0.215
-83.655	24.172	-0.163	0.174
-82.640	-39.477	0.248	0.168
-81.626	-46.191	-0.340	-0.216
-80.611	-3.039	-0.458	0.413
-79.597	219.915	0.112	0.232
-78.582	195.390	-0.081	-0.160
-77.567	-143.428	0.061	-0.007
-76.553	-124.701	-0.273	0.054
-75.538	-200.000	-0.033	-0.502
-74.524	24.946	-0.524	-0.562
-73.509	-200.000	0.001	-0.255
-72.494	-79.734	-0.503	-0.218
-71.480	-100.705	0.221	-0.070
-70.465	-119.049	-0.422	-0.095
-69.451	22.840	-0.250	0.265
-68.436	31.663	-0.216	0.241
-67.422	-149.259	0.263	0.027
-66.407	800.000	-0.035	0.135
-65.392	73.806	0.079	-0.107
-64.378	197.142	0.180	-0.356
-63.363	50.834	-0.359	-0.440
-62.349	800.000	-0.052	0.260
-61.334	11.732	-2.275	-2.256
-60.319	59.109	0.919	1.170
-59.305	193.348	-3.795	-7.439
-58.290	27.437	4.415	4.796
-57.276	428.413	3.751	10.519
-56.261	-200.000	24.057	317.258
-55.246	359.439	1295.949	3362.802
-54.232	53.652	2837.621	3520.779
-53.217	51.846	2660.055	3272.458
-52.203	32.061	2390.420	2662.154
-51.188	27.948	2055.474	2238.510
-50.173	24.686	1941.784	2076.595
-49.159	23.620	1930.224	2051.762
-48.144	23.225	1925.046	2041.602
-47.130	22.905	1923.733	2036.425
-46.115	22.918	1921.473	2034.105
-45.100	22.939	1919.736	2032.425
-44.086	23.016	1918.318	2031.736
-43.071	22.936	1916.180	2028.465
-42.057	22.941	1915.590	2027.812
-41.042	22.861	1914.446	2025.600
-40.027	23.073	1912.286	2025.673
-39.013	22.981	1910.835	2022.998
-37.998	22.862	1909.512	2020.147
-36.984	22.923	1908.004	2019.176
-35.969	22.811	1908.614	2018.453
-34.954	22.827	1906.445	2016.262
-33.940	22.882	1904.872	2015.150
-32.925	22.854	1903.932	2013.760
-31.911	22.827	1903.118	2012.512
-30.896	22.948	1900.809	2011.368
-29.881	22.942	1899.476	2009.810
-28.867	22.917	1897.914	2007.789
-27.852	22.653	1897.412	2004.171
-26.838	22.809	1895.362	2003.702
-25.823	22.765	1893.944	2001.619
-24.809	22.735	1892.330	1999.491
-23.794	22.742	1892.199	1999.356
-22.779	22.878	1889.928	1998.426
-21.765	22.687	1888.680	1994.850
-20.750	22.758	1888.327	1995.206
-19.736	22.641	1887.633	1993.072
-18.721	22.739	1885.588	1991.943
-17.706	22.635	1884.674	1989.719
-16.692	22.640	1883.554	1988.510
-15.677	22.637	1882.079	1986.841
-14.663	22.827	1879.798	1986.499
-13.648	22.640	1879.534	1984.030
-12.633	22.722	1877.782	1983.028
-11.619	22.731	1876.666	1981.878
-10.604	22.720	1874.605	1979.500
-9.590	22.581	1874.864	1978.119
-8.575	22.517	1873.829	1976.231
-7.560	22.587	1872.201	1975.225
-6.546	22.663	1870.832	1974.559
-5.531	22.641	1869.755	1973.091
-4.517	22.518	1868.634	1970.448
-3.502	22.599	1867.541	1970.132
-2.487	22.625	1866.298	1969.027
-1.473	22.767	1863.096	1967.169
-0.458	22.548	1844.100	1944.606
0.556	19.132	1989.951	2045.406
1.571	17.780	2193.267	2236.326
2.586	18.708	2231.955	2287.929
3.600	18.628	2236.457	2291.202
4.615	18.636	2234.440	2288.968
5.629	18.625	2232.910	2286.978
6.644	18.507	2231.625	2283.810
7.659	18.644	2229.095	2282.773
8.673	18.649	2226.706	2280.116
9.688	18.322	2235.458	2284.428
10.702	17.294	2314.840	2350.988
11.717	15.677	2378.898	2392.642
12.731	7.531	2360.278	2257.586
13.746	1.074	2342.475	2148.481
14.761	0.277	2338.677	2133.401
15.775	0.129	2338.002	2130.432
16.790	0.160	2335.576	2128.410
17.804	0.093	2335.035	2126.707
18.819	0.060	2332.799	2123.949
19.834	0.015	2330.806	2121.239
20.848	0.035	2330.423	2120.924
21.863	0.036	2329.049	2119.430
22.877	0.008	2326.914	2116.839
23.892	0.052	2323.804	2114.381
24.907	0.056	2321.791	2112.344
25.921	0.060	2319.825	2110.357
26.936	-0.043	2317.865	2106.873
27.950	0.097	2315.567	2106.510
28.965	0.078	2313.758	2104.333
29.980	0.101	2312.050	2102.853
30.994	0.109	2309.676	2100.560
32.009	4.225	2321.991	2169.476
33.023	13.470	2348.964	2325.463
34.038	17.402	2355.104	2386.816
35.053	17.546	2352.585	2386.011
36.067	17.740	2350.213	2386.043
37.082	17.628	2349.058	2383.008
38.096	17.717	2347.030	2381.915
39.111	17.767	2344.283	2379.549
40.126	17.865	2342.317	2378.644
41.140	18.017	2341.293	2379.448
42.155	17.972	2339.725	2376.939
43.169	17.811	2337.467	2372.110
44.184	17.881	2334.017	2369.294
45.199	17.781	2332.367	2365.948
46.213	17.806	2331.264	2364.886
47.228	17.769	2330.544	2363.365
48.242	17.775	2328.884	2361.481
49.257	17.870	2327.187	2360.793
50.271	17.904	2324.310	2358.067
51.286	17.693	2321.719	2352.237
52.301	17.702	2320.283	2350.623
53.315	18.023	2322.226	2356.760
54.330	19.903	2325.888	2386.265
55.344	21.122	2325.998	2402.978
56.359	21.327	2322.494	2401.899
57.374	21.299	2322.603	2401.350
58.388	21.468	2319.941	2400.632
59.403	21.438	2315.448	2395.282
60.417	21.278	2312.333	2389.579
61.432	21.356	2312.170	2390.189
62.447	21.590	2310.956	2391.865
63.461	21.749	2309.032	2391.767
64.476	21.833	2306.038	2389.531
65.490	21.574	2305.141	2384.776
66.505	21.028	2302.525	2374.315
67.520	19.551	2296.210	2347.351
68.534	17.925	2289.667	2318.205
69.549	17.747	2285.118	2310.899
70.563	17.671	2283.152	2307.605
71.578	17.716	2281.823	2306.595
72.593	17.801	2279.145	2304.767
73.607	17.774	2278.866	2303.832
74.622	17.817	2276.276	2301.529
75.636	17.610	2273.572	2295.712
76.651	17.746	2271.917	2295.614
77.666	17.794	2269.515	2293.561
78.680	17.681	2268.054	2290.278
79.695	17.722	2265.200	2287.675
80.709	17.807	2263.656	2286.989
81.724	17.683	2262.735	2284.111
82.739	17.726	2259.331	2280.988
83.753	17.670	2257.250	2277.860
84.768	17.628	2255.757	2275.516
85.782	17.634	2254.910	2274.467
86.797	17.673	2253.103	2272.898
87.812	17.699	2250.756	2270.601
88.826	17.668	2248.492	2267.630
89.841	17.725	2246.178	2265.787
90.855	17.673	2244.304	2262.928
91.870	17.613	2243.630	2261.183
92.884	17.639	2241.200	2258.805
93.899	17.721	2239.096	2257.510
94.914	18.097	2241.224	2264.399
95.928	19.661	2245.821	2289.614
96.943	20.329	2245.277	2297.672
97.957	18.705	2236.707	2267.092
98.972	17.775	2231.770	2249.498
99.987	17.672	2228.828	2244.899
101.001	17.567	2225.840	2240.229
102.016	17.571	2224.512	2238.675
103.030	17.635	2221.805	2236.526
104.045	17.666	2220.101	2234.957
105.060	17.740	2218.038	2233.578
106.074	17.575	2217.066	2230.165
107.089	17.647	2214.952	2228.714
108.103	17.632	2214.082	2227.373
109.118	17.739	2212.069	2226.495
110.133	17.791	2210.511	2225.336
111.147	17.727	2208.178	2221.890
112.162	17.726	2207.114	2220.536
113.176	17.868	2203.563	2218.559
114.191	17.699	2202.847	2215.366
115.206	17.773	2200.636	2213.839
116.220	17.758	2198.953	2211.679
117.235	17.660	2197.535	2208.721
118.249	17.785	2194.678	2207.202
119.264	17.723	2193.516	2204.974
120.279	17.811	2191.935	2204.252
121.293	17.783	2189.667	2201.345
122.308	17.714	2189.478	2199.997
123.322	17.830	2187.170	2198.926
124.337	18.078	2188.329	2203.036
125.352	19.863	2193.803	2231.445
126.366	20.252	2191.568	2233.939
127.381	18.478	2182.548	2201.591
128.395	17.687	2179.652	2188.201
129.410	17.781	2176.250	2185.736
130.424	17.753	2175.326	2184.192
131.439	17.678	2172.740	2180.364
132.454	17.731	2171.331	2179.379
133.468	17.730	2170.108	2177.872
134.483	17.724	2167.958	2175.371
135.497	17.894	2166.172	2175.502
136.512	17.779	2164.187	2171.773
137.527	17.692	2163.031	2169.243
138.541	17.733	2161.368	2167.842
139.556	17.600	2160.615	2165.129
140.570	17.612	2159.362	2163.766
141.585	17.753	2155.385	2161.314
142.600	17.624	2155.083	2159.113
143.614	17.640	2153.068	2157.036
144.629	17.549	2151.684	2154.234
145.643	17.627	2150.363	2153.644
146.658	17.656	2147.133	2150.525
147.673	17.524	2147.018	2148.473
148.687	17.586	2145.484	2147.466
149.702	17.606	2144.470	2146.452
150.716	17.586	2142.964	2144.430
151.731	17.707	2141.411	2144.150
152.746	17.714	2140.810	2143.378
153.760	18.183	2142.097	2150.338
154.775	19.875	2147.484	2176.907
155.789	20.365	2145.476	2180.805
156.804	18.728	2136.685	2150.999
157.819	17.690	2131.391	2132.374
158.833	17.694	2128.661	2129.437
159.848	17.715	2126.465	2127.247
160.862	17.789	2125.027	2126.479
161.877	17.798	2123.867	2125.183
162.892	17.693	2124.118	2123.860
163.906	17.713	2122.449	2122.194
164.921	17.820	2119.368	2120.195
165.935	17.829	2117.760	2118.439
166.950	17.775	2116.576	2116.332
167.964	17.792	2113.456	2113.173
168.979	17.593	2113.153	2110.137
169.994	17.740	2111.062	2109.620
171.008	17.762	2109.235	2107.817
172.023	17.726	2107.633	2105.512
173.037	17.829	2105.714	2104.626
174.052	17.703	2104.989	2102.086
175.067	17.776	2103.039	2100.792
176.081	17.665	2101.711	2097.844
177.096	17.748	2100.224	2097.130
178.110	17.774	2098.703	2095.678
179.125	17.736	2098.253	2094.510
180.140	17.772	2095.609	2092.064
181.154	17.641	2095.267	2089.859
182.169	17.698	2093.913	2088.961
183.183	18.176	2095.484	2096.165
184.198	20.006	2100.201	2123.203
185.213	20.486	2097.518	2126.140
186.227	18.692	2089.987	2096.259
187.242	17.892	2085.930	2082.129
188.256	17.769	2085.301	2079.748
189.271	17.723	2083.891	2077.528
190.286	17.741	2082.207	2075.822
191.300	17.817	2079.385	2073.685
192.315	17.789	2077.292	2071.009
193.329	17.885	2075.538	2070.185
194.344	17.929	2075.298	2070.238
195.359	17.946	2074.096	2068.988
196.373	17.643	2072.669	2063.627
197.388	17.735	2069.077	2060.925
198.402	17.659	2067.535	2058.223
199.417	17.616	2065.727	2055.659
200.432	17.655	2063.753	2053.915
201.446	17.691	2063.133	2053.489
202.461	17.775	2060.888	2052.029
203.475	17.701	2059.894	2049.894
204.490	17.694	2057.790	2047.469
205.504	17.767	2055.302	2045.632
206.519	17.740	2052.584	2042.361
207.534	17.573	2052.321	2039.844
208.548	17.781	2050.537	2040.321
209.563	17.686	2049.524	2037.932
210.577	17.661	2048.144	2036.011
211.592	17.753	2047.948	2036.684
212.607	18.768	2050.287	2050.957
213.621	20.724	2055.368	2079.297
214.636	20.193	2050.856	2068.130
215.650	18.162	2043.629	2036.303
216.665	17.670	2040.130	2026.700
217.680	17.761	2038.226	2025.657
218.694	17.685	2037.266	2023.546
219.709	17.669	2035.665	2021.520
220.723	17.713	2034.853	2021.000
221.738	17.939	2032.079	2020.689
222.753	17.808	2030.506	2017.330
223.767	17.715	2030.036	2015.510
224.782	17.756	2027.178	2012.920
225.796	17.816	2025.526	2011.759
226.811	17.850	2024.768	2011.156
227.826	17.812	2023.644	2009.351
228.840	17.791	2021.428	2006.663
229.855	17.763	2020.584	2005.261
230.869	17.791	2018.500	2003.277
231.884	17.791	2016.595	2001.144
232.899	17.732	2014.973	1998.601
233.913	17.836	2013.871	1998.491
234.928	17.711	2012.760	1995.686
235.942	17.708	2012.127	1994.779
236.957	17.787	2009.914	1993.279
237.972	17.719	2008.574	1990.914
238.986	17.764	2007.463	1990.095
240.001	17.841	2005.711	1989.032
241.015	17.765	2005.131	1987.318
242.030	18.223	2005.144	1992.458
243.045	19.959	2008.981	2016.371
244.059	20.076	2006.581	2015.092
245.074	18.403	1999.263	1987.998
246.088	17.870	1995.412	1977.734
247.103	17.843	1994.356	1976.131
248.117	17.753	1993.648	1974.146
249.132	17.781	1991.664	1972.270
250.147	17.804	1988.995	1969.657
251.161	17.759	1987.917	1967.838
252.176	17.764	1987.469	1967.211
253.190	17.905	1985.554	1966.717
254.205	17.922	1982.392	1963.543
255.220	17.956	1981.560	1962.878
256.234	17.874	1980.706	1960.852
257.249	17.904	1979.280	1959.552
258.263	17.902	1978.742	1958.754
259.278	17.873	1976.705	1956.177
260.293	17.645	1976.144	1952.761
261.307	17.714	1973.329	1950.537
262.322	17.735	1972.114	1949.341
263.336	17.706	1969.837	1946.529
264.351	17.624	1968.002	1943.542
265.366	17.688	1966.732	1942.788
266.380	17.695	1965.893	1941.808
267.395	17.697	1964.364	1940.091
268.409	17.659	1963.492	1938.558
269.424	17.715	1961.717	1937.213
270.439	17.734	1960.425	1935.921
271.453	18.311	1961.707	1943.543
272.468	20.130	1965.299	1967.648
273.482	20.256	1961.611	1965.152
274.497	18.581	1953.423	1937.708
275.512	17.887	1950.311	1926.520
276.526	17.810	1949.132	1924.247
277.541	17.633	1947.394	1920.302
278.555	17.680	1946.383	1919.598
279.570	17.703	1944.286	1917.569
280.585	17.681	1943.025	1915.843
281.599	17.706	1942.014	1914.906
282.614	17.917	1939.886	1914.951
283.628	17.847	1939.842	1913.889
284.643	17.987	1938.238	1913.654
285.657	17.992	1937.323	1912.580
286.672	18.014	1935.963	1911.255
287.687	17.874	1935.164	1908.664
288.701	17.959	1933.163	1907.421
289.716	17.750	1932.596	1904.277
290.730	17.903	1929.343	1902.558
291.745	17.824	1928.364	1900.485
292.760	17.864	1927.725	1900.076
293.774	17.738	1927.036	1897.755
294.789	17.864	1925.070	1897.005
295.803	17.791	1922.568	1893.499
296.818	17.822	1921.842	1892.906
297.833	17.881	1920.536	1892.043
298.847	17.817	1919.357	1889.947
299.862	17.804	1917.806	1888.043
300.876	18.241	1918.585	1893.448
301.891	20.197	1921.155	1917.519
302.906	20.672	1919.418	1920.830
303.920	18.596	1913.714	1891.904
304.935	17.894	1910.986	1881.202
305.949	17.921	1907.767	1878.106
306.964	17.816	1906.572	1875.549
307.979	17.986	1905.116	1875.770
308.993	18.057	1903.355	1874.593
310.008	17.981	1902.409	1872.594
311.022	17.970	1901.110	1870.970
312.037	17.843	1899.893	1868.154
313.052	18.011	1897.653	1867.571
314.066	17.915	1896.662	1865.321
315.081	17.965	1895.783	1864.785
316.095	17.919	1894.280	1862.575
317.110	17.891	1892.758	1860.549
318.125	17.907	1890.956	1858.733
319.139	17.934	1889.635	1857.504
320.154	18.047	1887.508	1856.426
321.168	17.999	1886.269	1854.463
322.183	17.855	1884.904	1851.327
323.197	17.837	1883.391	1849.428
324.212	17.745	1882.405	1847.233
325.227	17.706	1880.450	1844.669
326.241	17.688	1879.016	1842.851
327.256	17.651	1878.165	1841.385
328.270	17.644	1876.439	1839.405
329.285	17.682	1876.122	1839.279
330.300	18.352	1879.681	1849.823
331.314	20.451	1882.631	1875.309
332.329	20.371	1877.572	1869.174
333.343	18.539	1870.145	1841.797
334.358	17.856	1868.361	1832.451
335.373	17.801	1866.784	1830.100
336.387	17.707	1865.503	1827.609
337.402	17.821	1862.853	1826.016
338.416	17.708	1861.617	1823.373
339.431	17.746	1860.079	1822.062
340.446	17.746	1858.910	1820.690
341.460	17.924	1857.705	1821.201
342.475	17.953	1856.252	1819.868
343.489	17.962	1855.077	1818.603
344.504	17.838	1854.063	1816.064
345.519	18.035	1851.488	1815.424
346.533	18.074	1851.267	1815.409
347.548	18.155	1849.762	1814.574
348.562	18.096	1848.517	1812.508
349.577	18.076	1847.601	1811.184
350.592	17.957	1846.440	1808.561
351.606	18.028	1844.538	1807.236
352.621	17.999	1843.265	1805.470
353.635	17.875	1841.886	1802.585
354.650	17.905	1840.012	1800.856
355.665	17.768	1839.014	1798.205
356.679	17.884	1837.094	1797.342
357.694	17.757	1836.382	1795.085
358.708	17.672	1835.950	1793.553
359.723	18.748	1837.428	1806.160
360.738	20.619	1839.676	1827.942
361.752	20.049	1836.342	1818.393
362.767	18.274	1829.978	1793.198
363.781	17.798	1826.823	1784.889
364.796	17.683	1826.551	1783.197
365.810	17.695	1824.553	1781.159
366.825	17.708	1823.404	1779.966
367.840	17.836	1823.075	1780.769
368.854	17.818	1821.830	1779.151
369.869	17.801	1819.327	1776.320
370.883	17.658	1818.762	1774.062
371.898	17.647	1817.557	1772.559
372.913	17.717	1816.167	1771.724
373.927	17.708	1815.468	1770.728
374.942	17.747	1814.324	1769.813
375.956	17.885	1812.972	1769.718
376.971	17.828	1809.865	1765.883
377.986	17.756	1807.688	1762.804
379.000	17.895	1806.658	1763.023
380.015	17.966	1805.763	1762.679
381.029	17.954	1804.685	1761.287
382.044	17.795	1802.779	1757.570
383.059	17.803	1800.803	1755.515
384.073	17.736	1800.059	1753.887
385.088	17.672	1798.847	1751.843
386.102	17.770	1796.981	1750.820
387.117	17.727	1794.844	1748.094
388.132	17.599	1794.767	1746.482
389.146	18.285	1798.365	1756.857
390.161	20.369	1800.926	1780.655
391.175	20.194	1795.254	1773.039
392.190	18.205	1788.356	1745.633
393.205	17.655	1785.758	1737.256
394.219	17.578	1785.154	1735.667
395.234	17.671	1783.754	1735.048
396.248	17.728	1781.498	1733.232
397.263	17.828	1778.909	1731.525
398.278	17.781	1777.722	1729.680
399.292	17.686	1777.522	1728.310
400.307	17.742	1776.694	1727.873
401.321	17.914	1774.498	1727.283
402.336	17.793	1774.053	1725.408
403.350	17.994	1772.450	1725.688
404.365	17.974	1771.440	1724.296
405.380	18.287	1770.001	1725.860
406.394	18.242	1769.759	1724.958
407.409	18.149	1768.248	1722.335
408.423	18.116	1766.391	1719.993
409.438	17.981	1765.218	1717.273
410.453	17.981	1764.203	1716.080
411.467	18.076	1762.605	1715.287
412.482	18.074	1761.535	1714.016
413.496	17.869	1759.935	1710.192
414.511	17.829	1758.166	1707.859
415.526	17.920	1755.515	1705.996
416.540	17.858	1754.236	1703.926
417.555	17.754	1753.455	1701.922
418.569	17.727	1754.276	1702.247
419.584	17.762	1754.074	1702.192
420.599	17.831	1752.888	1701.535
421.613	17.921	1751.488	1700.869
422.628	18.012	1749.448	1699.592
423.642	17.880	1747.896	1696.571
424.657	17.832	1747.171	1695.184
425.672	17.957	1745.126	1694.236
426.686	17.938	1743.335	1692.107
427.701	17.820	1742.441	1689.867
428.715	17.985	1740.439	1689.366
429.730	17.948	1739.684	1688.057
430.745	17.970	1738.139	1686.578
431.759	17.921	1738.209	1685.954
432.774	17.882	1737.760	1684.929
433.788	18.067	1736.137	1684.990
434.803	18.051	1736.007	1684.507
435.818	18.004	1735.729	1683.568
436.832	17.870	1735.176	1681.505
437.847	16.944	1728.727	1665.909
438.861	9.665	1707.933	1574.442
439.876	1.810	1693.240	1484.017
440.890	0.329	1689.126	1465.768
441.905	0.290	1688.242	1464.447
442.920	0.141	1687.018	1461.754
443.934	0.228	1685.771	1461.341
444.949	0.231	1684.105	1459.751
445.963	0.160	1683.713	1458.547
446.978	0.229	1682.709	1458.180
447.993	0.212	1681.506	1456.792
449.007	0.229	1679.688	1455.212
450.022	0.375	1676.668	1453.836
451.036	0.187	1676.252	1451.482
452.051	1.217	1680.904	1465.341
453.066	8.927	1698.061	1555.521
454.080	16.297	1709.453	1637.874
455.095	17.678	1710.642	1652.280
456.109	18.038	1710.617	1655.570
457.124	18.206	1709.825	1656.240
458.139	18.005	1708.736	1653.027
459.153	17.904	1708.073	1651.207
460.168	17.942	1705.370	1648.768
461.182	17.958	1704.477	1647.860
462.197	17.828	1703.252	1645.222
463.212	17.945	1700.530	1643.524
464.226	17.831	1699.636	1641.367
465.241	17.929	1698.731	1641.236
466.255	18.069	1697.753	1641.453
467.270	18.026	1696.298	1639.434
468.285	17.862	1695.078	1636.482
469.299	17.815	1693.583	1634.382
470.314	17.819	1691.373	1632.096
471.328	17.974	1690.170	1632.229
472.343	17.724	1690.153	1629.611
473.358	17.863	1688.775	1629.421
474.372	17.948	1686.675	1628.019
475.387	17.909	1685.863	1626.670
476.401	17.930	1684.112	1624.984
477.416	18.054	1682.860	1624.766
478.430	18.018	1682.884	1624.249
479.445	17.874	1681.223	1621.077
480.460	17.970	1679.516	1620.158
481.474	17.863	1678.906	1618.352
482.489	17.869	1677.850	1617.195
483.503	17.979	1675.738	1616.014
484.518	17.918	1674.367	1613.915
485.533	18.113	1673.187	1614.441
486.547	18.055	1672.318	1612.861
487.562	18.288	1670.992	1613.592
488.576	18.198	1668.769	1610.403
489.591	18.246	1667.846	1609.773
490.606	18.163	1666.486	1607.487
491.620	18.200	1665.140	1606.346
492.635	18.284	1663.061	1604.933
493.649	18.112	1661.940	1602.043
494.664	18.069	1660.843	1600.386
495.679	17.921	1659.243	1597.262
496.693	17.839	1658.693	1595.772
497.708	17.956	1657.019	1595.071
498.722	18.003	1656.294	1594.623
499.737	18.015	1654.582	1592.890
500.752	18.020	1653.170	1591.386
501.766	17.938	1652.059	1589.364
502.781	17.884	1650.274	1586.953
503.795	17.983	1648.364	1585.852
504.810	18.043	1647.611	1585.497
505.825	18.055	1647.298	1585.119
506.839	18.156	1645.248	1583.897
507.854	18.054	1643.668	1581.236
508.868	17.976	1643.758	1580.403
509.883	18.212	1641.992	1580.711
510.898	18.226	1640.873	1579.570
511.912	17.949	1639.336	1575.342
512.927	17.921	1637.878	1573.491
513.941	18.007	1636.142	1572.432
514.956	18.156	1634.888	1572.412
515.971	18.082	1634.239	1570.915
516.985	18.100	1633.242	1569.940
518.000	18.109	1632.290	1568.916
519.014	18.031	1631.719	1567.458
520.029	17.984	1630.253	1565.435
521.043	18.095	1628.085	1564.181
522.058	18.149	1626.747	1563.211
523.073	17.942	1626.806	1561.178
524.087	18.130	1625.223	1561.191
525.102	18.074	1624.138	1559.454
526.116	18.038	1622.460	1557.319
527.131	18.080	1621.444	1556.543
528.146	18.041	1622.061	1556.598
529.160	18.207	1619.485	1555.455
530.175	18.237	1618.451	1554.552
531.189	18.142	1617.855	1552.919
532.204	18.198	1615.311	1550.803
533.219	18.191	1613.998	1549.293
534.233	17.994	1613.821	1547.148
535.248	18.187	1613.092	1548.022
536.262	18.184	1612.127	1546.878
537.277	18.216	1611.061	1545.966
538.292	18.230	1609.225	1544.142
539.306	18.048	1607.853	1540.993
540.321	18.200	1606.725	1541.105
541.335	18.360	1605.242	1540.947
542.350	18.312	1603.411	1538.570
543.365	18.233	1601.874	1536.194
544.379	18.480	1600.371	1536.799
545.394	18.316	1599.652	1534.444
546.408	18.245	1597.533	1531.587
547.423	18.047	1596.663	1528.794
548.438	18.016	1595.053	1526.788
549.452	18.192	1594.405	1527.564
550.467	18.045	1593.608	1525.305
551.481	18.018	1592.839	1524.145
552.496	18.205	1592.112	1524.936
553.511	18.168	1590.601	1522.974
554.525	18.033	1590.317	1521.312
555.540	18.246	1589.260	1522.021
556.554	18.347	1587.786	1521.333
557.569	18.308	1585.500	1518.611
558.583	18.201	1584.367	1516.395
559.598	18.316	1582.979	1515.906
560.613	18.240	1582.419	1514.515
561.627	18.294	1581.340	1513.776
562.642	18.193	1580.435	1511.833
563.656	18.171	1579.398	1510.467
564.671	18.212	1577.165	1508.517
565.686	18.199	1576.415	1507.499
566.700	18.138	1574.893	1505.326
567.715	18.150	1572.934	1503.378
568.729	18.115	1571.865	1501.863
569.744	18.270	1570.353	1501.614
570.759	18.395	1568.787	1501.038
571.773	18.157	1568.323	1498.316
572.788	18.226	1567.043	1497.516
573.802	18.325	1565.121	1496.374
574.817	18.268	1563.601	1494.239
575.832	18.060	1563.747	1492.378
576.846	18.373	1561.750	1493.034
577.861	18.216	1561.273	1491.022
578.875	18.251	1560.490	1490.409
579.890	18.437	1558.874	1490.313
580.905	18.423	1557.768	1488.948
581.919	18.251	1557.505	1487.021
582.934	18.470	1556.324	1487.623
583.948	18.330	1555.524	1485.460
584.963	18.387	1553.164	1483.526
585.978	18.344	1551.803	1481.676
586.992	18.358	1550.943	1480.798
588.007	18.554	1550.662	1482.055
589.021	18.448	1550.018	1480.344
590.036	18.407	1549.000	1478.833
591.051	18.428	1547.394	1477.309
592.065	18.443	1545.816	1475.759
593.080	18.428	1543.910	1473.628
594.094	18.437	1542.547	1472.226
595.109	18.296	1540.114	1468.519
596.123	18.310	1539.009	1467.406
597.138	18.283	1538.033	1466.069
598.153	18.339	1537.416	1465.782
599.167	18.267	1535.874	1463.522
600.182	18.360	1535.456	1463.750
601.196	18.349	1534.700	1462.753
602.211	18.289	1533.127	1460.564
603.226	18.363	1532.053	1460.004
604.240	18.375	1530.299	1458.261
605.255	18.438	1529.146	1457.529
606.269	18.366	1528.085	1455.723
607.284	18.404	1527.500	1455.318
608.299	18.430	1526.091	1454.024
609.313	18.325	1525.401	1452.292
610.328	18.378	1523.609	1450.870
611.342	18.412	1522.334	1449.765
612.357	18.522	1521.156	1449.405
613.372	18.453	1520.427	1447.958
614.386	18.406	1520.042	1447.013
615.401	18.353	1518.813	1445.226
616.415	18.345	1518.264	1444.459
617.430	18.448	1517.089	1444.041
618.445	18.305	1515.558	1441.198
619.459	18.329	1514.519	1440.244
620.474	18.196	1513.431	1437.913
621.488	18.301	1512.224	1437.481
622.503	18.382	1510.999	1436.823
623.518	18.372	1509.453	1435.101
624.532	18.367	1508.655	1434.129
625.547	18.386	1508.068	1433.560
626.561	18.494	1507.139	1433.409
627.576	18.498	1505.743	1431.947
628.591	18.356	1504.939	1429.821
629.605	18.153	1503.998	1427.051
630.620	18.340	1502.053	1426.600
631.634	18.441	1501.297	1426.558
632.649	18.453	1500.054	1425.306
633.663	18.479	1498.679	1424.048
634.678	18.515	1497.171	1422.744
635.693	18.431	1496.310	1421.052
636.707	18.443	1494.086	1418.871
637.722	18.486	1493.744	1418.732
638.736	18.515	1493.152	1418.242
639.751	18.460	1492.353	1416.861
640.766	18.507	1490.480	1415.300
641.780	18.536	1489.096	1414.060
642.795	18.493	1488.334	1412.808
643.809	18.605	1486.662	1411.980
644.824	18.455	1486.708	1410.610
645.839	18.536	1485.349	1409.820
646.853	18.583	1484.054	1408.813
647.868	18.561	1482.502	1406.989
648.882	18.485	1481.908	1405.635
649.897	18.464	1480.671	1404.112
650.912	18.563	1478.658	1402.850
651.926	18.510	1477.822	1401.456
652.941	18.553	1476.817	1400.689
653.955	18.549	1475.844	1399.562
654.970	18.375	1474.672	1396.863
655.985	18.629	1472.478	1396.695
656.999	18.761	1471.046	1396.244
658.014	18.702	1469.921	1394.532
659.028	18.527	1470.092	1393.100
660.043	18.679	1469.263	1393.382
661.058	18.667	1466.931	1390.910
662.072	18.656	1466.096	1389.857
663.087	18.507	1465.267	1387.697
664.101	18.524	1464.315	1386.766
665.116	18.616	1462.538	1385.662
666.131	18.573	1461.746	1384.397
667.145	18.606	1460.685	1383.496
668.160	18.737	1459.232	1383.019
669.174	18.647	1457.709	1380.676
670.189	18.744	1457.078	1380.696
671.204	18.738	1456.179	1379.631
672.218	18.471	1455.440	1376.611
673.233	18.749	1454.322	1377.635
674.247	18.681	1453.356	1376.006
675.262	18.634	1452.898	1375.025
676.276	18.654	1451.180	1373.398
677.291	18.627	1450.215	1372.104
678.306	18.649	1449.333	1371.282
679.320	18.530	1447.933	1368.836
680.335	18.566	1447.846	1368.880
681.349	18.545	1447.190	1367.928
682.364	18.609	1445.426	1366.611
683.379	18.578	1443.462	1364.338
684.393	18.554	1442.157	1362.757
685.408	18.673	1441.444	1362.868
686.422	18.590	1440.565	1361.207
687.437	18.429	1440.487	1359.686
688.452	18.512	1439.476	1359.236
689.466	18.552	1437.085	1357.131
690.481	18.499	1435.743	1355.277
691.495	18.498	1435.640	1355.016
692.510	18.452	1433.971	1352.913
693.525	18.422	1432.836	1351.436
694.539	18.467	1431.736	1350.598
695.554	18.469	1430.893	1349.655
696.568	18.474	1430.812	1349.459
697.583	18.528	1429.646	1348.622
698.598	18.553	1428.989	1348.043
699.612	18.622	1427.605	1347.113
700.627	18.574	1425.842	1344.914
701.641	18.770	1424.552	1345.079
702.656	18.631	1423.643	1342.966
703.671	18.871	1422.908	1344.002
704.685	18.674	1422.904	1342.284
705.700	18.693	1421.198	1340.668
706.714	18.785	1419.396	1339.527
707.729	18.574	1418.718	1337.070
708.744	18.658	1417.080	1336.022
709.758	18.615	1416.246	1334.743
710.773	18.764	1415.425	1334.972
711.787	18.740	1414.212	1333.481
712.802	18.678	1412.538	1331.260
713.816	18.581	1411.820	1329.667
714.831	18.788	1411.000	1330.351
715.846	18.711	1410.365	1328.991
716.860	18.725	1408.672	1327.345
717.875	18.672	1407.721	1325.881
718.889	18.727	1406.281	1324.791
719.904	18.745	1405.059	1323.621
720.919	18.802	1404.074	1322.975
721.933	18.728	1403.765	1321.956
722.948	18.770	1401.875	1320.344
723.962	18.728	1401.391	1319.404
724.977	18.738	1400.570	1318.547
725.992	18.735	1399.565	1317.422
727.006	18.741	1397.424	1315.295
728.021	18.827	1395.953	1314.414
729.035	18.743	1395.613	1313.295
730.050	18.907	1394.393	1313.248
731.065	18.803	1393.108	1311.079
732.079	18.736	1392.767	1310.090
733.094	18.767	1391.798	1309.257
734.108	18.944	1389.451	1308.251
735.123	18.768	1388.104	1305.479
736.138	18.631	1387.661	1303.859
737.152	18.618	1387.155	1303.132
738.167	18.856	1385.228	1302.975
739.181	18.831	1384.436	1301.887
740.196	18.822	1384.196	1301.433
741.211	18.634	1383.464	1299.162
742.225	18.671	1382.724	1298.592
743.240	18.728	1380.720	1296.984
744.254	18.871	1378.875	1296.182
745.269	18.616	1378.502	1293.746
746.284	18.695	1377.597	1293.338
747.298	18.619	1376.417	1291.501
748.313	18.430	1375.819	1289.354
749.327	18.484	1374.953	1288.800
750.342	18.590	1374.362	1288.891
751.356	18.532	1372.620	1286.661
752.371	18.741	1371.091	1286.655
753.386	18.633	1370.211	1284.862
754.400	18.659	1369.189	1283.943
755.415	18.890	1368.015	1284.423
756.429	18.769	1367.012	1282.417
757.444	18.694	1366.459	1281.186
758.459	18.714	1366.002	1280.755
759.473	18.798	1364.522	1279.838
760.488	18.828	1364.199	1279.607
761.502	18.899	1362.405	1278.303
762.517	18.742	1360.699	1275.375
763.532	18.903	1359.362	1275.171
764.546	18.750	1358.555	1273.120
765.561	18.745	1358.686	1273.055
766.575	18.763	1357.779	1272.187
767.590	18.773	1355.998	1270.439
768.605	18.751	1354.649	1268.863
769.619	18.880	1353.322	1268.423
770.634	18.822	1352.315	1266.902
771.648	18.814	1351.904	1266.306
772.663	18.809	1350.955	1265.224
773.678	18.961	1349.896	1265.203
774.692	18.834	1349.203	1263.468
775.707	18.892	1349.229	1263.772
776.721	18.738	1348.375	1261.682
777.736	18.831	1346.245	1260.220
778.751	18.854	1345.595	1259.630
779.765	18.871	1344.827	1258.887
780.780	18.826	1343.720	1257.369
781.794	18.781	1342.824	1256.052
782.809	18.562	1342.365	1253.864
783.824	18.574	1340.971	1252.498
784.838	18.710	1338.750	1251.271
785.853	18.475	1338.332	1249.007
786.867	18.541	1337.370	1248.443
787.882	18.540	1336.826	1247.780
788.897	18.601	1336.027	1247.327
789.911	18.484	1335.622	1245.945
790.926	18.753	1333.572	1245.846
791.940	18.711	1332.414	1244.311
792.955	18.651	1331.375	1242.755
793.969	18.842	1330.443	1243.127
794.984	18.592	1329.931	1240.682
795.999	18.830	1328.499	1240.921
797.013	18.767	1326.988	1238.904
798.028	18.861	1325.678	1238.217
799.042	18.718	1325.220	1236.604
800.057	18.984	1323.760	1237.021
801.072	18.933	1322.646	1235.464
802.086	18.805	1321.484	1233.302
803.101	18.835	1320.770	1232.708
804.115	18.929	1319.670	1232.208
805.130	18.918	1318.207	1230.614
806.145	18.871	1317.244	1229.234
807.159	18.902	1315.848	1228.005
808.174	19.013	1314.824	1227.698
809.188	18.754	1313.634	1224.588
810.203	18.857	1312.362	1223.986
811.218	18.766	1310.640	1221.589
812.232	18.877	1309.876	1221.523
813.247	18.652	1309.127	1219.067
814.261	18.679	1308.217	1218.271
815.276	18.818	1307.186	1218.155
816.291	18.909	1306.676	1218.180
817.305	19.059	1304.713	1217.275
818.320	18.956	1303.467	1215.230
819.334	18.791	1302.846	1213.333
820.349	19.003	1300.813	1212.798
821.364	18.942	1299.150	1210.673
822.378	18.864	1298.141	1209.034
823.393	18.913	1297.088	1208.258
824.407	18.821	1296.102	1206.543
825.422	18.864	1295.362	1206.017
826.437	18.590	1294.780	1203.397
827.451	18.874	1292.349	1202.994
828.466	18.541	1291.133	1199.376
829.480	18.498	1289.023	1196.970
830.495	18.420	1288.134	1195.451
831.509	18.648	1287.458	1196.281
832.524	18.778	1286.293	1195.968
833.539	18.679	1285.428	1194.329
834.553	18.853	1284.443	1194.484
835.568	18.799	1283.289	1192.891
836.582	18.832	1282.137	1191.907
837.597	18.861	1280.401	1190.350
838.612	18.964	1279.422	1190.015
839.626	18.816	1278.472	1187.961
840.641	18.998	1277.362	1188.055
841.655	18.874	1276.988	1186.698
842.670	19.081	1275.618	1186.721
843.685	18.959	1274.903	1185.067
844.699	18.854	1273.796	1183.169
845.714	18.974	1272.018	1182.207
846.728	18.892	1271.452	1180.975
847.743	18.882	1270.954	1180.297
848.758	19.058	1269.749	1180.250
849.772	18.737	1268.665	1176.890
850.787	18.955	1266.476	1176.217
851.801	18.943	1265.508	1175.100
852.816	18.878	1263.902	1173.022
853.831	18.853	1262.165	1171.100
854.845	18.816	1260.997	1169.619
855.860	18.793	1259.195	1167.655
856.874	18.657	1258.162	1165.625
857.889	18.652	1257.171	1164.532
858.904	18.672	1255.361	1162.851
859.918	18.703	1253.624	1161.319
860.933	18.546	1253.367	1159.874
861.947	18.561	1252.553	1159.082
862.962	18.869	1250.540	1159.171
863.977	18.704	1249.765	1157.194
864.991	18.860	1249.201	1157.593
866.006	18.883	1248.857	1157.288
867.020	18.925	1247.762	1156.420
868.035	18.763	1246.970	1154.449
869.049	18.870	1245.929	1154.070
870.064	18.958	1244.942	1153.611
871.079	18.877	1245.115	1153.088
872.093	18.872	1244.456	1152.309
873.108	18.962	1242.850	1151.284
874.122	18.941	1241.623	1149.869
875.137	18.803	1241.130	1148.351
876.152	18.874	1239.994	1147.641
877.166	19.039	1238.135	1146.887
878.181	19.047	1236.638	1145.419
879.195	19.055	1235.991	1144.731
880.210	18.971	1235.903	1143.951
881.225	19.016	1234.237	1142.578
882.239	19.170	1232.797	1142.129
883.254	19.183	1232.162	1141.492
884.268	19.086	1231.571	1140.163
885.283	19.026	1230.363	1138.510
886.298	19.008	1228.826	1136.831
887.312	18.990	1227.975	1135.789
888.327	19.238	1226.708	1136.126
889.341	19.013	1225.783	1133.639
890.356	18.821	1225.522	1131.991
891.371	18.942	1224.813	1132.002
892.385	18.917	1224.418	1131.335
893.400	18.787	1223.508	1129.501
894.414	18.866	1221.993	1128.487
895.429	18.896	1220.400	1127.081
896.444	18.522	1218.496	1122.726
897.458	18.558	1217.518	1121.926
898.473	18.848	1216.931	1123.155
899.487	18.681	1216.280	1121.324
900.502	18.854	1215.045	1121.186
901.517	18.967	1213.976	1120.811
902.531	18.976	1212.829	1119.672
903.546	19.111	1212.343	1119.975
904.560	19.009	1212.142	1118.988
905.575	19.114	1211.087	1118.563
906.589	19.097	1210.105	1117.414
907.604	19.273	1208.609	1117.047
