DTS Sentinel unit serial number:	SN409020Multiplexer serial number:	ORYXHardware model number:	OX4-SRSoftware version number:	ORYX F/W v3.00 Oryx Data Collector v3.7.2.0data status	okinstallation	HaddamTimeLapsedifferential loss correction	single-endedforward channel	channel 3reverse channel	N/Adate	2011/06/21time	22:06:17forward acquisition time	30.00reverse acquisition time	0.00gamma	498.7831k internal	0.1759k external	0.1759temperature offset calibration	1.0074default loss term (dB/km)	0.3790temperature slope calibration	1.3530multiplexer offset coefficient	1.0000multiplexer slope coefficient	1.0000fibre end	0.00T internal ref (°C)	24.78T ext. ref 1 (°C)	19.02T ext. ref 2 (°C)	0.04length (m)	temperature (°C)	Stokes	anti-Stokes-747.200	447.765	-0.105	-0.308
-746.185	219.728	-0.159	0.337
-745.171	41.135	-0.267	0.319
-744.156	48.298	-0.361	0.448
-743.142	71.838	-0.091	0.126
-742.127	4.024	-0.313	0.303
-741.112	49.326	-0.115	0.143
-740.098	-72.698	-0.393	0.191
-739.083	123.051	-0.132	-0.219
-738.069	-200.000	0.083	0.639
-737.054	-200.000	0.026	-0.521
-736.039	-116.728	-0.544	-0.131
-735.025	-159.038	-0.031	-0.002
-734.010	-108.050	0.263	-0.075
-732.996	-80.547	-0.265	-0.116
-731.981	188.026	0.178	-0.352
-730.966	-31.350	0.049	0.036
-729.952	-12.729	-0.132	0.113
-728.937	39.218	-0.404	-0.478
-727.923	46.607	0.045	0.055
-726.908	-100.109	0.335	0.110
-725.894	-136.714	-0.121	-0.018
-724.879	800.000	0.069	-0.293
-723.864	239.136	0.159	0.351
-722.850	-200.000	-0.021	-0.324
-721.835	-200.000	0.051	0.447
-720.821	-47.628	0.530	0.339
-719.806	-153.042	0.471	-0.043
-718.791	-79.620	-0.523	-0.232
-717.777	-200.000	-0.009	0.214
-716.762	-17.293	0.237	-0.197
-715.748	126.918	-0.117	-0.197
-714.733	139.593	-0.107	0.186
-713.718	51.568	-0.243	0.305
-712.704	24.180	-0.358	-0.390
-711.689	35.820	-0.108	0.126
-710.675	800.000	-0.051	-0.238
-709.660	-118.032	-0.661	0.155
-708.645	215.516	0.127	-0.268
-707.631	-27.520	0.229	-0.175
-706.616	-200.000	0.016	-0.208
-705.602	-95.960	0.128	-0.045
-704.587	-105.398	-0.379	-0.113
-703.572	161.842	0.243	-0.451
-702.558	-42.866	0.037	-0.025
-701.543	-49.399	-0.241	-0.151
-700.529	-200.000	0.017	-0.355
-699.514	800.000	-0.055	0.255
-698.499	-136.895	-0.531	-0.080
-697.485	-200.000	0.021	-0.150
-696.470	-200.000	-0.019	-0.373
-695.456	-73.402	-0.404	-0.194
-694.441	282.757	0.151	-0.359
-693.426	-31.991	-0.175	-0.129
-692.412	-72.390	-0.325	-0.158
-691.397	145.642	0.249	-0.441
-690.383	-141.547	-0.231	-0.030
-689.368	2.012	0.328	-0.312
-688.354	800.000	0.053	0.258
-687.339	-179.710	0.263	0.007
-686.324	127.033	0.091	0.152
-685.310	59.367	-0.234	0.304
-684.295	-200.000	0.018	-0.135
-683.281	-118.159	-0.110	-0.026
-682.266	509.305	-0.086	-0.266
-681.251	-200.000	0.045	-0.427
-680.237	-91.745	0.452	-0.169
-679.222	-136.641	-0.342	-0.052
-678.208	-13.361	0.220	0.188
-677.193	-74.326	-0.260	-0.123
-676.178	-55.163	-0.299	-0.177
-675.164	25.665	0.091	-0.100
-674.149	29.621	0.057	0.064
-673.135	-114.465	-0.103	0.026
-672.120	-200.000	-0.013	0.354
-671.105	-96.304	0.279	-0.097
-670.091	-200.000	0.007	0.088
-669.076	-111.626	0.121	-0.032
-668.062	74.591	0.083	0.115
-667.047	-95.380	-0.039	-0.014
-666.032	-142.559	-0.351	0.045
-665.018	-6.498	0.342	-0.307
-664.003	-169.587	0.402	0.019
-662.989	263.096	-0.208	-0.479
-661.974	76.189	-0.188	-0.263
-660.959	-47.977	-0.401	-0.255
-659.945	-54.694	-0.225	0.134
-658.930	211.679	-0.268	-0.557
-657.916	778.525	-0.121	-0.437
-656.901	296.869	-0.121	-0.294
-655.886	-200.000	-0.026	-0.253
-654.872	-13.763	-0.251	-0.213
-653.857	7.513	0.169	0.167
-652.843	800.000	0.148	-0.593
-651.828	111.087	0.101	-0.160
-650.814	-17.065	0.183	0.152
-649.799	-88.100	-0.169	-0.066
-648.784	363.033	-0.152	-0.405
-647.770	15.660	-0.105	0.109
-646.755	144.811	-0.127	-0.223
-645.741	800.000	-0.035	0.171
-644.726	-85.534	-0.259	-0.106
-643.711	-57.350	0.470	0.271
-642.697	-200.000	-0.048	0.308
-641.682	-99.475	-0.340	-0.112
-640.668	-121.327	0.505	0.110
-639.653	-117.595	-0.416	0.098
-638.638	44.881	0.130	0.157
-637.624	-93.639	0.841	0.304
-636.609	-134.867	0.411	0.065
-635.595	-82.149	-0.358	0.153
-634.580	-136.517	-0.549	-0.083
-633.565	-200.000	-0.045	0.424
-632.551	96.103	0.119	0.179
-631.536	40.160	-0.207	-0.246
-630.522	-44.723	0.019	-0.012
-629.507	-153.250	-0.386	-0.035
-628.492	45.803	0.321	0.391
-627.478	-200.000	-0.043	0.539
-626.463	656.786	0.003	-0.009
-625.449	10.597	-0.172	-0.172
-624.434	-31.769	-0.261	-0.192
-623.419	-117.946	-0.195	-0.046
-622.405	37.309	0.087	0.101
-621.390	5.947	0.282	0.274
-620.376	75.275	0.136	-0.189
-619.361	-56.684	0.444	0.258
-618.346	-200.000	-0.035	-0.213
-617.332	-200.000	-0.007	-0.174
-616.317	164.719	0.168	0.313
-615.303	685.570	0.243	0.838
-614.288	-19.039	0.418	0.342
-613.273	284.921	0.098	0.234
-612.259	283.072	-0.102	0.242
-611.244	-58.076	-0.297	0.170
-610.230	-127.348	0.438	-0.083
-609.215	-5.388	0.205	0.185
-608.201	-6.707	-0.245	0.220
-607.186	351.387	-0.096	0.252
-606.171	85.313	-0.073	0.106
-605.157	-200.000	-0.014	-0.636
-604.142	255.411	-0.089	0.202
-603.128	-57.445	0.145	0.083
-602.113	-200.000	0.002	0.255
-601.098	6.549	0.335	-0.327
-600.084	299.959	-0.196	-0.478
-599.069	-57.184	0.090	-0.052
-598.055	-119.562	-0.353	0.080
-597.040	-157.990	0.274	0.021
-596.025	84.024	0.221	-0.318
-595.011	-104.778	-0.345	-0.104
-593.996	-76.859	0.090	-0.041
-592.982	-105.476	-0.603	-0.179
-591.967	-88.713	0.212	0.082
-590.952	-48.064	-0.269	0.170
-589.938	127.679	-0.129	0.215
-588.923	436.844	0.175	-0.503
-587.909	-200.000	0.025	-0.355
-586.894	-200.000	0.004	-0.182
-585.879	-70.794	0.572	-0.282
-584.865	40.144	0.088	-0.104
-583.850	203.993	0.233	-0.475
-582.836	10.995	0.388	-0.390
-581.821	-200.000	0.008	-0.129
-580.806	215.981	-0.189	-0.395
-579.792	-124.837	-0.444	-0.089
-578.777	471.834	-0.169	0.503
-577.763	458.487	0.033	0.098
-576.748	-200.000	0.091	0.561
-575.733	559.179	-0.201	0.641
-574.719	328.218	-0.084	-0.212
-573.704	67.278	0.244	-0.327
-572.690	186.667	-0.348	-0.683
-571.675	-123.141	0.226	0.047
-570.661	138.716	-0.222	-0.384
-569.646	71.447	0.102	-0.139
-568.631	-111.362	0.131	0.035
-567.617	-22.147	0.374	0.298
-566.602	-200.000	0.009	0.523
-565.588	-107.572	0.311	0.089
-564.573	-66.614	0.232	0.120
-563.558	-16.568	-0.255	0.212
-562.544	-70.193	-0.344	0.171
-561.529	800.000	-0.018	0.085
-560.515	-200.000	0.015	0.419
-559.500	57.789	0.207	-0.266
-558.485	74.608	0.137	0.190
-557.471	197.337	0.050	0.100
-556.456	-41.926	-0.167	-0.112
-555.442	403.714	0.149	0.414
-554.427	557.418	-0.168	0.535
-553.412	142.747	0.163	0.284
-552.398	-62.133	0.256	-0.140
-551.383	-200.000	0.013	-0.269
-550.369	309.621	0.141	0.349
-549.354	-180.227	0.400	0.011
-548.339	58.204	-0.330	0.425
-547.325	-109.020	0.156	-0.043
-546.310	-200.000	-0.037	-0.345
-545.296	-23.448	-0.399	-0.314
-544.281	-130.901	0.305	-0.053
-543.266	260.231	0.130	-0.295
-542.252	-98.526	-0.067	-0.022
-541.237	-108.400	-0.289	0.081
-540.223	308.247	-0.143	-0.351
-539.208	-104.000	-0.313	0.095
-538.193	-143.313	0.082	0.010
-537.179	-40.715	0.203	0.137
-536.164	800.000	-0.037	-0.163
-535.150	-200.000	-0.023	0.272
-534.135	-6.352	-0.113	-0.101
-533.121	-182.183	0.159	-0.004
-532.106	800.000	0.070	-0.299
-531.091	207.944	0.137	0.281
-530.077	-69.683	0.196	0.098
-529.062	-200.000	-0.034	-0.263
-528.048	-154.798	0.752	0.064
-527.033	-55.319	0.091	0.054
-526.018	-37.543	0.255	-0.178
-525.004	-81.551	-0.215	-0.092
-523.989	-110.319	-0.304	0.082
-522.975	190.550	-0.082	0.161
-521.960	95.008	0.202	0.302
-520.945	-121.075	-0.303	0.066
-519.931	-53.084	-0.076	-0.046
-518.916	-14.069	-0.109	0.092
-517.902	-186.037	-0.516	0.010
-516.887	-149.471	0.257	-0.026
-515.872	-58.969	-0.053	0.030
-514.858	-123.764	0.170	-0.035
-513.843	15.926	-0.360	-0.372
-512.829	-115.390	-0.267	-0.065
-511.814	-9.006	-0.340	-0.298
-510.799	-3.919	-0.269	0.244
-509.785	-200.000	-0.034	0.224
-508.770	4.416	-0.186	-0.179
-507.756	800.000	-0.042	-0.217
-506.741	39.656	0.038	0.045
-505.726	-182.000	0.170	0.004
-504.712	-87.688	-0.433	0.170
-503.697	-131.361	0.266	-0.046
-502.683	389.869	0.098	-0.267
-501.668	800.000	-0.089	-0.400
-500.653	33.801	0.181	-0.207
-499.639	50.317	0.237	0.294
-498.624	27.492	0.259	0.285
-497.610	84.888	-0.144	0.207
-496.595	-103.505	-0.524	0.160
-495.581	-71.076	0.353	-0.173
-494.566	-200.000	-0.035	0.321
-493.551	-37.468	-0.224	0.156
-492.537	-200.000	0.014	0.240
-491.522	-127.357	-0.069	0.013
-490.508	37.299	-0.307	0.356
-489.493	-138.142	-0.239	-0.034
-488.478	52.625	-0.391	-0.490
-487.464	193.753	0.054	0.107
-486.449	-159.541	-0.407	-0.029
-485.435	9.780	0.059	-0.058
-484.420	-200.000	0.020	-0.275
-483.405	-62.026	0.337	0.184
-482.391	800.000	-0.034	0.192
-481.376	22.870	0.376	-0.403
-480.362	631.696	-0.136	-0.454
-479.347	189.434	0.160	-0.316
-478.332	-129.676	-0.264	0.047
-477.318	663.360	0.158	-0.537
-476.303	44.743	0.353	-0.425
-475.289	-97.895	0.342	-0.115
-474.274	-135.348	0.210	0.033
-473.259	69.455	0.080	0.108
-472.245	137.924	-0.164	-0.282
-471.230	-19.889	0.150	0.121
-470.216	-109.010	0.492	0.136
-469.201	-50.171	-0.608	-0.375
-468.186	10.211	-0.167	0.166
-467.172	-113.950	-0.307	0.077
-466.157	-13.702	-0.102	-0.087
-465.143	56.494	-0.127	0.162
-464.128	51.861	0.139	-0.173
-463.113	-28.726	0.192	-0.145
-462.099	-9.196	0.297	0.260
-461.084	-124.473	0.094	0.019
-460.070	-128.545	-0.259	0.048
-459.055	-103.314	-0.090	-0.028
-458.040	-79.485	-0.222	0.098
-457.026	-22.876	-0.228	0.179
-456.011	-27.540	0.366	-0.278
-454.997	800.000	0.100	0.391
-453.982	242.525	-0.070	-0.154
-452.968	-76.929	0.211	-0.096
-451.953	-12.648	-0.258	-0.219
-450.938	-104.568	0.300	-0.090
-449.924	12.940	0.213	0.215
-448.909	610.397	0.216	-0.709
-447.895	-10.641	-0.067	0.058
-446.880	8.967	-0.079	-0.078
-445.865	-200.000	0.001	-0.047
-444.851	-200.000	0.088	-0.578
-443.836	458.087	0.166	-0.486
-442.822	-133.250	0.316	-0.052
-441.807	-200.000	-0.017	0.324
-440.792	-16.871	0.331	-0.273
-439.778	-95.980	0.371	-0.128
-438.763	-200.000	0.041	0.513
-437.749	-200.000	0.035	-0.206
-436.734	-12.162	0.212	0.181
-435.719	-39.103	0.248	-0.170
-434.705	-14.605	-0.115	-0.097
-433.690	55.111	-0.145	-0.183
-432.676	-16.911	-0.230	0.190
-431.661	16.635	0.098	-0.101
-430.646	0.545	-0.107	0.100
-429.632	-133.372	0.318	0.052
-428.617	-48.542	-0.602	-0.377
-427.603	269.310	-0.100	0.230
-426.588	623.323	0.042	0.140
-425.573	-200.000	0.079	-0.594
-424.559	67.148	0.056	-0.074
-423.544	-27.494	-0.270	0.205
-422.530	-200.000	-0.028	-0.457
-421.515	-196.956	-0.432	0.004
-420.500	-151.144	0.539	-0.052
-419.486	175.972	-0.229	0.435
-418.471	-200.000	-0.029	0.276
-417.457	-102.772	0.154	0.048
-416.442	-116.800	-0.365	-0.087
-415.428	-200.000	-0.038	0.347
-414.413	-5.739	-0.264	-0.236
-413.398	160.574	0.248	-0.453
-412.384	-27.540	-0.113	-0.086
-411.369	-1.770	0.406	-0.373
-410.355	78.777	-0.333	-0.466
-409.340	800.000	-0.050	0.216
-408.325	-51.152	-0.260	0.159
-407.311	26.808	-0.052	0.057
-406.296	-200.000	-0.050	-0.357
-405.282	-54.088	0.255	-0.151
-404.267	-134.245	0.330	0.053
-403.252	234.613	-0.074	-0.160
-402.238	-200.000	0.005	-0.375
-401.223	-79.409	-0.048	-0.021
-400.209	-200.000	0.012	0.106
-399.194	-200.000	0.000	0.194
-398.179	800.000	-0.051	-0.216
-397.165	-96.677	0.377	0.129
-396.150	57.503	0.088	0.113
-395.136	-98.907	-0.208	0.068
-394.121	95.975	-0.073	0.109
-393.106	800.000	0.030	0.149
-392.092	-174.627	-0.230	-0.008
-391.077	-136.769	-0.585	-0.087
-390.063	-200.000	-0.018	-0.354
-389.048	94.787	0.130	0.194
-388.033	422.378	-0.089	-0.251
-387.019	-172.105	0.793	-0.033
-386.004	103.198	-0.310	-0.475
-384.990	-95.408	-0.354	-0.123
-383.975	-191.257	0.490	-0.006
-382.960	333.745	0.116	-0.294
-381.946	800.000	0.045	0.224
-380.931	-200.000	0.009	-0.346
-379.917	-131.593	0.253	0.043
-378.902	-200.000	0.009	0.256
-377.888	402.721	-0.067	0.184
-376.873	-49.294	0.511	-0.317
-375.858	152.261	0.018	-0.033
-374.844	-109.251	-0.373	-0.102
-373.829	-23.214	-0.335	-0.263
-372.815	-55.876	0.199	-0.116
-371.800	-15.875	0.120	-0.099
-370.785	101.047	0.250	-0.381
-369.771	-106.792	0.119	-0.034
-368.756	100.726	0.172	0.261
-367.742	-73.685	0.224	-0.106
-366.727	92.301	0.283	0.416
-365.712	800.000	0.055	0.307
-364.698	-117.433	-0.148	0.035
-363.683	-106.769	0.203	0.058
-362.669	-77.496	0.272	-0.122
-361.654	-200.000	0.002	-0.200
-360.639	183.661	-0.133	0.257
-359.625	397.785	0.162	0.444
-358.610	-136.883	0.560	-0.083
-357.596	32.231	0.342	-0.385
-356.581	-62.753	-0.344	0.185
-355.566	-17.148	-0.409	0.335
-354.552	687.573	-0.168	0.574
-353.537	-48.016	-0.206	0.129
-352.523	351.688	-0.218	-0.564
-351.508	-24.089	0.112	0.087
-350.493	800.000	-0.022	-0.107
-349.479	-117.226	0.316	0.074
-348.464	-112.579	0.367	-0.095
-347.450	-152.132	0.572	0.053
-346.435	249.420	0.243	0.538
-345.420	-200.000	0.007	-0.096
-344.406	-200.000	-0.033	0.261
-343.391	-86.904	0.555	0.220
-342.377	224.640	0.245	-0.518
-341.362	55.457	0.267	0.336
-340.348	-60.939	0.059	-0.032
-339.333	-173.110	0.269	0.011
-338.318	-28.832	-0.168	-0.125
-337.304	-17.393	-0.371	0.304
-336.289	800.000	0.115	0.524
-335.275	800.000	-0.034	-0.165
-334.260	-40.014	-0.543	0.367
-333.245	-104.657	-0.239	-0.071
-332.231	-6.738	0.194	0.172
-331.216	800.000	-0.017	0.070
-330.202	-200.000	0.043	-0.370
-329.187	-100.699	-0.506	-0.161
-328.172	265.205	0.235	-0.536
-327.158	44.806	-0.299	0.358
-326.143	-200.000	-0.024	-0.259
-325.129	800.000	-0.111	-0.412
-324.114	-52.905	0.129	0.077
-323.099	-96.376	0.143	0.049
-322.085	-108.940	-0.376	-0.104
-321.070	72.485	-0.121	-0.165
-320.056	-7.852	0.274	-0.241
-319.041	711.627	-0.032	-0.112
-318.026	42.827	0.143	0.169
-317.012	87.320	0.207	-0.298
-315.997	29.229	-0.031	0.034
-314.983	-126.994	-0.251	0.048
-313.968	81.342	0.294	-0.413
-312.953	22.109	0.158	0.167
-311.939	-89.623	-0.352	0.134
-310.924	-34.107	0.267	0.190
-309.910	-200.000	-0.024	0.487
-308.895	-33.795	0.175	-0.125
-307.880	-24.648	0.291	0.224
-306.866	-67.783	0.256	-0.129
-305.851	12.695	0.343	-0.344
-304.837	522.395	-0.065	-0.198
-303.822	-200.000	0.022	-0.291
-302.807	57.076	-0.375	0.476
-301.793	-58.230	0.418	0.236
-300.778	-133.381	0.390	0.063
-299.764	-200.000	0.036	-0.311
-298.749	800.000	0.079	0.396
-297.735	-114.923	-0.077	0.019
-296.720	-200.000	-0.015	-0.220
-295.705	-47.829	-0.496	-0.312
-294.691	1.329	0.248	-0.232
-293.676	90.992	0.197	0.287
-292.662	-62.519	-0.321	0.173
-291.647	275.699	-0.128	0.296
-290.632	-199.349	0.201	0.001
-289.618	-78.079	0.378	0.168
-288.603	118.945	-0.224	0.360
-287.589	-65.391	-0.062	-0.032
-286.574	2.425	-0.239	0.224
-285.559	479.550	-0.201	-0.594
-284.545	800.000	0.072	0.337
-283.530	-200.000	-0.001	0.091
-282.516	38.850	0.056	0.065
-281.501	800.000	0.081	-0.295
-280.486	-200.000	0.190	0.000
-279.472	-28.099	0.082	-0.061
-278.457	-200.000	0.062	-0.521
-277.443	-58.031	-0.483	0.273
-276.428	-25.624	-0.384	0.294
-275.413	-175.173	-0.169	-0.006
-274.399	-53.489	0.339	-0.201
-273.384	-102.308	-0.134	0.042
-272.370	22.929	-0.116	0.124
-271.355	-195.090	-0.107	-0.001
-270.340	-133.062	0.619	-0.101
-269.326	-148.915	0.436	-0.045
-268.311	-75.797	-0.128	-0.059
-267.297	134.430	-0.105	-0.178
-266.282	-74.285	-0.309	0.144
-265.267	800.000	0.059	0.259
-264.253	-175.537	0.194	-0.007
-263.238	-112.807	0.226	0.058
-262.224	-75.516	-0.321	-0.148
-261.209	-200.000	-0.005	0.225
-260.195	88.727	0.433	0.626
-259.180	14.602	0.153	-0.155
-258.165	-116.839	-0.418	0.099
-257.151	-88.785	-0.514	0.197
-256.136	162.169	-0.249	0.454
-255.122	-78.784	-0.379	-0.167
-254.107	-64.756	-0.595	0.312
-253.092	-46.028	-0.281	-0.179
-252.078	160.060	0.118	-0.214
-251.063	-53.652	-0.305	0.180
-250.049	-69.466	-0.263	-0.130
-249.034	-200.000	0.027	-0.270
-248.019	-167.355	-0.483	-0.025
-247.005	-5.767	0.188	0.167
-245.990	-66.461	0.288	-0.148
-244.976	436.603	0.038	-0.108
-243.961	114.632	-0.217	0.343
-242.946	-86.023	-0.176	0.070
-241.932	-112.015	0.311	-0.081
-240.917	-30.209	0.252	-0.185
-239.903	87.222	-0.107	0.154
-238.888	282.680	-0.115	0.268
-237.873	-85.869	0.447	0.179
-236.859	-64.875	-0.260	0.136
-235.844	-122.016	0.297	-0.063
-234.830	-124.804	-0.135	-0.027
-233.815	-42.199	-0.082	-0.054
-232.800	-67.951	-0.352	0.177
-231.786	-146.095	-0.056	0.006
-230.771	82.725	-0.144	-0.203
-229.757	-114.247	-0.208	0.052
-228.742	130.912	0.139	0.232
-227.727	196.997	-0.076	0.151
-226.713	-72.365	-0.391	0.187
-225.698	-200.000	-0.034	0.244
-224.684	-158.916	-0.322	-0.023
-223.669	32.565	-0.107	0.120
-222.655	-34.883	-0.176	0.124
-221.640	-135.937	0.262	0.040
-220.625	0.731	0.256	-0.237
-219.611	502.648	0.144	-0.433
-218.596	-161.338	-0.322	-0.021
-217.582	-200.000	-0.020	0.279
-216.567	-101.148	0.048	-0.015
-215.552	-200.000	-0.046	-0.638
-214.538	125.519	-0.266	-0.435
-213.523	27.666	0.210	-0.229
-212.509	-138.960	0.272	0.038
-211.494	-27.900	-0.258	0.193
-210.479	190.699	0.186	0.364
-209.465	-200.000	-0.126	0.719
-208.450	-107.344	-0.340	0.096
-207.436	-140.138	0.138	0.019
-206.421	-115.299	-0.539	0.131
-205.406	48.556	-0.102	-0.124
-204.392	-191.966	0.372	0.005
-203.377	-88.547	0.541	-0.208
-202.363	-57.302	-0.238	-0.135
-201.348	-157.808	-0.294	0.022
-200.333	-200.000	0.022	-0.383
-199.319	22.831	-0.128	-0.136
-198.304	148.664	-0.061	0.106
-197.290	-200.000	-0.042	-0.373
-196.275	-129.528	-0.137	0.024
-195.260	275.750	0.102	-0.235
-194.246	127.939	0.142	0.234
-193.231	-128.608	-0.455	-0.083
-192.217	21.660	-0.180	0.190
-191.202	34.038	-0.397	-0.448
-190.187	32.705	-0.027	0.030
-189.173	-200.000	-0.589	-0.002
-188.158	-200.000	0.002	-0.326
-187.144	255.217	0.207	0.461
-186.129	-118.659	-0.759	0.172
-185.114	-130.542	0.364	0.063
-184.100	-74.356	-0.480	0.223
-183.085	34.736	0.113	-0.128
-182.071	-72.153	0.239	0.114
-181.056	-46.279	0.424	0.269
-180.042	800.000	0.067	-0.268
-179.027	-82.415	0.710	0.297
-178.012	800.000	-0.025	0.126
-176.998	-147.140	0.162	0.018
-175.983	-120.100	0.262	-0.058
-174.969	799.740	0.074	0.266
-173.954	-30.488	-0.274	-0.200
-172.939	-28.709	0.052	-0.039
-171.925	-72.106	0.213	0.102
-170.910	-61.859	-0.511	-0.276
-169.896	-79.495	0.120	0.052
-168.881	-172.661	-0.083	0.003
-167.866	67.889	0.251	0.332
-166.852	-58.557	-0.391	0.218
-165.837	-4.622	-0.290	0.259
-164.823	274.173	-0.120	-0.276
-163.808	137.633	-0.039	0.066
-162.793	-88.136	-0.269	-0.104
-161.779	398.290	-0.062	-0.169
-160.764	64.337	-0.118	-0.154
-159.750	54.224	0.176	-0.220
-158.735	-27.612	-0.114	0.085
-157.720	-200.000	0.024	-0.145
-156.706	158.878	0.124	0.223
-155.691	323.663	0.154	0.381
-154.677	307.166	0.009	0.022
-153.662	-85.716	0.083	-0.033
-152.647	-200.000	-0.016	-0.146
-151.633	73.305	-0.079	-0.107
-150.618	105.546	0.432	0.661
-149.604	800.000	-0.052	-0.255
-148.589	-82.655	-0.366	0.152
-147.574	236.800	-0.055	-0.117
-146.560	-167.801	-0.357	-0.018
-145.545	54.270	0.056	0.069
-144.531	-90.725	0.239	0.088
-143.516	-75.569	0.271	-0.124
-142.502	-89.879	0.310	0.116
-141.487	277.059	0.081	-0.186
-140.472	800.000	0.068	0.312
-139.458	-200.000	0.056	0.330
-138.443	-25.616	-0.361	0.275
-137.429	163.101	0.071	0.129
-136.414	582.275	-0.010	-0.032
-135.399	-76.832	0.271	-0.122
-134.385	13.514	0.391	-0.392
-133.370	618.955	-0.025	-0.081
-132.356	-97.216	-0.281	-0.094
-131.341	800.000	-0.116	0.457
-130.326	-18.570	-0.238	-0.192
-129.312	-22.449	-0.163	0.127
-128.297	-26.838	-0.323	0.243
-127.283	27.929	0.533	-0.580
-126.268	39.296	-0.253	0.292
-125.253	-200.000	-0.027	0.355
-124.239	130.975	0.125	-0.207
-123.224	-156.956	-0.113	-0.009
-122.210	446.548	-0.286	0.815
-121.195	-200.000	0.055	-0.406
-120.180	-200.000	0.016	0.602
-119.166	-140.836	-0.240	-0.032
-118.151	-23.518	0.244	0.189
-117.137	97.181	-0.114	0.169
-116.122	-64.592	-0.169	0.088
-115.107	-100.947	0.151	0.048
-114.093	39.257	-0.175	0.202
-113.078	-172.612	-0.123	0.005
-112.064	128.543	0.262	0.432
-111.049	184.459	-0.284	0.544
-110.034	-68.561	-0.590	0.294
-109.020	-156.572	-0.342	-0.027
-108.005	-44.644	0.457	0.294
-106.991	-62.690	0.121	0.065
-105.976	800.000	0.088	0.386
-104.962	-109.948	-0.168	0.045
-103.947	-116.179	0.270	0.064
-102.932	-98.105	0.300	0.099
-101.918	74.752	-0.337	-0.458
-100.903	129.256	-0.234	0.387
-99.889	412.630	0.269	0.741
-98.874	-102.185	0.233	0.072
-97.859	55.888	0.104	0.130
-96.845	352.740	-0.141	-0.362
-95.830	183.922	-0.147	-0.282
-94.816	201.429	-0.171	-0.340
-93.801	-120.392	0.428	0.093
-92.786	-200.000	-0.000	-0.004
-91.772	28.630	0.129	0.141
-90.757	-90.337	0.268	-0.100
-89.743	193.782	-0.157	-0.307
-88.728	-200.000	-0.011	-0.333
-87.713	258.971	-0.138	-0.308
-86.699	-200.000	-0.044	0.359
-85.684	-179.476	-0.124	-0.003
-84.670	-56.730	-0.281	0.160
-83.655	-93.083	-0.105	-0.037
-82.640	-137.677	0.011	0.002
-81.626	800.000	-0.032	-0.182
-80.611	800.000	-0.091	-0.397
-79.597	180.281	0.084	-0.159
-78.582	186.082	0.231	0.444
-77.567	61.313	0.122	0.156
-76.553	-193.392	-0.019	-0.000
-75.538	2.663	0.318	-0.297
-74.524	356.466	0.092	-0.236
-73.509	-135.091	-0.564	-0.087
-72.494	-55.607	-0.174	-0.100
-71.480	800.000	-0.051	0.208
-70.465	-11.750	0.471	-0.398
-69.451	123.377	-0.265	-0.428
-68.436	-147.802	0.312	0.033
-67.422	47.630	0.441	-0.531
-66.407	-53.813	0.249	-0.146
-65.392	-134.444	-0.164	0.026
-64.378	-170.936	-0.218	-0.009
-63.363	87.184	-0.134	0.191
-62.349	71.691	0.192	0.258
-61.334	-0.070	-2.323	-2.128
-60.319	64.061	1.297	1.681
-59.305	353.294	-3.032	-7.782
-58.290	45.348	4.051	4.815
-57.276	397.682	3.786	10.244
-56.261	-200.000	21.390	312.015
-55.246	363.164	1294.009	3362.160
-54.232	52.978	2854.873	3519.367
-53.217	53.070	2670.836	3293.785
-52.203	34.783	2402.088	2705.116
-51.188	30.092	2069.755	2273.082
-50.173	26.608	1957.038	2108.514
-49.159	25.504	1945.522	2083.173
-48.144	25.134	1941.032	2073.977
-47.130	25.079	1938.417	2070.457
-46.115	25.117	1936.600	2068.885
-45.100	25.052	1935.120	2066.460
-44.086	25.026	1934.547	2065.470
-43.071	25.051	1932.495	2063.486
-42.057	25.075	1930.463	2061.507
-41.042	25.039	1929.245	2059.714
-40.027	24.934	1928.686	2057.821
-39.013	24.984	1926.256	2055.727
-37.998	25.047	1924.607	2054.605
-36.984	24.870	1924.505	2052.379
-35.969	24.868	1922.785	2050.435
-34.954	24.921	1921.259	2049.344
-33.940	24.938	1920.464	2048.610
-32.925	24.917	1918.783	2046.490
-31.911	24.994	1916.832	2045.209
-30.896	24.894	1915.616	2042.690
-29.881	24.953	1913.951	2041.508
-28.867	24.940	1913.153	2040.420
-27.852	24.889	1912.259	2038.802
-26.838	24.838	1911.169	2036.978
-25.823	24.846	1909.043	2034.719
-24.809	24.785	1908.247	2033.097
-23.794	24.776	1906.597	2031.157
-22.779	24.809	1905.055	2029.812
-21.765	24.793	1904.316	2028.757
-20.750	24.720	1903.145	2026.600
-19.736	24.697	1902.238	2025.288
-18.721	24.703	1900.615	2023.552
-17.706	24.618	1900.825	2022.725
-16.692	24.659	1898.273	2020.395
-15.677	24.593	1897.348	2018.582
-14.663	24.669	1895.255	2017.144
-13.648	24.791	1894.001	2017.112
-12.633	24.579	1894.180	2014.813
-11.619	24.757	1891.763	2014.177
-10.604	24.714	1889.905	2011.639
-9.590	24.555	1889.571	2009.403
-8.575	24.649	1887.896	2008.604
-7.560	24.597	1887.013	2006.998
-6.546	24.650	1885.342	2005.732
-5.531	24.763	1883.611	2005.093
-4.517	24.562	1884.033	2003.189
-3.502	24.663	1882.172	2002.271
-2.487	24.818	1880.462	2002.119
-1.473	24.652	1877.677	1997.205
-0.458	24.332	1858.460	1973.134
0.556	20.443	2003.425	2068.155
1.571	18.588	2208.740	2255.342
2.586	19.273	2248.770	2305.156
3.600	19.303	2250.801	2307.357
4.615	19.238	2251.110	2306.527
5.629	19.226	2248.218	2303.129
6.644	19.273	2245.880	2301.093
7.659	19.283	2244.266	2299.290
8.673	19.348	2241.630	2297.194
9.688	19.163	2250.724	2303.737
10.702	18.342	2330.423	2373.600
11.717	16.397	2395.105	2411.316
12.731	7.630	2374.151	2264.781
13.746	1.036	2355.772	2153.004
14.761	0.237	2352.734	2138.570
15.775	0.112	2350.637	2134.623
16.790	0.051	2348.373	2131.447
17.804	0.099	2347.554	2131.131
18.819	0.144	2346.544	2130.598
19.834	0.093	2345.040	2128.251
20.848	0.071	2343.906	2126.659
21.863	0.130	2341.262	2124.836
22.877	-0.011	2339.979	2121.414
23.892	0.102	2337.314	2120.355
24.907	0.020	2335.298	2117.105
25.921	0.084	2333.784	2116.391
26.936	0.028	2331.611	2113.375
27.950	0.059	2328.777	2110.991
28.965	0.090	2326.543	2109.141
29.980	0.115	2325.078	2107.920
30.994	0.160	2323.041	2106.453
32.009	3.728	2336.237	2168.570
33.023	13.276	2362.700	2328.590
34.038	17.353	2369.897	2393.188
35.053	17.382	2365.952	2389.317
36.067	17.240	2361.947	2382.991
37.082	16.920	2361.434	2377.679
38.096	17.330	2358.785	2380.499
39.111	17.592	2357.265	2382.354
40.126	17.788	2356.087	2383.640
41.140	17.991	2354.630	2384.728
42.155	17.871	2353.990	2382.112
43.169	17.876	2351.521	2379.402
44.184	17.640	2347.828	2372.069
45.199	17.663	2345.337	2369.595
46.213	17.718	2345.230	2369.977
47.228	17.823	2343.425	2369.324
48.242	17.909	2341.952	2368.756
49.257	18.051	2340.949	2369.434
50.271	18.098	2337.909	2366.728
51.286	17.710	2334.241	2357.343
52.301	17.415	2332.007	2350.711
53.315	18.264	2336.329	2366.586
54.330	21.675	2345.406	2423.001
55.344	23.734	2346.769	2452.731
56.359	24.047	2344.557	2454.467
57.374	24.055	2343.894	2453.596
58.388	24.281	2340.347	2452.710
59.403	23.847	2336.844	2442.748
60.417	23.489	2332.717	2433.217
61.432	23.656	2330.722	2433.146
62.447	23.688	2330.339	2432.891
63.461	24.008	2328.535	2435.118
64.476	24.042	2326.836	2433.516
65.490	23.716	2324.567	2426.372
66.505	22.876	2320.674	2410.500
67.520	20.462	2311.371	2367.531
68.534	18.036	2301.624	2324.129
69.549	17.531	2297.268	2312.565
70.563	17.420	2294.968	2308.452
71.578	17.367	2293.181	2305.658
72.593	17.366	2291.332	2303.518
73.607	17.512	2289.750	2303.627
74.622	17.605	2287.348	2302.199
75.636	17.530	2284.249	2297.785
76.651	17.435	2282.538	2294.509
77.666	17.300	2280.721	2290.575
78.680	17.253	2277.735	2286.663
79.695	17.035	2275.116	2280.824
80.709	16.895	2273.981	2277.517
81.724	16.920	2271.922	2275.530
82.739	17.078	2268.891	2274.339
83.753	17.031	2267.941	2272.488
84.768	16.907	2266.282	2268.885
85.782	16.951	2264.037	2266.951
86.797	16.994	2262.408	2265.630
87.812	16.922	2260.878	2262.863
88.826	17.099	2259.135	2263.214
89.841	17.294	2256.073	2262.491
90.855	17.272	2254.088	2259.936
91.870	17.416	2253.124	2260.620
92.884	17.374	2251.295	2257.957
93.899	17.413	2250.413	2257.319
94.914	18.142	2253.569	2269.947
95.928	20.887	2262.172	2315.045
96.943	21.824	2260.143	2325.190
97.957	19.096	2248.146	2276.350
98.972	17.218	2242.798	2245.739
99.987	17.297	2238.645	2242.359
101.001	17.188	2236.468	2238.466
102.016	17.271	2233.970	2236.798
103.030	17.101	2231.910	2232.218
104.045	17.082	2230.575	2230.377
105.060	17.152	2227.236	2227.688
106.074	17.210	2225.901	2226.852
107.089	17.212	2223.119	2223.832
108.103	17.153	2222.614	2222.281
109.118	17.192	2221.608	2221.514
110.133	17.403	2219.580	2222.000
111.147	17.158	2217.185	2216.121
112.162	17.041	2216.170	2213.302
113.176	17.189	2214.744	2213.562
114.191	17.415	2212.935	2214.440
115.206	17.282	2211.161	2210.666
116.220	17.205	2209.063	2207.294
117.235	17.322	2207.191	2206.692
118.249	17.399	2204.982	2205.213
119.264	17.314	2203.214	2202.078
120.279	17.223	2201.595	2199.012
121.293	17.345	2199.808	2198.553
122.308	17.233	2199.173	2196.203
123.322	17.090	2197.855	2192.759
124.337	17.534	2199.006	2199.406
125.352	20.703	2208.339	2249.726
126.366	21.487	2205.665	2256.902
127.381	18.497	2193.729	2205.813
128.395	17.225	2188.229	2183.589
129.410	17.150	2185.367	2179.506
130.424	17.141	2184.270	2178.035
131.439	17.108	2183.404	2176.494
132.454	17.176	2182.256	2175.961
133.468	17.421	2179.663	2176.258
134.483	17.635	2177.707	2176.802
135.497	17.723	2176.820	2176.783
136.512	17.533	2174.628	2171.892
137.527	17.421	2172.508	2168.075
138.541	17.212	2170.783	2163.422
139.556	17.197	2170.410	2162.601
140.570	17.274	2168.244	2161.175
141.585	17.024	2166.302	2155.783
142.600	17.066	2164.513	2154.274
143.614	16.993	2163.431	2152.021
144.629	16.961	2160.952	2148.882
145.643	16.862	2159.651	2146.074
146.658	16.996	2157.424	2145.306
147.673	16.876	2155.150	2141.270
148.687	17.024	2154.430	2142.167
149.702	17.210	2154.311	2144.163
150.716	17.240	2152.693	2142.663
151.731	17.280	2151.809	2142.041
152.746	17.317	2150.961	2141.405
153.760	18.138	2154.230	2154.809
154.775	21.104	2162.558	2200.532
155.789	22.221	2160.577	2212.394
156.804	19.337	2148.546	2163.484
157.819	17.333	2140.885	2130.298
158.833	17.214	2137.563	2125.247
159.848	17.247	2135.821	2123.671
160.862	17.329	2134.574	2123.206
161.877	17.374	2133.863	2122.811
162.892	17.435	2133.653	2123.115
163.906	17.515	2131.034	2121.250
164.921	17.505	2129.115	2118.972
165.935	17.427	2128.326	2116.954
166.950	17.457	2126.632	2115.387
167.964	17.383	2124.326	2111.918
168.979	17.131	2121.480	2105.692
169.994	16.979	2120.258	2102.335
171.008	16.886	2117.634	2098.326
172.023	16.993	2116.062	2097.849
173.037	17.118	2115.139	2098.230
174.052	17.233	2114.164	2098.443
175.067	17.262	2112.694	2097.092
176.081	17.024	2110.775	2091.991
177.096	17.103	2109.685	2091.640
178.110	17.123	2109.020	2090.978
179.125	17.304	2106.865	2090.822
180.140	17.320	2105.052	2088.972
181.154	17.300	2104.151	2087.582
182.169	17.446	2103.809	2088.791
183.183	18.450	2106.573	2103.687
184.198	21.653	2116.362	2152.846
185.213	22.300	2112.803	2156.947
186.227	19.033	2101.696	2105.235
187.242	17.647	2097.118	2083.376
188.256	17.348	2094.714	2077.062
189.271	17.203	2092.516	2072.858
190.286	17.116	2091.006	2070.046
191.300	17.219	2087.790	2067.881
192.315	17.120	2086.918	2065.562
193.329	17.377	2086.723	2068.252
194.344	17.792	2085.440	2071.801
195.359	17.763	2085.205	2070.970
196.373	17.422	2082.061	2063.446
197.388	17.340	2078.474	2058.639
198.402	17.166	2075.971	2053.810
199.417	17.107	2073.818	2050.718
200.432	17.058	2073.581	2049.634
201.446	17.179	2071.190	2048.495
202.461	16.994	2070.654	2045.475
203.475	16.964	2068.726	2042.962
204.490	16.947	2066.208	2040.030
205.504	17.101	2064.140	2039.601
206.519	17.346	2062.183	2040.384
207.534	17.218	2061.093	2037.516
208.548	17.323	2059.261	2036.718
209.563	17.272	2059.934	2036.534
210.577	17.399	2058.905	2036.801
211.592	17.500	2057.449	2036.329
212.607	19.004	2062.472	2059.162
213.621	22.344	2070.440	2107.148
214.636	21.888	2064.350	2095.228
215.650	18.507	2054.143	2044.156
216.665	17.562	2050.097	2028.580
217.680	17.556	2047.799	2025.986
218.694	17.410	2045.844	2022.070
219.709	17.281	2043.556	2018.030
220.723	17.300	2043.204	2017.663
221.738	17.306	2041.661	2015.976
222.753	17.539	2040.316	2017.177
223.767	17.553	2038.179	2014.994
224.782	17.467	2036.665	2012.228
225.796	17.363	2034.453	2008.573
226.811	17.290	2033.133	2006.156
227.826	17.267	2032.105	2004.633
228.840	17.269	2029.426	2001.771
229.855	17.082	2028.653	1998.562
230.869	17.131	2026.512	1996.789
231.884	17.001	2025.706	1994.214
232.899	17.169	2024.535	1994.811
233.913	17.173	2023.564	1993.657
234.928	17.234	2022.468	1993.058
235.942	17.261	2020.483	1991.192
236.957	17.282	2018.518	1989.264
237.972	17.270	2017.434	1987.807
238.986	17.068	2016.873	1984.642
240.001	17.198	2014.516	1983.621
241.015	17.395	2014.178	1985.351
242.030	18.369	2016.401	1998.747
243.045	21.333	2023.219	2040.086
244.059	21.591	2020.805	2040.441
245.074	18.854	2009.342	1996.700
246.088	17.639	2006.077	1979.033
247.103	17.849	2004.936	1980.125
248.117	17.782	2003.303	1977.492
249.132	17.595	2000.749	1972.557
250.147	17.579	1998.671	1970.085
251.161	17.479	1997.957	1967.985
252.176	17.609	1996.385	1967.715
253.190	17.836	1994.560	1968.309
254.205	17.901	1993.395	1967.673
255.220	18.010	1992.244	1967.572
256.234	17.933	1990.597	1964.820
257.249	17.478	1989.203	1957.942
258.263	17.255	1986.759	1952.727
259.278	17.313	1986.201	1952.619
260.293	17.178	1984.590	1949.241
261.307	17.065	1982.631	1945.787
262.322	17.201	1980.171	1944.702
263.336	17.097	1978.835	1941.962
264.351	17.067	1976.494	1939.089
265.366	16.981	1975.496	1936.883
266.380	17.141	1974.702	1937.710
267.395	17.123	1974.057	1936.642
268.409	17.036	1972.224	1933.609
269.424	17.261	1970.414	1934.180
270.439	17.305	1970.069	1934.113
271.453	18.470	1973.135	1950.222
272.468	21.666	1979.419	1992.817
273.482	21.821	1974.955	1989.844
274.497	18.670	1965.060	1943.827
275.512	17.394	1960.326	1924.412
276.526	17.131	1958.215	1919.116
277.541	17.281	1955.956	1918.384
278.555	16.976	1954.794	1913.555
279.570	17.009	1952.523	1911.471
280.585	17.090	1951.907	1911.558
281.599	17.155	1950.608	1910.788
282.614	17.543	1948.917	1913.285
283.628	17.877	1948.282	1916.209
284.643	18.036	1949.473	1918.945
285.657	18.248	1947.774	1919.433
286.672	18.266	1946.221	1917.873
287.687	17.921	1944.854	1912.415
288.701	17.829	1942.710	1909.043
289.716	17.790	1941.599	1907.286
290.730	18.009	1940.134	1908.073
291.745	18.719	1940.834	1916.501
292.760	19.002	1940.092	1918.717
293.774	18.281	1937.786	1908.135
294.789	17.970	1934.951	1901.626
295.803	17.864	1932.065	1897.380
296.818	17.790	1931.066	1895.351
297.833	17.830	1929.944	1894.461
298.847	17.716	1928.988	1892.026
299.862	17.681	1926.977	1889.442
300.876	18.427	1929.579	1900.080
301.891	21.743	1936.358	1943.554
302.906	22.158	1934.243	1945.824
303.920	19.006	1923.971	1900.309
304.935	17.881	1919.969	1883.662
305.949	17.811	1917.684	1880.412
306.964	17.724	1916.020	1877.594
307.979	17.736	1915.089	1876.599
308.993	18.065	1914.202	1879.131
310.008	18.417	1912.947	1881.561
311.022	18.494	1911.665	1880.924
312.037	18.228	1910.244	1876.374
313.052	18.811	1909.822	1882.154
314.066	19.257	1908.750	1885.782
315.081	18.746	1906.840	1878.049
316.095	18.560	1905.804	1874.768
317.110	18.381	1903.034	1869.854
318.125	17.922	1900.102	1861.712
319.139	17.757	1898.899	1858.511
320.154	17.796	1897.586	1857.424
321.168	17.822	1895.657	1855.603
322.183	17.546	1893.850	1850.597
323.197	17.316	1891.687	1845.751
324.212	17.032	1890.557	1841.328
325.227	16.986	1888.792	1838.893
326.241	17.044	1886.688	1837.250
327.256	17.066	1885.631	1836.243
328.270	17.110	1885.024	1835.909
329.285	17.124	1884.741	1835.568
330.300	18.160	1889.768	1851.521
331.314	21.768	1896.219	1896.947
332.329	21.926	1889.956	1892.164
333.343	18.496	1880.171	1845.093
334.358	17.129	1876.885	1826.874
335.373	16.970	1874.529	1822.642
336.387	16.873	1871.423	1818.360
337.402	16.718	1871.019	1816.083
338.416	16.796	1870.343	1816.043
339.431	17.156	1868.510	1817.925
340.446	17.242	1866.678	1816.850
341.460	17.596	1866.532	1820.290
342.475	17.890	1866.063	1822.769
343.489	18.065	1864.079	1822.488
344.504	17.980	1863.981	1821.270
345.519	18.175	1862.249	1821.450
346.533	18.511	1861.203	1823.800
347.548	19.003	1861.844	1829.470
348.562	19.158	1861.396	1830.467
349.577	18.991	1860.022	1827.111
350.592	18.751	1857.865	1822.214
351.606	18.542	1856.591	1818.519
352.621	18.716	1854.785	1818.390
353.635	18.296	1852.410	1811.378
354.650	18.082	1850.031	1806.555
355.665	17.952	1847.797	1802.785
356.679	17.772	1846.323	1799.221
357.694	17.741	1844.831	1797.221
358.708	17.618	1844.831	1795.702
359.723	18.893	1848.492	1812.572
360.738	22.209	1854.890	1853.835
361.752	21.784	1849.692	1843.931
362.767	18.640	1841.036	1801.948
363.781	17.845	1836.587	1789.003
364.796	17.787	1835.210	1786.832
365.810	17.618	1834.063	1783.724
366.825	17.703	1832.767	1783.147
367.840	17.739	1832.842	1783.383
368.854	17.967	1831.602	1784.351
369.869	18.357	1831.088	1787.733
370.883	18.537	1830.624	1788.957
371.898	18.658	1829.118	1788.540
372.913	18.655	1828.107	1787.306
373.927	18.716	1827.008	1786.655
374.942	18.870	1825.488	1786.561
375.956	18.660	1823.167	1781.890
376.971	18.141	1820.097	1773.268
377.986	17.818	1817.781	1767.435
379.000	17.697	1817.361	1765.557
380.015	17.810	1815.881	1765.080
381.029	17.369	1813.111	1757.598
382.044	17.144	1810.437	1752.463
383.059	16.924	1809.383	1748.947
384.073	16.953	1809.404	1749.061
385.088	17.018	1807.956	1748.128
386.102	17.049	1806.057	1746.401
387.117	16.952	1804.778	1743.956
388.132	17.075	1803.926	1744.192
389.146	18.247	1808.786	1760.810
390.161	21.838	1814.389	1803.233
391.175	21.638	1806.567	1793.192
392.190	18.428	1796.712	1750.289
393.205	17.478	1794.034	1737.727
394.219	17.273	1792.188	1733.623
395.234	17.211	1791.290	1731.918
396.248	17.239	1789.138	1729.910
397.263	17.120	1786.529	1725.966
398.278	17.123	1785.388	1724.692
399.292	17.252	1783.739	1724.209
400.307	17.207	1784.156	1723.944
401.321	17.339	1783.558	1724.507
402.336	17.823	1782.327	1728.040
403.350	17.921	1780.862	1727.410
404.365	18.167	1780.444	1729.292
405.380	18.495	1780.052	1732.039
406.394	18.550	1779.763	1732.106
407.409	18.428	1778.713	1729.638
408.423	18.689	1776.741	1730.162
409.438	18.911	1775.274	1730.776
410.453	18.778	1774.436	1728.399
411.467	18.537	1772.872	1724.236
412.482	18.163	1770.288	1717.739
413.496	17.878	1768.750	1713.168
414.511	17.880	1766.278	1710.590
415.526	17.730	1764.071	1706.737
416.540	17.674	1761.471	1703.452
417.555	17.578	1762.584	1703.359
418.569	17.731	1762.855	1704.958
419.584	17.857	1762.617	1705.796
420.599	17.719	1761.900	1703.503
421.613	17.599	1759.855	1700.119
422.628	17.623	1757.975	1698.340
423.642	17.495	1756.168	1695.111
424.657	17.491	1754.520	1693.280
425.672	17.622	1753.000	1692.920
426.686	17.695	1752.220	1692.695
427.701	17.616	1751.738	1691.231
428.715	17.979	1749.762	1692.745
429.730	17.973	1748.491	1691.254
430.745	18.012	1747.875	1690.840
431.759	17.921	1746.495	1688.398
432.774	18.235	1747.020	1691.825
433.788	18.813	1747.059	1697.401
434.803	18.920	1746.602	1697.813
435.818	18.946	1746.079	1697.366
436.832	18.830	1745.428	1695.377
437.847	18.015	1738.098	1680.002
438.861	9.920	1717.267	1580.323
439.876	1.822	1701.358	1486.330
440.890	0.382	1698.409	1469.479
441.905	0.241	1697.596	1467.218
442.920	0.422	1695.592	1467.080
443.934	0.337	1693.390	1464.167
444.949	0.214	1693.177	1462.610
445.963	0.101	1693.143	1461.294
446.978	0.082	1692.352	1460.258
447.993	0.035	1690.595	1458.107
449.007	0.142	1687.805	1456.572
450.022	0.081	1686.515	1454.683
451.036	0.155	1684.771	1453.728
452.051	1.046	1688.913	1465.789
453.066	8.758	1706.907	1556.812
454.080	17.058	1720.050	1650.029
455.095	19.271	1723.166	1674.455
456.109	19.958	1724.368	1682.132
457.124	20.343	1723.498	1684.839
458.139	20.497	1723.086	1685.737
459.153	20.551	1722.853	1685.839
460.168	20.734	1720.457	1685.067
461.182	20.630	1718.233	1681.677
462.197	20.454	1716.603	1678.172
463.212	20.267	1714.884	1674.479
464.226	20.272	1714.414	1673.872
465.241	20.475	1713.961	1675.189
466.255	20.780	1712.575	1676.587
467.270	20.690	1711.434	1674.403
468.285	20.427	1709.361	1669.632
469.299	20.224	1707.748	1665.893
470.314	20.367	1706.442	1665.807
471.328	20.452	1706.030	1666.017
472.343	20.489	1704.908	1665.084
473.358	20.704	1702.953	1665.040
474.372	20.664	1701.893	1663.425
475.387	20.414	1699.605	1658.588
476.401	20.209	1697.995	1654.849
477.416	20.220	1696.991	1653.782
478.430	20.345	1695.764	1653.584
479.445	20.125	1694.657	1650.200
480.460	20.103	1693.053	1648.230
481.474	20.250	1692.418	1648.818
482.489	20.574	1692.149	1651.455
483.503	20.849	1690.538	1652.311
484.518	20.943	1689.138	1651.634
485.533	20.818	1687.314	1648.463
486.547	20.659	1686.364	1645.832
487.562	20.919	1685.835	1647.590
488.576	21.025	1683.972	1646.573
489.591	20.895	1682.745	1643.949
490.606	20.681	1680.788	1639.805
491.620	20.944	1679.689	1641.031
492.635	21.045	1678.631	1640.756
493.649	21.172	1677.788	1640.934
494.664	20.701	1675.410	1633.963
495.679	20.219	1673.351	1627.219
496.693	20.363	1672.712	1627.763
497.708	20.591	1672.736	1629.741
498.722	21.038	1671.518	1632.566
499.737	21.053	1670.513	1631.524
500.752	20.788	1668.379	1626.758
501.766	20.754	1665.591	1623.524
502.781	20.835	1665.861	1624.358
503.795	20.927	1663.354	1622.575
504.810	20.939	1662.412	1621.581
505.825	21.204	1662.461	1623.903
506.839	21.029	1661.710	1621.347
507.854	21.059	1660.368	1620.117
508.868	21.035	1658.740	1618.116
509.883	21.195	1657.272	1617.977
510.898	21.306	1656.698	1618.258
511.912	21.089	1654.284	1613.692
512.927	20.890	1652.549	1609.955
513.941	20.798	1651.132	1607.527
514.956	20.515	1649.731	1603.346
515.971	20.668	1647.753	1602.648
516.985	20.821	1647.043	1603.186
518.000	20.981	1647.656	1605.070
519.014	21.233	1647.179	1606.743
520.029	21.459	1645.849	1607.344
521.043	21.325	1643.876	1603.985
522.058	21.187	1642.688	1601.360
523.073	21.321	1642.245	1601.977
524.087	21.819	1641.135	1605.283
525.102	21.564	1640.153	1601.784
526.116	20.986	1637.434	1593.630
527.131	21.003	1636.712	1592.893
528.146	21.448	1636.603	1596.678
529.160	21.425	1635.825	1595.521
530.175	21.662	1634.618	1596.326
531.189	21.670	1633.267	1594.887
532.204	21.732	1631.857	1593.885
533.219	21.221	1630.215	1587.419
534.233	20.908	1628.931	1583.120
535.248	21.293	1628.655	1586.179
536.262	21.673	1628.315	1589.130
537.277	21.630	1626.651	1586.923
538.292	21.383	1623.869	1581.772
539.306	21.243	1622.335	1578.811
540.321	21.306	1620.859	1577.756
541.335	21.068	1619.673	1574.262
542.350	21.216	1617.782	1573.571
543.365	21.547	1617.988	1576.582
544.379	21.732	1617.084	1577.186
545.394	21.754	1614.929	1575.098
546.408	21.322	1613.201	1569.322
547.423	20.961	1611.021	1563.763
548.438	20.857	1610.215	1561.853
549.452	21.165	1609.780	1564.018
550.467	21.372	1609.110	1565.046
551.481	21.434	1608.229	1564.559
552.496	21.717	1607.644	1566.343
553.511	21.996	1607.099	1568.127
554.525	21.937	1605.932	1566.272
555.540	21.998	1605.302	1566.022
556.554	22.093	1604.056	1565.466
557.569	22.059	1601.620	1562.598
558.583	21.675	1599.856	1557.258
559.598	21.701	1599.436	1556.899
560.613	21.621	1598.495	1555.082
561.627	21.779	1596.684	1554.540
562.642	21.912	1596.466	1555.326
563.656	22.258	1595.173	1556.957
564.671	22.187	1594.235	1555.228
565.686	22.108	1592.528	1552.672
566.700	21.814	1590.678	1548.078
567.715	21.505	1588.949	1543.465
568.729	21.517	1586.525	1541.034
569.744	21.178	1585.237	1536.599
570.759	21.240	1584.033	1535.804
571.773	21.419	1583.792	1536.959
572.788	21.641	1583.245	1538.206
573.802	21.855	1581.043	1537.768
574.817	22.081	1580.448	1539.000
575.832	22.433	1579.583	1541.073
576.846	22.303	1578.559	1538.740
577.861	22.007	1576.793	1534.238
578.875	22.182	1576.412	1535.219
579.890	22.565	1575.078	1537.096
580.905	22.425	1573.793	1534.431
581.919	22.316	1574.909	1534.377
582.934	22.480	1573.985	1534.730
583.948	22.508	1571.844	1532.704
584.963	22.391	1569.857	1529.561
585.978	22.110	1568.385	1525.495
586.992	22.182	1568.251	1525.810
588.007	22.432	1567.823	1527.388
589.021	21.794	1564.997	1518.900
590.036	21.305	1562.652	1512.186
591.051	21.592	1562.114	1513.986
592.065	21.987	1561.359	1516.500
593.080	22.359	1559.763	1517.994
594.094	22.328	1557.979	1515.806
595.109	21.704	1556.173	1508.475
596.123	21.525	1554.945	1505.550
597.138	21.928	1554.222	1508.156
598.153	22.431	1552.591	1510.736
599.167	22.290	1551.995	1508.755
600.182	22.267	1551.521	1507.916
601.196	22.457	1550.769	1508.638
602.211	22.243	1550.011	1505.881
603.226	22.680	1548.079	1507.579
604.240	22.767	1546.858	1506.959
605.255	22.984	1545.894	1507.697
606.269	22.867	1544.888	1505.532
607.284	22.713	1544.144	1503.307
608.299	22.615	1542.669	1500.859
609.313	22.321	1541.909	1497.418
610.328	22.556	1540.053	1497.450
611.342	22.554	1539.408	1496.626
612.357	22.852	1538.777	1498.374
613.372	22.929	1536.995	1497.119
614.386	22.691	1536.151	1494.089
615.401	22.690	1535.879	1493.638
616.415	22.732	1534.971	1492.928
617.430	22.954	1533.932	1493.626
618.445	23.169	1532.590	1493.969
619.459	22.868	1530.990	1489.673
620.474	22.484	1528.940	1484.251
621.488	21.763	1527.187	1476.270
622.503	21.430	1525.801	1471.940
623.518	22.082	1526.547	1477.993
624.532	22.706	1524.964	1481.560
625.547	22.926	1524.379	1482.670
626.561	23.153	1524.202	1484.235
627.576	23.328	1523.162	1484.520
628.591	22.636	1520.518	1475.938
629.605	22.189	1518.633	1470.174
630.620	22.074	1516.821	1467.281
631.634	21.697	1515.619	1462.781
632.649	21.953	1514.508	1463.677
633.663	22.322	1514.550	1466.638
634.678	22.747	1514.739	1470.206
635.693	23.224	1513.404	1472.722
636.707	23.236	1512.888	1472.143
637.722	23.531	1511.482	1473.061
638.736	23.642	1509.965	1472.337
639.751	23.552	1508.693	1470.170
640.766	23.315	1507.398	1466.760
641.780	23.229	1506.286	1464.788
642.795	23.136	1505.597	1463.169
643.809	23.207	1504.757	1462.769
644.824	23.200	1503.758	1461.559
645.839	23.201	1502.361	1460.034
646.853	23.168	1500.733	1458.003
647.868	23.116	1499.557	1456.254
648.882	23.000	1498.095	1453.708
649.897	23.067	1496.998	1453.019
650.912	23.072	1495.677	1451.602
651.926	23.034	1493.592	1449.098
652.941	22.742	1491.781	1444.759
653.955	22.277	1489.336	1438.396
654.970	21.709	1487.939	1432.214
655.985	21.788	1486.210	1431.025
656.999	21.854	1485.913	1431.111
658.014	22.310	1485.195	1433.982
659.028	22.653	1484.965	1436.403
660.043	22.660	1484.433	1435.770
661.058	22.970	1483.350	1437.082
662.072	23.103	1482.502	1437.176
663.087	23.086	1481.024	1435.437
664.101	22.957	1480.432	1433.633
665.116	23.237	1479.449	1434.797
666.131	23.352	1478.798	1434.926
667.145	23.255	1477.480	1432.686
668.160	23.351	1477.304	1433.123
669.174	23.886	1475.492	1435.536
670.189	23.751	1473.670	1432.505
671.204	23.241	1473.571	1428.097
672.218	23.196	1472.798	1426.812
673.233	23.459	1471.846	1427.850
674.247	23.678	1470.926	1428.555
675.262	23.893	1469.859	1429.085
676.276	23.879	1468.424	1427.410
677.291	23.550	1467.552	1423.734
678.306	23.366	1465.672	1420.260
679.320	23.433	1464.310	1419.312
680.335	23.710	1464.334	1421.391
681.349	23.745	1464.143	1421.314
682.364	23.693	1462.788	1419.411
683.379	23.738	1460.779	1417.659
684.393	23.681	1459.692	1415.977
685.408	23.636	1459.069	1414.841
686.422	23.625	1457.461	1413.020
687.437	23.610	1457.624	1412.894
688.452	23.806	1457.333	1414.012
689.466	23.819	1455.098	1411.772
690.481	23.581	1453.403	1408.063
691.495	23.272	1451.297	1403.397
692.510	22.459	1448.788	1394.332
693.525	22.153	1446.903	1389.917
694.539	22.492	1447.506	1393.031
695.554	23.209	1448.278	1399.303
696.568	23.828	1447.983	1403.765
697.583	24.052	1446.541	1403.973
698.598	23.896	1446.067	1402.109
699.612	24.156	1445.339	1403.299
700.627	24.046	1443.803	1400.768
701.641	23.961	1442.791	1398.946
702.656	23.891	1441.781	1397.244
703.671	24.194	1440.930	1398.648
704.685	24.187	1440.580	1398.084
705.700	24.083	1439.251	1395.804
706.714	23.696	1436.898	1390.312
707.729	23.666	1434.929	1388.007
708.744	23.541	1434.312	1386.260
709.758	23.313	1432.470	1382.523
710.773	22.747	1430.534	1376.056
711.787	22.697	1428.958	1373.984
712.802	22.989	1428.293	1375.465
713.816	23.338	1428.003	1377.751
714.831	23.657	1427.376	1379.471
715.846	23.901	1426.627	1380.487
716.860	23.997	1425.895	1380.362
717.875	23.873	1424.848	1378.220
718.889	23.919	1423.139	1376.761
719.904	24.030	1422.277	1376.623
720.919	24.037	1421.842	1376.091
721.933	24.183	1420.819	1376.071
722.948	24.196	1420.156	1375.364
723.962	24.174	1419.216	1374.116
724.977	24.290	1417.944	1373.618
725.992	24.409	1416.648	1373.118
727.006	24.246	1415.535	1370.614
728.021	24.319	1414.025	1369.558
729.035	24.459	1413.112	1369.585
730.050	24.327	1411.895	1367.224
731.065	24.307	1410.441	1365.497
732.079	24.413	1409.876	1365.608
733.094	24.271	1409.019	1363.516
734.108	24.150	1406.505	1359.998
735.123	24.367	1404.988	1360.033
736.138	24.214	1404.753	1358.468
737.152	24.195	1404.699	1358.108
738.167	24.450	1403.451	1358.688
739.181	24.391	1403.363	1357.989
740.196	24.443	1402.408	1357.300
741.211	24.415	1401.464	1356.008
742.225	24.235	1400.210	1353.260
743.240	24.330	1398.542	1352.211
744.254	24.318	1396.626	1350.104
745.269	24.514	1395.616	1350.458
746.284	24.197	1395.347	1347.630
747.298	23.918	1393.912	1343.958
748.313	23.539	1391.916	1339.000
749.327	23.005	1389.818	1332.778
750.342	22.653	1387.924	1328.131
751.356	22.281	1386.592	1323.885
752.371	22.550	1386.663	1325.830
753.386	23.575	1387.495	1334.222
754.400	24.248	1386.814	1338.483
755.415	24.505	1385.819	1339.307
756.429	24.583	1384.740	1338.689
757.444	24.538	1383.629	1337.118
758.459	24.544	1383.188	1336.571
759.473	24.615	1381.888	1335.696
760.488	24.783	1381.078	1336.014
761.502	24.600	1379.775	1333.219
762.517	24.567	1377.897	1330.999
763.532	24.332	1376.360	1327.591
764.546	23.910	1375.242	1323.199
765.561	23.287	1373.638	1316.844
766.575	22.661	1371.344	1309.813
767.590	22.710	1370.328	1309.053
768.605	23.408	1370.364	1314.137
769.619	23.741	1369.661	1315.783
770.634	24.063	1369.634	1317.999
771.648	24.531	1368.550	1320.275
772.663	24.667	1368.710	1321.280
773.678	24.751	1367.985	1321.048
774.692	24.567	1367.118	1318.687
775.707	24.696	1366.068	1318.475
776.721	24.760	1365.312	1318.056
777.736	24.742	1364.286	1316.776
778.751	24.732	1362.970	1315.278
779.765	24.663	1362.149	1313.815
780.780	24.696	1361.308	1313.096
781.794	24.565	1360.773	1311.452
782.809	24.536	1359.690	1310.041
783.824	24.503	1357.500	1307.531
784.838	23.866	1355.184	1300.458
785.853	23.025	1353.160	1292.188
786.867	23.303	1353.079	1293.996
787.882	23.671	1353.294	1296.744
788.897	23.921	1353.346	1298.480
789.911	24.230	1352.224	1299.510
790.926	24.440	1351.080	1299.790
791.940	24.539	1349.428	1298.773
792.955	24.638	1348.363	1298.310
793.969	24.642	1347.583	1297.433
794.984	24.686	1347.201	1297.235
795.999	24.753	1346.348	1296.744
797.013	25.023	1344.089	1296.378
798.028	24.963	1342.336	1294.095
799.042	24.938	1342.262	1293.687
800.057	24.921	1341.358	1292.539
801.072	24.954	1340.309	1291.617
802.086	24.807	1339.544	1289.657
803.101	25.045	1338.049	1289.785
804.115	24.936	1337.070	1287.902
805.130	24.939	1335.850	1286.589
806.145	24.904	1334.520	1284.906
807.159	24.827	1333.634	1283.342
808.174	24.586	1332.368	1280.234
809.188	24.495	1330.998	1278.107
810.203	24.345	1328.888	1274.855
811.218	23.867	1326.610	1269.085
812.232	23.367	1324.472	1263.304
813.247	23.252	1323.779	1261.674
814.261	23.848	1324.071	1266.070
815.276	24.329	1324.313	1269.591
816.291	24.703	1323.799	1271.620
817.305	24.847	1322.774	1271.513
818.320	24.962	1321.842	1271.285
819.334	24.745	1321.202	1268.970
820.349	24.888	1319.114	1267.829
821.364	25.044	1317.485	1267.220
822.378	24.941	1316.405	1265.302
823.393	25.110	1314.233	1264.256
824.407	24.935	1313.486	1262.145
825.422	24.976	1313.336	1262.141
826.437	24.853	1311.862	1259.706
827.451	24.421	1309.557	1254.292
828.466	23.727	1306.808	1246.614
829.480	23.301	1305.406	1242.126
830.495	23.810	1304.422	1244.625
831.509	24.254	1304.534	1247.704
832.524	24.637	1303.739	1249.490
833.539	24.881	1302.832	1250.183
834.553	24.852	1302.182	1249.207
835.568	25.096	1300.998	1249.631
836.582	25.147	1300.236	1249.106
837.597	25.146	1298.983	1247.743
838.612	25.112	1296.648	1245.115
839.626	24.787	1295.503	1241.602
840.641	24.448	1294.326	1237.960
841.655	24.082	1293.109	1234.100
842.670	23.563	1290.186	1227.556
843.685	22.830	1289.720	1221.868
844.699	23.567	1290.065	1227.172
845.714	24.413	1289.032	1231.917
846.728	24.575	1288.595	1232.476
847.743	24.682	1287.929	1232.430
848.758	24.953	1286.635	1232.919
849.772	25.073	1285.312	1232.337
850.787	24.990	1283.982	1230.340
851.801	25.112	1283.117	1230.206
852.816	24.993	1281.674	1227.853
853.831	25.016	1280.173	1226.425
854.845	24.941	1278.457	1224.121
855.860	24.612	1276.721	1220.053
856.874	24.560	1274.873	1217.785
857.889	24.234	1273.365	1213.967
858.904	23.684	1271.834	1208.604
859.918	23.309	1269.316	1203.502
860.933	22.885	1268.300	1199.503
861.947	23.370	1268.739	1203.085
862.962	24.083	1267.604	1206.724
863.977	24.134	1267.187	1206.534
864.991	24.354	1267.394	1208.080
866.006	24.494	1267.486	1208.978
867.020	24.832	1265.922	1209.637
868.035	24.938	1264.641	1208.989
869.049	25.032	1263.714	1208.595
870.064	25.232	1262.606	1208.748
871.079	25.101	1262.019	1207.150
872.093	24.986	1261.572	1205.805
873.108	24.966	1259.914	1203.940
874.122	24.599	1257.895	1199.391
875.137	23.888	1257.406	1193.982
876.152	23.823	1256.146	1192.203
877.166	24.153	1254.367	1192.591
878.181	24.563	1253.643	1194.519
879.195	24.752	1253.624	1195.629
880.210	24.867	1253.241	1195.889
881.225	24.905	1252.330	1195.138
882.239	24.956	1251.885	1194.909
883.254	24.996	1250.581	1193.792
884.268	25.035	1249.345	1192.725
885.283	24.972	1247.516	1190.420
886.298	25.004	1246.130	1189.164
887.312	24.939	1245.325	1187.826
888.327	25.072	1244.673	1187.946
889.341	24.907	1243.040	1185.150
890.356	24.723	1242.604	1183.363
891.371	24.792	1242.198	1183.298
892.385	24.698	1240.693	1181.097
893.400	24.696	1239.610	1179.913
894.414	24.544	1238.190	1177.413
895.429	24.110	1236.086	1172.400
896.444	23.187	1233.366	1163.581
897.458	22.562	1231.995	1158.019
898.473	23.273	1232.182	1162.750
899.487	23.864	1232.260	1166.584
900.502	24.445	1231.485	1169.541
901.517	24.592	1230.640	1169.567
902.531	24.799	1229.799	1169.986
903.546	24.967	1229.298	1170.474
904.560	24.933	1228.973	1169.799
905.575	24.962	1228.263	1169.175
906.589	24.887	1227.205	1167.539
907.604	24.879	1225.877	1166.085
