DTS Sentinel unit serial number:	SN409020Multiplexer serial number:	ORYXHardware model number:	OX4-SRSoftware version number:	ORYX F/W v3.00 Oryx Data Collector v3.7.2.0data status	okinstallation	HaddamTimeLapsedifferential loss correction	single-endedforward channel	channel 3reverse channel	N/Adate	2011/06/21time	17:26:17forward acquisition time	30.00reverse acquisition time	0.00gamma	498.7831k internal	0.1817k external	0.1817temperature offset calibration	1.0074default loss term (dB/km)	0.3790temperature slope calibration	1.3530multiplexer offset coefficient	1.0000multiplexer slope coefficient	1.0000fibre end	0.00T internal ref (°C)	33.91T ext. ref 1 (°C)	28.82T ext. ref 2 (°C)	0.26length (m)	temperature (°C)	Stokes	anti-Stokes-747.200	-200.000	-0.024	-0.611
-746.185	800.000	-0.066	0.316
-745.171	439.546	-0.133	0.373
-744.156	594.730	0.082	-0.260
-743.142	-200.000	0.007	0.274
-742.127	-105.347	0.380	-0.110
-741.112	-15.414	-0.190	-0.155
-740.098	262.637	0.274	0.610
-739.083	-200.000	-0.029	-0.200
-738.069	301.714	0.186	0.443
-737.054	-200.000	-0.004	0.205
-736.039	-60.611	-0.231	0.125
-735.025	76.531	-0.073	-0.100
-734.010	-100.885	-0.252	-0.079
-732.996	-33.481	0.099	-0.070
-731.981	-200.000	-0.011	-0.162
-730.966	-200.000	-0.014	0.119
-729.952	-129.086	0.249	0.044
-728.937	127.620	0.124	-0.201
-727.923	-200.000	-0.021	-0.514
-726.908	-118.837	-0.129	-0.029
-725.894	315.549	-0.186	0.451
-724.879	81.152	-0.451	-0.623
-723.864	53.387	0.176	-0.216
-722.850	280.499	0.258	0.592
-721.835	414.887	0.109	0.297
-720.821	-200.000	0.046	0.300
-719.806	320.447	-0.099	0.241
-718.791	313.030	0.088	0.213
-717.777	118.002	-0.043	0.068
-716.762	-106.168	0.356	0.102
-715.748	101.783	0.148	-0.221
-714.733	-110.480	0.237	-0.062
-713.718	3.409	-0.240	0.223
-712.704	800.000	-0.081	0.345
-711.689	-116.548	0.186	0.043
-710.675	-120.874	-0.568	-0.121
-709.660	800.000	-0.037	-0.168
-708.645	-147.961	0.317	-0.033
-707.631	80.868	0.383	0.529
-706.616	161.716	0.277	0.497
-705.602	-96.138	-0.171	-0.058
-704.587	-200.000	-0.043	-0.318
-703.572	-22.253	0.206	-0.160
-702.558	-57.006	0.271	-0.152
-701.543	-80.526	0.251	-0.106
-700.529	-20.392	0.035	-0.028
-699.514	49.918	0.185	-0.223
-698.499	800.000	0.063	0.301
-697.485	93.373	0.180	0.260
-696.470	297.190	0.173	-0.408
-695.456	59.233	0.266	0.335
-694.441	-200.000	0.004	-0.127
-693.426	-200.000	-0.002	0.216
-692.412	-7.308	0.033	-0.029
-691.397	4.998	0.086	-0.081
-690.383	-67.033	-0.305	0.153
-689.368	221.836	0.096	0.199
-688.354	426.478	0.023	-0.064
-687.339	-136.040	0.409	0.061
-686.324	800.000	0.006	0.028
-685.310	-143.444	-0.159	-0.019
-684.295	76.276	-0.096	-0.130
-683.281	116.010	-0.294	0.461
-682.266	-13.744	-0.107	0.089
-681.251	-111.998	0.224	-0.057
-680.237	800.000	-0.107	-0.450
-679.222	92.233	0.101	0.145
-678.208	-145.817	0.223	-0.025
-677.193	-32.500	0.125	-0.089
-676.178	76.858	0.207	-0.280
-675.164	800.000	0.026	-0.120
-674.149	-29.808	-0.070	0.051
-673.135	-200.000	0.004	0.027
-672.120	269.212	0.202	0.453
-671.105	-58.415	0.288	0.159
-670.091	-149.434	0.264	-0.026
-669.076	-13.460	0.383	0.317
-668.062	-170.863	-0.397	0.017
-667.047	-42.598	-0.339	0.220
-666.032	-200.000	-0.009	-0.134
-665.018	-164.493	-0.164	0.009
-664.003	537.250	0.170	0.519
-662.989	800.000	0.047	0.222
-661.974	-60.776	0.107	-0.058
-660.959	-72.928	-0.293	-0.137
-659.945	-200.000	0.020	-0.134
-658.930	-155.044	-0.210	-0.017
-657.916	-200.000	0.010	-0.223
-656.901	-91.308	-0.248	0.090
-655.886	51.405	0.045	-0.054
-654.872	73.048	-0.210	0.280
-653.857	-31.593	-0.199	0.143
-652.843	-188.627	-0.503	-0.008
-651.828	-98.553	-0.155	-0.050
-650.814	-200.000	-0.066	0.463
-649.799	-194.851	0.353	0.003
-648.784	-87.663	-0.673	0.258
-647.770	10.989	0.052	-0.050
-646.755	109.173	-0.228	0.349
-645.741	-25.084	-0.269	-0.203
-644.726	800.000	0.086	0.380
-643.711	-52.094	-0.166	-0.098
-642.697	-51.795	0.095	-0.056
-641.682	-200.000	-0.006	-0.264
-640.668	-120.416	0.619	0.133
-639.653	800.000	0.074	-0.398
-638.638	198.489	-0.064	-0.126
-637.624	-29.095	0.201	-0.146
-636.609	169.470	-0.108	-0.198
-635.595	-63.863	0.046	0.024
-634.580	484.796	-0.124	-0.362
-633.565	-37.471	0.194	0.131
-632.551	-55.694	-0.312	-0.177
-631.536	-200.000	0.016	-0.307
-630.522	109.380	-0.318	0.486
-629.507	-86.750	0.440	-0.171
-628.492	800.000	-0.028	0.150
-627.478	29.182	0.203	-0.220
-626.463	-55.328	0.600	-0.342
-625.449	-83.057	-0.322	0.132
-624.434	-92.233	0.304	0.109
-623.419	-200.000	0.047	-0.313
-622.405	-122.328	-0.132	0.027
-621.390	-200.000	-0.013	0.148
-620.376	-75.125	0.127	0.058
-619.361	-200.000	0.038	-0.298
-618.346	98.061	-0.056	-0.082
-617.332	-76.831	0.343	-0.152
-616.317	-17.949	-0.107	0.085
-615.303	-143.249	-0.571	0.069
-614.288	-127.066	-0.189	0.035
-613.273	-200.000	0.035	-0.209
-612.259	-8.085	0.342	0.293
-611.244	-200.000	0.060	-0.400
-610.230	76.422	-0.143	-0.194
-609.215	-145.581	-0.132	-0.015
-608.201	83.862	-0.087	-0.121
-607.186	-102.430	0.555	-0.168
-606.171	800.000	0.088	0.477
-605.157	87.879	0.165	0.234
-604.142	118.726	-0.199	0.314
-603.128	-119.182	-0.167	0.037
-602.113	-47.470	-0.538	-0.332
-601.098	-43.736	-0.445	-0.285
-600.084	-67.892	-0.335	-0.166
-599.069	17.187	-0.186	-0.188
-598.055	132.079	-0.143	0.234
-597.040	208.467	-0.050	-0.100
-596.025	-136.055	0.109	0.016
-595.011	-154.638	0.351	-0.029
-593.996	104.810	0.205	-0.308
-592.982	-126.803	0.505	0.094
-591.967	-85.437	0.089	0.035
-590.952	-14.182	-0.108	-0.088
-589.938	-82.982	-0.302	-0.123
-588.923	663.429	0.111	-0.366
-587.909	80.458	-0.231	-0.317
-586.894	34.394	-0.303	-0.336
-585.879	-200.000	0.058	-0.388
-584.865	-146.017	0.771	-0.086
-583.850	800.000	0.207	-0.764
-582.836	-106.364	0.207	-0.059
-581.821	-68.968	-0.291	-0.142
-580.806	-78.381	-0.285	-0.124
-579.792	10.611	-0.342	0.331
-578.777	-58.613	-0.112	0.062
-577.763	-169.423	0.283	0.013
-576.748	-138.449	-0.085	-0.012
-575.733	-54.231	-0.107	-0.062
-574.719	-83.596	-0.233	-0.094
-573.704	55.585	0.204	-0.251
-572.690	51.897	0.115	-0.140
-571.675	-41.728	-0.069	-0.045
-570.661	-96.997	-0.438	-0.145
-569.646	419.655	0.089	-0.243
-568.631	-149.815	-0.548	0.054
-567.617	-145.996	0.634	-0.071
-566.602	268.949	-0.219	0.490
-565.588	33.261	-0.116	0.127
-564.573	397.760	-0.048	-0.128
-563.558	-169.160	0.305	0.014
-562.544	161.747	-0.269	0.480
-561.529	-104.239	0.268	-0.079
-560.515	-170.168	-0.311	0.014
-559.500	-62.894	-0.090	0.047
-558.485	-82.426	-0.122	-0.050
-557.471	86.421	0.250	0.351
-556.456	-89.910	0.195	0.072
-555.442	-45.459	0.229	0.144
-554.427	145.576	0.069	0.118
-553.412	-200.000	0.013	-0.596
-552.398	-14.320	0.241	-0.197
-551.383	13.128	-0.409	-0.402
-550.369	4.718	0.024	0.022
-549.354	-113.272	-0.226	0.056
-548.339	-175.967	-0.434	-0.014
-547.325	-27.277	-0.408	-0.301
-546.310	-200.000	-0.024	-0.346
-545.296	23.745	-0.091	-0.096
-544.281	204.221	0.139	-0.275
-543.266	800.000	0.034	0.172
-542.252	-47.844	-0.268	0.165
-541.237	-79.069	0.213	0.091
-540.223	-74.683	0.320	-0.145
-539.208	-171.883	0.557	0.023
-538.193	-8.676	0.087	0.074
-537.179	95.860	0.118	0.171
-536.164	-74.783	0.195	0.089
-535.150	-70.890	0.651	-0.310
-534.135	582.374	0.087	-0.273
-533.121	-37.997	-0.022	-0.015
-532.106	-73.590	0.194	0.089
-531.091	-109.014	0.321	-0.086
-530.077	669.452	0.115	0.381
-529.062	114.451	0.189	0.293
-528.048	-82.083	-0.457	-0.189
-527.033	-200.000	-0.033	-0.210
-526.018	-102.541	0.130	0.039
-525.004	-35.168	0.386	0.266
-523.989	429.923	-0.011	-0.031
-522.975	11.544	0.240	0.234
-521.960	449.487	-0.107	-0.300
-520.945	-125.814	-0.364	0.069
-519.931	-48.978	0.359	-0.217
-518.916	142.641	-0.143	0.241
-517.902	-75.693	0.219	0.098
-516.887	-200.000	0.027	0.442
-515.872	423.878	0.076	0.209
-514.858	112.535	-0.167	0.258
-513.843	800.000	0.079	0.286
-512.829	800.000	0.041	0.171
-511.814	132.887	0.126	-0.207
-510.799	259.786	-0.210	-0.463
-509.785	-58.570	-0.212	0.116
-508.770	-160.808	-0.237	-0.016
-507.756	-179.264	0.288	-0.008
-506.741	-102.515	-0.603	-0.182
-505.726	164.865	0.105	-0.188
-504.712	800.000	0.071	-0.312
-503.697	529.637	-0.160	0.483
-502.683	218.659	-0.125	0.255
-501.668	-101.019	-0.830	-0.257
-500.653	-169.907	-0.154	0.007
-499.639	-10.110	0.143	-0.121
-498.624	13.799	-0.265	0.261
-497.610	179.865	-0.095	0.176
-496.595	51.228	-0.280	0.338
-495.581	114.208	-0.112	-0.174
-494.566	-94.901	0.137	-0.047
-493.551	-71.104	0.168	0.080
-492.537	148.843	-0.077	0.133
-491.522	-53.386	-0.233	-0.135
-490.508	41.285	-0.133	0.152
-489.493	146.423	-0.252	-0.430
-488.478	-90.032	-0.185	0.068
-487.464	252.136	0.080	-0.174
-486.449	-120.871	0.279	-0.059
-485.435	-92.902	-0.228	-0.080
-484.420	646.639	-0.081	0.265
-483.405	-51.613	-0.210	0.124
-482.391	-112.537	0.042	0.011
-481.376	-200.000	0.057	0.443
-480.362	-145.154	0.167	-0.019
-479.347	10.049	0.238	0.229
-478.332	-17.274	-0.100	0.079
-477.318	-174.258	0.176	0.006
-476.303	75.098	0.348	-0.465
-475.289	-160.407	-0.430	-0.029
-474.274	-34.052	0.461	-0.321
-473.259	-102.628	0.029	0.009
-472.245	-98.056	-0.448	-0.145
-471.230	-37.037	0.304	-0.206
-470.216	4.745	0.335	-0.312
-469.201	-200.000	0.102	0.572
-468.186	-148.687	-0.322	0.033
-467.172	-20.937	0.173	-0.134
-466.157	-134.120	0.034	-0.005
-465.143	-111.307	0.327	0.084
-464.128	-197.111	0.356	-0.003
-463.113	-200.000	-0.041	0.391
-462.099	-87.102	0.053	0.020
-461.084	800.000	0.082	-0.311
-460.070	-90.564	0.568	-0.207
-459.055	-134.374	0.497	0.076
-458.040	-200.000	0.024	-0.311
-457.026	77.926	-0.166	-0.225
-456.011	405.013	-0.251	-0.674
-454.997	-180.619	-0.305	-0.008
-453.982	-97.682	-0.111	0.036
-452.968	-92.935	0.350	0.123
-451.953	20.628	-0.085	0.087
-450.938	236.352	-0.014	0.029
-449.924	-200.000	-0.025	-0.317
-448.909	-172.732	-0.083	0.003
-447.895	135.521	0.129	-0.212
-446.880	47.560	-0.338	-0.399
-445.865	6.958	-0.155	-0.146
-444.851	179.718	0.222	-0.413
-443.836	55.138	0.044	0.054
-442.822	-157.578	0.240	0.018
-441.807	-1.870	0.210	-0.187
-440.792	-67.261	0.316	-0.157
-439.778	238.730	-0.150	-0.316
-438.763	-135.499	-0.527	0.079
-437.749	-42.487	-0.282	-0.181
-436.734	189.088	-0.048	-0.091
-435.719	23.226	0.341	0.354
-434.705	33.547	-0.218	0.239
-433.690	-119.251	-0.141	0.031
-432.676	263.436	0.105	0.232
-431.661	-36.756	0.427	-0.289
-430.646	800.000	0.054	-0.228
-429.632	-145.417	0.221	-0.025
-428.617	-154.791	0.157	0.013
-427.603	55.188	0.150	0.183
-426.588	-116.750	-0.222	-0.051
-425.573	23.961	0.064	-0.067
-424.559	-146.875	-0.077	-0.008
-423.544	114.690	-0.283	0.436
-422.530	-19.465	0.213	-0.166
-421.515	-109.703	0.241	0.064
-420.500	-103.499	-0.134	0.039
-419.486	-200.000	-0.061	0.392
-418.471	497.060	0.116	-0.338
-417.457	-150.649	-0.367	-0.035
-416.442	-13.356	0.336	0.276
-415.428	-102.685	0.595	0.178
-414.413	225.009	-0.065	0.133
-413.398	-7.015	-0.065	-0.056
-412.384	-39.369	0.234	0.155
-411.369	-123.589	0.416	-0.083
-410.355	800.000	-0.039	0.182
-409.340	-16.301	-0.136	-0.109
-408.325	-200.000	-0.013	-0.204
-407.311	-183.245	-0.097	0.002
-406.296	-185.604	0.363	-0.007
-405.282	-200.000	-0.006	0.043
-404.267	16.582	-0.085	0.085
-403.252	-101.911	-0.115	-0.035
-402.238	-167.207	-0.079	-0.004
-401.223	176.029	-0.238	-0.438
-400.209	800.000	-0.121	0.620
-399.194	-154.406	0.242	0.020
-398.179	126.859	0.122	0.196
-397.165	162.357	-0.062	-0.109
-396.150	-104.716	0.101	-0.029
-395.136	800.000	-0.051	0.275
-394.121	-129.591	0.539	-0.093
-393.106	-142.087	0.277	0.034
-392.092	280.262	-0.149	-0.338
-391.077	-176.630	0.073	-0.002
-390.063	-121.767	-0.163	-0.034
-389.048	-141.392	-0.310	-0.039
-388.033	-39.745	-0.309	-0.204
-387.019	-200.000	-0.019	-0.160
-386.004	83.927	-0.107	-0.148
-384.990	-80.506	0.276	0.116
-383.975	6.113	-0.287	0.268
-382.960	198.906	0.177	0.343
-381.946	800.000	-0.121	-0.428
-380.931	-45.849	0.416	-0.258
-379.917	-7.265	0.168	-0.143
-378.902	-200.000	-0.002	-0.883
-377.888	748.834	0.118	-0.402
-376.873	-76.851	-0.168	0.074
-375.858	-139.885	0.290	0.038
-374.844	-198.331	0.113	0.001
-373.829	-21.077	-0.052	-0.040
-372.815	-94.787	-0.293	0.100
-371.800	-129.053	0.686	-0.120
-370.785	-145.154	0.205	-0.023
-369.771	21.393	-0.265	-0.272
-368.756	188.537	-0.222	-0.421
-367.742	-200.000	-0.017	0.268
-366.727	340.100	0.182	-0.450
-365.712	-9.623	-0.093	0.078
-364.698	-52.246	0.204	-0.119
-363.683	-33.244	-0.245	-0.171
-362.669	-82.873	0.127	0.051
-361.654	-50.067	-0.264	0.158
-360.639	-119.681	-0.213	0.046
-359.625	145.109	0.192	0.325
-358.610	-93.325	0.583	0.203
-357.596	-99.551	0.183	0.058
-356.581	98.504	-0.120	-0.175
-355.566	475.450	0.039	-0.112
-354.552	-106.578	0.399	-0.111
-353.537	800.000	-0.084	0.458
-352.523	-26.913	-0.079	0.058
-351.508	166.450	-0.271	0.486
-350.493	42.822	-0.327	0.376
-349.479	66.861	-0.144	-0.186
-348.464	219.277	-0.151	-0.305
-347.450	-104.710	-0.583	0.168
-346.435	-103.704	-0.168	-0.049
-345.420	-84.147	0.706	-0.281
-344.406	800.000	-0.089	0.324
-343.391	-200.000	-0.011	0.300
-342.377	1.459	0.321	0.291
-341.362	-103.012	0.314	-0.093
-340.348	-33.544	0.491	0.341
-339.333	121.505	-0.186	0.293
-338.318	-157.250	-0.269	-0.020
-337.304	-200.000	-0.015	-0.186
-336.289	183.905	-0.022	-0.042
-335.275	-111.486	0.506	-0.129
-334.260	-108.418	-0.196	-0.053
-333.245	-56.636	-0.537	0.298
-332.231	6.606	-0.089	-0.083
-331.216	-152.731	-0.184	0.016
-330.202	800.000	0.044	0.179
-329.187	291.926	-0.094	0.216
-328.172	50.996	0.389	0.465
-327.158	800.000	0.075	-0.344
-326.143	-81.517	0.641	-0.264
-325.129	130.310	-0.137	-0.222
-324.114	38.053	0.102	-0.114
-323.099	-174.289	0.187	0.007
-322.085	-121.643	0.056	0.012
-321.070	89.966	-0.148	-0.208
-320.056	-92.290	-0.238	-0.084
-319.041	112.181	-0.134	0.204
-318.026	-142.756	0.424	-0.051
-317.012	-9.525	-0.352	0.295
-315.997	-171.225	-0.304	0.013
-314.983	-132.194	0.362	0.059
-313.968	-42.613	0.343	-0.219
-312.953	-118.979	-0.212	-0.046
-311.939	-200.000	0.020	-0.233
-310.924	5.131	0.237	0.220
-309.910	-144.773	0.199	0.023
-308.895	800.000	-0.014	-0.058
-307.880	247.132	-0.075	0.159
-306.866	509.696	-0.146	0.429
-305.851	800.000	0.068	0.280
-304.837	-2.335	-0.463	0.409
-303.822	-200.000	0.007	-0.044
-302.807	86.624	-0.106	-0.147
-301.793	-200.000	0.030	-0.205
-300.778	-170.712	-0.375	-0.016
-299.764	-42.548	-0.172	-0.110
-298.749	-76.174	-0.658	0.291
-297.735	800.000	-0.090	0.339
-296.720	295.404	0.156	0.361
-295.705	-6.062	0.211	-0.181
-294.691	-19.489	0.295	0.230
-293.676	-80.052	0.163	-0.068
-292.662	-131.295	-0.032	-0.005
-291.647	-80.295	-0.229	-0.096
-290.632	-168.424	-0.460	0.022
-289.618	-48.693	-0.257	-0.155
-288.603	800.000	0.095	-0.379
-287.589	-104.864	-0.145	0.042
-286.574	239.447	0.133	0.279
-285.559	-21.470	0.075	-0.057
-284.545	84.555	0.197	-0.271
-283.530	-200.000	-0.014	0.189
-282.516	53.843	-0.209	0.253
-281.501	427.654	-0.198	0.541
-280.486	800.000	-0.057	0.309
-279.472	-76.253	-0.095	0.042
-278.457	-33.797	0.489	0.338
-277.443	-200.000	0.013	0.586
-276.428	-171.814	-0.087	-0.004
-275.413	458.155	-0.100	0.281
-274.399	220.897	0.202	-0.410
-273.384	607.033	-0.056	0.176
-272.370	192.461	-0.031	0.060
-271.355	-74.860	-0.122	0.055
-270.340	123.656	-0.369	-0.583
-269.326	244.384	-0.154	0.327
-268.311	-21.366	-0.346	-0.265
-267.297	542.052	-0.119	0.357
-266.282	-157.126	0.553	-0.042
-265.267	402.549	-0.058	-0.155
-264.253	-200.000	0.004	0.258
-263.238	-73.461	0.650	-0.297
-262.224	125.099	0.087	-0.138
-261.209	-160.786	-0.410	-0.027
-260.195	533.931	-0.134	0.402
-259.180	717.229	0.127	0.427
-258.165	-200.000	-0.071	0.535
-257.151	1.013	0.141	-0.127
-256.136	-197.698	0.302	0.002
-255.122	229.088	0.117	0.240
-254.107	-151.921	0.301	0.027
-253.092	-93.074	-0.167	0.058
-252.078	-159.748	0.340	0.023
-251.063	-40.835	0.470	0.305
-250.049	-176.870	-0.225	0.007
-249.034	-123.630	-0.386	-0.076
-248.019	-153.403	-0.410	-0.035
-247.005	650.249	0.147	-0.476
-245.990	-200.000	0.045	-0.427
-244.976	-111.902	-0.303	-0.076
-243.961	-113.843	0.199	-0.048
-242.946	67.268	-0.078	-0.100
-241.932	190.216	0.164	0.311
-240.917	-200.000	-0.022	0.253
-239.903	-48.721	-0.540	0.324
-238.888	-96.265	0.166	0.055
-237.873	-144.203	0.596	-0.069
-236.859	183.041	-0.176	-0.326
-235.844	248.229	-0.182	0.388
-234.830	-54.357	-0.231	-0.131
-233.815	129.820	0.187	0.301
-232.800	-140.979	-0.527	0.067
-231.786	-163.935	-0.195	-0.011
-230.771	-106.969	-0.340	0.094
-229.757	-115.448	-0.209	-0.049
-228.742	25.127	0.160	0.167
-227.727	-138.645	-0.274	-0.037
-226.713	-74.750	-0.394	-0.177
-225.698	800.000	-0.169	0.631
-224.684	-104.194	-0.455	0.132
-223.669	8.112	-0.601	0.566
-222.655	107.448	-0.158	0.236
-221.640	-41.134	0.227	-0.146
-220.625	-159.104	0.582	-0.041
-219.611	-69.948	-0.059	0.028
-218.596	-116.433	-0.350	-0.080
-217.582	188.594	0.120	0.226
-216.567	38.722	0.426	0.476
-215.552	486.123	-0.170	-0.487
-214.538	-200.000	-0.011	-0.218
-213.523	192.267	0.142	0.269
-212.509	-51.934	0.326	0.190
-211.494	-101.759	0.302	-0.091
-210.479	-83.151	-0.288	0.115
-209.465	82.564	0.206	0.281
-208.450	-183.506	-0.195	-0.004
-207.436	418.601	0.126	-0.341
-206.421	800.000	0.074	-0.288
-205.406	800.000	-0.105	-0.511
-204.392	281.050	0.140	0.314
-203.377	732.359	0.188	-0.633
-202.363	-123.881	-0.289	0.057
-201.348	205.546	-0.084	0.164
-200.333	-127.146	-0.173	0.031
-199.319	1.999	0.324	-0.293
-198.304	300.962	-0.105	0.244
-197.290	800.000	0.024	0.115
-196.275	-30.595	0.063	0.044
-195.260	-200.000	-0.008	0.190
-194.246	795.507	-0.032	-0.112
-193.231	105.008	-0.113	0.167
-192.217	-94.682	0.438	-0.148
-191.202	217.560	-0.204	0.408
-190.187	-200.000	0.045	-0.261
-189.173	-60.332	-0.171	-0.091
-188.158	-172.658	0.383	0.015
-187.144	-192.439	0.139	0.002
-186.129	62.274	-0.289	0.361
-185.114	-62.050	0.322	0.168
-184.100	-31.280	-0.051	-0.036
-183.085	-4.834	0.128	0.110
-182.071	-28.045	-0.495	-0.358
-181.056	209.254	-0.116	0.229
-180.042	116.037	0.392	-0.602
-179.027	-27.422	0.219	0.159
-178.012	398.426	-0.135	-0.355
-176.998	-97.896	-0.172	0.055
-175.983	480.655	-0.084	0.239
-174.969	232.249	0.191	-0.395
-173.954	800.000	-0.029	0.146
-172.939	-43.388	-0.218	0.138
-171.925	-83.254	0.300	0.120
-170.910	-200.000	0.008	-0.299
-169.896	-200.000	-0.023	-0.345
-168.881	40.434	0.101	0.114
-167.866	-41.847	-0.418	0.268
-166.852	-66.936	0.427	0.210
-165.837	-114.733	-0.153	0.036
-164.823	188.097	-0.153	0.287
-163.808	45.071	0.246	0.284
-162.793	-71.744	-0.507	-0.236
-161.779	-200.000	-0.019	0.326
-160.764	83.527	-0.208	-0.285
-159.750	34.355	-0.339	0.370
-158.735	-200.000	0.040	0.588
-157.720	-200.000	-0.013	-0.210
-156.706	-78.192	0.211	-0.090
-155.691	-43.278	0.149	-0.094
-154.677	-99.490	0.557	-0.174
-153.662	29.557	-0.283	0.302
-152.647	-161.693	-0.320	-0.020
-151.633	-78.378	-0.422	0.180
-150.618	-8.317	-0.089	-0.075
-149.604	-121.525	0.636	-0.131
-148.589	800.000	-0.030	-0.133
-147.574	-145.667	-0.372	0.041
-146.560	20.436	-0.261	0.264
-145.545	21.025	-0.252	-0.255
-144.531	-200.000	-0.038	-0.247
-143.516	-200.000	-0.010	0.257
-142.502	-200.000	0.049	-0.343
-141.487	-9.788	0.201	-0.167
-140.472	69.659	-0.043	0.056
-139.458	-73.632	0.489	0.222
-138.443	800.000	0.062	0.227
-137.429	-200.000	0.048	-0.364
-136.414	17.089	0.263	0.260
-135.399	-200.000	-0.034	0.248
-134.385	408.314	0.036	-0.096
-133.370	-10.709	0.060	0.050
-132.356	-104.520	-0.054	0.015
-131.341	-200.000	0.034	-0.557
-130.326	-7.967	0.175	-0.148
-129.312	-200.000	0.074	-0.465
-128.297	-200.000	-0.060	-0.409
-127.283	140.160	0.100	-0.165
-126.268	-200.000	0.001	-0.433
-125.253	-200.000	0.047	-0.317
-124.239	171.475	-0.068	0.123
-123.224	-156.780	-0.395	-0.030
-122.210	-54.608	0.422	-0.238
-121.195	87.868	0.428	-0.593
-120.180	-17.257	-0.238	-0.187
-119.166	-28.014	-0.189	-0.136
-118.151	-86.321	-0.572	0.219
-117.137	68.353	0.207	0.265
-116.122	-36.258	0.081	0.054
-115.107	-120.002	0.508	-0.108
-114.093	541.743	-0.012	-0.036
-113.078	-200.000	0.011	0.217
-112.064	168.354	0.072	-0.128
-111.049	-200.000	0.027	0.318
-110.034	-74.159	0.129	0.058
-109.020	-6.217	-0.215	0.183
-108.005	180.635	-0.123	0.226
-106.991	61.217	0.143	-0.177
-105.976	-4.219	-0.204	0.176
-104.962	-98.006	-0.286	-0.091
-103.947	-179.249	-0.506	0.014
-102.932	800.000	-0.132	-0.558
-101.918	-97.705	-0.629	0.202
-100.903	-200.000	0.001	-0.204
-99.889	229.439	-0.053	0.108
-98.874	104.382	0.195	-0.287
-97.859	9.345	0.150	-0.141
-96.845	48.689	0.510	-0.597
-95.830	-200.000	0.015	-0.273
-94.816	-2.669	0.276	0.241
-93.801	-29.067	0.049	0.035
-92.786	-70.596	0.030	0.014
-91.772	126.415	-0.085	0.135
-90.757	648.857	0.052	-0.167
-89.743	-11.016	0.137	0.113
-88.728	-200.000	0.045	-0.549
-87.713	-56.926	-0.146	-0.080
-86.699	-43.573	0.282	-0.177
-85.684	8.121	0.417	0.390
-84.670	133.399	0.101	-0.164
-83.655	800.000	0.031	-0.126
-82.640	-200.000	-0.042	-0.322
-81.626	-12.568	-0.470	0.382
-80.611	-62.934	0.255	0.131
-79.597	180.801	0.096	0.177
-78.582	77.902	-0.171	0.227
-77.567	-200.000	-0.006	0.236
-76.553	197.620	0.150	0.286
-75.538	-130.603	-0.173	0.029
-74.524	-113.904	-0.176	-0.042
-73.509	149.204	-0.161	0.273
-72.494	60.648	-0.139	0.172
-71.480	19.227	-0.151	-0.151
-70.465	75.967	-0.258	-0.340
-69.451	-141.190	0.342	-0.043
-68.436	-187.418	-0.220	0.004
-67.422	29.637	0.246	0.261
-66.407	-18.094	0.177	0.138
-65.392	800.000	0.027	0.118
-64.378	800.000	-0.062	0.318
-63.363	-81.001	0.537	0.221
-62.349	3.296	0.317	0.288
-61.334	-15.883	-0.942	-0.747
-60.319	-57.741	0.824	0.448
-59.305	274.050	-2.765	-6.122
-58.290	-12.540	2.969	2.412
-57.276	400.642	4.060	10.667
-56.261	-200.000	13.182	220.700
-55.246	491.135	1143.924	3280.314
-54.232	66.028	2788.914	3529.433
-53.217	73.519	2701.283	3528.767
-52.203	79.734	2434.851	3262.220
-51.188	34.945	2089.830	2279.803
-50.173	37.361	1961.965	2167.354
-49.159	34.932	1952.530	2129.702
-48.144	34.294	1948.723	2118.340
-47.130	34.281	1945.120	2114.195
-46.115	34.176	1944.234	2111.976
-45.100	34.173	1942.640	2110.126
-44.086	34.144	1941.590	2108.580
-43.071	34.251	1940.224	2108.204
-42.057	34.198	1938.676	2105.840
-41.042	34.095	1937.984	2103.864
-40.027	34.149	1936.574	2102.847
-39.013	34.230	1933.991	2100.866
-37.998	33.983	1933.760	2097.792
-36.984	34.138	1932.278	2097.815
-35.969	34.054	1931.520	2095.981
-34.954	34.103	1929.363	2094.097
-33.940	34.046	1928.278	2092.201
-32.925	34.047	1927.630	2091.428
-31.911	34.101	1925.609	2089.747
-30.896	34.068	1923.981	2087.537
-29.881	33.964	1923.059	2085.304
-28.867	34.145	1921.108	2085.105
-27.852	33.946	1919.862	2081.471
-26.838	33.974	1917.760	2079.420
-25.823	33.977	1916.604	2078.114
-24.809	33.914	1916.318	2077.039
-23.794	34.013	1914.890	2076.486
-22.779	33.937	1913.573	2074.143
-21.765	33.848	1912.273	2071.676
-20.750	33.840	1911.151	2070.291
-19.736	33.731	1910.418	2068.223
-18.721	33.868	1908.101	2067.133
-17.706	33.926	1906.498	2065.947
-16.692	33.778	1907.173	2064.983
-15.677	33.756	1905.440	2062.775
-14.663	33.819	1903.716	2061.515
-13.648	33.743	1902.496	2059.287
-12.633	33.774	1901.398	2058.357
-11.619	33.810	1900.309	2057.489
-10.604	33.675	1899.292	2054.832
-9.590	33.703	1897.361	2052.966
-8.575	33.705	1896.523	2052.001
-7.560	33.772	1895.210	2051.224
-6.546	33.730	1893.277	2048.594
-5.531	33.922	1892.242	2049.475
-4.517	33.813	1891.283	2047.174
-3.502	33.907	1889.637	2046.333
-2.487	33.994	1888.808	2046.293
-1.473	33.886	1886.733	2042.796
-0.458	34.612	1867.955	2030.149
0.556	31.522	2004.041	2130.018
1.571	30.794	2221.064	2351.167
2.586	32.450	2269.011	2423.093
3.600	32.543	2271.340	2426.482
4.615	32.610	2271.575	2427.309
5.629	32.458	2270.141	2423.526
6.644	32.654	2267.259	2422.696
7.659	32.800	2266.378	2423.341
8.673	33.030	2264.722	2424.257
9.688	32.131	2268.858	2416.769
10.702	28.902	2338.630	2447.660
11.717	25.373	2400.761	2463.814
12.731	12.913	2367.252	2258.629
13.746	2.093	2337.557	2082.305
14.761	0.364	2332.529	2053.906
15.775	0.195	2330.799	2049.825
16.790	0.099	2329.263	2046.917
17.804	0.190	2327.060	2045.989
18.819	0.156	2327.180	2045.374
19.834	0.152	2325.175	2043.314
20.848	0.151	2323.559	2041.644
21.863	0.106	2322.635	2039.974
22.877	0.120	2319.720	2037.362
23.892	0.116	2317.451	2035.070
24.907	0.088	2315.984	2033.147
25.921	0.034	2313.616	2030.097
26.936	0.111	2311.738	2029.245
27.950	0.038	2308.832	2025.473
28.965	0.101	2306.956	2024.427
29.980	0.051	2306.303	2022.942
30.994	0.287	2304.731	2024.509
32.009	6.768	2327.373	2132.329
33.023	22.719	2375.217	2395.304
34.038	31.196	2394.557	2530.602
35.053	32.809	2395.228	2552.974
36.067	32.749	2392.064	2548.476
37.082	32.376	2389.222	2540.087
38.096	32.389	2387.830	2538.473
39.111	32.995	2385.881	2544.310
40.126	32.928	2385.008	2542.174
41.140	33.231	2384.174	2545.074
42.155	33.022	2379.953	2537.443
43.169	32.617	2378.093	2529.696
44.184	32.759	2376.312	2529.403
45.199	32.786	2374.114	2527.132
46.213	32.483	2372.773	2521.321
47.228	32.279	2371.839	2517.282
48.242	32.528	2370.999	2519.442
49.257	32.846	2369.347	2521.656
50.271	33.147	2367.163	2523.062
51.286	33.285	2364.591	2521.873
52.301	32.753	2362.003	2511.689
53.315	31.573	2358.119	2491.482
54.330	29.811	2349.834	2458.899
55.344	28.470	2343.831	2434.441
56.359	28.570	2340.079	2431.591
57.374	28.400	2337.747	2426.609
58.388	28.324	2334.555	2421.992
59.403	28.311	2330.784	2417.625
60.417	28.394	2328.812	2416.393
61.432	28.685	2328.358	2419.483
62.447	28.475	2326.391	2414.372
63.461	28.292	2323.569	2408.739
64.476	28.234	2321.649	2405.692
65.490	28.860	2321.813	2413.837
66.505	29.407	2322.633	2421.620
67.520	30.686	2325.132	2440.821
68.534	31.510	2325.438	2451.701
69.549	31.661	2323.126	2450.965
70.563	31.962	2321.591	2453.008
71.578	32.277	2320.965	2456.190
72.593	32.857	2321.910	2464.508
73.607	33.534	2321.021	2472.155
74.622	33.223	2319.555	2466.222
75.636	32.675	2313.602	2452.432
76.651	32.565	2311.417	2448.379
77.666	32.888	2309.965	2450.774
78.680	32.679	2307.855	2445.517
79.695	32.600	2304.857	2441.014
80.709	31.994	2302.580	2430.420
81.724	32.278	2300.998	2432.154
82.739	32.856	2300.576	2438.934
83.753	33.259	2299.420	2442.647
84.768	32.907	2297.215	2435.449
85.782	32.607	2296.086	2430.067
86.797	32.771	2293.326	2428.979
87.812	32.376	2290.806	2420.915
88.826	32.130	2288.434	2414.931
89.841	32.479	2287.323	2417.986
90.855	33.136	2285.770	2424.528
91.870	32.349	2281.761	2409.854
92.884	32.016	2280.064	2403.486
93.899	32.519	2279.491	2409.068
94.914	31.619	2275.180	2392.666
95.928	29.382	2268.970	2357.143
96.943	28.668	2265.682	2344.281
97.957	30.731	2269.806	2374.773
98.972	32.337	2270.879	2396.187
99.987	31.871	2266.600	2385.439
101.001	31.932	2263.813	2382.996
102.016	32.092	2262.633	2383.502
103.030	32.064	2260.481	2380.594
104.045	32.387	2259.793	2383.709
105.060	33.092	2260.363	2393.002
106.074	33.171	2258.073	2391.291
107.089	32.431	2254.304	2377.617
108.103	32.234	2253.145	2373.616
109.118	32.683	2252.163	2377.990
110.133	32.790	2250.680	2377.492
111.147	32.567	2248.493	2372.070
112.162	32.562	2246.760	2369.899
113.176	32.677	2244.151	2368.322
114.191	32.588	2241.135	2363.722
115.206	32.398	2239.689	2359.530
116.220	32.584	2239.007	2360.864
117.235	32.394	2235.737	2354.748
118.249	32.270	2234.150	2351.232
119.264	32.539	2233.256	2353.392
120.279	32.808	2232.170	2355.341
121.293	32.717	2229.143	2350.724
122.308	32.332	2226.911	2343.267
123.322	32.094	2224.952	2337.949
124.337	31.036	2220.899	2320.182
125.352	29.675	2216.512	2298.322
126.366	29.890	2216.873	2301.107
127.381	31.554	2218.656	2323.484
128.395	32.607	2218.230	2335.886
129.410	32.865	2216.705	2337.219
130.424	32.543	2214.972	2331.095
131.439	32.540	2212.599	2328.292
132.454	32.192	2210.230	2321.193
133.468	32.522	2208.366	2323.056
134.483	32.493	2206.232	2320.170
135.497	32.273	2204.802	2315.662
136.512	32.849	2204.115	2321.791
137.527	32.914	2201.748	2319.823
138.541	32.561	2199.936	2313.284
139.556	32.238	2198.915	2307.940
140.570	32.267	2197.223	2306.252
141.585	32.276	2195.503	2304.284
142.600	32.506	2193.878	2305.132
143.614	32.463	2193.215	2303.627
144.629	32.925	2192.890	2308.696
145.643	32.551	2189.552	2300.309
146.658	32.298	2185.907	2293.103
147.673	31.825	2182.972	2283.964
148.687	31.944	2183.470	2285.661
149.702	32.184	2182.094	2286.880
150.716	32.268	2182.266	2287.826
151.731	33.022	2183.291	2297.840
152.746	33.584	2181.946	2303.018
153.760	32.020	2175.447	2276.829
154.775	29.455	2168.193	2237.741
155.789	28.372	2164.849	2220.846
156.804	30.012	2168.042	2243.845
157.819	31.763	2168.265	2265.104
158.833	32.219	2166.707	2268.733
159.848	32.674	2166.044	2273.288
160.862	32.960	2165.375	2275.784
161.877	33.327	2164.788	2279.330
162.892	33.369	2164.911	2279.697
163.906	33.751	2163.614	2282.684
164.921	33.668	2160.093	2277.693
165.935	33.410	2158.621	2272.754
166.950	33.020	2154.659	2263.619
167.964	32.446	2152.111	2253.755
168.979	32.141	2150.748	2248.387
169.994	32.559	2149.215	2251.540
171.008	32.543	2146.678	2248.425
172.023	32.457	2145.338	2245.720
173.037	33.057	2146.329	2253.687
174.052	32.967	2144.419	2250.336
175.067	32.569	2141.473	2242.205
176.081	32.402	2139.193	2237.555
177.096	32.442	2139.152	2237.727
178.110	32.439	2136.178	2234.307
179.125	32.205	2135.776	2230.831
180.140	32.602	2135.966	2235.495
181.154	32.875	2134.520	2236.976
182.169	32.488	2132.077	2229.537
183.183	31.697	2127.864	2215.469
184.198	29.784	2120.215	2184.545
185.213	29.105	2119.633	2175.630
186.227	31.455	2123.827	2207.591
187.242	32.279	2123.964	2217.242
188.256	32.281	2121.735	2214.682
189.271	32.885	2122.153	2221.996
190.286	33.075	2120.532	2222.281
191.300	32.506	2115.225	2209.742
192.315	32.125	2113.201	2202.869
193.329	32.645	2114.321	2209.904
194.344	33.427	2114.684	2219.235
195.359	33.196	2112.195	2213.642
196.373	33.414	2111.072	2214.759
197.388	33.335	2108.017	2210.371
198.402	32.844	2104.902	2201.080
199.417	32.761	2103.089	2197.945
200.432	32.902	2102.490	2198.707
201.446	33.079	2101.705	2199.697
202.461	32.827	2098.841	2193.489
203.475	32.225	2095.352	2182.556
204.490	32.002	2092.845	2177.090
205.504	32.233	2091.712	2178.343
206.519	31.986	2089.288	2172.682
207.534	32.343	2087.913	2175.140
208.548	32.814	2087.508	2179.926
209.563	32.058	2084.500	2167.759
210.577	32.048	2084.615	2167.499
211.592	33.115	2086.329	2181.403
212.607	31.905	2080.099	2160.633
213.621	28.516	2071.569	2112.350
214.636	28.458	2071.891	2111.762
215.650	31.235	2077.278	2149.179
216.665	32.784	2077.219	2166.760
217.680	33.072	2076.912	2169.510
218.694	33.369	2075.073	2170.753
219.709	32.600	2071.290	2157.688
220.723	32.748	2071.203	2159.040
221.738	33.429	2071.437	2166.851
222.753	33.493	2068.907	2164.690
223.767	33.118	2065.284	2156.338
224.782	32.422	2062.976	2145.697
225.796	32.339	2062.543	2144.032
226.811	33.084	2061.877	2151.622
227.826	33.076	2060.574	2149.905
228.840	33.291	2058.955	2150.422
229.855	33.006	2056.338	2144.180
230.869	32.304	2053.078	2132.516
231.884	32.067	2051.348	2127.769
232.899	32.437	2051.104	2131.474
233.913	32.809	2051.750	2136.119
234.928	33.165	2051.474	2139.633
235.942	33.237	2048.216	2136.792
236.957	32.757	2046.974	2129.800
237.972	32.841	2045.063	2128.502
238.986	32.941	2045.211	2129.542
240.001	32.654	2042.006	2122.699
241.015	32.494	2039.343	2117.864
242.030	32.300	2038.246	2114.282
243.045	30.404	2031.172	2085.319
244.059	29.670	2031.080	2076.683
245.074	31.868	2033.308	2103.534
246.088	32.504	2031.153	2108.209
247.103	32.647	2029.831	2108.197
248.117	32.795	2029.752	2109.519
249.132	33.091	2027.734	2110.492
250.147	32.617	2025.652	2102.762
251.161	32.149	2022.571	2094.074
252.176	32.355	2021.722	2095.243
253.190	32.263	2019.188	2091.337
254.205	32.205	2017.005	2088.180
255.220	32.466	2015.969	2089.773
256.234	32.398	2014.943	2087.702
257.249	32.117	2013.722	2083.052
258.263	32.226	2013.147	2083.420
259.278	32.381	2012.963	2084.713
260.293	32.585	2010.717	2084.400
261.307	32.387	2008.083	2079.219
262.322	32.398	2006.562	2077.517
263.336	31.966	2003.410	2069.226
264.351	31.933	2002.243	2067.398
265.366	32.275	2002.497	2071.203
266.380	32.591	2002.518	2074.481
267.395	32.120	2000.009	2066.418
268.409	32.077	1998.189	2063.826
269.424	32.493	1996.887	2066.824
270.439	32.702	1996.706	2068.692
271.453	32.456	1991.883	2060.742
272.468	29.674	1984.394	2022.192
273.482	28.689	1982.915	2009.617
274.497	31.055	1984.340	2036.826
275.512	32.175	1986.112	2050.700
276.526	32.588	1983.804	2052.603
277.541	32.360	1982.423	2048.427
278.555	32.240	1979.515	2043.868
279.570	31.866	1976.702	2036.634
280.585	31.606	1975.168	2031.972
281.599	31.738	1975.045	2033.048
282.614	31.032	1968.848	2018.747
283.628	28.021	1960.110	1976.863
284.643	26.521	1956.248	1956.455
285.657	26.509	1955.105	1954.939
286.672	26.567	1953.677	1953.913
287.687	26.124	1951.168	1946.369
288.701	26.140	1950.656	1945.797
289.716	26.308	1949.555	1946.280
290.730	26.239	1946.523	1942.278
291.745	26.609	1947.999	1947.518
292.760	27.248	1947.963	1954.151
293.774	29.397	1953.297	1982.517
294.789	32.224	1959.075	2018.721
295.803	32.957	1958.211	2025.494
296.818	32.551	1956.475	2019.078
297.833	32.861	1956.433	2022.134
298.847	32.967	1955.597	2022.166
299.862	32.967	1952.804	2019.042
300.876	32.230	1948.524	2006.462
301.891	30.101	1942.872	1977.597
302.906	29.351	1942.423	1968.864
303.920	31.611	1945.922	1996.436
304.935	33.106	1945.672	2011.945
305.949	33.140	1944.160	2010.502
306.964	33.133	1942.648	2008.629
307.979	32.606	1937.941	1997.910
308.993	29.300	1927.689	1951.982
310.008	26.506	1918.737	1913.037
311.022	26.024	1918.427	1907.376
312.037	26.678	1918.551	1914.218
313.052	26.715	1914.443	1910.286
314.066	25.768	1911.689	1897.284
315.081	25.650	1910.655	1894.785
316.095	25.823	1909.899	1895.634
317.110	25.795	1908.607	1893.832
318.125	25.922	1907.682	1894.026
319.139	25.817	1906.781	1891.795
320.154	26.212	1906.151	1895.114
321.168	26.179	1904.863	1893.253
322.183	27.458	1907.359	1908.999
323.197	30.373	1913.694	1945.869
324.212	32.186	1915.827	1966.904
325.227	32.343	1913.985	1966.425
326.241	32.494	1912.212	1965.959
327.256	32.577	1912.823	1967.223
328.270	32.596	1909.919	1964.201
329.285	32.736	1910.123	1965.639
330.300	32.124	1907.572	1956.374
331.314	29.296	1899.497	1918.325
332.329	28.713	1898.731	1911.223
333.343	31.340	1901.886	1941.658
334.358	32.782	1902.115	1956.704
335.373	33.187	1902.111	1960.688
336.387	33.424	1900.543	1961.307
337.402	33.271	1897.985	1956.846
338.416	32.805	1896.278	1950.009
339.431	32.582	1894.233	1945.361
340.446	31.684	1888.194	1929.627
341.460	28.351	1878.912	1885.492
342.475	26.878	1874.908	1866.033
343.489	26.287	1871.984	1856.800
344.504	26.095	1870.479	1853.098
345.519	26.011	1868.621	1850.170
346.533	25.710	1866.147	1844.403
347.548	25.703	1865.168	1843.140
348.562	25.993	1864.782	1845.529
349.577	25.962	1864.567	1844.769
350.592	26.201	1863.239	1845.694
351.606	26.561	1861.271	1847.213
352.621	25.986	1858.601	1838.451
353.635	26.163	1858.959	1840.401
354.650	28.030	1863.406	1863.740
355.665	30.980	1868.432	1898.800
356.679	32.012	1869.888	1910.614
357.694	32.450	1869.029	1913.988
358.708	32.733	1868.681	1916.294
359.723	32.261	1864.325	1906.782
360.738	29.344	1858.447	1870.853
361.752	29.320	1857.329	1869.254
362.767	31.824	1860.598	1897.847
363.781	32.813	1861.327	1908.426
364.796	33.691	1861.027	1916.810
365.810	33.477	1858.455	1911.760
366.825	32.517	1854.755	1898.006
367.840	29.916	1846.175	1862.729
368.854	26.639	1839.270	1822.451
369.869	25.959	1836.581	1812.706
370.883	26.153	1835.229	1813.108
371.898	26.398	1834.425	1814.571
372.913	26.480	1832.869	1813.638
373.927	25.923	1829.893	1804.879
374.942	25.595	1828.977	1800.451
375.956	25.880	1829.070	1803.196
376.971	26.094	1826.086	1802.188
377.986	25.555	1824.532	1795.031
379.000	25.828	1823.342	1796.383
380.015	26.191	1822.573	1799.049
381.029	28.205	1827.943	1824.338
382.044	31.639	1834.130	1864.741
383.059	32.568	1833.799	1873.477
384.073	32.293	1831.958	1868.624
385.088	32.388	1831.766	1869.153
386.102	32.664	1830.638	1870.533
387.117	32.615	1829.924	1869.091
388.132	32.743	1828.573	1868.764
389.146	32.154	1825.385	1859.426
390.161	29.483	1818.129	1825.301
391.175	28.973	1815.392	1817.272
392.190	30.810	1815.518	1835.402
393.205	31.649	1816.331	1844.311
394.219	32.153	1814.741	1847.459
395.234	32.049	1814.516	1845.981
396.248	32.240	1813.230	1846.337
397.263	32.115	1810.257	1841.861
398.278	31.840	1808.180	1836.815
399.292	31.624	1807.193	1833.467
400.307	30.520	1801.832	1816.966
401.321	27.719	1794.711	1782.107
402.336	26.249	1789.569	1762.389
403.350	26.008	1788.092	1758.365
404.365	26.670	1788.477	1765.015
405.380	26.859	1785.882	1764.095
406.394	26.310	1784.181	1756.842
407.409	26.139	1783.801	1754.582
408.423	26.336	1782.410	1754.930
409.438	26.266	1779.699	1751.367
410.453	26.075	1779.324	1748.923
411.467	26.282	1779.628	1751.036
412.482	27.986	1783.956	1771.701
413.496	31.401	1789.930	1810.744
414.511	32.794	1789.084	1823.217
415.526	32.600	1787.275	1819.267
416.540	32.768	1786.289	1819.673
417.555	32.631	1784.763	1816.579
418.569	31.931	1783.534	1808.328
419.584	32.008	1783.340	1808.664
420.599	32.237	1782.060	1809.367
421.613	32.049	1781.177	1806.433
422.628	32.129	1780.690	1806.491
423.642	32.807	1779.272	1811.387
424.657	32.353	1776.498	1803.969
425.672	31.565	1774.180	1793.809
426.686	31.983	1774.782	1798.232
427.701	32.016	1771.913	1795.427
428.715	31.932	1770.582	1793.054
429.730	32.140	1769.584	1793.826
430.745	32.667	1769.448	1798.528
431.759	32.779	1768.877	1798.809
432.774	32.501	1766.592	1793.608
433.788	30.390	1760.141	1766.682
434.803	28.284	1756.109	1742.305
435.818	27.965	1755.014	1737.962
436.832	27.871	1754.090	1735.937
437.847	26.840	1746.116	1718.027
438.861	16.931	1717.534	1596.412
439.876	3.759	1692.555	1449.469
440.890	0.564	1686.017	1413.663
441.905	0.154	1684.860	1408.667
442.920	0.064	1683.466	1406.481
443.934	0.064	1682.216	1405.271
444.949	0.085	1681.709	1404.878
445.963	0.123	1680.163	1403.771
446.978	0.109	1679.293	1402.745
447.993	0.149	1678.103	1401.962
449.007	0.174	1675.719	1400.037
450.022	0.206	1673.635	1398.425
451.036	0.156	1672.449	1396.799
452.051	1.483	1679.614	1415.035
453.066	13.004	1708.281	1548.183
454.080	25.717	1729.161	1687.518
455.095	28.698	1733.748	1719.906
456.109	29.818	1735.505	1731.989
457.124	30.733	1734.542	1739.416
458.139	29.883	1732.853	1729.533
459.153	29.471	1730.889	1723.508
460.168	29.707	1729.412	1724.043
461.182	29.987	1728.153	1725.199
462.197	30.355	1727.040	1727.330
463.212	30.724	1727.223	1730.753
464.226	31.298	1727.196	1735.884
465.241	31.435	1726.441	1736.198
466.255	31.519	1724.389	1734.710
467.270	31.464	1724.173	1733.766
468.285	32.122	1725.007	1740.532
469.299	32.601	1724.801	1744.574
470.314	32.813	1722.531	1744.045
471.328	32.571	1721.227	1740.269
472.343	32.739	1720.475	1740.851
473.358	32.674	1718.921	1738.474
474.372	32.664	1717.708	1736.943
475.387	33.215	1717.902	1742.034
476.401	33.206	1715.342	1739.151
477.416	32.388	1712.967	1728.977
478.430	32.328	1711.806	1727.050
479.445	32.699	1712.175	1730.636
480.460	32.929	1710.777	1731.133
481.474	32.935	1709.701	1729.892
482.489	33.027	1708.470	1729.289
483.503	32.513	1705.364	1721.217
484.518	31.971	1702.728	1713.377
485.533	32.506	1702.383	1717.730
486.547	32.307	1699.866	1713.166
487.562	31.328	1697.488	1701.600
488.576	31.716	1698.056	1705.524
489.591	32.761	1697.749	1714.564
490.606	33.005	1697.371	1716.207
491.620	33.121	1695.909	1715.584
492.635	32.745	1692.965	1708.972
493.649	31.830	1690.372	1697.826
494.664	31.685	1690.319	1696.249
495.679	32.386	1689.408	1701.508
496.693	32.687	1687.524	1702.138
497.708	32.650	1686.409	1700.479
498.722	32.418	1685.715	1697.465
499.737	32.430	1684.320	1695.965
500.752	32.698	1682.914	1696.777
501.766	32.783	1681.766	1696.186
502.781	32.774	1679.657	1693.771
503.795	32.833	1678.792	1693.234
504.810	32.838	1677.341	1691.607
505.825	32.562	1676.166	1687.737
506.839	32.065	1673.868	1680.745
507.854	31.614	1672.289	1674.909
508.868	31.286	1669.524	1668.986
509.883	30.600	1666.574	1659.689
510.898	30.237	1664.765	1654.432
511.912	29.877	1662.970	1649.226
512.927	29.806	1659.881	1645.331
513.941	29.710	1658.650	1643.055
514.956	29.847	1658.436	1643.875
515.971	30.529	1657.490	1648.820
516.985	30.013	1655.880	1642.432
518.000	29.661	1654.572	1637.799
519.014	29.683	1653.270	1636.510
520.029	29.795	1652.051	1636.103
521.043	29.850	1650.706	1635.064
522.058	29.909	1650.242	1634.935
523.073	29.917	1649.150	1633.724
524.087	29.995	1648.232	1633.315
525.102	30.275	1648.252	1635.613
526.116	31.288	1649.288	1645.426
527.131	32.011	1648.385	1650.723
528.146	31.930	1648.256	1649.682
529.160	31.945	1647.165	1648.523
530.175	32.164	1646.426	1649.516
531.189	32.238	1644.681	1648.227
532.204	32.159	1642.996	1645.639
533.219	32.241	1642.723	1645.895
534.233	32.392	1641.254	1645.551
535.248	31.772	1639.113	1637.763
536.262	31.161	1637.808	1630.901
537.277	31.893	1637.286	1636.606
538.292	32.500	1637.283	1641.732
539.306	32.561	1634.955	1639.739
540.321	31.981	1632.041	1631.548
541.335	31.330	1630.538	1624.168
542.350	31.702	1630.328	1627.012
543.365	32.183	1628.844	1629.529
544.379	32.640	1628.107	1632.577
545.394	32.278	1625.845	1626.967
546.408	31.963	1624.303	1622.494
547.423	32.369	1624.244	1625.762
548.438	32.922	1625.117	1631.248
549.452	32.979	1622.775	1629.198
550.467	32.318	1620.380	1620.871
551.481	32.055	1620.033	1618.050
552.496	31.972	1618.426	1615.539
553.511	31.883	1617.099	1613.253
554.525	31.992	1615.972	1612.875
555.540	31.961	1615.685	1612.122
556.554	32.054	1614.256	1611.313
557.569	31.917	1611.713	1607.402
558.583	31.463	1609.280	1600.874
559.598	31.275	1607.783	1597.576
560.613	31.273	1607.042	1596.633
561.627	30.856	1604.864	1590.702
562.642	30.392	1602.097	1583.791
563.656	29.955	1599.502	1577.296
564.671	29.609	1598.772	1573.424
565.686	29.538	1596.917	1570.800
566.700	29.660	1595.563	1570.327
567.715	29.598	1594.449	1568.508
568.729	29.629	1593.119	1567.279
569.744	29.939	1592.255	1568.879
570.759	30.079	1590.626	1568.283
571.773	29.689	1589.349	1563.521
572.788	29.429	1588.147	1559.942
573.802	29.283	1587.158	1557.538
574.817	29.613	1584.888	1557.926
575.832	29.482	1584.333	1556.086
576.846	30.114	1584.501	1561.413
577.861	30.813	1584.145	1566.787
578.875	31.058	1584.338	1568.869
579.890	31.453	1583.467	1571.155
580.905	31.504	1582.606	1570.539
581.919	31.456	1582.508	1569.851
582.934	31.557	1581.452	1569.464
583.948	31.484	1578.919	1566.148
584.963	31.348	1578.054	1563.959
585.978	31.596	1576.436	1564.252
586.992	31.077	1574.906	1558.190
588.007	30.945	1574.227	1556.229
589.021	30.797	1572.123	1552.721
590.036	30.023	1569.617	1543.576
591.051	30.472	1569.519	1547.054
592.065	31.021	1567.855	1549.820
593.080	30.867	1566.906	1547.409
594.094	31.287	1566.138	1549.967
595.109	31.460	1565.410	1550.508
596.123	32.297	1564.824	1556.711
597.138	32.265	1564.470	1555.908
598.153	31.729	1561.865	1548.673
599.167	31.361	1559.634	1543.222
600.182	31.109	1558.459	1539.784
601.196	31.157	1558.516	1540.058
602.211	31.679	1557.393	1543.086
603.226	31.251	1555.685	1537.671
604.240	31.404	1554.413	1537.495
605.255	31.579	1552.961	1537.316
606.269	31.237	1552.201	1533.561
607.284	30.998	1550.974	1530.194
608.299	31.042	1548.890	1528.318
609.313	31.002	1546.713	1525.653
610.328	30.752	1545.452	1522.174
611.342	30.770	1543.577	1520.293
612.357	30.709	1542.848	1518.894
613.372	30.308	1541.661	1514.252
614.386	30.141	1540.364	1511.426
615.401	30.043	1539.829	1509.918
616.415	29.883	1538.267	1506.899
617.430	29.662	1536.684	1503.362
618.445	29.382	1535.194	1499.435
619.459	29.545	1533.670	1499.095
620.474	29.558	1533.247	1498.611
621.488	29.686	1532.934	1499.167
622.503	30.260	1532.515	1503.257
623.518	29.755	1529.354	1495.869
624.532	29.107	1528.328	1489.417
625.547	29.247	1526.920	1489.004
626.561	29.175	1525.787	1487.140
627.576	29.081	1524.991	1485.426
628.591	29.196	1523.663	1484.888
629.605	29.288	1522.301	1484.124
630.620	29.673	1522.064	1486.828
631.634	30.523	1522.115	1493.573
632.649	30.340	1520.389	1490.226
633.663	29.547	1518.598	1481.892
634.678	29.127	1516.480	1476.269
635.693	29.142	1514.671	1474.449
636.707	29.223	1512.673	1472.982
637.722	29.218	1512.098	1472.204
638.736	29.611	1511.921	1475.008
639.751	30.186	1511.285	1478.824
640.766	30.226	1510.487	1478.189
641.780	30.310	1509.053	1477.281
642.795	30.664	1509.004	1479.883
643.809	30.798	1507.843	1479.641
644.824	30.694	1508.536	1479.310
645.839	31.084	1507.695	1481.426
646.853	30.854	1506.061	1477.810
647.868	30.801	1504.161	1475.342
648.882	30.776	1502.220	1473.062
649.897	30.582	1501.160	1470.307
650.912	30.388	1499.660	1467.117
651.926	30.464	1497.911	1465.836
652.941	30.200	1497.227	1462.900
653.955	30.212	1495.459	1461.090
654.970	29.545	1492.783	1453.031
655.985	29.174	1490.131	1447.339
656.999	29.011	1489.038	1444.820
658.014	28.910	1488.553	1443.377
659.028	29.366	1488.523	1446.774
660.043	29.798	1488.637	1450.116
661.058	30.037	1487.907	1451.117
662.072	30.267	1486.836	1451.707
663.087	30.344	1485.479	1450.810
664.101	30.324	1484.705	1449.729
665.116	30.417	1483.491	1449.096
666.131	30.486	1482.196	1448.203
667.145	30.695	1481.249	1448.738
668.160	30.668	1479.124	1446.278
669.174	30.280	1477.380	1441.367
670.189	30.258	1477.562	1441.203
671.204	30.554	1477.173	1442.954
672.218	30.518	1476.059	1441.419
673.233	30.482	1474.685	1439.622
674.247	30.581	1472.269	1437.860
675.262	30.067	1471.847	1433.283
676.276	30.057	1470.604	1431.819
677.291	30.341	1469.876	1433.145
678.306	30.742	1469.219	1435.442
679.320	30.560	1467.852	1432.522
680.335	30.134	1466.932	1428.157
681.349	30.114	1465.852	1426.782
682.364	30.327	1464.487	1426.932
683.379	30.076	1462.405	1422.792
684.393	29.658	1461.046	1418.075
685.408	29.554	1460.643	1416.712
686.422	29.554	1459.349	1415.289
687.437	29.383	1458.360	1412.846
688.452	29.123	1456.983	1409.341
689.466	29.141	1454.579	1406.984
690.481	29.228	1452.810	1405.773
691.495	29.117	1452.983	1404.922
692.510	29.414	1453.343	1407.378
693.525	30.293	1452.233	1412.863
694.539	29.826	1449.738	1406.699
695.554	29.125	1448.645	1400.113
696.568	29.151	1447.426	1398.966
697.583	29.109	1446.787	1397.863
698.598	29.291	1446.025	1398.347
699.612	29.472	1444.576	1398.157
700.627	29.464	1444.190	1397.551
701.641	29.838	1443.661	1399.720
702.656	29.912	1442.554	1399.044
703.671	29.702	1442.542	1397.266
704.685	29.890	1442.449	1398.438
705.700	30.073	1440.145	1397.420
706.714	29.916	1438.212	1394.193
707.729	29.952	1436.625	1392.763
708.744	29.903	1435.070	1390.713
709.758	29.367	1433.219	1384.714
710.773	28.799	1431.569	1378.671
711.787	28.697	1430.432	1376.640
712.802	29.194	1429.903	1379.710
713.816	29.472	1429.165	1380.924
714.831	29.834	1428.164	1382.507
715.846	29.757	1426.812	1380.455
716.860	29.602	1426.550	1378.874
717.875	29.771	1425.684	1379.139
718.889	29.663	1424.524	1377.046
719.904	29.683	1423.819	1376.345
720.919	29.520	1422.391	1373.584
721.933	29.451	1421.033	1371.596
722.948	29.437	1420.083	1370.408
723.962	29.435	1419.252	1369.430
724.977	29.465	1417.794	1368.082
725.992	29.731	1416.820	1368.954
727.006	30.045	1415.557	1369.908
728.021	29.960	1413.985	1367.589
729.035	29.782	1413.229	1365.375
730.050	29.683	1412.903	1364.163
731.065	29.852	1411.244	1363.652
732.079	29.625	1409.769	1360.376
733.094	29.658	1409.524	1360.228
734.108	29.901	1408.205	1360.588
735.123	29.883	1406.167	1358.322
736.138	29.846	1405.236	1356.984
737.152	29.618	1404.133	1354.078
738.167	29.625	1403.057	1352.929
739.181	29.791	1401.692	1352.673
740.196	29.751	1401.284	1351.822
741.211	29.504	1400.400	1348.998
742.225	29.556	1399.199	1348.059
743.240	29.516	1397.365	1345.836
744.254	29.346	1395.737	1342.861
745.269	29.140	1394.705	1340.200
746.284	29.003	1394.216	1338.566
747.298	28.915	1393.216	1336.804
748.313	28.908	1392.038	1335.467
749.327	28.809	1391.786	1334.341
750.342	29.455	1392.131	1339.227
751.356	30.178	1391.924	1344.136
752.371	30.053	1389.157	1340.399
753.386	29.374	1387.000	1333.219
754.400	29.220	1386.154	1331.133
755.415	29.669	1385.819	1333.912
756.429	29.650	1384.912	1332.737
757.444	29.900	1383.475	1333.006
758.459	29.783	1381.908	1330.488
759.473	29.463	1380.984	1327.130
760.488	29.239	1379.443	1323.874
761.502	29.055	1378.229	1321.223
762.517	29.282	1377.211	1321.725
763.532	29.564	1376.368	1322.784
764.546	29.294	1374.475	1318.868
765.561	28.686	1373.137	1313.054
766.575	28.338	1372.083	1309.394
767.590	28.384	1370.579	1308.132
768.605	28.905	1369.927	1311.087
769.619	29.102	1368.920	1311.380
770.634	29.222	1368.481	1311.656
771.648	29.275	1367.424	1310.869
772.663	29.092	1366.760	1308.768
773.678	29.153	1366.441	1308.737
774.692	29.353	1366.185	1309.763
775.707	29.522	1365.121	1309.792
776.721	29.579	1364.047	1309.013
777.736	29.379	1363.034	1306.462
778.751	29.510	1361.637	1305.895
779.765	29.585	1361.120	1305.775
780.780	29.382	1360.642	1303.718
781.794	29.503	1359.339	1303.176
782.809	29.315	1357.912	1300.318
783.824	28.829	1356.641	1295.502
784.838	29.047	1355.675	1295.967
785.853	29.365	1354.916	1297.339
786.867	29.163	1353.627	1294.519
787.882	28.995	1352.856	1292.438
788.897	28.816	1352.204	1290.398
789.911	28.887	1350.557	1289.171
790.926	28.853	1349.671	1287.934
791.940	29.020	1348.324	1287.669
792.955	29.084	1346.482	1286.208
793.969	28.985	1345.642	1284.555
794.984	29.063	1345.340	1284.664
795.999	29.279	1344.499	1285.214
797.013	29.436	1342.868	1284.604
798.028	29.524	1341.176	1283.445
799.042	29.388	1341.096	1282.268
800.057	29.529	1339.739	1281.800
801.072	29.385	1338.718	1279.665
802.086	29.238	1337.534	1277.354
803.101	29.166	1336.290	1275.512
804.115	29.282	1335.142	1275.072
805.130	29.246	1334.318	1273.885
806.145	29.072	1333.273	1271.523
807.159	28.900	1332.287	1269.234
808.174	28.940	1330.968	1268.106
809.188	29.197	1329.527	1268.364
810.203	28.918	1327.707	1264.541
811.218	28.601	1326.132	1260.705
812.232	28.220	1324.666	1256.531
813.247	28.242	1323.502	1255.426
814.261	28.565	1323.395	1257.401
815.276	28.952	1322.626	1259.186
816.291	29.025	1321.707	1258.660
817.305	28.957	1320.658	1257.041
818.320	29.025	1319.455	1256.214
819.334	29.097	1319.001	1256.126
820.349	29.118	1318.471	1255.615
821.364	29.136	1316.765	1253.961
822.378	29.262	1314.920	1252.920
823.393	29.116	1313.450	1250.373
824.407	29.275	1312.213	1250.126
825.422	29.234	1312.028	1249.523
826.437	29.059	1311.081	1247.282
827.451	29.119	1308.878	1245.443
828.466	29.055	1307.652	1243.693
829.480	29.269	1305.960	1243.385
830.495	28.906	1304.218	1239.117
831.509	28.822	1303.940	1238.139
832.524	28.913	1303.642	1238.321
833.539	28.968	1302.179	1237.155
834.553	29.087	1301.024	1236.718
835.568	29.088	1299.288	1234.921
836.582	29.132	1298.455	1234.281
837.597	29.296	1297.100	1233.951
838.612	29.192	1295.621	1231.691
839.626	28.905	1294.565	1228.616
840.641	28.715	1293.426	1226.111
841.655	28.573	1292.299	1223.948
842.670	28.346	1290.645	1220.710
843.685	28.112	1289.704	1218.107
844.699	28.345	1289.671	1219.494
845.714	28.608	1288.214	1219.724
846.728	28.701	1287.218	1219.256
847.743	28.719	1286.266	1218.326
848.758	28.960	1285.403	1218.974
849.772	28.957	1284.740	1218.176
850.787	29.185	1282.969	1217.869
851.801	28.921	1282.577	1215.593
852.816	29.171	1281.099	1215.710
853.831	29.306	1279.080	1214.545
854.845	29.207	1277.538	1212.280
855.860	29.077	1276.130	1209.938
856.874	28.938	1275.153	1207.947
857.889	29.045	1273.970	1207.388
858.904	28.894	1272.856	1205.196
859.918	28.997	1272.240	1205.145
860.933	29.353	1271.372	1206.519
861.947	29.060	1270.448	1203.571
862.962	28.990	1268.418	1201.049
863.977	28.890	1266.838	1198.753
864.991	28.913	1266.824	1198.742
866.006	28.874	1266.535	1198.074
867.020	28.941	1265.598	1197.479
868.035	29.007	1264.100	1196.353
869.049	29.192	1262.886	1196.267
870.064	29.158	1261.843	1194.914
871.079	28.963	1261.196	1192.889
872.093	28.881	1260.180	1191.249
873.108	28.802	1259.336	1189.793
874.122	28.685	1257.277	1186.947
875.137	28.285	1257.139	1184.075
876.152	28.202	1256.097	1182.411
877.166	28.288	1253.592	1180.471
878.181	28.483	1252.854	1180.896
879.195	28.632	1252.804	1181.676
880.210	28.931	1252.055	1182.762
881.225	28.967	1250.961	1181.818
882.239	29.110	1250.146	1181.830
883.254	29.095	1249.152	1180.652
884.268	29.012	1248.450	1179.308
885.283	29.255	1246.546	1178.932
886.298	29.133	1244.953	1176.504
887.312	29.209	1244.050	1175.996
888.327	29.084	1243.261	1174.310
889.341	29.028	1241.678	1172.312
890.356	29.223	1240.971	1172.755
891.371	28.987	1241.791	1171.874
892.385	29.025	1240.801	1171.048
893.400	28.995	1239.709	1169.683
894.414	28.856	1238.673	1167.676
895.429	29.035	1237.012	1167.111
896.444	29.353	1236.694	1168.697
897.458	29.986	1235.938	1171.872
898.473	29.480	1234.224	1166.892
899.487	29.140	1232.614	1163.072
900.502	29.129	1231.566	1161.874
901.517	28.954	1230.220	1159.357
902.531	29.043	1229.043	1158.674
903.546	28.992	1228.782	1157.968
904.560	29.032	1227.992	1157.333
905.575	29.107	1226.624	1156.379
906.589	28.943	1225.676	1154.313
907.604	28.784	1225.119	1152.647
