DTS Sentinel unit serial number:	SN409020Multiplexer serial number:	ORYXHardware model number:	OX4-SRSoftware version number:	ORYX F/W v3.00 Oryx Data Collector v3.7.2.0data status	okinstallation	HaddamTimeLapsedifferential loss correction	single-endedforward channel	channel 3reverse channel	N/Adate	2011/06/21time	16:31:17forward acquisition time	30.00reverse acquisition time	0.00gamma	498.7831k internal	0.1786k external	0.1786temperature offset calibration	1.0074default loss term (dB/km)	0.3790temperature slope calibration	1.3530multiplexer offset coefficient	1.0000multiplexer slope coefficient	1.0000fibre end	0.00T internal ref (°C)	33.06T ext. ref 1 (°C)	26.55T ext. ref 2 (°C)	0.22length (m)	temperature (°C)	Stokes	anti-Stokes-747.200	-200.000	-0.005	-0.691
-746.185	-152.963	0.334	-0.030
-745.171	-69.166	0.293	-0.146
-744.156	-200.000	-0.054	0.459
-743.142	193.401	-0.155	-0.306
-742.127	50.310	0.249	0.307
-741.112	-42.839	0.139	0.092
-740.098	800.000	0.020	-0.091
-739.083	-106.698	-0.532	0.153
-738.069	424.971	-0.173	0.488
-737.054	-99.787	-0.185	-0.060
-736.039	-200.000	0.016	-0.127
-735.025	-42.725	-0.295	-0.195
-734.010	-38.260	0.027	0.019
-732.996	-200.000	0.213	0.000
-731.981	284.572	-0.160	0.377
-730.966	-112.824	-0.584	-0.150
-729.952	11.618	-0.277	0.276
-728.937	67.002	0.088	0.116
-727.923	7.322	0.284	-0.276
-726.908	165.497	0.034	-0.063
-725.894	800.000	-0.095	-0.510
-724.879	615.705	-0.041	0.134
-723.864	174.305	0.165	-0.312
-722.850	-114.279	-0.230	-0.057
-721.835	-200.000	0.052	0.506
-720.821	1.427	-0.655	0.613
-719.806	-159.269	-0.084	0.006
-718.791	-30.878	0.086	-0.063
-717.777	376.042	-0.135	-0.361
-716.762	253.475	0.146	0.326
-715.748	-129.102	-0.533	0.096
-714.733	-94.417	0.271	0.096
-713.718	-200.000	0.005	-0.150
-712.704	-47.652	-0.066	0.041
-711.689	-72.883	-0.392	-0.187
-710.675	154.521	0.059	-0.106
-709.660	-51.932	0.200	0.121
-708.645	-104.680	-0.173	-0.052
-707.631	800.000	-0.096	0.370
-706.616	-45.199	0.474	-0.305
-705.602	114.103	0.137	-0.218
-704.587	54.609	0.025	0.031
-703.572	-18.183	-0.120	0.097
-702.558	-20.616	0.429	0.342
-701.543	-20.941	0.108	-0.086
-700.529	-101.087	0.433	0.137
-699.514	29.105	0.143	0.158
-698.499	92.031	0.251	0.368
-697.485	-200.000	0.039	-0.284
-696.470	-81.093	-0.233	0.100
-695.456	-138.998	-0.545	0.076
-694.441	-127.492	-0.136	-0.025
-693.426	-47.056	0.201	-0.127
-692.412	-57.528	-0.300	0.171
-691.397	-99.750	-0.205	0.066
-690.383	-170.319	-0.435	0.020
-689.368	800.000	-0.095	-0.493
-688.354	241.716	0.269	-0.587
-687.339	93.416	-0.230	0.338
-686.324	-56.237	0.246	0.141
-685.310	-66.200	-0.326	-0.168
-684.295	283.148	-0.192	0.450
-683.281	235.015	-0.388	0.835
-682.266	-86.839	0.372	0.147
-681.251	626.595	-0.057	0.187
-680.237	650.891	-0.151	0.505
-679.222	-135.062	-0.590	0.091
-678.208	-98.039	-0.322	0.107
-677.193	-55.575	-0.288	0.167
-676.178	-20.853	-0.303	0.241
-675.164	119.267	-0.381	0.614
-674.149	22.769	-0.193	-0.205
-673.135	-119.034	-0.114	-0.026
-672.120	-160.071	0.431	-0.030
-671.105	12.119	0.137	-0.137
-670.091	40.186	-0.295	-0.344
-669.076	8.002	0.349	-0.339
-668.062	-136.970	-0.537	0.079
-667.047	-75.455	-0.229	0.105
-666.032	-67.479	0.257	-0.130
-665.018	-58.532	-0.298	-0.168
-664.003	8.237	-0.191	-0.186
-662.989	124.511	-0.108	-0.177
-661.974	295.701	-0.198	0.472
-660.959	-75.415	0.163	0.075
-659.945	53.356	0.114	0.141
-658.930	-133.908	-0.092	0.015
-657.916	-104.937	-0.114	0.034
-656.901	247.819	0.081	0.179
-655.886	14.791	-0.055	-0.056
-654.872	522.185	-0.103	0.316
-653.857	-28.867	-0.290	-0.216
-652.843	350.733	0.036	0.094
-651.828	-68.563	-0.289	-0.145
-650.814	-121.886	0.591	-0.125
-649.799	-105.106	0.259	-0.076
-648.784	-159.595	0.378	0.027
-647.770	-139.660	0.351	-0.048
-646.755	-133.180	0.226	-0.037
-645.741	-200.000	0.003	-0.091
-644.726	342.862	-0.069	-0.177
-643.711	-68.460	0.114	0.057
-642.697	486.057	0.071	-0.210
-641.682	164.511	-0.252	0.463
-640.668	23.960	0.271	0.290
-639.653	38.297	-0.274	-0.317
-638.638	-200.000	-0.053	0.311
-637.624	2.568	0.239	-0.224
-636.609	28.011	-0.184	0.201
-635.595	-156.305	-0.343	-0.028
-634.580	39.129	-0.607	0.704
-633.565	106.121	0.145	-0.222
-632.551	-38.652	0.245	-0.168
-631.536	761.501	-0.057	0.203
-630.522	-107.658	0.345	0.097
-629.507	-19.563	0.262	-0.210
-628.492	-92.258	0.530	0.193
-627.478	526.656	-0.088	-0.271
-626.463	-77.015	-0.464	-0.209
-625.449	-114.602	-0.453	0.112
-624.434	341.106	0.110	-0.280
-623.419	109.299	0.052	0.081
-622.405	-200.000	0.019	0.594
-621.390	306.179	0.083	-0.200
-620.376	-163.457	0.298	0.018
-619.361	-2.531	0.261	-0.236
-618.346	19.887	0.332	-0.347
-617.332	-177.499	-0.152	0.005
-616.317	16.415	-0.257	0.263
-615.303	-58.456	0.067	-0.038
-614.288	338.017	-0.064	0.161
-613.273	-200.000	-0.043	0.473
-612.259	523.427	0.032	-0.099
-611.244	-200.000	0.007	0.129
-610.230	-96.997	0.167	-0.056
-609.215	756.787	-0.089	-0.313
-608.201	-52.886	-0.268	-0.159
-607.186	53.080	0.272	-0.338
-606.171	-58.001	0.171	-0.097
-605.157	713.441	0.088	0.302
-604.142	3.544	-0.305	0.288
-603.128	9.669	-0.292	-0.286
-602.113	-83.207	-0.304	-0.126
-601.098	477.479	-0.081	-0.237
-600.084	43.851	0.168	0.199
-599.069	29.232	0.388	0.427
-598.055	-146.939	0.129	-0.014
-597.040	800.000	0.109	0.495
-596.025	-200.000	0.008	-0.554
-595.011	-108.581	0.262	-0.073
-593.996	86.779	0.169	-0.242
-592.982	190.604	-0.192	0.374
-591.967	-95.251	-0.531	0.184
-590.952	-35.441	-0.214	-0.150
-589.938	222.173	-0.141	-0.295
-588.923	800.000	0.043	-0.202
-587.909	-2.602	-0.264	-0.239
-586.894	33.756	0.152	-0.171
-585.879	680.806	-0.167	0.565
-584.865	3.848	-0.296	-0.280
-583.850	-52.058	-0.291	-0.175
-582.836	-120.218	-0.385	-0.084
-581.821	-200.000	0.003	0.125
-580.806	800.000	0.157	-0.702
-579.792	800.000	-0.060	-0.313
-578.777	14.492	0.086	0.087
-577.763	110.936	-0.184	-0.287
-576.748	-15.596	-0.239	-0.197
-575.733	96.822	-0.181	-0.269
-574.719	161.197	0.157	-0.285
-573.704	-171.479	0.444	-0.019
-572.690	-122.619	-0.811	0.169
-571.675	-108.379	-0.510	-0.141
-570.661	-30.444	-0.409	-0.299
-569.646	-68.339	-0.434	-0.217
-568.631	-108.879	0.258	-0.071
-567.617	-82.084	-0.184	-0.077
-566.602	633.782	0.073	-0.239
-565.588	-17.022	0.119	0.097
-564.573	-149.455	-0.208	-0.021
-563.558	-6.526	0.098	-0.086
-562.544	-97.767	-0.232	0.077
-561.529	9.228	0.108	0.106
-560.515	-200.000	0.068	0.441
-559.500	154.381	-0.137	-0.244
-558.485	-82.178	0.444	-0.186
-557.471	-48.685	0.131	-0.081
-556.456	516.409	-0.194	0.589
-555.442	800.000	0.100	0.382
-554.427	-128.473	0.304	0.055
-553.412	-52.565	0.440	-0.262
-552.398	-68.984	0.512	0.254
-551.383	800.000	0.071	-0.289
-550.369	800.000	0.060	0.300
-549.354	218.330	-0.182	0.377
-548.339	336.034	0.067	0.168
-547.325	-135.490	-0.208	-0.032
-546.310	-88.374	-0.192	0.074
-545.296	-49.392	-0.259	0.159
-544.281	-12.160	-0.194	0.164
-543.266	-200.000	-0.039	0.419
-542.252	-64.253	-0.162	0.085
-541.237	-44.158	0.199	0.129
-540.223	-54.193	0.133	-0.078
-539.208	-28.488	-0.444	0.330
-538.193	328.443	-0.055	0.136
-537.179	203.577	-0.028	0.055
-536.164	-0.696	0.076	0.069
-535.150	-13.726	0.250	0.209
-534.135	-18.382	-0.541	0.436
-533.121	-200.000	0.012	0.177
-532.106	-200.000	0.015	0.241
-531.091	790.110	0.023	-0.084
-530.077	0.883	0.048	0.044
-529.062	-81.271	0.348	-0.148
-528.048	-200.000	0.113	-0.691
-527.033	52.124	0.227	0.280
-526.018	10.633	0.234	-0.230
-525.004	22.661	-0.205	0.216
-523.989	-6.675	-0.226	-0.198
-522.975	-200.000	-0.082	-0.608
-521.960	-142.545	0.197	0.025
-520.945	-176.205	-0.604	0.020
-519.931	114.822	-0.241	0.379
-518.916	-18.616	0.326	-0.262
-517.902	67.543	-0.071	-0.094
-516.887	127.943	-0.037	-0.061
-515.872	-89.178	-0.309	-0.117
-514.858	359.920	0.154	-0.398
-513.843	800.000	-0.169	-0.937
-512.829	-17.483	-0.114	0.093
-511.814	800.000	-0.070	0.298
-510.799	-125.647	0.262	-0.051
-509.785	-74.482	0.128	0.059
-508.770	800.000	-0.047	-0.212
-507.756	67.136	0.247	0.325
-506.741	-200.000	-0.039	0.610
-505.726	-87.442	0.599	0.233
-504.712	-101.985	0.378	-0.117
-503.697	46.083	0.207	-0.248
-502.683	-200.000	-0.071	0.624
-501.668	295.006	-0.158	-0.374
-500.653	800.000	-0.021	-0.120
-499.639	-111.857	-0.340	-0.088
-498.624	564.370	-0.084	0.264
-497.610	339.624	-0.224	0.566
-496.595	-122.628	0.380	0.079
-495.581	46.007	-0.232	-0.277
-494.566	134.710	0.148	-0.248
-493.551	526.395	-0.096	0.292
-492.537	-118.969	0.174	-0.039
-491.522	-90.955	-0.209	-0.077
-490.508	-145.580	-0.088	0.010
-489.493	-10.690	0.191	0.163
-488.478	-174.280	-0.525	-0.019
-487.464	-148.126	-0.410	-0.043
-486.449	-53.315	-0.428	0.252
-485.435	109.833	-0.078	-0.120
-484.420	-200.000	0.020	0.229
-483.405	-103.763	0.387	0.116
-482.391	-116.926	0.547	0.128
-481.376	-26.816	0.371	0.279
-480.362	-104.566	0.143	0.042
-479.347	-7.091	0.154	0.135
-478.332	-200.000	-0.034	-0.326
-477.318	-63.280	0.196	0.104
-476.303	-68.362	-0.563	0.281
-475.289	144.250	0.041	-0.070
-474.274	-29.249	0.262	-0.193
-473.259	800.000	-0.039	0.205
-472.245	321.211	-0.068	-0.168
-471.230	115.157	0.295	-0.466
-470.216	-50.496	0.035	-0.021
-469.201	-122.281	-0.244	-0.051
-468.186	94.548	0.173	0.254
-467.172	-140.294	0.199	0.026
-466.157	-65.994	-0.304	-0.156
-465.143	154.331	-0.146	0.258
-464.128	-200.000	0.012	-0.090
-463.113	-114.500	-0.311	-0.076
-462.099	-48.871	0.063	-0.039
-461.084	800.000	0.004	-0.013
-460.070	97.763	0.365	0.542
-459.055	-200.000	0.086	0.740
-458.040	-78.087	-0.351	0.155
-457.026	-96.322	-0.270	0.091
-456.011	-111.972	0.336	0.087
-454.997	-86.295	-0.281	0.111
-453.982	-77.936	-0.221	0.098
-452.968	-13.068	-0.279	0.233
-451.953	-73.374	0.421	0.197
-450.938	3.744	0.087	0.081
-449.924	272.880	0.139	0.317
-448.909	-30.972	0.529	-0.384
-447.895	-200.000	0.047	-0.355
-446.880	35.867	0.317	-0.360
-445.865	642.707	-0.042	0.138
-444.851	0.937	-0.309	0.285
-443.836	-128.172	-0.327	-0.060
-442.822	-200.000	-0.094	0.598
-441.807	-111.361	0.670	0.175
-440.792	-200.000	0.009	-0.183
-439.778	355.991	-0.095	-0.244
-438.763	-5.382	0.233	0.206
-437.749	-128.199	-0.408	0.074
-436.734	294.779	-0.193	0.457
-435.719	-200.000	-0.020	0.598
-434.705	779.273	-0.149	0.528
-433.690	318.318	0.149	0.365
-432.676	219.293	-0.130	-0.269
-431.661	-83.258	-0.260	0.107
-430.646	424.267	-0.140	-0.389
-429.632	800.000	-0.176	-0.692
-428.617	693.881	-0.058	-0.196
-427.603	164.095	0.122	0.221
-426.588	98.751	0.234	-0.348
-425.573	730.232	0.057	0.199
-424.559	800.000	-0.007	-0.026
-423.544	-53.356	-0.196	0.115
-422.530	-116.083	0.189	0.045
-421.515	-27.241	0.082	0.062
-420.500	7.635	0.216	0.208
-419.486	311.649	-0.076	-0.183
-418.471	39.285	-0.378	-0.436
-417.457	-149.839	0.074	0.007
-416.442	-61.830	-0.258	-0.139
-415.428	-199.019	-0.197	-0.001
-414.413	21.356	0.148	0.154
-413.398	43.915	0.167	-0.197
-412.384	-99.955	0.459	-0.146
-411.369	800.000	-0.035	0.128
-410.355	-30.350	-0.159	0.116
-409.340	800.000	-0.022	0.127
-408.325	-60.404	-0.403	-0.220
-407.311	-134.920	-0.255	-0.039
-406.296	-200.000	0.005	-0.138
-405.282	-39.650	-0.148	-0.099
-404.267	-131.907	0.193	0.032
-403.252	77.520	0.226	0.310
-402.238	-91.977	0.047	0.017
-401.223	-13.518	-0.338	-0.281
-400.209	-48.893	-0.046	0.028
-399.194	44.834	-0.233	-0.276
-398.179	16.752	0.370	-0.376
-397.165	187.519	0.167	-0.321
-396.150	-4.010	0.224	0.200
-395.136	-32.331	0.172	-0.123
-394.121	-162.411	-0.220	0.014
-393.106	20.811	-0.066	-0.068
-392.092	404.907	0.051	-0.137
-391.077	-38.566	0.134	0.091
-390.063	-99.824	-0.203	-0.065
-389.048	-60.462	0.257	-0.140
-388.033	600.189	-0.053	-0.169
-387.019	800.000	-0.054	-0.264
-386.004	239.147	0.086	0.185
-384.990	-165.835	0.218	-0.012
-383.975	-200.000	-0.023	0.370
-382.960	-108.969	-0.497	-0.135
-381.946	-200.000	0.013	-0.291
-380.931	571.744	-0.143	0.451
-379.917	800.000	-0.127	0.462
-378.902	-29.389	-0.257	0.188
-377.888	-45.229	0.221	-0.141
-376.873	189.168	-0.255	-0.491
-375.858	-85.204	0.475	-0.190
-374.844	111.497	0.257	0.398
-373.829	-120.300	-0.153	0.033
-372.815	337.409	0.088	0.221
-371.800	108.656	-0.019	0.029
-370.785	244.390	-0.184	-0.398
-369.771	56.568	0.343	-0.428
-368.756	-64.311	0.415	0.216
-367.742	-200.000	0.002	-0.051
-366.727	-200.000	0.004	0.396
-365.712	-19.655	0.127	0.101
-364.698	63.299	-0.315	0.405
-363.683	-173.096	0.156	0.006
-362.669	-200.000	-0.016	0.438
-361.654	-129.070	0.374	0.066
-360.639	753.525	-0.075	-0.261
-359.625	43.707	0.109	-0.128
-358.610	-200.000	0.056	-0.441
-357.596	-200.000	-0.031	-0.182
-356.581	-144.527	-0.059	-0.007
-355.566	58.156	0.153	0.193
-354.552	7.356	-0.237	-0.227
-353.537	48.888	0.180	0.216
-352.523	-21.541	0.285	-0.223
-351.508	-200.000	-0.017	0.254
-350.493	-72.414	-0.450	-0.212
-349.479	-10.928	0.221	0.187
-348.464	-109.599	0.164	0.044
-347.450	420.663	0.163	-0.450
-346.435	-126.130	-0.624	-0.119
-345.420	64.001	-0.070	0.090
-344.406	-89.900	-0.325	-0.121
-343.391	33.298	-0.148	0.165
-342.377	125.908	-0.268	0.435
-341.362	43.904	-0.183	-0.215
-340.348	-135.140	0.426	0.065
-339.333	-69.936	-0.241	-0.117
-338.318	-57.625	0.462	-0.259
-337.304	1.886	0.067	0.062
-336.289	800.000	-0.015	-0.084
-335.275	170.629	0.070	0.129
-334.260	-126.490	0.475	-0.090
-333.245	-79.931	-0.393	0.168
-332.231	128.256	-0.451	-0.737
-331.216	-74.630	0.121	0.056
-330.202	14.506	0.189	-0.189
-329.187	130.486	-0.284	0.468
-328.172	-200.000	-0.361	-0.000
-327.158	-74.411	0.231	0.106
-326.143	48.698	0.261	0.314
-325.129	53.447	-0.307	0.378
-324.114	-161.773	0.284	0.018
-323.099	-68.211	0.123	-0.061
-322.085	82.735	0.236	0.329
-321.070	-117.214	-0.482	-0.111
-320.056	-63.534	-0.190	0.099
-319.041	459.240	-0.102	0.291
-318.026	12.989	0.188	-0.186
-317.012	-9.081	0.085	0.072
-315.997	-78.249	-0.140	-0.061
-314.983	420.788	0.010	0.027
-313.968	123.989	-0.131	-0.211
-312.953	503.408	0.089	0.265
-311.939	800.000	0.080	0.305
-310.924	-180.388	0.543	-0.014
-309.910	125.957	0.203	0.330
-308.895	-94.181	0.528	-0.184
-307.880	-152.942	0.434	-0.039
-306.866	-200.000	-0.001	-0.180
-305.851	-75.885	0.113	-0.051
-304.837	-17.109	-0.329	0.265
-303.822	381.391	0.163	0.430
-302.807	-200.000	-0.036	-0.402
-301.793	-200.000	0.087	-0.497
-300.778	-86.825	0.406	-0.158
-299.764	580.164	-0.066	-0.208
-298.749	485.079	0.113	0.332
-297.735	182.505	0.157	0.297
-296.720	-36.452	-0.351	-0.241
-295.705	-147.388	-0.195	0.021
-294.691	-133.831	-0.176	-0.028
-293.676	-52.233	-0.352	-0.208
-292.662	-48.631	-0.396	-0.243
-291.647	-200.000	-0.067	-0.441
-290.632	-10.734	0.384	0.324
-289.618	-200.000	0.051	-0.549
-288.603	-119.299	0.474	0.105
-287.589	2.366	0.228	-0.211
-286.574	13.890	-0.220	-0.219
-285.559	800.000	-0.047	-0.196
-284.545	55.023	0.105	0.130
-283.530	-17.437	0.448	0.360
-282.516	-90.940	-0.276	0.101
-281.501	150.961	-0.395	0.688
-280.486	-102.759	-0.201	-0.061
-279.472	-173.615	-0.412	-0.016
-278.457	-154.687	0.313	-0.026
-277.443	-141.591	0.333	0.042
-276.428	800.000	0.050	-0.191
-275.413	-95.443	0.333	0.114
-274.399	-56.829	0.252	-0.142
-273.384	-200.000	0.064	0.578
-272.370	-200.000	0.066	0.437
-271.355	56.188	-0.109	0.135
-270.340	-62.307	-0.225	-0.119
-269.326	-200.000	0.024	0.153
-268.311	445.216	-0.062	0.175
-267.297	611.523	0.125	-0.402
-266.282	-73.479	0.208	0.096
-265.267	168.989	-0.019	0.035
-264.253	778.700	0.047	-0.165
-263.238	-64.048	0.258	0.134
-262.224	-38.062	-0.256	0.173
-261.209	481.946	-0.110	0.321
-260.195	-100.084	0.219	0.069
-259.180	-200.000	-0.011	0.272
-258.165	-30.868	0.067	-0.049
-257.151	49.829	0.195	0.235
-256.136	273.855	-0.221	-0.502
-255.122	176.908	0.281	-0.524
-254.107	109.480	-0.050	-0.077
-253.092	-118.716	-0.230	0.051
-252.078	-118.082	-0.178	-0.040
-251.063	-6.517	0.092	-0.080
-250.049	277.035	-0.147	0.336
-249.034	800.000	-0.088	-0.380
-248.019	-200.000	-0.044	-0.497
-247.005	-38.285	0.152	-0.103
-245.990	334.396	-0.138	-0.344
-244.976	-51.510	0.046	-0.028
-243.961	800.000	0.038	-0.190
-242.946	-78.069	-0.193	0.085
-241.932	800.000	-0.019	-0.095
-240.917	-7.521	-0.149	-0.129
-239.903	800.000	0.116	0.640
-238.888	800.000	-0.025	0.124
-237.873	514.452	0.099	-0.298
-236.859	-200.000	-0.038	-0.381
-235.844	-200.000	0.001	-0.302
-234.830	800.000	-0.206	-0.744
-233.815	113.473	0.242	0.376
-232.800	484.070	-0.117	0.342
-231.786	41.532	0.447	-0.516
-230.771	-36.207	0.203	0.140
-229.757	79.162	0.077	0.106
-228.742	-104.099	0.283	0.084
-227.727	-89.596	-0.068	0.025
-226.713	-3.420	-0.201	-0.178
-225.698	-99.728	-0.227	0.072
-224.684	-200.000	-0.359	-0.002
-223.669	96.490	0.306	0.448
-222.655	-16.959	0.395	0.318
-221.640	-52.066	0.325	-0.192
-220.625	-116.125	-0.013	-0.003
-219.611	-106.312	0.318	-0.090
-218.596	-118.661	-0.607	-0.136
-217.582	-46.006	-0.186	-0.116
-216.567	-156.671	0.377	-0.029
-215.552	-200.000	-0.023	0.264
-214.538	166.022	0.150	0.271
-213.523	800.000	-0.058	-0.224
-212.509	-105.682	0.146	-0.042
-211.494	-200.000	0.042	-0.307
-210.479	56.834	-0.120	0.150
-209.465	-134.218	0.264	0.041
-208.450	-200.000	0.016	-0.235
-207.436	-13.761	-0.363	0.299
-206.421	-56.219	-0.225	0.127
-205.406	-92.912	0.412	0.146
-204.392	-200.000	0.005	0.147
-203.377	-200.000	-0.028	-0.304
-202.363	-147.686	0.422	0.045
-201.348	-17.916	-0.123	-0.099
-200.333	-77.751	0.117	0.052
-199.319	21.800	-0.403	0.419
-198.304	-63.130	0.342	-0.179
-197.290	-119.476	0.236	0.052
-196.275	-200.000	-0.054	-0.599
-195.260	229.716	-0.271	0.566
-194.246	20.903	0.159	0.164
-193.231	800.000	-0.103	0.462
-192.217	-162.691	0.604	-0.037
-191.202	466.371	0.044	-0.126
-190.187	346.768	-0.181	-0.456
-189.173	-99.499	0.337	0.107
-188.158	-126.661	0.200	0.037
-187.144	800.000	-0.102	-0.393
-186.129	284.331	0.140	0.323
-185.114	-57.876	0.179	0.099
-184.100	-200.000	-0.000	0.609
-183.085	190.972	0.138	-0.266
-182.071	-200.000	-0.058	-0.384
-181.056	-57.201	-0.230	0.129
-180.042	225.104	0.210	-0.435
-179.027	-87.804	-0.533	0.203
-178.012	-56.218	-0.071	0.040
-176.998	800.000	0.102	-0.459
-175.983	-200.000	-0.591	0.000
-174.969	-141.520	-0.753	-0.096
-173.954	-32.005	0.300	-0.213
-172.939	-200.000	0.043	-0.441
-171.925	40.545	-0.167	-0.192
-170.910	683.168	0.090	-0.299
-169.896	-104.052	-0.529	0.156
-168.881	295.612	-0.123	-0.289
-167.866	-146.124	-0.779	0.086
-166.852	-200.000	0.001	0.235
-165.837	-87.379	0.503	-0.193
-164.823	-109.896	0.236	-0.062
-163.808	78.191	-0.253	-0.344
-162.793	71.728	0.121	-0.160
-161.779	-70.989	-0.214	0.102
-160.764	615.607	-0.135	0.433
-159.750	167.554	0.178	0.323
-158.735	-73.870	-0.262	-0.121
-157.720	-156.450	0.372	-0.029
-156.706	-9.587	-0.209	0.178
-155.691	527.016	0.168	-0.505
-154.677	169.264	-0.147	-0.268
-153.662	183.271	-0.167	0.316
-152.647	-23.452	-0.072	-0.055
-151.633	-200.000	-0.010	-0.369
-150.618	-146.538	0.162	0.018
-149.604	18.243	0.149	0.151
-148.589	-34.332	-0.258	0.180
-147.574	348.767	-0.062	-0.157
-146.560	-170.262	0.035	-0.002
-145.545	158.127	0.137	-0.242
-144.531	-200.000	-0.056	0.796
-143.516	-15.389	0.263	0.213
-142.502	-178.444	-0.254	0.007
-141.487	-200.000	0.005	-0.047
-140.472	485.124	-0.037	-0.108
-139.458	59.250	0.381	-0.477
-138.443	-183.367	0.169	-0.004
-137.429	-101.871	0.057	-0.017
-136.414	-88.026	0.240	0.091
-135.399	-200.000	0.125	0.001
-134.385	13.214	-0.168	0.166
-133.370	369.364	-0.165	-0.428
-132.356	-200.000	-0.096	0.608
-131.341	-109.484	0.249	-0.066
-130.326	-90.386	0.523	-0.192
-129.312	9.930	-0.084	-0.081
-128.297	-200.000	0.000	-0.247
-127.283	800.000	0.099	-0.482
-126.268	37.481	-0.375	-0.423
-125.253	38.817	0.071	0.081
-124.239	7.209	-0.163	-0.154
-123.224	-162.692	-0.203	0.012
-122.210	171.097	-0.168	-0.307
-121.195	249.747	-0.200	-0.433
-120.180	-191.269	-0.269	0.003
-119.166	-67.968	0.556	0.275
-118.151	-41.836	-0.131	0.085
-117.137	-191.719	0.213	0.003
-116.122	73.220	0.328	0.437
-115.107	54.953	0.157	-0.193
-114.093	342.456	-0.187	0.467
-113.078	-200.000	-0.632	0.002
-112.064	238.234	0.064	0.135
-111.049	-113.401	0.166	-0.041
-110.034	455.068	-0.148	-0.418
-109.020	96.577	-0.110	-0.161
-108.005	51.582	0.161	-0.194
-106.991	-200.000	-0.003	0.278
-105.976	800.000	-0.121	-0.537
-104.962	-39.722	-0.479	0.318
-103.947	-163.021	0.228	0.014
-102.932	800.000	-0.097	0.474
-101.918	-139.772	-0.119	0.016
-100.903	-150.383	-0.334	0.032
-99.889	-117.368	0.546	0.125
-98.874	-108.056	0.434	-0.119
-97.859	-200.000	-0.059	-0.510
-96.845	-43.807	-0.328	0.209
-95.830	-102.252	-0.312	-0.094
-94.816	54.799	0.152	-0.186
-93.801	-141.102	0.346	0.044
-92.786	-103.998	-0.153	0.045
-91.772	-56.081	-0.360	0.203
-90.757	34.529	-0.347	0.385
-89.743	112.991	0.256	-0.394
-88.728	-140.764	-0.351	-0.045
-87.713	-64.441	0.081	-0.042
-86.699	-200.000	-0.016	-0.405
-85.684	-83.233	-0.105	-0.043
-84.670	103.418	0.121	0.181
-83.655	311.316	-0.183	0.438
-82.640	-31.995	-0.114	0.081
-81.626	800.000	-0.029	0.153
-80.611	-200.000	-0.004	-0.427
-79.597	800.000	-0.049	-0.252
-78.582	-145.333	0.571	0.065
-77.567	10.027	-0.147	0.142
-76.553	-172.799	-0.262	0.010
-75.538	800.000	0.057	-0.233
-74.524	-200.000	-0.033	-0.259
-73.509	417.263	-0.054	-0.147
-72.494	4.553	-0.313	0.291
-71.480	-200.000	-0.050	-0.493
-70.465	30.993	0.262	-0.285
-69.451	205.317	0.042	-0.084
-68.436	94.113	0.119	-0.172
-67.422	77.978	-0.200	-0.271
-66.407	800.000	-0.095	-0.341
-65.392	186.261	-0.292	-0.553
-64.378	-200.000	0.004	-0.289
-63.363	-109.081	0.169	0.045
-62.349	86.197	0.168	0.236
-61.334	3.814	-1.427	-1.321
-60.319	63.919	0.655	0.836
-59.305	203.888	-3.341	-6.580
-58.290	44.347	3.149	3.667
-57.276	444.404	3.714	10.384
-56.261	-200.000	16.228	247.856
-55.246	412.548	1221.913	3307.826
-54.232	57.013	2849.964	3524.833
-53.217	60.063	2726.150	3418.514
-52.203	39.274	2455.074	2786.616
-51.188	39.305	2105.867	2390.529
-50.173	35.418	1978.577	2201.239
-49.159	33.799	1967.506	2170.249
-48.144	33.477	1962.638	2161.100
-47.130	33.497	1959.887	2158.208
-46.115	33.342	1959.194	2155.588
-45.100	33.451	1956.557	2153.855
-44.086	33.396	1955.671	2152.166
-43.071	33.371	1954.582	2150.596
-42.057	33.329	1952.788	2148.052
-41.042	33.400	1951.332	2147.172
-40.027	33.383	1950.345	2145.811
-39.013	33.294	1948.861	2143.082
-37.998	33.265	1946.802	2140.400
-36.984	33.204	1946.478	2139.262
-35.969	33.253	1944.737	2137.829
-34.954	33.208	1943.542	2135.918
-33.940	33.200	1943.207	2135.375
-32.925	33.193	1941.601	2133.444
-31.911	33.202	1940.097	2131.809
-30.896	33.181	1938.670	2129.913
-29.881	33.171	1936.699	2127.550
-28.867	33.042	1935.826	2125.047
-27.852	33.168	1933.904	2124.278
-26.838	33.186	1932.065	2122.377
-25.823	33.142	1931.402	2121.068
-24.809	33.170	1930.212	2119.993
-23.794	33.086	1928.534	2117.128
-22.779	33.056	1927.452	2115.516
-21.765	33.171	1925.920	2115.046
-20.750	33.144	1924.980	2113.619
-19.736	32.958	1924.610	2111.044
-18.721	33.032	1923.276	2110.321
-17.706	33.008	1921.657	2108.200
-16.692	32.943	1919.551	2105.075
-15.677	32.932	1919.676	2105.004
-14.663	32.921	1917.403	2102.303
-13.648	32.981	1915.997	2101.346
-12.633	32.982	1914.593	2099.739
-11.619	32.970	1914.136	2099.017
-10.604	32.888	1911.975	2095.655
-9.590	32.936	1910.724	2094.737
-8.575	32.915	1909.524	2093.096
-7.560	32.808	1909.207	2091.474
-6.546	32.901	1907.033	2090.050
-5.531	32.828	1906.135	2088.173
-4.517	32.956	1905.179	2088.465
-3.502	32.879	1904.616	2086.909
-2.487	33.010	1903.009	2086.512
-1.473	33.017	1899.374	2082.531
-0.458	32.490	1879.023	2054.352
0.556	28.365	2014.402	2141.151
1.571	26.762	2226.336	2345.299
2.586	27.633	2272.312	2405.011
3.600	27.778	2274.332	2408.772
4.615	27.809	2273.624	2408.144
5.629	27.746	2272.481	2405.817
6.644	27.695	2270.022	2402.256
7.659	27.751	2268.012	2400.572
8.673	27.837	2265.795	2399.083
9.688	27.453	2271.992	2400.265
10.702	25.671	2348.188	2456.037
11.717	23.172	2415.486	2490.823
12.731	11.760	2384.767	2298.533
13.746	1.836	2358.083	2133.407
14.761	0.399	2354.316	2109.535
15.775	0.289	2351.445	2105.167
16.790	0.146	2350.414	2101.987
17.804	0.131	2348.622	2099.926
18.819	0.149	2348.120	2099.478
19.834	0.118	2345.870	2096.787
20.848	0.089	2345.570	2095.851
21.863	0.132	2342.375	2093.347
22.877	0.174	2340.605	2092.108
23.892	0.118	2338.698	2089.371
24.907	0.135	2335.907	2086.867
25.921	0.191	2334.536	2086.172
26.936	0.050	2332.893	2082.483
27.950	0.170	2328.805	2080.256
28.965	0.031	2327.027	2076.489
29.980	0.091	2326.300	2076.423
30.994	0.320	2323.804	2077.119
32.009	6.216	2345.011	2178.080
33.023	19.985	2385.811	2409.536
34.038	26.220	2399.042	2510.001
35.053	27.229	2397.208	2521.855
36.067	27.364	2395.552	2521.689
37.082	27.263	2393.040	2517.335
38.096	27.155	2390.868	2513.247
39.111	27.252	2389.315	2512.672
40.126	27.524	2387.133	2513.845
41.140	27.570	2385.903	2512.881
42.155	27.413	2383.253	2507.620
43.169	27.269	2381.435	2503.419
44.184	27.413	2377.896	2501.380
45.199	27.165	2375.799	2495.457
46.213	27.159	2375.898	2495.174
47.228	27.189	2374.377	2493.691
48.242	27.048	2372.888	2489.893
49.257	27.277	2370.516	2490.255
50.271	27.449	2369.401	2491.154
51.286	27.591	2366.720	2489.980
52.301	27.426	2364.333	2484.907
53.315	27.186	2362.931	2479.851
54.330	27.858	2365.106	2491.060
55.344	28.645	2363.594	2499.937
56.359	28.817	2359.357	2497.519
57.374	28.814	2358.246	2495.996
58.388	28.722	2355.462	2491.499
59.403	28.578	2351.538	2485.087
60.417	28.350	2347.480	2477.402
61.432	28.280	2346.821	2475.467
62.447	28.311	2345.303	2473.980
63.461	28.222	2343.937	2471.040
64.476	28.356	2340.304	2468.727
65.490	28.487	2339.722	2469.594
66.505	28.469	2338.260	2467.509
67.520	27.689	2334.672	2452.892
68.534	26.858	2329.070	2435.505
69.549	26.677	2325.956	2429.518
70.563	26.848	2324.097	2429.585
71.578	26.847	2322.662	2427.782
72.593	27.143	2320.887	2429.610
73.607	27.225	2319.920	2429.412
74.622	27.228	2317.656	2426.791
75.636	27.037	2314.779	2420.921
76.651	27.225	2312.010	2420.262
77.666	27.065	2310.497	2416.245
78.680	27.185	2307.857	2414.793
79.695	27.210	2305.298	2412.167
80.709	27.185	2305.067	2411.300
81.724	27.340	2303.922	2411.875
82.739	27.269	2301.907	2408.533
83.753	27.417	2299.640	2407.838
84.768	27.233	2298.451	2403.858
85.782	27.184	2296.976	2401.388
86.797	27.282	2294.688	2400.008
87.812	27.062	2292.097	2394.087
88.826	26.992	2290.348	2391.047
89.841	27.083	2289.111	2390.682
90.855	27.318	2286.269	2390.521
91.870	27.114	2284.186	2385.367
92.884	27.094	2282.458	2383.019
93.899	27.207	2282.122	2383.876
94.914	27.187	2282.632	2383.858
95.928	27.365	2281.720	2384.965
96.943	27.447	2279.519	2383.453
97.957	27.142	2277.131	2376.668
98.972	27.212	2273.395	2373.402
99.987	26.946	2270.286	2366.386
101.001	26.812	2268.206	2362.179
102.016	26.948	2265.927	2361.294
103.030	26.961	2264.082	2359.265
104.045	27.179	2261.678	2359.326
105.060	27.372	2259.931	2359.727
106.074	27.376	2258.748	2358.261
107.089	27.259	2255.824	2353.413
108.103	27.241	2255.293	2352.344
109.118	27.378	2253.826	2352.310
110.133	27.406	2252.163	2350.653
111.147	27.248	2249.950	2346.019
112.162	27.133	2247.805	2342.012
113.176	27.210	2245.282	2340.092
114.191	27.114	2243.339	2336.549
115.206	27.091	2241.474	2334.028
116.220	27.001	2240.387	2331.463
117.235	26.885	2238.196	2327.399
118.249	27.002	2235.842	2326.179
119.264	26.998	2234.824	2324.800
120.279	27.130	2232.868	2324.182
121.293	27.013	2230.750	2320.196
122.308	27.010	2228.507	2317.545
123.322	26.931	2227.410	2315.110
124.337	26.651	2227.005	2310.820
125.352	27.345	2228.625	2321.128
126.366	27.835	2227.727	2326.194
127.381	27.268	2222.385	2313.088
128.395	27.095	2219.598	2307.700
129.410	27.132	2217.875	2306.104
130.424	27.167	2215.125	2303.419
131.439	27.008	2213.813	2299.760
132.454	26.952	2212.498	2297.402
133.468	27.032	2209.856	2295.398
134.483	27.101	2208.294	2294.376
135.497	27.221	2206.369	2293.623
136.512	27.263	2204.743	2292.200
137.527	27.189	2203.954	2290.162
138.541	27.112	2202.741	2287.653
139.556	27.145	2200.758	2285.733
140.570	26.989	2200.041	2282.745
141.585	27.134	2197.975	2282.165
142.600	27.230	2196.363	2281.427
143.614	27.184	2194.709	2278.850
144.629	27.262	2193.033	2277.827
145.643	27.228	2190.779	2274.780
146.658	27.258	2189.507	2273.568
147.673	26.991	2187.369	2267.726
148.687	27.119	2185.932	2267.570
149.702	27.225	2185.087	2267.749
150.716	27.193	2184.544	2266.511
151.731	27.359	2182.547	2266.240
152.746	27.292	2182.534	2265.117
153.760	27.146	2181.398	2261.841
154.775	27.389	2181.201	2264.407
155.789	27.665	2179.170	2265.474
156.804	27.221	2174.776	2255.108
157.819	26.902	2170.825	2246.769
158.833	27.040	2167.918	2245.204
159.848	27.191	2167.124	2245.993
160.862	27.384	2165.689	2246.624
161.877	27.412	2165.401	2246.403
162.892	27.644	2164.528	2248.114
163.906	27.698	2163.394	2247.334
164.921	27.907	2160.489	2246.630
165.935	27.739	2158.811	2242.544
166.950	27.558	2156.796	2237.941
167.964	27.275	2154.853	2232.169
168.979	27.104	2153.291	2228.173
169.994	27.133	2150.794	2225.686
171.008	27.256	2149.266	2225.354
172.023	27.054	2147.710	2220.992
173.037	27.143	2146.667	2220.736
174.052	27.140	2145.560	2219.288
175.067	27.108	2143.266	2216.253
176.081	27.072	2141.394	2213.620
177.096	27.065	2140.689	2212.540
178.110	27.002	2138.944	2209.696
179.125	27.140	2136.969	2209.078
180.140	27.195	2136.296	2208.796
181.154	27.262	2135.282	2208.299
182.169	27.159	2133.915	2205.366
183.183	27.208	2132.710	2204.453
184.198	27.855	2133.222	2212.596
185.213	27.848	2131.378	2210.333
186.227	27.195	2128.585	2199.233
187.242	26.863	2126.255	2192.537
188.256	26.837	2123.398	2189.003
189.271	27.292	2122.659	2193.500
190.286	27.253	2120.254	2190.279
191.300	27.062	2117.022	2184.368
192.315	27.072	2115.576	2182.741
193.329	27.284	2115.561	2185.025
194.344	27.481	2114.111	2185.640
195.359	27.518	2113.645	2185.344
196.373	27.600	2111.706	2184.069
197.388	27.499	2109.304	2180.100
198.402	27.271	2106.472	2174.172
199.417	27.360	2105.235	2173.711
200.432	27.380	2103.530	2171.921
201.446	27.393	2101.814	2170.046
202.461	27.317	2099.234	2166.221
203.475	27.097	2098.017	2162.066
204.490	26.990	2096.074	2158.536
205.504	27.014	2093.222	2155.626
206.519	27.070	2092.059	2154.838
207.534	27.277	2090.162	2155.088
208.548	27.327	2089.842	2155.094
209.563	27.009	2086.691	2147.813
210.577	27.067	2085.902	2147.424
211.592	27.372	2085.859	2150.748
212.607	27.269	2085.676	2149.079
213.621	27.180	2085.549	2147.636
214.636	27.167	2083.121	2144.722
215.650	26.997	2080.106	2139.355
216.665	27.275	2078.035	2140.250
217.680	27.480	2076.535	2140.876
218.694	27.530	2075.338	2139.978
219.709	27.380	2073.834	2136.392
220.723	27.333	2073.834	2135.587
221.738	27.622	2071.063	2135.880
222.753	27.479	2069.089	2131.912
223.767	27.333	2066.412	2127.182
224.782	27.145	2065.013	2123.274
225.796	27.249	2063.322	2122.499
226.811	27.339	2063.135	2123.108
227.826	27.448	2061.992	2122.959
228.840	27.436	2059.962	2120.477
229.855	27.319	2058.167	2117.012
230.869	27.192	2055.231	2112.247
231.884	26.967	2054.441	2108.562
232.899	27.090	2052.447	2107.697
233.913	27.248	2051.081	2107.875
234.928	27.348	2050.496	2108.196
235.942	27.263	2049.459	2105.888
236.957	27.239	2047.731	2103.581
237.972	27.228	2045.812	2101.226
238.986	27.209	2044.527	2099.437
240.001	27.003	2043.343	2095.571
241.015	26.852	2041.842	2092.033
242.030	27.137	2041.341	2094.572
243.045	27.781	2042.399	2102.866
244.059	27.977	2040.375	2102.800
245.074	27.527	2036.248	2093.106
246.088	27.193	2033.147	2085.810
247.103	27.257	2031.346	2084.453
248.117	27.358	2030.033	2084.022
249.132	27.268	2028.360	2081.016
250.147	27.298	2026.211	2078.911
251.161	27.200	2025.610	2076.912
252.176	27.330	2023.412	2075.904
253.190	27.191	2020.989	2071.579
254.205	27.236	2018.481	2069.280
255.220	27.373	2018.131	2070.238
256.234	27.145	2017.114	2066.341
257.249	27.106	2016.150	2064.657
258.263	27.146	2015.153	2063.845
259.278	27.254	2014.026	2063.681
260.293	27.288	2012.610	2062.371
261.307	27.176	2010.913	2059.106
262.322	27.131	2008.420	2055.796
263.336	27.077	2006.690	2053.161
264.351	26.894	2006.024	2050.155
265.366	27.107	2004.383	2050.654
266.380	27.158	2002.633	2049.191
267.395	26.910	2001.374	2044.857
268.409	26.953	1999.827	2043.513
269.424	27.172	1998.467	2044.357
270.439	27.292	1998.088	2045.077
271.453	27.440	1996.627	2045.015
272.468	27.787	1996.227	2048.273
273.482	27.664	1994.216	2044.582
274.497	27.212	1990.097	2035.030
275.512	27.197	1988.088	2032.559
276.526	27.311	1984.809	2030.247
277.541	27.214	1983.188	2027.253
278.555	26.972	1981.586	2022.662
279.570	26.910	1979.277	2019.367
280.585	26.880	1978.278	2017.775
281.599	26.871	1977.478	2016.616
282.614	27.031	1976.589	2017.255
283.628	27.415	1976.263	2020.965
284.643	27.497	1976.001	2021.368
285.657	27.546	1974.055	2019.688
286.672	27.388	1972.683	2016.275
287.687	27.164	1970.059	2010.867
288.701	27.200	1967.710	2008.622
289.716	27.098	1966.351	2005.866
290.730	27.115	1965.683	2005.133
291.745	27.186	1964.535	2004.506
292.760	27.306	1963.766	2004.817
293.774	27.195	1961.992	2001.538
294.789	27.288	1961.104	2001.417
295.803	27.469	1959.332	2001.372
296.818	27.307	1957.206	1997.173
297.833	27.307	1956.562	1996.273
298.847	27.257	1955.012	1993.904
299.862	27.415	1953.137	1993.496
300.876	27.306	1952.322	1991.218
301.891	27.811	1953.094	1997.322
302.906	28.142	1952.313	1999.931
303.920	27.554	1949.068	1989.911
304.935	27.335	1946.683	1984.834
305.949	27.393	1944.345	1982.850
306.964	27.549	1943.134	1983.092
307.979	27.362	1940.951	1978.582
308.993	27.109	1937.930	1972.502
310.008	27.058	1936.681	1970.442
311.022	27.345	1936.002	1972.637
312.037	27.280	1935.810	1971.504
313.052	27.294	1932.562	1968.111
314.066	27.063	1930.777	1963.540
315.081	27.179	1930.084	1963.868
316.095	27.251	1929.237	1963.554
317.110	27.070	1926.668	1958.735
318.125	27.088	1924.953	1956.952
319.139	27.055	1923.901	1955.296
320.154	27.215	1923.321	1956.203
321.168	27.097	1921.513	1952.856
322.183	27.253	1920.001	1952.767
323.197	27.458	1919.166	1953.892
324.212	27.355	1917.457	1950.813
325.227	27.117	1915.654	1946.181
326.241	27.097	1913.963	1944.011
327.256	27.192	1912.687	1943.505
328.270	27.176	1912.476	1942.883
329.285	27.295	1910.941	1942.378
330.300	27.212	1911.771	1942.091
331.314	27.465	1911.704	1944.505
332.329	27.713	1908.874	1944.057
333.343	27.277	1905.720	1935.946
334.358	27.324	1902.964	1933.414
335.373	27.411	1902.377	1933.518
336.387	27.439	1900.466	1931.638
337.402	27.242	1898.360	1927.171
338.416	27.201	1896.695	1924.814
339.431	27.198	1895.899	1923.744
340.446	27.451	1895.197	1925.492
341.460	27.449	1892.753	1922.758
342.475	27.636	1891.245	1922.973
343.489	27.371	1888.771	1917.427
344.504	26.991	1888.743	1913.145
345.519	27.200	1886.286	1912.633
346.533	27.154	1884.157	1909.760
347.548	27.173	1883.065	1908.625
348.562	27.241	1881.810	1907.841
349.577	27.208	1881.419	1906.869
350.592	27.482	1880.521	1908.615
351.606	27.491	1879.801	1907.758
352.621	27.341	1877.703	1903.817
353.635	27.342	1876.009	1901.885
354.650	27.145	1874.700	1898.261
355.665	27.007	1872.846	1894.706
356.679	27.105	1871.932	1894.588
357.694	27.292	1871.399	1895.775
358.708	27.344	1869.701	1894.380
359.723	27.582	1869.422	1896.356
360.738	27.801	1869.571	1898.573
361.752	27.720	1867.570	1895.468
362.767	27.392	1864.557	1888.761
363.781	27.355	1861.410	1884.959
364.796	27.539	1860.380	1885.610
365.810	27.506	1859.063	1883.702
366.825	27.201	1858.126	1879.357
367.840	27.141	1856.309	1876.674
368.854	27.161	1855.138	1875.474
369.869	27.116	1853.807	1873.432
370.883	27.321	1851.355	1872.856
371.898	27.041	1850.957	1869.333
372.913	27.231	1849.023	1869.123
373.927	27.149	1847.881	1866.891
374.942	27.192	1847.107	1866.334
375.956	27.033	1846.372	1863.725
376.971	26.959	1843.836	1860.181
377.986	27.037	1841.493	1858.394
379.000	27.301	1841.333	1860.729
380.015	27.221	1840.873	1859.220
381.029	27.258	1837.960	1856.436
382.044	27.404	1835.708	1855.436
383.059	27.448	1834.769	1854.716
384.073	27.179	1833.850	1850.807
385.088	27.081	1833.189	1848.915
386.102	27.248	1831.703	1848.906
387.117	27.383	1829.731	1848.065
388.132	27.478	1828.871	1847.952
389.146	27.399	1829.390	1847.444
390.161	27.606	1828.912	1848.851
391.175	27.659	1824.776	1844.993
392.190	27.232	1820.404	1836.017
393.205	26.973	1818.705	1831.451
394.219	27.273	1817.081	1832.636
395.234	27.153	1815.845	1829.957
396.248	27.076	1813.620	1826.721
397.263	27.090	1812.137	1825.148
398.278	26.857	1810.015	1820.442
399.292	26.837	1809.024	1819.031
400.307	27.212	1809.442	1823.009
401.321	27.367	1807.798	1822.694
402.336	27.274	1806.549	1820.284
403.350	27.276	1804.272	1817.792
404.365	27.268	1804.537	1817.762
405.380	27.364	1801.877	1815.822
406.394	27.081	1800.570	1811.454
407.409	27.046	1799.723	1810.033
408.423	27.267	1797.297	1809.587
409.438	27.050	1797.188	1807.096
410.453	27.110	1796.428	1806.712
411.467	27.308	1795.088	1807.127
412.482	27.166	1793.624	1804.016
413.496	27.329	1793.065	1804.864
414.511	27.207	1791.297	1801.653
415.526	27.320	1788.346	1799.594
416.540	27.425	1787.943	1800.014
417.555	27.258	1786.280	1796.473
418.569	27.057	1786.033	1794.006
419.584	27.254	1785.778	1795.492
420.599	27.351	1784.482	1794.940
421.613	27.333	1782.912	1792.966
422.628	27.077	1781.529	1788.824
423.642	27.208	1780.872	1789.245
424.657	26.993	1777.601	1783.622
425.672	26.722	1775.533	1778.661
426.686	26.853	1775.426	1779.639
427.701	27.004	1774.529	1780.010
428.715	27.209	1772.341	1779.622
429.730	27.342	1771.773	1780.150
430.745	27.509	1770.669	1780.469
431.759	27.255	1770.141	1777.229
432.774	26.828	1768.749	1771.420
433.788	25.850	1765.331	1758.198
434.803	25.392	1762.753	1750.936
435.818	25.351	1762.041	1749.615
436.832	25.323	1761.816	1748.915
437.847	24.491	1754.569	1733.387
438.861	15.314	1727.674	1618.020
439.876	3.331	1704.958	1481.280
440.890	0.462	1699.546	1448.736
441.905	0.229	1699.092	1445.925
442.920	0.231	1696.936	1443.931
443.934	0.178	1695.542	1442.065
444.949	0.211	1694.728	1441.517
445.963	0.263	1693.465	1440.767
446.978	0.096	1693.480	1439.002
447.993	0.135	1691.843	1437.813
449.007	0.170	1689.467	1435.965
450.022	0.209	1687.356	1434.365
451.036	0.185	1686.009	1432.825
452.051	1.605	1692.219	1451.548
453.066	12.216	1717.966	1576.354
454.080	23.201	1735.684	1699.013
455.095	25.681	1741.053	1728.033
456.109	27.046	1742.298	1742.234
457.124	27.410	1741.281	1744.517
458.139	27.448	1740.484	1743.875
459.153	27.394	1739.829	1742.492
460.168	27.356	1737.339	1739.420
461.182	27.333	1735.659	1737.311
462.197	27.334	1733.809	1735.258
463.212	27.207	1731.725	1731.749
464.226	27.258	1730.692	1731.003
465.241	27.554	1730.189	1733.119
466.255	27.545	1729.971	1732.610
467.270	27.602	1728.411	1731.386
468.285	27.545	1726.206	1728.421
469.299	27.592	1724.836	1727.294
470.314	27.671	1723.489	1726.484
471.328	27.647	1722.010	1724.575
472.343	27.641	1721.684	1723.980
473.358	27.556	1720.534	1721.814
474.372	27.600	1718.644	1720.133
475.387	27.508	1717.140	1717.554
476.401	27.328	1714.993	1713.492
477.416	27.125	1713.737	1710.113
478.430	27.179	1712.950	1709.640
479.445	27.326	1711.656	1709.526
480.460	27.215	1710.692	1707.313
481.474	27.307	1710.204	1707.485
482.489	27.438	1708.986	1707.306
483.503	27.459	1706.914	1705.228
484.518	27.547	1705.380	1704.316
485.533	27.441	1704.737	1702.473
486.547	27.334	1702.724	1699.262
487.562	27.526	1701.898	1700.033
488.576	27.718	1700.419	1700.150
489.591	27.712	1699.396	1698.869
490.606	27.623	1698.471	1696.906
491.620	27.721	1695.628	1694.777
492.635	27.814	1694.140	1693.957
493.649	27.694	1692.781	1691.278
494.664	27.451	1691.571	1687.601
495.679	27.331	1689.862	1684.581
496.693	27.433	1689.269	1684.732
497.708	27.737	1688.171	1686.265
498.722	27.811	1688.125	1686.703
499.737	27.982	1687.292	1687.255
500.752	28.032	1684.624	1684.842
501.766	27.806	1682.609	1680.537
502.781	27.804	1681.894	1679.609
503.795	27.780	1681.002	1678.289
504.810	27.748	1679.889	1676.686
505.825	27.986	1679.081	1677.869
506.839	27.794	1677.869	1674.692
507.854	27.760	1675.827	1672.134
508.868	27.830	1674.149	1670.906
509.883	27.697	1673.184	1668.519
510.898	27.796	1671.812	1667.862
511.912	27.716	1669.876	1665.002
512.927	27.487	1668.359	1661.192
513.941	27.670	1666.194	1660.504
514.956	27.593	1665.671	1659.088
515.971	27.739	1664.765	1659.320
516.985	27.726	1663.673	1657.909
518.000	27.774	1662.676	1657.154
519.014	27.742	1662.843	1656.837
520.029	27.901	1660.947	1656.196
521.043	27.822	1659.433	1653.771
522.058	27.675	1658.107	1650.909
523.073	27.837	1656.852	1650.941
524.087	28.107	1656.300	1652.646
525.102	27.962	1654.745	1649.575
526.116	27.731	1653.447	1645.992
527.131	27.713	1652.485	1644.669
528.146	28.091	1651.390	1646.812
529.160	28.196	1650.515	1646.688
530.175	28.167	1649.581	1645.301
531.189	28.271	1649.384	1645.841
532.204	28.324	1646.891	1643.641
533.219	28.163	1645.513	1640.610
534.233	27.720	1643.576	1634.494
535.248	27.886	1642.423	1634.650
536.262	27.762	1642.873	1633.783
537.277	27.966	1642.013	1634.565
538.292	27.957	1639.919	1632.209
539.306	27.765	1637.976	1628.362
540.321	27.787	1636.033	1626.427
541.335	27.607	1634.633	1623.229
542.350	27.803	1633.467	1623.631
543.365	28.179	1632.756	1626.091
544.379	28.258	1631.831	1625.683
545.394	28.310	1630.556	1624.675
546.408	27.924	1628.192	1618.688
547.423	27.611	1626.891	1614.418
548.438	27.761	1626.275	1614.945
549.452	28.013	1624.832	1615.556
550.467	27.761	1624.351	1612.649
551.481	27.928	1623.409	1613.003
552.496	28.102	1622.738	1613.688
553.511	28.519	1621.262	1615.724
554.525	28.379	1620.045	1613.075
555.540	28.409	1619.628	1612.733
556.554	28.499	1618.207	1611.917
557.569	28.437	1616.103	1609.083
558.583	28.105	1614.336	1604.207
559.598	28.008	1613.713	1602.539
560.613	28.162	1612.829	1602.827
561.627	28.107	1611.603	1600.928
562.642	28.262	1610.262	1600.767
563.656	28.194	1609.793	1599.511
564.671	28.344	1608.058	1598.912
565.686	28.399	1606.067	1597.226
566.700	28.138	1605.008	1593.696
567.715	28.111	1603.236	1591.515
568.729	28.137	1601.895	1590.220
569.744	28.043	1600.144	1587.465
570.759	28.237	1599.297	1588.130
571.773	28.234	1598.947	1587.563
572.788	28.419	1598.011	1588.058
573.802	28.375	1596.074	1585.558
574.817	28.257	1595.239	1583.514
575.832	28.482	1593.641	1583.688
576.846	28.517	1591.717	1581.898
577.861	28.413	1590.315	1579.412
578.875	28.466	1590.044	1579.415
579.890	28.575	1589.557	1579.684
580.905	28.595	1588.661	1578.774
581.919	28.781	1587.858	1579.393
582.934	28.821	1587.843	1579.541
583.948	28.709	1586.004	1576.555
584.963	28.696	1584.123	1574.387
585.978	28.239	1582.908	1569.046
586.992	28.272	1581.286	1567.536
588.007	28.554	1580.659	1569.155
589.021	28.134	1578.746	1563.459
590.036	27.486	1576.832	1555.818
591.051	27.936	1576.851	1559.507
592.065	28.381	1575.369	1561.672
593.080	28.612	1574.358	1562.459
594.094	28.758	1572.692	1561.863
595.109	28.354	1569.844	1555.406
596.123	28.109	1568.797	1552.091
597.138	28.394	1568.106	1553.650
598.153	28.460	1567.163	1553.090
599.167	28.371	1565.235	1550.240
600.182	28.248	1565.040	1548.819
601.196	28.548	1564.439	1550.582
602.211	28.576	1563.327	1549.536
603.226	28.834	1561.651	1549.875
604.240	28.864	1560.478	1548.780
605.255	29.024	1560.104	1549.576
606.269	28.863	1559.366	1547.295
607.284	28.936	1557.753	1546.130
608.299	28.863	1556.387	1543.975
609.313	28.646	1554.894	1540.477
610.328	28.516	1554.359	1538.662
611.342	28.725	1552.270	1538.168
612.357	28.773	1551.051	1537.180
613.372	28.841	1550.196	1536.725
614.386	28.832	1548.798	1535.079
615.401	28.909	1548.322	1535.070
616.415	28.745	1548.333	1533.524
617.430	28.841	1547.102	1532.920
618.445	29.032	1545.357	1532.608
619.459	28.855	1544.478	1530.075
620.474	28.756	1542.908	1527.509
621.488	28.446	1541.616	1523.454
622.503	28.128	1540.106	1519.126
623.518	28.704	1539.779	1523.429
624.532	28.973	1538.863	1524.581
625.547	29.082	1537.550	1524.002
626.561	29.124	1537.379	1523.999
627.576	29.195	1536.340	1523.375
628.591	29.101	1534.486	1520.575
629.605	29.005	1532.913	1518.045
630.620	28.895	1531.313	1515.363
631.634	28.648	1530.347	1512.185
632.649	28.847	1529.876	1513.179
633.663	29.183	1529.074	1514.982
634.678	29.281	1528.117	1514.667
635.693	29.406	1526.862	1514.272
636.707	29.280	1524.919	1511.128
637.722	29.423	1524.197	1511.407
638.736	29.306	1522.836	1508.916
639.751	29.384	1521.295	1507.849
640.766	29.314	1519.621	1505.430
641.780	29.190	1518.911	1503.533
642.795	29.170	1517.398	1501.690
643.809	29.287	1517.160	1502.236
644.824	29.346	1516.466	1501.851
645.839	29.205	1515.381	1499.439
646.853	29.245	1513.899	1498.121
647.868	29.123	1512.060	1495.125
648.882	29.056	1510.874	1493.227
649.897	28.859	1509.654	1490.240
650.912	28.891	1508.154	1488.840
651.926	29.114	1507.185	1489.521
652.941	28.969	1505.318	1486.323
653.955	28.514	1503.105	1480.266
654.970	27.904	1500.926	1472.998
655.985	28.039	1499.294	1472.315
656.999	28.088	1498.518	1471.775
658.014	28.267	1498.494	1473.019
659.028	28.737	1497.852	1476.014
660.043	29.150	1497.049	1478.380
661.058	29.172	1496.169	1477.508
662.072	29.124	1495.503	1476.287
663.087	28.884	1494.342	1473.034
664.101	28.855	1492.560	1470.867
665.116	28.870	1492.408	1470.658
666.131	29.040	1491.409	1470.868
667.145	29.146	1490.319	1470.463
668.160	29.364	1488.999	1470.732
669.174	29.542	1487.559	1470.560
670.189	29.575	1485.569	1468.681
671.204	29.235	1485.303	1465.528
672.218	29.329	1485.046	1465.845
673.233	29.443	1484.050	1465.597
674.247	29.819	1482.503	1466.895
675.262	29.742	1482.232	1465.836
676.276	29.681	1480.441	1463.402
677.291	29.419	1479.672	1460.387
678.306	29.263	1478.622	1457.932
679.320	29.160	1476.877	1455.219
680.335	29.268	1476.263	1455.299
681.349	29.420	1475.525	1455.600
682.364	29.471	1474.912	1455.226
683.379	29.529	1473.057	1453.681
684.393	29.388	1471.600	1450.954
685.408	29.489	1469.984	1449.982
686.422	29.246	1469.753	1447.666
687.437	29.341	1469.530	1448.024
688.452	29.497	1468.957	1448.516
689.466	29.529	1466.960	1446.628
690.481	29.572	1465.754	1445.597
691.495	29.433	1464.863	1443.458
692.510	29.258	1463.041	1440.114
693.525	29.089	1460.769	1436.381
694.539	29.188	1459.939	1436.171
695.554	29.558	1460.145	1439.098
696.568	29.632	1459.438	1438.807
697.583	29.527	1458.602	1436.993
698.598	29.725	1457.576	1437.353
699.612	29.696	1455.876	1435.280
700.627	29.734	1454.685	1434.229
701.641	29.675	1453.716	1432.642
702.656	29.464	1453.480	1430.598
703.671	29.676	1453.341	1431.938
704.685	29.786	1452.434	1431.725
705.700	29.750	1450.223	1429.100
706.714	29.421	1448.457	1424.635
707.729	29.239	1447.057	1421.672
708.744	29.238	1445.691	1420.155
709.758	29.368	1444.219	1419.544
710.773	28.935	1442.258	1414.101
711.787	28.701	1440.637	1410.535
712.802	29.064	1439.947	1412.495
713.816	29.302	1439.908	1414.120
714.831	29.395	1439.296	1414.065
715.846	29.745	1438.670	1415.977
716.860	29.938	1436.775	1415.425
717.875	29.635	1435.700	1411.869
718.889	29.440	1434.211	1408.744
719.904	29.473	1433.585	1408.214
720.919	29.477	1432.701	1407.205
721.933	29.622	1432.410	1407.866
722.948	29.679	1431.036	1406.781
723.962	29.749	1429.299	1405.435
724.977	29.728	1428.623	1404.444
725.992	29.854	1427.985	1404.608
727.006	29.866	1426.612	1403.187
728.021	29.799	1425.217	1401.132
729.035	29.894	1424.270	1400.759
730.050	29.953	1423.249	1400.032
731.065	29.860	1421.969	1397.904
732.079	29.991	1421.135	1397.905
733.094	29.946	1420.079	1396.364
734.108	29.784	1418.223	1393.144
735.123	29.960	1416.811	1392.918
736.138	29.787	1415.878	1390.525
737.152	29.863	1415.479	1390.544
738.167	29.870	1414.587	1389.558
739.181	30.005	1413.184	1389.027
740.196	30.080	1412.121	1388.379
741.211	29.876	1411.891	1386.450
742.225	29.782	1411.009	1384.714
743.240	29.853	1409.362	1383.467
744.254	29.912	1407.956	1382.358
745.269	29.836	1406.428	1380.128
746.284	29.697	1406.212	1378.706
747.298	29.725	1405.093	1377.654
748.313	29.779	1403.667	1376.500
749.327	29.583	1402.762	1373.977
750.342	29.248	1402.156	1370.716
751.356	29.159	1400.515	1368.283
752.371	29.226	1398.910	1367.052
753.386	29.600	1398.759	1369.524
754.400	29.782	1397.661	1369.644
755.415	30.080	1396.597	1370.657
756.429	30.058	1395.342	1369.095
757.444	29.858	1394.993	1367.099
758.459	29.881	1394.029	1366.165
759.473	29.914	1392.336	1364.589
760.488	30.005	1390.864	1363.656
761.502	29.881	1389.736	1361.465
762.517	29.972	1388.751	1361.010
763.532	29.809	1387.804	1358.716
764.546	29.722	1385.835	1355.985
765.561	29.204	1383.880	1350.099
766.575	28.635	1381.999	1343.916
767.590	28.518	1381.247	1342.159
768.605	29.156	1381.360	1346.802
769.619	29.586	1380.598	1349.055
770.634	29.713	1379.627	1348.879
771.648	29.799	1378.381	1348.126
772.663	29.913	1378.181	1348.603
773.678	29.894	1377.967	1348.094
774.692	30.040	1376.457	1347.522
775.707	30.134	1375.646	1347.258
776.721	30.050	1375.622	1346.458
777.736	30.152	1373.965	1345.418
778.751	30.094	1372.954	1343.845
779.765	30.004	1372.328	1342.411
780.780	30.016	1371.023	1341.068
781.794	30.096	1370.469	1340.947
782.809	29.925	1369.149	1338.249
783.824	29.703	1368.277	1335.622
784.838	29.703	1366.230	1333.466
785.853	29.544	1364.928	1330.888
786.867	29.595	1364.884	1331.054
787.882	29.901	1364.565	1332.794
788.897	29.808	1363.803	1331.222
789.911	29.687	1362.952	1329.356
790.926	29.885	1360.886	1328.607
791.940	29.867	1359.513	1326.980
792.955	29.780	1358.387	1325.098
793.969	29.940	1356.899	1324.636
794.984	29.937	1357.083	1324.637
795.999	29.981	1356.144	1323.878
797.013	30.134	1354.158	1322.877
798.028	30.114	1353.050	1321.493
799.042	30.030	1352.368	1320.066
800.057	30.076	1351.500	1319.390
801.072	30.028	1350.055	1317.481
802.086	30.009	1348.881	1316.042
803.101	30.122	1347.842	1315.673
804.115	30.052	1347.081	1314.276
805.130	30.301	1345.406	1314.259
806.145	30.069	1344.242	1311.315
807.159	29.957	1343.435	1309.577
808.174	30.035	1341.835	1308.413
809.188	29.920	1340.723	1306.357
810.203	29.815	1339.118	1303.888
811.218	29.474	1337.460	1299.704
812.232	29.192	1335.604	1295.752
813.247	28.911	1334.402	1292.449
814.261	29.382	1335.063	1296.264
815.276	29.898	1335.086	1299.774
816.291	29.901	1333.174	1297.777
817.305	29.813	1332.706	1296.547
818.320	29.890	1330.890	1295.165
819.334	30.049	1330.188	1295.446
820.349	30.102	1329.492	1294.985
821.364	30.174	1327.330	1293.225
822.378	30.155	1326.521	1292.152
823.393	30.084	1324.591	1289.618
824.407	29.999	1323.965	1288.261
825.422	29.978	1323.439	1287.449
826.437	29.888	1322.352	1285.611
827.451	30.096	1320.192	1284.804
828.466	29.640	1318.780	1280.105
829.480	29.581	1317.473	1278.274
830.495	29.772	1315.336	1277.373
831.509	29.668	1314.395	1275.586
832.524	29.823	1314.498	1276.606
833.539	29.849	1313.674	1275.835
834.553	29.835	1312.507	1274.447
835.568	29.884	1310.646	1272.828
836.582	30.166	1309.122	1273.146
837.597	30.093	1308.161	1271.549
838.612	29.853	1307.356	1268.966
839.626	29.903	1305.597	1267.450
840.641	29.845	1304.516	1265.851
841.655	29.574	1303.451	1262.799
842.670	29.068	1301.747	1257.527
843.685	28.537	1300.345	1252.375
844.699	29.220	1299.298	1255.898
845.714	29.687	1298.758	1258.425
846.728	29.650	1298.511	1257.785
847.743	29.668	1297.734	1257.004
848.758	29.821	1296.672	1256.869
849.772	29.891	1295.538	1256.093
850.787	29.997	1293.904	1255.080
851.801	29.921	1292.938	1253.478
852.816	29.789	1292.367	1251.876
853.831	29.888	1290.412	1250.507
854.845	29.981	1288.223	1248.868
855.860	29.890	1286.652	1246.575
856.874	29.622	1286.502	1244.468
857.889	29.711	1285.441	1243.896
858.904	29.791	1283.712	1242.611
859.918	29.709	1281.466	1239.740
860.933	29.572	1279.557	1236.820
861.947	29.566	1279.850	1236.918
862.962	29.508	1279.320	1235.862
863.977	29.640	1277.768	1235.107
864.991	29.751	1277.222	1235.173
866.006	29.590	1277.184	1233.908
867.020	29.774	1275.064	1232.943
868.035	29.928	1274.078	1232.873
869.049	29.978	1273.558	1232.559
870.064	29.905	1272.668	1231.065
871.079	29.910	1271.544	1229.858
872.093	29.847	1270.747	1228.522
873.108	29.702	1269.681	1226.380
874.122	29.696	1268.221	1224.785
875.137	29.382	1267.706	1222.043
876.152	29.225	1266.415	1219.614
877.166	29.337	1264.959	1218.809
878.181	29.364	1263.716	1217.643
879.195	29.531	1263.201	1218.106
880.210	29.650	1262.541	1218.116
881.225	29.786	1260.865	1217.252
882.239	29.712	1260.687	1216.443
883.254	29.718	1260.221	1215.889
884.268	29.994	1258.646	1216.048
885.283	29.915	1257.242	1214.025
886.298	29.881	1256.145	1212.595
887.312	29.964	1255.112	1211.997
888.327	29.903	1254.320	1210.686
889.341	29.730	1252.185	1207.348
890.356	29.658	1251.889	1206.445
891.371	29.657	1251.520	1205.937
892.385	29.521	1251.306	1204.696
893.400	29.562	1250.161	1203.719
894.414	29.640	1248.177	1202.176
895.429	29.595	1246.376	1200.003
896.444	29.284	1244.672	1196.186
897.458	28.999	1243.588	1193.149
898.473	29.274	1243.164	1194.388
899.487	29.575	1242.756	1195.813
900.502	29.363	1241.645	1193.220
901.517	29.512	1240.460	1192.908
902.531	29.626	1239.297	1192.383
903.546	29.667	1238.713	1191.949
904.560	29.777	1238.202	1192.023
905.575	29.812	1236.868	1190.823
906.589	29.609	1236.163	1188.693
907.604	29.531	1235.354	1187.269
