DTS Sentinel unit serial number:	SN409020Multiplexer serial number:	ORYXHardware model number:	OX4-SRSoftware version number:	ORYX F/W v3.00 Oryx Data Collector v3.7.2.0data status	okinstallation	HaddamTimeLapsedifferential loss correction	single-endedforward channel	channel 3reverse channel	N/Adate	2011/06/22time	06:46:17forward acquisition time	30.00reverse acquisition time	0.00gamma	498.7831k internal	0.1752k external	0.1752temperature offset calibration	1.0074default loss term (dB/km)	0.3790temperature slope calibration	1.3530multiplexer offset coefficient	1.0000multiplexer slope coefficient	1.0000fibre end	0.00T internal ref (°C)	22.69T ext. ref 1 (°C)	18.70T ext. ref 2 (°C)	0.25length (m)	temperature (°C)	Stokes	anti-Stokes-747.200	-104.193	-0.374	0.115
-746.185	24.181	-0.066	0.072
-745.171	-174.269	-0.212	-0.008
-744.156	-200.000	-0.011	0.464
-743.142	7.134	0.070	0.069
-742.127	88.684	-0.110	0.163
-741.112	800.000	-0.007	0.033
-740.098	-65.776	0.245	0.130
-739.083	-107.272	-0.111	-0.032
-738.069	-200.000	0.028	0.516
-737.054	227.302	-0.058	0.125
-736.039	-118.068	-0.106	-0.025
-735.025	-74.341	0.419	0.200
-734.010	38.977	-0.309	0.366
-732.996	112.255	0.258	0.415
-731.981	21.473	-0.168	0.181
-730.966	-10.778	-0.057	0.050
-729.952	-52.103	0.542	0.333
-728.937	124.272	-0.114	-0.191
-727.923	-105.316	-0.404	-0.121
-726.908	800.000	-0.159	-0.709
-725.894	-122.946	-0.695	-0.147
-724.879	-54.613	0.268	0.160
-723.864	-144.664	0.366	0.044
-722.850	-14.076	0.354	0.302
-721.835	-0.988	-0.090	-0.084
-720.821	192.930	-0.124	0.249
-719.806	-77.384	0.112	-0.051
-718.791	351.959	0.178	0.468
-717.777	487.147	0.132	0.400
-716.762	-22.784	0.100	0.080
-715.748	-200.000	-0.025	0.367
-714.733	-95.588	0.230	-0.081
-713.718	158.931	-0.137	-0.254
-712.704	-121.969	0.267	-0.058
-711.689	106.174	0.262	-0.411
-710.675	-154.737	-0.597	0.052
-709.660	25.680	0.425	-0.469
-708.645	-32.066	0.136	0.101
-707.631	-137.307	0.667	-0.099
-706.616	-102.890	0.236	0.074
-705.602	556.882	-0.067	0.215
-704.587	78.088	-0.190	0.269
-703.572	196.471	-0.052	-0.105
-702.558	-89.980	-0.395	0.152
-701.543	-155.223	0.400	-0.034
-700.529	33.580	-0.180	-0.207
-699.514	-200.000	-0.016	-0.252
-698.499	-184.595	0.530	0.011
-697.485	0.837	-0.393	-0.373
-696.470	-148.896	0.170	0.018
-695.456	29.584	-0.045	0.050
-694.441	-61.419	-0.086	-0.048
-693.426	-102.016	0.393	-0.125
-692.412	-37.864	-0.314	-0.220
-691.397	800.000	0.107	-0.456
-690.383	-31.242	-0.261	-0.195
-689.368	-95.702	-0.594	0.209
-688.354	173.927	-0.095	-0.182
-687.339	-6.050	0.249	0.225
-686.324	-200.000	0.048	0.387
-685.310	800.000	0.050	-0.275
-684.295	-126.097	-0.307	-0.061
-683.281	-136.145	-0.239	0.037
-682.266	-200.000	0.027	0.284
-681.251	16.786	0.072	0.075
-680.237	-200.000	-0.011	0.437
-679.222	62.981	0.339	-0.449
-678.208	22.976	-0.022	-0.023
-677.193	-78.755	-0.405	0.182
-676.178	-43.519	-0.466	0.311
-675.164	-200.000	-0.004	0.216
-674.149	-11.654	0.241	0.210
-673.135	-112.760	-0.107	0.028
-672.120	-131.642	0.086	-0.015
-671.105	-122.938	-0.371	0.078
-670.091	-29.940	0.268	0.202
-669.076	-3.846	-0.345	-0.317
-668.062	3.583	0.336	-0.325
-667.047	-156.810	0.337	0.027
-666.032	315.319	0.083	0.209
-665.018	-200.000	0.000	0.173
-664.003	156.323	0.089	0.162
-662.989	-200.000	-0.085	0.634
-661.974	-112.921	0.431	-0.112
-660.959	56.500	0.158	-0.204
-659.945	25.469	-0.377	0.415
-658.930	-134.822	0.713	0.113
-657.916	-15.146	0.374	0.316
-656.901	96.211	-0.080	0.122
-655.886	128.108	-0.274	-0.462
-654.872	442.071	-0.104	-0.303
-653.857	-53.589	-0.384	-0.232
-652.843	187.954	-0.129	-0.255
-651.828	10.168	-0.442	-0.445
-650.814	800.000	-0.094	-0.434
-649.799	-45.980	0.033	-0.022
-648.784	-129.321	0.471	-0.086
-647.770	-139.742	0.091	0.013
-646.755	-71.598	-0.049	0.024
-645.741	-200.000	0.010	0.431
-644.726	-143.566	0.209	0.026
-643.711	-52.312	0.101	0.062
-642.697	155.366	-0.114	0.209
-641.682	19.056	-0.124	-0.131
-640.668	-200.000	-0.003	-0.232
-639.653	-200.000	0.002	0.237
-638.638	-97.919	0.178	-0.060
-637.624	2.999	0.289	0.277
-636.609	-149.475	-0.320	-0.033
-635.595	229.095	0.099	-0.215
-634.580	-177.864	0.236	0.007
-633.565	-4.310	-0.179	-0.163
-632.551	800.000	0.041	-0.233
-631.536	47.419	0.299	0.369
-630.522	28.170	-0.286	0.320
-629.507	105.130	-0.172	0.269
-628.492	45.385	-0.113	0.138
-627.478	-101.070	-0.050	-0.016
-626.463	-96.537	0.104	0.036
-625.449	-52.083	-0.691	-0.423
-624.434	-69.196	-0.123	0.062
-623.419	-83.371	-0.109	0.046
-622.405	-104.562	-0.324	0.098
-621.390	-187.572	0.205	0.004
-620.376	-200.000	0.028	-0.268
-619.361	-163.603	-0.213	0.013
-618.346	-200.000	-0.029	0.254
-617.332	-14.426	0.228	0.193
-616.317	64.362	0.010	0.014
-615.303	-86.219	0.175	-0.071
-614.288	-85.591	-0.246	-0.100
-613.273	567.532	-0.017	-0.056
-612.259	-24.441	-0.127	-0.100
-611.244	-89.801	0.296	-0.114
-610.230	-200.000	-0.023	0.302
-609.215	-81.848	-0.227	-0.098
-608.201	-200.000	-0.010	0.267
-607.186	19.773	0.244	0.260
-606.171	-122.729	0.369	-0.078
-605.157	-5.124	-0.463	-0.420
-604.142	370.877	-0.094	-0.253
-603.128	-200.000	-0.008	0.073
-602.113	507.398	-0.062	0.192
-601.098	-139.043	0.323	-0.046
-600.084	-168.007	0.242	0.012
-599.069	-41.760	-0.286	0.194
-598.055	446.834	-0.237	0.691
-597.040	-200.000	0.022	0.202
-596.025	-35.214	-0.184	-0.132
-595.011	186.850	0.125	-0.246
-593.996	39.178	0.033	0.038
-592.982	28.727	0.302	-0.338
-591.967	-104.537	-0.209	-0.063
-590.952	-18.650	-0.430	0.354
-589.938	-68.063	0.223	0.114
-588.923	-147.489	0.219	-0.024
-587.909	-160.627	0.325	0.023
-586.894	-200.000	0.194	0.000
-585.879	-200.000	0.056	-0.499
-584.865	-200.000	0.010	0.107
-583.850	178.728	0.209	-0.404
-582.836	-119.175	-0.319	0.073
-581.821	617.123	-0.080	-0.268
-580.806	-13.986	0.224	0.191
-579.792	-7.796	-0.380	0.339
-578.777	-74.959	0.576	-0.271
-577.763	204.890	0.039	-0.080
-576.748	-104.314	-0.188	0.057
-575.733	-97.595	0.153	-0.052
-574.719	-188.810	0.069	-0.001
-573.704	-163.924	0.183	-0.011
-572.690	144.487	-0.027	-0.048
-571.675	2.715	0.130	0.125
-570.661	80.907	0.130	-0.185
-569.646	-46.515	-0.343	-0.222
-568.631	147.415	-0.039	-0.069
-567.617	-189.402	0.433	0.007
-566.602	800.000	0.094	0.368
-565.588	-25.326	0.243	0.190
-564.573	800.000	-0.047	-0.190
-563.558	-155.525	0.403	-0.034
-562.544	-29.086	-0.116	-0.088
-561.529	-32.090	-0.455	-0.335
-560.515	65.553	-0.226	-0.302
-559.500	-70.394	-0.126	-0.063
-558.485	100.138	0.068	0.104
-557.471	17.308	-0.097	-0.102
-556.456	-100.120	-0.326	0.106
-555.442	24.817	0.065	-0.071
-554.427	-112.807	0.301	0.078
-553.412	358.286	0.235	0.620
-552.398	-25.828	-0.208	-0.161
-551.383	85.163	-0.081	-0.118
-550.369	66.948	-0.328	-0.441
-549.354	3.880	-0.540	0.520
-548.339	763.577	-0.138	-0.498
-547.325	-6.541	-0.275	0.246
-546.310	49.849	-0.134	-0.167
-545.296	1.262	0.137	0.129
-544.281	-65.094	-0.200	0.106
-543.266	150.195	0.096	0.172
-542.252	23.845	0.325	-0.353
-541.237	-66.039	-0.450	-0.235
-540.223	-143.570	-0.112	-0.014
-539.208	800.000	0.115	0.423
-538.193	274.417	-0.292	0.683
-537.179	-169.211	-0.270	0.013
-536.164	-30.838	0.168	-0.125
-535.150	240.369	0.123	0.271
-534.135	-200.000	-0.060	0.389
-533.121	-112.204	-0.447	0.117
-532.106	-25.181	-0.117	0.091
-531.091	13.942	0.257	-0.263
-530.077	-123.581	-0.306	-0.064
-529.062	-9.692	-0.295	0.258
-528.048	52.429	0.395	0.496
-527.033	-200.000	0.020	0.453
-526.018	241.650	0.064	-0.140
-525.004	800.000	0.041	0.216
-523.989	-85.797	-0.195	-0.079
-522.975	195.306	-0.125	0.251
-521.960	-200.000	0.063	-0.378
-520.945	222.955	-0.119	-0.254
-519.931	800.000	-0.038	-0.194
-518.916	-97.087	0.291	-0.100
-517.902	-18.366	-0.485	-0.398
-516.887	-200.000	0.000	0.009
-515.872	48.838	0.313	0.387
-514.858	-160.549	0.048	-0.003
-513.843	90.297	-0.336	-0.495
-512.829	-68.821	-0.348	-0.176
-511.814	-97.443	-0.278	-0.094
-510.799	-159.896	0.243	0.017
-509.785	275.775	-0.244	-0.572
-508.770	589.139	-0.037	-0.121
-507.756	-17.291	-0.142	0.118
-506.741	-104.198	-0.314	-0.095
-505.726	-93.748	0.355	-0.128
-504.712	75.170	-0.464	-0.644
-503.697	278.429	-0.040	0.093
-502.683	98.633	0.165	-0.251
-501.668	171.205	0.080	-0.152
-500.653	-20.113	-0.383	-0.310
-499.639	-36.278	0.175	-0.124
-498.624	772.654	0.091	-0.327
-497.610	-65.887	0.206	-0.108
-496.595	119.267	0.077	-0.126
-495.581	31.488	0.163	-0.184
-494.566	50.274	-0.218	-0.271
-493.551	-49.400	-0.305	0.191
-492.537	119.426	0.207	0.337
-491.522	72.734	-0.059	0.081
-490.508	-200.000	-0.039	0.279
-489.493	65.419	0.218	0.290
-488.478	-43.624	0.428	0.283
-487.464	-184.016	-0.310	-0.007
-486.449	-51.573	-0.177	0.108
-485.435	94.946	-0.138	0.207
-484.420	14.394	-0.206	-0.211
-483.405	366.222	-0.055	-0.146
-482.391	-200.000	-0.016	-0.614
-481.376	-12.559	-0.427	0.366
-480.362	4.255	-0.442	0.425
-479.347	-85.428	0.697	-0.284
-478.332	149.794	0.078	0.138
-477.318	-93.853	-0.135	-0.049
-476.303	-52.594	0.138	0.084
-475.289	-90.491	0.219	0.083
-474.274	-126.938	0.197	0.038
-473.259	-18.425	0.231	0.189
-472.245	-7.811	-0.240	-0.212
-471.230	-44.110	0.044	0.029
-470.216	-44.859	0.180	-0.118
-469.201	64.333	-0.174	-0.231
-468.186	-16.577	-0.322	-0.268
-467.172	510.439	0.068	0.208
-466.157	-26.451	-0.066	-0.051
-465.143	162.252	0.105	0.193
-464.128	16.758	-0.090	-0.093
-463.113	203.305	0.156	-0.317
-462.099	-15.993	0.225	-0.188
-461.084	800.000	-0.055	-0.285
-460.070	-71.984	0.491	-0.239
-459.055	-38.957	-0.208	-0.143
-458.040	-62.767	-0.073	0.040
-457.026	-141.258	0.218	-0.029
-456.011	800.000	-0.085	0.407
-454.997	-182.353	0.072	0.002
-453.982	33.459	-0.195	-0.222
-452.968	-36.056	0.070	-0.050
-451.953	800.000	0.114	-0.439
-450.938	167.754	0.177	-0.330
-449.924	292.468	-0.152	0.364
-448.909	-200.000	0.034	-0.357
-447.895	-71.053	-0.153	0.075
-446.880	800.000	-0.070	0.290
-445.865	424.838	0.062	0.176
-444.851	-149.126	0.193	-0.020
-443.836	-16.862	-0.222	0.184
-442.822	-81.607	-0.434	-0.186
-441.807	800.000	0.139	0.511
-440.792	-11.269	-0.090	-0.078
-439.778	-52.574	-0.488	0.295
-438.763	-57.521	0.179	0.103
-437.749	-102.511	-0.148	-0.046
-436.734	786.943	0.154	0.557
-435.719	-54.613	-0.276	0.164
-434.705	126.890	-0.208	0.346
-433.690	416.355	0.101	-0.284
-432.676	-200.000	-0.044	-0.361
-431.661	105.634	0.290	0.451
-430.646	800.000	0.067	0.342
-429.632	-132.663	0.505	0.084
-428.617	496.856	0.160	0.484
-427.603	-1.320	0.181	-0.168
-426.588	-79.913	-0.343	-0.151
-425.573	-200.000	-0.047	-0.301
-424.559	-200.000	0.024	-0.215
-423.544	-99.738	-0.448	0.146
-422.530	-99.161	-0.550	-0.181
-421.515	178.224	-0.018	-0.035
-420.500	502.500	-0.060	-0.184
-419.486	113.551	-0.282	0.449
-418.471	77.113	-0.302	0.421
-417.457	800.000	-0.143	0.572
-416.442	-52.764	-0.082	0.049
-415.428	-200.000	-0.006	-0.071
-414.413	-101.361	-0.087	0.028
-413.398	668.752	0.200	-0.681
-412.384	465.233	-0.117	-0.344
-411.369	-200.000	-0.091	0.643
-410.355	40.404	0.309	-0.365
-409.340	-97.707	0.456	0.154
-408.325	-160.842	0.105	-0.007
-407.311	800.000	0.055	-0.220
-406.296	82.074	-0.221	-0.315
-405.282	-20.100	-0.184	-0.148
-404.267	-106.545	-0.587	0.170
-403.252	-33.228	-0.061	-0.044
-402.238	-79.817	-0.237	-0.104
-401.223	34.980	-0.208	-0.239
-400.209	800.000	0.017	-0.064
-399.194	-51.404	-0.175	0.107
-398.179	97.841	0.340	-0.513
-397.165	-200.000	-0.004	-0.428
-396.150	-29.853	-0.285	0.212
-395.136	458.468	0.100	-0.293
-394.121	-200.000	0.003	-0.291
-393.106	-145.380	-0.685	-0.080
-392.092	-70.266	-0.213	0.105
-391.077	71.779	-0.390	-0.531
-390.063	59.331	0.268	0.345
-389.048	-176.845	0.466	-0.015
-388.033	-102.823	0.504	-0.156
-387.019	-76.367	0.406	-0.186
-386.004	-23.253	0.055	-0.043
-384.990	217.846	-0.224	-0.469
-383.975	60.852	0.276	-0.359
-382.960	-175.282	-0.394	0.014
-381.946	1.392	-0.248	-0.233
-380.931	46.010	-0.486	-0.589
-379.917	800.000	-0.096	0.513
-378.902	58.112	-0.276	0.354
-377.888	-52.014	-0.338	0.205
-376.873	490.675	-0.148	0.444
-375.858	-99.041	-0.208	0.069
-374.844	-52.014	-0.336	0.204
-373.829	-200.000	-0.023	0.186
-372.815	-86.271	0.336	0.135
-371.800	-200.000	-0.051	-0.353
-370.785	696.770	0.070	-0.244
-369.771	-200.000	0.068	-0.636
-368.756	-110.375	-0.063	0.017
-367.742	-200.000	-0.018	0.219
-366.727	526.503	-0.169	-0.523
-365.712	472.582	0.128	0.378
-364.698	262.916	0.087	0.199
-363.683	569.591	0.097	-0.312
-362.669	-113.394	-0.198	0.051
-361.654	49.846	-0.167	-0.206
-360.639	-200.000	-0.021	-0.273
-359.625	347.361	-0.025	-0.065
-358.610	347.471	0.082	-0.213
-357.596	-200.000	-0.003	0.477
-356.581	86.044	0.087	-0.126
-355.566	800.000	0.082	-0.349
-354.552	-36.169	0.526	0.370
-353.537	15.458	0.149	0.153
-352.523	-84.981	-0.117	-0.048
-351.508	-43.414	-0.402	0.265
-350.493	-68.174	0.175	-0.089
-349.479	29.671	-0.076	0.085
-348.464	-141.442	0.293	-0.038
-347.450	-114.992	0.368	0.091
-346.435	125.085	0.358	-0.592
-345.420	-109.698	0.619	0.169
-344.406	-104.268	-0.146	-0.044
-343.391	217.514	0.241	0.505
-342.377	459.069	0.009	-0.026
-341.362	241.149	0.032	-0.071
-340.348	-37.713	0.152	-0.105
-339.333	-14.468	0.208	0.175
-338.318	529.084	-0.070	0.218
-337.304	-200.000	0.034	-0.362
-336.289	70.539	-0.133	-0.180
-335.275	100.160	-0.175	0.266
-334.260	800.000	-0.019	0.108
-333.245	800.000	0.027	-0.114
-332.231	-74.498	-0.226	-0.106
-331.216	-9.634	0.242	0.210
-330.202	-59.056	0.507	-0.285
-329.187	95.622	0.114	-0.170
-328.172	375.091	0.072	-0.194
-327.158	-5.157	0.089	0.080
-326.143	48.691	0.378	0.463
-325.129	-136.032	0.272	0.041
-324.114	800.000	0.059	-0.234
-323.099	-183.677	-0.432	0.009
-322.085	-22.085	0.693	-0.549
-321.070	-200.000	0.004	-0.562
-320.056	-62.529	-0.284	-0.153
-319.041	-123.591	-0.649	-0.133
-318.026	-145.221	0.226	-0.026
-317.012	-77.243	0.246	-0.111
-315.997	115.680	-0.132	-0.211
-314.983	52.968	0.161	0.201
-313.968	82.884	0.261	0.371
-312.953	-22.305	0.153	-0.121
-311.939	-63.656	-0.119	0.063
-310.924	-182.131	-0.209	-0.005
-309.910	800.000	0.082	-0.345
-308.895	-32.424	-0.315	0.229
-307.880	9.929	-0.299	0.297
-306.866	25.385	0.099	-0.107
-305.851	800.000	-0.070	-0.393
-304.837	498.256	0.175	-0.528
-303.822	-101.497	-0.357	0.113
-302.807	800.000	-0.127	0.479
-301.793	25.335	-0.130	0.141
-300.778	-200.000	-0.039	0.284
-299.764	-64.985	0.461	-0.242
-298.749	39.099	0.186	0.217
-297.735	-50.882	0.096	0.059
-296.720	-22.616	0.425	-0.334
-295.705	286.565	-0.134	-0.316
-294.691	-76.377	0.450	0.206
-293.676	-152.510	-0.469	0.043
-292.662	-49.117	-0.215	0.134
-291.647	-78.518	-0.204	0.091
-290.632	-130.851	0.265	-0.046
-289.618	527.118	0.023	-0.072
-288.603	472.906	0.176	-0.520
-287.589	-171.157	0.499	-0.022
-286.574	-172.742	-0.597	0.024
-285.559	10.277	0.181	0.179
-284.545	58.767	-0.313	0.402
-283.530	-200.000	0.064	-0.448
-282.516	-131.053	-0.094	-0.016
-281.501	-105.194	0.573	0.169
-280.486	-68.638	0.242	0.121
-279.472	-5.191	0.185	0.166
-278.457	-200.000	-0.037	0.432
-277.443	-27.696	-0.238	0.179
-276.428	-24.650	-0.319	0.247
-275.413	-200.000	-0.010	0.196
-274.399	398.092	-0.126	0.344
-273.384	-159.421	0.151	0.011
-272.370	-76.120	-0.428	0.196
-271.355	-65.431	-0.250	-0.130
-270.340	-20.152	0.179	-0.144
-269.326	602.781	0.028	-0.093
-268.311	-57.775	-0.061	-0.035
-267.297	589.257	-0.114	0.369
-266.282	-200.000	-0.005	-0.205
-265.267	-117.787	0.476	-0.111
-264.253	-151.218	-0.233	0.022
-263.238	800.000	-0.102	-0.530
-262.224	-122.802	0.412	0.086
-261.209	300.088	-0.052	0.125
-260.195	39.796	-0.427	0.500
-259.180	-120.969	0.345	0.075
-258.165	84.966	0.229	-0.328
-257.151	268.996	0.116	0.266
-256.136	28.763	0.119	0.132
-255.122	-12.358	-0.308	-0.262
-254.107	192.728	-0.111	0.219
-253.092	-44.173	-0.141	-0.092
-252.078	512.937	-0.111	-0.338
-251.063	800.000	-0.093	-0.351
-250.049	271.856	-0.062	-0.142
-249.034	-200.000	0.017	-0.262
-248.019	121.922	-0.031	-0.050
-247.005	800.000	0.055	0.232
-245.990	238.446	-0.027	0.058
-244.976	-88.591	-0.163	-0.063
-243.961	45.647	-0.215	-0.259
-242.946	-84.727	0.167	0.068
-241.932	-138.378	0.367	-0.052
-240.917	244.995	0.053	0.116
-239.903	-200.000	0.012	0.138
-238.888	-84.717	0.146	0.059
-237.873	-48.301	0.371	0.232
-236.859	-82.230	0.634	-0.268
-235.844	-132.441	0.059	-0.010
-234.830	208.523	-0.110	-0.224
-233.815	136.969	-0.121	-0.206
-232.800	86.298	0.153	0.220
-231.786	-200.000	-0.012	0.083
-230.771	211.092	0.056	0.115
-229.757	-200.000	-0.002	0.442
-228.742	-185.881	-0.450	0.009
-227.727	-127.874	0.669	0.124
-226.713	55.333	-0.065	0.082
-225.698	41.815	-0.059	0.069
-224.684	-134.136	0.338	0.054
-223.669	-103.958	0.363	0.109
-222.655	77.486	-0.248	0.344
-221.640	-148.466	0.287	0.030
-220.625	233.164	0.238	0.512
-219.611	-72.286	-0.292	0.140
-218.596	361.450	-0.013	0.034
-217.582	-187.096	0.533	-0.009
-216.567	-26.132	-0.105	0.080
-215.552	35.598	-0.163	0.186
-214.538	-115.975	0.363	0.087
-213.523	-115.451	-0.460	-0.112
-212.509	-158.707	0.466	-0.034
-211.494	-63.170	-0.172	0.092
-210.479	-87.595	0.567	-0.222
-209.465	111.106	-0.187	0.294
-208.450	43.872	-0.197	0.234
-207.436	-115.124	0.393	0.096
-206.421	-78.185	0.542	0.241
-205.406	127.369	0.202	-0.334
-204.392	-113.632	-0.507	-0.128
-203.377	-72.076	0.244	0.117
-202.363	625.696	0.120	0.396
-201.348	152.842	0.288	0.514
-200.333	104.174	0.149	-0.228
-199.319	-157.750	0.420	0.032
-198.304	31.894	0.232	-0.260
-197.290	79.312	-0.047	-0.065
-196.275	-129.021	-0.229	-0.041
-195.260	29.279	-0.158	-0.174
-194.246	35.662	-0.081	-0.093
-193.231	-166.182	-0.336	0.018
-192.217	-165.032	-0.224	-0.013
-191.202	-137.404	-0.513	0.075
-190.187	199.302	0.101	-0.202
-189.173	48.252	-0.271	-0.330
-188.158	-47.387	-0.165	0.104
-187.144	-46.904	-0.357	-0.226
-186.129	-103.823	-0.518	0.156
-185.114	-117.388	0.741	-0.173
-184.100	-130.742	0.323	0.056
-183.085	-122.964	-0.094	0.020
-182.071	31.089	0.083	-0.092
-181.056	-68.163	-0.396	0.199
-180.042	-176.252	-0.310	0.010
-179.027	-68.054	-0.358	0.180
-178.012	-200.000	0.044	0.718
-176.998	0.414	0.302	0.280
-175.983	-1.528	-0.079	-0.072
-174.969	259.257	-0.056	0.125
-173.954	-0.903	0.142	0.130
-172.939	190.841	0.087	0.170
-171.925	-6.583	0.263	0.232
-170.910	-63.953	0.439	0.232
-169.896	-200.000	-0.024	-0.179
-168.881	-61.183	-0.030	0.016
-167.866	-8.240	0.275	-0.240
-166.852	35.676	-0.141	-0.161
-165.837	-0.553	-0.338	0.311
-164.823	7.572	0.268	-0.260
-163.808	45.238	0.244	0.293
-162.793	800.000	0.036	-0.152
-161.779	-145.928	0.479	0.054
-160.764	-4.853	0.016	0.014
-159.750	-130.305	-0.168	-0.029
-158.735	-54.032	-0.099	-0.058
-157.720	120.438	-0.275	0.444
-156.706	188.273	0.120	-0.234
-155.691	800.000	0.063	0.309
-154.677	-78.149	0.296	0.132
-153.662	-157.665	0.207	0.016
-152.647	249.121	0.247	-0.545
-151.633	-103.574	-0.176	-0.053
-150.618	-132.616	-0.380	-0.063
-149.604	-19.825	0.364	-0.291
-148.589	-88.158	0.402	0.155
-147.574	800.000	0.074	-0.386
-146.560	800.000	0.045	-0.172
-145.545	-99.442	-0.288	-0.094
-144.531	-200.000	0.008	0.139
-143.516	-200.000	0.006	0.049
-142.502	-35.931	0.226	0.158
-141.487	-155.259	-0.738	-0.061
-140.472	-138.965	-0.159	-0.022
-139.458	-65.624	0.186	-0.096
-138.443	21.978	-0.277	-0.293
-137.429	-200.000	0.006	0.547
-136.414	-200.000	0.032	0.440
-135.399	800.000	-0.086	0.359
-134.385	85.107	-0.112	0.160
-133.370	-33.063	0.131	-0.094
-132.356	-200.000	0.076	-0.452
-131.341	-200.000	-0.017	-0.276
-130.326	71.316	0.122	-0.164
-129.312	69.367	-0.150	-0.200
-128.297	363.890	-0.323	-0.847
-127.283	256.833	0.275	-0.614
-126.268	800.000	-0.153	-0.600
-125.253	55.089	-0.111	-0.140
-124.239	-57.758	0.139	-0.079
-123.224	-114.716	-0.508	0.125
-122.210	184.690	-0.237	-0.457
-121.195	-160.224	-0.511	-0.035
-120.180	145.309	0.303	0.527
-119.166	-166.177	0.467	-0.025
-118.151	-128.729	-0.191	-0.035
-117.137	-165.708	0.198	-0.011
-116.122	-35.000	-0.576	-0.406
-115.107	-200.000	-0.056	-0.342
-114.093	-91.170	-0.252	0.093
-113.078	-78.765	-0.253	-0.111
-112.064	798.075	0.101	0.364
-111.049	-37.756	-0.683	0.470
-110.034	170.983	0.119	0.222
-109.020	-60.332	0.405	0.223
-108.005	-21.558	0.198	0.156
-106.991	162.483	-0.220	-0.401
-105.976	-200.000	-0.060	0.510
-104.962	168.656	0.152	0.281
-103.947	222.334	-0.197	0.411
-102.932	-107.901	-0.212	-0.059
-101.918	-200.000	-0.022	-0.155
-100.903	231.335	0.192	0.408
-99.889	-150.758	0.252	-0.024
-98.874	-122.840	-0.282	-0.058
-97.859	800.000	-0.203	-0.829
-96.845	-200.000	0.006	-0.087
-95.830	-103.434	0.229	0.069
-94.816	-90.835	0.237	-0.088
-93.801	-113.197	0.328	0.083
-92.786	52.992	0.067	0.083
-91.772	93.066	0.075	-0.110
-90.757	-35.978	-0.151	-0.105
-89.743	165.597	-0.309	0.568
-88.728	800.000	-0.078	-0.385
-87.713	-142.359	-0.468	-0.059
-86.699	104.763	-0.086	-0.132
-85.684	-130.596	0.345	-0.060
-84.670	-200.000	0.001	0.216
-83.655	-41.753	0.149	-0.099
-82.640	-162.431	0.160	-0.010
-81.626	125.228	-0.206	-0.336
-80.611	182.125	0.056	0.107
-79.597	-43.082	0.181	-0.119
-78.582	-110.806	0.347	-0.092
-77.567	297.702	0.219	-0.523
-76.553	-154.970	-0.113	0.010
-75.538	-200.000	0.030	-0.219
-74.524	168.876	-0.069	-0.127
-73.509	431.738	-0.176	0.495
-72.494	-200.000	0.001	-0.360
-71.480	-21.511	0.206	0.162
-70.465	-131.907	-0.412	-0.069
-69.451	-80.252	-0.240	0.103
-68.436	-34.784	-0.312	0.220
-67.422	-127.081	-0.184	-0.035
-66.407	52.624	-0.132	0.163
-65.392	597.026	0.039	0.126
-64.378	-144.848	0.277	0.032
-63.363	230.066	0.286	-0.607
-62.349	172.356	-0.234	-0.436
-61.334	17.595	-2.353	-2.417
-60.319	82.554	1.212	1.703
-59.305	209.845	-3.781	-7.689
-58.290	38.436	4.029	4.643
-57.276	443.042	3.676	10.462
-56.261	-200.000	23.537	320.336
-55.246	359.503	1296.517	3366.059
-54.232	53.608	2838.823	3523.136
-53.217	51.854	2658.099	3271.654
-52.203	32.022	2388.798	2660.985
-51.188	28.048	2054.108	2239.264
-50.173	24.592	1941.545	2076.179
-49.159	23.567	1930.275	2052.128
-48.144	23.014	1924.745	2039.759
-47.130	22.876	1922.672	2035.885
-46.115	22.886	1921.310	2034.469
-45.100	22.890	1919.409	2032.426
-44.086	22.916	1917.923	2031.075
-43.071	22.808	1917.144	2028.924
-42.057	22.729	1915.521	2026.213
-41.042	22.784	1913.672	2024.810
-40.027	22.904	1912.120	2024.470
-39.013	22.823	1911.219	2022.497
-37.998	22.882	1909.642	2021.428
-36.984	22.881	1908.260	2019.875
-35.969	22.748	1907.271	2017.223
-34.954	22.852	1905.531	2016.493
-33.940	22.877	1904.315	2015.416
-32.925	22.886	1902.981	2014.023
-31.911	22.932	1901.498	2012.900
-30.896	22.839	1900.371	2010.564
-29.881	22.823	1899.018	2008.869
-28.867	22.743	1898.600	2007.433
-27.852	22.641	1896.818	2004.308
-26.838	22.585	1895.045	2001.707
-25.823	22.696	1893.447	2001.215
-24.809	22.635	1892.456	1999.393
-23.794	22.665	1891.771	1998.929
-22.779	22.740	1889.815	1997.636
-21.765	22.720	1888.291	1995.717
-20.750	22.600	1887.989	1993.952
-19.736	22.566	1886.944	1992.386
-18.721	22.699	1885.347	1992.124
-17.706	22.654	1883.491	1989.581
-16.692	22.557	1883.762	1988.682
-15.677	22.624	1881.888	1987.384
-14.663	22.586	1880.670	1985.595
-13.648	22.571	1878.990	1983.575
-12.633	22.683	1876.708	1982.353
-11.619	22.647	1875.700	1980.802
-10.604	22.510	1875.135	1978.573
-9.590	22.639	1873.554	1978.287
-8.575	22.607	1872.422	1976.653
-7.560	22.533	1871.291	1974.540
-6.546	22.539	1870.064	1973.236
-5.531	22.593	1868.734	1972.366
-4.517	22.601	1867.685	1971.266
-3.502	22.467	1867.426	1969.417
-2.487	22.621	1865.490	1969.023
-1.473	22.696	1862.092	1966.196
-0.458	22.503	1844.575	1945.478
0.556	19.341	1990.815	2049.715
1.571	18.225	2194.272	2244.224
2.586	19.115	2233.646	2296.160
3.600	19.129	2236.530	2299.037
4.615	19.112	2235.724	2297.695
5.629	19.140	2233.048	2295.050
6.644	19.094	2231.805	2292.881
7.659	19.049	2230.261	2290.420
8.673	19.021	2227.919	2287.366
9.688	18.908	2236.070	2293.941
10.702	17.878	2316.198	2361.545
11.717	16.581	2380.675	2408.438
12.731	8.302	2361.934	2271.227
13.746	1.205	2342.472	2151.324
14.761	0.265	2338.054	2133.624
15.775	0.198	2336.336	2130.851
16.790	0.076	2335.064	2127.694
17.804	0.025	2333.695	2125.471
18.819	0.020	2333.036	2124.549
19.834	0.011	2331.224	2122.517
20.848	0.094	2329.191	2121.588
21.863	0.062	2327.834	2119.642
22.877	-0.006	2325.655	2116.445
23.892	0.059	2322.829	2114.540
24.907	-0.004	2320.723	2111.472
25.921	0.055	2319.177	2110.646
26.936	0.009	2317.384	2108.124
27.950	0.020	2315.101	2105.952
28.965	0.001	2312.901	2103.423
29.980	0.072	2311.668	2103.055
30.994	0.076	2309.604	2100.981
32.009	4.575	2322.652	2176.006
33.023	14.190	2351.400	2339.106
34.038	18.176	2358.262	2402.024
35.053	18.655	2355.778	2405.959
36.067	18.716	2353.666	2404.370
37.082	18.687	2352.319	2402.300
38.096	18.840	2349.573	2401.354
39.111	18.734	2348.380	2398.368
40.126	18.891	2345.520	2397.357
41.140	19.094	2343.197	2397.543
42.155	18.985	2341.547	2394.032
43.169	18.813	2340.562	2390.335
44.184	18.879	2337.116	2387.454
45.199	18.708	2335.189	2382.819
46.213	18.869	2334.457	2384.031
47.228	18.794	2334.115	2382.344
48.242	18.823	2331.706	2380.011
49.257	18.877	2329.537	2378.253
50.271	18.887	2326.463	2374.978
51.286	18.816	2324.959	2372.172
52.301	18.794	2324.170	2370.771
53.315	18.995	2323.844	2372.953
54.330	20.246	2325.903	2392.114
55.344	21.089	2324.911	2402.485
56.359	21.058	2321.396	2398.132
57.374	21.172	2320.154	2398.145
58.388	21.256	2318.999	2397.823
59.403	21.324	2314.667	2393.989
60.417	21.229	2311.535	2389.152
61.432	21.291	2311.189	2389.368
62.447	21.490	2309.693	2390.269
63.461	21.551	2308.489	2389.571
64.476	21.722	2305.320	2388.348
65.490	21.490	2305.106	2384.657
66.505	21.217	2303.006	2378.462
67.520	20.125	2297.769	2357.855
68.534	19.050	2292.835	2337.832
69.549	18.788	2289.203	2330.272
70.563	18.990	2286.233	2329.722
71.578	18.898	2285.317	2327.264
72.593	19.011	2282.811	2325.964
73.607	19.022	2282.678	2325.706
74.622	19.088	2280.688	2324.297
75.636	18.921	2277.101	2318.098
76.651	18.896	2274.906	2315.240
77.666	18.949	2273.644	2314.405
78.680	19.040	2271.226	2312.889
79.695	18.908	2268.499	2308.053
80.709	18.981	2267.277	2307.519
81.724	18.939	2265.996	2305.371
82.739	18.866	2263.854	2301.930
83.753	18.992	2261.924	2301.393
84.768	18.934	2260.457	2298.851
85.782	18.960	2258.928	2297.370
86.797	18.885	2256.285	2293.390
87.812	18.814	2254.698	2290.553
88.826	18.714	2253.017	2287.236
89.841	18.837	2250.549	2286.104
90.855	19.004	2248.242	2285.712
91.870	18.859	2246.598	2281.839
92.884	18.863	2243.538	2278.513
93.899	18.860	2243.467	2278.116
94.914	18.976	2245.058	2281.012
95.928	20.032	2247.985	2297.802
96.943	20.553	2245.555	2301.978
97.957	19.464	2239.188	2280.708
98.972	18.979	2235.592	2270.344
99.987	18.743	2232.599	2263.911
101.001	18.765	2229.665	2260.946
102.016	18.769	2228.632	2259.686
103.030	18.905	2226.014	2258.554
104.045	18.898	2223.534	2255.675
105.060	18.949	2222.264	2254.786
106.074	19.029	2219.842	2253.123
107.089	18.923	2218.034	2249.620
108.103	18.856	2218.107	2248.546
109.118	18.977	2215.600	2247.316
110.133	19.070	2214.749	2247.409
111.147	19.084	2213.024	2245.576
112.162	18.978	2212.166	2243.043
113.176	19.055	2208.807	2240.382
114.191	18.939	2207.185	2236.944
115.206	18.941	2205.034	2234.530
116.220	18.945	2203.839	2233.096
117.235	18.917	2200.283	2228.867
118.249	18.752	2198.951	2225.095
119.264	19.027	2198.224	2227.679
120.279	19.078	2196.444	2226.266
121.293	19.077	2194.002	2223.513
122.308	18.927	2193.860	2221.159
123.322	19.080	2191.836	2220.831
124.337	19.090	2191.180	2220.022
125.352	20.211	2195.172	2238.363
126.366	20.617	2192.875	2241.005
127.381	19.341	2185.388	2216.605
128.395	18.741	2182.366	2205.539
129.410	18.891	2180.135	2204.955
130.424	19.024	2178.534	2204.775
131.439	18.893	2176.183	2200.450
132.454	18.739	2175.836	2197.858
133.468	18.805	2173.412	2195.990
134.483	18.828	2171.712	2194.304
135.497	18.768	2169.804	2191.341
136.512	18.848	2167.741	2190.024
137.527	18.952	2165.442	2188.767
138.541	18.787	2166.041	2187.001
139.556	18.808	2164.390	2185.349
140.570	18.749	2162.813	2182.733
141.585	18.836	2160.318	2181.064
142.600	18.839	2159.276	2179.785
143.614	18.779	2157.307	2176.776
144.629	18.917	2155.999	2176.955
145.643	18.806	2153.886	2173.154
146.658	18.775	2152.458	2171.054
147.673	18.764	2150.808	2168.990
148.687	18.868	2150.035	2169.274
149.702	18.895	2148.497	2167.807
150.716	18.911	2147.669	2166.911
151.731	18.975	2147.015	2166.798
152.746	18.945	2145.585	2164.718
153.760	19.111	2146.736	2167.722
154.775	20.269	2148.367	2183.770
155.789	20.454	2145.979	2183.415
156.804	19.464	2139.044	2163.628
157.819	18.827	2135.162	2151.421
158.833	18.960	2132.307	2149.959
159.848	18.913	2131.155	2147.960
160.862	19.113	2129.710	2148.746
161.877	19.071	2129.180	2147.429
162.892	19.091	2127.697	2145.930
163.906	19.111	2125.603	2143.814
164.921	19.015	2123.681	2140.415
165.935	18.968	2122.123	2138.004
166.950	19.084	2119.416	2136.461
167.964	18.870	2117.653	2131.766
168.979	18.706	2115.979	2127.786
169.994	18.991	2113.977	2129.059
171.008	18.978	2112.760	2127.416
172.023	18.882	2111.756	2124.960
173.037	18.937	2110.453	2124.084
174.052	19.003	2107.784	2121.960
175.067	18.785	2106.919	2118.124
176.081	18.933	2105.674	2118.460
177.096	18.932	2104.194	2116.705
178.110	18.944	2102.010	2114.403
179.125	18.975	2100.649	2113.161
180.140	18.900	2100.143	2111.476
181.154	18.871	2098.735	2109.453
182.169	18.758	2098.042	2107.104
183.183	18.910	2097.596	2108.280
184.198	20.377	2099.432	2127.955
185.213	20.636	2098.142	2129.587
186.227	19.468	2093.086	2109.846
187.242	18.881	2090.943	2100.223
188.256	18.895	2088.296	2097.491
189.271	19.102	2087.394	2098.866
190.286	19.128	2085.360	2096.891
191.300	18.813	2082.981	2090.400
192.315	18.867	2080.854	2088.677
193.329	18.934	2080.037	2088.415
194.344	19.112	2079.035	2089.332
195.359	19.091	2077.835	2087.628
196.373	19.096	2075.653	2085.242
197.388	18.974	2074.161	2082.015
198.402	18.956	2071.270	2078.644
199.417	18.773	2069.060	2073.950
200.432	18.888	2067.277	2073.314
201.446	18.935	2067.556	2073.908
202.461	18.938	2065.412	2071.553
203.475	18.821	2063.399	2067.873
204.490	18.961	2061.471	2067.381
205.504	18.878	2059.171	2063.822
206.519	18.729	2056.868	2059.468
207.534	18.895	2054.904	2059.263
208.548	18.984	2053.858	2059.028
209.563	18.756	2053.752	2055.942
210.577	18.786	2051.825	2054.120
211.592	18.882	2051.370	2054.576
212.607	19.460	2054.164	2064.080
213.621	20.899	2056.453	2083.437
214.636	20.624	2051.053	2074.420
215.650	19.217	2046.834	2053.068
216.665	18.938	2044.493	2047.127
217.680	19.170	2042.329	2047.498
218.694	19.164	2041.264	2046.103
219.709	18.823	2040.183	2040.715
220.723	18.976	2038.468	2040.574
221.738	18.992	2036.767	2038.820
222.753	18.834	2034.659	2034.586
223.767	18.837	2032.376	2032.088
224.782	18.883	2029.955	2029.978
225.796	18.911	2029.368	2029.480
226.811	18.924	2028.646	2028.669
227.826	18.976	2027.109	2027.505
228.840	19.093	2024.691	2026.224
229.855	18.917	2024.136	2023.352
230.869	18.959	2022.402	2021.864
231.884	18.929	2021.305	2020.180
232.899	18.864	2019.733	2017.593
233.913	18.892	2017.459	2015.409
234.928	18.865	2017.129	2014.519
235.942	19.037	2016.145	2015.324
236.957	19.015	2014.303	2012.989
237.972	19.096	2012.193	2011.589
238.986	19.074	2011.098	2009.993
240.001	18.999	2009.571	2007.349
241.015	18.802	2007.936	2003.158
242.030	19.051	2008.819	2006.727
243.045	20.212	2010.603	2021.882
244.059	20.395	2007.558	2020.717
245.074	19.211	2002.829	2001.890
246.088	18.755	1999.837	1993.342
247.103	18.875	1997.154	1991.819
248.117	18.886	1996.409	1990.976
249.132	19.139	1994.995	1992.270
250.147	18.973	1993.080	1988.187
251.161	18.777	1992.167	1984.759
252.176	18.917	1990.713	1984.699
253.190	19.105	1988.855	1984.789
254.205	19.051	1986.631	1981.712
255.220	19.043	1985.780	1980.523
256.234	19.002	1984.756	1978.790
257.249	18.949	1983.845	1977.037
258.263	18.938	1982.564	1975.393
259.278	19.103	1980.970	1975.473
260.293	19.009	1978.470	1971.660
261.307	18.897	1977.155	1968.825
262.322	18.837	1975.434	1966.187
263.336	18.688	1973.724	1962.544
264.351	18.764	1971.508	1960.973
265.366	18.748	1971.404	1960.450
266.380	18.846	1970.363	1960.300
267.395	18.697	1968.976	1956.979
268.409	18.703	1966.223	1954.079
269.424	18.920	1964.773	1954.891
270.439	19.011	1964.552	1955.478
271.453	19.242	1964.889	1958.211
272.468	20.330	1965.729	1971.242
273.482	20.430	1963.056	1969.463
274.497	19.180	1958.346	1950.287
275.512	18.977	1955.016	1944.429
276.526	18.918	1952.937	1941.453
277.541	18.784	1950.830	1937.615
278.555	18.932	1949.519	1937.755
279.570	18.761	1947.525	1933.611
280.585	18.722	1946.390	1931.805
281.599	18.796	1945.917	1931.941
282.614	19.025	1944.493	1932.888
283.628	19.013	1943.540	1931.569
284.643	19.121	1941.857	1930.885
285.657	19.399	1942.436	1934.362
286.672	19.891	1940.014	1937.254
287.687	19.511	1938.169	1930.915
288.701	19.329	1936.511	1926.987
289.716	19.326	1934.952	1925.165
290.730	19.189	1933.038	1921.495
291.745	19.296	1931.875	1921.311
292.760	19.142	1930.545	1918.032
293.774	19.081	1930.219	1916.798
294.789	19.135	1928.832	1915.794
295.803	18.832	1926.581	1909.943
296.818	18.899	1925.237	1909.124
297.833	18.847	1923.792	1906.884
298.847	18.887	1922.315	1905.645
299.862	18.872	1921.381	1904.323
300.876	19.068	1920.356	1905.256
301.891	20.490	1922.055	1922.545
302.906	20.815	1921.447	1925.313
303.920	19.549	1917.034	1906.619
304.935	19.135	1913.564	1898.349
305.949	18.949	1910.795	1893.318
306.964	18.867	1910.145	1891.544
307.979	18.934	1909.033	1890.951
308.993	19.031	1906.177	1888.967
310.008	18.998	1905.524	1887.736
311.022	19.037	1905.696	1888.103
312.037	19.258	1904.508	1889.144
313.052	19.246	1901.414	1885.718
314.066	19.119	1899.532	1882.225
315.081	19.181	1899.834	1882.979
316.095	19.513	1898.377	1884.959
317.110	19.460	1897.304	1883.088
318.125	19.059	1894.926	1876.100
319.139	19.011	1894.253	1874.690
320.154	19.121	1891.747	1873.185
321.168	19.230	1889.073	1871.508
322.183	19.153	1888.492	1869.870
323.197	18.975	1887.115	1866.330
324.212	18.904	1884.740	1862.990
325.227	18.825	1883.367	1860.554
326.241	18.709	1882.869	1858.572
327.256	18.926	1880.616	1858.483
328.270	18.921	1880.744	1858.330
329.285	18.922	1879.912	1857.300
330.300	19.462	1881.835	1864.843
331.314	20.787	1882.210	1879.376
332.329	20.556	1878.944	1873.391
333.343	19.156	1874.269	1853.370
334.358	18.799	1872.581	1847.616
335.373	18.946	1870.694	1847.121
336.387	18.988	1868.577	1845.262
337.402	18.851	1867.591	1842.595
338.416	18.881	1866.340	1841.463
339.431	19.112	1864.299	1841.718
340.446	19.240	1862.695	1841.289
341.460	19.076	1861.108	1837.735
342.475	19.183	1860.217	1837.780
343.489	19.153	1858.416	1835.459
344.504	19.144	1857.160	1833.908
345.519	19.315	1855.497	1833.870
346.533	19.280	1855.062	1832.847
347.548	19.343	1854.281	1832.534
348.562	19.444	1851.386	1830.532
349.577	19.373	1850.331	1828.509
350.592	19.210	1850.173	1826.397
351.606	19.039	1848.333	1822.540
352.621	18.990	1845.591	1819.103
353.635	18.930	1844.186	1816.861
354.650	18.849	1842.472	1814.097
355.665	18.709	1841.744	1811.671
356.679	18.896	1839.964	1811.685
357.694	18.921	1838.820	1810.608
358.708	19.002	1837.944	1810.389
359.723	19.580	1838.976	1817.305
360.738	20.812	1841.281	1832.399
361.752	20.342	1837.843	1823.793
362.767	19.178	1833.425	1806.930
363.781	18.886	1831.563	1801.802
364.796	18.997	1828.917	1800.146
365.810	18.809	1827.447	1796.507
366.825	19.024	1826.843	1797.955
367.840	18.896	1826.531	1796.096
368.854	18.922	1825.193	1794.839
369.869	18.838	1822.628	1791.215
370.883	18.738	1821.856	1789.200
371.898	18.706	1820.143	1786.967
372.913	18.935	1819.851	1788.860
373.927	18.956	1819.648	1788.662
374.942	19.088	1818.176	1788.384
375.956	19.147	1816.546	1787.186
376.971	19.020	1814.280	1783.412
377.986	18.907	1811.616	1779.408
379.000	18.846	1810.677	1777.638
380.015	19.146	1809.569	1779.450
381.029	19.260	1808.046	1778.927
382.044	19.097	1806.047	1775.056
383.059	19.005	1804.267	1772.145
384.073	18.913	1803.749	1770.474
385.088	18.812	1802.687	1768.175
386.102	18.693	1801.120	1765.197
387.117	18.592	1798.817	1761.684
388.132	18.711	1798.689	1762.577
389.146	19.040	1801.143	1768.166
390.161	20.558	1801.837	1784.304
391.175	20.509	1795.988	1777.798
392.190	19.153	1790.372	1758.117
393.205	18.786	1788.318	1752.131
394.219	18.695	1788.932	1751.589
395.234	18.958	1786.378	1751.567
396.248	18.945	1784.286	1749.173
397.263	18.911	1782.270	1746.649
398.278	18.754	1781.066	1743.655
399.292	18.970	1779.545	1744.160
400.307	19.281	1778.764	1746.349
401.321	19.233	1777.897	1744.807
402.336	19.072	1777.424	1742.493
403.350	19.085	1775.840	1740.858
404.365	19.345	1774.562	1742.040
405.380	19.465	1773.380	1741.889
406.394	19.319	1772.700	1739.535
407.409	19.211	1771.993	1737.534
408.423	19.299	1769.445	1735.716
409.438	19.190	1767.567	1732.571
410.453	19.168	1766.505	1731.096
411.467	19.298	1765.486	1731.207
412.482	19.074	1763.606	1726.899
413.496	19.037	1762.450	1725.181
414.511	19.106	1759.657	1722.939
415.526	18.915	1758.326	1719.503
416.540	18.851	1756.632	1717.008
417.555	18.812	1756.875	1716.643
418.569	18.863	1756.576	1716.655
419.584	18.833	1756.693	1716.261
420.599	18.923	1756.192	1716.471
421.613	19.044	1754.572	1715.899
422.628	19.030	1752.692	1713.718
423.642	18.984	1751.736	1712.110
424.657	18.909	1749.848	1709.310
425.672	18.900	1747.832	1707.047
426.686	18.961	1746.467	1706.124
427.701	18.848	1744.245	1702.625
428.715	18.800	1743.212	1700.929
429.730	18.835	1742.312	1700.193
430.745	18.922	1740.784	1699.365
431.759	18.895	1740.714	1698.830
432.774	18.963	1740.086	1698.682
433.788	18.854	1738.513	1695.862
434.803	18.883	1737.765	1695.218
435.818	18.642	1737.399	1692.273
436.832	18.543	1736.899	1690.595
437.847	17.661	1729.554	1674.547
438.861	9.846	1708.645	1577.583
439.876	1.809	1693.326	1484.758
440.890	0.341	1689.782	1467.111
441.905	0.234	1687.962	1464.310
442.920	0.196	1686.786	1462.745
443.934	0.160	1685.504	1461.107
444.949	0.164	1684.395	1460.015
445.963	0.216	1682.568	1458.756
446.978	0.152	1683.422	1458.697
447.993	0.159	1681.377	1456.827
449.007	0.138	1678.950	1454.347
450.022	0.097	1677.876	1452.842
451.036	0.080	1676.997	1451.743
452.051	1.157	1681.139	1465.616
453.066	9.080	1697.945	1557.611
454.080	16.800	1710.458	1644.485
455.095	18.228	1713.233	1660.897
456.109	18.605	1711.781	1662.970
457.124	18.561	1710.993	1661.577
458.139	18.474	1709.828	1659.397
459.153	18.519	1709.282	1659.106
460.168	18.521	1706.846	1656.566
461.182	18.502	1705.575	1654.950
462.197	18.528	1703.711	1653.196
463.212	18.481	1702.413	1651.275
464.226	18.658	1701.117	1651.540
465.241	18.450	1700.653	1648.877
466.255	18.496	1699.570	1648.077
467.270	18.501	1697.893	1646.298
468.285	18.414	1696.845	1644.243
469.299	18.482	1694.894	1642.820
470.314	18.482	1693.507	1641.273
471.328	18.510	1691.715	1639.613
472.343	18.563	1690.706	1638.946
473.358	18.587	1689.622	1637.932
474.372	18.409	1689.119	1635.541
475.387	18.438	1687.495	1634.045
476.401	18.636	1685.776	1634.080
477.416	18.524	1684.873	1631.938
478.430	18.538	1683.881	1630.917
479.445	18.533	1682.472	1629.314
480.460	18.399	1681.601	1626.995
481.474	18.492	1680.515	1626.633
482.489	18.530	1678.918	1625.253
483.503	18.519	1676.734	1622.841
484.518	18.561	1675.482	1621.839
485.533	18.486	1674.524	1620.001
486.547	18.573	1672.291	1618.473
487.562	18.539	1671.932	1617.613
488.576	18.578	1670.728	1616.624
489.591	18.626	1669.185	1615.390
490.606	18.626	1667.181	1613.251
491.620	18.614	1665.769	1611.579
492.635	18.663	1664.666	1610.780
493.649	18.454	1663.473	1607.467
494.664	18.460	1662.721	1606.602
495.679	18.496	1660.921	1605.012
496.693	18.482	1659.756	1603.562
497.708	18.362	1659.254	1601.758
498.722	18.450	1658.284	1601.455
499.737	18.533	1655.923	1599.761
500.752	18.550	1654.333	1598.198
501.766	18.486	1653.261	1596.371
502.781	18.509	1651.017	1594.229
503.795	18.616	1650.014	1594.065
504.810	18.582	1649.192	1592.760
505.825	18.533	1649.202	1592.128
506.839	18.487	1647.532	1589.897
507.854	18.536	1646.216	1588.885
508.868	18.478	1644.136	1586.152
509.883	18.473	1643.403	1585.205
510.898	18.479	1642.110	1583.828
511.912	18.411	1640.468	1581.422
512.927	18.473	1638.737	1580.139
513.941	18.524	1637.533	1579.266
514.956	18.523	1635.975	1577.559
515.971	18.514	1635.247	1576.588
516.985	18.349	1634.878	1574.519
518.000	18.497	1633.336	1574.210
519.014	18.406	1632.030	1571.922
520.029	18.447	1630.974	1571.097
521.043	18.541	1628.872	1569.749
522.058	18.546	1628.087	1568.849
523.073	18.461	1627.497	1567.314
524.087	18.548	1626.468	1566.932
525.102	18.433	1625.427	1564.686
526.116	18.601	1623.816	1564.488
527.131	18.516	1623.025	1562.759
528.146	18.609	1621.102	1561.574
529.160	18.443	1620.756	1559.532
530.175	18.535	1619.298	1558.783
531.189	18.408	1618.085	1556.270
532.204	18.444	1616.757	1555.140
533.219	18.397	1615.792	1553.597
534.233	18.420	1615.318	1553.165
535.248	18.723	1613.294	1553.787
536.262	18.608	1612.571	1551.858
537.277	18.553	1611.468	1550.110
538.292	18.486	1609.985	1547.892
539.306	18.529	1608.378	1546.552
540.321	18.579	1606.602	1545.114
541.335	18.426	1606.002	1542.966
542.350	18.505	1604.082	1541.645
543.365	18.509	1602.625	1540.105
544.379	18.402	1601.657	1538.019
545.394	18.417	1600.683	1537.038
546.408	18.234	1599.878	1534.429
547.423	18.424	1598.366	1534.510
548.438	18.501	1597.216	1533.912
549.452	18.505	1596.120	1532.708
550.467	18.609	1594.592	1531.993
551.481	18.509	1593.187	1529.567
552.496	18.621	1591.827	1529.076
553.511	18.476	1591.749	1527.520
554.525	18.495	1589.540	1525.388
555.540	18.423	1589.341	1524.371
556.554	18.622	1587.898	1524.586
557.569	18.414	1586.602	1521.303
558.583	18.483	1585.132	1520.323
559.598	18.335	1584.271	1517.994
560.613	18.439	1583.198	1517.713
561.627	18.514	1581.454	1516.527
562.642	18.495	1580.376	1515.144
563.656	18.332	1579.606	1512.780
564.671	18.313	1578.488	1511.355
565.686	18.326	1576.680	1509.561
566.700	18.485	1574.842	1509.022
567.715	18.433	1573.914	1507.493
568.729	18.445	1571.972	1505.560
569.744	18.370	1570.802	1503.601
570.759	18.386	1570.276	1503.051
571.773	18.457	1569.004	1502.285
572.788	18.371	1567.516	1499.923
573.802	18.496	1565.722	1499.129
574.817	18.345	1564.459	1496.412
575.832	18.508	1563.086	1496.348
576.846	18.412	1561.892	1494.182
577.861	18.426	1561.441	1493.700
578.875	18.449	1561.108	1493.404
579.890	18.387	1559.732	1491.365
580.905	18.555	1558.347	1491.328
581.919	18.481	1558.035	1490.203
582.934	18.446	1556.894	1488.630
583.948	18.506	1555.940	1488.066
584.963	18.435	1554.177	1485.580
585.978	18.518	1553.114	1485.106
586.992	18.453	1552.865	1484.126
588.007	18.573	1551.145	1483.353
589.021	18.605	1550.578	1482.908
590.036	18.526	1549.661	1481.170
591.051	18.588	1547.747	1479.696
592.065	18.491	1545.988	1476.999
593.080	18.538	1544.745	1476.039
594.094	18.602	1542.206	1473.995
595.109	18.596	1540.854	1472.470
596.123	18.497	1539.547	1470.195
597.138	18.476	1538.745	1469.073
598.153	18.496	1537.666	1468.038
599.167	18.613	1536.048	1467.324
600.182	18.376	1535.759	1464.830
601.196	18.561	1534.418	1464.970
602.211	18.486	1533.351	1463.130
603.226	18.474	1531.530	1461.113
604.240	18.502	1530.236	1459.943
605.255	18.329	1529.857	1457.928
606.269	18.548	1528.386	1458.227
607.284	18.619	1526.559	1456.910
608.299	18.386	1526.347	1454.546
609.313	18.465	1525.361	1454.107
610.328	18.525	1523.680	1452.842
611.342	18.477	1522.390	1451.025
612.357	18.487	1522.102	1450.665
613.372	18.267	1521.120	1447.683
614.386	18.445	1519.911	1447.877
615.401	18.457	1519.086	1447.018
616.415	18.465	1518.475	1446.331
617.430	18.434	1517.378	1444.844
618.445	18.353	1516.078	1442.748
619.459	18.424	1514.516	1441.692
620.474	18.424	1513.284	1440.345
621.488	18.472	1512.334	1439.677
622.503	18.600	1510.741	1439.063
623.518	18.379	1510.143	1436.464
624.532	18.393	1509.248	1435.553
625.547	18.354	1507.533	1433.421
626.561	18.408	1506.787	1432.997
627.576	18.473	1505.717	1432.355
628.591	18.463	1504.568	1431.004
629.605	18.404	1503.113	1428.959
630.620	18.536	1501.684	1428.530
631.634	18.487	1501.657	1427.926
632.649	18.384	1501.235	1426.492
633.663	18.345	1499.948	1424.769
634.678	18.338	1497.956	1422.650
635.693	18.403	1495.898	1421.071
636.707	18.463	1494.298	1419.880
637.722	18.386	1493.313	1418.130
638.736	18.501	1492.331	1417.982
639.751	18.583	1491.920	1418.108
640.766	18.430	1490.457	1415.275
641.780	18.426	1489.341	1414.016
642.795	18.674	1487.600	1414.248
643.809	18.540	1487.601	1412.963
644.824	18.527	1486.827	1411.952
645.839	18.423	1486.032	1410.167
646.853	18.575	1484.705	1409.997
647.868	18.434	1483.422	1407.450
648.882	18.582	1481.845	1407.004
649.897	18.542	1480.574	1405.297
650.912	18.483	1479.239	1403.378
651.926	18.522	1478.106	1402.458
652.941	18.554	1477.266	1401.751
653.955	18.638	1475.250	1400.359
654.970	18.635	1474.166	1399.143
655.985	18.533	1472.860	1396.900
656.999	18.560	1471.993	1396.128
658.014	18.603	1470.349	1394.754
659.028	18.492	1469.685	1393.048
660.043	18.542	1469.464	1393.081
661.058	18.607	1467.693	1391.766
662.072	18.425	1467.006	1389.469
663.087	18.497	1465.951	1388.891
664.101	18.481	1464.338	1387.060
665.116	18.590	1462.846	1386.367
666.131	18.449	1462.433	1384.663
667.145	18.405	1461.643	1383.396
668.160	18.433	1459.343	1381.283
669.174	18.463	1458.246	1380.317
670.189	18.428	1457.418	1379.092
671.204	18.568	1456.463	1379.154
672.218	18.590	1455.540	1378.292
673.233	18.573	1454.467	1376.972
674.247	18.576	1453.577	1375.987
675.262	18.405	1452.802	1373.712
676.276	18.465	1451.022	1372.343
677.291	18.443	1450.652	1371.659
678.306	18.478	1449.359	1370.550
679.320	18.594	1446.889	1368.978
680.335	18.621	1447.216	1369.342
681.349	18.505	1446.309	1367.392
682.364	18.583	1445.107	1366.716
683.379	18.350	1444.031	1363.672
684.393	18.416	1442.732	1362.805
685.408	18.493	1441.060	1361.681
686.422	18.470	1440.158	1360.477
687.437	18.495	1440.101	1360.464
688.452	18.496	1439.192	1359.448
689.466	18.460	1437.037	1356.964
690.481	18.368	1436.172	1355.256
691.495	18.340	1435.488	1354.226
692.510	18.291	1434.914	1353.128
693.525	18.397	1433.110	1352.110
694.539	18.367	1432.220	1350.867
695.554	18.342	1431.800	1350.113
696.568	18.349	1430.387	1348.674
697.583	18.316	1429.316	1347.246
698.598	18.421	1428.631	1347.265
699.612	18.379	1427.621	1345.819
700.627	18.404	1425.863	1344.199
701.641	18.549	1424.544	1343.936
702.656	18.497	1423.708	1342.579
703.671	18.494	1423.364	1342.066
704.685	18.415	1422.774	1340.731
705.700	18.507	1421.068	1339.688
706.714	18.496	1419.368	1337.835
707.729	18.504	1419.060	1337.445
708.744	18.490	1417.340	1335.558
709.758	18.647	1415.917	1335.287
710.773	18.596	1415.187	1334.035
711.787	18.624	1414.111	1333.080
712.802	18.392	1412.770	1329.845
713.816	18.534	1412.013	1330.086
714.831	18.560	1411.610	1329.748
715.846	18.513	1409.820	1327.535
716.860	18.697	1408.448	1327.513
717.875	18.563	1407.956	1325.853
718.889	18.423	1406.471	1323.206
719.904	18.441	1405.474	1322.255
720.919	18.677	1404.115	1322.645
721.933	18.559	1403.274	1320.779
722.948	18.553	1402.530	1319.877
723.962	18.542	1401.623	1318.778
724.977	18.479	1400.233	1316.824
725.992	18.601	1399.367	1316.795
727.006	18.516	1398.102	1314.796
728.021	18.341	1396.542	1311.823
729.035	18.557	1395.493	1312.338
730.050	18.467	1394.789	1310.832
731.065	18.684	1393.419	1311.054
732.079	18.568	1392.562	1309.195
733.094	18.662	1390.955	1308.247
734.108	18.577	1389.583	1306.149
735.123	18.543	1388.498	1304.718
736.138	18.501	1387.560	1303.357
737.152	18.575	1386.926	1303.174
738.167	18.589	1385.411	1301.701
739.181	18.615	1384.256	1300.656
740.196	18.612	1383.737	1299.990
741.211	18.530	1383.006	1298.520
742.225	18.564	1382.810	1298.440
743.240	18.571	1380.747	1296.402
744.254	18.421	1379.623	1294.054
745.269	18.496	1377.875	1292.832
746.284	18.502	1377.203	1292.089
747.298	18.396	1376.470	1290.442
748.313	18.370	1375.664	1289.337
749.327	18.437	1374.952	1289.023
750.342	18.403	1374.097	1287.805
751.356	18.491	1372.984	1287.273
752.371	18.410	1371.945	1285.536
753.386	18.513	1370.169	1284.494
754.400	18.605	1369.232	1284.156
755.415	18.600	1368.676	1283.445
756.429	18.401	1366.891	1280.117
757.444	18.536	1365.517	1279.696
758.459	18.518	1365.106	1279.019
759.473	18.568	1364.157	1278.349
760.488	18.532	1363.268	1277.096
761.502	18.545	1362.189	1276.027
762.517	18.672	1360.784	1275.508
763.532	18.722	1359.211	1274.256
764.546	18.603	1359.121	1273.133
765.561	18.533	1358.427	1271.803
766.575	18.523	1356.909	1270.158
767.590	18.656	1355.785	1269.944
768.605	18.585	1354.402	1267.972
769.619	18.598	1353.001	1266.604
770.634	18.556	1352.073	1265.270
771.648	18.748	1351.139	1265.664
772.663	18.621	1350.789	1264.250
773.678	18.735	1349.324	1263.569
774.692	18.702	1348.363	1262.271
775.707	18.705	1348.212	1262.001
776.721	18.617	1347.724	1260.745
777.736	18.687	1346.220	1259.705
778.751	18.488	1345.837	1257.724
779.765	18.624	1344.702	1257.516
780.780	18.644	1343.337	1256.239
781.794	18.618	1342.561	1255.174
782.809	18.602	1341.090	1253.527
783.824	18.504	1340.072	1251.705
784.838	18.576	1338.551	1250.663
785.853	18.373	1338.602	1249.074
786.867	18.372	1337.755	1248.128
787.882	18.373	1336.860	1247.150
788.897	18.367	1335.944	1246.100
789.911	18.441	1335.224	1245.824
790.926	18.551	1333.671	1245.029
791.940	18.549	1331.995	1243.297
792.955	18.491	1331.298	1242.080
793.969	18.427	1330.773	1240.971
794.984	18.417	1329.422	1239.487
795.999	18.436	1328.687	1238.797
797.013	18.532	1326.852	1237.629
798.028	18.580	1325.660	1236.719
799.042	18.657	1324.622	1236.163
800.057	18.556	1323.680	1234.407
801.072	18.578	1322.251	1233.085
802.086	18.489	1321.102	1231.222
803.101	18.621	1319.895	1230.898
804.115	18.600	1319.284	1230.033
805.130	18.560	1318.703	1229.056
806.145	18.551	1317.452	1227.678
807.159	18.734	1315.216	1226.764
808.174	18.654	1314.603	1225.470
809.188	18.617	1313.788	1224.293
810.203	18.627	1312.367	1222.896
811.218	18.648	1310.748	1221.393
812.232	18.532	1310.000	1219.722
813.247	18.595	1308.640	1218.760
814.261	18.585	1307.969	1217.917
815.276	18.618	1306.889	1217.003
816.291	18.558	1305.713	1215.330
817.305	18.612	1304.861	1214.778
818.320	18.660	1303.213	1213.442
819.334	18.624	1302.554	1212.424
820.349	18.614	1301.197	1210.943
821.364	18.630	1299.263	1209.117
822.378	18.623	1298.022	1207.768
823.393	18.717	1296.581	1206.943
824.407	18.593	1295.579	1204.992
825.422	18.505	1295.282	1203.950
826.437	18.528	1294.330	1203.086
827.451	18.436	1292.161	1200.273
828.466	18.379	1291.011	1198.660
829.480	18.450	1289.018	1197.169
830.495	18.435	1287.612	1195.612
831.509	18.315	1287.700	1194.707
832.524	18.353	1286.868	1194.061
833.539	18.476	1285.894	1193.875
834.553	18.455	1284.468	1192.260
835.568	18.636	1282.965	1191.985
836.582	18.744	1281.864	1191.575
837.597	18.707	1280.622	1190.022
838.612	18.669	1279.693	1188.750
839.626	18.544	1279.054	1187.143
840.641	18.683	1277.676	1186.691
841.655	18.607	1276.862	1185.264
842.670	18.623	1275.713	1184.164
843.685	18.631	1274.831	1183.263
844.699	18.710	1273.590	1182.517
845.714	18.777	1272.341	1181.676
846.728	18.551	1271.695	1179.374
847.743	18.651	1270.816	1179.108
848.758	18.698	1269.429	1178.005
849.772	18.665	1268.182	1176.480
850.787	18.421	1267.084	1173.642
851.801	18.544	1265.712	1173.071
852.816	18.527	1264.264	1171.474
853.831	18.398	1263.091	1169.362
854.845	18.425	1261.507	1167.938
855.860	18.509	1259.850	1166.841
856.874	18.519	1258.400	1165.429
857.889	18.612	1257.120	1164.739
858.904	18.457	1255.656	1162.188
859.918	18.549	1254.839	1161.920
860.933	18.373	1253.601	1159.433
861.947	18.470	1253.052	1159.449
862.962	18.583	1251.901	1159.010
863.977	18.740	1249.651	1157.855
864.991	18.595	1249.648	1156.731
866.006	18.512	1249.076	1155.498
867.020	18.476	1248.299	1154.394
868.035	18.534	1246.882	1153.344
869.049	18.594	1246.323	1153.094
870.064	18.844	1244.727	1153.164
871.079	18.809	1244.191	1152.291
872.093	18.667	1243.892	1150.922
873.108	18.746	1242.528	1150.051
874.122	18.693	1241.503	1148.612
875.137	18.699	1241.589	1148.595
876.152	18.820	1239.801	1147.615
877.166	18.824	1237.655	1145.517
878.181	18.784	1236.893	1144.405
879.195	18.932	1236.121	1144.548
880.210	18.549	1235.663	1141.421
881.225	18.726	1234.589	1141.475
882.239	18.728	1234.102	1140.901
883.254	18.741	1232.350	1139.236
884.268	18.806	1231.417	1138.666
885.283	18.764	1229.520	1136.499
886.298	18.787	1229.058	1136.087
887.312	18.665	1227.834	1134.014
888.327	18.772	1226.825	1133.654
889.341	18.719	1225.848	1132.261
890.356	18.745	1225.297	1131.791
891.371	18.740	1224.534	1130.916
892.385	18.629	1223.519	1129.109
893.400	18.678	1222.612	1128.459
894.414	18.545	1221.817	1126.713
895.429	18.620	1220.320	1125.696
896.444	18.565	1218.563	1123.574
897.458	18.658	1216.963	1122.580
898.473	18.597	1216.676	1121.782
899.487	18.747	1215.851	1121.870
900.502	18.702	1215.154	1120.795
901.517	18.705	1213.730	1119.366
902.531	18.916	1212.276	1119.276
903.546	18.890	1211.639	1118.384
904.560	18.985	1210.788	1118.084
905.575	18.914	1210.671	1117.375
906.589	18.778	1210.037	1115.770
907.604	18.884	1209.322	1115.672
