DTS Sentinel unit serial number:	SN409020Multiplexer serial number:	ORYXHardware model number:	OX4-SRSoftware version number:	ORYX F/W v3.00 Oryx Data Collector v3.7.2.0data status	okinstallation	HaddamTimeLapsedifferential loss correction	single-endedforward channel	channel 3reverse channel	N/Adate	2011/06/22time	04:01:16forward acquisition time	30.00reverse acquisition time	0.00gamma	498.7831k internal	0.1751k external	0.1751temperature offset calibration	1.0074default loss term (dB/km)	0.3790temperature slope calibration	1.3530multiplexer offset coefficient	1.0000multiplexer slope coefficient	1.0000fibre end	0.00T internal ref (°C)	22.50T ext. ref 1 (°C)	18.18T ext. ref 2 (°C)	0.09length (m)	temperature (°C)	Stokes	anti-Stokes-747.200	-79.317	-0.357	0.160
-746.185	53.389	-0.336	0.428
-745.171	800.000	-0.042	0.203
-744.156	537.609	-0.188	0.596
-743.142	-23.296	-0.069	0.055
-742.127	-44.523	0.233	0.155
-741.112	-74.012	-0.394	0.189
-740.098	-200.000	0.067	0.620
-739.083	-200.000	-0.056	-0.333
-738.069	-6.854	0.289	0.261
-737.054	451.632	0.101	0.296
-736.039	-25.181	-0.187	-0.147
-735.025	-147.062	0.197	0.022
-734.010	456.431	-0.164	0.486
-732.996	-37.759	0.160	-0.113
-731.981	-200.000	-0.050	0.388
-730.966	-60.128	-0.464	-0.262
-729.952	236.805	0.094	-0.208
-728.937	-200.000	-0.045	-0.524
-727.923	-100.131	-0.478	0.157
-726.908	-64.877	-0.283	-0.151
-725.894	439.696	-0.087	-0.254
-724.879	-54.857	-0.129	0.077
-723.864	4.771	0.272	-0.265
-722.850	-200.000	0.007	-0.359
-721.835	9.158	0.276	0.277
-720.821	-121.172	0.371	-0.082
-719.806	-200.000	-0.025	-0.351
-718.791	384.450	0.128	-0.351
-717.777	389.939	0.083	-0.230
-716.762	-200.000	-0.036	-0.273
-715.748	-188.768	0.059	0.001
-714.733	-45.664	0.147	0.096
-713.718	-200.000	0.002	0.067
-712.704	-192.183	-0.117	-0.001
-711.689	-156.520	-0.232	0.019
-710.675	-26.799	-0.201	-0.156
-709.660	-145.006	-0.175	0.021
-708.645	18.126	-0.077	-0.082
-707.631	163.375	0.264	0.493
-706.616	-200.000	-0.050	0.479
-705.602	225.636	-0.018	0.039
-704.587	2.009	0.406	-0.389
-703.572	155.140	0.145	-0.266
-702.558	244.460	0.080	0.179
-701.543	-123.586	0.433	-0.090
-700.529	166.589	0.170	-0.319
-699.514	-174.642	0.437	-0.016
-698.499	199.026	-0.327	0.665
-697.485	-18.959	0.164	-0.135
-696.470	800.000	-0.064	-0.280
-695.456	15.062	-0.104	0.108
-694.441	111.209	-0.075	0.120
-693.426	-200.000	-0.053	0.682
-692.412	-60.467	0.436	-0.245
-691.397	-116.651	0.734	0.178
-690.383	-84.303	0.314	-0.131
-689.368	-52.247	0.384	0.235
-688.354	-200.000	-0.197	0.000
-687.339	222.235	0.247	-0.529
-686.324	-71.046	-0.207	-0.103
-685.310	483.995	-0.117	0.356
-684.295	-96.258	-0.357	-0.124
-683.281	-85.884	-0.215	-0.088
-682.266	-66.282	0.483	-0.254
-681.251	-49.387	-0.236	0.149
-680.237	-103.758	-0.535	0.165
-679.222	101.548	0.180	0.278
-678.208	-63.885	-0.272	0.147
-677.193	199.846	-0.257	0.525
-676.178	-104.644	0.182	0.055
-675.164	-130.488	0.204	0.036
-674.149	25.059	-0.157	0.173
-673.135	-96.857	-0.202	0.070
-672.120	65.137	0.247	0.331
-671.105	-41.058	-0.279	0.190
-670.091	-172.588	0.137	0.006
-669.076	537.381	-0.059	-0.186
-668.062	144.025	-0.227	0.403
-667.047	-95.462	-0.243	0.086
-666.032	-79.353	-0.377	0.168
-665.018	69.066	0.184	0.251
-664.003	-28.748	0.106	0.081
-662.989	-144.870	0.389	-0.047
-661.974	-103.875	-0.255	0.078
-660.959	-93.848	-0.467	-0.169
-659.945	232.379	0.075	0.164
-658.930	-200.000	0.012	-0.279
-657.916	-200.000	0.024	-0.512
-656.901	-200.000	0.048	-0.303
-655.886	-74.827	-0.314	-0.149
-654.872	73.616	0.379	0.526
-653.857	-14.977	0.339	0.287
-652.843	-68.699	0.100	0.051
-651.828	-200.000	-0.008	0.679
-650.814	51.465	0.198	0.248
-649.799	108.928	0.228	-0.362
-648.784	800.000	-0.039	0.191
-647.770	-61.628	0.191	0.106
-646.755	549.512	0.032	0.103
-645.741	-42.854	0.542	0.363
-644.726	800.000	0.101	-0.495
-643.711	-196.808	0.567	0.005
-642.697	-164.488	0.037	-0.002
-641.682	-108.750	-0.224	0.063
-640.668	50.203	0.354	-0.442
-639.653	139.799	0.163	0.284
-638.638	-200.000	-0.008	-0.101
-637.624	-200.000	0.061	-0.386
-636.609	-139.250	0.298	0.042
-635.595	-139.055	-0.209	-0.030
-634.580	-125.687	-0.135	-0.027
-633.565	800.000	-0.041	0.217
-632.551	-38.637	0.199	0.139
-631.536	-136.438	0.105	0.016
-630.522	-37.806	-0.376	0.264
-629.507	800.000	0.104	0.441
-628.492	-21.107	0.492	0.397
-627.478	23.858	-0.372	0.406
-626.463	-52.298	-0.698	0.426
-625.449	189.497	0.023	-0.046
-624.434	-30.139	0.259	0.195
-623.419	-17.238	-0.595	0.495
-622.405	93.696	0.150	0.226
-621.390	-106.579	0.295	0.086
-620.376	800.000	-0.083	-0.394
-619.361	-136.084	-0.361	0.055
-618.346	-28.746	-0.511	-0.388
-617.332	-177.450	-0.366	-0.012
-616.317	-200.000	0.099	0.647
-615.303	40.025	-0.462	-0.548
-614.288	-138.529	-0.497	-0.071
-613.273	800.000	-0.175	0.731
-612.259	-145.646	-0.076	0.009
-611.244	-169.636	0.511	0.024
-610.230	-41.426	-0.204	-0.138
-609.215	800.000	-0.107	-0.558
-608.201	107.544	0.190	-0.299
-607.186	800.000	0.142	-0.601
-606.171	70.539	-0.173	-0.237
-605.157	-63.205	-0.139	-0.075
-604.142	32.934	-0.298	-0.341
-603.128	93.337	0.103	-0.154
-602.113	-102.734	-0.254	0.079
-601.098	-8.940	-0.460	-0.406
-600.084	13.579	-0.283	-0.290
-599.069	272.630	-0.062	0.145
-598.055	84.424	-0.176	0.255
-597.040	28.719	-0.142	-0.159
-596.025	141.914	0.183	-0.322
-595.011	291.554	0.042	-0.101
-593.996	-200.000	-0.027	-0.244
-592.982	330.221	0.161	0.412
-591.967	112.586	0.281	-0.450
-590.952	800.000	-0.028	-0.129
-589.938	-41.679	-0.164	0.111
-588.923	-200.000	0.082	-0.758
-587.909	1.780	-0.722	-0.686
-586.894	75.524	-0.133	-0.186
-585.879	136.083	-0.431	0.743
-584.865	-55.706	-0.355	0.209
-583.850	329.873	0.132	0.337
-582.836	-200.000	0.013	-0.147
-581.821	205.425	0.130	-0.267
-580.806	402.385	-0.133	-0.372
-579.792	800.000	0.046	0.192
-578.777	-39.059	-0.181	0.126
-577.763	-120.943	-0.303	-0.067
-576.748	11.677	0.144	-0.145
-575.733	96.593	0.452	0.684
-574.719	101.689	0.110	-0.170
-573.704	125.952	-0.181	0.303
-572.690	800.000	-0.061	0.228
-571.675	170.964	0.080	-0.151
-570.661	-86.611	0.421	-0.169
-569.646	-137.288	-0.122	-0.018
-568.631	-200.000	0.012	0.508
-567.617	-35.796	0.340	-0.242
-566.602	73.334	-0.267	-0.369
-565.588	343.929	-0.067	-0.174
-564.573	-56.545	-0.389	0.227
-563.558	-81.842	-0.135	0.058
-562.544	101.673	0.141	-0.217
-561.529	-100.895	0.143	-0.046
-560.515	100.277	-0.102	-0.157
-559.500	-83.424	0.326	-0.137
-558.485	249.431	-0.104	-0.233
-557.471	-37.691	0.067	-0.047
-556.456	128.564	0.068	0.114
-555.442	18.615	-0.251	-0.265
-554.427	-75.539	0.320	0.149
-553.412	-116.158	-0.184	-0.045
-552.398	112.818	0.412	0.659
-551.383	-99.054	-0.462	-0.153
-550.369	-126.973	-0.331	-0.064
-549.354	174.467	-0.173	-0.330
-548.339	30.865	-0.036	0.041
-547.325	-200.000	0.015	-0.277
-546.310	-5.521	-0.247	-0.223
-545.296	-35.459	-0.797	-0.569
-544.281	-96.240	0.285	0.099
-543.266	-19.146	0.395	-0.323
-542.252	-49.646	0.169	-0.106
-541.237	488.970	-0.077	-0.232
-540.223	289.216	-0.157	0.378
-539.208	-200.000	0.082	0.000
-538.193	-16.605	-0.418	0.348
-537.179	682.049	0.207	-0.714
-536.164	-49.580	0.323	0.202
-535.150	-83.459	0.397	-0.167
-534.135	-5.253	0.122	-0.110
-533.121	-200.000	-0.008	0.124
-532.106	366.175	-0.166	-0.444
-531.091	-105.215	0.345	-0.103
-530.077	-200.000	0.025	0.300
-529.062	338.834	0.178	-0.458
-528.048	-98.242	0.382	-0.128
-527.033	-200.000	-0.005	0.466
-526.018	41.244	0.275	0.328
-525.004	-121.764	0.442	0.095
-523.989	0.909	0.071	-0.067
-522.975	-200.000	0.010	-0.357
-521.960	-83.629	-0.465	0.195
-520.945	-36.317	-0.141	0.100
-519.931	-120.598	0.096	0.021
-518.916	-122.891	0.206	-0.043
-517.902	37.126	0.205	0.239
-516.887	-34.161	-0.292	0.211
-515.872	-136.611	-0.226	-0.034
-514.858	-120.547	-0.238	-0.053
-513.843	-75.578	-0.066	-0.031
-512.829	-83.758	0.338	0.141
-511.814	-23.434	-0.239	0.189
-510.799	-200.000	-0.293	-0.001
-509.785	-60.108	0.207	-0.116
-508.770	-95.069	0.219	-0.077
-507.756	-140.612	0.217	-0.029
-506.741	800.000	-0.069	0.305
-505.726	135.545	-0.236	-0.405
-504.712	800.000	0.040	-0.223
-503.697	-91.597	0.522	-0.194
-502.683	250.243	0.295	0.661
-501.668	-69.251	0.282	-0.142
-500.653	800.000	-0.033	0.164
-499.639	-200.000	0.023	0.305
-498.624	-42.471	0.235	0.157
-497.610	-94.948	-0.450	0.159
-496.595	92.405	0.198	0.294
-495.581	-158.595	0.105	-0.008
-494.566	19.769	0.155	0.164
-493.551	224.561	-0.127	-0.272
-492.537	88.690	0.220	0.323
-491.522	10.849	0.279	0.280
-490.508	-31.923	-0.145	-0.107
-489.493	-28.095	0.269	-0.204
-488.478	253.442	-0.218	-0.490
-487.464	106.566	0.186	0.291
-486.449	143.710	0.137	-0.240
-485.435	-145.923	0.062	0.007
-484.420	-153.169	-0.439	-0.040
-483.405	-124.542	0.254	-0.052
-482.391	-30.937	0.255	0.189
-481.376	-200.000	0.007	-0.390
-480.362	-45.865	0.275	-0.178
-479.347	185.616	0.209	-0.409
-478.332	131.952	0.052	0.089
-477.318	-51.095	0.373	-0.229
-476.303	-46.722	0.256	0.164
-475.289	-200.000	-0.007	-0.300
-474.274	-36.918	0.341	-0.240
-473.259	119.851	-0.098	-0.160
-472.245	-135.862	0.168	-0.026
-471.230	800.000	0.169	-0.678
-470.216	9.470	0.140	-0.139
-469.201	-3.958	-0.278	0.253
-468.186	-114.609	-0.178	0.045
-467.172	-200.000	-0.009	0.162
-466.157	-200.000	-0.030	0.348
-465.143	-146.171	0.465	0.053
-464.128	-15.919	-0.167	-0.140
-463.113	-77.031	-0.312	0.142
-462.099	-33.015	-0.664	0.483
-461.084	126.280	-0.087	-0.145
-460.070	366.370	-0.129	0.344
-459.055	704.459	-0.121	-0.422
-458.040	253.405	0.209	-0.470
-457.026	526.912	0.176	-0.548
-456.011	-133.241	0.306	-0.050
-454.997	-118.737	0.857	-0.197
-453.982	-57.371	-0.181	-0.104
-452.968	162.453	-0.204	-0.376
-451.953	-115.594	0.185	0.045
-450.938	-24.948	-0.231	-0.180
-449.924	-113.041	-0.239	0.062
-448.909	-200.000	0.022	0.227
-447.895	-88.331	-0.181	0.071
-446.880	-115.641	0.143	-0.035
-445.865	370.813	-0.017	-0.046
-444.851	-3.643	0.133	-0.121
-443.836	311.719	-0.015	0.038
-442.822	-200.000	-0.007	0.285
-441.807	-124.818	0.076	0.015
-440.792	-138.385	-0.099	-0.014
-439.778	-9.363	0.225	-0.197
-438.763	-200.000	-0.007	0.260
-437.749	800.000	0.087	0.315
-436.734	-23.337	0.148	-0.116
-435.719	39.968	-0.089	0.105
-434.705	90.919	-0.138	-0.204
-433.690	-97.423	0.384	0.130
-432.676	-200.000	-0.036	0.270
-431.661	295.660	0.150	-0.362
-430.646	79.711	-0.218	0.307
-429.632	-200.000	-0.026	0.230
-428.617	-200.000	-0.128	-0.001
-427.603	-153.278	0.134	0.012
-426.588	800.000	-0.077	0.336
-425.573	-112.384	0.169	-0.044
-424.559	-18.385	-0.311	0.255
-423.544	-134.661	-0.388	-0.061
-422.530	189.495	-0.113	0.223
-421.515	-200.000	-0.004	-0.135
-420.500	-141.578	-0.319	-0.042
-419.486	163.895	0.284	0.526
-418.471	220.420	0.209	0.441
-417.457	-4.711	0.224	-0.203
-416.442	-200.000	0.023	-0.362
-415.428	-170.835	-0.314	-0.014
-414.413	-160.577	0.233	-0.016
-413.398	800.000	-0.114	0.418
-412.384	-10.200	-0.157	-0.137
-411.369	600.193	-0.012	0.039
-410.355	-44.311	-0.084	0.055
-409.340	19.214	-0.127	0.134
-408.325	204.963	0.221	0.451
-407.311	-50.739	0.221	0.136
-406.296	-74.602	-0.207	-0.097
-405.282	-66.452	-0.226	-0.117
-404.267	-167.251	-0.058	0.003
-403.252	-47.529	0.125	-0.080
-402.238	-68.395	-0.459	-0.232
-401.223	-40.879	0.242	-0.163
-400.209	-196.970	0.134	-0.001
-399.194	181.120	0.219	-0.423
-398.179	-134.598	-0.144	0.023
-397.165	-109.295	-0.209	0.058
-396.150	55.249	-0.485	0.615
-395.136	-19.230	-0.263	-0.214
-394.121	11.192	0.135	-0.135
-393.106	-138.639	-0.386	-0.055
-392.092	-146.701	-0.230	-0.026
-391.077	-200.000	0.004	0.248
-390.063	-159.484	0.172	0.012
-389.048	151.570	0.084	0.150
-388.033	301.430	0.060	0.147
-387.019	-129.495	-0.200	-0.036
-386.004	675.130	0.091	0.312
-384.990	-92.227	-0.216	0.080
-383.975	232.093	0.026	0.056
-382.960	-76.278	0.425	-0.195
-381.946	-116.751	0.382	0.091
-380.931	759.788	-0.113	0.404
-379.917	-65.965	0.401	0.209
-378.902	226.612	-0.119	-0.254
-377.888	-83.775	-0.238	-0.099
-376.873	-79.671	-0.448	0.197
-375.858	-9.596	0.343	0.299
-374.844	168.408	-0.142	0.266
-373.829	-2.607	0.274	0.251
-372.815	-200.000	0.022	0.353
-371.800	-149.772	0.111	0.011
-370.785	-200.000	-0.007	0.158
-369.771	-145.782	0.320	-0.037
-368.756	-117.367	-0.252	0.059
-367.742	-111.189	-0.560	-0.149
-366.727	58.191	-0.173	-0.222
-365.712	20.484	-0.303	0.321
-364.698	224.964	0.275	-0.584
-363.683	71.752	-0.138	-0.189
-362.669	-200.000	0.092	-0.717
-361.654	-85.957	0.282	-0.114
-360.639	-151.310	-0.293	-0.028
-359.625	-106.635	0.233	0.067
-358.610	-178.694	0.508	0.015
-357.596	-113.266	-0.064	-0.016
-356.581	800.000	0.010	-0.038
-355.566	9.640	0.232	0.229
-354.552	172.051	0.106	0.200
-353.537	-94.512	-0.173	0.061
-352.523	-17.353	-0.207	0.170
-351.508	-41.293	0.113	-0.076
-350.493	-137.621	-0.418	0.061
-349.479	107.003	0.328	-0.511
-348.464	-122.390	0.506	0.107
-347.450	-200.000	-0.013	-0.258
-346.435	-172.965	0.852	0.034
-345.420	-122.262	0.681	-0.144
-344.406	-92.384	-0.626	-0.229
-343.391	-114.974	-0.214	0.053
-342.377	8.520	-0.425	0.418
-341.362	97.974	-0.149	0.225
-340.348	149.277	-0.282	-0.500
-339.333	-200.000	-0.007	0.069
-338.318	56.406	0.174	0.221
-337.304	-160.099	0.300	-0.021
-336.289	-94.469	0.456	0.162
-335.275	-48.570	-0.074	0.046
-334.260	-107.954	0.247	-0.070
-333.245	-200.000	-0.004	-0.136
-332.231	-99.768	0.219	-0.071
-331.216	263.811	-0.095	-0.216
-330.202	-123.154	-0.218	-0.045
-329.187	800.000	0.092	-0.445
-328.172	239.684	-0.188	-0.410
-327.158	800.000	0.126	-0.467
-326.143	-156.987	-0.308	-0.024
-325.129	-31.350	0.351	-0.257
-324.114	-200.000	0.032	0.205
-323.099	-107.804	0.303	0.086
-322.085	220.668	-0.229	0.481
-321.070	233.558	0.057	-0.123
-320.056	-200.000	-0.017	0.245
-319.041	0.516	0.134	-0.125
-318.026	157.423	0.248	0.450
-317.012	-6.582	0.281	0.250
-315.997	29.706	-0.116	-0.129
-314.983	-200.000	-0.025	-0.501
-313.968	800.000	0.005	0.028
-312.953	490.120	-0.074	0.223
-311.939	-50.316	0.092	-0.056
-310.924	800.000	-0.149	0.549
-309.910	17.650	-0.162	-0.168
-308.895	28.357	-0.524	-0.578
-307.880	-84.524	0.155	-0.064
-306.866	269.020	0.010	0.022
-305.851	-5.837	-0.051	-0.046
-304.837	-93.276	-0.246	-0.089
-303.822	178.309	-0.127	0.243
-302.807	-56.446	0.824	0.476
-301.793	277.929	-0.265	-0.619
-300.778	-78.905	-0.312	-0.138
-299.764	-131.096	0.423	0.073
-298.749	-146.955	-0.585	0.065
-297.735	-84.535	0.243	-0.100
-296.720	30.039	-0.061	-0.068
-295.705	-200.000	0.047	0.388
-294.691	-200.000	-0.004	0.276
-293.676	-130.734	-0.363	0.063
-292.662	-53.559	0.564	0.336
-291.647	-127.162	-0.437	0.083
-290.632	-189.098	-0.850	-0.013
-289.618	-200.000	0.050	0.419
-288.603	486.792	-0.098	-0.293
-287.589	252.118	0.016	-0.035
-286.574	-14.508	0.187	0.157
-285.559	-14.774	0.215	0.180
-284.545	-26.784	0.306	-0.233
-283.530	-120.109	0.699	-0.155
-282.516	-77.194	-0.188	0.085
-281.501	-129.935	0.070	-0.012
-280.486	-76.399	0.324	0.148
-279.472	18.882	0.030	-0.031
-278.457	-121.950	0.386	0.082
-277.443	-114.248	0.072	0.018
-276.428	-110.241	-0.019	-0.005
-275.413	-143.727	-0.261	0.032
-274.399	319.252	0.175	0.435
-273.384	-116.927	-0.222	-0.053
-272.370	-200.000	-0.027	-0.459
-271.355	245.905	0.219	-0.484
-270.340	-10.511	0.154	-0.133
-269.326	-81.484	-0.158	0.067
-268.311	236.778	0.093	0.201
-267.297	-152.875	0.442	-0.040
-266.282	305.201	0.228	-0.553
-265.267	-158.988	-0.241	0.018
-264.253	300.953	-0.096	-0.233
-263.238	-115.600	-0.407	0.099
-262.224	110.270	0.157	0.245
-261.209	-136.691	0.410	0.061
-260.195	800.000	0.050	-0.258
-259.180	-45.946	0.195	-0.125
-258.165	-172.523	-0.477	0.019
-257.151	90.080	-0.182	-0.265
-256.136	-109.832	0.269	-0.073
-255.122	-52.354	-0.169	0.102
-254.107	-45.231	-0.448	0.289
-253.092	800.000	-0.059	-0.231
-252.078	-120.656	-0.236	0.052
-251.063	-102.890	0.188	0.058
-250.049	87.930	-0.133	0.192
-249.034	-89.320	-0.105	-0.040
-248.019	131.590	-0.157	0.263
-247.005	-178.721	0.204	-0.006
-245.990	62.744	-0.265	-0.346
-244.976	-161.510	-0.417	-0.028
-243.961	-189.171	-0.171	-0.003
-242.946	206.140	-0.157	0.319
-241.932	-161.258	0.154	0.010
-240.917	-86.864	-0.583	-0.230
-239.903	682.752	-0.103	-0.353
-238.888	-200.000	0.037	0.220
-237.873	273.373	-0.146	-0.337
-236.859	-76.524	0.250	0.114
-235.844	26.155	-0.201	-0.218
-234.830	169.884	0.172	-0.320
-233.815	157.147	0.128	-0.231
-232.800	68.081	-0.169	0.225
-231.786	-45.431	-0.207	-0.134
-230.771	-188.525	-0.527	0.008
-229.757	-200.000	-0.049	-0.450
-228.742	-81.692	0.302	-0.128
-227.727	-129.735	0.250	0.044
-226.713	-200.000	-0.005	0.086
-225.698	-200.000	0.026	0.227
-224.684	-200.000	0.013	-0.189
-223.669	-77.329	0.144	0.065
-222.655	129.456	0.425	0.707
-221.640	-59.942	-0.271	0.150
-220.625	48.021	-0.106	0.129
-219.611	-200.000	0.023	0.424
-218.596	-11.399	-0.247	0.211
-217.582	528.712	-0.031	-0.097
-216.567	-145.255	-0.361	-0.042
-215.552	-128.446	-0.277	0.051
-214.538	636.438	0.073	-0.244
-213.523	-5.115	-0.391	0.350
-212.509	418.813	-0.073	0.204
-211.494	-75.305	0.584	0.270
-210.479	-53.112	0.188	0.112
-209.465	-13.536	-0.192	-0.162
-208.450	-200.000	0.027	-0.197
-207.436	638.729	0.020	0.068
-206.421	-200.000	0.051	-0.469
-205.406	-107.679	-0.300	0.085
-204.392	-14.593	0.324	0.270
-203.377	-115.839	0.212	-0.051
-202.363	-90.829	0.313	-0.117
-201.348	-163.450	0.370	-0.023
-200.333	367.342	0.195	0.515
-199.319	125.153	0.135	-0.222
-198.304	-25.321	-0.218	-0.167
-197.290	-137.996	0.107	0.015
-196.275	-110.987	-0.265	-0.070
-195.260	-48.520	-0.100	0.063
-194.246	-200.000	-0.007	0.438
-193.231	-142.992	-0.319	0.040
-192.217	800.000	-0.079	-0.389
-191.202	-156.217	0.294	-0.024
-190.187	800.000	-0.051	-0.284
-189.173	800.000	0.038	-0.195
-188.158	-66.842	-0.249	-0.128
-187.144	-132.416	-0.265	-0.044
-186.129	-114.192	-0.088	0.022
-185.114	-80.196	-0.315	0.136
-184.100	13.845	0.334	-0.337
-183.085	-75.448	0.453	0.209
-182.071	211.870	0.143	0.294
-181.056	-120.466	-0.423	-0.093
-180.042	-200.000	0.027	0.205
-179.027	-154.594	0.275	-0.024
-178.012	-115.038	0.273	-0.067
-176.998	103.792	-0.151	-0.231
-175.983	-28.883	-0.129	-0.096
-174.969	615.256	-0.145	0.474
-173.954	-34.629	-0.480	0.340
-172.939	-42.810	-0.334	0.220
-171.925	-200.000	0.010	-0.146
-170.910	-162.723	0.032	0.002
-169.896	-40.764	-0.384	0.258
-168.881	26.341	-0.090	0.098
-167.866	-4.059	0.216	0.194
-166.852	132.717	-0.321	0.539
-165.837	702.774	0.150	-0.518
-164.823	10.276	-0.311	-0.307
-163.808	800.000	-0.077	0.397
-162.793	45.394	-0.431	-0.517
-161.779	-110.661	0.401	-0.107
-160.764	-91.193	-0.288	0.106
-159.750	-6.227	0.202	-0.179
-158.735	-106.308	0.121	-0.035
-157.720	-59.300	0.750	0.418
-156.706	-200.000	0.002	0.353
-155.691	-89.864	-0.322	-0.122
-154.677	122.720	0.324	0.527
-153.662	21.598	0.240	0.253
-152.647	-200.000	0.013	0.546
-151.633	-63.567	0.567	0.301
-150.618	164.534	-0.186	0.340
-149.604	-160.105	-0.370	-0.026
-148.589	103.091	-0.119	-0.181
-147.574	-11.407	-0.205	-0.175
-146.560	-104.292	0.237	0.071
-145.545	-200.000	-0.043	-0.371
-144.531	-51.322	0.188	0.114
-143.516	-200.000	0.011	0.210
-142.502	210.967	-0.189	0.387
-141.487	-200.000	0.046	-0.525
-140.472	408.819	-0.260	0.717
-139.458	800.000	0.038	-0.142
-138.443	215.335	-0.180	0.373
-137.429	-140.627	-0.373	0.050
-136.414	-200.000	0.014	0.246
-135.399	-67.760	-0.305	0.154
-134.385	-15.755	0.202	0.167
-133.370	63.638	-0.247	0.322
-132.356	-40.397	0.529	0.355
-131.341	-53.437	-0.442	0.261
-130.326	800.000	0.027	0.103
-129.312	5.402	-0.065	-0.062
-128.297	254.209	0.181	0.402
-127.283	-37.355	0.221	0.153
-126.268	-90.914	0.729	0.270
-125.253	-71.726	0.436	0.210
-124.239	-200.000	-0.014	-0.202
-123.224	-200.000	0.005	0.200
-122.210	800.000	0.102	0.466
-121.195	-125.515	0.645	0.126
-120.180	96.295	-0.079	0.118
-119.166	-32.549	0.401	-0.289
-118.151	-200.000	-0.039	0.292
-117.137	-155.223	0.147	-0.012
-116.122	-128.907	-0.204	0.037
-115.107	30.732	-0.220	0.244
-114.093	59.684	0.191	0.244
-113.078	-61.143	-0.551	0.300
-112.064	22.524	0.267	0.283
-111.049	16.845	-0.395	-0.405
-110.034	346.312	0.135	-0.346
-109.020	-18.464	0.233	0.188
-108.005	142.783	0.264	0.455
-106.991	-200.000	0.031	0.189
-105.976	-200.000	-0.000	0.025
-104.962	-27.014	-0.214	-0.161
-103.947	-132.728	-0.161	-0.026
-102.932	-133.520	-0.494	0.080
-101.918	66.309	-0.132	-0.174
-100.903	48.647	0.098	0.119
-99.889	497.492	0.081	-0.243
-98.874	-114.131	0.633	0.157
-97.859	213.533	0.116	0.239
-96.845	-64.894	-0.249	0.130
-95.830	95.529	-0.094	-0.138
-94.816	-53.202	0.505	-0.299
-93.801	-106.417	0.286	0.082
-92.786	-200.000	0.032	-0.220
-91.772	-102.469	-0.328	0.101
-90.757	-23.321	-0.387	-0.300
-89.743	114.565	0.095	0.150
-88.728	103.189	-0.142	-0.216
-87.713	165.233	0.102	0.187
-86.699	17.603	-0.260	-0.267
-85.684	285.803	-0.096	0.225
-84.670	800.000	0.031	0.152
-83.655	-127.277	0.210	-0.039
-82.640	800.000	0.095	-0.433
-81.626	-102.352	-0.172	-0.053
-80.611	-34.546	-0.319	-0.226
-79.597	72.582	0.263	0.355
-78.582	800.000	0.034	-0.145
-77.567	-157.496	0.164	0.013
-76.553	22.466	0.182	-0.193
-75.538	800.000	0.105	0.489
-74.524	542.861	0.095	-0.296
-73.509	223.766	0.206	-0.432
-72.494	-200.000	0.021	-0.288
-71.480	-0.490	0.114	0.105
-70.465	-166.874	0.396	0.021
-69.451	100.094	-0.267	0.401
-68.436	-190.020	0.217	0.003
-67.422	-200.000	-0.009	0.464
-66.407	-118.517	0.296	0.067
-65.392	-86.040	0.272	-0.108
-64.378	-184.640	-0.624	-0.013
-63.363	-120.571	0.071	-0.015
-62.349	-46.000	-0.097	0.062
-61.334	27.952	-1.888	-2.058
-60.319	-9.617	1.715	1.476
-59.305	239.341	-3.589	-7.750
-58.290	69.772	3.807	5.079
-57.276	394.316	3.854	10.429
-56.261	-200.000	23.926	318.664
-55.246	356.459	1300.240	3363.831
-54.232	53.287	2842.090	3522.896
-53.217	51.613	2659.750	3270.884
-52.203	31.744	2389.865	2658.967
-51.188	27.778	2054.046	2236.505
-50.173	24.385	1940.531	2073.260
-49.159	23.276	1929.146	2048.123
-48.144	22.923	1923.820	2038.299
-47.130	22.776	1921.854	2034.433
-46.115	22.726	1919.597	2031.387
-45.100	22.681	1918.753	2029.891
-44.086	22.684	1917.554	2028.576
-43.071	22.679	1915.529	2026.291
-42.057	22.634	1913.987	2024.062
-41.042	22.619	1913.072	2022.841
-40.027	22.692	1911.346	2021.774
-39.013	22.657	1909.255	2019.085
-37.998	22.704	1908.944	2019.216
-36.984	22.782	1906.973	2017.948
-35.969	22.607	1906.149	2014.981
-34.954	22.596	1905.246	2013.823
-33.940	22.478	1904.475	2011.572
-32.925	22.603	1902.288	2010.614
-31.911	22.600	1901.189	2009.342
-30.896	22.651	1899.128	2007.661
-29.881	22.633	1898.470	2006.687
-28.867	22.544	1897.237	2004.280
-27.852	22.511	1895.203	2001.674
-26.838	22.589	1893.632	2000.830
-25.823	22.526	1892.619	1998.967
-24.809	22.559	1891.395	1997.971
-23.794	22.548	1889.900	1996.182
-22.779	22.507	1888.917	1994.597
-21.765	22.338	1887.831	1991.452
-20.750	22.544	1886.202	1991.997
-19.736	22.394	1885.990	1989.988
-18.721	22.521	1884.328	1989.597
-17.706	22.427	1883.373	1987.441
-16.692	22.420	1882.377	1986.228
-15.677	22.458	1881.178	1985.316
-14.663	22.424	1879.409	1982.992
-13.648	22.388	1878.350	1981.382
-12.633	22.369	1877.493	1980.190
-11.619	22.551	1875.222	1979.770
-10.604	22.451	1874.425	1977.715
-9.590	22.414	1873.240	1975.972
-8.575	22.372	1872.222	1974.350
-7.560	22.395	1871.298	1973.550
-6.546	22.322	1869.953	1971.232
-5.531	22.337	1868.616	1969.912
-4.517	22.404	1867.423	1969.329
-3.502	22.296	1866.838	1967.426
-2.487	22.435	1864.847	1966.809
-1.473	22.582	1860.738	1964.044
-0.458	22.331	1844.564	1944.108
0.556	19.168	1990.127	2047.528
1.571	17.711	2194.811	2238.619
2.586	18.542	2233.932	2289.413
3.600	18.656	2236.054	2292.843
4.615	18.591	2235.523	2291.146
5.629	18.663	2233.211	2289.474
6.644	18.642	2231.275	2286.934
7.659	18.596	2229.507	2284.224
8.673	18.642	2227.274	2282.288
9.688	18.344	2236.719	2287.691
10.702	17.497	2315.722	2356.422
11.717	16.022	2380.642	2401.088
12.731	7.705	2361.753	2263.146
13.746	1.112	2344.119	2152.110
14.761	0.104	2340.156	2133.852
15.775	0.071	2338.277	2131.414
16.790	0.053	2336.551	2129.325
17.804	0.108	2334.832	2128.295
18.819	0.135	2333.893	2127.566
19.834	0.002	2333.039	2124.641
20.848	0.020	2331.361	2123.108
21.863	0.026	2329.505	2121.258
22.877	0.120	2326.618	2119.697
23.892	0.108	2325.334	2118.107
24.907	0.055	2322.630	2114.651
25.921	0.023	2321.364	2112.787
26.936	0.112	2317.954	2110.684
27.950	0.053	2316.371	2108.156
28.965	0.067	2313.691	2105.672
29.980	0.062	2312.944	2104.670
30.994	0.115	2310.131	2102.602
32.009	4.055	2322.277	2168.947
33.023	13.485	2350.127	2328.536
34.038	17.465	2357.439	2391.826
35.053	17.838	2354.788	2394.111
36.067	17.942	2352.346	2392.810
37.082	17.985	2350.013	2390.752
38.096	17.914	2348.567	2387.989
39.111	18.097	2346.682	2388.367
40.126	18.272	2344.879	2388.703
41.140	18.271	2342.866	2386.350
42.155	18.244	2341.192	2383.983
43.169	18.245	2339.495	2381.982
44.184	18.198	2336.075	2377.550
45.199	18.055	2334.145	2373.313
46.213	18.052	2334.597	2373.446
47.228	18.219	2331.618	2372.465
48.242	18.190	2331.087	2371.228
49.257	18.274	2329.069	2370.060
50.271	18.352	2326.080	2367.826
51.286	18.075	2324.082	2361.662
52.301	18.102	2321.956	2359.589
53.315	18.472	2323.753	2366.262
54.330	20.096	2327.506	2392.364
55.344	21.238	2327.044	2407.431
56.359	21.364	2323.455	2405.173
57.374	21.489	2323.286	2406.435
58.388	21.665	2319.838	2405.014
59.403	21.469	2316.026	2398.063
60.417	21.355	2313.137	2393.227
61.432	21.405	2312.118	2392.560
62.447	21.578	2311.050	2393.555
63.461	21.787	2309.077	2394.089
64.476	21.924	2306.468	2392.978
65.490	21.634	2305.621	2387.837
66.505	21.135	2303.283	2378.296
67.520	19.803	2297.032	2353.355
68.534	18.482	2291.095	2328.957
69.549	18.123	2287.354	2319.980
70.563	18.158	2285.857	2318.661
71.578	18.179	2283.773	2316.559
72.593	18.346	2281.717	2316.467
73.607	18.414	2281.051	2316.436
74.622	18.351	2278.387	2312.604
75.636	18.134	2275.058	2306.006
76.651	18.243	2273.131	2305.257
77.666	18.340	2271.139	2304.264
78.680	18.196	2269.863	2300.748
79.695	18.136	2267.603	2297.377
80.709	18.324	2265.602	2297.613
81.724	18.224	2263.845	2294.207
82.739	18.221	2261.241	2291.244
83.753	18.199	2259.194	2288.606
84.768	18.114	2256.860	2284.829
85.782	18.047	2256.331	2283.120
86.797	18.142	2254.167	2281.931
87.812	18.066	2251.868	2278.313
88.826	18.171	2250.345	2277.907
89.841	18.141	2248.011	2274.862
90.855	18.281	2245.133	2273.546
91.870	18.130	2244.216	2270.328
92.884	18.145	2241.846	2267.864
93.899	18.199	2240.583	2267.037
94.914	18.443	2241.904	2271.344
95.928	19.903	2246.333	2295.034
96.943	20.455	2244.877	2300.624
97.957	19.075	2237.405	2274.380
98.972	18.104	2233.237	2256.990
99.987	18.015	2229.959	2252.219
101.001	17.983	2227.559	2249.114
102.016	18.027	2225.403	2247.249
103.030	17.988	2223.496	2244.541
104.045	18.245	2220.419	2244.549
105.060	18.209	2218.522	2241.885
106.074	18.209	2217.760	2240.848
107.089	18.109	2215.776	2237.260
108.103	17.994	2215.494	2235.200
109.118	18.141	2213.628	2234.983
110.133	18.300	2211.548	2234.697
111.147	18.323	2209.502	2232.666
112.162	18.308	2207.961	2230.645
113.176	18.276	2205.496	2227.460
114.191	18.232	2203.887	2225.004
115.206	18.338	2201.963	2224.179
116.220	18.235	2200.294	2220.883
117.235	18.204	2197.246	2217.130
118.249	18.147	2195.943	2214.817
119.264	18.202	2195.399	2214.711
120.279	18.188	2193.753	2212.604
121.293	18.114	2191.912	2209.517
122.308	18.142	2190.274	2207.972
123.322	18.101	2188.866	2205.750
124.337	18.330	2189.587	2209.192
125.352	20.074	2193.995	2236.018
126.366	20.369	2191.520	2237.040
127.381	18.780	2183.626	2208.198
128.395	17.988	2180.099	2194.141
129.410	18.111	2177.412	2192.762
130.424	18.099	2176.318	2191.247
131.439	17.991	2175.944	2189.215
132.454	17.971	2173.770	2186.506
133.468	18.256	2171.031	2187.158
134.483	18.232	2168.997	2184.536
135.497	18.294	2166.904	2182.963
136.512	18.269	2164.466	2179.927
137.527	18.170	2163.619	2177.543
138.541	18.032	2162.459	2174.353
139.556	18.095	2161.062	2173.491
140.570	18.031	2160.381	2171.722
141.585	18.056	2158.505	2169.899
142.600	18.089	2156.645	2168.193
143.614	18.015	2154.837	2165.173
144.629	17.986	2154.073	2163.779
145.643	18.012	2151.199	2160.963
146.658	17.912	2149.583	2157.802
147.673	18.001	2147.487	2156.579
148.687	18.086	2146.498	2156.406
149.702	18.061	2146.282	2155.608
150.716	17.996	2145.107	2153.343
151.731	18.042	2143.329	2151.884
152.746	18.157	2142.989	2152.737
153.760	18.475	2143.645	2157.169
154.775	20.061	2147.275	2180.639
155.789	20.473	2145.801	2184.091
156.804	18.998	2137.700	2157.007
157.819	17.997	2132.318	2138.732
158.833	18.141	2130.475	2138.434
159.848	18.294	2127.258	2136.864
160.862	18.248	2126.514	2135.291
161.877	18.248	2126.493	2135.010
162.892	18.243	2125.465	2133.661
163.906	18.263	2122.505	2130.681
164.921	18.272	2120.942	2128.967
165.935	18.342	2118.533	2127.172
166.950	18.349	2116.880	2125.349
167.964	18.249	2114.791	2121.755
168.979	18.195	2112.359	2118.380
169.994	18.168	2112.221	2117.656
171.008	18.186	2109.931	2115.325
172.023	18.171	2108.417	2113.372
173.037	18.183	2107.271	2112.120
174.052	18.081	2106.230	2109.561
175.067	18.064	2104.439	2107.299
176.081	18.124	2102.986	2106.333
177.096	18.106	2102.146	2105.021
178.110	18.059	2099.287	2101.328
179.125	18.136	2098.688	2101.424
180.140	18.078	2097.493	2099.266
181.154	18.145	2096.031	2098.370
182.169	18.165	2095.486	2097.823
183.183	18.572	2095.738	2102.843
184.198	20.215	2099.631	2126.768
185.213	20.642	2098.096	2130.215
186.227	18.989	2091.894	2103.350
187.242	18.319	2088.278	2091.246
188.256	18.223	2086.479	2088.010
189.271	18.159	2084.470	2084.974
190.286	18.206	2082.857	2083.678
191.300	18.051	2080.417	2079.104
192.315	18.128	2078.407	2077.779
193.329	18.188	2078.325	2078.185
194.344	18.338	2077.398	2078.842
195.359	18.398	2075.365	2077.281
196.373	18.327	2073.372	2074.173
197.388	18.306	2071.161	2071.458
198.402	18.123	2068.996	2066.831
199.417	18.080	2066.305	2063.366
200.432	18.199	2064.641	2062.909
201.446	18.236	2065.031	2063.493
202.461	18.155	2062.676	2059.912
203.475	18.019	2060.795	2056.149
204.490	18.240	2057.774	2055.548
205.504	18.171	2056.692	2053.391
206.519	18.101	2054.709	2050.322
207.534	18.031	2053.009	2047.541
208.548	18.105	2051.982	2047.156
209.563	18.206	2050.644	2046.793
210.577	18.106	2049.058	2043.769
211.592	18.022	2049.405	2042.857
212.607	18.890	2051.994	2055.638
213.621	20.802	2056.201	2082.612
214.636	20.422	2050.584	2072.116
215.650	18.608	2044.879	2044.387
216.665	18.214	2041.284	2035.845
217.680	18.369	2039.011	2035.179
218.694	18.120	2038.550	2031.500
219.709	18.147	2037.215	2030.253
220.723	18.232	2035.293	2029.107
221.738	18.305	2032.276	2026.722
222.753	18.253	2031.034	2024.627
223.767	18.155	2029.700	2021.889
224.782	18.115	2028.711	2020.184
225.796	18.169	2027.215	2019.098
226.811	18.376	2025.141	2019.241
227.826	18.307	2024.089	2017.133
228.840	18.302	2021.952	2014.700
229.855	18.361	2020.246	2013.460
230.869	18.239	2019.531	2011.063
231.884	18.239	2017.941	2009.242
232.899	18.096	2016.149	2005.532
233.913	18.083	2015.027	2004.014
234.928	18.205	2014.049	2004.244
235.942	18.104	2012.728	2001.501
236.957	18.335	2010.172	2001.435
237.972	18.156	2009.725	1998.647
238.986	18.190	2010.094	1999.176
240.001	18.185	2007.540	1996.342
241.015	18.107	2005.312	1992.964
242.030	18.587	2005.764	1998.798
243.045	20.016	2009.578	2019.120
244.059	20.241	2006.879	2018.796
245.074	18.698	2000.552	1994.190
246.088	18.214	1996.025	1983.801
247.103	18.311	1994.836	1983.514
248.117	18.291	1994.851	1983.056
249.132	18.280	1992.643	1980.494
250.147	18.145	1989.965	1976.030
251.161	17.998	1989.299	1973.416
252.176	18.288	1987.796	1975.053
253.190	18.469	1986.690	1975.822
254.205	18.326	1984.778	1972.026
255.220	18.405	1982.213	1970.152
256.234	18.353	1981.769	1968.877
257.249	18.312	1980.816	1967.223
258.263	18.135	1980.397	1964.523
259.278	18.310	1979.147	1965.066
260.293	18.338	1976.572	1962.600
261.307	18.134	1974.932	1958.392
262.322	18.061	1973.452	1955.853
263.336	17.973	1971.396	1952.560
264.351	18.024	1969.892	1951.427
265.366	18.066	1968.249	1950.046
266.380	18.076	1967.060	1948.750
267.395	18.123	1965.417	1947.431
268.409	18.044	1964.248	1945.137
269.424	18.097	1962.961	1944.233
270.439	18.162	1962.463	1944.250
271.453	18.752	1962.824	1951.111
272.468	20.286	1965.730	1971.300
273.482	20.297	1962.694	1968.138
274.497	18.741	1955.451	1942.960
275.512	18.279	1951.525	1933.578
276.526	18.187	1950.375	1931.169
277.541	18.160	1948.782	1929.053
278.555	18.096	1946.754	1926.089
279.570	17.963	1945.083	1922.699
280.585	18.106	1943.330	1922.357
281.599	18.034	1943.591	1921.567
282.614	18.216	1941.081	1920.910
283.628	18.388	1940.372	1921.924
284.643	18.303	1940.153	1920.511
285.657	18.436	1938.852	1920.490
286.672	18.468	1937.557	1919.342
287.687	18.481	1935.653	1917.377
288.701	18.414	1933.334	1914.095
289.716	18.303	1932.935	1912.224
290.730	18.347	1930.600	1910.177
291.745	18.433	1929.709	1910.030
292.760	18.336	1928.221	1907.246
293.774	18.202	1927.819	1905.117
294.789	18.373	1925.740	1904.748
295.803	18.206	1924.030	1900.966
296.818	18.138	1922.703	1898.662
297.833	18.195	1921.006	1897.402
298.847	18.139	1920.143	1895.699
299.862	18.173	1918.613	1894.330
300.876	18.646	1918.328	1899.088
301.891	20.370	1922.050	1921.745
302.906	20.666	1920.434	1923.187
303.920	18.992	1914.438	1898.402
304.935	18.375	1910.834	1887.760
305.949	18.187	1908.825	1883.477
306.964	18.284	1907.449	1882.960
307.979	18.263	1905.973	1881.046
308.993	18.308	1904.223	1879.594
310.008	18.494	1902.380	1879.596
311.022	18.499	1902.027	1879.074
312.037	18.413	1900.843	1876.733
313.052	18.467	1898.737	1875.031
314.066	18.507	1896.589	1873.124
315.081	18.430	1896.160	1871.623
316.095	18.302	1895.526	1869.372
317.110	18.425	1893.437	1868.440
318.125	18.373	1891.884	1866.108
319.139	18.500	1890.207	1865.625
320.154	18.486	1889.256	1864.311
321.168	18.472	1887.696	1862.396
322.183	18.488	1886.218	1860.888
323.197	18.127	1885.363	1855.883
324.212	18.039	1882.685	1852.065
325.227	18.063	1881.207	1850.649
326.241	18.069	1880.107	1849.414
327.256	18.307	1877.936	1849.641
328.270	18.145	1877.899	1847.629
329.285	18.123	1877.618	1846.884
330.300	18.699	1879.921	1855.189
331.314	20.616	1882.674	1878.516
332.329	20.330	1878.819	1871.345
333.343	18.732	1871.674	1846.743
334.358	18.212	1869.621	1838.878
335.373	18.157	1868.242	1836.709
336.387	18.008	1866.319	1832.990
337.402	18.186	1864.328	1832.737
338.416	18.273	1862.337	1831.495
339.431	18.196	1862.291	1830.407
340.446	18.261	1860.215	1828.847
341.460	18.376	1859.141	1828.796
342.475	18.469	1857.650	1828.111
343.489	18.379	1856.563	1825.861
344.504	18.482	1855.690	1825.880
345.519	18.554	1853.498	1824.283
346.533	18.471	1852.498	1822.195
347.548	18.597	1850.985	1821.825
348.562	18.538	1849.219	1819.246
349.577	18.416	1849.048	1817.558
350.592	18.319	1848.891	1816.150
351.606	18.513	1845.939	1815.102
352.621	18.456	1844.174	1812.535
353.635	18.166	1842.954	1808.039
354.650	18.077	1841.495	1805.448
355.665	18.150	1839.588	1804.143
356.679	18.152	1838.117	1802.506
357.694	18.190	1835.937	1800.553
358.708	18.135	1836.022	1799.831
359.723	18.988	1837.579	1810.176
360.738	20.645	1840.016	1829.891
361.752	20.213	1836.601	1821.714
362.767	18.542	1831.505	1798.840
363.781	18.003	1828.809	1790.296
364.796	17.960	1827.851	1788.699
365.810	17.984	1826.241	1787.162
366.825	18.099	1824.775	1786.715
367.840	18.267	1824.135	1787.641
368.854	18.170	1823.180	1785.477
369.869	18.010	1820.851	1781.308
370.883	17.934	1819.772	1779.242
371.898	18.083	1817.826	1778.683
372.913	18.153	1817.118	1778.504
373.927	18.160	1816.121	1777.397
374.942	18.180	1814.814	1776.106
375.956	18.209	1813.434	1774.845
376.971	18.264	1810.847	1772.680
377.986	18.138	1809.393	1769.732
379.000	18.093	1808.605	1768.280
380.015	18.317	1807.419	1769.231
381.029	18.479	1805.071	1768.409
382.044	18.459	1803.059	1766.013
383.059	18.269	1801.828	1762.626
384.073	18.220	1801.083	1761.184
385.088	18.114	1800.290	1759.107
386.102	18.157	1798.022	1757.122
387.117	18.009	1796.141	1753.548
388.132	17.899	1796.452	1752.502
389.146	18.643	1798.549	1762.017
390.161	20.459	1801.099	1783.056
391.175	20.427	1795.231	1776.712
392.190	18.624	1788.725	1751.575
393.205	18.234	1786.187	1744.880
394.219	18.162	1784.750	1742.531
395.234	18.118	1783.804	1740.950
396.248	18.164	1781.816	1739.267
397.263	18.188	1778.522	1736.093
398.278	18.147	1777.997	1734.957
399.292	18.259	1777.134	1735.045
400.307	18.294	1777.113	1735.175
401.321	18.356	1775.911	1734.423
402.336	18.290	1774.571	1732.237
403.350	18.320	1772.713	1730.516
404.365	18.491	1772.167	1731.520
405.380	18.648	1771.209	1731.964
406.394	18.553	1770.023	1729.635
407.409	18.442	1768.846	1727.157
408.423	18.606	1767.030	1726.829
409.438	18.462	1764.953	1723.146
410.453	18.301	1764.530	1720.899
411.467	18.504	1763.353	1721.589
412.482	18.367	1761.535	1718.225
413.496	18.304	1760.423	1716.299
414.511	18.288	1757.885	1713.456
415.526	18.261	1755.212	1710.375
416.540	18.104	1755.083	1708.471
417.555	18.075	1753.930	1706.854
418.569	18.156	1753.812	1707.345
419.584	18.228	1753.665	1707.723
420.599	18.191	1753.461	1706.945
421.613	18.105	1752.320	1704.768
422.628	18.173	1750.498	1703.479
423.642	18.223	1748.941	1702.257
424.657	18.261	1746.952	1700.497
425.672	18.294	1745.139	1698.855
426.686	18.099	1744.131	1695.734
427.701	18.018	1743.251	1693.862
428.715	18.187	1741.031	1693.184
429.730	18.223	1740.398	1692.720
430.745	18.320	1738.556	1691.690
431.759	18.348	1738.130	1691.357
432.774	18.280	1738.326	1690.665
433.788	18.340	1737.792	1690.544
434.803	18.378	1736.726	1689.680
435.818	18.340	1735.539	1687.945
436.832	18.319	1734.702	1686.724
437.847	17.279	1728.553	1670.270
438.861	9.732	1708.219	1576.519
439.876	1.871	1692.728	1485.253
440.890	0.396	1689.072	1467.446
441.905	0.204	1688.423	1464.836
442.920	0.233	1686.677	1463.427
443.934	0.180	1685.642	1461.837
444.949	0.199	1684.275	1460.666
445.963	0.142	1684.259	1459.916
446.978	-0.037	1683.189	1457.074
447.993	0.133	1681.642	1457.209
449.007	0.239	1678.792	1455.598
450.022	0.230	1676.582	1453.421
451.036	0.149	1676.260	1452.183
452.051	1.153	1679.996	1464.996
453.066	8.960	1698.254	1557.157
454.080	16.435	1710.172	1641.112
455.095	17.747	1712.047	1655.525
456.109	17.936	1711.581	1656.723
457.124	18.117	1709.469	1656.246
458.139	18.053	1708.725	1654.701
459.153	18.065	1708.015	1653.932
460.168	18.103	1705.447	1651.616
461.182	17.991	1704.034	1648.964
462.197	18.075	1702.393	1647.988
463.212	18.128	1700.539	1646.509
464.226	18.019	1700.560	1645.285
465.241	18.110	1699.348	1644.794
466.255	18.230	1697.420	1643.887
467.270	18.220	1696.339	1642.542
468.285	18.043	1695.389	1639.727
469.299	18.014	1694.669	1638.550
470.314	18.148	1691.721	1636.790
471.328	18.138	1690.411	1635.235
472.343	18.076	1689.997	1634.042
473.358	18.147	1688.862	1633.429
474.372	18.195	1687.030	1631.921
475.387	18.203	1686.058	1630.866
476.401	18.169	1684.082	1628.437
477.416	18.214	1683.197	1627.812
478.430	18.172	1682.231	1626.287
479.445	18.136	1681.129	1624.676
480.460	18.045	1679.753	1622.286
481.474	18.011	1678.521	1620.574
482.489	18.086	1677.382	1619.997
483.503	18.156	1675.351	1618.506
484.518	18.133	1674.643	1617.409
485.533	18.237	1673.320	1616.930
486.547	18.108	1672.008	1614.243
487.562	18.133	1670.951	1613.270
488.576	18.379	1668.986	1613.502
489.591	18.424	1668.060	1612.844
490.606	18.229	1666.434	1609.231
491.620	18.266	1664.145	1607.182
492.635	18.212	1663.526	1605.881
493.649	18.090	1662.893	1603.931
494.664	18.112	1661.671	1602.770
495.679	18.093	1660.168	1600.946
496.693	18.034	1659.164	1599.233
497.708	18.168	1657.794	1598.978
498.722	18.174	1656.442	1597.539
499.737	18.234	1655.039	1596.560
500.752	18.099	1653.852	1593.956
501.766	18.178	1651.176	1591.924
502.781	18.219	1650.026	1591.011
503.795	18.034	1649.894	1588.964
504.810	18.188	1648.246	1588.625
505.825	18.251	1648.093	1588.868
506.839	18.106	1646.984	1586.258
507.854	18.121	1645.397	1584.681
508.868	18.249	1643.320	1583.682
509.883	18.150	1643.152	1582.410
510.898	18.152	1641.398	1580.549
511.912	18.039	1640.530	1578.472
512.927	18.086	1638.137	1576.425
513.941	18.075	1636.738	1574.785
514.956	18.109	1635.262	1573.490
515.971	18.102	1633.917	1571.941
516.985	18.131	1633.043	1571.177
518.000	18.081	1632.726	1570.229
519.014	18.054	1632.000	1569.088
520.029	18.117	1630.303	1567.856
521.043	18.022	1628.874	1565.416
522.058	18.168	1627.396	1565.151
523.073	18.256	1626.322	1564.737
524.087	18.349	1624.786	1563.927
525.102	18.237	1624.350	1562.296
526.116	18.230	1623.282	1561.011
527.131	18.241	1622.060	1559.750
528.146	18.293	1620.813	1558.843
529.160	18.269	1619.935	1557.596
530.175	18.230	1618.626	1555.790
531.189	18.443	1617.056	1556.038
532.204	18.326	1616.004	1553.778
533.219	18.248	1614.720	1551.641
534.233	18.291	1614.191	1551.339
535.248	18.359	1613.002	1550.636
536.262	18.294	1612.266	1549.150
537.277	18.254	1611.339	1547.704
538.292	18.381	1609.129	1546.549
539.306	18.154	1607.530	1542.770
540.321	18.177	1606.431	1541.741
541.335	18.290	1604.473	1540.700
542.350	18.274	1603.440	1539.377
543.365	18.259	1601.949	1537.632
544.379	18.278	1600.858	1536.567
545.394	18.348	1599.179	1535.400
546.408	18.284	1598.284	1533.781
547.423	18.298	1597.445	1532.923
548.438	18.190	1596.559	1530.920
549.452	18.121	1595.195	1528.805
550.467	18.303	1593.250	1528.390
551.481	18.209	1592.353	1526.509
552.496	18.328	1591.843	1526.904
553.511	18.354	1590.897	1526.040
554.525	18.256	1589.712	1523.850
555.540	18.456	1588.698	1524.483
556.554	18.426	1587.423	1522.809
557.569	18.377	1585.683	1520.514
558.583	18.295	1584.188	1518.175
559.598	18.248	1583.056	1516.486
560.613	18.293	1582.251	1515.938
561.627	18.274	1580.842	1514.230
562.642	18.411	1579.362	1513.855
563.656	18.415	1577.963	1512.365
564.671	18.291	1576.950	1510.110
565.686	18.354	1575.699	1509.295
566.700	18.208	1574.154	1506.339
567.715	18.257	1571.934	1504.473
568.729	18.213	1571.032	1503.037
569.744	18.167	1570.461	1501.909
570.759	18.061	1569.476	1499.849
571.773	18.120	1568.363	1499.124
572.788	18.194	1567.057	1498.349
573.802	18.317	1565.053	1497.333
574.817	18.170	1564.151	1495.004
575.832	18.407	1563.303	1496.089
576.846	18.309	1561.883	1493.692
577.861	18.347	1560.721	1492.735
578.875	18.314	1560.004	1491.580
579.890	18.600	1558.179	1492.166
580.905	18.308	1558.471	1489.707
581.919	18.375	1558.090	1489.755
582.934	18.326	1557.373	1488.461
583.948	18.403	1555.861	1487.510
584.963	18.258	1554.914	1485.161
585.978	18.194	1552.975	1482.571
586.992	18.441	1551.734	1483.365
588.007	18.294	1551.382	1481.568
589.021	18.385	1549.563	1480.441
590.036	18.295	1548.381	1478.360
591.051	18.347	1547.089	1477.395
592.065	18.338	1545.825	1475.936
593.080	18.432	1544.077	1474.902
594.094	18.364	1542.460	1472.596
595.109	18.262	1541.059	1470.196
596.123	18.226	1539.566	1468.289
597.138	18.371	1538.088	1467.950
598.153	18.393	1536.916	1466.844
599.167	18.368	1535.964	1465.552
600.182	18.438	1535.012	1465.069
601.196	18.526	1533.844	1464.535
602.211	18.411	1533.020	1462.581
603.226	18.440	1531.557	1461.261
604.240	18.397	1530.870	1460.061
605.255	18.636	1529.402	1460.533
606.269	18.445	1528.944	1458.286
607.284	18.458	1527.515	1456.858
608.299	18.280	1526.019	1453.735
609.313	18.258	1525.317	1452.712
610.328	18.357	1523.571	1451.715
611.342	18.542	1521.635	1451.271
612.357	18.491	1521.031	1450.087
613.372	18.607	1519.866	1449.793
614.386	18.382	1519.386	1447.245
615.401	18.429	1519.105	1447.209
616.415	18.445	1518.221	1446.324
617.430	18.355	1517.175	1444.390
618.445	18.376	1515.907	1443.195
619.459	18.292	1514.522	1440.989
620.474	18.168	1513.864	1439.138
621.488	18.166	1512.522	1437.676
622.503	18.267	1510.795	1436.718
623.518	18.341	1509.923	1436.337
624.532	18.374	1508.188	1434.795
625.547	18.254	1507.912	1433.348
626.561	18.347	1506.839	1432.940
627.576	18.475	1505.316	1432.391
628.591	18.319	1504.026	1429.688
629.605	18.101	1503.015	1426.727
630.620	18.219	1501.536	1426.139
631.634	18.276	1500.698	1425.651
632.649	18.294	1499.415	1424.413
633.663	18.274	1498.498	1423.201
634.678	18.257	1497.680	1422.114
635.693	18.531	1495.641	1422.290
636.707	18.531	1494.071	1420.628
637.722	18.588	1492.934	1419.848
638.736	18.482	1492.521	1418.411
639.751	18.695	1490.827	1418.401
640.766	18.750	1489.537	1417.461
641.780	18.610	1488.554	1415.189
642.795	18.522	1488.093	1413.856
643.809	18.548	1487.531	1413.364
644.824	18.518	1486.991	1412.438
645.839	18.543	1485.524	1411.081
646.853	18.596	1483.851	1409.763
647.868	18.525	1482.413	1407.640
648.882	18.582	1481.537	1407.108
649.897	18.575	1481.495	1406.843
650.912	18.566	1478.541	1403.795
651.926	18.612	1477.425	1402.944
652.941	18.594	1476.284	1401.546
653.955	18.549	1474.740	1399.547
654.970	18.463	1473.363	1397.364
655.985	18.404	1472.165	1395.581
656.999	18.456	1471.063	1394.795
658.014	18.505	1469.356	1393.408
659.028	18.450	1468.819	1392.280
660.043	18.485	1468.247	1391.857
661.058	18.567	1466.644	1390.844
662.072	18.590	1466.094	1390.338
663.087	18.533	1465.063	1388.728
664.101	18.524	1463.968	1387.453
665.116	18.506	1463.372	1386.579
666.131	18.510	1462.107	1385.243
667.145	18.615	1460.798	1384.691
668.160	18.649	1459.102	1383.194
669.174	18.686	1458.198	1382.472
670.189	18.563	1457.113	1380.277
671.204	18.557	1456.771	1379.746
672.218	18.559	1455.350	1378.244
673.233	18.661	1453.453	1377.108
674.247	18.627	1452.645	1375.903
675.262	18.785	1451.704	1376.123
676.276	18.810	1450.785	1375.290
677.291	18.744	1449.772	1373.633
678.306	18.694	1448.817	1372.163
679.320	18.668	1447.473	1370.516
680.335	18.637	1447.086	1369.732
681.349	18.744	1446.062	1369.457
682.364	18.584	1445.235	1367.229
683.379	18.563	1443.795	1365.540
684.393	18.596	1442.645	1364.553
685.408	18.529	1441.750	1363.007
686.422	18.498	1440.903	1361.797
687.437	18.540	1440.324	1361.420
688.452	18.607	1439.417	1360.934
689.466	18.481	1437.721	1358.166
690.481	18.355	1436.104	1355.469
691.495	18.395	1435.564	1355.117
692.510	18.384	1434.197	1353.573
693.525	18.370	1431.994	1351.221
694.539	18.336	1431.421	1350.253
695.554	18.567	1431.050	1351.572
696.568	18.512	1430.203	1350.175
697.583	18.781	1429.329	1351.311
698.598	18.472	1429.055	1348.450
699.612	18.688	1427.616	1348.634
700.627	18.637	1425.786	1346.345
701.641	18.645	1424.998	1345.500
702.656	18.641	1423.953	1344.324
703.671	18.735	1423.551	1344.523
704.685	18.611	1422.972	1342.840
705.700	18.766	1421.366	1342.380
706.714	18.759	1419.841	1340.723
707.729	18.568	1418.328	1337.634
708.744	18.602	1416.497	1336.019
709.758	18.516	1416.765	1335.437
710.773	18.541	1415.164	1333.962
711.787	18.577	1413.631	1332.642
712.802	18.452	1412.119	1330.080
713.816	18.513	1411.948	1330.235
714.831	18.506	1411.482	1329.580
715.846	18.682	1409.689	1329.106
716.860	18.744	1408.553	1328.357
717.875	18.859	1407.002	1327.629
718.889	18.698	1406.077	1325.350
719.904	18.705	1405.061	1324.285
720.919	18.758	1404.298	1323.820
721.933	18.810	1403.097	1322.927
722.948	18.888	1402.254	1322.579
723.962	18.838	1400.903	1320.761
724.977	18.820	1400.161	1319.765
725.992	18.608	1399.609	1317.448
727.006	18.658	1398.300	1316.446
728.021	18.682	1396.624	1314.894
729.035	18.873	1395.103	1314.772
730.050	18.829	1394.058	1313.298
731.065	18.801	1393.414	1312.312
732.079	18.762	1392.364	1310.871
733.094	18.882	1391.049	1310.397
734.108	18.692	1389.910	1307.709
735.123	18.804	1388.095	1306.701
736.138	18.669	1387.431	1304.890
737.152	18.779	1386.687	1304.876
738.167	18.798	1385.586	1303.823
739.181	18.833	1384.028	1302.471
740.196	18.807	1383.693	1301.805
741.211	18.677	1383.387	1300.370
742.225	18.836	1381.755	1299.886
743.240	18.817	1380.334	1298.247
744.254	18.723	1379.225	1296.336
745.269	18.740	1378.137	1295.289
746.284	18.672	1377.935	1294.430
747.298	18.588	1376.766	1292.540
748.313	18.362	1375.125	1289.132
749.327	18.474	1374.681	1289.415
750.342	18.385	1373.760	1287.718
751.356	18.379	1372.431	1286.274
752.371	18.441	1371.233	1285.469
753.386	18.544	1370.362	1285.274
754.400	18.637	1369.891	1285.377
755.415	18.810	1368.692	1285.400
756.429	18.937	1366.508	1284.145
757.444	18.828	1365.881	1282.586
758.459	18.714	1365.380	1281.105
759.473	18.793	1364.316	1280.547
760.488	18.919	1363.038	1280.140
761.502	18.958	1361.940	1279.243
762.517	18.739	1361.132	1276.700
763.532	18.650	1359.922	1274.747
764.546	18.748	1358.081	1273.597
765.561	18.620	1357.528	1271.975
766.575	18.529	1357.566	1271.180
767.590	18.424	1355.955	1268.732
768.605	18.647	1354.004	1268.415
769.619	18.754	1352.156	1267.330
770.634	18.760	1351.997	1267.066
771.648	18.973	1351.623	1268.147
772.663	18.943	1350.776	1266.980
773.678	18.935	1350.035	1266.068
774.692	18.861	1348.966	1264.367
775.707	18.789	1349.244	1263.950
776.721	18.878	1347.869	1263.162
777.736	18.797	1346.631	1261.253
778.751	18.935	1345.363	1260.936
779.765	18.841	1344.163	1258.967
780.780	18.873	1343.528	1258.460
781.794	18.795	1342.884	1257.128
782.809	18.681	1342.323	1255.617
783.824	18.683	1340.861	1254.115
784.838	18.576	1338.578	1251.042
785.853	18.406	1337.470	1248.608
786.867	18.411	1336.934	1247.996
787.882	18.613	1335.976	1248.432
788.897	18.575	1335.837	1247.873
789.911	18.585	1335.003	1247.023
790.926	18.714	1333.725	1246.622
791.940	18.826	1331.920	1245.601
792.955	18.795	1331.095	1244.456
793.969	18.774	1330.273	1243.384
794.984	18.686	1329.857	1242.201
795.999	18.765	1328.513	1241.375
797.013	18.830	1326.269	1239.603
798.028	18.780	1324.981	1237.888
799.042	18.878	1324.849	1238.325
800.057	18.950	1323.786	1237.700
801.072	18.977	1322.020	1236.102
802.086	19.003	1321.050	1235.235
803.101	18.893	1320.613	1233.883
804.115	18.813	1320.369	1232.930
805.130	18.906	1318.870	1232.053
806.145	18.944	1317.679	1231.062
807.159	18.991	1315.660	1229.367
808.174	18.833	1314.779	1227.264
809.188	18.861	1313.226	1225.866
810.203	18.899	1311.363	1224.257
811.218	18.736	1310.279	1221.928
812.232	18.684	1308.790	1220.027
813.247	18.645	1307.818	1218.693
814.261	18.772	1307.613	1219.265
815.276	18.761	1307.365	1218.807
816.291	18.976	1305.976	1218.902
817.305	19.003	1305.225	1218.247
818.320	18.782	1304.178	1215.551
819.334	18.828	1302.716	1214.369
820.349	18.973	1300.795	1213.462
821.364	19.110	1299.336	1212.927
822.378	18.848	1298.133	1209.798
823.393	18.839	1297.334	1208.848
824.407	18.921	1296.045	1208.084
825.422	18.789	1295.408	1206.414
826.437	18.894	1293.962	1205.663
827.451	18.745	1292.109	1202.739
828.466	18.658	1290.123	1200.139
829.480	18.423	1289.058	1197.350
830.495	18.651	1287.242	1197.125
831.509	18.676	1286.712	1196.661
832.524	18.817	1286.342	1197.161
833.539	18.769	1284.926	1195.363
834.553	18.899	1283.853	1195.134
835.568	18.977	1282.878	1194.623
836.582	18.997	1282.154	1193.948
837.597	19.095	1280.781	1193.211
838.612	19.060	1279.300	1191.445
839.626	18.976	1278.261	1189.751
840.641	18.961	1277.103	1188.422
841.655	18.727	1276.422	1186.027
842.670	18.839	1275.214	1185.537
843.685	18.591	1275.025	1183.499
844.699	18.717	1273.925	1183.210
845.714	18.731	1272.780	1182.097
846.728	18.890	1271.708	1182.060
847.743	19.078	1270.277	1181.892
848.758	19.097	1269.136	1180.816
849.772	19.074	1267.785	1179.258
850.787	19.023	1265.990	1177.101
851.801	18.854	1265.563	1175.401
852.816	18.957	1263.563	1174.112
853.831	18.670	1263.238	1171.696
854.845	18.682	1261.500	1170.029
855.860	18.638	1259.838	1168.047
856.874	18.727	1258.880	1167.625
857.889	18.622	1257.320	1165.320
858.904	18.566	1255.458	1163.074
859.918	18.415	1254.336	1160.869
860.933	18.315	1253.157	1158.953
861.947	18.481	1252.774	1159.593
862.962	18.703	1251.023	1159.339
863.977	18.637	1250.311	1158.092
864.991	18.724	1249.459	1157.754
866.006	18.822	1249.150	1157.996
867.020	18.859	1247.845	1156.897
868.035	18.960	1246.928	1156.590
869.049	19.006	1246.420	1156.290
870.064	18.949	1245.050	1154.498
871.079	19.069	1244.578	1154.733
872.093	19.007	1244.010	1153.650
873.108	19.064	1242.737	1152.713
874.122	18.835	1241.806	1150.172
875.137	18.859	1241.628	1150.030
876.152	18.941	1239.728	1148.682
877.166	18.846	1238.244	1146.535
878.181	19.025	1236.957	1146.404
879.195	19.058	1236.933	1146.468
880.210	19.104	1235.912	1145.687
881.225	19.018	1234.867	1144.009
882.239	18.971	1233.612	1142.395
883.254	19.028	1232.446	1141.561
884.268	19.123	1231.667	1141.335
885.283	19.184	1230.543	1140.559
886.298	19.196	1228.435	1138.551
887.312	19.038	1228.122	1137.073
888.327	19.055	1227.168	1136.172
889.341	18.968	1225.965	1134.341
890.356	18.906	1225.226	1133.115
891.371	19.000	1225.408	1133.770
892.385	18.934	1224.344	1132.213
893.400	18.893	1223.014	1130.575
894.414	18.994	1221.586	1129.782
895.429	18.921	1219.896	1127.605
896.444	18.604	1218.374	1123.976
897.458	18.359	1217.532	1121.453
898.473	18.682	1216.766	1122.741
899.487	18.728	1216.210	1122.390
900.502	18.952	1215.134	1122.733
901.517	18.916	1214.142	1121.446
902.531	19.086	1212.821	1121.205
903.546	19.102	1212.119	1120.532
904.560	19.105	1211.633	1119.964
905.575	19.204	1210.770	1119.678
906.589	19.332	1210.001	1119.673
907.604	19.100	1209.511	1117.571
