DTS Sentinel unit serial number:	SN409020Multiplexer serial number:	ORYXHardware model number:	OX4-SRSoftware version number:	ORYX F/W v3.00 Oryx Data Collector v3.7.2.0data status	okinstallation	HaddamTimeLapsedifferential loss correction	single-endedforward channel	channel 3reverse channel	N/Adate	2011/06/21time	18:16:17forward acquisition time	30.00reverse acquisition time	0.00gamma	498.7831k internal	0.1827k external	0.1827temperature offset calibration	1.0074default loss term (dB/km)	0.3790temperature slope calibration	1.3530multiplexer offset coefficient	1.0000multiplexer slope coefficient	1.0000fibre end	0.00T internal ref (°C)	36.37T ext. ref 1 (°C)	28.50T ext. ref 2 (°C)	0.26length (m)	temperature (°C)	Stokes	anti-Stokes-747.200	-98.664	-0.137	-0.044
-746.185	-65.843	0.434	0.220
-745.171	7.388	-0.409	-0.389
-744.156	485.356	0.210	0.612
-743.142	-90.888	0.481	0.175
-742.127	81.222	0.257	0.354
-741.112	26.645	0.282	-0.300
-740.098	-200.000	0.023	0.314
-739.083	328.731	0.076	-0.186
-738.069	144.013	0.323	0.549
-737.054	-27.812	-0.360	0.265
-736.039	-112.375	0.343	0.087
-735.025	-26.647	0.267	0.198
-734.010	-131.685	0.159	0.026
-732.996	-34.833	-0.245	-0.170
-731.981	800.000	-0.114	-0.433
-730.966	-125.284	0.412	-0.079
-729.952	-59.110	0.436	-0.238
-728.937	-200.000	0.064	-0.382
-727.923	-65.975	-0.223	-0.113
-726.908	-20.630	0.054	0.042
-725.894	79.773	0.242	-0.331
-724.879	-152.876	-0.208	-0.018
-723.864	-85.949	-0.183	0.072
-722.850	-51.247	-0.148	-0.088
-721.835	-26.977	-0.422	0.313
-720.821	155.137	0.141	-0.248
-719.806	800.000	0.130	-0.493
-718.791	-89.236	-0.208	0.078
-717.777	-50.368	-0.253	-0.151
-716.762	-111.737	-0.309	-0.079
-715.748	-63.171	0.317	0.166
-714.733	535.326	0.126	0.382
-713.718	96.308	-0.287	-0.417
-712.704	-146.108	0.216	-0.024
-711.689	-95.196	-0.247	0.084
-710.675	-200.000	0.026	0.276
-709.660	359.454	-0.190	0.485
-708.645	-33.165	-0.096	0.067
-707.631	-108.841	0.793	0.214
-706.616	-115.508	-0.291	-0.069
-705.602	-200.000	-0.056	0.368
-704.587	-158.761	-0.677	-0.049
-703.572	-114.065	0.309	0.075
-702.558	800.000	-0.101	-0.383
-701.543	-200.000	-0.054	-0.356
-700.529	461.654	-0.058	-0.165
-699.514	2.848	0.285	-0.262
-698.499	244.235	-0.096	0.206
-697.485	15.892	0.221	0.221
-696.470	800.000	-0.028	-0.117
-695.456	-2.057	-0.150	-0.134
-694.441	746.655	0.094	0.323
-693.426	-200.000	-0.043	0.370
-692.412	-118.449	0.211	0.047
-691.397	-200.000	0.005	0.310
-690.383	484.300	0.134	0.389
-689.368	37.395	-0.125	0.140
-688.354	-63.758	0.535	0.278
-687.339	-79.665	0.081	0.035
-686.324	587.372	-0.069	0.218
-685.310	-200.000	-0.030	-0.217
-684.295	-200.000	0.016	-0.353
-683.281	-200.000	0.005	0.295
-682.266	-200.000	-0.017	0.121
-681.251	-93.229	-0.132	-0.046
-680.237	314.865	-0.142	-0.341
-679.222	-111.307	0.272	0.070
-678.208	304.799	-0.178	-0.422
-677.193	78.400	-0.155	-0.210
-676.178	800.000	0.071	-0.323
-675.164	800.000	0.064	-0.284
-674.149	28.637	0.265	-0.285
-673.135	-57.494	-0.227	0.126
-672.120	117.795	0.286	0.447
-671.105	-46.964	0.222	0.137
-670.091	-67.072	-0.213	-0.106
-669.076	-30.911	0.275	-0.197
-668.062	18.815	0.368	-0.374
-667.047	309.225	0.157	-0.375
-666.032	-70.481	0.393	-0.188
-665.018	21.968	0.230	-0.238
-664.003	-200.000	-0.006	0.215
-662.989	-200.000	0.090	0.524
-661.974	-52.030	-0.160	-0.094
-660.959	-110.920	-0.311	0.080
-659.945	218.133	0.140	0.283
-658.930	466.590	-0.072	-0.206
-657.916	85.128	-0.222	0.309
-656.901	565.394	0.070	-0.217
-655.886	-99.541	0.594	-0.188
-654.872	-67.683	-0.286	-0.141
-653.857	606.935	0.134	-0.425
-652.843	43.907	-0.267	0.311
-651.828	-87.143	-0.310	-0.119
-650.814	256.126	-0.180	-0.393
-649.799	165.056	-0.063	0.112
-648.784	-26.368	-0.110	-0.082
-647.770	37.456	0.159	0.179
-646.755	-196.179	0.166	0.001
-645.741	109.388	0.184	-0.280
-644.726	-61.847	0.174	-0.092
-643.711	140.100	0.219	0.367
-642.697	-90.981	0.190	0.069
-641.682	-200.000	0.414	0.002
-640.668	8.392	0.280	0.267
-639.653	184.926	0.184	-0.346
-638.638	-200.000	0.006	-0.200
-637.624	-200.000	0.033	-0.411
-636.609	-200.000	0.004	-0.117
-635.595	-9.561	-0.176	-0.149
-634.580	-200.000	0.007	-0.242
-633.565	-61.081	0.224	-0.119
-632.551	-68.235	-0.169	-0.083
-631.536	412.265	-0.133	-0.359
-630.522	-93.827	-0.566	-0.196
-629.507	-77.717	-0.534	0.233
-628.492	-118.421	-0.048	-0.011
-627.478	196.327	0.049	-0.095
-626.463	171.649	-0.119	-0.217
-625.449	162.429	0.169	-0.301
-624.434	168.910	-0.162	-0.293
-623.419	-170.058	-0.052	-0.002
-622.405	-80.792	-0.032	0.013
-621.390	-80.855	0.124	0.052
-620.376	425.155	0.159	0.437
-619.361	-167.044	-0.201	0.010
-618.346	4.233	0.094	-0.087
-617.332	13.863	0.227	0.223
-616.317	-9.679	-0.211	0.178
-615.303	751.016	-0.093	-0.318
-614.288	-200.000	-0.014	0.207
-613.273	102.619	-0.126	0.187
-612.259	38.045	0.194	-0.219
-611.244	5.552	0.451	-0.422
-610.230	494.890	-0.203	-0.592
-609.215	154.883	0.235	-0.409
-608.201	149.968	-0.066	-0.114
-607.186	-160.367	-0.638	-0.043
-606.171	-57.905	0.367	-0.202
-605.157	-12.612	0.176	-0.145
-604.142	5.432	-0.193	-0.180
-603.128	-98.309	0.160	-0.052
-602.113	-7.579	-0.296	-0.254
-601.098	-26.500	-0.303	0.224
-600.084	-156.991	0.273	0.021
-599.069	45.181	0.122	-0.142
-598.055	213.429	0.159	-0.320
-597.040	145.071	-0.138	-0.234
-596.025	69.372	-0.056	-0.073
-595.011	-73.275	0.208	-0.096
-593.996	538.778	-0.055	0.167
-592.982	473.116	-0.041	0.118
-591.967	-200.000	0.040	0.236
-590.952	800.000	-0.162	0.700
-589.938	298.793	-0.125	0.291
-588.923	-63.729	0.039	-0.020
-587.909	-65.452	-0.187	-0.095
-586.894	-200.000	-0.021	-0.239
-585.879	-99.251	-0.375	0.119
-584.865	173.340	-0.318	-0.581
-583.850	-200.000	0.044	0.390
-582.836	-3.685	-0.453	-0.398
-581.821	-200.000	-0.035	-0.307
-580.806	-115.925	-0.609	-0.143
-579.792	-52.657	-0.115	0.067
-578.777	-37.593	0.322	0.216
-577.763	-200.000	0.010	-0.081
-576.748	-112.118	-0.581	0.147
-575.733	-104.250	0.120	0.035
-574.719	800.000	0.058	0.246
-573.704	-134.463	-0.433	0.066
-572.690	-117.868	-0.189	-0.043
-571.675	79.749	-0.113	0.154
-570.661	25.777	0.321	0.338
-569.646	54.785	-0.201	-0.245
-568.631	-18.750	0.235	-0.184
-567.617	289.957	0.143	-0.329
-566.602	-56.868	0.368	-0.205
-565.588	-150.813	0.407	-0.039
-564.573	201.150	0.120	0.235
-563.558	-107.869	0.319	-0.087
-562.544	-10.698	0.087	-0.073
-561.529	296.188	0.034	-0.079
-560.515	-200.000	-0.013	-0.306
-559.500	-167.119	-0.497	0.025
-558.485	-118.024	0.104	-0.023
-557.471	-100.514	0.294	-0.091
-556.456	-200.000	0.034	-0.586
-555.442	-126.798	-0.199	0.037
-554.427	606.239	-0.163	-0.516
-553.412	95.488	-0.124	-0.178
-552.398	-200.000	0.018	-0.615
-551.383	219.909	0.068	-0.138
-550.369	386.197	0.165	-0.433
-549.354	-45.774	0.463	0.289
-548.339	-95.097	-0.426	0.144
-547.325	-100.078	0.280	-0.088
-546.310	555.338	0.140	-0.427
-545.296	-118.337	0.296	0.066
-544.281	74.852	0.160	0.214
-543.266	-200.000	-0.009	0.349
-542.252	-94.463	0.293	-0.100
-541.237	185.924	-0.268	0.504
-540.223	439.658	-0.104	0.287
-539.208	410.158	0.098	-0.263
-538.193	-132.128	-0.142	0.023
-537.179	-123.456	0.319	0.064
-536.164	-86.759	-0.152	-0.058
-535.150	-182.533	0.075	-0.002
-534.135	47.625	0.082	-0.097
-533.121	5.613	0.442	0.412
-532.106	-60.151	0.334	-0.179
-531.091	-126.481	-0.157	0.029
-530.077	800.000	-0.069	0.246
-529.062	14.398	-0.183	0.180
-528.048	-87.450	-0.279	-0.106
-527.033	-83.293	-0.224	-0.090
-526.018	-69.496	0.411	0.198
-525.004	-200.000	0.001	0.211
-523.989	-80.813	-0.263	-0.110
-522.975	6.854	-0.408	-0.383
-521.960	195.324	-0.149	0.286
-520.945	-200.000	0.004	0.336
-519.931	-105.533	-0.421	0.120
-518.916	-200.000	0.002	-0.282
-517.902	-200.000	0.009	0.241
-516.887	-38.977	-0.256	0.170
-515.872	-131.121	0.329	0.055
-514.858	-24.089	-0.467	-0.351
-513.843	-42.080	0.129	0.083
-512.829	127.302	0.215	0.345
-511.814	258.149	-0.074	0.162
-510.799	161.609	-0.077	-0.136
-509.785	-200.000	0.008	0.213
-508.770	551.914	-0.041	-0.125
-507.756	-52.975	-0.189	0.109
-506.741	-11.657	-0.463	-0.383
-505.726	-35.213	-0.511	-0.350
-504.712	133.975	0.240	0.394
-503.697	-109.407	0.386	-0.102
-502.683	235.302	-0.069	0.145
-501.668	46.048	0.162	-0.189
-500.653	33.458	0.039	-0.042
-499.639	482.626	-0.151	0.436
-498.624	-91.842	-0.112	0.040
-497.610	-40.730	-0.241	-0.157
-496.595	-168.305	-0.273	-0.013
-495.581	-12.264	0.450	0.370
-494.566	26.498	0.129	0.136
-493.551	-11.504	-0.298	0.247
-492.537	-198.369	-0.427	-0.003
-491.522	-200.000	-0.058	-0.568
-490.508	-200.000	-0.029	0.168
-489.493	42.506	0.171	0.196
-488.478	-200.000	-0.033	-0.290
-487.464	6.999	-0.484	0.454
-486.449	127.422	0.245	0.393
-485.435	54.888	0.054	0.066
-484.420	1.491	0.455	-0.412
-483.405	22.749	0.144	-0.148
-482.391	-39.234	0.243	0.160
-481.376	800.000	-0.044	0.168
-480.362	686.839	0.059	-0.195
-479.347	-59.414	0.228	-0.123
-478.332	-153.647	0.314	-0.027
-477.318	-93.834	0.587	0.202
-476.303	352.543	-0.081	0.203
-475.289	232.097	0.117	0.242
-474.274	6.934	0.275	-0.258
-473.259	-120.635	0.180	0.038
-472.245	-200.000	-0.038	-0.331
-471.230	-30.358	-0.233	0.166
-470.216	-94.452	-0.217	0.074
-469.201	-14.185	0.393	-0.319
-468.186	-174.507	0.342	0.012
-467.172	-161.736	0.539	0.034
-466.157	-71.600	0.369	-0.173
-465.143	-34.488	-0.418	-0.288
-464.128	800.000	0.073	-0.327
-463.113	-168.956	-0.252	-0.012
-462.099	-20.583	0.138	0.106
-461.084	359.672	-0.159	0.403
-460.070	289.488	0.192	-0.439
-459.055	44.584	-0.130	-0.150
-458.040	585.899	0.053	-0.166
-457.026	78.942	-0.276	-0.373
-456.011	800.000	-0.088	-0.326
-454.997	-105.134	-0.201	0.057
-453.982	-135.648	-0.696	0.103
-452.968	-154.905	0.215	-0.018
-451.953	800.000	-0.073	0.280
-450.938	-81.609	-0.138	-0.057
-449.924	18.621	-0.175	0.176
-448.909	133.039	0.174	-0.284
-447.895	53.655	-0.187	-0.226
-446.880	601.039	0.103	-0.325
-445.865	118.939	0.192	0.299
-444.851	-5.597	-0.219	-0.189
-443.836	-42.790	0.352	0.224
-442.822	324.000	-0.043	-0.103
-441.807	-49.172	0.363	0.218
-440.792	134.404	0.312	0.511
-439.778	-200.000	-0.008	-0.109
-438.763	800.000	0.090	0.325
-437.749	-41.047	-0.074	0.048
-436.734	-21.399	-0.124	0.095
-435.719	800.000	-0.043	-0.190
-434.705	-158.783	0.223	-0.016
-433.690	-75.521	-0.392	0.175
-432.676	381.006	0.114	-0.296
-431.661	-146.166	0.454	0.050
-430.646	-125.963	0.333	-0.062
-429.632	758.654	-0.037	0.126
-428.617	-53.148	-0.416	0.239
-427.603	-106.598	-0.407	0.113
-426.588	300.201	0.171	0.398
-425.573	268.028	-0.052	-0.115
-424.559	-102.549	-0.154	-0.046
-423.544	-200.000	-0.053	0.343
-422.530	-53.971	-0.337	0.192
-421.515	-200.000	0.077	-0.496
-420.500	-8.083	-0.190	-0.161
-419.486	-94.378	0.522	-0.178
-418.471	-200.000	-0.011	0.116
-417.457	-39.929	-0.528	-0.346
-416.442	-137.813	-0.573	-0.080
-415.428	631.158	0.031	0.100
-414.413	-120.569	-0.488	0.103
-413.398	89.436	-0.164	-0.229
-412.384	-200.000	-0.029	0.376
-411.369	261.819	0.142	0.310
-410.355	-124.714	-0.238	0.046
-409.340	139.098	-0.222	0.367
-408.325	-79.719	0.265	-0.112
-407.311	-23.223	0.276	-0.208
-406.296	-5.924	-0.114	0.098
-405.282	-122.498	-0.173	0.035
-404.267	800.000	0.027	-0.148
-403.252	800.000	-0.121	-0.440
-402.238	762.475	0.121	0.415
-401.223	-134.615	0.366	0.055
-400.209	-83.831	0.486	0.193
-399.194	-30.016	-0.383	0.273
-398.179	-112.090	-0.232	-0.058
-397.165	-123.154	-0.330	-0.066
-396.150	21.981	-0.298	-0.306
-395.136	101.269	-0.144	-0.212
-394.121	-37.900	0.106	0.071
-393.106	281.690	0.106	0.240
-392.092	112.976	-0.129	0.197
-391.077	-169.596	-0.284	-0.013
-390.063	12.930	0.007	0.007
-389.048	-200.000	-0.005	0.076
-388.033	-152.530	0.130	-0.012
-387.019	-200.000	-0.033	0.326
-386.004	-90.326	0.738	0.267
-384.990	-112.184	0.073	-0.018
-383.975	-200.000	0.002	0.086
-382.960	-98.557	-0.359	0.114
-381.946	-200.000	-0.010	-0.155
-380.931	485.043	0.192	-0.551
-379.917	-54.017	0.307	-0.175
-378.902	-177.303	-0.532	-0.016
-377.888	-92.668	0.227	0.079
-376.873	-200.000	0.028	0.222
-375.858	-200.000	-0.021	-0.133
-374.844	-85.861	0.313	0.121
-373.829	136.161	0.367	0.602
-372.815	251.721	-0.276	0.592
-371.800	215.657	-0.248	0.496
-370.785	692.726	0.119	0.393
-369.771	-3.005	-0.413	0.361
-368.756	57.613	-0.354	0.434
-367.742	-200.000	-0.006	0.347
-366.727	-80.104	-0.305	0.127
-365.712	-24.164	-0.196	-0.147
-364.698	31.671	0.085	0.092
-363.683	-200.000	0.056	0.380
-362.669	-18.134	0.107	0.084
-361.654	-147.026	0.208	-0.022
-360.639	-28.659	0.249	-0.179
-359.625	800.000	0.038	0.138
-358.610	-200.000	-0.004	0.411
-357.596	12.547	0.309	-0.298
-356.581	150.043	0.112	-0.192
-355.566	-36.947	-0.285	0.191
-354.552	257.460	0.184	-0.398
-353.537	-123.387	-0.547	0.108
-352.523	-179.872	0.185	0.005
-351.508	800.000	-0.037	-0.138
-350.493	48.411	-0.238	-0.280
-349.479	800.000	-0.063	0.234
-348.464	-188.988	0.427	-0.006
-347.450	-78.147	-0.058	0.025
-346.435	768.681	0.111	0.380
-345.420	89.173	0.181	-0.253
-344.406	-30.057	-0.140	-0.100
-343.391	-91.084	0.383	-0.137
-342.377	-158.783	0.052	-0.004
-341.362	800.000	0.178	0.976
-340.348	-200.000	0.016	0.811
-339.333	-9.767	0.390	0.325
-338.318	-84.399	-0.175	-0.069
-337.304	29.386	-0.194	0.207
-336.289	-6.601	0.191	-0.163
-335.275	356.103	-0.173	-0.435
-334.260	-116.093	-0.163	-0.038
-333.245	1.920	0.055	0.049
-332.231	-99.010	0.450	-0.142
-331.216	-50.816	0.235	0.138
-330.202	63.167	0.228	-0.286
-329.187	-156.981	-0.218	-0.016
-328.172	-145.402	0.523	-0.058
-327.158	73.246	0.046	-0.061
-326.143	326.945	-0.113	-0.273
-325.129	-200.000	-0.051	0.365
-324.114	-177.507	-0.404	0.012
-323.099	-200.000	-0.013	-0.267
-322.085	129.364	0.246	0.395
-321.070	-41.195	0.427	-0.275
-320.056	-20.109	-0.034	-0.026
-319.041	800.000	0.062	-0.309
-318.026	-200.000	-0.055	-0.392
-317.012	75.676	0.088	0.116
-315.997	-200.000	-0.023	0.160
-314.983	-200.000	0.019	-0.511
-313.968	-119.345	0.185	-0.040
-312.953	-134.048	-0.369	-0.057
-311.939	210.026	-0.140	0.275
-310.924	50.495	-0.206	0.244
-309.910	445.062	0.153	-0.423
-308.895	45.206	0.216	0.250
-307.880	-4.375	-0.094	0.081
-306.866	-155.617	0.546	-0.043
-305.851	272.243	0.073	0.162
-304.837	800.000	-0.041	0.175
-303.822	364.312	0.061	-0.153
-302.807	69.197	0.134	-0.172
-301.793	-69.354	-0.214	-0.102
-300.778	-118.381	-0.114	-0.025
-299.764	120.999	-0.048	-0.075
-298.749	-42.954	0.146	-0.093
-297.735	800.000	0.030	-0.124
-296.720	-98.616	0.052	0.017
-295.705	-118.846	0.218	-0.047
-294.691	-38.525	0.359	0.237
-293.676	-116.004	0.208	-0.048
-292.662	9.623	0.132	0.125
-291.647	800.000	0.064	-0.308
-290.632	-27.143	0.227	0.166
-289.618	-86.770	-0.283	0.107
-288.603	-200.000	0.059	-0.382
-287.589	-156.441	0.362	-0.028
-286.574	291.154	-0.138	-0.314
-285.559	-135.425	-0.276	-0.041
-284.545	25.750	-0.184	0.191
-283.530	-112.040	0.114	0.029
-282.516	-94.174	-0.164	0.056
-281.501	0.192	-0.500	0.445
-280.486	-92.850	-0.090	0.031
-279.472	10.880	-0.164	-0.156
-278.457	145.342	0.037	-0.062
-277.443	98.956	-0.100	0.144
-276.428	-112.272	-0.257	0.064
-275.413	-144.881	0.251	-0.028
-274.399	-163.672	0.596	0.035
-273.384	-94.078	-0.029	0.010
-272.370	167.631	-0.145	0.258
-271.355	800.000	0.075	0.287
-270.340	-158.301	0.789	0.057
-269.326	-44.921	0.333	-0.206
-268.311	727.363	0.014	-0.046
-267.297	-94.923	-0.437	0.147
-266.282	-37.186	-0.226	-0.151
-265.267	86.967	0.263	0.363
-264.253	-57.934	0.291	-0.158
-263.238	-200.000	-0.005	-0.183
-262.224	397.159	0.075	0.197
-261.209	800.000	0.080	-0.297
-260.195	-200.000	-0.009	0.276
-259.180	-200.000	0.044	0.318
-258.165	-33.970	0.240	-0.165
-257.151	-186.553	-0.480	0.008
-256.136	-200.000	-0.001	-0.272
-255.122	-38.271	0.190	0.125
-254.107	-129.495	-0.717	-0.123
-253.092	10.438	0.021	0.020
-252.078	-37.374	-0.381	-0.254
-251.063	-200.000	-0.003	-0.188
-250.049	-158.308	0.370	-0.027
-249.034	-65.946	0.337	0.167
-248.019	92.151	-0.142	0.201
-247.005	-80.399	-0.084	-0.035
-245.990	24.678	-0.158	-0.164
-244.976	-72.542	0.419	0.192
-243.961	-54.860	-0.401	0.225
-242.946	210.098	-0.084	-0.164
-241.932	-73.053	-0.429	-0.196
-240.917	-84.953	-0.317	0.124
-239.903	-90.210	0.316	-0.114
-238.888	800.000	0.074	-0.320
-237.873	-200.000	-0.041	-0.341
-236.859	800.000	0.020	0.083
-235.844	749.066	-0.034	-0.115
-234.830	-30.023	-0.175	-0.124
-233.815	-40.658	0.185	-0.120
-232.800	-111.709	-0.109	0.027
-231.786	-184.216	0.554	0.011
-230.771	-200.000	0.012	0.849
-229.757	-61.084	-0.564	-0.296
-228.742	345.771	-0.147	0.362
-227.727	-200.000	0.034	-0.219
-226.713	233.076	0.294	-0.605
-225.698	-80.974	0.360	0.148
-224.684	-93.347	0.083	0.028
-223.669	-200.000	-0.056	-0.311
-222.655	-173.953	0.125	-0.005
-221.640	800.000	-0.097	0.350
-220.625	-200.000	-0.065	-0.463
-219.611	800.000	-0.134	-0.712
-218.596	13.979	0.221	0.215
-217.582	-1.505	0.286	-0.252
-216.567	138.918	0.090	-0.148
-215.552	275.470	-0.055	0.122
-214.538	-24.244	0.225	-0.167
-213.523	9.142	-0.255	-0.240
-212.509	576.863	-0.022	0.068
-211.494	69.380	0.104	0.134
-210.479	-22.510	0.284	0.214
-209.465	553.306	0.044	0.132
-208.450	425.683	-0.055	0.149
-207.436	23.184	-0.446	0.456
-206.421	-86.595	-0.576	0.219
-205.406	-111.255	-0.275	-0.070
-204.392	-89.244	-0.445	0.163
-203.377	110.820	-0.127	-0.190
-202.363	-2.849	-0.231	0.201
-201.348	-46.215	0.446	0.273
-200.333	800.000	0.075	-0.262
-199.319	-130.170	-0.408	0.069
-198.304	-114.747	-0.355	-0.084
-197.290	-200.000	-0.012	0.633
-196.275	-114.865	-0.455	0.107
-195.260	-27.255	-0.141	0.102
-194.246	-71.310	0.438	0.204
-193.231	125.094	-0.274	0.432
-192.217	-144.426	-0.255	0.029
-191.202	-82.886	-0.363	-0.145
-190.187	157.893	0.210	-0.363
-189.173	-200.000	-0.194	0.001
-188.158	-200.000	-0.029	-0.409
-187.144	-12.870	-0.216	0.175
-186.129	606.756	0.107	-0.334
-185.114	-200.000	-0.022	-0.307
-184.100	-139.030	0.449	0.060
-183.085	35.117	0.164	-0.179
-182.071	-108.328	0.208	-0.056
-181.056	-63.163	0.174	0.089
-180.042	-200.000	0.003	0.360
-179.027	-44.172	-0.202	0.126
-178.012	-55.911	-0.075	0.042
-176.998	46.525	0.120	0.139
-175.983	-39.359	0.217	-0.142
-174.969	76.670	-0.267	-0.352
-173.954	-122.803	0.588	-0.117
-172.939	800.000	0.117	0.492
-171.925	-200.000	0.044	0.316
-170.910	312.531	0.101	0.238
-169.896	176.557	0.160	-0.290
-168.881	800.000	-0.040	0.190
-167.866	701.253	-0.088	0.290
-166.852	-41.081	-0.350	-0.225
-165.837	84.365	-0.215	0.292
-164.823	228.616	0.313	-0.637
-163.808	342.717	0.125	-0.305
-162.793	-51.481	-0.186	0.108
-161.779	-69.849	0.140	-0.066
-160.764	-44.155	-0.172	0.107
-159.750	-91.630	-0.302	0.106
-158.735	-200.000	0.050	-0.555
-157.720	-187.182	-0.162	-0.003
-156.706	105.000	0.084	-0.123
-155.691	-200.000	-0.012	-0.221
-154.677	179.926	0.420	0.768
-153.662	22.486	-0.137	-0.140
-152.647	-105.001	0.237	-0.067
-151.633	237.702	0.189	0.392
-150.618	-33.190	-0.301	-0.207
-149.604	454.810	0.113	-0.314
-148.589	-128.150	-0.311	-0.055
-147.574	-144.321	0.502	0.057
-146.560	-11.324	-0.061	-0.050
-145.545	-51.709	-0.330	0.191
-144.531	-133.313	-0.158	0.025
-143.516	-68.548	0.161	-0.077
-142.502	-61.628	-0.305	0.158
-141.487	468.997	0.143	0.402
-140.472	-132.819	0.560	0.088
-139.458	800.000	0.020	0.074
-138.443	424.883	-0.198	-0.532
-137.429	-126.510	-0.603	0.110
-136.414	-141.176	-0.168	-0.021
-135.399	230.973	0.015	0.030
-134.385	10.072	0.045	-0.042
-133.370	36.878	0.306	-0.337
-132.356	-82.199	-0.111	0.045
-131.341	-48.354	0.107	-0.064
-130.326	-1.928	-0.179	-0.156
-129.312	-175.729	0.309	0.010
-128.297	131.559	0.167	-0.267
-127.283	169.939	-0.067	-0.119
-126.268	-133.571	-0.645	0.099
-125.253	-148.963	-0.427	-0.042
-124.239	368.004	0.033	0.084
-123.224	-107.957	-0.193	0.052
-122.210	-136.839	-0.327	-0.046
-121.195	-6.563	0.319	0.269
-120.180	-58.699	-0.112	-0.060
-119.166	-58.629	-0.055	0.029
-118.151	-76.917	-0.253	0.110
-117.137	800.000	0.039	0.214
-116.122	198.829	0.113	0.216
-115.107	-15.268	-0.274	-0.217
-114.093	18.481	-0.232	0.230
-113.078	-200.000	0.046	0.329
-112.064	-175.033	0.383	-0.013
-111.049	-17.499	-0.262	0.205
-110.034	-61.115	-0.452	-0.236
-109.020	499.256	-0.054	0.155
-108.005	62.502	0.404	0.502
-106.991	-6.976	0.092	0.078
-105.976	227.133	0.159	0.322
-104.962	22.349	-0.144	0.147
-103.947	-165.644	-0.423	-0.022
-102.932	6.517	-0.246	-0.227
-101.918	330.605	0.022	-0.052
-100.903	-107.418	-0.312	-0.084
-99.889	-31.598	-0.130	-0.090
-98.874	-102.425	0.317	0.093
-97.859	-56.803	-0.123	-0.068
-96.845	122.032	0.059	0.092
-95.830	65.036	0.147	-0.184
-94.816	-200.000	0.003	-0.241
-93.801	91.787	-0.193	0.270
-92.786	138.990	0.038	0.061
-91.772	-57.780	-0.451	0.244
-90.757	-59.683	0.199	0.105
-89.743	-67.777	-0.256	-0.124
-88.728	-139.229	-0.313	-0.041
-87.713	-175.481	-0.531	0.018
-86.699	-101.987	-0.304	0.091
-85.684	377.507	-0.083	-0.211
-84.670	-105.679	-0.355	-0.099
-83.655	-200.000	0.024	-0.165
-82.640	-9.619	-0.103	0.085
-81.626	-135.787	0.204	-0.030
-80.611	-90.683	0.228	0.081
-79.597	-71.489	-0.275	0.127
-78.582	-99.209	0.342	0.107
-77.567	24.379	0.216	-0.221
-76.553	64.058	-0.249	-0.311
-75.538	-105.777	-0.217	-0.060
-74.524	-54.931	-0.282	0.157
-73.509	-200.000	-0.062	0.360
-72.494	422.066	-0.136	0.362
-71.480	-0.527	0.135	0.119
-70.465	-200.000	0.057	0.345
-69.451	-22.589	0.113	-0.085
-68.436	116.037	-0.121	-0.184
-67.422	-114.619	-0.314	-0.074
-66.407	-133.071	-0.220	0.034
-65.392	150.839	0.265	0.447
-64.378	-125.568	0.381	0.071
-63.363	51.716	-0.351	-0.414
-62.349	-29.034	0.158	-0.112
-61.334	-15.026	-1.278	-1.014
-60.319	-133.261	0.778	0.121
-59.305	577.719	-1.951	-5.944
-58.290	-10.159	3.187	2.619
-57.276	392.510	4.124	10.676
-56.261	-200.000	13.466	213.957
-55.246	490.495	1147.162	3268.781
-54.232	66.785	2798.303	3532.383
-53.217	74.925	2703.640	3531.888
-52.203	81.041	2434.635	3260.024
-51.188	37.508	2088.657	2295.792
-50.173	39.840	1958.596	2178.655
-49.159	37.587	1947.617	2141.474
-48.144	37.055	1943.600	2131.093
-47.130	36.939	1940.971	2126.845
-46.115	36.756	1940.285	2123.997
-45.100	36.738	1938.559	2121.827
-44.086	36.716	1938.019	2120.903
-43.071	36.626	1935.280	2116.832
-42.057	36.681	1933.703	2115.630
-41.042	36.679	1932.422	2114.117
-40.027	36.601	1931.769	2112.466
-39.013	36.561	1930.427	2110.475
-37.998	36.716	1928.262	2109.723
-36.984	36.548	1927.841	2107.337
-35.969	36.637	1925.940	2106.148
-34.954	36.516	1925.449	2104.208
-33.940	36.450	1924.947	2102.858
-32.925	36.420	1923.793	2101.185
-31.911	36.529	1921.980	2100.309
-30.896	36.472	1920.235	2097.700
-29.881	36.582	1918.128	2096.506
-28.867	36.441	1917.289	2093.971
-27.852	36.572	1915.244	2093.078
-26.838	36.566	1914.107	2091.688
-25.823	36.328	1913.751	2088.633
-24.809	36.332	1911.376	2086.005
-23.794	36.325	1910.973	2085.397
-22.779	36.405	1909.640	2084.733
-21.765	36.378	1907.450	2081.969
-20.750	36.312	1906.992	2080.665
-19.736	36.389	1905.761	2080.075
-18.721	36.264	1904.869	2077.669
-17.706	36.156	1904.510	2076.024
-16.692	36.246	1902.310	2074.514
-15.677	36.323	1900.732	2073.542
-14.663	36.225	1899.743	2071.328
-13.648	36.212	1898.777	2070.051
-12.633	36.368	1896.903	2069.609
-11.619	36.323	1895.256	2067.239
-10.604	36.159	1893.864	2063.877
-9.590	36.308	1892.896	2064.348
-8.575	36.268	1891.262	2062.051
-7.560	36.169	1891.082	2060.710
-6.546	36.259	1889.019	2059.342
-5.531	36.229	1888.106	2057.943
-4.517	36.199	1887.969	2057.392
-3.502	36.317	1886.168	2056.616
-2.487	36.278	1885.001	2054.843
-1.473	36.345	1881.546	2051.705
-0.458	36.417	1862.035	2031.118
0.556	32.090	1992.816	2112.267
1.571	30.417	2207.546	2318.611
2.586	31.912	2256.563	2388.966
3.600	31.944	2258.215	2390.841
4.615	31.986	2258.081	2390.947
5.629	31.779	2256.124	2385.940
6.644	31.923	2254.421	2385.699
7.659	32.065	2253.460	2386.202
8.673	32.345	2250.825	2386.703
9.688	31.630	2254.835	2381.527
10.702	28.592	2325.122	2415.346
11.717	24.806	2386.265	2427.046
12.731	12.652	2355.193	2230.575
13.746	2.047	2326.975	2060.261
14.761	0.352	2321.677	2032.368
15.775	0.336	2319.199	2029.740
16.790	0.314	2317.610	2027.801
17.804	0.216	2316.410	2025.188
18.819	0.198	2315.817	2024.181
19.834	0.190	2313.622	2021.922
20.848	0.066	2313.237	2019.666
21.863	0.120	2311.162	2018.338
22.877	0.181	2308.596	2016.681
23.892	0.120	2306.789	2014.033
24.907	0.126	2304.114	2011.544
25.921	0.083	2303.135	2009.868
26.936	0.120	2300.836	2008.114
27.950	0.157	2298.407	2006.250
28.965	0.119	2296.621	2003.947
29.980	0.153	2295.617	2003.279
30.994	0.278	2293.419	2002.797
32.009	6.525	2315.156	2105.608
33.023	21.659	2360.234	2352.128
34.038	29.212	2376.066	2469.827
35.053	30.134	2375.929	2481.813
36.067	30.084	2371.599	2476.319
37.082	29.656	2370.584	2469.214
38.096	29.980	2368.066	2470.644
39.111	30.503	2367.587	2476.854
40.126	30.253	2365.164	2470.680
41.140	30.372	2363.588	2470.327
42.155	30.403	2361.354	2468.106
43.169	30.034	2359.128	2460.557
44.184	30.233	2356.832	2460.533
45.199	30.256	2353.762	2457.331
46.213	29.948	2352.570	2451.701
47.228	29.838	2351.375	2448.701
48.242	30.164	2350.847	2452.183
49.257	30.656	2349.748	2457.288
50.271	30.929	2348.821	2459.639
51.286	30.972	2345.565	2456.511
52.301	30.319	2342.318	2444.174
53.315	29.726	2339.669	2433.270
54.330	28.918	2335.721	2418.195
55.344	28.354	2332.328	2406.947
56.359	28.463	2328.359	2404.011
57.374	28.233	2327.328	2399.618
58.388	28.070	2324.137	2393.903
59.403	28.091	2319.394	2389.002
60.417	28.040	2316.843	2385.427
61.432	28.320	2315.783	2387.713
62.447	28.212	2313.722	2383.887
63.461	28.059	2311.739	2379.559
64.476	28.127	2309.092	2377.443
65.490	28.341	2308.957	2379.808
66.505	28.342	2307.333	2377.869
67.520	28.577	2308.756	2382.113
68.534	29.525	2309.717	2395.194
69.549	29.801	2305.873	2394.502
70.563	29.679	2303.136	2389.792
71.578	29.692	2301.702	2388.186
72.593	30.206	2300.912	2393.757
73.607	30.179	2297.999	2390.082
74.622	29.708	2296.763	2382.419
75.636	29.887	2293.486	2381.044
76.651	29.786	2291.441	2377.335
77.666	29.927	2290.980	2378.391
78.680	29.922	2288.070	2375.022
79.695	29.515	2283.221	2364.465
80.709	28.510	2279.393	2347.299
81.724	28.134	2277.730	2340.469
82.739	29.175	2277.638	2353.474
83.753	30.153	2279.173	2367.334
84.768	30.135	2276.878	2364.436
85.782	29.902	2275.965	2360.223
86.797	29.905	2272.950	2356.854
87.812	29.716	2269.723	2350.808
88.826	29.805	2268.476	2350.375
89.841	30.077	2267.456	2352.506
90.855	30.230	2264.962	2351.584
91.870	29.657	2262.015	2340.951
92.884	29.522	2259.893	2336.750
93.899	29.629	2259.711	2337.653
94.914	29.070	2257.254	2327.725
95.928	27.929	2253.999	2309.601
96.943	27.885	2251.697	2306.404
97.957	29.153	2253.313	2323.879
98.972	30.018	2253.070	2334.307
99.987	29.628	2249.068	2324.955
101.001	29.523	2245.383	2319.546
102.016	29.734	2244.146	2320.650
103.030	29.721	2241.014	2316.967
104.045	29.515	2238.879	2311.893
105.060	29.800	2238.464	2314.765
106.074	30.156	2237.241	2317.701
107.089	29.841	2233.841	2309.956
108.103	29.461	2231.879	2302.880
109.118	29.585	2232.355	2304.654
110.133	29.796	2229.747	2304.323
111.147	29.703	2227.737	2300.803
112.162	29.766	2227.221	2300.792
113.176	29.951	2224.280	2299.783
114.191	29.668	2222.104	2293.730
115.206	29.662	2220.528	2291.755
116.220	29.965	2219.310	2293.994
117.235	29.823	2216.500	2289.051
118.249	29.721	2215.217	2286.184
119.264	29.785	2214.598	2286.063
120.279	29.719	2212.095	2282.395
121.293	29.799	2209.443	2280.366
122.308	29.901	2208.772	2280.674
123.322	29.776	2206.459	2276.457
124.337	28.740	2202.766	2259.577
125.352	28.054	2200.583	2248.594
126.366	28.502	2201.321	2254.617
127.381	29.846	2202.332	2271.979
128.395	30.916	2201.108	2283.632
129.410	30.570	2198.029	2275.915
130.424	30.132	2196.056	2268.205
131.439	30.203	2195.222	2267.951
132.454	30.107	2192.252	2263.430
133.468	30.253	2190.021	2262.644
134.483	30.063	2187.931	2257.885
135.497	29.971	2186.903	2255.430
136.512	30.258	2185.639	2257.374
137.527	30.426	2183.712	2257.156
138.541	30.175	2182.912	2253.005
139.556	30.138	2181.038	2250.339
140.570	30.006	2179.236	2246.605
141.585	29.677	2176.551	2239.561
142.600	29.606	2175.014	2236.850
143.614	29.588	2174.216	2235.539
144.629	29.909	2171.728	2236.617
145.643	29.786	2169.771	2232.837
146.658	29.559	2167.995	2227.989
147.673	29.314	2164.044	2220.701
148.687	29.233	2162.534	2217.909
149.702	29.268	2163.050	2218.593
150.716	29.314	2163.333	2219.172
151.731	30.317	2163.027	2230.714
152.746	30.386	2161.976	2230.200
153.760	29.522	2157.808	2215.218
154.775	28.013	2153.556	2192.411
155.789	27.722	2151.833	2186.888
156.804	28.703	2152.365	2198.983
157.819	29.294	2150.719	2204.141
158.833	29.484	2147.468	2202.822
159.848	29.792	2145.603	2204.335
160.862	29.784	2145.113	2203.482
161.877	30.069	2145.501	2207.021
162.892	30.193	2143.815	2206.516
163.906	30.518	2142.505	2208.785
164.921	30.381	2141.108	2205.441
165.935	30.215	2137.833	2199.820
166.950	29.673	2135.485	2190.691
167.964	29.626	2132.844	2187.154
168.979	29.468	2131.722	2183.869
169.994	29.616	2130.297	2183.910
171.008	29.451	2127.853	2179.183
172.023	29.384	2126.541	2176.786
173.037	29.718	2126.233	2180.159
174.052	29.834	2124.095	2179.081
175.067	29.573	2121.979	2173.564
176.081	29.745	2120.986	2174.327
177.096	29.991	2121.021	2177.009
178.110	30.118	2119.267	2176.446
179.125	30.207	2117.653	2175.572
180.140	30.292	2116.996	2175.646
181.154	30.424	2117.596	2177.552
182.169	30.549	2115.572	2176.683
183.183	30.133	2112.772	2168.646
184.198	28.773	2107.935	2147.462
185.213	28.437	2106.410	2141.700
186.227	29.841	2107.500	2159.042
187.242	30.191	2105.864	2161.208
188.256	30.000	2104.486	2157.293
189.271	30.319	2103.590	2159.852
190.286	30.092	2101.301	2154.586
191.300	29.726	2098.181	2146.856
192.315	29.792	2096.796	2145.957
193.329	30.115	2096.812	2149.478
194.344	30.475	2095.154	2151.714
195.359	30.131	2093.530	2145.794
196.373	30.256	2091.088	2144.477
197.388	30.080	2088.504	2139.530
198.402	29.725	2086.702	2133.314
199.417	29.921	2084.259	2132.831
200.432	29.880	2082.726	2130.537
201.446	29.655	2081.979	2126.915
202.461	29.471	2080.141	2122.652
203.475	29.455	2077.865	2119.885
204.490	29.607	2076.195	2119.684
205.504	29.600	2074.121	2117.237
206.519	29.572	2070.770	2113.235
207.534	29.749	2070.959	2115.219
208.548	30.117	2070.630	2118.857
209.563	29.661	2067.420	2110.082
210.577	29.817	2067.236	2111.432
211.592	30.308	2067.601	2117.190
212.607	29.430	2064.020	2103.205
213.621	27.591	2058.714	2076.517
214.636	27.514	2058.483	2075.149
215.650	29.488	2060.311	2099.335
216.665	30.479	2059.756	2109.843
217.680	30.453	2058.056	2107.547
218.694	30.181	2056.170	2102.269
219.709	29.633	2052.960	2092.501
220.723	29.614	2052.243	2091.301
221.738	30.275	2051.729	2098.047
222.753	30.550	2050.264	2099.411
223.767	30.230	2048.137	2093.353
224.782	29.981	2044.488	2086.556
225.796	29.803	2043.929	2083.717
226.811	30.146	2043.149	2086.554
227.826	30.037	2041.377	2083.261
228.840	29.803	2039.355	2078.308
229.855	29.888	2038.652	2078.308
230.869	29.798	2035.842	2074.173
231.884	29.992	2034.693	2074.944
232.899	30.312	2034.626	2078.233
233.913	30.374	2034.373	2078.418
234.928	30.613	2033.114	2079.569
235.942	30.295	2030.894	2073.485
236.957	29.984	2028.705	2067.510
237.972	30.215	2027.699	2068.821
238.986	30.204	2026.479	2067.206
240.001	29.834	2024.608	2060.907
241.015	29.732	2022.353	2057.227
242.030	30.100	2022.689	2061.444
243.045	29.030	2018.861	2045.347
244.059	28.796	2018.068	2041.681
245.074	30.350	2018.216	2058.926
246.088	30.435	2015.739	2057.100
247.103	30.368	2014.336	2054.679
248.117	30.899	2013.418	2059.399
249.132	30.722	2011.483	2055.205
250.147	30.336	2008.538	2047.672
251.161	29.861	2006.075	2039.652
252.176	29.904	2005.177	2038.981
253.190	29.823	2002.252	2034.864
254.205	29.834	1999.837	2032.292
255.220	29.772	1999.098	2030.612
256.234	29.444	1997.071	2024.688
257.249	29.350	1996.531	2022.861
258.263	29.698	1995.508	2025.420
259.278	29.742	1994.670	2024.810
260.293	29.829	1993.533	2024.369
261.307	29.801	1991.487	2021.742
262.322	29.741	1989.746	2019.078
263.336	29.220	1987.809	2011.147
264.351	29.278	1985.837	2009.548
265.366	29.702	1986.162	2014.286
266.380	29.915	1985.444	2015.648
267.395	29.940	1982.219	2012.403
268.409	29.884	1981.201	2010.515
269.424	30.177	1979.427	2011.676
270.439	29.823	1979.476	2007.627
271.453	29.815	1976.912	2004.690
272.468	28.410	1971.544	1983.733
273.482	27.870	1970.592	1976.667
274.497	28.973	1969.625	1987.453
275.512	29.801	1969.675	1996.250
276.526	30.039	1967.399	1996.281
277.541	29.776	1965.486	1991.259
278.555	29.192	1963.662	1982.848
279.570	29.381	1961.042	1982.005
280.585	29.331	1959.436	1979.613
281.599	29.523	1959.405	1981.416
282.614	29.569	1956.949	1979.191
283.628	28.676	1954.469	1966.828
284.643	27.940	1951.584	1955.776
285.657	27.564	1949.500	1949.412
286.672	27.394	1946.814	1944.665
287.687	27.069	1944.253	1938.389
288.701	27.208	1943.931	1939.325
289.716	27.183	1940.504	1935.414
290.730	26.353	1937.306	1923.119
291.745	27.024	1938.031	1930.786
292.760	27.533	1939.146	1937.101
293.774	28.513	1942.010	1950.210
294.789	29.944	1944.215	1967.492
295.803	30.334	1942.046	1969.226
296.818	30.170	1941.224	1966.404
297.833	30.474	1940.370	1968.543
298.847	30.525	1937.529	1965.961
299.862	30.287	1935.584	1961.234
300.876	30.047	1933.518	1956.351
301.891	29.012	1930.036	1941.621
302.906	28.580	1930.109	1936.881
303.920	29.938	1930.663	1951.613
304.935	30.810	1930.038	1959.971
305.949	30.779	1928.238	1957.584
306.964	30.851	1926.673	1956.525
307.979	30.170	1922.007	1944.378
308.993	27.652	1913.858	1909.428
310.008	25.508	1908.104	1880.942
311.022	25.361	1905.761	1876.858
312.037	25.757	1905.664	1880.694
313.052	25.636	1903.372	1876.940
314.066	25.169	1900.147	1868.645
315.081	24.890	1899.742	1865.103
316.095	24.992	1898.015	1864.256
317.110	24.890	1895.701	1860.695
318.125	24.396	1895.039	1854.656
319.139	24.508	1893.807	1854.405
320.154	24.883	1892.752	1857.060
321.168	25.056	1892.821	1858.707
322.183	26.892	1896.972	1881.717
323.197	29.174	1900.921	1909.218
324.212	29.915	1899.078	1914.852
325.227	29.735	1897.259	1910.917
326.241	29.761	1897.053	1910.748
327.256	30.116	1895.181	1912.317
328.270	29.830	1893.059	1906.986
329.285	29.773	1892.747	1905.846
330.300	29.417	1891.157	1900.340
331.314	28.049	1887.273	1882.065
332.329	28.100	1886.274	1881.366
333.343	29.177	1887.156	1893.160
334.358	29.773	1884.974	1896.892
335.373	29.907	1885.058	1898.131
336.387	30.379	1884.238	1901.934
337.402	30.432	1882.655	1900.658
338.416	30.197	1879.487	1894.814
339.431	30.017	1878.447	1891.688
340.446	30.093	1875.929	1889.712
341.460	28.736	1871.773	1871.405
342.475	28.323	1867.899	1863.086
343.489	27.253	1863.278	1847.345
344.504	25.855	1860.433	1830.036
345.519	25.479	1857.590	1823.189
346.533	25.146	1854.929	1816.972
347.548	25.290	1854.673	1817.969
348.562	25.514	1853.806	1819.179
349.577	25.605	1853.074	1819.164
350.592	25.724	1851.672	1818.774
351.606	25.754	1850.858	1818.070
352.621	25.446	1848.236	1812.157
353.635	25.298	1847.693	1809.904
354.650	26.133	1848.766	1819.196
355.665	28.456	1852.860	1846.564
356.679	29.678	1854.388	1860.235
357.694	30.183	1854.059	1864.790
358.708	30.510	1853.406	1867.208
359.723	30.004	1851.262	1859.724
360.738	28.539	1847.225	1840.678
361.752	28.544	1846.372	1839.658
362.767	30.186	1847.095	1856.703
363.781	30.656	1845.372	1859.474
364.796	30.564	1844.656	1857.604
365.810	30.681	1843.438	1857.327
366.825	29.952	1839.641	1845.975
367.840	27.439	1831.465	1812.446
368.854	25.512	1826.720	1788.286
369.869	25.510	1825.526	1786.886
370.883	25.576	1824.170	1786.005
371.898	25.391	1824.132	1783.900
372.913	25.544	1822.369	1783.490
373.927	25.414	1819.425	1779.098
374.942	25.527	1820.225	1780.799
375.956	26.435	1821.056	1790.432
376.971	26.917	1819.272	1793.256
377.986	26.965	1816.801	1791.085
379.000	26.885	1816.479	1789.757
380.015	27.133	1816.140	1791.666
381.029	28.659	1818.594	1809.005
382.044	29.968	1819.497	1822.644
383.059	29.958	1817.717	1820.546
384.073	29.833	1817.432	1818.812
385.088	30.156	1817.597	1821.944
386.102	30.124	1815.692	1819.506
387.117	29.657	1813.295	1812.284
388.132	29.703	1813.111	1812.335
389.146	29.415	1811.320	1807.490
390.161	28.147	1806.613	1790.113
391.175	27.983	1802.968	1784.679
392.190	28.751	1801.812	1790.849
393.205	29.445	1801.907	1797.530
394.219	29.700	1800.228	1798.129
395.234	29.520	1799.473	1795.404
396.248	29.600	1797.577	1794.082
397.263	29.665	1795.819	1792.740
398.278	29.768	1793.402	1791.122
399.292	29.471	1792.407	1787.022
400.307	29.210	1790.241	1782.106
401.321	28.145	1786.376	1767.708
402.336	27.729	1784.185	1761.294
403.350	27.511	1782.192	1757.002
404.365	27.662	1781.178	1757.254
405.380	27.569	1777.035	1752.060
406.394	25.798	1774.172	1731.926
407.409	25.355	1772.203	1725.524
408.423	25.332	1770.827	1723.756
409.438	25.176	1768.943	1720.213
410.453	25.085	1768.909	1719.095
411.467	25.564	1768.061	1722.671
412.482	25.640	1769.065	1724.175
413.496	28.128	1773.475	1752.260
414.511	30.017	1774.833	1771.576
415.526	30.328	1773.592	1773.109
416.540	30.439	1771.649	1772.022
417.555	30.260	1770.488	1768.934
418.569	29.966	1769.572	1764.989
419.584	29.692	1768.996	1761.578
420.599	29.762	1769.007	1762.043
421.613	30.123	1768.688	1764.977
422.628	29.940	1766.183	1760.514
423.642	30.110	1764.033	1759.782
424.657	29.491	1760.830	1750.481
425.672	29.618	1759.725	1750.381
426.686	29.980	1760.101	1753.988
427.701	29.790	1757.260	1749.145
428.715	29.589	1755.697	1745.469
429.730	29.693	1755.452	1746.005
430.745	30.254	1755.532	1751.203
431.759	30.754	1754.764	1754.966
432.774	30.943	1755.006	1756.785
433.788	28.818	1748.591	1730.074
434.803	26.587	1743.554	1703.808
435.818	26.134	1742.352	1698.149
436.832	26.242	1741.648	1698.275
437.847	25.550	1734.257	1684.357
438.861	16.344	1708.076	1572.943
439.876	3.679	1684.302	1433.313
440.890	0.542	1677.954	1398.560
441.905	0.392	1676.329	1395.641
442.920	0.321	1674.483	1393.270
443.934	0.169	1673.985	1391.279
444.949	0.188	1672.635	1390.171
445.963	0.178	1672.403	1389.719
446.978	0.099	1671.477	1388.050
447.993	0.195	1669.877	1387.444
449.007	0.121	1667.473	1384.593
450.022	0.298	1665.358	1384.312
451.036	0.120	1664.113	1381.462
452.051	1.385	1672.238	1399.765
453.066	13.011	1698.620	1530.584
454.080	24.452	1716.417	1653.616
455.095	27.108	1721.743	1683.319
456.109	29.284	1725.677	1707.250
457.124	30.093	1725.194	1714.087
458.139	29.455	1722.803	1705.588
459.153	28.968	1721.146	1699.215
460.168	28.976	1718.906	1696.881
461.182	29.307	1718.481	1699.326
462.197	29.903	1717.571	1703.739
463.212	30.344	1717.614	1707.652
464.226	30.623	1717.468	1709.879
465.241	30.755	1716.153	1709.585
466.255	30.655	1715.211	1707.523
467.270	30.693	1714.067	1706.530
468.285	31.068	1713.651	1709.364
469.299	31.574	1713.619	1713.786
470.314	31.729	1711.338	1712.725
471.328	31.917	1709.635	1712.542
472.343	31.828	1709.368	1711.252
473.358	31.732	1707.246	1708.049
474.372	31.477	1706.805	1705.059
475.387	32.001	1706.259	1709.117
476.401	31.964	1703.689	1705.992
477.416	31.380	1701.604	1698.375
478.430	31.231	1700.331	1695.539
479.445	31.482	1700.523	1697.816
480.460	31.660	1698.952	1697.672
481.474	31.755	1697.724	1697.106
482.489	31.803	1696.333	1695.947
483.503	31.216	1694.173	1688.249
484.518	30.881	1692.425	1683.262
485.533	31.183	1692.592	1685.974
486.547	31.186	1690.190	1683.402
487.562	30.766	1688.160	1677.378
488.576	31.170	1686.649	1679.329
489.591	31.477	1687.044	1682.297
490.606	31.579	1686.129	1682.109
491.620	31.700	1683.533	1680.402
492.635	31.439	1681.603	1675.927
493.649	30.943	1679.840	1669.507
494.664	30.860	1679.616	1668.337
495.679	31.303	1677.904	1670.419
496.693	31.391	1676.825	1669.936
497.708	31.425	1675.926	1669.142
498.722	31.239	1674.754	1666.105
499.737	31.536	1673.438	1667.258
500.752	31.625	1671.785	1666.213
501.766	31.559	1671.317	1664.957
502.781	31.681	1669.575	1664.107
503.795	31.719	1667.664	1662.346
504.810	31.685	1666.563	1660.744
505.825	31.500	1665.968	1658.303
506.839	31.018	1664.347	1652.198
507.854	30.963	1662.252	1649.430
508.868	30.883	1659.271	1645.569
509.883	30.194	1656.653	1636.669
510.898	29.663	1654.657	1629.790
511.912	29.336	1652.761	1624.834
512.927	28.919	1651.226	1619.441
513.941	29.040	1649.877	1618.997
514.956	29.433	1649.990	1622.384
515.971	30.079	1649.684	1627.598
516.985	29.976	1647.188	1624.028
518.000	29.421	1645.743	1617.518
519.014	29.220	1644.421	1614.258
520.029	29.317	1642.753	1613.277
521.043	29.169	1640.759	1609.825
522.058	29.066	1640.385	1608.360
523.073	29.297	1639.410	1609.246
524.087	29.559	1638.947	1610.897
525.102	29.833	1639.104	1613.252
526.116	30.490	1639.146	1618.865
527.131	30.929	1639.042	1622.405
528.146	31.047	1638.430	1622.638
529.160	31.132	1637.954	1622.714
530.175	31.403	1636.222	1623.172
531.189	31.352	1635.321	1621.643
532.204	31.391	1633.680	1620.158
533.219	31.383	1632.481	1618.703
534.233	31.186	1631.977	1616.295
535.248	30.969	1629.741	1612.004
536.262	30.707	1628.452	1608.261
537.277	31.091	1627.977	1610.930
538.292	31.396	1626.792	1612.213
539.306	31.413	1624.744	1610.136
540.321	31.004	1623.141	1604.815
541.335	30.639	1621.190	1599.541
542.350	30.934	1620.138	1600.857
543.365	31.285	1619.103	1602.669
544.379	31.643	1618.270	1604.740
545.394	31.467	1616.582	1601.361
546.408	31.083	1614.634	1595.938
547.423	31.034	1614.438	1595.131
548.438	31.449	1614.989	1599.056
549.452	31.619	1612.382	1597.741
550.467	31.146	1609.962	1591.096
551.481	31.020	1608.877	1588.752
552.496	31.239	1607.964	1589.542
553.511	31.352	1607.745	1590.101
554.525	31.387	1605.876	1588.359
555.540	31.485	1605.328	1588.466
556.554	31.598	1603.472	1587.400
557.569	31.307	1601.723	1583.003
558.583	30.856	1600.263	1577.533
559.598	30.806	1599.078	1575.748
560.613	30.597	1598.406	1573.122
561.627	30.506	1595.910	1569.704
562.642	30.128	1593.613	1564.046
563.656	29.740	1591.744	1558.740
564.671	29.448	1590.530	1554.887
565.686	29.272	1589.150	1551.863
566.700	29.182	1588.109	1549.907
567.715	29.301	1585.967	1548.630
568.729	29.485	1585.526	1549.567
569.744	30.092	1584.992	1553.982
570.759	30.392	1583.405	1554.767
571.773	29.974	1582.254	1549.934
572.788	29.741	1580.547	1546.116
573.802	29.632	1578.154	1542.671
574.817	29.466	1576.105	1539.101
575.832	29.548	1575.054	1538.575
576.846	30.029	1575.907	1543.253
577.861	30.641	1575.404	1547.693
578.875	30.801	1575.609	1549.049
579.890	31.135	1575.050	1551.105
580.905	31.222	1574.455	1551.058
581.919	31.232	1574.902	1551.395
582.934	31.528	1573.295	1552.098
583.948	31.208	1571.464	1547.443
584.963	31.174	1569.764	1545.302
585.978	30.975	1568.504	1542.215
586.992	30.598	1567.360	1537.779
588.007	30.889	1566.069	1538.740
589.021	30.381	1564.692	1532.990
590.036	29.721	1561.756	1524.463
591.051	30.187	1561.423	1527.816
592.065	31.004	1560.778	1533.761
593.080	31.145	1559.899	1533.877
594.094	31.293	1557.912	1532.958
595.109	31.085	1556.679	1529.850
596.123	31.334	1555.863	1530.913
597.138	31.715	1555.410	1533.419
598.153	31.096	1553.698	1526.463
599.167	30.805	1551.374	1521.607
600.182	30.712	1550.700	1519.996
601.196	30.851	1550.129	1520.395
602.211	31.139	1549.523	1521.982
603.226	31.173	1548.056	1520.637
604.240	31.297	1546.706	1520.141
605.255	31.322	1545.533	1519.013
606.269	31.217	1544.640	1517.095
607.284	31.254	1542.936	1515.545
608.299	31.185	1541.320	1513.216
609.313	30.920	1539.270	1508.861
610.328	30.649	1538.232	1505.460
611.342	30.838	1536.728	1505.344
612.357	30.863	1535.825	1504.481
613.372	30.479	1534.888	1500.271
614.386	30.422	1532.263	1497.060
615.401	30.428	1531.762	1496.440
616.415	30.165	1531.368	1493.743
617.430	29.773	1530.216	1489.274
618.445	29.783	1527.697	1486.723
619.459	29.448	1526.969	1483.133
620.474	29.549	1526.154	1482.979
621.488	29.766	1525.857	1484.262
622.503	30.377	1525.786	1488.944
623.518	30.078	1523.106	1483.745
624.532	29.657	1521.417	1478.530
625.547	29.551	1519.730	1475.865
626.561	29.550	1519.070	1475.042
627.576	29.597	1518.039	1474.237
628.591	29.865	1517.768	1475.946
629.605	30.200	1517.271	1477.976
630.620	30.565	1516.464	1479.932
631.634	31.047	1515.991	1483.143
632.649	31.250	1515.202	1483.817
633.663	30.760	1512.582	1477.165
634.678	30.090	1510.216	1469.343
635.693	29.683	1508.376	1464.140
636.707	29.521	1506.604	1460.953
637.722	29.565	1506.099	1460.637
638.736	30.073	1505.889	1464.299
639.751	30.743	1505.008	1468.582
640.766	30.961	1503.501	1468.659
641.780	30.754	1502.819	1466.179
642.795	30.897	1503.041	1467.355
643.809	31.092	1502.260	1467.956
644.824	31.271	1501.763	1468.709
645.839	31.480	1500.731	1469.181
646.853	31.444	1499.314	1467.332
647.868	31.204	1497.758	1463.737
648.882	31.085	1495.782	1460.695
649.897	30.886	1494.392	1457.599
650.912	30.623	1492.516	1453.533
651.926	30.887	1491.525	1454.465
652.941	30.872	1491.256	1453.913
653.955	30.698	1488.811	1449.988
654.970	29.821	1486.059	1440.275
655.985	29.767	1483.792	1437.483
656.999	29.603	1483.050	1435.310
658.014	29.672	1482.511	1435.154
659.028	30.275	1482.462	1439.645
660.043	30.729	1482.217	1442.768
661.058	30.936	1480.464	1442.502
662.072	30.820	1480.317	1441.282
663.087	30.867	1478.842	1440.037
664.101	30.633	1477.444	1436.694
665.116	30.787	1476.526	1436.822
666.131	30.829	1476.026	1436.485
667.145	30.902	1475.524	1436.393
668.160	31.139	1473.400	1435.991
669.174	30.860	1471.835	1432.137
670.189	30.943	1471.421	1432.198
671.204	31.154	1470.122	1432.394
672.218	31.136	1470.093	1432.058
673.233	31.355	1468.857	1432.369
674.247	31.196	1467.651	1429.792
675.262	31.155	1466.104	1427.800
676.276	31.190	1464.979	1426.801
677.291	31.101	1463.826	1424.829
678.306	31.192	1463.169	1424.712
679.320	31.011	1461.897	1421.918
680.335	30.694	1461.005	1418.456
681.349	30.865	1459.935	1418.552
682.364	30.861	1458.981	1417.428
683.379	30.635	1456.780	1413.394
684.393	30.376	1454.653	1409.185
685.408	30.316	1453.811	1407.740
686.422	30.298	1452.158	1405.838
687.437	29.658	1452.567	1401.189
688.452	29.604	1451.158	1399.249
689.466	29.598	1448.720	1396.685
690.481	29.559	1447.032	1394.595
691.495	29.709	1447.992	1396.489
692.510	30.490	1448.980	1403.208
693.525	31.190	1447.397	1406.810
694.539	30.739	1445.449	1401.340
695.554	29.961	1443.454	1393.358
696.568	29.660	1441.348	1388.881
697.583	29.492	1440.296	1386.429
698.598	29.769	1440.024	1388.099
699.612	30.090	1438.441	1388.821
700.627	30.222	1437.605	1388.840
701.641	30.773	1437.241	1392.470
702.656	30.781	1436.861	1391.992
703.671	30.753	1436.452	1391.221
704.685	30.969	1436.327	1392.554
705.700	30.881	1434.500	1389.954
706.714	30.609	1432.712	1386.022
707.729	30.525	1430.970	1383.542
708.744	30.514	1429.770	1382.134
709.758	30.492	1427.555	1379.666
710.773	29.795	1426.468	1373.243
711.787	29.686	1425.542	1371.380
712.802	30.311	1424.561	1374.925
713.816	30.397	1424.329	1375.181
714.831	30.627	1423.942	1376.353
715.846	30.595	1422.140	1374.209
716.860	30.497	1421.187	1372.391
717.875	30.556	1419.807	1371.332
718.889	30.288	1418.430	1367.854
719.904	30.308	1417.525	1366.963
720.919	30.254	1416.086	1365.016
721.933	30.280	1415.065	1364.059
722.948	30.125	1414.894	1362.589
723.962	30.286	1413.583	1362.353
724.977	30.331	1412.162	1361.147
725.992	30.364	1411.962	1361.033
727.006	30.758	1410.936	1362.788
728.021	30.794	1409.002	1361.015
729.035	30.626	1408.289	1358.934
730.050	30.826	1407.819	1359.784
731.065	30.726	1406.245	1357.371
732.079	30.490	1404.667	1353.953
733.094	30.650	1404.300	1354.612
734.108	31.045	1402.389	1355.488
735.123	30.807	1400.797	1352.054
736.138	30.537	1400.176	1349.324
737.152	30.492	1399.497	1348.176
738.167	30.619	1397.529	1347.044
739.181	30.607	1397.114	1346.400
740.196	30.629	1396.341	1345.650
741.211	30.508	1395.094	1343.407
742.225	30.366	1394.137	1341.292
743.240	30.202	1392.363	1338.236
744.254	30.042	1390.306	1334.945
745.269	29.807	1388.570	1331.414
746.284	29.592	1388.132	1329.283
747.298	29.418	1387.300	1327.069
748.313	29.680	1386.509	1328.042
749.327	30.020	1386.632	1330.458
750.342	30.629	1387.365	1335.402
751.356	31.121	1387.223	1338.655
752.371	31.052	1384.486	1335.354
753.386	30.061	1382.113	1325.783
754.400	30.025	1381.071	1324.367
755.415	30.418	1380.516	1326.495
756.429	30.651	1379.256	1326.801
757.444	30.920	1378.232	1327.583
758.459	30.761	1376.938	1325.039
759.473	30.204	1376.209	1320.197
760.488	29.990	1374.689	1317.046
761.502	29.877	1373.324	1314.778
762.517	30.047	1372.389	1314.934
763.532	30.229	1371.600	1315.319
764.546	30.152	1369.585	1312.683
765.561	29.733	1367.981	1308.007
766.575	29.163	1366.496	1302.386
767.590	29.200	1365.852	1301.879
768.605	29.760	1365.637	1305.492
769.619	30.019	1364.730	1306.304
770.634	30.155	1363.588	1306.017
771.648	29.951	1362.389	1303.271
772.663	29.899	1361.513	1301.910
773.678	30.029	1361.357	1302.523
774.692	30.265	1361.045	1303.733
775.707	30.435	1360.225	1303.996
776.721	30.515	1359.068	1303.289
777.736	30.370	1357.451	1300.564
778.751	30.408	1356.471	1299.736
779.765	30.551	1355.750	1299.897
780.780	30.212	1355.419	1297.039
781.794	30.444	1353.639	1296.812
782.809	30.158	1352.033	1293.109
783.824	29.510	1350.808	1287.242
784.838	29.604	1350.219	1287.190
785.853	30.224	1350.007	1291.169
786.867	30.374	1348.616	1290.738
787.882	29.704	1347.944	1285.257
788.897	29.626	1346.307	1282.999
789.911	29.447	1344.890	1280.243
790.926	29.439	1343.024	1278.261
791.940	29.439	1342.563	1277.668
792.955	29.442	1342.125	1277.120
793.969	29.560	1340.686	1276.417
794.984	29.854	1339.614	1277.281
795.999	30.009	1339.307	1277.916
797.013	30.149	1337.804	1277.296
798.028	30.140	1337.142	1276.451
799.042	30.128	1336.053	1275.170
800.057	30.253	1334.628	1274.527
801.072	30.154	1333.001	1272.134
802.086	30.135	1332.005	1270.898
803.101	29.983	1331.160	1268.893
804.115	30.015	1330.412	1268.255
805.130	30.019	1329.907	1267.643
806.145	29.689	1328.510	1263.896
807.159	29.803	1326.225	1262.352
808.174	29.861	1325.552	1261.957
809.188	30.070	1324.063	1261.817
810.203	29.937	1322.581	1259.348
811.218	29.498	1321.039	1254.729
812.232	29.306	1319.320	1251.639
813.247	29.021	1318.804	1249.053
814.261	29.480	1318.581	1251.819
815.276	29.761	1317.914	1252.952
816.291	29.674	1316.635	1250.998
817.305	29.451	1315.789	1248.529
818.320	29.666	1314.368	1248.485
819.334	29.835	1313.478	1248.639
820.349	30.045	1312.650	1249.129
821.364	29.966	1311.945	1247.768
822.378	29.921	1310.303	1245.754
823.393	29.815	1308.684	1243.349
824.407	29.866	1307.678	1242.593
825.422	29.950	1307.092	1242.452
826.437	29.733	1305.583	1239.404
827.451	29.549	1303.666	1236.203
828.466	29.713	1302.831	1236.361
829.480	30.384	1301.533	1239.490
830.495	29.748	1299.770	1233.397
831.509	29.369	1298.302	1229.317
832.524	29.512	1297.232	1229.113
833.539	29.614	1296.773	1229.212
834.553	29.899	1295.058	1229.344
835.568	29.861	1293.357	1227.330
836.582	29.764	1293.070	1226.266
837.597	29.948	1291.950	1226.280
838.612	29.622	1290.464	1222.554
839.626	29.536	1289.065	1220.516
840.641	29.530	1288.214	1219.524
841.655	29.293	1287.174	1216.818
842.670	29.128	1285.663	1214.148
843.685	28.836	1284.307	1210.792
844.699	29.105	1283.320	1211.493
845.714	29.445	1282.418	1212.745
846.728	29.332	1281.712	1211.186
847.743	29.338	1280.685	1210.112
848.758	29.296	1280.445	1209.465
849.772	29.676	1279.435	1210.864
850.787	29.769	1277.686	1209.679
851.801	29.525	1276.950	1207.232
852.816	29.455	1275.954	1205.689
853.831	29.648	1273.898	1204.866
854.845	29.461	1272.790	1202.448
855.860	29.296	1270.953	1199.492
856.874	29.364	1269.430	1198.351
857.889	29.470	1268.878	1198.384
858.904	29.838	1268.062	1199.865
859.918	30.418	1267.291	1202.768
860.933	30.579	1266.828	1203.234
861.947	30.048	1265.197	1198.090
862.962	29.554	1262.930	1192.595
863.977	29.331	1261.629	1189.779
864.991	29.146	1261.029	1187.868
866.006	29.195	1260.526	1187.572
867.020	29.440	1259.706	1188.243
868.035	29.505	1258.257	1187.151
869.049	29.581	1257.506	1186.795
870.064	29.751	1256.786	1187.066
871.079	29.640	1255.858	1185.336
872.093	29.353	1254.964	1182.501
873.108	29.322	1253.509	1180.786
874.122	29.273	1251.831	1178.750
875.137	29.081	1251.416	1176.984
876.152	29.012	1250.746	1175.770
877.166	28.934	1249.150	1173.629
878.181	28.895	1247.892	1172.057
879.195	29.220	1247.009	1173.169
880.210	29.347	1246.411	1173.281
881.225	29.677	1244.992	1173.911
882.239	29.582	1244.873	1173.046
883.254	29.507	1244.084	1171.687
884.268	29.419	1243.227	1170.178
885.283	29.478	1241.882	1169.146
886.298	29.558	1240.242	1167.973
887.312	29.599	1239.477	1167.373
888.327	29.519	1237.971	1165.310
889.341	29.558	1236.132	1163.686
890.356	29.421	1235.897	1162.453
891.371	29.319	1235.476	1161.276
892.385	29.297	1234.950	1160.504
893.400	29.220	1233.881	1158.871
894.414	29.205	1232.604	1157.439
895.429	29.503	1231.038	1157.712
896.444	30.185	1231.368	1162.181
897.458	30.792	1230.796	1165.318
898.473	30.404	1229.226	1161.258
899.487	29.681	1227.590	1155.032
900.502	29.221	1225.951	1150.468
901.517	29.287	1224.677	1149.545
902.531	29.371	1223.672	1148.992
903.546	29.447	1223.115	1148.803
904.560	29.400	1222.648	1147.937
905.575	29.413	1221.621	1146.916
906.589	29.406	1220.420	1145.605
907.604	29.182	1219.559	1143.266
