DTS Sentinel unit serial number:	SN409020Multiplexer serial number:	ORYXHardware model number:	OX4-SRSoftware version number:	ORYX F/W v3.00 Oryx Data Collector v3.7.2.0data status	okinstallation	HaddamTimeLapsedifferential loss correction	single-endedforward channel	channel 3reverse channel	N/Adate	2011/06/21time	17:31:16forward acquisition time	30.00reverse acquisition time	0.00gamma	498.7831k internal	0.1820k external	0.1820temperature offset calibration	1.0074default loss term (dB/km)	0.3790temperature slope calibration	1.3530multiplexer offset coefficient	1.0000multiplexer slope coefficient	1.0000fibre end	0.00T internal ref (°C)	34.25T ext. ref 1 (°C)	29.48T ext. ref 2 (°C)	0.26length (m)	temperature (°C)	Stokes	anti-Stokes-747.200	38.610	0.389	-0.444
-746.185	197.250	0.168	0.329
-745.171	-195.106	-0.520	0.005
-744.156	56.918	0.282	0.351
-743.142	75.094	-0.252	-0.340
-742.127	-69.532	0.465	0.227
-741.112	-114.069	0.327	0.080
-740.098	24.878	0.636	0.673
-739.083	236.461	-0.238	0.506
-738.069	25.806	0.445	0.474
-737.054	-98.860	-0.291	-0.094
-736.039	32.594	-0.225	0.249
-735.025	308.211	0.078	-0.186
-734.010	169.169	-0.252	-0.461
-732.996	29.152	-0.312	-0.339
-731.981	-29.108	0.400	-0.292
-730.966	41.154	-0.130	-0.150
-729.952	-71.655	0.369	-0.175
-728.937	-81.787	0.175	0.073
-727.923	-172.748	-0.575	0.023
-726.908	-200.000	0.016	0.199
-725.894	-200.000	0.021	0.192
-724.879	800.000	0.001	-0.005
-723.864	-78.364	0.182	0.079
-722.850	-22.929	0.240	-0.184
-721.835	-70.557	0.299	-0.144
-720.821	-99.338	-0.239	-0.077
-719.806	312.235	-0.036	0.086
-718.791	98.811	0.118	-0.175
-717.777	107.746	-0.120	0.183
-716.762	313.962	-0.033	-0.081
-715.748	800.000	-0.116	0.542
-714.733	-97.502	0.176	-0.058
-713.718	281.998	0.120	-0.276
-712.704	-200.000	0.034	-0.242
-711.689	34.475	-0.152	-0.170
-710.675	373.557	-0.104	0.272
-709.660	-21.879	-0.081	0.063
-708.645	-147.998	0.148	0.015
-707.631	-200.000	-0.023	0.143
-706.616	-186.277	-0.419	-0.008
-705.602	102.036	0.172	-0.257
-704.587	-45.930	0.173	-0.109
-703.572	800.000	0.058	-0.301
-702.558	-50.937	0.257	0.153
-701.543	-84.667	0.343	0.137
-700.529	-200.000	0.002	0.027
-699.514	-66.420	-0.299	-0.151
-698.499	-135.769	-0.364	0.054
-697.485	6.922	0.142	-0.135
-696.470	565.779	0.029	-0.090
-695.456	58.745	-0.117	-0.147
-694.441	800.000	-0.013	-0.048
-693.426	285.550	-0.082	-0.189
-692.412	65.761	-0.358	0.463
-691.397	165.059	-0.324	0.584
-690.383	-200.000	-0.011	-0.083
-689.368	8.014	-0.070	-0.067
-688.354	7.621	0.285	0.272
-687.339	-135.263	0.767	-0.116
-686.324	207.448	0.027	-0.054
-685.310	-70.070	0.352	-0.170
-684.295	29.085	0.149	-0.162
-683.281	-105.008	-0.131	-0.038
-682.266	-4.917	0.094	-0.082
-681.251	-76.686	-0.424	0.189
-680.237	622.062	0.061	0.197
-679.222	21.538	0.244	-0.253
-678.208	-91.192	0.361	-0.131
-677.193	-191.787	0.389	-0.005
-676.178	-200.000	-0.035	0.351
-675.164	210.033	-0.142	-0.285
-674.149	21.222	-0.085	-0.088
-673.135	-200.000	-0.010	-0.074
-672.120	-105.653	0.159	0.046
-671.105	-47.343	-0.222	-0.137
-670.091	-200.000	0.006	0.099
-669.076	70.041	-0.206	0.271
-668.062	-80.844	-0.079	-0.033
-667.047	262.772	-0.070	-0.155
-666.032	-10.490	0.048	0.041
-665.018	-52.740	-0.114	-0.067
-664.003	695.367	-0.172	-0.579
-662.989	14.033	-0.185	0.184
-661.974	-100.869	-0.230	0.072
-660.959	-200.000	-0.023	-0.219
-659.945	239.703	0.257	-0.546
-658.930	-26.805	-0.154	-0.114
-657.916	-100.919	0.403	0.125
-656.901	-109.301	0.317	-0.085
-655.886	800.000	0.054	-0.231
-654.872	-27.395	0.106	-0.078
-653.857	800.000	-0.073	-0.282
-652.843	16.143	0.214	-0.214
-651.828	141.367	0.073	0.124
-650.814	-69.999	-0.247	0.119
-649.799	-26.271	0.350	0.261
-648.784	16.952	-0.204	0.206
-647.770	800.000	0.007	0.037
-646.755	-96.372	0.273	-0.091
-645.741	-152.497	0.550	-0.050
-644.726	-10.084	0.183	0.154
-643.711	639.175	-0.080	0.260
-642.697	-6.120	-0.182	0.158
-641.682	483.583	-0.094	0.275
-640.668	800.000	0.063	0.261
-639.653	-70.614	0.127	0.061
-638.638	595.593	0.199	0.631
-637.624	-114.402	-0.372	0.090
-636.609	67.676	0.176	-0.229
-635.595	-200.000	0.010	0.283
-634.580	-200.000	-0.045	-0.277
-633.565	2.529	-0.365	-0.336
-632.551	-125.936	-0.352	-0.067
-631.536	34.351	-0.222	-0.246
-630.522	-123.251	0.625	0.126
-629.507	-162.335	0.240	-0.015
-628.492	54.347	0.178	0.218
-627.478	-51.978	0.051	0.030
-626.463	13.374	0.216	-0.213
-625.449	800.000	-0.126	-0.592
-624.434	-161.035	-0.328	-0.022
-623.419	711.388	0.111	-0.375
-622.405	-27.526	-0.105	0.077
-621.390	204.512	0.074	-0.146
-620.376	655.950	-0.036	-0.119
-619.361	234.455	0.083	0.174
-618.346	-115.228	-0.534	-0.127
-617.332	-137.540	-0.242	-0.034
-616.317	412.713	-0.155	-0.422
-615.303	6.246	0.101	0.095
-614.288	-85.987	-0.374	-0.146
-613.273	-200.000	0.030	-0.187
-612.259	-147.261	-0.606	0.065
-611.244	-51.667	-0.315	0.186
-610.230	232.736	0.129	0.271
-609.215	-200.000	-0.028	0.208
-608.201	-172.742	-0.413	0.016
-607.186	-49.250	0.294	-0.178
-606.171	-200.000	0.053	-0.479
-605.157	-138.607	-0.283	0.039
-604.142	800.000	-0.115	-0.426
-603.128	-25.634	-0.292	0.219
-602.113	93.161	0.069	0.099
-601.098	-167.450	-0.296	-0.015
-600.084	30.740	0.203	0.221
-599.069	179.677	0.188	0.350
-598.055	500.842	-0.054	0.161
-597.040	-40.215	-0.387	-0.256
-596.025	-39.186	0.341	-0.227
-595.011	-76.101	0.409	-0.183
-593.996	45.661	0.231	-0.271
-592.982	-3.463	0.217	-0.192
-591.967	-172.152	0.238	0.010
-590.952	-78.813	0.181	-0.078
-589.938	234.176	0.153	-0.322
-588.923	-100.516	-0.439	-0.137
-587.909	329.689	-0.035	-0.087
-586.894	-147.289	0.160	0.017
-585.879	-34.025	0.397	-0.277
-584.865	-91.654	0.142	0.051
-583.850	-133.148	0.185	-0.029
-582.836	-139.771	0.169	-0.023
-581.821	113.039	0.205	-0.317
-580.806	800.000	0.086	-0.324
-579.792	-108.771	0.090	0.024
-578.777	-59.752	-0.321	0.174
-577.763	14.215	-0.315	-0.312
-576.748	800.000	-0.138	0.617
-575.733	445.626	-0.158	0.444
-574.719	30.564	0.115	0.125
-573.704	-200.000	0.035	0.467
-572.690	-21.474	0.455	0.351
-571.675	-200.000	-0.027	0.552
-570.661	-70.270	0.093	-0.045
-569.646	-147.890	-0.464	-0.049
-568.631	-94.189	-0.369	-0.128
-567.617	-124.786	0.132	0.026
-566.602	800.000	-0.148	-0.630
-565.588	56.510	-0.277	-0.342
-564.573	-108.460	0.498	-0.135
-563.558	-57.065	-0.097	-0.054
-562.544	-146.982	-0.304	0.033
-561.529	431.652	-0.113	-0.312
-560.515	-2.412	0.525	0.466
-559.500	800.000	0.101	0.447
-558.485	-34.725	0.185	0.128
-557.471	-137.416	-0.193	0.028
-556.456	89.295	-0.145	-0.206
-555.442	-99.150	0.521	-0.166
-554.427	194.655	0.020	-0.039
-553.412	-21.028	-0.278	-0.215
-552.398	-100.729	0.248	0.077
-551.383	-78.429	-0.290	-0.125
-550.369	800.000	-0.098	0.387
-549.354	113.592	-0.354	0.547
-548.339	-45.650	-0.391	0.245
-547.325	63.276	-0.398	-0.507
-546.310	38.992	-0.453	-0.513
-545.296	-103.013	-0.098	-0.029
-544.281	-110.858	-0.187	-0.049
-543.266	-116.145	-0.352	-0.082
-542.252	-200.000	0.068	-0.499
-541.237	-46.299	0.417	0.259
-540.223	164.895	0.138	0.247
-539.208	-68.196	0.293	-0.144
-538.193	141.489	-0.103	0.174
-537.179	-115.966	0.180	-0.042
-536.164	-57.299	0.456	0.253
-535.150	125.607	0.157	-0.252
-534.135	-56.206	0.455	-0.256
-533.121	-21.372	-0.182	-0.140
-532.106	800.000	0.094	0.353
-531.091	58.565	0.100	-0.124
-530.077	-68.239	-0.325	0.160
-529.062	-78.939	0.028	-0.012
-528.048	-17.029	0.228	0.182
-527.033	274.400	-0.046	-0.104
-526.018	-90.839	-0.511	-0.186
-525.004	-8.564	0.122	0.104
-523.989	6.987	-0.109	0.103
-522.975	-22.033	-0.270	0.207
-521.960	-123.214	-0.191	-0.038
-520.945	-200.000	0.090	0.545
-519.931	-46.182	-0.226	0.141
-518.916	-200.000	0.038	-0.498
-517.902	-29.781	-0.177	-0.127
-516.887	-200.000	0.038	0.267
-515.872	-200.000	0.057	0.366
-514.858	-95.955	-0.414	0.139
-513.843	574.126	0.215	-0.668
-512.829	-131.847	0.287	-0.047
-511.814	-97.384	-0.215	-0.070
-510.799	-70.548	-0.491	0.235
-509.785	-200.000	0.005	0.233
-508.770	-200.000	0.001	-0.206
-507.756	260.195	-0.058	-0.127
-506.741	127.734	0.089	0.143
-505.726	-200.000	-0.065	0.391
-504.712	20.725	-0.272	-0.279
-503.697	357.402	-0.179	0.455
-502.683	-200.000	-0.004	0.209
-501.668	800.000	0.063	-0.238
-500.653	106.719	-0.148	0.222
-499.639	-180.347	-0.452	-0.012
-498.624	-200.000	0.067	-0.383
-497.610	-200.000	-0.022	-0.417
-496.595	-71.366	0.232	0.110
-495.581	-28.939	-0.088	-0.064
-494.566	800.000	-0.078	-0.306
-493.551	436.074	-0.045	0.125
-492.537	800.000	0.120	0.452
-491.522	-47.621	0.258	0.158
-490.508	12.721	-0.119	0.116
-489.493	-200.000	0.005	0.255
-488.478	-123.194	0.490	-0.098
-487.464	-112.446	0.203	0.051
-486.449	-142.703	0.422	0.052
-485.435	85.874	-0.220	0.307
-484.420	-148.983	-0.075	-0.008
-483.405	-200.000	-0.019	0.293
-482.391	-172.386	0.474	0.019
-481.376	-129.787	0.215	-0.037
-480.362	-17.121	-0.299	-0.238
-479.347	372.703	-0.099	0.256
-478.332	-104.150	-0.257	-0.075
-477.318	-13.899	0.114	-0.093
-476.303	800.000	0.062	0.267
-475.289	-59.373	-0.167	-0.090
-474.274	113.292	0.331	-0.509
-473.259	204.297	0.082	0.161
-472.245	-30.747	0.217	0.155
-471.230	-104.783	-0.287	-0.083
-470.216	-200.000	0.021	0.179
-469.201	-65.693	0.398	0.201
-468.186	-67.024	-0.479	-0.238
-467.172	56.621	-0.169	0.208
-466.157	17.161	-0.161	0.161
-465.143	105.714	-0.182	-0.273
-464.128	-162.743	0.335	-0.020
-463.113	-59.722	0.037	0.020
-462.099	51.831	0.201	-0.242
-461.084	-177.619	-0.454	-0.014
-460.070	29.830	-0.026	-0.028
-459.055	800.000	-0.107	0.377
-458.040	43.268	-0.135	0.155
-457.026	800.000	0.084	0.309
-456.011	-68.126	-0.626	-0.307
-454.997	707.548	0.030	-0.101
-453.982	-6.158	-0.039	-0.034
-452.968	-200.000	0.001	0.234
-451.953	800.000	0.018	-0.082
-450.938	-72.967	-0.124	-0.057
-449.924	278.644	0.090	-0.203
-448.909	28.954	-0.301	-0.322
-447.895	800.000	0.136	-0.483
-446.880	800.000	0.013	-0.056
-445.865	-90.877	0.392	-0.142
-444.851	-23.160	0.270	-0.205
-443.836	-10.050	-0.222	-0.186
-442.822	-17.699	-0.117	0.093
-441.807	-149.892	-0.447	-0.044
-440.792	628.664	0.034	-0.109
-439.778	72.623	-0.050	-0.066
-438.763	-153.807	-0.528	0.045
-437.749	-73.732	-0.093	0.042
-436.734	-200.000	-0.017	-0.193
-435.719	-175.539	0.347	0.012
-434.705	-101.636	-0.421	-0.128
-433.690	49.044	0.413	-0.490
-432.676	-82.528	-0.222	-0.090
-431.661	-84.919	-0.174	0.069
-430.646	-102.444	0.254	-0.076
-429.632	-124.458	-0.230	-0.045
-428.617	326.118	0.257	-0.625
-427.603	507.405	0.181	-0.532
-426.588	-200.000	-0.061	0.360
-425.573	145.698	0.129	0.218
-424.559	-44.018	-0.086	0.055
-423.544	800.000	0.084	0.418
-422.530	-68.723	-0.044	0.021
-421.515	295.025	0.015	-0.034
-420.500	44.688	0.283	-0.329
-419.486	-117.208	0.386	0.088
-418.471	606.182	0.065	0.206
-417.457	33.637	0.250	-0.275
-416.442	-200.000	0.013	-0.078
-415.428	177.236	0.082	-0.151
-414.413	-200.000	0.031	-0.284
-413.398	148.521	-0.014	0.024
-412.384	-200.000	0.033	0.500
-411.369	439.638	-0.123	0.340
-410.355	-200.000	0.021	-0.117
-409.340	-164.100	0.160	-0.009
-408.325	-75.062	-0.387	-0.174
-407.311	-200.000	-0.855	0.002
-406.296	429.900	-0.174	-0.477
-405.282	-56.159	0.243	-0.136
-404.267	800.000	0.052	0.184
-403.252	-150.256	-0.238	-0.023
-402.238	-49.163	-0.570	0.343
-401.223	250.718	0.170	-0.365
-400.209	187.677	-0.226	0.426
-399.194	-200.000	-0.026	-0.366
-398.179	800.000	-0.096	0.409
-397.165	79.567	-0.131	0.178
-396.150	-165.320	0.157	0.009
-395.136	-200.000	0.011	0.319
-394.121	-152.850	-0.329	0.029
-393.106	24.962	0.184	0.192
-392.092	43.143	-0.286	0.329
-391.077	-122.744	-0.220	0.044
-390.063	800.000	-0.066	-0.237
-389.048	-131.306	-0.380	0.063
-388.033	-180.383	-0.204	0.005
-387.019	-141.643	-0.088	-0.011
-386.004	-200.000	-0.024	-0.173
-384.990	12.586	0.190	-0.185
-383.975	257.629	-0.107	-0.234
-382.960	-65.891	-0.145	0.073
-381.946	800.000	0.079	0.315
-380.931	-34.730	-0.285	-0.196
-379.917	-200.000	-0.017	-0.392
-378.902	27.336	0.319	-0.337
-377.888	92.689	0.311	-0.443
-376.873	-109.776	0.367	-0.096
-375.858	-148.604	0.269	0.027
-374.844	800.000	-0.081	0.318
-373.829	160.218	-0.214	-0.378
-372.815	-200.000	0.014	0.197
-371.800	162.301	-0.093	-0.164
-370.785	-56.742	0.060	-0.034
-369.771	-116.446	0.592	-0.137
-368.756	7.886	0.234	-0.221
-367.742	56.451	0.178	-0.218
-366.727	51.510	-0.266	0.319
-365.712	-32.573	0.027	-0.019
-364.698	544.592	-0.047	0.143
-363.683	64.134	0.240	-0.304
-362.669	-102.049	-0.363	-0.109
-361.654	-110.950	-0.290	-0.075
-360.639	160.268	-0.207	0.365
-359.625	264.512	0.115	0.254
-358.610	362.677	-0.147	0.372
-357.596	6.226	-0.107	0.099
-356.581	-200.000	-0.003	0.092
-355.566	-200.000	0.013	0.383
-354.552	-71.334	0.263	-0.124
-353.537	218.937	0.144	-0.292
-352.523	-5.777	-0.304	0.262
-351.508	216.253	0.274	0.550
-350.493	-200.000	0.086	0.506
-349.479	782.203	-0.054	-0.188
-348.464	-33.638	0.055	-0.038
-347.450	-53.331	0.272	-0.157
-346.435	325.671	-0.077	-0.185
-345.420	-57.321	0.108	-0.059
-344.406	80.500	0.171	-0.232
-343.391	519.190	0.188	-0.558
-342.377	587.328	0.147	0.459
-341.362	-200.000	-0.013	0.347
-340.348	194.555	0.089	-0.170
-339.333	96.550	-0.209	-0.302
-338.318	-120.837	0.246	0.052
-337.304	230.127	-0.059	0.121
-336.289	37.355	-0.158	0.176
-335.275	-26.068	-0.299	0.221
-334.260	-14.414	-0.189	0.153
-333.245	143.667	-0.106	0.177
-332.231	-106.351	0.159	-0.044
-331.216	338.472	-0.072	0.176
-330.202	49.720	-0.347	0.412
-329.187	182.783	0.052	-0.096
-328.172	-49.573	0.215	0.129
-327.158	535.467	-0.064	0.193
-326.143	-200.000	-0.002	-0.146
-325.129	-82.940	-0.570	-0.230
-324.114	88.204	0.309	0.431
-323.099	479.116	0.050	0.143
-322.085	-200.000	-0.032	0.183
-321.070	-114.959	-0.089	0.021
-320.056	36.945	-0.234	-0.260
-319.041	-200.000	-0.019	0.126
-318.026	-149.667	0.389	-0.038
-317.012	-106.155	0.609	0.171
-315.997	-81.882	0.175	0.071
-314.983	-40.419	-0.568	-0.370
-313.968	800.000	-0.151	-0.587
-312.953	-200.000	0.136	-0.000
-311.939	264.290	-0.092	-0.203
-310.924	51.804	0.131	-0.157
-309.910	-87.860	-0.303	0.114
-308.895	80.391	-0.127	0.172
-307.880	-44.940	-0.372	0.232
-306.866	-170.039	-0.142	0.006
-305.851	-156.158	-0.255	0.020
-304.837	-35.395	-0.321	0.218
-303.822	-167.101	-0.422	0.021
-302.807	800.000	-0.207	0.724
-301.793	-132.501	-0.347	0.056
-300.778	-178.306	0.330	0.010
-299.764	485.104	-0.111	-0.320
-298.749	40.767	-0.236	-0.268
-297.735	35.794	-0.210	0.232
-296.720	800.000	0.052	-0.200
-295.705	-7.994	-0.391	0.331
-294.691	19.839	0.390	0.395
-293.676	-11.671	0.389	0.321
-292.662	-176.480	-0.626	-0.020
-291.647	-161.214	0.228	-0.015
-290.632	129.682	-0.131	-0.211
-289.618	66.257	-0.099	-0.126
-288.603	-11.862	0.207	-0.170
-287.589	-200.000	0.016	-0.090
-286.574	279.248	0.169	0.380
-285.559	-200.000	0.044	0.271
-284.545	-78.304	0.077	-0.033
-283.530	485.968	-0.156	-0.450
-282.516	-131.823	-0.389	-0.063
-281.501	800.000	0.056	-0.267
-280.486	-6.289	0.076	0.065
-279.472	-117.108	0.517	0.117
-278.457	-200.000	-0.001	0.085
-277.443	800.000	-0.072	-0.328
-276.428	34.570	0.106	-0.116
-275.413	-128.059	0.413	0.074
-274.399	1.416	0.068	0.062
-273.384	-99.997	-0.451	-0.140
-272.370	-164.719	-0.435	-0.024
-271.355	-39.520	0.232	0.152
-270.340	33.000	0.121	-0.132
-269.326	-0.109	0.213	0.190
-268.311	84.588	0.236	0.325
-267.297	22.628	-0.242	-0.249
-266.282	-51.758	-0.123	-0.071
-265.267	-49.440	0.196	-0.117
-264.253	389.570	0.190	0.497
-263.238	132.719	0.102	0.166
-262.224	-111.986	0.455	0.114
-261.209	194.978	-0.101	0.193
-260.195	-200.000	-0.016	-0.486
-259.180	-140.098	0.670	0.087
-258.165	518.670	0.090	-0.267
-257.151	800.000	-0.035	0.146
-256.136	-200.000	0.061	-0.370
-255.122	159.574	-0.279	0.489
-254.107	-19.527	0.195	-0.151
-253.092	-9.958	-0.212	0.177
-252.078	-200.000	-0.020	0.495
-251.063	800.000	0.147	0.686
-250.049	-50.131	-0.266	-0.158
-249.034	411.211	0.133	0.355
-248.019	-114.409	0.361	0.086
-247.005	-18.793	-0.334	-0.261
-245.990	250.977	0.172	0.369
-244.976	-40.166	-0.030	0.019
-243.961	-23.161	0.283	-0.213
-242.946	14.086	0.103	-0.100
-241.932	-200.000	0.082	-0.529
-240.917	-112.380	0.372	0.093
-239.903	-181.583	-0.297	-0.007
-238.888	244.623	0.140	-0.296
-237.873	-56.223	0.538	0.299
-236.859	800.000	0.080	0.417
-235.844	-104.679	-0.626	0.180
-234.830	800.000	-0.013	0.069
-233.815	238.237	-0.163	0.340
-232.800	134.187	0.198	0.322
-231.786	-77.130	0.521	-0.226
-230.771	-200.000	-0.009	0.525
-229.757	19.777	0.215	0.216
-228.742	-5.986	0.143	0.122
-227.727	-91.867	-0.275	-0.097
-226.713	14.840	0.090	-0.088
-225.698	-140.684	-0.053	0.007
-224.684	800.000	-0.103	0.377
-223.669	-29.641	0.286	-0.204
-222.655	121.066	0.157	0.245
-221.640	-96.177	0.448	0.148
-220.625	44.010	-0.169	0.194
-219.611	96.486	-0.258	-0.370
-218.596	-161.376	0.330	-0.021
-217.582	136.591	-0.123	-0.201
-216.567	-111.594	-0.074	0.019
-215.552	-50.322	0.288	0.170
-214.538	3.879	0.196	-0.179
-213.523	-200.000	0.030	0.357
-212.509	-59.778	-0.143	0.076
-211.494	112.440	0.158	0.240
-210.479	429.499	0.029	0.078
-209.465	-55.638	0.230	-0.129
-208.450	495.198	0.074	0.215
-207.436	13.571	-0.120	-0.117
-206.421	800.000	-0.034	-0.132
-205.406	103.144	0.071	-0.104
-204.392	320.428	-0.155	-0.371
-203.377	61.379	-0.167	0.207
-202.363	-117.814	-0.225	0.050
-201.348	183.044	0.148	0.273
-200.333	-174.965	-0.201	-0.007
-199.319	8.282	-0.281	-0.264
-198.304	-137.914	0.264	0.037
-197.290	-200.000	0.014	-0.404
-196.275	-200.000	-0.052	-0.385
-195.260	-200.000	-0.037	-0.355
-194.246	188.680	-0.096	0.180
-193.231	173.396	0.028	-0.051
-192.217	267.151	-0.199	-0.437
-191.202	-126.584	0.140	-0.026
-190.187	691.266	0.108	-0.355
-189.173	-65.277	0.266	-0.133
-188.158	-5.490	0.178	0.153
-187.144	-44.859	0.892	-0.554
-186.129	348.892	-0.117	-0.291
-185.114	-96.016	-0.209	-0.069
-184.100	129.040	-0.213	-0.341
-183.085	-67.894	0.477	-0.232
-182.071	15.048	-0.122	0.120
-181.056	285.195	-0.255	0.577
-180.042	-81.639	0.292	0.119
-179.027	-114.648	0.160	-0.038
-178.012	-200.000	-0.011	-0.314
-176.998	-200.000	0.026	0.207
-175.983	73.183	0.268	-0.351
-174.969	11.074	0.080	-0.076
-173.954	166.010	0.218	-0.386
-172.939	131.109	0.178	-0.286
-171.925	-47.937	0.318	0.192
-170.910	-60.423	0.385	0.204
-169.896	-18.441	0.149	0.116
-168.881	-37.540	-0.122	-0.081
-167.866	-200.000	0.025	-0.163
-166.852	-155.871	0.212	0.017
-165.837	800.000	0.088	0.342
-164.823	-64.447	0.252	-0.128
-163.808	139.344	0.207	0.342
-162.793	499.362	-0.092	0.265
-161.779	52.198	-0.271	-0.323
-160.764	54.651	-0.261	-0.315
-159.750	180.390	0.214	-0.394
-158.735	800.000	0.057	-0.274
-157.720	-200.000	0.003	-0.137
-156.706	800.000	-0.057	-0.292
-155.691	-200.000	0.018	0.465
-154.677	-91.255	0.345	0.123
-153.662	280.988	-0.160	-0.359
-152.647	-13.540	-0.126	0.102
-151.633	6.990	0.083	0.077
-150.618	686.816	-0.051	-0.166
-149.604	50.439	-0.176	-0.207
-148.589	-41.516	-0.491	-0.315
-147.574	-200.000	-0.044	-0.315
-146.560	-76.664	0.185	0.081
-145.545	-94.536	-0.306	-0.104
-144.531	-15.663	-0.237	0.188
-143.516	100.782	-0.078	-0.114
-142.502	27.549	-0.062	-0.065
-141.487	-200.000	0.040	0.468
-140.472	521.785	0.081	0.237
-139.458	72.201	0.230	0.299
-138.443	109.601	0.133	-0.199
-137.429	224.110	0.118	0.240
-136.414	-50.916	-0.299	-0.175
-135.399	-79.054	0.388	-0.164
-134.385	-200.000	0.223	0.000
-133.370	-60.893	-0.074	0.039
-132.356	223.036	-0.108	-0.217
-131.341	-84.605	0.093	0.037
-130.326	-53.693	0.413	-0.235
-129.312	-60.738	0.045	0.024
-128.297	-36.170	0.165	0.111
-127.283	215.492	-0.178	-0.354
-126.268	73.965	0.244	0.320
-125.253	48.550	0.265	0.310
-124.239	171.219	-0.045	-0.081
-123.224	800.000	-0.116	-0.454
-122.210	172.791	-0.240	0.432
-121.195	-69.483	-0.613	0.292
-120.180	-94.552	0.614	0.207
-119.166	-149.937	-0.317	-0.030
-118.151	-200.000	-0.077	-0.555
-117.137	-83.981	-0.277	-0.109
-116.122	-200.000	0.030	0.309
-115.107	-36.951	0.241	-0.161
-114.093	-58.570	0.079	-0.042
-113.078	125.985	-0.230	-0.364
-112.064	214.546	0.095	-0.188
-111.049	-148.497	0.688	-0.069
-110.034	-131.935	-0.642	-0.103
-109.020	-156.280	-0.369	-0.028
-108.005	46.450	0.236	0.273
-106.991	-151.565	0.295	-0.027
-105.976	-93.085	0.120	0.041
-104.962	-37.220	-0.300	-0.199
-103.947	30.495	-0.200	-0.214
-102.932	567.719	0.076	-0.231
-101.918	-36.257	0.194	-0.130
-100.903	284.484	0.153	-0.345
-99.889	-200.000	0.005	-0.058
-98.874	-61.039	-0.082	0.043
-97.859	-56.161	-0.045	0.025
-96.845	-42.813	-0.504	-0.318
-95.830	-134.545	-0.128	-0.019
-94.816	800.000	-0.037	0.178
-93.801	-67.865	0.262	0.127
-92.786	800.000	-0.093	0.381
-91.772	800.000	0.092	0.383
-90.757	98.527	-0.293	0.422
-89.743	526.242	0.052	0.152
-88.728	-126.186	-0.543	0.100
-87.713	-45.964	0.427	-0.262
-86.699	-161.812	0.578	0.036
-85.684	800.000	-0.115	0.504
-84.670	365.894	0.209	0.528
-83.655	-40.263	0.193	0.125
-82.640	32.806	-0.121	0.130
-81.626	-200.000	-0.038	0.259
-80.611	-69.599	-0.168	0.080
-79.597	216.926	0.160	0.318
-78.582	51.721	-0.399	-0.472
-77.567	74.309	0.080	0.105
-76.553	-12.635	-0.372	-0.302
-75.538	-178.640	0.527	0.015
-74.524	63.806	-0.178	-0.223
-73.509	-200.000	0.001	0.068
-72.494	106.872	0.200	0.296
-71.480	293.835	0.107	0.245
-70.465	-114.220	0.455	0.109
-69.451	-1.790	0.396	0.347
-68.436	800.000	0.072	0.260
-67.422	800.000	-0.179	-0.711
-66.407	270.736	0.273	-0.599
-65.392	22.401	-0.181	-0.184
-64.378	-169.811	-0.131	-0.006
-63.363	242.722	-0.127	0.266
-62.349	-61.770	-0.747	0.388
-61.334	27.541	-1.142	-1.195
-60.319	-80.293	0.519	0.215
-59.305	397.535	-2.311	-6.040
-58.290	-19.578	3.296	2.535
-57.276	433.609	3.946	10.712
-56.261	-200.000	12.637	218.789
-55.246	495.591	1139.946	3275.659
-54.232	66.543	2785.838	3527.341
-53.217	74.107	2697.853	3526.817
-52.203	83.018	2432.217	3295.766
-51.188	34.351	2085.336	2263.900
-50.173	37.407	1954.473	2155.880
-49.159	35.290	1944.519	2121.305
-48.144	34.888	1939.714	2111.511
-47.130	34.574	1937.100	2105.107
-46.115	34.567	1934.846	2102.489
-45.100	34.521	1934.158	2101.150
-44.086	34.490	1932.366	2098.784
-43.071	34.566	1931.448	2098.537
-42.057	34.594	1929.691	2096.859
-41.042	34.635	1928.832	2096.293
-40.027	34.532	1926.988	2093.068
-39.013	34.506	1926.325	2091.984
-37.998	34.370	1924.669	2088.603
-36.984	34.366	1923.543	2087.249
-35.969	34.465	1922.165	2086.760
-34.954	34.495	1921.265	2086.027
-33.940	34.314	1919.825	2082.395
-32.925	34.292	1918.507	2080.641
-31.911	34.315	1917.109	2079.300
-30.896	34.372	1915.647	2078.250
-29.881	34.434	1914.459	2077.564
-28.867	34.340	1912.851	2074.708
-27.852	34.381	1910.733	2072.770
-26.838	34.392	1909.342	2071.302
-25.823	34.297	1908.269	2069.026
-24.809	34.246	1907.634	2067.699
-23.794	34.432	1905.601	2067.431
-22.779	34.144	1905.482	2064.089
-21.765	34.129	1904.825	2063.132
-20.750	34.260	1902.120	2061.537
-19.736	34.221	1901.112	2059.941
-18.721	34.138	1900.537	2058.334
-17.706	34.187	1898.566	2056.649
-16.692	34.099	1897.721	2054.700
-15.677	34.198	1896.136	2053.972
-14.663	34.203	1894.825	2052.528
-13.648	34.094	1894.069	2050.447
-12.633	34.101	1892.726	2048.987
-11.619	34.116	1891.466	2047.709
-10.604	34.195	1890.122	2047.021
-9.590	34.165	1888.984	2045.386
-8.575	34.063	1887.662	2042.775
-7.560	34.127	1886.172	2041.768
-6.546	34.088	1885.700	2040.759
-5.531	34.191	1884.464	2040.443
-4.517	34.123	1883.238	2038.306
-3.502	34.098	1882.258	2036.897
-2.487	34.158	1880.844	2035.931
-1.473	34.373	1877.541	2034.581
-0.458	35.015	1860.104	2022.422
0.556	32.388	1996.227	2127.919
1.571	31.516	2213.610	2348.362
2.586	33.340	2260.806	2421.623
3.600	33.244	2262.894	2422.338
4.615	33.315	2262.264	2422.282
5.629	33.187	2260.702	2418.683
6.644	33.342	2259.815	2419.435
7.659	33.422	2257.491	2417.676
8.673	33.572	2255.448	2417.121
9.688	32.948	2259.653	2413.333
10.702	30.141	2330.346	2451.282
11.717	26.324	2391.193	2462.822
12.731	13.125	2357.749	2248.599
13.746	2.139	2326.205	2069.254
14.761	0.372	2321.557	2040.852
15.775	0.217	2319.568	2036.753
16.790	0.091	2318.209	2033.592
17.804	0.092	2315.952	2031.388
18.819	0.092	2315.030	2030.341
19.834	0.151	2312.940	2029.067
20.848	0.165	2311.748	2027.955
21.863	0.044	2310.342	2024.846
22.877	0.040	2309.015	2023.384
23.892	0.026	2306.741	2020.969
24.907	0.146	2304.235	2020.148
25.921	0.043	2303.323	2017.720
26.936	0.053	2300.398	2015.049
27.950	0.116	2296.400	2012.152
28.965	0.058	2295.235	2010.105
29.980	0.030	2294.815	2009.122
30.994	0.245	2292.874	2010.067
32.009	6.815	2316.042	2118.946
33.023	23.315	2366.084	2390.090
34.038	32.697	2387.122	2538.753
35.053	34.613	2389.413	2566.804
36.067	34.490	2385.570	2560.713
37.082	34.122	2383.181	2552.887
38.096	34.258	2383.157	2554.385
39.111	34.909	2382.355	2561.986
40.126	34.891	2379.016	2557.844
41.140	35.002	2377.740	2557.665
42.155	34.800	2374.888	2551.570
43.169	34.479	2372.827	2544.747
44.184	34.773	2371.460	2546.922
45.199	34.736	2368.865	2543.333
46.213	34.402	2366.051	2535.543
47.228	33.981	2365.605	2529.139
48.242	34.433	2363.870	2533.009
49.257	34.852	2362.899	2537.259
50.271	35.123	2361.668	2539.250
51.286	35.314	2359.573	2539.237
52.301	34.607	2355.783	2525.457
53.315	33.360	2350.282	2502.697
54.330	30.574	2340.079	2454.621
55.344	28.650	2332.082	2420.464
56.359	28.677	2328.982	2417.321
57.374	28.388	2326.573	2410.704
58.388	28.226	2322.901	2404.479
59.403	28.352	2319.009	2401.824
60.417	28.382	2317.985	2400.869
61.432	28.755	2316.865	2404.322
62.447	28.502	2314.004	2397.741
63.461	28.415	2312.051	2394.296
64.476	28.255	2309.899	2389.676
65.490	28.792	2310.229	2396.772
66.505	29.296	2311.966	2404.902
67.520	30.822	2315.075	2427.869
68.534	32.486	2317.786	2452.230
69.549	33.090	2316.361	2458.327
70.563	33.330	2313.530	2458.161
71.578	33.564	2313.780	2461.182
72.593	34.255	2313.712	2469.828
73.607	34.532	2312.269	2471.608
74.622	34.252	2308.761	2463.914
75.636	33.633	2305.259	2451.844
76.651	33.655	2304.342	2450.856
77.666	34.248	2303.452	2457.309
78.680	34.335	2300.601	2455.107
79.695	34.021	2298.218	2448.204
80.709	33.187	2294.858	2433.551
81.724	33.210	2292.684	2431.258
82.739	34.177	2292.853	2443.626
83.753	34.700	2292.754	2449.977
84.768	34.343	2289.291	2441.386
85.782	34.042	2288.030	2435.878
86.797	34.201	2285.700	2435.149
87.812	33.683	2282.664	2424.969
88.826	33.623	2279.389	2420.428
89.841	33.984	2279.420	2424.797
90.855	34.361	2277.798	2427.617
91.870	33.514	2273.218	2411.610
92.884	33.172	2272.106	2405.776
93.899	33.713	2271.178	2411.408
94.914	32.531	2266.246	2390.813
95.928	29.767	2258.216	2346.854
96.943	29.069	2254.943	2334.284
97.957	31.693	2260.921	2373.675
98.972	33.617	2263.344	2400.437
99.987	33.359	2259.325	2392.607
101.001	33.325	2256.718	2389.126
102.016	33.418	2255.480	2388.719
103.030	33.317	2253.401	2384.950
104.045	33.579	2251.613	2386.077
105.060	34.304	2251.790	2395.155
106.074	34.511	2249.558	2395.099
107.089	33.733	2245.968	2381.184
108.103	33.604	2244.771	2378.011
109.118	33.944	2245.128	2382.383
110.133	34.066	2243.574	2381.993
111.147	34.106	2240.670	2379.129
112.162	34.152	2239.878	2378.575
113.176	34.164	2237.432	2375.847
114.191	33.710	2234.602	2366.867
115.206	33.721	2231.958	2363.917
116.220	33.867	2231.290	2364.758
117.235	33.450	2228.240	2356.030
118.249	33.222	2225.569	2350.073
119.264	33.712	2225.302	2355.621
120.279	33.972	2224.463	2357.705
121.293	33.909	2221.558	2353.552
122.308	33.686	2219.423	2348.241
123.322	33.377	2218.306	2342.926
124.337	32.135	2213.356	2321.998
125.352	30.137	2207.184	2290.463
126.366	30.151	2207.881	2291.084
127.381	32.648	2211.125	2325.189
128.395	33.974	2211.332	2341.555
129.410	34.263	2208.260	2341.600
130.424	33.910	2206.948	2335.562
131.439	33.940	2205.420	2334.048
132.454	33.401	2202.693	2324.235
133.468	33.692	2200.918	2325.670
134.483	33.541	2198.668	2321.150
135.497	33.533	2197.248	2319.280
136.512	34.180	2196.375	2326.028
137.527	34.073	2195.662	2323.680
138.541	34.093	2193.073	2320.912
139.556	33.965	2192.995	2318.981
140.570	33.864	2191.721	2316.118
141.585	33.696	2188.668	2310.558
142.600	33.752	2187.235	2309.455
143.614	33.772	2186.178	2308.298
144.629	34.323	2184.618	2313.106
145.643	33.898	2182.550	2305.460
146.658	33.582	2179.139	2297.725
147.673	32.995	2176.009	2287.010
148.687	33.329	2174.784	2289.505
149.702	33.484	2174.548	2290.871
150.716	33.520	2172.914	2289.313
151.731	34.243	2174.948	2299.958
152.746	34.645	2173.453	2302.988
153.760	32.856	2168.082	2275.354
154.775	29.824	2158.827	2228.716
155.789	28.547	2154.663	2208.715
156.804	30.943	2159.042	2241.955
157.819	32.931	2160.373	2267.091
158.833	33.480	2158.748	2271.728
159.848	34.096	2158.025	2278.115
160.862	34.215	2157.767	2278.996
161.877	34.476	2158.436	2282.572
162.892	34.877	2156.875	2285.472
163.906	35.071	2156.658	2287.292
164.921	34.939	2154.262	2282.893
165.935	34.765	2152.617	2278.794
166.950	34.245	2147.892	2267.302
167.964	33.745	2145.275	2258.281
168.979	33.630	2143.028	2254.282
169.994	33.947	2142.953	2257.714
171.008	33.814	2139.179	2251.882
172.023	33.458	2138.665	2246.832
173.037	33.989	2139.288	2253.545
174.052	34.034	2136.393	2250.755
175.067	33.570	2134.118	2242.578
176.081	33.526	2132.692	2240.288
177.096	33.738	2131.717	2241.509
178.110	33.710	2129.211	2238.280
179.125	33.576	2127.456	2234.583
180.140	34.023	2128.148	2240.330
181.154	34.316	2127.153	2242.485
182.169	34.071	2125.855	2237.953
183.183	33.115	2120.440	2220.705
184.198	30.250	2110.995	2176.805
185.213	29.469	2109.886	2166.191
186.227	32.545	2116.448	2209.001
187.242	33.656	2116.127	2221.489
188.256	33.552	2115.562	2219.411
189.271	34.177	2115.270	2226.186
190.286	34.344	2111.926	2224.360
191.300	33.520	2108.939	2211.291
192.315	33.324	2107.639	2207.360
193.329	33.820	2107.425	2212.693
194.344	34.473	2106.552	2219.143
195.359	34.182	2105.368	2214.234
196.373	34.619	2103.952	2217.577
197.388	34.604	2100.515	2213.515
198.402	34.183	2097.882	2205.573
199.417	34.063	2095.687	2201.611
200.432	34.209	2094.739	2202.054
201.446	34.379	2094.101	2203.093
202.461	33.905	2091.283	2194.360
203.475	33.387	2088.926	2185.615
204.490	33.497	2086.993	2184.610
205.504	33.839	2084.295	2185.479
206.519	33.644	2081.551	2180.082
207.534	33.974	2080.992	2183.047
208.548	34.245	2080.964	2185.892
209.563	33.370	2077.101	2171.493
210.577	33.355	2077.298	2171.265
211.592	34.349	2078.961	2184.196
212.607	32.998	2072.145	2161.252
213.621	28.896	2061.198	2102.533
214.636	28.930	2062.451	2103.948
215.650	32.497	2069.669	2152.141
216.665	34.173	2070.415	2171.900
217.680	34.548	2069.411	2174.878
218.694	34.597	2068.569	2174.295
219.709	33.828	2064.512	2160.978
220.723	33.889	2064.417	2161.317
221.738	34.696	2064.499	2170.375
222.753	34.841	2061.967	2169.109
223.767	34.453	2060.093	2162.453
224.782	33.944	2056.288	2152.410
225.796	33.782	2055.546	2149.526
226.811	34.585	2056.018	2158.901
227.826	34.754	2053.368	2157.771
228.840	34.612	2051.832	2154.299
229.855	34.223	2049.842	2147.535
230.869	33.627	2046.649	2137.190
231.884	33.475	2044.567	2133.040
232.899	33.805	2044.077	2136.003
233.913	34.256	2044.274	2141.053
234.928	34.582	2044.388	2144.597
235.942	34.497	2041.814	2140.684
236.957	33.997	2039.224	2132.071
237.972	33.998	2038.680	2131.262
238.986	34.189	2038.766	2133.252
240.001	33.987	2035.163	2126.955
241.015	33.643	2033.104	2120.682
242.030	33.518	2030.868	2116.689
243.045	31.002	2022.651	2079.708
244.059	30.128	2021.627	2068.605
245.074	33.002	2027.224	2106.354
246.088	33.921	2025.157	2114.236
247.103	33.891	2023.935	2112.372
248.117	34.379	2022.929	2116.518
249.132	34.492	2021.663	2116.202
250.147	33.997	2018.383	2107.002
251.161	33.338	2015.710	2096.626
252.176	33.706	2014.271	2098.972
253.190	33.585	2012.057	2095.068
254.205	33.619	2009.713	2092.757
255.220	33.909	2009.279	2095.271
256.234	33.753	2008.344	2092.308
257.249	33.495	2007.105	2087.918
258.263	33.590	2006.294	2087.875
259.278	33.845	2005.785	2089.908
260.293	34.019	2004.055	2089.786
261.307	33.854	2001.839	2085.398
262.322	33.723	2000.004	2081.797
263.336	33.194	1997.292	2072.898
264.351	33.215	1995.548	2071.069
265.366	33.781	1995.090	2076.577
266.380	34.147	1995.152	2080.407
267.395	33.567	1993.499	2072.065
268.409	33.482	1991.869	2069.197
269.424	34.119	1990.367	2074.365
270.439	34.162	1990.429	2074.653
271.453	33.544	1984.678	2061.660
272.468	30.088	1974.710	2013.396
273.482	29.017	1973.290	2000.008
274.497	31.841	1978.104	2035.526
275.512	33.719	1977.935	2055.573
276.526	33.880	1977.236	2056.355
277.541	33.692	1975.332	2052.086
278.555	33.514	1972.890	2047.374
279.570	33.333	1971.063	2043.270
280.585	33.075	1968.941	2038.032
281.599	33.193	1968.085	2038.178
282.614	32.078	1962.570	2020.172
283.628	29.031	1953.112	1977.335
284.643	27.637	1948.905	1957.814
285.657	27.372	1947.510	1953.314
286.672	27.471	1944.943	1951.578
287.687	26.990	1943.131	1944.345
288.701	27.268	1943.363	1947.340
289.716	27.592	1943.165	1950.391
290.730	27.612	1940.286	1947.483
291.745	27.974	1940.988	1951.836
292.760	28.277	1941.621	1955.492
293.774	30.344	1946.855	1982.754
294.789	33.433	1951.831	2020.767
295.803	34.206	1952.695	2029.708
296.818	34.010	1950.746	2025.346
297.833	34.289	1950.061	2027.377
298.847	34.425	1949.597	2028.101
299.862	34.319	1946.090	2023.085
300.876	33.415	1941.512	2008.449
301.891	30.706	1933.315	1970.934
302.906	29.733	1932.763	1959.774
303.920	32.660	1939.461	1997.566
304.935	34.562	1940.330	2018.468
305.949	34.582	1937.998	2016.018
306.964	34.630	1935.995	2014.205
307.979	33.922	1931.324	2001.609
308.993	30.714	1920.158	1955.969
310.008	27.518	1911.897	1913.629
311.022	27.033	1909.984	1906.374
312.037	27.651	1910.989	1913.673
313.052	27.495	1908.213	1909.014
314.066	26.782	1904.576	1897.651
315.081	26.879	1903.668	1897.539
316.095	26.979	1902.395	1897.100
317.110	26.802	1901.399	1894.018
318.125	26.824	1900.423	1893.052
319.139	26.787	1900.218	1892.234
320.154	27.373	1897.642	1895.576
321.168	27.251	1896.652	1893.080
322.183	28.191	1900.273	1906.319
323.197	31.308	1906.918	1945.443
324.212	33.504	1908.525	1969.828
325.227	33.546	1907.935	1969.418
326.241	33.775	1906.908	1970.508
327.256	34.334	1905.217	1974.357
328.270	33.847	1904.542	1968.344
329.285	33.978	1903.440	1968.339
330.300	33.090	1900.244	1955.559
331.314	29.533	1890.758	1908.680
332.329	29.055	1889.396	1902.111
333.343	32.153	1894.763	1939.507
334.358	33.812	1895.834	1957.580
335.373	34.488	1896.148	1964.671
336.387	34.899	1895.640	1968.157
337.402	34.769	1892.803	1963.638
338.416	34.335	1889.733	1955.742
339.431	34.052	1889.129	1951.962
340.446	33.265	1883.410	1937.723
341.460	29.591	1872.982	1889.071
342.475	27.686	1868.464	1864.738
343.489	27.230	1864.747	1856.126
344.504	26.921	1863.807	1851.796
345.519	27.045	1862.385	1851.431
346.533	26.860	1859.441	1846.387
347.548	26.828	1857.699	1844.108
348.562	27.095	1856.534	1845.465
349.577	27.104	1856.207	1845.006
350.592	27.223	1856.811	1846.603
351.606	27.292	1855.338	1845.617
352.621	26.976	1852.131	1838.988
353.635	27.041	1851.680	1838.989
354.650	28.925	1856.277	1862.528
355.665	32.225	1861.833	1901.514
356.679	33.523	1863.933	1916.634
357.694	33.868	1863.583	1919.544
358.708	34.225	1862.946	1922.281
359.723	33.354	1857.527	1907.648
360.738	29.810	1849.194	1863.057
361.752	29.707	1849.761	1862.365
362.767	32.794	1854.435	1898.127
363.781	34.091	1855.195	1911.784
364.796	34.824	1855.197	1918.957
365.810	34.630	1854.242	1915.785
366.825	33.772	1848.750	1901.256
367.840	30.683	1838.931	1859.946
368.854	27.496	1832.273	1821.022
369.869	27.016	1829.847	1813.567
370.883	27.176	1827.671	1812.802
371.898	27.136	1827.934	1812.445
372.913	27.188	1825.127	1809.963
373.927	26.811	1823.168	1804.037
374.942	26.725	1822.161	1801.960
375.956	27.163	1821.288	1805.256
376.971	27.084	1819.438	1802.420
377.986	26.685	1816.924	1795.743
379.000	26.723	1815.519	1794.519
380.015	27.038	1816.193	1798.108
381.029	29.769	1822.448	1831.310
382.044	33.447	1828.496	1873.820
383.059	34.195	1827.814	1880.321
384.073	33.676	1826.258	1873.348
385.088	33.833	1826.597	1875.028
386.102	34.134	1824.934	1876.081
387.117	34.145	1823.864	1874.870
388.132	34.336	1823.010	1875.649
389.146	33.401	1818.783	1861.845
390.161	29.994	1809.818	1818.874
391.175	29.218	1807.355	1808.533
392.190	31.660	1809.728	1834.779
393.205	33.156	1810.362	1849.932
394.219	33.547	1810.054	1853.234
395.234	33.485	1808.928	1851.254
396.248	33.601	1806.963	1850.153
397.263	33.548	1804.894	1847.298
398.278	33.340	1802.552	1842.647
399.292	33.000	1800.740	1837.244
400.307	31.789	1795.086	1819.449
401.321	28.762	1787.526	1782.105
402.336	27.116	1783.506	1761.850
403.350	27.116	1782.592	1760.745
404.365	27.724	1782.128	1765.989
405.380	27.751	1779.813	1763.747
406.394	27.113	1777.453	1755.000
407.409	26.706	1776.550	1749.951
408.423	27.131	1775.658	1752.991
409.438	27.163	1773.323	1750.781
410.453	27.020	1771.878	1747.765
411.467	27.269	1771.853	1749.934
412.482	28.825	1776.112	1768.997
413.496	32.774	1784.080	1815.016
414.511	34.276	1784.049	1829.283
415.526	33.921	1781.604	1823.131
416.540	34.261	1780.842	1825.408
417.555	34.122	1779.339	1822.316
418.569	33.437	1777.657	1813.779
419.584	33.490	1778.136	1814.558
420.599	33.526	1777.584	1814.131
421.613	33.793	1777.078	1815.958
422.628	34.097	1775.696	1817.255
423.642	34.571	1775.784	1821.676
424.657	33.751	1771.139	1808.841
425.672	33.219	1768.951	1801.294
426.686	33.900	1769.381	1808.033
427.701	33.852	1768.083	1806.038
428.715	33.701	1765.985	1802.238
429.730	34.106	1764.815	1804.691
430.745	34.837	1765.981	1812.631
431.759	35.443	1766.443	1818.666
432.774	35.250	1764.337	1814.446
433.788	32.199	1754.410	1775.096
434.803	29.095	1748.783	1739.759
435.818	28.432	1748.041	1732.518
436.832	28.360	1746.663	1730.265
437.847	27.300	1738.744	1712.191
438.861	17.442	1709.900	1591.390
439.876	3.792	1684.167	1440.119
440.890	0.409	1677.111	1402.325
441.905	0.172	1676.407	1399.360
442.920	0.108	1674.655	1397.127
443.934	0.070	1673.709	1395.818
444.949	0.113	1672.379	1394.941
445.963	0.095	1671.258	1393.674
446.978	0.034	1671.925	1393.491
447.993	0.040	1669.682	1391.513
449.007	0.133	1666.799	1389.806
450.022	0.098	1664.993	1387.811
451.036	0.058	1664.266	1386.671
452.051	1.460	1671.498	1405.571
453.066	13.512	1699.503	1542.337
454.080	26.937	1722.370	1689.419
455.095	29.877	1727.839	1722.134
456.109	30.345	1728.280	1726.742
457.124	30.789	1726.995	1729.396
458.139	30.313	1724.719	1722.475
459.153	29.865	1723.579	1716.948
460.168	30.056	1721.326	1716.281
461.182	30.336	1720.814	1718.174
462.197	30.662	1719.974	1720.157
463.212	31.447	1720.693	1727.966
464.226	32.274	1721.304	1736.055
465.241	32.219	1719.586	1733.599
466.255	32.094	1717.356	1729.990
467.270	32.141	1716.418	1729.273
468.285	33.090	1717.897	1739.340
469.299	34.072	1717.614	1747.921
470.314	33.864	1716.053	1744.202
471.328	33.675	1714.441	1740.609
472.343	33.687	1714.572	1740.646
473.358	33.665	1712.596	1738.231
474.372	33.757	1710.638	1736.885
475.387	34.335	1712.103	1743.477
476.401	34.307	1709.461	1740.323
477.416	33.661	1706.424	1731.102
478.430	33.095	1705.197	1724.458
479.445	33.831	1705.558	1731.364
480.460	34.393	1704.549	1735.281
481.474	34.384	1703.684	1734.111
482.489	34.073	1700.967	1728.291
483.503	33.093	1696.768	1714.894
484.518	32.632	1696.025	1709.733
485.533	33.118	1695.350	1713.277
486.547	32.884	1693.107	1708.669
487.562	31.775	1690.444	1695.699
488.576	32.138	1690.480	1698.831
489.591	33.175	1689.926	1707.490
490.606	33.612	1690.097	1711.423
491.620	33.717	1688.285	1710.332
492.635	33.158	1684.904	1701.653
493.649	32.164	1682.009	1689.539
494.664	32.529	1683.101	1693.742
495.679	33.655	1683.397	1704.009
496.693	33.740	1681.616	1702.768
497.708	33.583	1679.661	1699.173
498.722	32.868	1677.782	1690.630
499.737	32.825	1677.044	1689.299
500.752	33.178	1675.622	1690.835
501.766	33.552	1674.437	1692.795
502.781	33.335	1672.774	1688.967
503.795	33.454	1671.976	1689.025
504.810	33.488	1670.944	1688.081
505.825	32.998	1668.908	1681.445
506.839	32.510	1666.181	1674.134
507.854	32.147	1664.480	1668.986
508.868	31.739	1661.334	1661.995
509.883	31.051	1658.390	1652.722
510.898	30.413	1656.394	1644.854
511.912	30.055	1655.346	1640.427
512.927	30.011	1652.957	1637.480
513.941	29.849	1651.206	1634.111
514.956	30.146	1650.877	1636.220
515.971	30.469	1650.543	1638.561
516.985	30.188	1647.758	1633.108
518.000	29.816	1646.202	1628.088
519.014	29.783	1645.033	1626.438
520.029	29.707	1644.094	1624.649
521.043	29.914	1642.755	1624.953
522.058	30.055	1641.999	1625.261
523.073	30.047	1641.522	1624.522
524.087	30.057	1640.038	1622.942
525.102	30.326	1640.020	1625.098
526.116	31.617	1641.305	1637.538
527.131	32.522	1641.240	1645.232
528.146	32.255	1639.781	1641.227
529.160	32.234	1638.843	1639.913
530.175	32.436	1638.020	1640.661
531.189	32.364	1636.721	1638.529
532.204	32.153	1635.613	1635.377
533.219	32.434	1635.508	1637.540
534.233	32.938	1634.773	1641.009
535.248	32.578	1632.142	1635.031
536.262	31.669	1630.059	1624.829
537.277	32.060	1629.835	1627.819
538.292	32.656	1629.200	1632.176
539.306	32.720	1627.343	1630.677
540.321	32.134	1623.976	1622.029
541.335	31.535	1622.197	1614.855
542.350	31.875	1621.736	1617.155
543.365	32.313	1621.258	1620.279
544.379	32.721	1620.083	1622.441
545.394	32.355	1618.289	1617.286
546.408	32.154	1617.137	1614.204
547.423	32.910	1618.029	1621.438
548.438	33.894	1617.307	1629.004
549.452	33.638	1614.753	1624.034
550.467	32.668	1612.478	1613.211
551.481	32.292	1612.427	1609.726
552.496	32.127	1610.717	1606.413
553.511	31.962	1608.975	1603.064
554.525	32.102	1607.777	1602.883
555.540	32.188	1607.283	1602.936
556.554	32.305	1605.623	1602.086
557.569	32.087	1603.518	1597.935
558.583	31.623	1601.240	1591.508
559.598	31.395	1599.509	1587.649
560.613	31.438	1598.326	1586.654
561.627	31.025	1596.651	1581.283
562.642	30.552	1593.964	1574.407
563.656	29.864	1591.368	1565.803
564.671	29.609	1589.718	1561.823
565.686	29.621	1589.194	1561.222
566.700	29.658	1588.015	1560.192
567.715	29.804	1586.304	1559.559
568.729	29.621	1585.577	1557.113
569.744	29.862	1584.576	1557.984
570.759	30.115	1582.638	1558.027
571.773	29.792	1581.640	1554.128
572.788	29.540	1580.054	1550.260
573.802	29.635	1578.109	1548.962
574.817	29.675	1576.591	1547.625
575.832	29.608	1575.869	1546.167
576.846	30.061	1576.887	1550.800
577.861	30.856	1576.311	1556.729
578.875	31.067	1576.099	1558.100
579.890	31.535	1575.610	1561.356
580.905	31.577	1574.470	1560.397
581.919	31.576	1574.040	1559.773
582.934	31.697	1573.167	1559.736
583.948	31.466	1571.198	1555.665
584.963	31.495	1571.005	1555.532
585.978	31.700	1569.802	1555.863
586.992	31.243	1567.520	1549.602
588.007	31.090	1566.065	1546.703
589.021	30.913	1564.377	1543.377
590.036	30.091	1562.378	1534.389
591.051	30.414	1561.710	1536.229
592.065	30.952	1561.205	1540.018
593.080	31.068	1559.742	1539.358
594.094	31.202	1558.482	1539.038
595.109	31.639	1558.848	1542.839
596.123	32.560	1558.986	1550.418
597.138	32.614	1556.685	1548.384
598.153	31.921	1553.515	1539.335
599.167	31.446	1551.869	1533.605
600.182	31.244	1550.363	1530.271
601.196	31.232	1549.941	1529.570
602.211	31.645	1549.795	1532.645
603.226	31.360	1548.027	1528.363
604.240	31.571	1546.481	1528.393
605.255	31.621	1545.377	1527.524
606.269	31.301	1544.306	1523.660
607.284	31.190	1543.052	1521.333
608.299	31.044	1541.539	1518.462
609.313	31.015	1538.871	1515.414
610.328	30.589	1537.835	1510.733
611.342	30.718	1537.149	1510.936
612.357	30.655	1535.882	1508.995
613.372	30.399	1534.049	1504.927
614.386	30.203	1532.779	1501.909
615.401	30.184	1532.091	1500.899
616.415	29.877	1531.143	1497.290
617.430	29.560	1528.886	1492.334
618.445	29.392	1527.724	1489.655
619.459	29.431	1526.545	1488.648
620.474	29.472	1525.479	1487.761
621.488	29.715	1525.389	1489.459
622.503	30.509	1524.347	1494.691
623.518	29.757	1521.835	1485.972
624.532	29.324	1519.984	1480.493
625.547	29.260	1518.746	1478.595
626.561	29.193	1518.609	1477.745
627.576	29.283	1517.586	1477.300
628.591	29.406	1516.075	1476.643
629.605	29.506	1515.389	1476.599
630.620	29.797	1514.534	1477.925
631.634	30.739	1514.199	1484.986
632.649	30.550	1513.007	1482.118
633.663	30.018	1510.515	1475.243
634.678	29.345	1508.832	1468.045
635.693	29.241	1506.528	1464.795
636.707	29.354	1505.890	1464.896
637.722	29.307	1504.884	1463.368
638.736	29.706	1504.701	1466.197
639.751	30.174	1504.827	1469.880
640.766	30.354	1503.588	1469.927
641.780	30.250	1502.854	1468.203
642.795	30.695	1501.562	1470.299
643.809	30.874	1501.050	1471.042
644.824	30.939	1500.831	1471.174
645.839	31.136	1500.360	1472.092
646.853	31.111	1498.040	1469.440
647.868	31.120	1496.658	1467.981
648.882	30.821	1495.561	1464.365
649.897	30.837	1493.760	1462.556
650.912	30.568	1491.879	1458.416
651.926	30.422	1491.104	1456.333
652.941	30.475	1489.871	1455.378
653.955	30.308	1487.893	1451.953
654.970	29.930	1485.071	1446.063
655.985	29.361	1483.269	1439.669
656.999	29.361	1481.021	1437.317
658.014	29.375	1480.526	1436.776
659.028	29.537	1481.224	1438.543
660.043	30.153	1481.213	1443.182
661.058	30.372	1479.760	1443.305
662.072	30.544	1479.041	1443.776
663.087	30.589	1478.380	1443.314
664.101	30.382	1477.348	1440.515
665.116	30.474	1476.582	1440.312
666.131	30.497	1475.553	1439.316
667.145	30.706	1474.162	1439.415
668.160	30.613	1472.189	1436.593
669.174	30.493	1469.998	1433.352
670.189	30.508	1470.499	1433.785
671.204	30.805	1470.128	1435.551
672.218	30.642	1468.962	1432.980
673.233	30.685	1467.459	1431.679
674.247	30.679	1465.817	1429.858
675.262	30.366	1464.628	1426.109
676.276	30.237	1463.599	1423.942
677.291	30.274	1463.581	1424.042
678.306	30.866	1462.834	1427.701
679.320	30.861	1460.770	1425.478
680.335	30.211	1459.228	1418.805
681.349	30.141	1459.368	1418.234
682.364	30.297	1457.630	1417.577
683.379	30.064	1455.916	1413.954
684.393	29.745	1454.218	1409.688
685.408	29.712	1452.658	1407.753
686.422	29.758	1451.871	1407.174
687.437	29.457	1450.254	1403.144
688.452	29.192	1449.346	1400.072
689.466	29.130	1447.624	1397.765
690.481	29.277	1446.180	1397.323
691.495	29.094	1446.013	1395.600
692.510	29.582	1446.060	1399.196
693.525	30.650	1445.412	1406.523
694.539	29.998	1442.812	1398.883
695.554	29.292	1441.900	1392.466
696.568	29.148	1440.705	1390.056
697.583	29.050	1439.904	1388.373
698.598	29.307	1438.892	1389.179
699.612	29.396	1438.068	1388.894
700.627	29.470	1436.930	1388.187
701.641	29.954	1436.755	1391.506
702.656	30.041	1435.900	1391.167
703.671	30.038	1435.062	1390.169
704.685	30.216	1434.041	1390.357
705.700	30.118	1433.056	1388.496
706.714	30.020	1431.586	1386.165
707.729	29.996	1430.290	1384.566
708.744	30.028	1428.533	1382.937
709.758	29.573	1426.731	1377.617
710.773	29.169	1424.174	1371.964
711.787	28.992	1423.373	1369.704
712.802	29.559	1422.769	1373.194
713.816	29.583	1422.660	1373.106
714.831	29.973	1421.738	1374.960
715.846	29.950	1419.818	1372.769
716.860	29.687	1418.928	1369.788
717.875	29.923	1418.061	1370.543
718.889	29.806	1417.149	1368.624
719.904	29.828	1416.157	1367.668
720.919	29.691	1415.502	1365.854
721.933	29.696	1413.545	1363.841
722.948	29.539	1412.470	1361.474
723.962	29.600	1411.719	1361.042
724.977	29.737	1410.446	1360.663
725.992	29.697	1410.199	1359.966
727.006	29.917	1409.924	1361.166
728.021	30.058	1407.630	1359.831
729.035	29.998	1406.909	1358.526
730.050	30.017	1406.028	1357.654
731.065	30.029	1404.399	1356.002
732.079	29.755	1403.086	1352.559
733.094	29.926	1402.302	1352.901
734.108	30.246	1401.526	1354.339
735.123	30.184	1399.213	1351.489
736.138	29.852	1398.261	1347.971
737.152	29.894	1397.392	1347.284
738.167	29.550	1396.598	1343.836
739.181	29.751	1395.354	1343.947
740.196	29.731	1394.773	1343.083
741.211	29.834	1393.956	1342.885
742.225	29.689	1392.911	1340.666
743.240	29.697	1390.941	1338.665
744.254	29.484	1388.430	1334.537
745.269	29.200	1388.015	1331.914
746.284	29.130	1387.493	1330.748
747.298	29.006	1386.458	1328.699
748.313	28.998	1385.722	1327.778
749.327	29.127	1385.120	1327.970
750.342	29.686	1385.358	1332.095
751.356	30.427	1384.498	1336.471
752.371	30.271	1382.510	1333.264
753.386	29.387	1380.866	1325.141
754.400	29.387	1380.036	1324.184
755.415	29.772	1378.965	1325.773
756.429	29.865	1377.737	1325.101
757.444	29.880	1376.645	1324.000
758.459	29.862	1375.234	1322.356
759.473	29.441	1374.876	1318.831
760.488	29.357	1372.748	1316.033
761.502	29.382	1371.431	1314.788
762.517	29.252	1371.094	1313.379
763.532	29.591	1369.367	1313.987
764.546	29.308	1367.911	1310.412
765.561	28.772	1366.744	1305.313
766.575	28.446	1365.529	1301.672
767.590	28.618	1364.219	1301.494
768.605	29.066	1363.087	1303.447
769.619	29.157	1362.756	1303.623
770.634	29.454	1361.753	1304.615
771.648	29.278	1361.120	1302.603
772.663	29.174	1359.952	1300.587
773.678	29.272	1359.837	1301.018
774.692	29.627	1358.982	1302.560
775.707	29.659	1358.256	1301.940
776.721	29.588	1357.261	1300.322
777.736	29.560	1355.848	1298.620
778.751	29.551	1354.904	1297.495
779.765	29.848	1353.732	1298.311
780.780	29.516	1353.227	1295.334
781.794	29.612	1352.809	1295.456
782.809	29.348	1351.252	1291.949
783.824	28.973	1349.577	1287.558
784.838	29.185	1348.212	1287.588
785.853	29.608	1348.088	1290.288
786.867	29.274	1347.511	1287.233
787.882	28.859	1346.827	1283.516
788.897	28.786	1345.043	1281.153
789.911	28.750	1344.000	1279.754
790.926	28.791	1343.058	1278.990
791.940	28.857	1341.590	1277.901
792.955	29.115	1340.272	1278.287
793.969	29.123	1338.867	1276.856
794.984	29.149	1338.920	1276.934
795.999	29.335	1338.200	1277.385
797.013	29.525	1336.433	1276.867
798.028	29.378	1335.490	1274.795
799.042	29.427	1334.584	1274.114
800.057	29.444	1333.402	1272.951
801.072	29.401	1331.376	1270.573
802.086	29.339	1330.635	1269.283
803.101	29.369	1329.445	1268.201
804.115	29.406	1328.331	1267.242
805.130	29.135	1327.789	1264.705
806.145	29.145	1327.155	1264.020
807.159	29.142	1325.105	1261.891
808.174	29.174	1324.516	1261.403
809.188	29.142	1323.392	1259.957
810.203	29.081	1320.711	1256.835
811.218	28.865	1319.154	1253.724
812.232	28.519	1317.740	1249.864
813.247	28.335	1316.470	1247.251
814.261	28.624	1317.052	1249.630
815.276	28.965	1316.909	1251.675
816.291	28.972	1315.474	1250.213
817.305	29.016	1314.523	1249.457
818.320	29.009	1314.000	1248.762
819.334	29.134	1313.069	1248.581
820.349	29.284	1311.446	1247.907
821.364	29.320	1309.769	1246.405
822.378	29.176	1308.994	1244.541
823.393	29.097	1307.357	1242.302
824.407	29.203	1306.548	1242.106
825.422	29.166	1305.930	1241.119
826.437	29.008	1304.417	1238.464
827.451	28.970	1302.829	1236.548
828.466	29.035	1301.815	1235.876
829.480	29.407	1299.683	1236.212
830.495	28.960	1298.263	1231.703
831.509	28.856	1297.696	1230.321
832.524	28.840	1296.932	1229.340
833.539	29.034	1295.492	1229.133
834.553	29.167	1294.099	1228.554
835.568	29.170	1293.199	1227.570
836.582	29.110	1292.502	1226.363
837.597	29.205	1291.133	1225.554
838.612	29.155	1288.665	1222.726
839.626	29.110	1287.214	1220.906
840.641	28.833	1286.766	1218.488
841.655	28.635	1285.744	1216.059
842.670	28.361	1284.764	1213.161
843.685	28.081	1283.297	1209.772
844.699	28.459	1282.503	1211.385
845.714	28.796	1281.242	1212.285
846.728	28.684	1280.558	1210.753
847.743	28.637	1279.995	1209.761
848.758	28.951	1278.923	1210.681
849.772	29.080	1277.662	1210.195
850.787	29.009	1276.711	1208.683
851.801	29.082	1275.979	1208.325
852.816	28.971	1274.930	1206.456
853.831	29.113	1273.154	1205.566
854.845	29.091	1271.661	1203.862
855.860	28.985	1269.749	1201.217
856.874	28.839	1268.455	1198.889
857.889	28.976	1267.637	1198.870
858.904	28.890	1266.679	1197.255
859.918	29.258	1265.494	1198.399
860.933	29.589	1264.742	1199.703
861.947	29.395	1263.507	1197.125
862.962	28.982	1262.047	1192.909
863.977	28.901	1260.782	1191.041
864.991	28.998	1259.837	1190.637
866.006	28.926	1259.972	1190.155
867.020	28.983	1259.010	1189.471
868.035	29.029	1257.511	1188.216
869.049	29.045	1256.573	1187.289
870.064	29.184	1255.172	1186.725
871.079	29.167	1254.409	1185.749
872.093	28.897	1253.958	1183.435
873.108	28.790	1252.769	1181.481
874.122	28.693	1251.104	1179.142
875.137	28.323	1250.096	1175.665
876.152	28.299	1249.036	1174.368
877.166	28.095	1247.598	1171.562
878.181	28.426	1246.670	1172.683
879.195	28.481	1246.507	1172.742
880.210	28.819	1245.618	1173.936
881.225	28.877	1244.627	1173.235
882.239	28.966	1243.317	1172.428
883.254	29.110	1242.209	1172.166
884.268	29.205	1241.716	1172.165
885.283	29.170	1240.874	1171.011
886.298	29.159	1239.074	1169.102
887.312	29.109	1238.126	1167.747
888.327	29.113	1237.700	1167.232
889.341	29.099	1236.341	1165.718
890.356	29.015	1235.408	1164.168
891.371	29.070	1234.903	1163.899
892.385	28.926	1234.140	1162.130
893.400	29.186	1233.753	1163.275
894.414	28.879	1232.293	1159.814
895.429	28.988	1230.617	1158.790
896.444	29.478	1230.303	1161.456
897.458	30.206	1230.173	1165.795
898.473	29.480	1228.689	1159.666
899.487	29.260	1226.862	1156.412
900.502	29.136	1225.358	1154.076
901.517	29.054	1224.165	1152.301
902.531	29.005	1223.199	1150.941
903.546	29.124	1222.824	1151.198
904.560	29.002	1221.964	1149.485
905.575	28.996	1220.937	1148.349
906.589	28.948	1219.348	1146.411
907.604	28.861	1218.418	1144.858
