DTS Sentinel unit serial number:	SN409020Multiplexer serial number:	ORYXHardware model number:	OX4-SRSoftware version number:	ORYX F/W v3.00 Oryx Data Collector v3.7.2.0data status	okinstallation	HaddamTimeLapsedifferential loss correction	single-endedforward channel	channel 3reverse channel	N/Adate	2011/06/22time	03:16:17forward acquisition time	30.00reverse acquisition time	0.00gamma	498.7831k internal	0.1751k external	0.1751temperature offset calibration	1.0074default loss term (dB/km)	0.3790temperature slope calibration	1.3530multiplexer offset coefficient	1.0000multiplexer slope coefficient	1.0000fibre end	0.00T internal ref (°C)	22.31T ext. ref 1 (°C)	17.68T ext. ref 2 (°C)	0.06length (m)	temperature (°C)	Stokes	anti-Stokes-747.200	-200.000	0.010	-0.333
-746.185	-23.003	0.180	0.144
-745.171	85.929	-0.154	-0.225
-744.156	-44.168	0.165	0.110
-743.142	-61.532	-0.131	0.073
-742.127	1.680	0.130	-0.125
-741.112	800.000	0.076	-0.288
-740.098	65.761	-0.117	0.158
-739.083	214.447	-0.164	0.346
-738.069	-3.570	-0.354	0.327
-737.054	-127.934	-0.245	0.046
-736.039	-110.109	0.266	-0.073
-735.025	-94.222	0.388	-0.140
-734.010	135.392	-0.316	-0.548
-732.996	-57.662	-0.116	-0.067
-731.981	800.000	0.051	-0.236
-730.966	-167.814	-0.480	-0.025
-729.952	800.000	0.069	0.339
-728.937	54.471	-0.147	-0.189
-727.923	90.515	0.234	0.349
-726.908	64.529	-0.240	0.321
-725.894	800.000	-0.088	-0.438
-724.879	-65.678	0.424	-0.225
-723.864	-43.621	0.073	-0.049
-722.850	-96.482	0.163	-0.057
-721.835	-9.119	0.097	-0.086
-720.821	594.390	-0.148	0.487
-719.806	89.461	-0.231	-0.343
-718.791	104.019	0.224	-0.350
-717.777	-161.924	0.179	-0.012
-716.762	40.754	-0.371	-0.444
-715.748	273.458	0.102	0.240
-714.733	280.598	-0.051	0.122
-713.718	-129.294	-0.509	0.093
-712.704	-200.000	-0.048	0.338
-711.689	-200.000	-0.014	-0.156
-710.675	-55.611	-0.212	-0.126
-709.660	-82.052	-0.168	-0.072
-708.645	-171.397	-0.177	0.008
-707.631	-120.532	-0.643	0.144
-706.616	431.508	0.192	-0.554
-705.602	800.000	-0.126	-0.727
-704.587	162.454	-0.052	-0.097
-703.572	173.350	-0.053	-0.102
-702.558	-117.243	0.320	0.077
-701.543	-185.610	-0.092	0.002
-700.529	-146.234	0.129	-0.015
-699.514	31.890	-0.127	-0.145
-698.499	800.000	0.093	-0.394
-697.485	151.707	0.188	0.340
-696.470	171.574	-0.185	0.353
-695.456	-200.000	0.425	0.002
-694.441	-24.086	0.284	0.224
-693.426	173.082	0.292	0.559
-692.412	-200.000	-0.002	0.415
-691.397	-41.313	-0.435	0.296
-690.383	-40.393	-0.454	0.312
-689.368	188.588	0.114	-0.226
-688.354	139.006	-0.200	0.350
-687.339	-75.498	0.184	-0.086
-686.324	-193.955	0.455	0.005
-685.310	-114.971	0.273	0.068
-684.295	63.003	0.356	0.473
-683.281	-191.936	0.066	0.001
-682.266	452.968	-0.086	-0.254
-681.251	-22.635	-0.308	-0.246
-680.237	-94.483	0.146	0.053
-679.222	22.216	-0.214	-0.232
-678.208	136.475	-0.032	0.055
-677.193	-142.410	-0.339	-0.044
-676.178	156.367	0.052	-0.096
-675.164	424.931	-0.056	-0.161
-674.149	-58.513	-0.335	-0.192
-673.135	-170.060	-0.472	0.022
-672.120	-37.169	0.116	0.082
-671.105	-102.679	0.318	-0.100
-670.091	-32.928	0.263	0.193
-669.076	22.017	0.300	-0.324
-668.062	19.140	-0.200	-0.213
-667.047	635.716	0.082	0.277
-666.032	124.941	0.131	0.220
-665.018	-200.000	0.009	-0.205
-664.003	-85.882	0.317	-0.129
-662.989	97.050	-0.187	0.284
-661.974	-200.000	0.021	0.245
-660.959	47.130	-0.311	-0.384
-659.945	147.073	0.123	0.219
-658.930	-129.536	0.433	0.079
-657.916	-200.000	-0.075	-0.000
-656.901	-55.645	0.124	0.073
-655.886	-81.085	0.548	-0.239
-654.872	-107.841	-0.383	0.110
-653.857	-96.228	0.100	0.035
-652.843	-137.301	-0.252	0.038
-651.828	19.719	-0.313	0.334
-650.814	-37.686	-0.134	0.094
-649.799	570.131	-0.095	0.309
-648.784	-94.856	-0.295	0.105
-647.770	133.114	-0.204	-0.349
-646.755	-200.000	0.072	0.441
-645.741	800.000	0.046	-0.172
-644.726	800.000	0.047	0.178
-643.711	79.316	0.021	0.030
-642.697	-131.007	-0.348	0.061
-641.682	99.519	0.248	0.381
-640.668	766.495	0.152	-0.549
-639.653	-42.225	-0.520	-0.350
-638.638	-44.407	0.086	-0.057
-637.624	-151.448	-0.381	-0.037
-636.609	30.405	0.345	-0.390
-635.595	-66.394	-0.281	0.147
-634.580	-94.692	0.408	0.146
-633.565	334.608	-0.212	-0.546
-632.551	-200.000	-0.008	0.112
-631.536	170.306	-0.251	0.476
-630.522	-48.398	-0.024	0.015
-629.507	-2.101	0.121	0.112
-628.492	-57.549	-0.116	0.067
-627.478	174.742	0.044	0.084
-626.463	-48.796	0.842	0.532
-625.449	-66.949	0.423	0.220
-624.434	141.009	-0.182	-0.319
-623.419	126.848	-0.183	-0.307
-622.405	338.550	0.264	-0.683
-621.390	126.524	0.037	-0.063
-620.376	-7.507	-0.196	0.175
-619.361	136.879	0.047	0.081
-618.346	-78.786	-0.533	0.239
-617.332	800.000	-0.198	-0.870
-616.317	-92.227	0.503	0.187
-615.303	193.436	-0.131	-0.262
-614.288	-102.512	-0.429	-0.135
-613.273	-200.000	0.008	-0.071
-612.259	196.599	0.210	-0.424
-611.244	-63.762	0.549	-0.296
-610.230	-109.684	-0.290	-0.080
-609.215	245.909	0.153	-0.342
-608.201	-71.878	-0.175	-0.086
-607.186	-96.820	0.112	-0.039
-606.171	-50.592	0.121	0.075
-605.157	-72.445	0.269	0.131
-604.142	479.612	-0.069	-0.206
-603.128	-63.293	0.513	-0.278
-602.113	-200.000	-0.045	-0.296
-601.098	-113.105	-0.225	-0.058
-600.084	-200.000	0.054	0.544
-599.069	230.186	0.088	-0.190
-598.055	-74.274	0.260	0.124
-597.040	-46.781	-0.407	0.262
-596.025	-125.565	-0.145	0.029
-595.011	-159.135	0.406	-0.030
-593.996	159.789	0.172	-0.317
-592.982	-171.000	-0.310	-0.014
-591.967	800.000	0.074	0.277
-590.952	-68.437	0.313	-0.160
-589.938	-111.093	-0.133	-0.036
-588.923	-121.009	0.491	0.108
-587.909	-200.000	-0.054	-0.499
-586.894	-110.368	-0.446	-0.122
-585.879	165.105	-0.219	0.410
-584.865	-200.000	-0.015	0.432
-583.850	-151.158	-0.025	-0.002
-582.836	-88.284	-0.320	-0.126
-581.821	81.372	0.327	-0.468
-580.806	236.626	-0.162	0.356
-579.792	-71.807	0.274	0.134
-578.777	172.583	-0.102	-0.193
-577.763	-200.000	-0.033	-0.633
-576.748	-182.338	0.111	-0.003
-575.733	62.539	-0.181	0.239
-574.719	254.949	-0.084	-0.190
-573.704	-86.815	-0.073	0.029
-572.690	-165.509	-0.551	0.031
-571.675	-134.153	-0.442	0.071
-570.661	-35.553	-0.191	0.136
-569.646	5.829	0.154	0.150
-568.631	-91.157	-0.389	-0.146
-567.617	800.000	-0.046	-0.184
-566.602	-138.393	-0.429	0.062
-565.588	-114.754	0.083	-0.021
-564.573	-200.000	-0.058	-0.366
-563.558	243.742	0.070	-0.155
-562.544	-63.338	0.355	0.192
-561.529	98.981	-0.147	0.224
-560.515	-82.362	0.098	-0.042
-559.500	-200.000	0.008	-0.065
-558.485	374.851	-0.060	-0.162
-557.471	113.733	0.146	0.235
-556.456	135.962	0.243	-0.419
-555.442	-200.000	-0.015	-0.206
-554.427	-133.045	0.351	0.058
-553.412	-185.168	0.295	0.006
-552.398	40.938	0.397	0.472
-551.383	-85.142	0.442	-0.182
-550.369	-151.027	0.433	0.042
-549.354	-57.717	-0.169	0.097
-548.339	-131.687	0.251	-0.043
-547.325	-161.561	-0.158	-0.011
-546.310	140.332	0.115	0.201
-545.296	-150.181	-0.694	0.070
-544.281	-153.415	-0.144	0.013
-543.266	-57.023	-0.064	-0.037
-542.252	91.508	0.057	0.084
-541.237	-77.183	0.273	0.125
-540.223	-54.341	0.209	0.125
-539.208	-200.000	0.033	-0.194
-538.193	-200.000	0.013	-0.076
-537.179	-54.284	0.387	0.231
-536.164	-6.438	-0.037	-0.033
-535.150	-71.933	0.180	0.088
-534.135	-115.496	0.409	0.101
-533.121	209.517	0.008	-0.017
-532.106	-103.128	-0.240	0.074
-531.091	36.812	-0.144	0.167
-530.077	410.329	0.069	0.194
-529.062	-52.264	0.121	0.073
-528.048	487.096	-0.117	0.353
-527.033	-169.623	0.259	0.012
-526.018	-121.262	0.457	0.100
-525.004	-108.831	-0.296	0.083
-523.989	-82.094	0.506	0.217
-522.975	146.627	0.137	0.244
-521.960	-32.081	-0.264	-0.194
-520.945	245.058	0.165	0.367
-519.931	-70.275	-0.151	0.075
-518.916	83.257	-0.223	-0.321
-517.902	80.726	-0.160	0.227
-516.887	-69.814	0.035	0.017
-515.872	73.849	0.129	-0.178
-514.858	190.085	0.193	0.382
-513.843	-102.401	-0.118	-0.037
-512.829	85.773	-0.216	0.313
-511.814	800.000	-0.086	-0.496
-510.799	357.204	-0.124	0.328
-509.785	-200.000	-0.068	0.531
-508.770	-200.000	-0.012	0.103
-507.756	-110.460	-0.513	0.139
-506.741	-3.554	0.233	0.213
-505.726	800.000	-0.088	-0.367
-504.712	-142.820	0.368	0.047
-503.697	-116.246	0.119	-0.029
-502.683	-104.399	0.053	-0.016
-501.668	-127.135	-0.643	-0.123
-500.653	-89.603	-0.500	-0.192
-499.639	-122.039	-0.567	0.122
-498.624	-68.152	-0.133	-0.068
-497.610	193.894	0.188	0.375
-496.595	-158.808	0.113	-0.008
-495.581	-92.501	0.214	0.079
-494.566	31.609	0.237	-0.268
-493.551	19.706	-0.151	-0.160
-492.537	165.410	-0.160	0.298
-491.522	-36.229	0.422	0.299
-490.508	434.340	-0.102	-0.292
-489.493	103.251	-0.142	0.220
-488.478	-118.393	0.236	-0.055
-487.464	-127.933	0.246	-0.046
-486.449	-36.554	0.138	0.097
-485.435	291.938	-0.039	-0.094
-484.420	-34.894	0.229	-0.164
-483.405	-41.920	-0.076	0.051
-482.391	-14.591	0.109	0.092
-481.376	16.611	0.267	-0.278
-480.362	-200.000	0.000	0.219
-479.347	322.183	0.065	-0.164
-478.332	411.652	0.052	-0.147
-477.318	-89.940	-0.170	0.065
-476.303	94.510	-0.039	-0.058
-475.289	-200.000	0.004	0.057
-474.274	-200.000	-0.081	0.557
-473.259	143.256	-0.148	0.260
-472.245	119.973	0.219	-0.358
-471.230	-200.000	-0.018	-0.242
-470.216	107.532	-0.072	0.112
-469.201	44.412	0.112	0.135
-468.186	-6.662	-0.357	0.319
-467.172	-200.000	0.035	-0.234
-466.157	-152.114	0.524	-0.049
-465.143	218.064	0.049	-0.103
-464.128	132.296	-0.115	-0.195
-463.113	21.584	-0.112	-0.120
-462.099	-200.000	0.013	0.208
-461.084	-116.827	-0.320	0.076
-460.070	-113.278	0.040	-0.010
-459.055	800.000	-0.077	-0.308
-458.040	127.316	-0.035	-0.058
-457.026	-200.000	0.005	-0.346
-456.011	-200.000	0.010	0.524
-454.997	-200.000	0.004	0.518
-453.982	-190.210	-0.186	0.003
-452.968	-20.269	0.097	0.078
-451.953	-155.866	-0.383	-0.032
-450.938	132.976	0.109	-0.185
-449.924	103.167	0.413	0.636
-448.909	-71.404	0.138	0.067
-447.895	44.775	0.362	-0.438
-446.880	27.522	0.183	-0.203
-445.865	-125.367	0.584	0.116
-444.851	674.178	0.099	-0.340
-443.836	-61.223	-0.338	0.186
-442.822	-200.000	-0.028	-0.297
-441.807	94.444	-0.171	-0.255
-440.792	-200.000	-0.016	0.133
-439.778	-82.661	0.265	-0.112
-438.763	320.562	0.158	0.395
-437.749	151.238	-0.097	-0.173
-436.734	-119.082	0.305	0.069
-435.719	98.277	0.389	-0.590
-434.705	-181.528	-0.537	0.013
-433.690	32.093	-0.191	-0.216
-432.676	-19.709	-0.069	-0.056
-431.661	-154.448	0.313	-0.027
-430.646	-70.947	-0.345	-0.170
-429.632	-41.106	-0.259	-0.175
-428.617	-42.039	-0.126	0.084
-427.603	205.851	0.184	-0.377
-426.588	-44.242	0.265	-0.174
-425.573	64.210	-0.058	-0.077
-424.559	-69.036	0.088	-0.044
-423.544	-200.000	0.021	-0.298
-422.530	-45.830	0.110	0.071
-421.515	-200.000	-0.012	-0.483
-420.500	320.867	-0.202	-0.506
-419.486	-148.247	0.293	0.031
-418.471	-56.225	-0.325	-0.189
-417.457	12.427	-0.149	-0.151
-416.442	180.294	-0.100	0.193
-415.428	-62.250	0.254	-0.138
-414.413	800.000	-0.012	-0.063
-413.398	219.812	-0.068	-0.144
-412.384	-60.858	-0.303	0.168
-411.369	-75.994	0.348	-0.161
-410.355	-151.341	0.566	0.055
-409.340	9.961	-0.145	0.144
-408.325	35.306	0.449	0.516
-407.311	22.851	0.178	-0.191
-406.296	-138.249	-0.493	0.071
-405.282	-94.113	-0.359	-0.128
-404.267	-200.000	0.007	-0.424
-403.252	-200.000	0.021	0.353
-402.238	5.671	-0.019	0.018
-401.223	84.412	0.094	0.135
-400.209	487.817	-0.156	-0.470
-399.194	34.361	0.142	0.163
-398.179	-26.134	0.273	-0.210
-397.165	-200.000	0.023	0.180
-396.150	241.688	0.118	0.258
-395.136	-8.175	0.427	-0.376
-394.121	-56.435	0.354	-0.205
-393.106	-200.000	-0.038	-0.452
-392.092	4.592	-0.503	0.484
-391.077	-113.184	-0.377	-0.097
-390.063	153.728	0.112	0.202
-389.048	74.584	0.331	0.457
-388.033	-200.000	-0.051	0.342
-387.019	-92.453	0.335	0.123
-386.004	-14.449	0.638	0.537
-384.990	-200.000	0.014	0.288
-383.975	18.080	-0.147	0.153
-382.960	-15.956	-0.129	0.107
-381.946	156.033	0.052	0.094
-380.931	80.629	-0.298	-0.422
-379.917	-34.256	-0.567	-0.407
-378.902	34.064	-0.204	-0.232
-377.888	-176.660	-0.284	0.009
-376.873	800.000	0.135	-0.532
-375.858	-123.084	0.728	-0.152
-374.844	33.569	0.301	0.342
-373.829	-200.000	0.059	0.558
-372.815	-7.588	-0.480	0.424
-371.800	-128.559	-0.161	-0.030
-370.785	-33.068	0.424	0.307
-369.771	-168.038	0.189	0.010
-368.756	-23.892	0.249	-0.195
-367.742	-169.090	0.176	-0.008
-366.727	-164.073	-0.394	0.024
-365.712	576.662	0.154	-0.495
-364.698	460.281	0.230	-0.675
-363.683	-130.291	-0.428	0.075
-362.669	134.280	-0.026	0.043
-361.654	-129.064	-0.360	0.065
-360.639	477.543	-0.199	0.591
-359.625	3.056	-0.480	0.457
-358.610	-24.978	-0.331	0.257
-357.596	-134.936	0.312	0.049
-356.581	15.407	-0.227	0.233
-355.566	-114.148	0.527	0.132
-354.552	-140.311	0.588	-0.080
-353.537	800.000	-0.078	-0.345
-352.523	29.138	-0.037	0.041
-351.508	-200.000	0.023	0.641
-350.493	146.060	0.107	0.188
-349.479	-101.200	-0.485	-0.154
-348.464	-62.822	-0.305	-0.165
-347.450	-43.772	0.296	-0.194
-346.435	-5.754	-0.256	-0.229
-345.420	800.000	0.083	-0.408
-344.406	-200.000	0.007	0.143
-343.391	-72.028	-0.345	-0.167
-342.377	497.107	0.172	-0.521
-341.362	133.450	-0.324	-0.548
-340.348	12.611	-0.200	-0.202
-339.333	-99.268	-0.053	0.017
-338.318	312.967	-0.102	-0.252
-337.304	-116.693	0.489	-0.116
-336.289	-200.000	0.068	-0.611
-335.275	-108.273	0.153	-0.043
-334.260	-1.948	0.117	-0.107
-333.245	513.064	-0.091	-0.280
-332.231	-167.655	-0.158	0.008
-331.216	-111.657	-0.394	0.104
-330.202	-200.000	-0.006	-0.177
-329.187	-66.836	-0.564	-0.290
-328.172	-200.000	-0.054	-0.494
-327.158	-75.717	0.048	0.022
-326.143	280.433	-0.045	0.104
-325.129	255.718	-0.004	-0.010
-324.114	-200.000	-0.002	-0.351
-323.099	-132.325	0.363	-0.061
-322.085	-200.000	-0.065	0.558
-321.070	354.133	0.170	0.442
-320.056	-41.360	-0.459	0.308
-319.041	-84.724	-0.246	-0.101
-318.026	-152.740	-0.214	-0.020
-317.012	12.314	-0.228	0.229
-315.997	-200.000	0.027	0.163
-314.983	-136.396	0.665	-0.100
-313.968	-13.558	0.151	-0.127
-312.953	-200.000	-0.078	0.502
-311.939	59.229	-0.288	0.371
-310.924	385.453	0.036	0.096
-309.910	-1.769	-0.156	0.144
-308.895	-120.294	-0.051	0.011
-307.880	118.559	-0.202	0.326
-306.866	-123.653	0.270	0.055
-305.851	-100.730	-0.721	-0.231
-304.837	-57.715	-0.298	0.170
-303.822	-24.861	-0.287	0.223
-302.807	32.247	0.203	-0.229
-301.793	-47.700	0.232	0.146
-300.778	-200.000	-0.083	0.536
-299.764	-161.430	0.169	-0.011
-298.749	60.748	-0.186	-0.241
-297.735	20.365	0.308	0.325
-296.720	174.669	-0.176	-0.334
-295.705	-32.549	0.374	-0.271
-294.691	-71.542	-0.252	-0.123
-293.676	260.494	-0.226	0.512
-292.662	360.392	0.061	0.159
-291.647	800.000	-0.011	-0.047
-290.632	-13.241	-0.416	0.352
-289.618	-64.561	-0.183	-0.096
-288.603	-62.593	-0.104	-0.056
-287.589	-142.920	-0.468	-0.059
-286.574	800.000	0.115	0.434
-285.559	236.545	0.053	0.114
-284.545	-200.000	0.467	0.003
-283.530	-183.253	0.822	0.018
-282.516	-200.000	0.047	0.398
-281.501	-200.000	-0.004	-0.073
-280.486	278.534	0.184	-0.430
-279.472	-152.536	0.152	0.014
-278.457	-78.532	-0.149	0.066
-277.443	-200.000	0.016	-0.490
-276.428	117.837	-0.188	-0.303
-275.413	229.969	-0.029	0.062
-274.399	-11.779	-0.215	0.184
-273.384	-8.745	0.077	0.067
-272.370	150.535	-0.228	0.405
-271.355	-104.222	-0.252	0.076
-270.340	-57.437	0.379	0.216
-269.326	-69.749	-0.093	-0.046
-268.311	-85.294	0.445	0.180
-267.297	52.206	-0.126	0.157
-266.282	56.490	0.121	0.153
-265.267	-168.184	0.291	0.014
-264.253	-200.000	0.064	-0.578
-263.238	34.171	0.222	0.252
-262.224	94.014	0.245	-0.363
-261.209	-200.000	0.000	0.067
-260.195	-108.523	0.415	-0.115
-259.180	493.151	0.165	-0.497
-258.165	-41.859	0.298	0.199
-257.151	463.243	-0.102	0.298
-256.136	71.311	-0.281	0.380
-255.122	616.511	0.082	0.268
-254.107	-40.246	0.371	0.251
-253.092	800.000	-0.008	-0.041
-252.078	-165.606	-0.039	-0.002
-251.063	-105.372	-0.472	0.139
-250.049	-200.000	-0.013	0.093
-249.034	716.374	-0.138	-0.479
-248.019	168.306	-0.277	-0.515
-247.005	-200.000	-0.022	-0.173
-245.990	-143.237	0.380	0.047
-244.976	-95.073	0.521	0.182
-243.961	756.738	-0.061	0.218
-242.946	-52.962	0.458	0.274
-241.932	-79.485	0.216	0.095
-240.917	-0.182	-0.303	-0.281
-239.903	80.771	0.085	-0.119
-238.888	21.542	-0.215	0.228
-237.873	-133.413	-0.365	-0.059
-236.859	68.635	-0.258	0.346
-235.844	-131.185	-0.416	-0.071
-234.830	-200.000	0.037	0.321
-233.815	-102.027	0.217	0.068
-232.800	-119.157	-0.223	-0.050
-231.786	-58.734	0.093	-0.052
-230.771	667.694	-0.126	0.427
-229.757	42.880	0.236	0.280
-228.742	-200.000	0.041	0.289
-227.727	-200.000	0.003	-0.194
-226.713	538.621	-0.159	-0.494
-225.698	-200.000	-0.055	-0.458
-224.684	-125.391	0.219	0.043
-223.669	-200.000	-0.027	0.614
-222.655	-81.040	0.167	0.072
-221.640	122.247	0.217	-0.353
-220.625	613.656	-0.099	-0.325
-219.611	-101.835	0.248	0.078
-218.596	102.526	0.236	-0.360
-217.582	-16.312	-0.104	-0.086
-216.567	-41.648	-0.378	0.252
-215.552	-164.918	0.489	-0.028
-214.538	22.745	0.118	-0.126
-213.523	800.000	0.034	-0.159
-212.509	-128.005	-0.040	0.007
-211.494	122.363	-0.203	0.331
-210.479	-103.787	-0.272	0.082
-209.465	-39.662	0.073	-0.049
-208.450	405.666	-0.188	-0.518
-207.436	423.488	0.067	-0.189
-206.421	176.656	-0.069	0.132
-205.406	-34.243	-0.201	-0.143
-204.392	800.000	0.055	0.246
-203.377	248.791	0.127	-0.280
-202.363	-200.000	0.008	0.079
-201.348	381.810	0.106	-0.285
-200.333	41.552	-0.187	0.220
-199.319	-85.251	-0.228	0.092
-198.304	-200.000	0.082	-0.516
-197.290	-97.004	0.439	-0.149
-196.275	-6.904	-0.038	0.034
-195.260	-200.000	-0.003	0.584
-194.246	160.315	-0.005	0.009
-193.231	-200.000	-0.012	0.101
-192.217	-22.896	-0.339	0.265
-191.202	-131.725	-0.209	-0.035
-190.187	800.000	0.022	0.116
-189.173	-144.482	-0.458	0.054
-188.158	-177.969	-0.568	-0.017
-187.144	-109.842	-0.029	-0.008
-186.129	141.971	-0.075	0.129
-185.114	8.843	0.367	-0.360
-184.100	74.488	-0.120	0.165
-183.085	-65.636	0.136	-0.071
-182.071	491.208	0.182	-0.544
-181.056	-200.000	-0.082	0.500
-180.042	-18.042	0.469	0.381
-179.027	-39.834	0.262	0.177
-178.012	185.007	-0.144	0.279
-176.998	-2.045	-0.460	0.420
-175.983	331.473	0.021	-0.053
-174.969	800.000	0.027	-0.105
-173.954	-100.445	-0.227	0.072
-172.939	248.523	-0.240	0.529
-171.925	800.000	0.081	0.436
-170.910	140.119	-0.171	0.294
-169.896	-200.000	-0.036	-0.364
-168.881	-135.455	-0.291	0.045
-167.866	-120.419	-0.652	0.143
-166.852	-200.000	-0.001	0.127
-165.837	-200.000	-0.013	0.124
-164.823	261.543	-0.146	-0.329
-163.808	-51.502	0.787	-0.476
-162.793	444.656	-0.112	0.321
-161.779	175.310	-0.055	0.103
-160.764	346.848	-0.146	-0.375
-159.750	178.206	0.057	-0.109
-158.735	-9.494	0.257	-0.223
-157.720	-90.039	-0.098	-0.037
-156.706	-200.000	-0.019	-0.177
-155.691	-186.798	0.194	-0.003
-154.677	116.444	-0.192	-0.307
-153.662	70.994	-0.206	-0.278
-152.647	-40.197	0.265	-0.178
-151.633	-41.944	-0.240	0.159
-150.618	-101.016	-0.151	-0.048
-149.604	225.182	0.092	0.194
-148.589	-59.645	-0.279	0.155
-147.574	-81.173	0.255	0.109
-146.560	71.950	-0.120	0.162
-145.545	-200.000	-0.034	-0.311
-144.531	18.431	0.268	-0.278
-143.516	599.043	-0.090	0.293
-142.502	-140.689	0.337	0.045
-141.487	337.883	0.180	0.455
-140.472	-161.912	0.284	0.018
-139.458	195.448	-0.108	-0.213
-138.443	-200.000	0.011	-0.212
-137.429	172.747	0.224	-0.420
-136.414	-71.953	-0.296	0.142
-135.399	-106.991	0.191	-0.055
-134.385	216.883	0.046	-0.095
-133.370	-50.669	-0.105	-0.064
-132.356	-91.700	-0.195	-0.072
-131.341	-23.703	0.200	-0.155
-130.326	-37.321	0.278	-0.192
-129.312	-43.347	-0.225	-0.147
-128.297	-196.267	-0.042	-0.000
-127.283	64.387	-0.220	0.288
-126.268	293.353	0.254	0.604
-125.253	-135.939	0.343	0.052
-124.239	61.533	-0.130	-0.167
-123.224	-200.000	-0.022	-0.460
-122.210	163.456	-0.144	0.263
-121.195	-200.000	0.005	-0.209
-120.180	-52.383	-0.152	-0.091
-119.166	-200.000	0.036	-0.290
-118.151	-110.276	-0.267	-0.072
-117.137	29.961	-0.235	0.259
-116.122	251.786	0.143	0.316
-115.107	-28.599	0.216	-0.161
-114.093	6.577	-0.189	0.182
-113.078	189.220	-0.206	-0.401
-112.064	-200.000	0.017	-0.672
-111.049	-8.327	-0.091	-0.079
-110.034	-62.627	0.322	-0.172
-109.020	-96.303	-0.305	0.104
-108.005	-113.013	-0.220	-0.056
-106.991	-200.000	0.077	-0.457
-105.976	211.727	0.236	0.483
-104.962	-94.092	0.400	-0.141
-103.947	800.000	-0.079	0.317
-102.932	-118.810	-0.186	0.042
-101.918	800.000	0.080	0.384
-100.903	-184.693	0.340	0.007
-99.889	769.435	0.123	-0.435
-98.874	-200.000	0.000	-0.031
-97.859	800.000	-0.021	0.109
-96.845	301.224	0.128	0.308
-95.830	-43.807	0.311	0.202
-94.816	33.733	-0.199	0.224
-93.801	386.578	-0.272	0.731
-92.786	-97.636	-0.334	-0.111
-91.772	132.539	0.018	-0.031
-90.757	-139.607	-0.571	-0.078
-89.743	-63.309	0.158	0.084
-88.728	-70.492	0.442	0.216
-87.713	9.306	-0.167	0.163
-86.699	113.820	-0.224	-0.354
-85.684	37.651	-0.436	-0.501
-84.670	-166.069	0.164	-0.009
-83.655	-200.000	-0.023	0.280
-82.640	-63.079	-0.326	0.174
-81.626	415.391	-0.142	-0.393
-80.611	-28.601	-0.351	-0.261
-79.597	-200.000	-0.006	-0.332
-78.582	800.000	0.025	-0.096
-77.567	-86.853	-0.480	0.189
-76.553	12.623	-0.370	0.370
-75.538	-94.658	0.443	0.155
-74.524	-119.055	-0.751	0.169
-73.509	281.080	-0.114	-0.266
-72.494	2.903	0.064	-0.060
-71.480	-48.171	-0.367	0.229
-70.465	-200.000	-0.004	-0.198
-69.451	-195.117	0.099	0.001
-68.436	12.858	0.370	0.370
-67.422	-84.073	0.371	0.151
-66.407	-8.747	0.276	-0.239
-65.392	-141.903	0.261	-0.033
-64.378	73.360	-0.057	-0.078
-63.363	-18.760	0.543	-0.437
-62.349	-10.192	-0.167	-0.143
-61.334	35.982	-2.218	-2.525
-60.319	80.820	0.982	1.371
-59.305	245.486	-3.486	-7.617
-58.290	59.242	3.910	4.983
-57.276	334.847	4.054	10.200
-56.261	-200.000	24.464	319.272
-55.246	352.063	1307.620	3365.349
-54.232	52.468	2849.530	3519.828
-53.217	51.097	2660.600	3265.111
-52.203	31.295	2390.368	2654.077
-51.188	27.519	2057.045	2237.381
-50.173	24.251	1943.461	2075.565
-49.159	23.123	1932.004	2050.116
-48.144	22.699	1927.138	2039.947
-47.130	22.626	1924.375	2036.095
-46.115	22.557	1922.399	2033.118
-45.100	22.431	1922.057	2031.222
-44.086	22.533	1919.251	2029.353
-43.071	22.555	1918.146	2028.356
-42.057	22.444	1916.850	2025.626
-41.042	22.410	1915.452	2023.670
-40.027	22.547	1913.648	2023.273
-39.013	22.488	1912.590	2021.388
-37.998	22.435	1911.051	2019.068
-36.984	22.470	1910.350	2018.659
-35.969	22.599	1908.239	2017.829
-34.954	22.456	1907.827	2015.662
-33.940	22.427	1906.526	2013.874
-32.925	22.289	1905.118	2010.721
-31.911	22.395	1903.465	2010.116
-30.896	22.481	1902.306	2009.807
-29.881	22.489	1900.925	2008.357
-28.867	22.411	1899.412	2005.783
-27.852	22.380	1897.753	2003.592
-26.838	22.318	1896.192	2001.157
-25.823	22.230	1896.223	2000.107
-24.809	22.345	1893.887	1998.878
-23.794	22.431	1892.214	1998.010
-22.779	22.298	1890.655	1994.767
-21.765	22.287	1890.253	1994.143
-20.750	22.270	1889.769	1993.359
-19.736	22.187	1888.706	1991.213
-18.721	22.282	1887.580	1991.027
-17.706	22.207	1886.999	1989.485
-16.692	22.220	1884.473	1986.888
-15.677	22.275	1884.251	1987.201
-14.663	22.173	1882.855	1984.490
-13.648	22.222	1881.148	1983.167
-12.633	22.234	1879.751	1981.756
-11.619	22.153	1878.969	1979.933
-10.604	22.204	1877.578	1978.965
-9.590	22.297	1875.999	1978.272
-8.575	22.158	1874.628	1975.178
-7.560	22.185	1873.220	1973.918
-6.546	22.305	1871.908	1973.816
-5.531	22.231	1871.658	1972.638
-4.517	22.141	1870.264	1970.081
-3.502	22.183	1869.310	1969.472
-2.487	22.332	1868.169	1969.863
-1.473	22.309	1864.238	1965.389
-0.458	22.068	1846.635	1944.069
0.556	18.804	1993.078	2046.945
1.571	17.369	2196.421	2236.552
2.586	18.217	2234.642	2286.598
3.600	18.171	2238.304	2289.446
4.615	18.277	2237.354	2289.630
5.629	18.146	2235.562	2285.759
6.644	18.311	2233.637	2285.738
7.659	18.154	2231.217	2280.878
8.673	18.212	2228.328	2278.429
9.688	17.959	2237.993	2284.634
10.702	17.099	2318.360	2354.412
11.717	15.558	2382.999	2397.679
12.731	7.324	2363.359	2260.048
13.746	0.984	2347.613	2154.272
14.761	0.287	2343.372	2140.171
15.775	0.203	2341.454	2136.958
16.790	0.082	2340.065	2133.720
17.804	0.133	2338.730	2132.972
18.819	0.042	2337.283	2130.103
19.834	-0.011	2336.884	2128.722
20.848	-0.035	2334.935	2126.351
21.863	0.047	2332.425	2124.976
22.877	0.043	2331.218	2123.564
23.892	0.140	2328.036	2121.784
24.907	0.077	2326.234	2119.003
25.921	-0.002	2325.026	2116.535
26.936	0.052	2322.511	2114.750
27.950	0.018	2319.821	2111.561
28.965	0.049	2318.118	2110.207
29.980	0.061	2316.386	2108.536
30.994	0.095	2314.305	2106.873
32.009	4.020	2325.331	2172.083
33.023	13.262	2351.986	2328.053
34.038	17.204	2359.369	2390.948
35.053	17.619	2356.543	2393.660
36.067	17.604	2355.509	2392.120
37.082	17.556	2352.543	2388.140
38.096	17.596	2350.287	2386.125
39.111	17.720	2348.542	2385.817
40.126	17.819	2346.417	2384.766
41.140	17.966	2345.071	2385.168
42.155	17.824	2343.239	2381.035
43.169	17.850	2341.333	2379.181
44.184	17.801	2337.443	2374.250
45.199	17.787	2335.470	2371.773
46.213	17.808	2335.424	2371.728
47.228	17.945	2335.012	2372.942
48.242	17.985	2332.192	2370.356
49.257	17.986	2330.287	2368.152
50.271	17.915	2327.908	2364.458
51.286	17.806	2324.958	2359.655
52.301	17.628	2324.018	2355.945
53.315	18.099	2325.766	2363.983
54.330	19.902	2330.660	2393.773
55.344	21.192	2329.626	2410.326
56.359	21.377	2326.668	2409.544
57.374	21.507	2325.938	2410.310
58.388	21.664	2323.325	2409.474
59.403	21.552	2319.260	2403.432
60.417	21.437	2316.178	2398.363
61.432	21.372	2316.576	2397.595
62.447	21.717	2313.761	2399.136
63.461	21.857	2312.472	2399.434
64.476	21.978	2309.118	2397.338
65.490	21.618	2308.713	2391.691
66.505	21.119	2305.172	2380.885
67.520	19.589	2298.774	2353.065
68.534	17.965	2292.777	2324.438
69.549	17.775	2288.550	2317.284
70.563	17.779	2286.294	2314.771
71.578	17.763	2284.371	2312.328
72.593	17.769	2282.981	2310.727
73.607	17.911	2282.557	2311.956
74.622	17.940	2281.004	2310.504
75.636	17.838	2276.798	2304.585
76.651	17.704	2274.869	2300.534
77.666	17.753	2273.807	2299.854
78.680	17.812	2271.219	2297.753
79.695	17.828	2269.675	2296.138
80.709	17.725	2268.556	2293.343
81.724	17.784	2265.950	2291.223
82.739	17.787	2263.506	2288.522
83.753	17.677	2260.312	2283.529
84.768	17.591	2259.400	2281.177
85.782	17.538	2258.694	2279.481
86.797	17.545	2256.702	2277.289
87.812	17.616	2254.102	2275.348
88.826	17.785	2251.354	2274.574
89.841	17.670	2250.059	2271.450
90.855	17.706	2247.252	2268.820
91.870	17.653	2246.017	2266.604
92.884	17.622	2244.561	2264.439
93.899	17.701	2243.052	2263.707
94.914	18.168	2243.919	2270.537
95.928	19.671	2249.137	2295.635
96.943	20.256	2247.134	2301.120
97.957	18.616	2240.030	2271.756
98.972	17.688	2235.119	2254.182
99.987	17.550	2231.186	2248.107
101.001	17.613	2228.797	2246.262
102.016	17.694	2226.784	2245.040
103.030	17.667	2225.278	2242.898
104.045	17.662	2223.440	2240.705
105.060	17.682	2221.203	2238.457
106.074	17.670	2219.313	2236.120
107.089	17.694	2217.543	2234.391
108.103	17.666	2217.382	2233.586
109.118	17.776	2215.532	2232.900
110.133	17.749	2213.927	2230.660
111.147	17.792	2210.557	2227.562
112.162	17.822	2209.644	2226.770
113.176	17.870	2207.228	2224.708
114.191	17.841	2205.877	2222.697
115.206	17.925	2204.051	2221.684
116.220	17.764	2202.225	2217.475
117.235	17.754	2200.743	2215.593
118.249	17.669	2198.601	2212.061
119.264	17.709	2196.212	2209.910
120.279	17.902	2195.781	2211.725
121.293	17.816	2192.805	2207.346
122.308	17.654	2192.491	2204.657
123.322	17.769	2190.718	2204.106
124.337	18.209	2191.307	2210.154
125.352	19.899	2196.757	2237.356
126.366	20.197	2193.575	2237.716
127.381	18.405	2185.958	2206.506
128.395	17.709	2182.470	2193.718
129.410	17.678	2180.202	2190.776
130.424	17.686	2178.420	2188.828
131.439	17.603	2176.393	2185.461
132.454	17.647	2175.128	2184.495
133.468	17.810	2171.456	2182.638
134.483	17.842	2171.419	2182.745
135.497	17.806	2170.289	2180.888
136.512	17.886	2167.059	2178.412
137.527	17.753	2165.126	2174.496
138.541	17.566	2164.598	2171.319
139.556	17.494	2164.702	2170.238
140.570	17.577	2162.486	2168.814
141.585	17.624	2160.439	2167.110
142.600	17.641	2159.203	2165.820
143.614	17.575	2157.382	2162.901
144.629	17.676	2155.815	2162.356
145.643	17.733	2153.200	2160.203
146.658	17.647	2152.474	2158.115
147.673	17.592	2150.485	2155.170
148.687	17.748	2149.409	2155.814
149.702	17.807	2148.384	2155.272
150.716	17.737	2146.213	2151.950
151.731	17.705	2145.051	2150.122
152.746	17.732	2143.824	2148.974
153.760	18.102	2145.788	2155.382
154.775	19.918	2150.029	2182.417
155.789	20.492	2147.720	2187.072
156.804	18.671	2139.851	2155.827
157.819	17.700	2134.099	2137.541
158.833	17.801	2131.595	2136.052
159.848	17.724	2130.571	2133.805
160.862	17.683	2129.050	2131.502
161.877	17.834	2127.539	2131.632
162.892	17.791	2126.842	2130.136
163.906	17.724	2125.076	2127.276
164.921	17.638	2124.041	2124.908
165.935	17.868	2121.397	2124.884
166.950	17.973	2119.717	2124.269
167.964	17.904	2117.028	2120.451
168.979	17.817	2116.008	2118.094
169.994	17.692	2114.842	2115.115
171.008	17.791	2112.985	2114.238
172.023	17.761	2111.669	2112.289
173.037	17.879	2109.731	2111.569
174.052	17.852	2108.508	2109.757
175.067	17.754	2106.934	2106.716
176.081	17.644	2105.401	2103.562
177.096	17.638	2104.048	2101.884
178.110	17.678	2102.316	2100.400
179.125	17.743	2100.866	2099.504
180.140	17.741	2098.829	2097.192
181.154	17.788	2098.405	2097.100
182.169	17.760	2097.230	2095.329
183.183	18.150	2098.350	2101.004
184.198	20.159	2102.941	2130.189
185.213	20.536	2100.648	2132.269
186.227	18.617	2092.833	2100.480
187.242	17.789	2090.425	2087.636
188.256	17.709	2088.118	2084.096
189.271	17.731	2086.760	2082.760
190.286	17.748	2085.286	2081.247
191.300	17.742	2083.025	2078.665
192.315	17.623	2081.804	2075.752
193.329	17.771	2079.908	2075.415
194.344	17.985	2078.724	2076.601
195.359	17.972	2078.210	2075.685
196.373	17.893	2075.066	2071.334
197.388	17.863	2071.913	2067.569
198.402	17.729	2070.463	2064.247
199.417	17.634	2068.275	2060.661
200.432	17.679	2067.810	2060.499
201.446	17.819	2066.766	2060.916
202.461	17.724	2065.269	2058.022
203.475	17.722	2062.460	2054.946
204.490	17.646	2060.829	2052.159
205.504	17.721	2058.445	2050.447
206.519	17.685	2056.545	2047.871
207.534	17.634	2055.495	2045.968
208.548	17.668	2054.321	2044.965
209.563	17.744	2052.454	2043.781
210.577	17.658	2051.029	2041.083
211.592	17.755	2050.200	2041.181
212.607	18.588	2054.930	2055.674
213.621	20.974	2059.119	2088.385
214.636	20.317	2053.288	2074.329
215.650	18.227	2046.390	2042.066
216.665	17.763	2042.786	2032.677
217.680	17.815	2040.872	2031.148
218.694	17.791	2039.845	2029.592
219.709	17.698	2039.479	2027.877
220.723	17.756	2038.366	2027.220
221.738	17.880	2036.295	2026.400
222.753	17.893	2033.324	2023.354
223.767	17.847	2032.222	2021.462
224.782	17.726	2030.274	2017.851
225.796	17.902	2028.501	2017.934
226.811	17.834	2027.374	2015.767
227.826	17.740	2026.402	2013.442
228.840	17.820	2024.135	2011.898
229.855	17.840	2022.740	2010.502
230.869	17.922	2021.799	2010.303
231.884	17.712	2020.275	2006.061
232.899	17.785	2018.591	2005.014
233.913	17.588	2017.859	2001.714
234.928	17.745	2015.857	2001.344
235.942	17.730	2015.497	2000.569
236.957	17.802	2012.735	1998.431
237.972	17.642	2012.047	1995.628
238.986	17.883	2009.936	1996.125
240.001	17.847	2008.991	1994.525
241.015	17.696	2008.346	1991.873
242.030	18.131	2009.508	1997.896
243.045	20.037	2010.972	2021.493
244.059	20.133	2008.875	2020.271
245.074	18.357	2002.428	1992.788
246.088	17.876	1998.690	1983.221
247.103	17.865	1998.336	1982.502
248.117	17.857	1996.320	1980.163
249.132	17.827	1993.786	1977.066
250.147	17.746	1993.156	1975.266
251.161	17.755	1991.407	1973.399
252.176	17.927	1990.372	1974.140
253.190	18.196	1987.152	1973.825
254.205	18.044	1986.027	1970.715
255.220	18.090	1985.070	1970.053
256.234	18.150	1984.177	1969.631
257.249	17.932	1982.940	1965.641
258.263	17.904	1981.510	1963.668
259.278	17.980	1980.298	1963.108
260.293	17.807	1979.452	1960.034
261.307	17.745	1976.567	1956.228
262.322	17.780	1974.679	1954.529
263.336	17.667	1973.353	1951.681
264.351	17.703	1971.588	1950.118
265.366	17.736	1970.481	1949.173
266.380	17.709	1968.658	1946.831
267.395	17.606	1967.670	1944.430
268.409	17.506	1965.926	1941.336
269.424	17.666	1964.937	1941.952
270.439	17.813	1964.509	1942.982
271.453	18.415	1965.092	1950.219
272.468	20.068	1968.569	1972.363
273.482	20.253	1965.627	1971.292
274.497	18.558	1957.178	1943.297
275.512	17.704	1954.633	1930.818
276.526	17.728	1952.826	1929.076
277.541	17.642	1951.244	1926.308
278.555	17.750	1948.836	1924.919
279.570	17.606	1947.051	1921.300
280.585	17.668	1945.832	1920.562
281.599	17.764	1944.195	1919.803
282.614	17.641	1944.226	1918.219
283.628	17.779	1942.625	1917.960
284.643	17.977	1941.289	1918.657
285.657	18.068	1940.340	1918.511
286.672	18.170	1939.404	1918.511
287.687	18.030	1937.170	1914.492
288.701	17.924	1936.986	1912.883
289.716	17.927	1935.086	1910.810
290.730	17.968	1933.535	1909.517
291.745	17.846	1931.061	1905.474
292.760	17.829	1930.381	1904.380
293.774	17.769	1930.423	1903.520
294.789	17.832	1928.322	1901.924
295.803	17.755	1926.164	1898.707
296.818	17.810	1925.179	1898.126
297.833	17.733	1924.207	1896.083
298.847	17.848	1923.103	1896.055
299.862	17.827	1921.026	1893.543
300.876	18.295	1920.844	1898.356
301.891	20.257	1925.055	1924.189
302.906	20.619	1922.904	1925.833
303.920	18.634	1917.153	1897.800
304.935	17.805	1913.420	1884.678
305.949	17.732	1911.041	1881.290
306.964	17.890	1909.369	1881.169
307.979	17.972	1908.848	1881.345
308.993	18.085	1907.372	1880.911
310.008	18.102	1905.668	1879.196
311.022	18.174	1904.501	1878.610
312.037	17.914	1903.234	1874.268
313.052	17.944	1901.229	1872.401
314.066	17.997	1900.191	1871.741
315.081	18.117	1898.726	1871.397
316.095	18.088	1897.072	1869.219
317.110	17.964	1895.376	1865.963
318.125	17.986	1894.611	1865.226
319.139	17.970	1893.043	1863.290
320.154	17.954	1891.510	1861.376
321.168	17.930	1890.181	1859.589
322.183	17.964	1888.266	1857.855
323.197	17.724	1886.919	1853.681
324.212	17.766	1884.108	1851.160
325.227	17.608	1883.477	1848.596
326.241	17.674	1881.820	1847.468
327.256	17.804	1880.428	1847.290
328.270	17.676	1880.346	1845.595
329.285	17.846	1879.360	1846.256
330.300	18.404	1882.200	1854.901
331.314	20.572	1885.392	1881.435
332.329	20.429	1880.751	1875.023
333.343	18.443	1873.903	1846.485
334.358	17.908	1871.454	1838.060
335.373	17.839	1869.914	1835.584
336.387	17.523	1868.366	1830.424
337.402	17.726	1865.844	1829.925
338.416	17.793	1864.552	1829.165
339.431	17.704	1863.534	1826.984
340.446	17.775	1861.815	1825.848
341.460	17.858	1861.018	1825.739
342.475	18.051	1859.401	1826.005
343.489	18.078	1857.455	1824.170
344.504	18.045	1857.355	1823.492
345.519	18.018	1855.579	1821.242
346.533	17.971	1854.166	1819.143
347.548	18.192	1852.608	1819.753
348.562	17.961	1851.838	1816.313
349.577	18.182	1850.743	1817.384
350.592	18.072	1849.392	1814.664
351.606	18.155	1848.475	1814.427
352.621	18.247	1846.477	1813.233
353.635	17.972	1845.086	1808.718
354.650	17.860	1843.492	1805.758
355.665	17.837	1841.087	1802.937
356.679	17.824	1840.199	1801.717
357.694	17.845	1838.945	1800.489
358.708	17.760	1838.336	1798.781
359.723	18.672	1840.492	1810.348
360.738	20.629	1842.770	1833.125
361.752	19.970	1839.104	1822.285
362.767	18.290	1833.030	1798.328
363.781	17.673	1830.486	1789.111
364.796	17.749	1829.715	1788.946
365.810	17.671	1828.467	1786.685
366.825	17.800	1826.895	1786.291
367.840	17.907	1825.903	1786.235
368.854	17.956	1825.069	1785.718
369.869	17.771	1823.239	1781.775
370.883	17.589	1822.221	1778.651
371.898	17.584	1820.266	1776.477
372.913	17.781	1819.028	1777.124
373.927	17.790	1817.967	1775.967
374.942	17.830	1817.516	1775.738
375.956	17.866	1815.505	1773.936
376.971	17.724	1814.001	1770.766
377.986	17.665	1812.196	1768.180
379.000	17.802	1810.576	1767.812
380.015	17.999	1809.945	1769.035
381.029	17.828	1807.207	1764.375
382.044	17.858	1805.586	1762.895
383.059	17.845	1804.652	1761.635
384.073	17.793	1803.192	1759.462
385.088	17.639	1802.571	1757.047
386.102	17.745	1799.735	1755.164
387.117	17.635	1798.254	1752.375
388.132	17.596	1798.258	1751.761
389.146	18.291	1801.091	1761.512
390.161	20.492	1804.070	1786.991
391.175	20.248	1798.137	1778.381
392.190	18.364	1790.780	1751.543
393.205	17.808	1788.155	1743.057
394.219	17.755	1786.889	1741.071
395.234	17.789	1785.690	1740.043
396.248	17.785	1784.511	1738.643
397.263	17.830	1781.990	1736.443
398.278	17.787	1779.900	1733.755
399.292	17.732	1779.969	1733.058
400.307	17.896	1779.575	1734.135
401.321	17.825	1778.719	1732.369
402.336	17.848	1776.720	1730.457
403.350	17.981	1774.846	1729.776
404.365	18.027	1774.749	1729.943
405.380	18.321	1773.490	1731.495
406.394	18.334	1772.712	1730.660
407.409	18.143	1771.846	1727.665
408.423	18.199	1769.989	1726.222
409.438	18.088	1767.925	1722.880
410.453	18.058	1765.851	1720.346
411.467	18.187	1766.017	1721.607
412.482	18.228	1764.098	1719.949
413.496	17.945	1762.712	1715.529
414.511	17.818	1760.398	1711.788
415.526	17.879	1758.328	1710.188
416.540	17.728	1757.399	1707.557
417.555	17.800	1756.588	1707.296
418.569	17.729	1756.448	1706.242
419.584	18.035	1755.583	1708.271
420.599	17.815	1755.538	1705.808
421.613	17.711	1754.430	1703.483
422.628	17.719	1753.167	1702.133
423.642	17.924	1750.882	1701.766
424.657	17.818	1749.629	1699.282
425.672	17.765	1748.042	1697.013
426.686	17.865	1746.788	1696.584
427.701	17.929	1744.494	1694.790
428.715	17.995	1743.298	1694.092
429.730	17.939	1742.173	1692.230
430.745	17.971	1740.827	1691.040
431.759	17.785	1741.243	1689.393
432.774	17.981	1740.404	1690.327
433.788	18.028	1740.360	1690.543
434.803	18.115	1739.001	1689.885
435.818	18.109	1738.138	1688.789
436.832	17.896	1737.281	1685.637
437.847	17.009	1730.448	1670.033
438.861	9.319	1709.813	1574.486
439.876	1.788	1695.299	1487.239
440.890	0.404	1691.714	1470.355
441.905	0.325	1690.684	1468.512
442.920	0.169	1689.368	1465.665
443.934	0.225	1688.231	1465.050
444.949	0.272	1686.865	1464.151
445.963	0.166	1686.803	1462.889
446.978	-0.002	1686.050	1460.413
447.993	0.106	1684.501	1459.948
449.007	0.138	1681.888	1457.826
450.022	0.265	1680.053	1457.294
451.036	0.144	1679.394	1455.369
452.051	1.227	1683.072	1468.924
453.066	8.918	1699.867	1558.789
454.080	16.238	1711.117	1640.692
455.095	17.639	1712.772	1655.771
456.109	17.801	1712.893	1657.276
457.124	17.787	1711.852	1655.927
458.139	17.777	1711.026	1654.836
459.153	17.910	1709.811	1654.757
460.168	17.801	1708.808	1652.523
461.182	17.839	1706.969	1650.925
462.197	17.926	1704.893	1649.561
463.212	17.945	1702.683	1647.411
464.226	17.908	1701.712	1645.913
465.241	17.863	1700.875	1644.476
466.255	17.864	1700.384	1643.807
467.270	17.957	1698.524	1642.709
468.285	17.939	1697.221	1641.082
469.299	17.926	1695.603	1639.193
470.314	17.999	1693.331	1637.510
471.328	17.948	1692.469	1635.991
472.343	17.870	1692.556	1635.119
473.358	17.837	1691.473	1633.563
474.372	17.978	1689.302	1632.630
475.387	17.880	1688.203	1630.427
476.401	17.920	1686.732	1629.200
477.416	17.895	1685.568	1627.635
478.430	17.930	1684.314	1626.567
479.445	17.905	1682.351	1624.238
480.460	17.736	1682.100	1622.186
481.474	17.791	1680.698	1621.167
482.489	17.989	1679.384	1621.590
483.503	17.902	1677.862	1619.101
484.518	17.945	1677.634	1619.099
485.533	17.933	1675.890	1617.106
486.547	17.937	1674.349	1615.460
487.562	17.996	1673.326	1614.839
488.576	17.968	1671.695	1612.809
489.591	17.873	1670.953	1611.002
490.606	17.887	1669.156	1609.209
491.620	18.033	1666.943	1608.265
492.635	18.060	1665.631	1607.055
493.649	17.983	1665.012	1605.542
494.664	17.883	1664.672	1604.079
495.679	17.757	1662.582	1600.680
496.693	17.790	1661.087	1599.365
497.708	17.839	1660.103	1598.687
498.722	17.927	1659.386	1598.630
499.737	17.966	1657.272	1596.766
500.752	17.958	1655.702	1594.994
501.766	17.927	1654.474	1593.329
502.781	17.801	1653.049	1590.585
503.795	17.953	1651.414	1590.241
504.810	17.902	1650.343	1588.546
505.825	17.987	1649.969	1588.786
506.839	18.025	1647.840	1586.896
507.854	18.076	1647.219	1586.587
508.868	18.038	1645.435	1584.331
509.883	17.979	1645.114	1583.275
510.898	17.985	1644.236	1582.301
511.912	18.067	1642.118	1580.835
512.927	17.843	1639.844	1576.373
513.941	17.904	1638.783	1575.734
514.956	17.885	1637.548	1574.180
515.971	17.858	1636.290	1572.535
516.985	17.876	1635.202	1571.465
518.000	18.016	1634.157	1571.565
519.014	17.958	1634.004	1570.697
520.029	18.001	1632.201	1569.177
521.043	18.049	1630.592	1567.880
522.058	17.970	1629.127	1565.556
523.073	18.041	1628.780	1565.688
524.087	18.128	1628.207	1565.749
525.102	18.107	1626.739	1563.958
526.116	17.969	1624.969	1560.807
527.131	18.024	1623.831	1560.029
528.146	18.127	1622.700	1559.700
529.160	18.141	1622.284	1559.243
530.175	18.000	1620.902	1556.433
531.189	18.095	1619.778	1556.036
532.204	18.115	1618.459	1554.767
533.219	17.923	1617.466	1551.875
534.233	17.974	1616.681	1551.405
535.248	18.023	1615.483	1550.514
536.262	18.280	1614.222	1551.458
537.277	18.114	1612.381	1547.996
538.292	18.063	1611.248	1546.261
539.306	17.986	1610.162	1544.327
540.321	18.063	1608.645	1543.388
541.335	17.952	1607.411	1541.011
542.350	18.079	1605.179	1539.837
543.365	18.147	1603.769	1538.917
544.379	18.041	1603.023	1537.059
545.394	18.067	1602.223	1536.342
546.408	18.063	1600.469	1534.441
547.423	18.024	1598.863	1532.368
548.438	17.837	1598.512	1530.161
549.452	18.001	1597.195	1530.197
550.467	18.061	1595.835	1529.243
551.481	18.112	1594.889	1528.617
552.496	18.282	1593.993	1529.104
553.511	18.109	1593.331	1526.731
554.525	18.057	1591.917	1524.730
555.540	18.274	1590.916	1525.525
556.554	18.256	1590.346	1524.638
557.569	18.147	1588.233	1521.457
558.583	18.185	1586.582	1520.036
559.598	18.206	1585.688	1519.182
560.613	18.172	1584.607	1517.662
561.627	18.102	1583.231	1515.540
562.642	18.175	1582.000	1514.831
563.656	18.271	1580.585	1514.143
564.671	18.167	1579.763	1512.252
565.686	18.248	1578.485	1511.567
566.700	18.214	1576.219	1508.915
567.715	18.004	1575.218	1505.916
568.729	18.040	1573.536	1504.449
569.744	17.928	1571.523	1501.349
570.759	17.993	1570.670	1500.933
571.773	17.993	1570.663	1500.743
572.788	18.102	1569.263	1500.192
573.802	18.046	1568.249	1498.543
574.817	18.195	1566.641	1498.139
575.832	18.289	1565.635	1497.829
576.846	18.318	1563.911	1496.252
577.861	18.133	1563.587	1494.140
578.875	18.097	1563.244	1493.313
579.890	18.422	1561.210	1494.045
580.905	18.265	1560.675	1491.977
581.919	18.224	1560.478	1491.250
582.934	18.312	1559.167	1490.588
583.948	18.433	1558.046	1490.401
584.963	18.270	1555.929	1486.769
585.978	18.188	1554.876	1484.875
586.992	18.311	1554.100	1485.029
588.007	18.281	1553.667	1484.175
589.021	18.270	1551.745	1482.063
590.036	18.133	1550.557	1479.560
591.051	18.074	1549.550	1477.910
592.065	18.175	1547.816	1476.954
593.080	18.415	1546.090	1477.214
594.094	18.388	1544.509	1475.290
595.109	18.221	1542.954	1472.184
596.123	18.126	1541.423	1469.729
597.138	18.148	1541.394	1469.717
598.153	18.222	1540.420	1469.250
599.167	18.363	1538.725	1468.669
600.182	18.287	1537.725	1466.884
601.196	18.297	1536.020	1465.166
602.211	18.395	1534.519	1464.406
603.226	18.254	1534.687	1463.178
604.240	18.359	1533.220	1462.504
605.255	18.499	1531.123	1461.533
606.269	18.326	1530.678	1459.444
607.284	18.429	1529.216	1458.760
608.299	18.442	1528.125	1457.653
609.313	18.232	1527.278	1454.882
610.328	18.424	1526.317	1455.428
611.342	18.393	1524.885	1453.625
612.357	18.430	1523.913	1452.840
613.372	18.503	1522.456	1451.896
614.386	18.389	1522.087	1450.398
615.401	18.469	1521.234	1450.099
616.415	18.423	1520.333	1448.676
617.430	18.391	1519.227	1447.173
618.445	18.527	1517.781	1446.774
619.459	18.327	1516.690	1443.869
620.474	18.255	1515.433	1441.893
621.488	18.183	1513.985	1439.733
622.503	18.130	1512.028	1437.249
623.518	18.150	1511.920	1437.140
624.532	18.420	1511.235	1438.598
625.547	18.409	1509.793	1436.960
626.561	18.505	1509.453	1437.279
627.576	18.394	1508.650	1435.405
628.591	18.317	1506.594	1432.629
629.605	18.144	1505.532	1429.993
630.620	18.181	1503.703	1428.395
631.634	18.145	1502.167	1426.460
632.649	18.211	1501.529	1426.239
633.663	18.223	1500.796	1425.475
634.678	18.281	1500.103	1425.133
635.693	18.533	1498.368	1425.417
636.707	18.593	1496.509	1423.976
637.722	18.668	1496.045	1423.988
638.736	18.532	1495.372	1422.050
639.751	18.607	1494.213	1421.396
640.766	18.513	1492.844	1419.149
641.780	18.647	1490.959	1418.300
642.795	18.555	1490.682	1417.101
643.809	18.451	1490.320	1415.718
644.824	18.620	1488.731	1415.447
645.839	18.569	1487.613	1413.789
646.853	18.755	1485.965	1413.597
647.868	18.531	1484.694	1410.360
648.882	18.667	1483.301	1409.993
649.897	18.581	1482.427	1408.281
650.912	18.614	1480.877	1406.919
651.926	18.380	1479.882	1403.876
652.941	18.418	1478.997	1403.180
653.955	18.314	1477.614	1400.845
654.970	18.331	1475.184	1398.516
655.985	18.266	1474.552	1397.213
656.999	18.411	1473.031	1396.793
658.014	18.519	1471.650	1396.200
659.028	18.409	1471.853	1395.326
660.043	18.461	1470.872	1394.655
661.058	18.494	1469.541	1393.493
662.072	18.457	1468.570	1392.108
663.087	18.607	1467.572	1392.219
664.101	18.462	1466.580	1389.925
665.116	18.740	1464.517	1390.069
666.131	18.666	1463.634	1388.463
667.145	18.659	1463.076	1387.706
668.160	18.623	1461.662	1385.912
669.174	18.624	1460.864	1384.995
670.189	18.655	1460.004	1384.265
671.204	18.464	1458.907	1381.508
672.218	18.579	1457.614	1381.054
673.233	18.660	1456.598	1380.577
674.247	18.770	1455.967	1380.706
675.262	18.677	1455.466	1379.310
676.276	18.716	1454.021	1378.090
677.291	18.758	1451.683	1376.051
678.306	18.700	1450.672	1374.462
679.320	18.520	1450.244	1372.442
680.335	18.512	1450.678	1372.628
681.349	18.756	1449.127	1372.951
682.364	18.729	1447.210	1370.757
683.379	18.560	1446.244	1368.323
684.393	18.586	1444.813	1367.012
685.408	18.741	1443.941	1367.261
686.422	18.691	1442.825	1365.646
687.437	18.740	1442.609	1365.670
688.452	18.700	1442.092	1364.693
689.466	18.702	1439.825	1362.403
690.481	18.568	1438.062	1359.508
691.495	18.457	1437.573	1357.994
692.510	18.284	1435.991	1354.964
693.525	18.260	1434.491	1353.195
694.539	18.264	1433.707	1352.321
695.554	18.594	1433.381	1354.471
696.568	18.643	1432.814	1354.168
697.583	18.529	1432.743	1353.033
698.598	18.800	1431.670	1354.006
699.612	18.872	1429.950	1352.785
700.627	18.796	1428.603	1350.750
701.641	18.932	1426.412	1349.585
702.656	18.938	1425.553	1348.663
703.671	19.012	1425.696	1349.214
704.685	18.834	1425.299	1347.281
705.700	18.841	1423.381	1345.362
706.714	18.829	1421.631	1343.451
707.729	18.617	1420.234	1340.301
708.744	18.678	1419.532	1339.961
709.758	18.597	1418.577	1338.264
710.773	18.591	1417.308	1336.854
711.787	18.470	1415.878	1334.400
712.802	18.636	1414.134	1333.897
713.816	18.744	1413.614	1334.087
714.831	18.720	1413.222	1333.370
715.846	18.879	1412.394	1333.674
716.860	18.796	1411.038	1331.583
717.875	18.942	1409.616	1331.217
718.889	18.775	1408.492	1328.699
719.904	18.813	1407.439	1327.840
720.919	18.885	1406.316	1327.187
721.933	18.903	1405.752	1326.630
722.948	18.968	1405.075	1326.342
723.962	18.924	1403.983	1324.811
724.977	19.026	1402.916	1324.432
725.992	19.009	1401.738	1323.034
727.006	18.862	1400.712	1320.768
728.021	18.768	1399.163	1318.427
729.035	19.112	1397.994	1319.815
730.050	19.053	1396.942	1318.209
731.065	18.871	1396.061	1315.824
732.079	18.829	1395.702	1315.002
733.094	18.838	1393.954	1313.267
734.108	18.897	1392.489	1312.179
735.123	18.989	1390.622	1310.970
736.138	18.994	1389.749	1310.033
737.152	18.945	1389.291	1309.068
738.167	18.833	1388.898	1307.685
739.181	19.040	1387.665	1307.946
740.196	19.058	1385.974	1306.337
741.211	18.939	1385.106	1304.450
742.225	18.943	1384.614	1303.860
743.240	19.001	1383.446	1303.048
744.254	18.887	1381.576	1300.262
745.269	18.925	1381.299	1300.136
746.284	18.797	1380.252	1298.024
747.298	18.790	1378.932	1296.576
748.313	18.592	1378.002	1294.043
749.327	18.272	1377.016	1290.537
750.342	18.296	1376.013	1289.622
751.356	18.244	1374.823	1287.963
752.371	18.406	1373.095	1287.410
753.386	18.591	1372.741	1288.320
754.400	18.942	1371.879	1290.005
755.415	19.032	1371.126	1289.821
756.429	19.115	1369.556	1288.817
757.444	19.029	1368.838	1287.337
758.459	19.159	1368.019	1287.391
759.473	19.010	1367.267	1285.414
760.488	19.158	1365.945	1285.125
761.502	19.155	1364.162	1283.273
762.517	19.058	1363.228	1281.515
763.532	18.992	1361.549	1279.291
764.546	18.873	1360.913	1277.648
765.561	18.798	1360.155	1276.221
766.575	18.533	1359.323	1273.314
767.590	18.492	1357.708	1271.342
768.605	18.652	1356.589	1271.335
769.619	18.742	1355.575	1270.898
770.634	18.958	1354.546	1271.389
771.648	19.098	1353.469	1271.261
772.663	19.118	1353.360	1271.160
773.678	19.134	1352.287	1270.121
774.692	19.197	1351.506	1269.695
775.707	19.045	1351.889	1268.779
776.721	19.117	1350.764	1268.107
777.736	19.146	1349.167	1266.667
778.751	19.119	1347.878	1265.108
779.765	19.102	1347.323	1264.308
780.780	18.871	1346.722	1261.889
781.794	19.036	1345.387	1261.706
782.809	18.944	1344.258	1259.819
783.824	19.004	1342.538	1258.498
784.838	18.815	1340.812	1255.337
785.853	18.326	1340.288	1251.105
786.867	18.444	1339.854	1251.415
787.882	18.446	1339.907	1251.333
788.897	18.628	1339.143	1251.802
789.911	18.735	1337.998	1251.369
790.926	18.878	1336.300	1250.673
791.940	19.019	1334.166	1249.559
792.955	18.967	1333.853	1248.738
793.969	18.949	1333.276	1247.912
794.984	18.998	1332.072	1246.993
795.999	19.030	1330.830	1245.918
797.013	19.160	1329.530	1245.498
798.028	19.078	1327.722	1243.058
799.042	19.112	1327.626	1243.064
800.057	19.118	1326.827	1242.213
801.072	19.155	1325.228	1240.835
802.086	19.078	1323.929	1238.915
803.101	19.174	1323.158	1238.738
804.115	19.100	1322.548	1237.486
805.130	19.135	1321.356	1236.473
806.145	19.132	1320.035	1235.069
807.159	19.134	1318.468	1233.470
808.174	19.177	1317.416	1232.642
809.188	19.024	1315.581	1229.679
810.203	18.986	1313.783	1227.583
811.218	18.949	1312.647	1226.110
812.232	18.831	1310.847	1223.436
813.247	18.639	1309.882	1221.017
814.261	18.960	1310.177	1223.438
815.276	19.148	1309.095	1223.626
816.291	19.264	1308.459	1223.711
817.305	19.099	1307.517	1221.506
818.320	19.217	1305.697	1220.503
819.334	19.312	1304.830	1220.222
820.349	19.199	1303.643	1218.164
821.364	19.079	1302.940	1216.509
822.378	19.324	1301.209	1216.486
823.393	19.288	1299.096	1214.110
824.407	19.192	1298.362	1212.600
825.422	19.062	1298.536	1211.691
826.437	19.270	1296.874	1211.469
827.451	19.058	1294.678	1207.775
828.466	18.587	1293.519	1203.233
829.480	18.655	1291.543	1201.730
830.495	18.695	1290.109	1200.530
831.509	18.609	1290.127	1199.802
832.524	18.936	1289.361	1201.237
833.539	19.151	1287.771	1201.123
834.553	19.215	1286.968	1200.676
835.568	19.109	1285.990	1198.880
836.582	19.402	1285.147	1200.003
837.597	19.299	1283.412	1197.516
838.612	19.301	1282.227	1196.282
839.626	19.135	1281.109	1193.940
840.641	19.048	1280.259	1192.399
841.655	18.995	1279.111	1190.818
842.670	18.648	1277.940	1187.173
843.685	18.694	1276.968	1186.446
844.699	18.923	1275.366	1186.402
845.714	19.126	1274.869	1187.206
846.728	19.145	1274.253	1186.620
847.743	19.180	1273.271	1185.805
848.758	19.167	1272.012	1184.407
849.772	19.264	1270.543	1183.566
850.787	19.296	1269.148	1182.346
851.801	19.236	1268.362	1181.058
852.816	19.192	1266.661	1179.027
853.831	19.131	1265.228	1177.134
854.845	19.172	1263.414	1175.591
855.860	19.032	1262.250	1173.404
856.874	18.991	1260.988	1171.810
857.889	18.974	1259.197	1169.893
858.904	18.877	1257.633	1167.630
859.918	18.676	1256.294	1164.881
860.933	18.436	1255.321	1162.200
861.947	18.641	1255.546	1163.671
862.962	18.834	1254.180	1163.575
863.977	18.943	1252.390	1162.517
864.991	18.972	1252.187	1162.386
866.006	19.204	1251.919	1163.576
867.020	19.168	1250.600	1161.962
868.035	19.272	1249.630	1161.629
869.049	19.337	1248.595	1160.970
870.064	19.342	1247.617	1159.953
871.079	19.247	1246.783	1158.400
872.093	19.202	1246.394	1157.595
873.108	19.300	1245.295	1157.094
874.122	19.170	1244.002	1154.879
875.137	19.013	1243.084	1152.829
876.152	19.001	1241.804	1151.426
877.166	19.121	1240.993	1151.346
878.181	19.319	1239.791	1151.421
879.195	19.284	1239.017	1150.329
880.210	19.291	1238.635	1149.879
881.225	19.411	1236.964	1148.998
882.239	19.360	1236.359	1147.958
883.254	19.379	1235.105	1146.781
884.268	19.483	1233.883	1146.203
885.283	19.324	1233.171	1144.344
886.298	19.308	1231.736	1142.767
887.312	19.351	1230.973	1142.211
888.327	19.249	1229.891	1140.392
889.341	19.359	1228.346	1139.554
890.356	19.189	1227.791	1137.775
891.371	19.259	1227.728	1138.047
892.385	19.157	1226.973	1136.534
893.400	19.180	1225.647	1135.319
894.414	19.020	1224.153	1132.742
895.429	19.080	1221.953	1130.967
896.444	18.729	1220.020	1126.725
897.458	18.411	1219.287	1123.818
898.473	18.733	1218.929	1125.477
899.487	18.808	1219.011	1125.908
900.502	19.180	1218.026	1127.311
901.517	19.353	1216.106	1126.536
902.531	19.313	1215.135	1125.242
903.546	19.302	1215.089	1124.992
904.560	19.470	1214.916	1125.798
905.575	19.290	1213.823	1123.470
906.589	19.313	1212.647	1122.398
907.604	19.322	1212.395	1122.088
