DTS Sentinel unit serial number:	SN409020Multiplexer serial number:	ORYXHardware model number:	OX4-SRSoftware version number:	ORYX F/W v3.00 Oryx Data Collector v3.7.2.0data status	okinstallation	HaddamTimeLapsedifferential loss correction	single-endedforward channel	channel 3reverse channel	N/Adate	2011/06/22time	05:11:17forward acquisition time	30.00reverse acquisition time	0.00gamma	498.7831k internal	0.1752k external	0.1752temperature offset calibration	1.0074default loss term (dB/km)	0.3790temperature slope calibration	1.3530multiplexer offset coefficient	1.0000multiplexer slope coefficient	1.0000fibre end	0.00T internal ref (°C)	22.66T ext. ref 1 (°C)	17.64T ext. ref 2 (°C)	0.15length (m)	temperature (°C)	Stokes	anti-Stokes-747.200	-5.143	0.253	-0.230
-746.185	129.580	0.146	0.248
-745.171	172.829	0.181	-0.346
-744.156	109.017	0.111	-0.177
-743.142	-200.000	-0.024	-0.447
-742.127	12.968	-0.224	0.230
-741.112	-200.000	-0.070	-0.507
-740.098	123.820	0.105	0.175
-739.083	132.764	0.110	0.188
-738.069	-55.257	0.136	0.081
-737.054	-136.570	0.130	-0.020
-736.039	40.640	-0.326	-0.390
-735.025	-99.316	-0.129	-0.043
-734.010	-8.448	0.465	-0.415
-732.996	-102.504	0.102	-0.032
-731.981	-146.743	0.721	0.082
-730.966	-184.144	-0.520	-0.011
-729.952	-60.730	-0.098	-0.055
-728.937	-200.000	-0.022	0.330
-727.923	264.240	0.055	-0.128
-726.908	-200.000	0.031	0.291
-725.894	-148.628	-0.381	-0.041
-724.879	167.544	0.124	-0.234
-723.864	153.195	-0.027	-0.050
-722.850	-143.389	-0.194	0.024
-721.835	-200.000	0.483	0.001
-720.821	-139.955	0.354	0.049
-719.806	-200.000	0.015	-0.320
-718.791	-109.343	-0.094	0.026
-717.777	479.839	-0.145	0.438
-716.762	-143.396	-0.554	-0.070
-715.748	-125.185	0.116	0.023
-714.733	800.000	-0.156	0.604
-713.718	-65.702	-0.386	0.204
-712.704	201.669	-0.113	-0.232
-711.689	-115.602	-0.385	-0.095
-710.675	-88.802	-0.405	-0.158
-709.660	800.000	-0.025	-0.108
-708.645	-89.554	0.476	0.184
-707.631	800.000	0.124	0.693
-706.616	171.849	0.140	-0.267
-705.602	-59.031	-0.480	0.274
-704.587	-200.000	0.008	0.301
-703.572	800.000	-0.038	0.221
-702.558	-40.681	0.252	-0.173
-701.543	-200.000	-0.011	0.225
-700.529	-36.063	0.273	0.195
-699.514	-34.615	-0.367	0.265
-698.499	-49.880	0.658	-0.413
-697.485	61.534	0.141	0.186
-696.470	800.000	-0.080	-0.386
-695.456	-200.000	-0.012	-0.261
-694.441	584.909	0.091	-0.298
-693.426	-28.764	-0.254	-0.193
-692.412	-3.952	-0.209	-0.192
-691.397	141.344	-0.136	-0.239
-690.383	-200.000	-0.053	0.356
-689.368	241.269	0.136	0.301
-688.354	-127.098	0.513	-0.099
-687.339	52.561	0.189	0.240
-686.324	-85.928	-0.349	-0.142
-685.310	-124.350	-0.137	0.028
-684.295	-47.158	0.105	0.067
-683.281	-110.762	-0.253	0.069
-682.266	800.000	0.072	-0.296
-681.251	159.841	-0.176	0.326
-680.237	-70.970	-0.083	-0.041
-679.222	97.426	-0.328	-0.499
-678.208	-19.901	0.265	0.217
-677.193	-200.000	-0.027	-0.227
-676.178	-117.429	0.424	-0.101
-675.164	-65.016	-0.137	0.073
-674.149	-200.000	-0.073	0.893
-673.135	-63.715	-0.226	-0.122
-672.120	-89.530	-0.361	-0.140
-671.105	-136.635	0.141	-0.021
-670.091	-71.451	0.236	-0.117
-669.076	-88.189	0.183	-0.072
-668.062	-84.476	0.142	-0.059
-667.047	-54.900	-0.624	0.372
-666.032	178.413	0.153	-0.296
-665.018	-200.000	-0.067	0.564
-664.003	-200.000	-0.486	-0.000
-662.989	-146.309	-0.147	-0.017
-661.974	-62.846	-0.446	0.244
-660.959	800.000	-0.020	-0.090
-659.945	-195.138	0.518	0.005
-658.930	76.469	-0.088	-0.123
-657.916	-92.379	-0.262	0.097
-656.901	-200.000	-0.011	0.066
-655.886	24.775	0.209	-0.229
-654.872	198.730	-0.124	-0.252
-653.857	105.849	-0.046	-0.072
-652.843	-84.326	0.149	0.062
-651.828	-82.670	0.188	0.080
-650.814	-198.830	-0.224	0.002
-649.799	267.057	0.218	0.506
-648.784	0.888	-0.196	0.186
-647.770	-130.260	0.260	0.046
-646.755	-32.048	-0.497	-0.367
-645.741	182.070	0.332	-0.648
-644.726	314.239	-0.237	-0.593
-643.711	-31.524	-0.276	-0.205
-642.697	-87.866	0.701	-0.277
-641.682	-81.031	-0.180	-0.078
-640.668	-73.300	-0.372	0.179
-639.653	5.753	0.258	0.252
-638.638	232.988	-0.079	0.173
-637.624	-64.420	0.352	-0.188
-636.609	114.223	0.318	0.514
-635.595	-78.947	0.183	0.082
-634.580	800.000	0.047	0.205
-633.565	43.281	-0.197	-0.238
-632.551	800.000	0.059	-0.339
-631.536	-140.984	0.539	-0.072
-630.522	284.119	0.085	0.202
-629.507	113.001	-0.238	0.382
-628.492	-115.316	-0.380	-0.094
-627.478	-26.166	-0.269	-0.208
-626.463	-119.969	-0.431	0.097
-625.449	-3.205	0.278	-0.256
-624.434	-114.757	0.291	-0.073
-623.419	-114.520	-0.266	-0.067
-622.405	61.979	0.236	-0.312
-621.390	-139.129	0.504	-0.071
-620.376	-46.561	0.080	0.052
-619.361	442.380	-0.089	-0.259
-618.346	98.397	-0.181	0.276
-617.332	-93.159	0.217	0.079
-616.317	-126.912	-0.156	0.030
-615.303	258.124	-0.122	-0.278
-614.288	62.647	0.314	0.415
-613.273	-115.092	0.305	-0.076
-612.259	-154.169	0.483	0.043
-611.244	-200.000	0.005	0.103
-610.230	-162.177	0.272	0.018
-609.215	-60.891	0.453	-0.252
-608.201	-122.746	0.295	0.063
-607.186	365.323	0.045	-0.121
-606.171	-200.000	-0.075	-0.739
-605.157	142.943	0.191	0.335
-604.142	-8.704	0.523	0.463
-603.128	89.809	0.269	0.397
-602.113	-162.572	-0.045	0.003
-601.098	-69.263	-0.374	-0.189
-600.084	205.431	-0.144	0.295
-599.069	126.055	-0.093	-0.155
-598.055	-152.195	-0.127	0.012
-597.040	-200.000	-0.017	0.192
-596.025	-17.329	0.258	-0.215
-595.011	119.610	-0.306	-0.501
-593.996	7.966	-0.249	0.246
-592.982	800.000	-0.040	-0.183
-591.967	517.149	-0.106	-0.329
-590.952	-50.182	0.015	0.009
-589.938	264.477	0.229	-0.528
-588.923	349.668	-0.119	-0.313
-587.909	-135.852	0.301	0.046
-586.894	111.587	0.081	-0.129
-585.879	118.398	0.257	0.419
-584.865	445.235	-0.068	0.197
-583.850	25.614	0.397	0.436
-582.836	565.237	0.184	0.590
-581.821	-200.000	-0.023	-0.272
-580.806	116.637	-0.161	0.261
-579.792	-127.966	0.402	-0.075
-578.777	452.039	0.098	-0.287
-577.763	-200.000	-0.003	0.227
-576.748	-1.025	-0.063	-0.058
-575.733	94.266	-0.123	-0.184
-574.719	-47.004	0.342	-0.220
-573.704	-26.111	0.281	-0.217
-572.690	-200.000	0.006	0.277
-571.675	35.959	-0.167	0.194
-570.661	-105.736	0.096	0.028
-569.646	-200.000	0.054	-0.373
-568.631	-96.842	0.116	0.040
-567.617	125.942	0.155	-0.259
-566.602	77.339	-0.322	-0.452
-565.588	800.000	-0.048	-0.253
-564.573	67.808	-0.390	-0.526
-563.558	-200.000	-0.010	0.318
-562.544	-200.000	-0.011	0.066
-561.529	-25.507	-0.250	0.194
-560.515	-35.959	0.036	0.025
-559.500	-38.551	-0.263	-0.183
-558.485	-126.081	-0.111	0.022
-557.471	800.000	0.110	-0.549
-556.456	-70.337	0.110	0.055
-555.442	-109.996	0.164	0.045
-554.427	-77.236	0.155	-0.071
-553.412	-84.224	0.084	-0.035
-552.398	-56.444	-0.133	-0.077
-551.383	120.015	-0.141	0.231
-550.369	-115.865	0.146	-0.036
-549.354	76.168	0.206	0.287
-548.339	-45.360	0.271	-0.177
-547.325	-87.930	-0.492	-0.194
-546.310	-200.000	-0.071	-0.541
-545.296	324.947	0.085	0.216
-544.281	-200.000	0.001	-0.364
-543.266	13.350	-0.275	0.281
-542.252	800.000	-0.050	-0.286
-541.237	189.123	0.089	0.176
-540.223	-154.927	0.472	-0.040
-539.208	246.848	0.276	-0.617
-538.193	-81.524	-0.231	-0.100
-537.179	65.587	0.129	-0.173
-536.164	-200.000	0.048	-0.469
-535.150	800.000	-0.077	-0.288
-534.135	62.747	0.121	-0.159
-533.121	-51.515	-0.325	-0.200
-532.106	-54.265	-0.178	-0.106
-531.091	69.276	-0.142	0.192
-530.077	202.145	-0.144	0.294
-529.062	-68.674	0.438	-0.222
-528.048	99.847	0.180	-0.276
-527.033	681.699	-0.056	-0.194
-526.018	800.000	0.068	-0.284
-525.004	-200.000	0.059	-0.362
-523.989	-125.966	-0.141	-0.028
-522.975	-81.742	0.147	0.063
-521.960	-126.925	-0.349	-0.067
-520.945	205.019	0.127	-0.260
-519.931	-200.000	0.010	0.168
-518.916	-88.230	0.171	0.067
-517.902	-200.000	0.069	-0.426
-516.887	-92.914	-0.505	-0.185
-515.872	-110.379	-0.451	-0.123
-514.858	239.317	0.166	0.364
-513.843	-0.998	0.363	0.338
-512.829	-73.856	-0.083	0.040
-511.814	60.467	-0.264	0.345
-510.799	-200.000	-0.009	0.295
-509.785	-79.397	-0.060	-0.027
-508.770	75.586	-0.053	-0.074
-507.756	-200.000	-0.033	-0.568
-506.741	-15.549	0.339	-0.284
-505.726	-95.538	-0.141	0.049
-504.712	800.000	-0.028	-0.138
-503.697	-0.073	-0.276	-0.258
-502.683	-200.000	0.052	-1.070
-501.668	-142.874	-0.438	-0.055
-500.653	-8.614	-0.195	0.172
-499.639	-200.000	0.019	0.389
-498.624	-67.793	0.263	-0.135
-497.610	-200.000	0.004	0.146
-496.595	-122.799	-0.418	-0.088
-495.581	-164.769	-0.587	0.034
-494.566	7.633	-0.179	0.176
-493.551	-132.155	-0.113	0.019
-492.537	-172.168	0.794	0.033
-491.522	-182.261	0.266	0.006
-490.508	-42.948	0.097	0.065
-489.493	-153.811	-0.292	0.026
-488.478	177.977	-0.109	-0.209
-487.464	12.746	0.188	-0.191
-486.449	-93.168	0.315	0.115
-485.435	-130.529	-0.153	0.027
-484.420	-43.336	-0.318	0.211
-483.405	48.676	-0.082	-0.101
-482.391	239.497	-0.092	0.203
-481.376	-114.775	0.268	-0.067
-480.362	-138.241	0.497	0.072
-479.347	145.067	0.334	0.588
-478.332	333.611	0.085	0.216
-477.318	565.892	-0.081	-0.259
-476.303	-144.319	-0.198	0.024
-475.289	-200.000	-0.008	-0.131
-474.274	800.000	0.088	-0.369
-473.259	-200.000	-0.010	-0.140
-472.245	800.000	-0.072	0.297
-471.230	-200.000	0.059	0.398
-470.216	-181.365	0.212	0.005
-469.201	-76.085	0.259	0.120
-468.186	93.271	-0.204	0.304
-467.172	-200.000	0.014	-0.150
-466.157	10.199	-0.400	0.400
-465.143	-89.028	0.571	-0.221
-464.128	800.000	-0.009	-0.041
-463.113	-200.000	0.001	0.280
-462.099	-117.266	-0.123	0.029
-461.084	-200.000	0.042	0.420
-460.070	-200.000	-0.069	0.441
-459.055	50.969	-0.178	0.222
-458.040	800.000	0.033	-0.129
-457.026	214.801	-0.252	-0.526
-456.011	-200.000	0.027	-0.325
-454.997	109.064	0.057	0.090
-453.982	800.000	-0.096	-0.381
-452.968	-107.558	-0.573	-0.163
-451.953	-125.801	0.294	-0.058
-450.938	-21.807	0.556	-0.443
-449.924	40.107	-0.309	0.364
-448.909	-200.000	0.027	0.427
-447.895	-63.292	0.488	0.263
-446.880	-125.013	-0.159	-0.032
-445.865	-13.270	-0.176	-0.150
-444.851	-45.430	0.224	-0.145
-443.836	25.581	-0.212	-0.232
-442.822	-150.945	-0.672	0.066
-441.807	-115.324	-0.421	-0.103
-440.792	-19.483	0.170	-0.138
-439.778	130.628	-0.148	-0.249
-438.763	-200.000	-0.028	-0.582
-437.749	38.310	0.220	0.258
-436.734	221.468	-0.103	0.218
-435.719	-66.417	-0.361	0.187
-434.705	-96.647	-0.123	-0.042
-433.690	-200.000	0.033	0.234
-432.676	-200.000	0.065	0.575
-431.661	17.991	-0.462	-0.483
-430.646	-126.228	0.433	-0.084
-429.632	-200.000	0.001	0.198
-428.617	33.110	0.081	-0.092
-427.603	-95.311	-0.227	-0.080
-426.588	-23.152	0.560	-0.441
-425.573	-102.036	0.067	-0.021
-424.559	-200.000	0.057	0.372
-423.544	-200.000	0.048	-0.449
-422.530	-131.322	-0.297	0.051
-421.515	-60.664	-0.135	0.075
-420.500	-162.895	-0.209	0.013
-419.486	-169.135	-0.276	-0.013
-418.471	110.647	0.133	0.211
-417.457	376.057	-0.116	0.313
-416.442	137.408	-0.174	0.300
-415.428	-200.000	0.007	0.069
-414.413	-102.896	0.161	0.050
-413.398	185.719	0.172	-0.337
-412.384	800.000	0.045	-0.190
-411.369	-86.041	0.365	-0.147
-410.355	-49.629	0.251	-0.156
-409.340	-110.555	0.237	0.064
-408.325	13.418	-0.332	-0.338
-407.311	-100.778	-0.302	0.097
-406.296	-157.142	-0.654	-0.051
-405.282	-101.944	-0.533	-0.168
-404.267	-76.807	-0.145	-0.066
-403.252	-33.836	-0.170	0.122
-402.238	-106.388	-0.351	0.102
-401.223	-56.662	-0.607	-0.351
-400.209	43.943	-0.329	-0.395
-399.194	134.237	-0.194	0.330
-398.179	-52.287	-0.074	-0.045
-397.165	-32.381	-0.217	0.158
-396.150	220.018	-0.189	0.397
-395.136	-148.280	-0.324	0.035
-394.121	800.000	0.062	0.301
-393.106	428.702	-0.058	-0.166
-392.092	-98.132	-0.303	0.102
-391.077	-62.687	0.080	0.043
-390.063	-97.878	-0.389	0.131
-389.048	-30.733	-0.472	0.349
-388.033	-0.556	0.170	-0.158
-387.019	33.301	-0.077	0.088
-386.004	-62.526	0.307	0.166
-384.990	-190.322	0.290	0.004
-383.975	-36.197	0.188	-0.133
-382.960	177.691	0.148	-0.284
-381.946	78.606	0.412	0.578
-380.931	-85.227	-0.239	0.097
-379.917	539.109	0.104	-0.327
-378.902	-200.000	0.025	0.235
-377.888	208.144	0.109	0.223
-376.873	30.174	-0.398	0.445
-375.858	-40.286	0.452	-0.307
-374.844	-200.000	-0.008	0.212
-373.829	-68.560	-0.296	-0.150
-372.815	36.443	-0.265	-0.306
-371.800	-200.000	-0.015	-0.399
-370.785	-76.229	0.328	-0.151
-369.771	-70.237	0.423	0.209
-368.756	-20.891	-0.445	-0.356
-367.742	-108.007	-0.310	0.088
-366.727	-127.685	0.700	-0.131
-365.712	652.958	0.099	-0.332
-364.698	-60.038	-0.275	-0.153
-363.683	-87.878	0.143	0.056
-362.669	-124.377	0.332	-0.067
-361.654	87.440	0.200	-0.289
-360.639	-127.605	0.491	-0.092
-359.625	-14.536	-0.341	-0.286
-358.610	48.189	-0.237	-0.290
-357.596	-33.186	-0.087	0.063
-356.581	140.738	0.041	-0.071
-355.566	-200.000	-0.014	-0.109
-354.552	143.186	-0.111	-0.194
-353.537	-200.000	-0.079	0.488
-352.523	-30.668	-0.239	0.177
-351.508	-200.000	-0.057	-0.340
-350.493	800.000	-0.066	0.268
-349.479	-111.469	0.274	0.072
-348.464	231.351	-0.040	-0.086
-347.450	-200.000	0.006	0.291
-346.435	344.012	0.210	0.541
-345.420	512.378	-0.152	0.465
-344.406	-29.462	-0.042	0.031
-343.391	-85.897	-0.214	0.086
-342.377	800.000	0.111	-0.424
-341.362	-145.577	-0.387	0.045
-340.348	-76.981	-0.377	-0.171
-339.333	800.000	-0.151	0.610
-338.318	-119.143	-0.585	0.133
-337.304	800.000	-0.041	0.213
-336.289	174.353	-0.237	0.449
-335.275	41.840	-0.337	-0.399
-334.260	-4.438	-0.167	0.151
-333.245	314.586	-0.035	0.085
-332.231	42.889	-0.372	-0.443
-331.216	136.381	-0.233	0.398
-330.202	-200.000	-0.038	0.514
-329.187	114.974	0.224	0.358
-328.172	9.398	-0.100	-0.099
-327.158	-74.429	-0.218	-0.102
-326.143	-11.057	0.055	-0.047
-325.129	-200.000	0.010	-0.255
-324.114	-108.973	0.160	-0.044
-323.099	115.986	-0.087	0.139
-322.085	698.493	-0.135	0.468
-321.070	-83.287	0.488	-0.204
-320.056	6.719	-0.076	-0.074
-319.041	223.159	-0.119	-0.252
-318.026	45.686	0.206	0.248
-317.012	-53.505	0.135	0.081
-315.997	-86.675	-0.156	0.062
-314.983	-71.560	0.080	-0.039
-313.968	117.300	0.221	-0.356
-312.953	-165.896	0.259	0.014
-311.939	56.168	-0.027	-0.035
-310.924	-103.931	0.321	0.097
-309.910	-103.895	0.317	-0.096
-308.895	-98.229	-0.338	0.113
-307.880	-134.436	-0.238	0.038
-306.866	-109.047	0.192	-0.053
-305.851	79.510	-0.170	-0.239
-304.837	-168.148	-0.534	0.027
-303.822	-71.423	-0.160	-0.078
-302.807	-98.849	0.254	-0.084
-301.793	-200.000	0.027	0.273
-300.778	800.000	-0.015	-0.064
-299.764	-79.277	-0.026	0.012
-298.749	-48.371	-0.628	0.393
-297.735	165.671	0.045	-0.083
-296.720	-200.000	0.047	0.542
-295.705	492.828	0.105	0.316
-294.691	-200.000	0.012	0.116
-293.676	291.119	0.037	0.088
-292.662	800.000	0.078	0.368
-291.647	800.000	0.119	0.442
-290.632	-88.828	-0.334	0.129
-289.618	22.104	-0.128	0.136
-288.603	20.891	0.412	0.435
-287.589	-0.498	-0.121	0.112
-286.574	-200.000	0.052	0.438
-285.559	-61.418	-0.350	-0.191
-284.545	-200.000	0.017	-0.313
-283.530	-200.000	-0.045	0.297
-282.516	-200.000	-0.071	0.585
-281.501	-53.118	0.181	0.108
-280.486	-158.368	-0.374	0.028
-279.472	-21.572	0.474	0.376
-278.457	-63.150	0.216	-0.116
-277.443	54.673	0.209	0.262
-276.428	-200.000	0.021	-0.261
-275.413	-104.340	-0.274	-0.082
-274.399	800.000	0.062	-0.284
-273.384	184.812	0.187	-0.363
-272.370	129.129	-0.226	0.377
-271.355	-120.203	0.025	0.006
-270.340	188.075	0.131	-0.256
-269.326	20.312	-0.222	0.234
-268.311	-18.149	-0.148	-0.121
-267.297	-165.403	0.239	0.013
-266.282	-96.345	-0.445	-0.153
-265.267	-103.431	0.126	-0.038
-264.253	-70.006	0.359	-0.177
-263.238	-184.853	-0.274	0.006
-262.224	-143.082	0.327	-0.041
-261.209	206.760	0.065	-0.132
-260.195	9.882	0.269	-0.266
-259.180	62.743	0.295	0.384
-258.165	25.850	0.212	0.230
-257.151	3.031	0.015	0.014
-256.136	114.905	-0.136	-0.216
-255.122	-96.791	-0.254	0.086
-254.107	-200.000	-0.042	0.386
-253.092	-167.891	0.133	0.007
-252.078	214.251	0.166	0.344
-251.063	-31.322	0.186	-0.136
-250.049	-200.000	0.083	-0.486
-249.034	-73.439	0.228	0.108
-248.019	245.377	-0.219	0.481
-247.005	800.000	0.062	0.242
-245.990	-142.055	0.144	0.018
-244.976	-42.405	-0.177	0.117
-243.961	53.501	0.217	0.272
-242.946	-158.408	0.019	0.001
-241.932	-84.073	-0.267	0.110
-240.917	-200.000	0.032	-0.375
-239.903	-145.364	-0.422	0.049
-238.888	-32.765	0.342	0.247
-237.873	-14.053	-0.337	0.283
-236.859	-156.008	-0.325	0.026
-235.844	-2.894	0.238	-0.216
-234.830	-200.000	-0.019	-0.396
-233.815	800.000	-0.181	0.797
-232.800	34.479	0.333	0.378
-231.786	-123.280	-0.204	0.042
-230.771	-118.867	-0.630	-0.143
-229.757	50.215	-0.141	-0.173
-228.742	109.964	-0.338	-0.528
-227.727	-200.000	-0.057	-0.332
-226.713	-115.196	-0.104	0.025
-225.698	468.518	-0.085	-0.249
-224.684	-200.000	0.047	0.286
-223.669	712.417	-0.075	-0.261
-222.655	800.000	-0.071	0.288
-221.640	-30.802	0.115	0.085
-220.625	69.055	-0.360	0.481
-219.611	800.000	-0.099	0.383
-218.596	55.088	-0.310	-0.390
-217.582	-158.794	0.397	0.029
-216.567	51.862	-0.013	-0.016
-215.552	-200.000	0.009	0.313
-214.538	-55.512	0.623	-0.362
-213.523	-96.510	-0.078	0.027
-212.509	-200.000	-0.050	0.366
-211.494	-141.306	0.250	-0.033
-210.479	15.193	0.353	-0.360
-209.465	-3.302	-0.341	-0.309
-208.450	-87.262	0.632	-0.248
-207.436	800.000	0.031	0.131
-206.421	88.675	-0.032	-0.046
-205.406	-72.031	0.160	0.077
-204.392	342.181	0.186	0.475
-203.377	68.501	-0.484	0.645
-202.363	221.821	0.061	0.127
-201.348	102.694	0.232	-0.353
-200.333	-14.957	-0.133	-0.111
-199.319	-24.016	-0.061	0.047
-198.304	800.000	0.091	0.410
-197.290	239.200	-0.094	0.204
-196.275	42.759	-0.122	-0.145
-195.260	-131.579	0.543	-0.092
-194.246	22.488	0.415	0.441
-193.231	-71.093	0.138	0.067
-192.217	102.751	-0.335	-0.510
-191.202	210.687	-0.111	-0.226
-190.187	-21.080	-0.331	-0.263
-189.173	84.575	0.142	0.202
-188.158	214.267	0.179	-0.370
-187.144	164.477	0.088	-0.161
-186.129	-200.000	-0.054	0.380
-185.114	-81.922	-0.500	0.212
-184.100	-99.284	0.255	-0.083
-183.085	-24.658	0.406	-0.313
-182.071	720.621	0.115	-0.400
-181.056	-200.000	0.083	-0.809
-180.042	-200.000	-0.047	0.405
-179.027	788.285	0.169	0.608
-178.012	142.987	-0.159	-0.276
-176.998	-8.990	0.185	0.161
-175.983	-75.847	0.362	0.166
-174.969	-32.475	0.334	0.241
-173.954	-59.473	0.327	-0.182
-172.939	-128.765	-0.293	-0.053
-171.925	-24.189	0.143	0.111
-170.910	800.000	0.016	-0.093
-169.896	-109.750	0.683	0.185
-168.881	-2.745	-0.189	-0.172
-167.866	-110.241	0.261	-0.070
-166.852	800.000	0.123	0.519
-165.837	-156.528	-0.234	-0.019
-164.823	-200.000	-0.024	0.253
-163.808	42.450	0.089	-0.105
-162.793	-150.531	-0.049	-0.005
-161.779	159.629	0.254	-0.461
-160.764	149.810	-0.083	-0.146
-159.750	800.000	-0.036	0.147
-158.735	-36.240	0.272	0.190
-157.720	-43.032	-0.135	0.089
-156.706	-116.209	0.049	0.012
-155.691	-58.574	0.186	0.104
-154.677	-131.163	0.079	-0.014
-153.662	70.816	-0.098	-0.131
-152.647	-23.483	0.354	-0.275
-151.633	-59.372	0.158	0.088
-150.618	-200.000	-0.078	0.683
-149.604	-76.567	0.182	-0.082
-148.589	800.000	-0.055	-0.311
-147.574	-19.609	-0.159	0.127
-146.560	-116.838	-0.496	0.117
-145.545	-100.763	0.251	0.080
-144.531	111.846	0.186	-0.292
-143.516	12.961	0.171	-0.172
-142.502	149.549	-0.316	-0.557
-141.487	-30.043	-0.523	0.385
-140.472	19.939	0.360	0.376
-139.458	108.061	-0.225	0.349
-138.443	339.975	0.201	0.511
-137.429	800.000	-0.079	-0.448
-136.414	800.000	0.074	-0.275
-135.399	-200.000	-0.018	-0.184
-134.385	156.589	0.194	-0.348
-133.370	-200.000	0.033	-0.472
-132.356	-44.560	0.334	-0.216
-131.341	-200.000	0.004	0.292
-130.326	98.354	-0.069	-0.104
-129.312	-200.000	0.006	0.341
-128.297	447.786	-0.072	0.207
-127.283	-3.883	0.150	-0.134
-126.268	-33.098	-0.382	-0.274
-125.253	382.437	0.046	-0.124
-124.239	119.225	0.280	-0.449
-123.224	-116.776	-0.313	-0.074
-122.210	260.406	0.182	0.409
-121.195	800.000	0.067	0.280
-120.180	-200.000	-0.008	0.096
-119.166	-200.000	0.008	-0.295
-118.151	278.267	-0.077	0.178
-117.137	159.766	-0.170	-0.307
-116.122	129.987	-0.040	-0.066
-115.107	-36.641	0.426	0.296
-114.093	65.587	-0.352	0.463
-113.078	82.135	-0.283	0.397
-112.064	83.141	-0.290	0.409
-111.049	-30.136	-0.535	0.394
-110.034	-200.000	-0.055	-0.354
-109.020	-197.902	0.385	0.003
-108.005	800.000	0.076	-0.312
-106.991	-127.863	0.459	-0.085
-105.976	-200.000	-0.010	-0.393
-104.962	404.906	0.140	-0.385
-103.947	101.345	-0.083	0.125
-102.932	200.860	-0.161	-0.321
-101.918	-92.699	0.361	0.130
-100.903	-127.264	-0.227	-0.043
-99.889	79.052	0.093	-0.129
-98.874	-27.763	-0.562	-0.421
-97.859	-194.691	0.295	0.003
-96.845	8.189	-0.130	-0.126
-95.830	-113.844	0.406	-0.101
-94.816	9.404	-0.444	-0.435
-93.801	-200.000	-0.003	0.459
-92.786	-156.458	0.270	-0.021
-91.772	-96.180	0.172	-0.059
-90.757	-105.122	-0.416	-0.122
-89.743	479.133	-0.185	0.545
-88.728	-38.158	-0.529	0.362
-87.713	208.870	-0.169	0.343
-86.699	-98.734	0.091	-0.030
-85.684	344.774	-0.173	0.442
-84.670	7.315	-0.232	0.224
-83.655	86.352	-0.257	0.366
-82.640	72.561	-0.197	-0.266
-81.626	-200.000	-0.049	-0.288
-80.611	-200.000	-0.036	-0.475
-79.597	463.299	0.097	-0.281
-78.582	227.780	-0.288	-0.607
-77.567	-7.197	0.300	0.263
-76.553	-88.983	0.324	0.123
-75.538	-200.000	-0.021	0.520
-74.524	800.000	0.080	0.321
-73.509	-66.087	0.249	-0.128
-72.494	-133.626	-0.027	0.004
-71.480	-48.616	0.352	-0.218
-70.465	800.000	0.073	-0.307
-69.451	-52.962	0.349	-0.207
-68.436	-154.741	-0.402	0.034
-67.422	-46.839	0.048	-0.030
-66.407	-167.989	-0.471	-0.023
-65.392	-200.000	0.019	0.384
-64.378	358.357	-0.026	0.067
-63.363	-124.010	-0.316	-0.064
-62.349	-55.556	-0.639	-0.369
-61.334	7.686	-2.415	-2.336
-60.319	65.270	1.277	1.671
-59.305	223.254	-3.689	-7.715
-58.290	49.475	4.320	5.259
-57.276	396.169	3.737	10.133
-56.261	-200.000	24.784	321.915
-55.246	354.350	1305.265	3367.475
-54.232	53.291	2842.197	3522.694
-53.217	51.606	2659.392	3269.960
-52.203	31.810	2389.368	2659.058
-51.188	27.856	2054.758	2237.980
-50.173	24.416	1941.599	2074.525
-49.159	23.412	1930.378	2050.790
-48.144	23.017	1925.152	2040.568
-47.130	22.981	1921.981	2036.716
-46.115	22.762	1921.616	2033.712
-45.100	22.845	1919.447	2032.288
-44.086	22.888	1917.930	2031.103
-43.071	22.780	1916.865	2028.641
-42.057	22.806	1915.008	2026.901
-41.042	22.883	1913.178	2025.767
-40.027	22.874	1912.168	2024.511
-39.013	22.850	1910.872	2022.787
-37.998	22.687	1909.864	2019.765
-36.984	22.931	1907.889	2020.402
-35.969	22.800	1906.146	2016.973
-34.954	22.755	1906.400	2016.648
-33.940	22.782	1904.912	2015.296
-32.925	22.766	1902.927	2012.938
-31.911	22.762	1902.465	2012.321
-30.896	22.738	1900.773	2010.182
-29.881	22.733	1899.706	2008.908
-28.867	22.727	1898.081	2007.039
-27.852	22.781	1896.179	2005.569
-26.838	22.786	1894.237	2003.491
-25.823	22.683	1893.658	2001.631
-24.809	22.695	1892.654	2000.622
-23.794	22.713	1891.135	1999.139
-22.779	22.697	1890.063	1997.749
-21.765	22.620	1888.877	1995.544
-20.750	22.523	1887.639	1993.052
-19.736	22.623	1886.765	1993.183
-18.721	22.661	1885.892	1992.610
-17.706	22.607	1884.277	1990.220
-16.692	22.579	1883.371	1988.863
-15.677	22.687	1881.450	1987.981
-14.663	22.585	1880.376	1985.607
-13.648	22.731	1877.938	1984.605
-12.633	22.555	1878.575	1983.207
-11.619	22.434	1877.845	1980.997
-10.604	22.470	1876.013	1979.393
-9.590	22.619	1873.158	1977.973
-8.575	22.515	1872.790	1976.341
-7.560	22.515	1871.930	1975.357
-6.546	22.419	1871.570	1973.814
-5.531	22.492	1869.379	1972.241
-4.517	22.545	1868.541	1971.880
-3.502	22.456	1867.278	1969.465
-2.487	22.505	1866.758	1969.390
-1.473	22.644	1862.534	1966.418
-0.458	22.432	1844.361	1944.796
0.556	18.869	1990.606	2044.207
1.571	17.598	2192.842	2234.869
2.586	18.206	2232.592	2283.276
3.600	18.215	2235.042	2285.633
4.615	18.250	2234.780	2285.559
5.629	18.241	2232.137	2282.454
6.644	18.254	2229.748	2279.921
7.659	18.251	2227.782	2277.588
8.673	18.197	2227.052	2275.857
9.688	18.036	2234.623	2281.155
10.702	16.844	2314.184	2345.520
11.717	15.297	2378.084	2387.868
12.731	7.366	2360.064	2256.432
13.746	1.111	2342.635	2150.502
14.761	0.182	2339.709	2134.326
15.775	0.138	2337.601	2131.509
16.790	0.026	2336.061	2128.268
17.804	0.020	2334.742	2126.727
18.819	0.024	2333.948	2125.801
19.834	0.006	2331.986	2123.501
20.848	0.028	2331.057	2122.707
21.863	0.107	2328.172	2120.954
22.877	0.062	2327.232	2119.205
23.892	0.042	2324.290	2115.991
24.907	-0.038	2322.833	2113.274
25.921	0.178	2319.727	2113.242
26.936	0.045	2318.208	2109.730
27.950	0.100	2314.974	2107.318
28.965	0.080	2313.320	2105.281
29.980	0.153	2312.241	2105.069
30.994	0.226	2310.703	2104.443
32.009	4.222	2323.547	2172.242
33.023	13.261	2350.061	2325.046
34.038	16.936	2354.347	2380.952
35.053	17.079	2353.088	2381.414
36.067	17.109	2349.434	2377.847
37.082	17.046	2347.933	2375.169
38.096	17.086	2345.616	2373.094
39.111	17.111	2344.008	2371.544
40.126	17.335	2341.469	2371.827
41.140	17.443	2340.171	2371.734
42.155	17.390	2338.618	2369.140
43.169	17.421	2335.889	2366.524
44.184	17.261	2333.211	2361.292
45.199	17.122	2332.181	2358.024
46.213	17.312	2330.203	2358.403
47.228	17.362	2329.528	2358.134
48.242	17.428	2328.266	2357.480
49.257	17.552	2325.417	2356.039
50.271	17.468	2323.218	2352.362
51.286	17.263	2320.714	2346.710
52.301	17.228	2318.260	2343.453
53.315	17.693	2321.145	2352.540
54.330	19.811	2325.052	2385.614
55.344	21.089	2324.739	2402.713
56.359	21.080	2323.406	2400.924
57.374	21.102	2323.218	2400.752
58.388	21.338	2320.037	2400.426
59.403	21.290	2316.216	2395.527
60.417	21.283	2311.728	2390.503
61.432	21.177	2311.078	2388.085
62.447	21.466	2309.678	2390.328
63.461	21.593	2308.000	2390.042
64.476	21.654	2306.924	2389.477
65.490	21.432	2304.384	2383.520
66.505	20.794	2301.254	2371.279
67.520	19.209	2294.761	2342.647
68.534	17.650	2288.242	2314.453
69.549	17.263	2284.249	2304.852
70.563	17.257	2281.359	2301.580
71.578	17.279	2279.993	2300.226
72.593	17.306	2278.277	2298.587
73.607	17.402	2277.845	2299.186
74.622	17.358	2275.463	2295.910
75.636	17.238	2272.033	2290.548
76.651	17.172	2270.812	2288.145
77.666	17.316	2267.687	2286.670
78.680	17.246	2266.630	2284.382
79.695	17.182	2264.398	2281.005
80.709	17.191	2262.562	2278.994
81.724	17.126	2260.734	2276.010
82.739	17.115	2257.558	2272.388
83.753	17.011	2256.080	2269.233
84.768	16.935	2254.814	2266.667
85.782	17.013	2253.028	2265.641
86.797	17.003	2250.970	2263.174
87.812	17.038	2249.605	2262.001
88.826	16.952	2247.823	2258.787
89.841	17.086	2244.876	2257.346
90.855	17.107	2242.272	2254.737
91.870	17.215	2240.165	2253.787
92.884	17.125	2238.843	2250.982
93.899	17.133	2238.993	2250.970
94.914	17.563	2240.554	2258.001
95.928	19.450	2245.038	2287.423
96.943	20.078	2243.307	2293.745
97.957	18.054	2236.352	2259.488
98.972	17.133	2230.875	2241.472
99.987	17.025	2226.977	2235.860
101.001	17.082	2224.888	2234.248
102.016	17.031	2222.886	2231.296
103.030	17.021	2220.853	2228.857
104.045	17.115	2218.110	2227.078
105.060	17.133	2216.608	2225.537
106.074	17.077	2214.943	2222.863
107.089	17.033	2212.968	2220.033
108.103	17.001	2212.754	2219.139
109.118	17.201	2210.201	2218.935
110.133	17.211	2208.962	2217.548
111.147	17.133	2206.942	2214.239
112.162	17.168	2205.320	2212.809
113.176	17.204	2203.055	2210.734
114.191	17.334	2201.912	2211.021
115.206	17.397	2200.007	2209.675
116.220	17.237	2198.129	2205.434
117.235	17.190	2196.498	2202.918
118.249	17.180	2194.029	2200.052
119.264	17.172	2193.189	2198.846
120.279	17.252	2191.711	2198.137
121.293	17.182	2188.857	2194.102
122.308	17.184	2187.986	2192.993
123.322	17.103	2187.070	2190.756
124.337	17.564	2187.721	2197.126
125.352	19.566	2193.314	2228.482
126.366	20.029	2191.052	2231.918
127.381	18.024	2183.078	2197.631
128.395	17.181	2177.512	2180.888
129.410	17.058	2176.106	2177.631
130.424	17.037	2174.649	2175.636
131.439	17.135	2172.835	2174.832
132.454	17.127	2171.252	2172.878
133.468	17.253	2168.025	2171.008
134.483	17.304	2166.751	2170.124
135.497	17.243	2166.238	2168.569
136.512	17.293	2163.737	2166.451
137.527	17.255	2162.010	2163.971
138.541	17.177	2159.940	2160.648
139.556	17.193	2158.590	2159.245
140.570	17.035	2157.879	2156.252
141.585	16.925	2156.497	2153.206
142.600	17.054	2154.392	2152.494
143.614	17.040	2152.693	2150.365
144.629	17.101	2150.704	2148.890
145.643	16.888	2149.359	2144.579
146.658	17.039	2147.524	2144.413
147.673	16.932	2145.544	2140.827
148.687	16.935	2144.185	2139.244
149.702	17.139	2143.489	2140.881
150.716	17.011	2142.744	2138.257
151.731	17.049	2141.248	2136.990
152.746	16.967	2140.034	2134.489
153.760	17.505	2142.254	2143.257
154.775	19.603	2146.564	2173.883
155.789	20.077	2145.874	2178.917
156.804	18.231	2135.401	2144.783
157.819	17.121	2129.841	2124.984
158.833	17.059	2127.419	2121.539
159.848	17.030	2126.336	2119.847
160.862	17.074	2124.561	2118.366
161.877	17.247	2123.048	2118.779
162.892	17.247	2122.273	2117.744
163.906	17.248	2121.542	2116.784
164.921	17.203	2119.130	2113.559
165.935	17.209	2117.145	2111.395
166.950	17.282	2115.182	2110.098
167.964	17.253	2113.305	2107.610
168.979	17.120	2110.860	2103.263
169.994	17.083	2109.831	2101.531
171.008	17.165	2108.233	2100.705
172.023	17.109	2106.960	2098.493
173.037	17.172	2105.195	2097.266
174.052	17.248	2104.054	2096.817
175.067	17.146	2102.541	2093.788
176.081	17.113	2100.620	2091.220
177.096	17.093	2099.870	2089.971
178.110	17.055	2098.650	2088.044
179.125	17.177	2096.802	2087.460
180.140	17.177	2095.535	2085.948
181.154	17.271	2093.806	2085.137
182.169	17.275	2093.169	2084.298
183.183	17.753	2094.194	2090.970
184.198	19.867	2099.268	2121.871
185.213	20.193	2096.987	2123.324
186.227	18.312	2089.198	2092.095
187.242	17.475	2086.080	2078.457
188.256	17.236	2084.825	2074.024
189.271	17.097	2083.239	2070.495
190.286	17.099	2081.197	2068.245
191.300	17.191	2078.057	2065.999
192.315	17.147	2076.883	2064.042
193.329	17.107	2076.497	2062.928
194.344	17.475	2074.776	2065.462
195.359	17.437	2073.931	2063.909
196.373	17.303	2072.168	2060.273
197.388	17.310	2069.089	2057.053
198.402	17.120	2067.194	2052.610
199.417	16.975	2065.114	2048.537
200.432	17.125	2063.445	2048.464
201.446	17.217	2062.833	2048.722
202.461	17.109	2060.571	2044.921
203.475	17.074	2058.023	2041.728
204.490	17.051	2056.546	2039.745
205.504	17.126	2054.823	2038.695
206.519	16.996	2052.886	2034.953
207.534	17.020	2051.182	2033.320
208.548	17.021	2049.604	2031.518
209.563	17.123	2048.305	2031.219
210.577	17.098	2047.831	2030.205
211.592	17.293	2046.409	2030.894
212.607	18.231	2050.441	2045.921
213.621	20.612	2055.824	2079.703
214.636	20.054	2050.055	2066.936
215.650	17.760	2042.158	2031.290
216.665	17.230	2039.581	2022.150
217.680	17.188	2037.132	2018.975
218.694	17.178	2035.812	2017.307
219.709	17.150	2034.503	2015.431
220.723	17.226	2033.621	2015.224
221.738	17.337	2031.274	2013.985
222.753	17.196	2030.337	2011.134
223.767	17.272	2027.935	2009.421
224.782	17.065	2027.684	2006.466
225.796	17.165	2025.886	2005.633
226.811	17.307	2023.462	2004.676
227.826	17.269	2022.019	2002.558
228.840	17.259	2020.404	2000.596
229.855	17.139	2019.592	1998.141
230.869	17.149	2018.201	1996.645
231.884	17.091	2016.641	1994.174
232.899	17.089	2014.811	1992.105
233.913	17.001	2013.874	1989.900
234.928	17.012	2012.372	1988.307
235.942	17.129	2010.872	1987.969
236.957	17.229	2009.565	1987.607
237.972	17.247	2007.109	1985.153
238.986	17.168	2006.533	1983.424
240.001	17.108	2005.220	1981.179
241.015	17.142	2004.157	1980.294
242.030	17.710	2005.301	1987.842
243.045	19.618	2009.076	2013.725
244.059	19.747	2006.713	2012.622
245.074	17.957	1998.492	1983.267
246.088	17.445	1994.328	1972.933
247.103	17.361	1993.037	1970.436
248.117	17.304	1992.353	1968.866
249.132	17.264	1990.580	1966.406
250.147	17.206	1988.566	1963.517
251.161	17.210	1986.858	1961.642
252.176	17.193	1986.729	1961.076
253.190	17.573	1983.733	1962.290
254.205	17.413	1982.709	1959.192
255.220	17.490	1980.531	1957.689
256.234	17.340	1980.498	1955.685
257.249	17.266	1979.146	1953.268
258.263	17.262	1977.532	1951.390
259.278	17.254	1977.641	1951.176
260.293	17.389	1974.167	1949.063
261.307	17.210	1972.622	1945.253
262.322	17.195	1970.962	1943.203
263.336	17.080	1969.170	1939.888
264.351	17.090	1966.773	1937.405
265.366	17.081	1966.032	1936.347
266.380	16.951	1965.666	1934.257
267.395	17.039	1964.384	1933.775
268.409	17.024	1961.607	1930.646
269.424	17.060	1960.869	1930.091
270.439	17.111	1960.111	1929.703
271.453	17.770	1961.586	1938.454
272.468	19.839	1965.802	1966.042
273.482	20.016	1961.613	1963.635
274.497	17.956	1954.077	1932.458
275.512	17.114	1950.845	1919.464
276.526	16.985	1948.831	1915.780
277.541	17.191	1946.712	1915.810
278.555	17.127	1945.135	1913.307
279.570	17.034	1943.107	1910.023
280.585	17.005	1942.302	1908.684
281.599	17.156	1940.707	1908.584
282.614	17.424	1939.277	1909.973
283.628	17.395	1939.736	1909.874
284.643	17.282	1938.459	1907.110
285.657	17.398	1937.104	1906.855
286.672	17.505	1935.737	1906.489
287.687	17.552	1933.302	1904.396
288.701	17.420	1932.370	1901.764
289.716	17.303	1931.602	1899.469
290.730	17.419	1929.263	1898.241
291.745	17.430	1928.028	1896.916
292.760	17.458	1927.010	1896.004
293.774	17.217	1926.764	1892.833
294.789	17.328	1924.627	1891.747
295.803	17.153	1922.624	1887.606
296.818	17.049	1921.290	1884.902
297.833	17.163	1920.055	1884.741
298.847	17.217	1918.603	1883.692
299.862	17.319	1916.540	1882.576
300.876	17.828	1917.671	1889.125
301.891	19.845	1922.595	1916.229
302.906	20.336	1920.378	1919.254
303.920	18.299	1913.406	1889.474
304.935	17.387	1910.081	1875.856
305.949	17.254	1907.496	1871.626
306.964	17.207	1906.297	1869.706
307.979	17.278	1904.738	1868.741
308.993	17.301	1903.635	1867.688
310.008	17.370	1903.088	1867.689
311.022	17.512	1901.606	1867.578
312.037	17.372	1899.713	1863.950
313.052	17.431	1897.536	1862.237
314.066	17.474	1896.888	1861.851
315.081	17.458	1895.408	1860.002
316.095	17.441	1894.282	1858.494
317.110	17.430	1892.049	1855.958
318.125	17.310	1890.286	1852.685
319.139	17.393	1889.639	1852.741
320.154	17.447	1887.944	1851.449
321.168	17.378	1886.915	1849.469
322.183	17.388	1884.115	1846.608
323.197	17.273	1882.896	1843.935
324.212	17.132	1881.085	1840.403
325.227	17.003	1878.764	1836.513
326.241	17.051	1877.742	1835.817
327.256	17.158	1876.658	1835.696
328.270	17.138	1875.861	1834.482
329.285	17.020	1875.961	1833.083
330.300	17.791	1879.196	1844.398
331.314	20.215	1882.710	1873.990
332.329	20.074	1877.772	1867.326
333.343	17.923	1869.928	1836.074
334.358	17.205	1867.201	1825.425
335.373	17.106	1866.898	1823.837
336.387	17.063	1864.290	1820.612
337.402	16.885	1864.212	1818.400
338.416	17.102	1861.325	1817.703
339.431	17.252	1859.833	1817.641
340.446	17.211	1858.173	1815.362
341.460	17.299	1857.638	1815.560
342.475	17.400	1856.761	1815.568
343.489	17.487	1854.692	1814.259
344.504	17.469	1853.756	1812.940
345.519	17.409	1853.112	1811.446
346.533	17.407	1852.322	1810.444
347.548	17.623	1850.126	1810.385
348.562	17.601	1848.048	1807.899
349.577	17.606	1847.396	1807.099
350.592	17.614	1846.442	1806.035
351.606	17.643	1845.052	1804.763
352.621	17.583	1842.377	1801.295
353.635	17.399	1841.068	1797.851
354.650	17.249	1839.588	1794.588
355.665	17.269	1837.134	1792.200
356.679	17.286	1836.894	1791.927
357.694	17.208	1835.609	1789.637
358.708	17.202	1834.463	1788.236
359.723	18.184	1837.330	1801.214
360.738	20.383	1839.845	1826.748
361.752	19.773	1835.551	1815.829
362.767	17.926	1829.610	1790.283
363.781	17.193	1827.447	1780.234
364.796	17.247	1825.262	1778.470
365.810	17.036	1825.208	1775.981
366.825	17.094	1823.417	1774.637
367.840	17.203	1823.113	1775.267
368.854	17.296	1822.282	1775.227
369.869	17.251	1820.053	1772.369
370.883	17.055	1818.395	1768.491
371.898	17.241	1816.567	1768.450
372.913	17.034	1816.219	1765.730
373.927	17.245	1814.256	1765.814
374.942	17.220	1813.966	1765.061
375.956	17.289	1812.496	1764.143
376.971	17.395	1809.683	1762.289
377.986	17.198	1808.078	1758.475
379.000	17.154	1807.435	1757.173
380.015	17.421	1805.640	1757.997
381.029	17.324	1804.478	1755.650
382.044	17.183	1802.176	1751.731
383.059	17.092	1800.492	1748.942
384.073	17.156	1799.318	1748.257
385.088	16.912	1799.450	1745.653
386.102	17.035	1796.638	1743.990
387.117	17.008	1795.164	1742.072
388.132	16.982	1794.484	1740.937
389.146	17.767	1798.033	1752.274
390.161	20.001	1801.569	1778.600
391.175	19.900	1794.964	1770.822
392.190	17.744	1787.214	1740.874
393.205	17.139	1784.636	1731.952
394.219	17.213	1783.323	1731.229
395.234	17.157	1782.247	1729.405
396.248	17.132	1780.800	1727.533
397.263	17.079	1779.077	1725.120
398.278	17.267	1776.767	1724.588
399.292	17.206	1775.926	1722.940
400.307	17.135	1775.722	1721.811
401.321	17.303	1774.760	1722.386
402.336	17.288	1772.988	1720.309
403.350	17.206	1771.977	1718.290
404.365	17.514	1770.573	1719.849
405.380	17.616	1769.334	1719.477
406.394	17.698	1768.671	1719.457
407.409	17.596	1767.414	1716.994
408.423	17.694	1765.672	1716.086
409.438	17.578	1764.115	1713.197
410.453	17.468	1763.980	1711.748
411.467	17.652	1762.001	1711.479
412.482	17.558	1760.295	1708.675
413.496	17.368	1759.206	1705.498
414.511	17.412	1757.142	1703.730
415.526	17.314	1754.264	1699.749
416.540	17.226	1752.437	1696.901
417.555	17.361	1752.228	1697.842
418.569	17.162	1753.775	1697.137
419.584	17.368	1752.423	1697.696
420.599	17.378	1752.366	1697.543
421.613	17.167	1751.469	1694.355
422.628	17.246	1749.771	1693.297
423.642	17.341	1747.614	1691.959
424.657	17.324	1745.620	1689.653
425.672	17.231	1744.787	1687.721
426.686	17.261	1743.971	1687.026
427.701	17.321	1741.788	1685.309
428.715	17.283	1740.878	1683.847
429.730	17.370	1739.918	1683.581
430.745	17.504	1737.830	1682.691
431.759	17.480	1737.360	1681.796
432.774	17.525	1737.940	1682.602
433.788	17.578	1737.334	1682.345
434.803	17.712	1736.557	1682.724
435.818	17.714	1734.881	1680.913
436.832	17.522	1734.969	1678.900
437.847	16.770	1727.669	1664.203
438.861	9.463	1708.242	1573.715
439.876	1.679	1694.210	1484.507
440.890	0.243	1690.167	1466.742
441.905	0.102	1689.414	1464.535
442.920	0.048	1688.534	1463.070
443.934	0.063	1686.827	1461.556
444.949	0.061	1686.267	1460.873
445.963	0.081	1684.399	1459.281
446.978	0.195	1683.604	1459.530
447.993	0.143	1682.298	1457.713
449.007	0.245	1679.833	1456.392
450.022	0.263	1677.791	1454.623
451.036	0.174	1677.320	1453.178
452.051	1.361	1682.046	1468.644
453.066	9.206	1699.288	1560.332
454.080	16.185	1709.251	1637.607
455.095	17.350	1711.039	1650.494
456.109	17.788	1710.893	1654.424
457.124	17.781	1709.931	1653.228
458.139	17.740	1709.109	1651.835
459.153	17.804	1707.468	1650.677
460.168	17.636	1705.859	1647.293
461.182	17.619	1704.503	1645.617
462.197	17.569	1702.154	1642.675
463.212	17.695	1700.127	1641.742
464.226	17.643	1699.835	1640.758
465.241	17.604	1698.716	1639.106
466.255	17.584	1697.729	1637.764
467.270	17.705	1696.137	1637.192
468.285	17.615	1694.536	1634.586
469.299	17.564	1693.922	1633.313
470.314	17.651	1691.606	1631.720
471.328	17.704	1689.661	1630.153
472.343	17.588	1689.440	1628.636
473.358	17.711	1688.422	1628.633
474.372	17.703	1687.441	1627.415
475.387	17.632	1685.910	1625.065
476.401	17.714	1683.977	1623.796
477.416	17.815	1683.589	1624.192
478.430	17.764	1681.956	1621.930
479.445	17.726	1680.389	1619.869
480.460	17.634	1679.843	1618.268
481.474	17.510	1679.221	1616.290
482.489	17.677	1676.865	1615.420
483.503	17.727	1675.860	1614.738
484.518	17.717	1674.836	1613.464
485.533	17.727	1673.147	1611.736
486.547	17.726	1671.720	1610.163
487.562	18.003	1671.108	1612.001
488.576	18.005	1669.461	1610.243
489.591	17.959	1667.768	1607.977
490.606	17.909	1665.977	1605.586
491.620	17.850	1664.633	1603.545
492.635	17.925	1663.297	1602.774
493.649	17.919	1662.336	1601.603
494.664	17.728	1660.922	1598.245
495.679	17.510	1659.382	1594.519
496.693	17.590	1658.332	1594.071
497.708	17.652	1657.453	1593.618
498.722	17.853	1655.652	1593.586
499.737	17.921	1654.684	1593.098
500.752	17.731	1652.840	1589.349
501.766	17.594	1652.129	1587.195
502.781	17.714	1650.052	1586.129
503.795	17.765	1648.112	1584.554
504.810	17.650	1648.379	1583.548
505.825	17.758	1647.514	1583.534
506.839	17.713	1646.842	1582.279
507.854	17.756	1644.518	1580.256
508.868	17.720	1643.769	1579.013
509.883	17.696	1643.121	1577.976
510.898	17.907	1641.203	1577.906
511.912	17.729	1639.026	1573.976
512.927	17.743	1637.369	1572.323
513.941	17.715	1636.362	1570.910
514.956	17.886	1635.283	1571.272
515.971	17.941	1634.672	1571.006
516.985	17.915	1633.028	1568.994
518.000	17.911	1632.359	1568.128
519.014	17.941	1631.359	1567.260
520.029	17.955	1629.573	1565.485
521.043	17.827	1628.923	1563.494
522.058	17.870	1627.269	1562.111
523.073	17.739	1626.517	1560.004
524.087	17.865	1625.889	1560.371
525.102	17.965	1624.074	1559.359
526.116	17.807	1623.057	1556.743
527.131	17.710	1621.667	1554.334
528.146	17.892	1620.908	1555.093
529.160	17.998	1619.786	1554.796
530.175	17.857	1619.223	1552.779
531.189	17.876	1618.277	1551.865
532.204	18.024	1616.037	1550.880
533.219	17.666	1614.726	1546.167
534.233	17.733	1613.816	1545.721
535.248	17.898	1612.849	1546.112
536.262	17.980	1611.936	1545.803
537.277	18.052	1610.589	1544.978
538.292	17.959	1609.134	1542.554
539.306	18.010	1607.254	1541.031
540.321	18.004	1606.203	1539.783
541.335	18.114	1604.907	1539.352
542.350	18.042	1603.444	1537.113
543.365	17.873	1602.573	1534.571
544.379	18.134	1601.002	1535.234
545.394	17.973	1599.514	1532.172
546.408	17.879	1598.266	1529.949
547.423	17.683	1596.714	1526.515
548.438	17.801	1595.249	1525.995
549.452	17.822	1594.422	1525.211
550.467	17.955	1593.383	1525.222
551.481	17.892	1592.188	1523.333
552.496	17.870	1591.964	1522.735
553.511	17.941	1591.595	1522.838
554.525	18.040	1590.031	1522.047
555.540	18.164	1588.846	1521.840
556.554	18.077	1587.803	1519.882
557.569	18.113	1586.108	1518.400
558.583	18.024	1584.921	1516.285
559.598	17.962	1583.427	1514.127
560.613	17.994	1582.261	1513.108
561.627	17.930	1581.652	1511.784
562.642	17.994	1579.969	1510.559
563.656	18.201	1578.239	1510.560
564.671	18.021	1578.148	1508.697
565.686	18.025	1576.064	1506.559
566.700	17.975	1574.527	1504.463
567.715	17.895	1573.452	1502.547
568.729	17.978	1571.568	1501.302
569.744	17.907	1570.953	1499.914
570.759	17.937	1569.969	1499.057
571.773	18.033	1568.690	1498.501
572.788	18.063	1567.597	1497.546
573.802	18.051	1565.450	1495.206
574.817	17.983	1564.345	1493.377
575.832	18.150	1563.286	1493.650
576.846	17.971	1562.498	1491.154
577.861	17.915	1561.106	1489.153
578.875	17.970	1560.363	1488.744
579.890	18.019	1559.542	1488.218
580.905	18.045	1558.463	1487.234
581.919	18.132	1558.115	1487.484
582.934	18.178	1557.358	1486.982
583.948	18.174	1555.751	1485.240
584.963	18.075	1554.056	1482.579
585.978	17.961	1552.842	1480.248
586.992	18.078	1552.390	1480.657
588.007	18.164	1551.455	1480.344
589.021	18.135	1550.256	1478.770
590.036	18.098	1548.587	1476.676
591.051	18.332	1547.282	1477.281
592.065	18.248	1545.777	1474.948
593.080	18.362	1544.286	1474.336
594.094	18.206	1542.238	1470.851
595.109	18.033	1540.708	1467.726
596.123	18.011	1538.470	1465.222
597.138	18.059	1538.275	1465.282
598.153	18.097	1537.151	1464.356
599.167	18.220	1535.772	1463.926
600.182	18.107	1535.376	1462.403
601.196	18.119	1534.503	1461.501
602.211	18.072	1533.034	1459.527
603.226	18.072	1532.559	1458.899
604.240	18.077	1530.972	1457.253
605.255	18.208	1529.491	1456.787
606.269	18.298	1529.090	1457.004
607.284	18.246	1527.597	1454.962
608.299	18.211	1526.100	1453.064
609.313	18.187	1524.350	1451.019
610.328	18.145	1523.737	1449.902
611.342	18.214	1522.210	1448.867
612.357	18.198	1521.516	1447.894
613.372	18.275	1520.807	1447.700
614.386	18.242	1519.018	1445.549
615.401	18.245	1518.537	1444.939
616.415	18.121	1518.650	1443.823
617.430	18.281	1517.472	1443.882
618.445	18.374	1515.926	1443.032
619.459	18.180	1514.980	1440.317
620.474	18.193	1514.224	1439.535
621.488	18.109	1512.798	1437.291
622.503	18.171	1511.464	1436.381
623.518	18.261	1510.417	1435.972
624.532	18.220	1508.889	1434.002
625.547	18.202	1507.511	1432.368
626.561	18.406	1507.024	1433.453
627.576	18.379	1505.871	1431.953
628.591	18.177	1504.848	1429.116
629.605	18.317	1502.956	1428.325
630.620	18.188	1501.675	1425.848
631.634	18.266	1500.740	1425.451
632.649	18.201	1500.355	1424.367
633.663	18.174	1498.968	1422.652
634.678	18.363	1497.969	1423.112
635.693	18.238	1496.915	1420.900
636.707	18.366	1494.572	1419.575
637.722	18.441	1493.747	1419.239
638.736	18.353	1492.993	1417.625
639.751	18.376	1492.130	1416.825
640.766	18.319	1490.431	1414.573
641.780	18.506	1488.928	1414.529
642.795	18.347	1488.708	1412.830
643.809	18.330	1488.151	1411.993
644.824	18.370	1486.892	1410.957
645.839	18.360	1485.395	1409.287
646.853	18.387	1484.324	1408.322
647.868	18.481	1482.847	1407.528
648.882	18.368	1481.877	1405.511
649.897	18.298	1480.866	1403.806
650.912	18.334	1479.598	1402.733
651.926	18.424	1478.144	1401.929
652.941	18.516	1476.325	1400.786
653.955	18.409	1475.260	1398.735
654.970	18.368	1473.836	1396.882
655.985	18.260	1473.177	1395.205
656.999	18.430	1471.339	1394.684
658.014	18.599	1469.866	1394.502
659.028	18.525	1469.500	1393.385
660.043	18.715	1468.618	1393.929
661.058	18.490	1467.267	1390.647
662.072	18.461	1466.394	1389.415
663.087	18.358	1465.746	1387.801
664.101	18.250	1464.559	1385.625
665.116	18.302	1463.722	1385.097
666.131	18.410	1462.552	1384.700
667.145	18.379	1461.450	1383.240
668.160	18.369	1460.490	1382.082
669.174	18.554	1458.125	1381.179
670.189	18.540	1457.431	1380.242
671.204	18.319	1456.997	1377.875
672.218	18.457	1455.492	1377.402
673.233	18.462	1454.195	1376.049
674.247	18.589	1453.171	1375.946
675.262	18.606	1452.227	1375.020
676.276	18.509	1451.511	1373.396
677.291	18.471	1450.364	1371.842
678.306	18.404	1448.899	1369.757
679.320	18.279	1448.252	1367.978
680.335	18.425	1447.610	1368.376
681.349	18.387	1447.116	1367.444
682.364	18.445	1445.491	1366.205
683.379	18.422	1443.973	1364.421
684.393	18.522	1442.369	1363.546
685.408	18.483	1441.378	1362.135
686.422	18.320	1440.591	1359.928
687.437	18.366	1440.574	1360.117
688.452	18.521	1439.304	1359.990
689.466	18.492	1437.376	1357.771
690.481	18.470	1436.394	1356.502
691.495	18.412	1435.865	1355.385
692.510	18.487	1434.453	1354.483
693.525	18.395	1432.615	1351.856
694.539	18.232	1432.548	1350.338
695.554	18.288	1432.348	1350.435
696.568	18.429	1430.955	1350.076
697.583	18.474	1430.108	1349.472
698.598	18.509	1428.876	1348.420
699.612	18.476	1427.878	1347.061
700.627	18.471	1426.693	1345.743
701.641	18.566	1425.307	1345.019
702.656	18.506	1423.853	1343.017
703.671	18.503	1424.047	1343.010
704.685	18.667	1422.680	1342.851
705.700	18.567	1421.960	1341.226
706.714	18.605	1419.988	1339.505
707.729	18.494	1418.125	1336.714
708.744	18.517	1417.615	1336.259
709.758	18.517	1417.215	1335.720
710.773	18.439	1416.183	1333.976
711.787	18.567	1414.398	1333.134
712.802	18.564	1412.947	1331.587
713.816	18.548	1411.863	1330.279
714.831	18.583	1410.902	1329.489
715.846	18.482	1410.103	1327.792
716.860	18.612	1408.974	1327.575
717.875	18.656	1407.903	1326.753
718.889	18.629	1406.549	1325.106
719.904	18.606	1405.666	1323.942
720.919	18.658	1404.984	1323.542
721.933	18.497	1404.216	1321.408
722.948	18.644	1402.538	1320.813
723.962	18.727	1401.534	1320.353
724.977	18.661	1400.388	1318.605
725.992	18.578	1399.740	1317.197
727.006	18.667	1398.066	1316.148
728.021	18.596	1397.214	1314.639
729.035	18.537	1396.054	1312.935
730.050	18.554	1395.041	1311.960
731.065	18.562	1394.003	1310.883
732.079	18.607	1393.008	1310.140
733.094	18.637	1392.070	1309.333
734.108	18.524	1390.684	1307.007
735.123	18.456	1389.405	1305.122
736.138	18.492	1388.275	1304.186
737.152	18.535	1387.264	1303.404
738.167	18.722	1386.094	1303.578
739.181	18.720	1385.550	1302.893
740.196	18.589	1384.818	1301.054
741.211	18.519	1383.927	1299.529
742.225	18.701	1382.422	1299.344
743.240	18.522	1381.022	1296.509
744.254	18.523	1379.306	1294.752
745.269	18.632	1378.380	1294.553
746.284	18.374	1378.316	1292.381
747.298	18.577	1377.409	1292.916
748.313	18.372	1376.074	1289.959
749.327	18.486	1375.051	1289.702
750.342	18.307	1374.544	1287.723
751.356	18.254	1372.816	1285.547
752.371	18.290	1372.020	1284.922
753.386	18.383	1370.939	1284.459
754.400	18.583	1370.229	1285.139
755.415	18.860	1369.158	1286.071
756.429	18.735	1367.615	1283.526
757.444	18.667	1366.560	1281.872
758.459	18.774	1365.812	1281.821
759.473	18.809	1364.698	1280.885
760.488	18.878	1363.643	1280.254
761.502	18.840	1362.374	1278.627
762.517	18.804	1361.387	1277.282
763.532	18.636	1360.090	1274.652
764.546	18.727	1359.098	1274.252
765.561	18.686	1358.784	1273.496
766.575	18.583	1357.809	1271.666
767.590	18.656	1356.196	1270.545
768.605	18.610	1355.109	1269.034
769.619	18.729	1353.549	1268.307
770.634	18.602	1352.953	1266.654
771.648	18.812	1351.848	1267.020
772.663	18.835	1351.137	1266.372
773.678	18.888	1350.057	1265.606
774.692	18.601	1350.349	1263.598
775.707	18.824	1349.209	1264.034
776.721	18.815	1347.721	1262.419
777.736	18.848	1346.476	1261.348
778.751	18.827	1345.306	1259.943
779.765	18.822	1344.274	1258.791
780.780	18.736	1343.564	1257.344
781.794	18.678	1343.043	1256.278
782.809	18.457	1342.236	1253.745
783.824	18.532	1340.574	1252.598
784.838	18.403	1338.787	1249.828
785.853	18.400	1338.565	1249.447
786.867	18.439	1338.260	1249.302
787.882	18.503	1337.289	1248.714
788.897	18.533	1336.306	1247.866
789.911	18.503	1335.555	1246.799
790.926	18.626	1334.477	1246.539
791.940	18.605	1333.180	1245.025
792.955	18.669	1332.213	1244.441
793.969	18.605	1331.455	1243.117
794.984	18.726	1330.011	1242.502
795.999	18.741	1329.078	1241.591
797.013	18.770	1326.779	1239.502
798.028	18.612	1326.685	1238.121
799.042	18.781	1325.331	1237.936
800.057	18.853	1324.011	1237.074
801.072	18.720	1323.055	1235.073
802.086	18.775	1322.087	1234.412
803.101	18.819	1321.123	1233.689
804.115	18.817	1319.984	1232.459
805.130	18.761	1318.763	1230.772
806.145	18.962	1317.427	1230.824
807.159	18.846	1316.296	1228.780
808.174	18.821	1315.275	1227.507
809.188	18.817	1313.918	1226.062
810.203	18.812	1312.126	1224.208
811.218	18.685	1311.483	1222.553
812.232	18.702	1310.011	1221.153
813.247	18.587	1308.970	1219.218
814.261	18.727	1309.031	1220.127
815.276	18.790	1308.354	1219.797
816.291	18.725	1306.682	1217.631
817.305	18.830	1305.468	1217.102
818.320	18.799	1304.221	1215.577
819.334	18.657	1303.096	1213.373
820.349	18.820	1301.243	1212.659
821.364	18.895	1299.743	1211.646
822.378	18.630	1299.137	1209.057
823.393	18.672	1297.714	1207.886
824.407	18.759	1296.139	1206.892
825.422	18.784	1295.612	1206.432
826.437	18.714	1294.835	1205.068
827.451	18.612	1292.993	1202.489
828.466	18.346	1291.833	1199.396
829.480	18.560	1290.003	1199.060
830.495	18.557	1287.895	1196.932
831.509	18.633	1287.515	1196.969
832.524	18.571	1287.391	1196.276
833.539	18.780	1285.893	1196.204
834.553	18.854	1284.576	1195.357
835.568	18.695	1283.789	1193.371
836.582	18.868	1282.645	1193.369
837.597	18.907	1280.717	1191.706
838.612	18.904	1279.378	1190.293
839.626	18.754	1279.080	1188.830
840.641	18.879	1278.531	1189.046
841.655	18.861	1277.296	1187.632
842.670	18.612	1276.428	1184.956
843.685	18.537	1275.678	1183.598
844.699	18.642	1274.217	1182.830
845.714	18.880	1272.715	1182.936
846.728	18.685	1271.932	1180.719
847.743	18.734	1271.380	1180.403
848.758	18.772	1269.982	1179.230
849.772	18.902	1268.305	1178.426
850.787	18.817	1267.220	1176.690
851.801	18.788	1265.988	1175.205
852.816	18.791	1264.607	1173.803
853.831	18.692	1263.477	1171.935
854.845	18.641	1262.037	1170.111
855.860	18.683	1260.370	1168.716
856.874	18.581	1259.282	1166.868
857.889	18.676	1257.816	1166.017
858.904	18.444	1256.518	1163.091
859.918	18.463	1255.153	1161.819
860.933	18.447	1253.873	1160.385
861.947	18.515	1252.691	1159.614
862.962	18.440	1251.514	1157.882
863.977	18.658	1249.895	1157.723
864.991	18.622	1249.890	1157.337
866.006	18.715	1249.534	1157.498
867.020	18.701	1248.689	1156.477
868.035	18.781	1247.467	1155.749
869.049	18.813	1246.492	1154.929
870.064	18.922	1245.640	1154.730
871.079	18.827	1245.045	1153.405
872.093	18.802	1244.573	1152.662
873.108	18.921	1243.169	1152.020
874.122	18.852	1241.788	1150.140
875.137	18.700	1241.355	1148.579
876.152	18.819	1240.954	1148.869
877.166	18.786	1239.273	1146.955
878.181	18.946	1237.458	1146.209
879.195	18.880	1236.883	1145.097
880.210	18.966	1236.411	1145.103
881.225	18.935	1235.199	1143.633
882.239	18.856	1234.388	1142.217
883.254	18.902	1232.965	1141.069
884.268	19.094	1231.696	1141.040
885.283	19.153	1230.169	1139.880
886.298	19.002	1229.060	1137.712
887.312	18.988	1228.342	1136.819
888.327	18.983	1227.585	1135.952
889.341	18.855	1226.428	1133.896
890.356	18.758	1226.222	1132.925
891.371	18.692	1225.677	1131.845
892.385	18.713	1224.913	1131.149
893.400	18.761	1223.319	1129.854
894.414	18.777	1222.244	1128.836
895.429	18.743	1220.320	1126.698
896.444	18.549	1218.669	1123.759
897.458	18.383	1217.626	1121.570
898.473	18.532	1217.165	1121.990
899.487	18.688	1216.566	1122.333
900.502	18.889	1214.639	1121.736
901.517	18.981	1213.232	1120.908
902.531	18.919	1212.944	1120.104
903.546	18.932	1212.521	1119.661
904.560	18.789	1212.365	1118.448
905.575	19.088	1211.341	1119.327
906.589	18.824	1210.242	1116.450
907.604	18.939	1209.753	1116.616
