DTS Sentinel unit serial number:	SN409020Multiplexer serial number:	ORYXHardware model number:	OX4-SRSoftware version number:	ORYX F/W v3.00 Oryx Data Collector v3.7.2.0data status	okinstallation	HaddamTimeLapsedifferential loss correction	single-endedforward channel	channel 3reverse channel	N/Adate	2011/06/21time	21:16:17forward acquisition time	30.00reverse acquisition time	0.00gamma	498.7831k internal	0.1764k external	0.1764temperature offset calibration	1.0074default loss term (dB/km)	0.3790temperature slope calibration	1.3530multiplexer offset coefficient	1.0000multiplexer slope coefficient	1.0000fibre end	0.00T internal ref (°C)	26.94T ext. ref 1 (°C)	20.03T ext. ref 2 (°C)	0.03length (m)	temperature (°C)	Stokes	anti-Stokes-747.200	107.393	-0.127	-0.200
-746.185	102.287	0.150	0.232
-745.171	-200.000	-0.001	-0.467
-744.156	-79.846	0.306	0.135
-743.142	42.774	0.118	-0.142
-742.127	-154.205	-0.103	-0.009
-741.112	257.406	-0.146	-0.333
-740.098	-200.000	0.017	0.399
-739.083	-133.224	0.068	-0.011
-738.069	318.305	0.067	0.167
-737.054	-69.721	-0.103	0.052
-736.039	800.000	-0.032	0.165
-735.025	800.000	0.064	-0.271
-734.010	-136.926	-0.204	-0.030
-732.996	516.139	-0.198	-0.614
-731.981	-84.597	-0.170	0.070
-730.966	-10.592	-0.566	-0.494
-729.952	-88.859	0.291	0.113
-728.937	-38.166	0.380	0.265
-727.923	-200.000	-0.014	0.149
-726.908	-150.934	-0.280	0.028
-725.894	279.908	0.235	-0.556
-724.879	24.572	-0.324	-0.353
-723.864	316.395	-0.101	-0.253
-722.850	-75.017	-0.220	-0.103
-721.835	-200.000	-0.000	0.097
-720.821	-108.123	0.303	0.086
-719.806	256.255	-0.037	0.083
-718.791	138.536	-0.035	-0.061
-717.777	149.165	-0.197	0.352
-716.762	-137.270	-0.114	0.017
-715.748	-200.000	0.004	-0.210
-714.733	32.621	-0.271	-0.308
-713.718	-139.142	0.265	0.037
-712.704	-8.678	-0.330	-0.291
-711.689	-118.934	-0.238	-0.055
-710.675	-160.159	0.441	-0.031
-709.660	800.000	-0.058	0.238
-708.645	40.037	0.250	-0.296
-707.631	-198.524	-0.203	-0.001
-706.616	144.946	-0.042	0.074
-705.602	-123.792	-0.188	-0.039
-704.587	-130.935	0.453	-0.079
-703.572	-54.464	0.011	0.006
-702.558	-159.668	0.529	0.038
-701.543	487.251	0.045	0.137
-700.529	-33.702	0.353	-0.255
-699.514	223.807	-0.062	0.133
-698.499	-72.965	-0.270	0.130
-697.485	-200.000	0.054	-0.321
-696.470	153.383	0.221	-0.399
-695.456	274.235	0.131	-0.305
-694.441	-171.478	-0.293	-0.013
-693.426	-2.068	-0.172	-0.159
-692.412	38.548	-0.356	0.418
-691.397	-115.643	-0.291	-0.071
-690.383	-134.091	0.268	0.043
-689.368	800.000	-0.071	-0.278
-688.354	17.107	0.498	-0.520
-687.339	14.681	0.310	0.319
-686.324	-95.633	0.306	0.107
-685.310	-138.917	-0.308	-0.044
-684.295	-115.052	-0.373	0.092
-683.281	-76.738	-0.562	-0.258
-682.266	109.049	0.203	0.321
-681.251	595.886	0.117	-0.384
-680.237	-141.758	0.205	0.027
-679.222	11.297	-0.439	0.442
-678.208	-78.299	0.317	0.142
-677.193	-56.440	-0.196	-0.114
-676.178	-130.360	-0.287	-0.051
-675.164	800.000	-0.060	-0.349
-674.149	-157.684	-0.287	-0.022
-673.135	316.357	-0.097	0.241
-672.120	590.217	0.037	0.121
-671.105	-3.152	0.321	-0.294
-670.091	168.009	0.300	-0.562
-669.076	613.092	0.090	-0.298
-668.062	27.771	-0.146	-0.162
-667.047	205.875	-0.185	-0.380
-666.032	-1.932	0.306	0.282
-665.018	-143.394	0.336	0.042
-664.003	8.121	0.333	0.329
-662.989	-125.680	0.644	0.127
-661.974	-95.191	-0.308	-0.108
-660.959	-43.252	-0.485	-0.322
-659.945	455.558	0.126	0.368
-658.930	-51.933	-0.614	0.374
-657.916	-117.754	0.162	0.038
-656.901	124.683	0.200	0.331
-655.886	-200.000	0.010	-0.273
-654.872	84.522	0.179	-0.257
-653.857	-122.256	0.074	0.016
-652.843	-70.967	0.354	-0.175
-651.828	800.000	0.067	-0.331
-650.814	-76.442	-0.183	-0.084
-649.799	150.823	0.057	0.102
-648.784	-7.713	-0.171	0.152
-647.770	-156.298	0.630	-0.051
-646.755	800.000	-0.061	-0.275
-645.741	-198.856	-0.484	-0.003
-644.726	34.679	-0.119	0.137
-643.711	-104.759	0.189	-0.057
-642.697	52.221	0.099	-0.124
-641.682	-181.512	0.520	0.013
-640.668	-137.472	0.615	0.090
-639.653	-42.572	-0.017	-0.011
-638.638	-129.839	-0.247	0.044
-637.624	7.938	0.258	0.254
-636.609	250.770	-0.078	0.174
-635.595	-177.854	-0.249	-0.008
-634.580	-42.426	-0.235	0.157
-633.565	-63.742	-0.250	0.134
-632.551	-58.366	0.388	-0.221
-631.536	-75.025	-0.287	-0.135
-630.522	-124.303	-0.339	0.069
-629.507	-200.000	-0.007	0.668
-628.492	0.624	0.220	0.207
-627.478	159.411	0.190	-0.348
-626.463	-99.756	-0.280	0.091
-625.449	16.766	-0.103	0.107
-624.434	-145.980	-0.258	0.030
-623.419	-200.000	-0.032	-0.228
-622.405	-28.505	0.463	0.350
-621.390	800.000	-0.062	0.226
-620.376	40.928	-0.235	0.278
-619.361	-78.163	0.410	-0.184
-618.346	-152.580	-0.023	-0.002
-617.332	-101.487	0.182	-0.058
-616.317	-200.000	-0.034	-0.225
-615.303	-92.347	-0.211	-0.077
-614.288	574.283	0.092	-0.297
-613.273	321.223	0.086	-0.216
-612.259	-58.547	0.403	0.229
-611.244	-40.431	-0.160	-0.109
-610.230	-200.000	-0.054	-0.574
-609.215	-200.000	0.004	-0.441
-608.201	7.737	0.223	-0.219
-607.186	-86.749	-0.341	0.136
-606.171	-34.869	0.341	0.244
-605.157	-166.658	0.391	0.021
-604.142	-200.000	0.021	0.478
-603.128	273.766	0.096	0.223
-602.113	-200.000	0.010	0.165
-601.098	200.604	-0.104	-0.210
-600.084	180.054	-0.268	0.517
-599.069	-134.806	0.534	-0.084
-598.055	34.028	-0.224	-0.255
-597.040	800.000	0.071	-0.395
-596.025	800.000	-0.141	0.585
-595.011	-66.439	-0.427	0.222
-593.996	-154.699	-0.161	0.014
-592.982	800.000	0.050	-0.190
-591.967	58.628	0.288	-0.371
-590.952	-62.541	-0.159	-0.086
-589.938	-130.198	-0.433	-0.077
-588.923	800.000	-0.083	0.326
-587.909	800.000	0.034	0.157
-586.894	-61.139	0.065	0.036
-585.879	-45.929	-0.153	-0.099
-584.865	196.594	-0.118	-0.236
-583.850	-29.352	0.101	0.075
-582.836	-101.791	0.213	0.067
-581.821	7.810	0.216	0.212
-580.806	-200.000	-0.007	-0.402
-579.792	-145.949	0.250	0.029
-578.777	563.136	0.039	0.125
-577.763	-56.460	0.144	0.084
-576.748	-200.000	-0.049	-0.332
-575.733	-66.586	-0.613	-0.317
-574.719	-135.239	-0.437	-0.068
-573.704	-200.000	-0.011	-0.260
-572.690	66.321	-0.156	-0.208
-571.675	447.817	-0.153	0.442
-570.661	-62.142	-0.217	-0.118
-569.646	-40.940	-0.513	-0.346
-568.631	-13.966	0.250	-0.211
-567.617	-45.097	0.258	-0.168
-566.602	316.533	0.204	-0.507
-565.588	-130.110	0.195	0.034
-564.573	-86.259	0.334	0.134
-563.558	-72.930	-0.335	0.160
-562.544	-60.141	-0.297	0.165
-561.529	-118.565	-0.327	0.075
-560.515	-26.364	-0.275	-0.211
-559.500	-91.555	-0.222	0.082
-558.485	-24.072	-0.401	0.313
-557.471	290.336	0.210	0.501
-556.456	33.339	0.162	0.184
-555.442	22.243	0.259	0.277
-554.427	794.810	0.086	0.312
-553.412	-200.000	0.022	0.355
-552.398	147.384	0.021	-0.037
-551.383	-200.000	0.014	0.234
-550.369	177.758	0.169	-0.323
-549.354	-83.782	-0.222	0.092
-548.339	-127.204	-0.253	-0.048
-547.325	-23.834	0.232	0.181
-546.310	-181.174	-0.153	-0.004
-545.296	-87.366	-0.445	-0.176
-544.281	-148.527	-0.320	0.034
-543.266	-20.405	-0.298	-0.240
-542.252	95.697	-0.167	0.250
-541.237	223.612	0.022	-0.047
-540.223	189.711	-0.115	0.227
-539.208	-51.336	0.296	-0.180
-538.193	-52.690	-0.203	-0.122
-537.179	-124.126	-0.320	-0.065
-536.164	-161.148	0.291	-0.020
-535.150	800.000	0.059	0.294
-534.135	-200.000	0.019	-0.393
-533.121	-200.000	0.004	-0.183
-532.106	-200.000	-0.011	-0.214
-531.091	-125.863	-0.275	0.054
-530.077	-95.796	-0.162	0.056
-529.062	20.585	0.074	-0.079
-528.048	-160.176	0.119	-0.008
-527.033	10.002	-0.087	0.086
-526.018	20.733	-0.252	-0.267
-525.004	-89.238	-0.441	-0.169
-523.989	-143.971	-0.538	-0.065
-522.975	306.792	0.129	0.316
-521.960	466.281	-0.020	0.060
-520.945	-42.564	0.292	-0.194
-519.931	-143.266	-0.253	-0.031
-518.916	37.608	0.282	-0.327
-517.902	-108.414	0.420	-0.117
-516.887	-120.761	-0.345	-0.075
-515.872	41.439	-0.292	0.345
-514.858	552.776	-0.249	0.786
-513.843	-153.798	0.289	0.026
-512.829	-110.997	0.664	-0.177
-511.814	-200.000	-0.035	0.264
-510.799	-2.821	-0.156	0.142
-509.785	-29.501	-0.445	0.332
-508.770	-175.982	-0.338	-0.012
-507.756	59.570	0.168	-0.217
-506.741	269.928	-0.061	-0.140
-505.726	-12.997	-0.077	-0.065
-504.712	6.920	-0.036	0.035
-503.697	800.000	0.025	-0.143
-502.683	11.130	-0.317	-0.317
-501.668	-43.807	-0.419	0.275
-500.653	108.651	-0.060	0.094
-499.639	800.000	0.008	-0.037
-498.624	-122.904	0.527	-0.110
-497.610	18.196	0.193	0.201
-496.595	-87.231	-0.390	0.154
-495.581	-200.000	0.022	0.211
-494.566	800.000	-0.081	-0.402
-493.551	155.982	-0.147	-0.265
-492.537	13.328	-0.299	-0.302
-491.522	343.463	-0.008	-0.021
-490.508	44.609	0.058	-0.070
-489.493	800.000	-0.104	-0.550
-488.478	-29.385	0.300	-0.223
-487.464	800.000	-0.058	-0.255
-486.449	-87.718	0.110	-0.043
-485.435	-21.112	-0.375	-0.299
-484.420	464.883	-0.030	-0.089
-483.405	-67.050	0.405	-0.208
-482.391	69.051	0.202	-0.271
-481.376	-49.059	-0.152	0.095
-480.362	-38.907	-0.210	-0.144
-479.347	-39.112	-0.099	0.068
-478.332	-190.089	0.335	-0.005
-477.318	-115.670	-0.226	0.055
-476.303	37.625	0.235	0.272
-475.289	-200.000	0.150	0.000
-474.274	-76.113	-0.301	-0.138
-473.259	-123.130	0.435	0.090
-472.245	-36.819	-0.258	0.181
-471.230	261.712	0.193	0.438
-470.216	58.672	-0.145	0.186
-469.201	-34.413	-0.334	-0.239
-468.186	51.605	-0.330	0.410
-467.172	221.708	0.268	0.563
-466.157	346.464	0.056	0.144
-465.143	-153.274	0.635	-0.057
-464.128	-191.801	-0.448	0.006
-463.113	-166.332	0.091	-0.005
-462.099	46.320	0.074	-0.089
-461.084	-81.076	0.322	0.138
-460.070	-83.952	-0.075	0.031
-459.055	335.383	-0.227	0.576
-458.040	37.309	0.093	0.108
-457.026	-34.933	0.250	-0.178
-456.011	-125.906	0.274	-0.053
-454.997	-200.000	-0.002	0.127
-453.982	-178.847	0.238	0.007
-452.968	140.772	-0.266	0.460
-451.953	-161.306	0.129	0.009
-450.938	70.242	-0.130	-0.176
-449.924	-109.266	-0.175	0.048
-448.909	-113.411	-0.650	-0.165
-447.895	-103.993	-0.589	0.178
-446.880	210.970	-0.176	0.362
-445.865	-95.683	0.287	-0.099
-444.851	128.215	-0.052	0.086
-443.836	417.007	0.083	-0.232
-442.822	-46.502	0.378	0.241
-441.807	-1.721	0.042	-0.038
-440.792	-200.000	0.072	-0.494
-439.778	533.773	-0.096	0.297
-438.763	-200.000	-0.008	-0.094
-437.749	115.830	0.330	-0.527
-436.734	-114.716	-0.484	-0.120
-435.719	-3.759	-0.228	0.206
-434.705	-119.872	0.068	-0.015
-433.690	437.227	-0.094	0.267
-432.676	-73.899	-0.088	-0.041
-431.661	-162.947	-0.531	-0.033
-430.646	227.479	0.293	-0.623
-429.632	800.000	-0.076	-0.434
-428.617	96.341	0.312	-0.466
-427.603	-75.018	-0.187	-0.087
-426.588	73.704	0.102	-0.140
-425.573	-200.000	0.020	-0.377
-424.559	757.542	0.074	-0.262
-423.544	-110.359	0.169	-0.045
-422.530	201.593	0.044	0.089
-421.515	-200.000	0.028	-0.171
-420.500	-200.000	-0.071	-0.571
-419.486	367.486	-0.173	-0.458
-418.471	-200.000	-0.020	0.183
-417.457	-131.803	-0.197	0.033
-416.442	-21.681	0.295	0.233
-415.428	75.304	0.112	0.154
-414.413	-38.787	0.170	0.116
-413.398	152.264	-0.153	-0.272
-412.384	-49.685	0.284	-0.175
-411.369	-1.102	-0.127	0.116
-410.355	-132.712	0.326	0.054
-409.340	192.990	-0.294	-0.579
-408.325	-14.559	-0.414	0.346
-407.311	665.723	-0.029	0.098
-406.296	280.192	-0.228	-0.532
-405.282	62.525	-0.246	0.320
-404.267	54.737	0.204	0.257
-403.252	-165.654	0.160	-0.009
-402.238	718.361	0.024	0.085
-401.223	138.837	0.270	0.462
-400.209	86.449	0.242	0.348
-399.194	-200.000	0.016	0.114
-398.179	-90.420	-0.082	-0.031
-397.165	-92.609	0.209	0.076
-396.150	-99.380	-0.337	-0.110
-395.136	147.895	-0.359	0.631
-394.121	523.322	0.022	0.068
-393.106	800.000	-0.093	0.393
-392.092	-37.369	-0.439	0.304
-391.077	-73.084	-0.593	-0.281
-390.063	-200.000	-0.130	1.011
-389.048	-10.201	-0.294	0.253
-388.033	-182.207	0.444	0.011
-387.019	46.234	0.064	0.077
-386.004	-200.000	0.004	-0.208
-384.990	-61.991	-0.536	-0.290
-383.975	800.000	-0.062	-0.232
-382.960	-111.514	-0.577	-0.151
-381.946	25.897	0.084	0.091
-380.931	-200.000	-0.141	0.001
-379.917	-80.115	0.408	-0.177
-378.902	-52.834	0.320	-0.191
-377.888	293.645	-0.131	-0.312
-376.873	157.291	-0.110	0.199
-375.858	-142.447	0.580	0.073
-374.844	-95.190	0.402	0.140
-373.829	-26.751	-0.398	-0.302
-372.815	65.455	0.347	0.457
-371.800	-114.933	0.391	0.096
-370.785	279.685	0.203	-0.473
-369.771	273.768	-0.200	0.461
-368.756	-35.909	-0.054	-0.038
-367.742	-200.000	-0.005	-0.171
-366.727	21.563	-0.244	-0.257
-365.712	-61.697	-0.390	-0.211
-364.698	-103.271	0.148	-0.045
-363.683	31.799	-0.139	-0.156
-362.669	44.327	-0.274	0.327
-361.654	-83.384	-0.091	-0.038
-360.639	135.457	0.256	0.433
-359.625	75.573	0.119	-0.163
-358.610	190.066	0.261	0.511
-357.596	18.248	-0.142	-0.147
-356.581	198.170	-0.080	0.158
-355.566	35.696	-0.183	0.209
-354.552	279.786	-0.207	-0.481
-353.537	151.844	0.310	-0.550
-352.523	575.422	0.057	0.182
-351.508	-60.408	0.369	-0.203
-350.493	-28.464	0.335	-0.251
-349.479	-62.872	-0.339	0.182
-348.464	191.656	0.146	0.286
-347.450	-200.000	-0.008	0.113
-346.435	800.000	-0.067	0.271
-345.420	75.469	-0.369	0.506
-344.406	23.816	-0.090	0.096
-343.391	237.306	0.074	0.159
-342.377	-128.933	0.099	0.018
-341.362	425.410	0.153	-0.429
-340.348	163.519	0.142	-0.261
-339.333	-200.000	-0.015	0.681
-338.318	800.000	-0.048	0.212
-337.304	-22.463	0.130	0.102
-336.289	-200.000	0.069	0.413
-335.275	-92.471	0.437	-0.158
-334.260	27.991	-0.073	-0.080
-333.245	437.747	-0.056	0.158
-332.231	-33.263	0.401	-0.287
-331.216	51.550	0.165	-0.204
-330.202	-80.209	0.261	-0.113
-329.187	-54.674	0.218	0.128
-328.172	-177.415	-0.173	-0.005
-327.158	-123.072	0.147	-0.030
-326.143	58.248	-0.278	-0.354
-325.129	-145.151	-0.122	0.014
-324.114	262.327	-0.199	0.450
-323.099	-200.000	0.001	0.128
-322.085	-42.977	0.112	-0.073
-321.070	-200.000	-0.009	0.111
-320.056	-157.009	0.634	-0.050
-319.041	-92.985	-0.120	-0.043
-318.026	-200.000	-0.004	-0.296
-317.012	98.447	-0.028	-0.042
-315.997	-126.939	-0.680	-0.129
-314.983	-83.735	0.350	0.144
-313.968	-200.000	-0.049	-0.556
-312.953	179.639	-0.119	-0.226
-311.939	347.616	-0.088	-0.226
-310.924	-137.497	0.162	-0.024
-309.910	362.796	0.100	-0.261
-308.895	-146.810	0.287	-0.032
-307.880	800.000	0.127	0.505
-306.866	28.379	0.375	-0.411
-305.851	74.918	0.058	-0.079
-304.837	-22.691	0.140	0.109
-303.822	-15.081	0.130	0.108
-302.807	-30.566	-0.337	0.247
-301.793	-109.877	0.468	-0.126
-300.778	13.150	-0.332	0.333
-299.764	-200.000	-0.083	-0.514
-298.749	586.640	-0.180	-0.576
-297.735	-200.000	0.005	-0.262
-296.720	-92.868	-0.222	0.080
-295.705	-200.000	0.044	-0.470
-294.691	19.447	-0.323	-0.336
-293.676	-136.544	0.374	0.056
-292.662	-26.700	0.238	-0.180
-291.647	800.000	-0.081	-0.302
-290.632	10.285	-0.101	0.099
-289.618	33.435	-0.146	-0.165
-288.603	-131.598	0.460	-0.078
-287.589	89.820	-0.164	-0.238
-286.574	-11.080	-0.364	0.310
-285.559	-200.000	-0.003	-0.122
-284.545	294.520	-0.106	-0.251
-283.530	-69.992	0.348	0.171
-282.516	15.263	0.166	-0.169
-281.501	-200.000	-0.045	0.300
-280.486	184.624	-0.210	-0.404
-279.472	-26.345	-0.150	0.114
-278.457	-127.054	0.236	-0.044
-277.443	452.388	-0.150	-0.431
-276.428	68.590	0.188	0.249
-275.413	-200.000	0.000	0.185
-274.399	58.330	-0.167	0.213
-273.384	-105.988	0.693	0.200
-272.370	15.149	0.321	-0.325
-271.355	-154.572	0.106	-0.009
-270.340	427.099	0.032	0.088
-269.326	-130.903	-0.112	0.019
-268.311	-71.637	-0.171	0.082
-267.297	299.616	-0.173	0.414
-266.282	-87.679	0.173	-0.067
-265.267	86.329	0.345	-0.492
-264.253	-176.868	-0.647	0.021
-263.238	340.090	0.141	-0.357
-262.224	-103.434	0.569	-0.172
-261.209	191.053	-0.100	-0.196
-260.195	-52.413	-0.185	-0.111
-259.180	-30.920	-0.138	-0.100
-258.165	-20.621	0.396	-0.314
-257.151	-96.613	-0.335	0.114
-256.136	-165.911	-0.686	0.037
-255.122	-117.123	-0.368	-0.086
-254.107	-71.697	-0.471	0.226
-253.092	-147.847	0.488	0.052
-252.078	-42.961	0.173	-0.113
-251.063	-138.811	-0.743	-0.104
-250.049	-200.000	0.026	0.243
-249.034	-200.000	0.014	-0.142
-248.019	-200.000	-0.082	0.573
-247.005	-200.000	-0.010	0.172
-245.990	800.000	-0.091	0.347
-244.976	43.351	0.266	0.314
-243.961	800.000	0.042	-0.220
-242.946	-43.773	-0.225	0.146
-241.932	87.183	0.133	0.190
-240.917	0.916	-0.293	-0.271
-239.903	-152.262	0.290	0.027
-238.888	-200.000	0.009	-0.090
-237.873	-159.407	0.339	0.024
-236.859	-131.400	0.607	-0.103
-235.844	84.699	0.358	0.507
-234.830	-37.099	0.111	-0.077
-233.815	-154.658	-0.135	-0.011
-232.800	800.000	0.066	-0.280
-231.786	18.488	0.218	-0.225
-230.771	37.576	0.121	-0.139
-229.757	-84.968	0.188	-0.076
-228.742	-35.978	0.263	-0.183
-227.727	294.833	0.030	-0.071
-226.713	-40.678	-0.193	-0.129
-225.698	800.000	-0.039	0.214
-224.684	92.019	0.084	-0.122
-223.669	-11.016	0.365	-0.311
-222.655	-200.000	-0.107	-0.000
-221.640	442.724	0.049	0.139
-220.625	-53.005	0.592	0.350
-219.611	-124.482	-0.443	0.088
-218.596	160.768	0.246	0.444
-217.582	-67.625	-0.307	0.155
-216.567	-55.460	0.169	-0.098
-215.552	-3.114	-0.401	-0.361
-214.538	-200.000	0.008	0.231
-213.523	-200.000	-0.022	0.214
-212.509	11.444	0.030	-0.030
-211.494	392.836	0.137	-0.370
-210.479	-0.505	0.123	0.113
-209.465	-50.351	-0.040	-0.024
-208.450	735.539	-0.082	-0.287
-207.436	800.000	-0.105	0.380
-206.421	-127.312	0.340	-0.063
-205.406	-38.086	-0.245	-0.168
-204.392	20.074	0.052	0.055
-203.377	-200.000	0.009	-0.164
-202.363	-187.562	0.461	0.008
-201.348	322.001	-0.057	0.141
-200.333	87.006	0.106	-0.152
-199.319	-84.136	-0.240	-0.098
-198.304	-18.032	0.361	-0.291
-197.290	-87.765	0.435	0.168
-196.275	-200.000	-0.034	-0.213
-195.260	0.394	-0.027	-0.024
-194.246	-83.787	0.078	0.032
-193.231	350.958	0.213	0.546
-192.217	-200.000	-0.004	0.075
-191.202	39.792	0.090	-0.104
-190.187	800.000	-0.069	0.266
-189.173	800.000	-0.098	0.552
-188.158	16.970	0.243	-0.249
-187.144	800.000	-0.114	0.541
-186.129	-200.000	0.011	0.223
-185.114	800.000	-0.032	-0.117
-184.100	23.725	-0.040	-0.042
-183.085	126.644	0.178	-0.292
-182.071	222.058	0.228	0.475
-181.056	750.385	0.077	0.271
-180.042	-123.606	0.490	0.099
-179.027	-82.648	-0.155	0.064
-178.012	-29.991	0.250	0.183
-176.998	657.725	0.114	-0.379
-175.983	-200.000	-0.023	0.229
-174.969	8.555	0.298	0.289
-173.954	-54.390	-0.118	0.069
-172.939	-90.427	0.394	0.146
-171.925	-23.949	0.269	-0.207
-170.910	-132.802	-0.340	-0.055
-169.896	-73.723	0.135	-0.063
-168.881	-77.585	0.251	-0.112
-167.866	5.679	-0.290	-0.276
-166.852	358.490	-0.113	0.292
-165.837	-200.000	-0.063	0.650
-164.823	34.786	-0.418	0.472
-163.808	-35.032	0.260	0.182
-162.793	800.000	0.015	-0.056
-161.779	-106.408	-0.534	-0.153
-160.764	-200.000	0.033	-0.189
-159.750	-65.454	0.281	-0.145
-158.735	-119.456	-0.130	-0.029
-157.720	-200.000	-0.005	0.143
-156.706	333.188	0.051	-0.127
-155.691	800.000	0.076	-0.309
-154.677	46.018	0.060	0.072
-153.662	349.529	-0.189	-0.484
-152.647	-120.657	-0.098	0.021
-151.633	355.002	0.164	0.423
-150.618	36.302	0.291	0.330
-149.604	-21.363	0.095	0.075
-148.589	317.673	-0.177	0.433
-147.574	-144.121	0.356	0.042
-146.560	-66.879	0.361	0.183
-145.545	-200.000	0.015	-0.242
-144.531	414.500	-0.071	-0.196
-143.516	64.449	0.266	-0.345
-142.502	33.094	-0.209	0.233
-141.487	-71.307	0.262	-0.126
-140.472	-86.083	-0.246	0.097
-139.458	-161.132	-0.127	0.008
-138.443	-143.633	-0.487	-0.059
-137.429	306.755	-0.101	0.244
-136.414	13.225	-0.169	0.169
-135.399	800.000	0.078	-0.425
-134.385	5.739	0.146	0.139
-133.370	-18.884	0.143	-0.115
-132.356	800.000	-0.055	0.292
-131.341	-32.364	-0.208	-0.149
-130.326	800.000	-0.067	-0.274
-129.312	-200.000	0.040	0.525
-128.297	-127.166	0.470	0.088
-127.283	-23.167	0.247	0.191
-126.268	35.691	-0.078	-0.088
-125.253	-0.433	-0.239	-0.219
-124.239	313.635	0.060	-0.145
-123.224	-200.000	-0.055	0.336
-122.210	231.499	0.213	0.450
-121.195	101.440	-0.154	-0.231
-120.180	94.757	-0.184	-0.270
-119.166	-85.149	-0.434	0.174
-118.151	-8.207	0.017	0.015
-117.137	-200.000	0.018	-0.306
-116.122	-28.426	-0.014	0.010
-115.107	5.015	0.122	0.116
-114.093	93.502	-0.309	0.451
-113.078	-50.219	-0.348	0.211
-112.064	-200.000	0.047	0.539
-111.049	-200.000	0.041	0.268
-110.034	-84.677	0.369	-0.149
-109.020	-200.000	-0.009	-0.085
-108.005	86.772	0.164	-0.233
-106.991	-65.485	0.119	0.061
-105.976	171.491	0.138	0.255
-104.962	-179.339	0.130	0.004
-103.947	800.000	0.064	0.335
-102.932	-200.000	-0.023	-0.307
-101.918	-143.775	-0.647	-0.078
-100.903	-63.057	0.293	0.155
-99.889	-106.035	0.215	-0.062
-98.874	800.000	-0.058	-0.307
-97.859	193.803	-0.283	-0.553
-96.845	800.000	0.083	-0.405
-95.830	-21.291	-0.221	-0.173
-94.816	265.882	0.134	0.302
-93.801	-112.222	-0.032	0.008
-92.786	-64.260	-0.156	-0.081
-91.772	26.435	-0.223	-0.240
-90.757	-200.000	-0.003	-0.265
-89.743	-99.770	-0.461	0.147
-88.728	-58.892	-0.169	-0.093
-87.713	187.427	-0.282	-0.542
-86.699	-28.564	-0.471	-0.348
-85.684	-71.731	0.261	-0.125
-84.670	278.402	0.109	-0.250
-83.655	51.434	0.207	0.253
-82.640	-68.530	0.479	-0.238
-81.626	131.471	0.115	-0.190
-80.611	-123.392	-0.308	-0.063
-79.597	258.271	-0.123	-0.273
-78.582	154.506	0.182	-0.322
-77.567	400.748	-0.167	-0.452
-76.553	52.391	-0.126	0.154
-75.538	-200.000	0.231	0.001
-74.524	-136.173	0.340	-0.051
-73.509	392.455	0.075	0.201
-72.494	-56.078	-0.301	0.172
-71.480	158.107	-0.015	0.027
-70.465	-156.679	0.630	-0.049
-69.451	109.864	0.149	-0.230
-68.436	-39.525	0.317	-0.213
-67.422	179.492	0.121	0.229
-66.407	150.075	-0.149	-0.261
-65.392	47.863	-0.043	-0.052
-64.378	-161.453	0.250	0.016
-63.363	-37.354	0.203	0.139
-62.349	-49.549	-0.210	0.128
-61.334	-39.932	-2.049	-1.369
-60.319	113.445	1.061	1.656
-59.305	240.880	-3.413	-7.337
-58.290	33.558	4.203	4.689
-57.276	413.251	3.921	10.754
-56.261	-200.000	18.934	284.991
-55.246	377.533	1265.693	3335.132
-54.232	54.763	2843.522	3523.195
-53.217	54.185	2685.860	3318.785
-52.203	37.069	2414.826	2743.159
-51.188	32.545	2076.095	2302.835
-50.173	28.863	1956.856	2127.739
-49.159	27.550	1946.685	2101.389
-48.144	27.197	1941.697	2091.829
-47.130	27.217	1939.097	2089.186
-46.115	27.149	1938.565	2087.737
-45.100	27.203	1936.070	2085.598
-44.086	27.294	1934.099	2084.438
-43.071	27.108	1933.911	2082.009
-42.057	27.160	1931.600	2080.030
-41.042	27.173	1930.860	2079.306
-40.027	27.072	1929.835	2076.957
-39.013	27.145	1927.851	2075.579
-37.998	27.077	1926.690	2073.471
-36.984	27.049	1925.422	2071.698
-35.969	27.147	1924.365	2071.605
-34.954	27.192	1922.834	2070.384
-33.940	27.088	1921.261	2067.420
-32.925	26.962	1920.235	2064.789
-31.911	27.094	1918.630	2064.493
-30.896	26.944	1918.258	2062.295
-29.881	27.007	1917.082	2061.671
-28.867	27.081	1914.579	2059.738
-27.852	26.760	1914.876	2056.317
-26.838	26.977	1911.563	2055.150
-25.823	26.978	1910.423	2053.856
-24.809	26.876	1909.792	2051.931
-23.794	26.843	1908.336	2049.910
-22.779	27.012	1906.327	2049.595
-21.765	27.079	1905.496	2049.377
-20.750	26.969	1904.059	2046.504
-19.736	26.905	1903.322	2044.911
-18.721	26.944	1902.345	2044.220
-17.706	27.005	1901.408	2043.824
-16.692	26.874	1900.527	2041.307
-15.677	27.045	1897.907	2040.342
-14.663	26.735	1898.008	2036.867
-13.648	26.771	1895.558	2034.566
-12.633	26.922	1894.048	2034.562
-11.619	26.796	1893.089	2032.038
-10.604	26.839	1891.739	2030.988
-9.590	26.894	1890.868	2030.590
-8.575	26.870	1889.230	2028.489
-7.560	26.767	1888.638	2026.608
-6.546	26.757	1887.064	2024.730
-5.531	26.680	1886.356	2023.027
-4.517	26.744	1885.469	2022.710
-3.502	26.794	1884.829	2022.509
-2.487	26.770	1882.984	2020.174
-1.473	26.774	1879.597	2016.510
-0.458	26.424	1859.468	1990.966
0.556	21.905	2000.996	2076.343
1.571	19.707	2207.823	2261.804
2.586	20.426	2249.923	2314.286
3.600	20.502	2252.402	2317.584
4.615	20.554	2251.112	2316.680
5.629	20.545	2249.188	2314.294
6.644	20.541	2246.697	2311.401
7.659	20.538	2245.816	2310.177
8.673	20.535	2243.804	2307.800
9.688	20.376	2250.435	2312.212
10.702	19.156	2328.306	2375.031
11.717	17.051	2392.947	2410.650
12.731	8.119	2371.004	2261.396
13.746	1.083	2352.911	2144.069
14.761	0.184	2349.414	2127.855
15.775	0.135	2346.835	2124.568
16.790	0.135	2345.338	2122.968
17.804	-0.019	2344.117	2119.427
18.819	-0.015	2343.620	2118.777
19.834	0.032	2341.519	2117.284
20.848	0.093	2340.401	2116.878
21.863	0.007	2338.869	2114.025
22.877	0.034	2336.647	2112.153
23.892	0.056	2334.297	2110.080
24.907	0.035	2331.856	2107.330
25.921	-0.011	2330.640	2105.330
26.936	0.045	2328.630	2104.043
27.950	-0.002	2325.803	2100.578
28.965	-0.043	2323.900	2098.036
29.980	0.179	2321.485	2098.715
30.994	0.102	2320.178	2096.208
32.009	3.878	2331.621	2159.354
33.023	13.670	2360.797	2324.708
34.038	17.850	2367.597	2390.088
35.053	17.824	2363.957	2385.761
36.067	17.649	2361.022	2380.054
37.082	17.563	2358.738	2376.266
38.096	17.731	2357.101	2376.691
39.111	17.994	2355.748	2378.721
40.126	18.313	2353.607	2380.731
41.140	18.415	2352.864	2381.121
42.155	18.514	2350.547	2379.877
43.169	18.404	2348.548	2376.029
44.184	18.031	2344.832	2366.788
45.199	18.052	2342.929	2364.883
46.213	18.329	2342.179	2367.685
47.228	18.349	2341.301	2366.802
48.242	18.422	2339.959	2366.168
49.257	18.507	2338.670	2365.762
50.271	18.614	2336.730	2364.995
51.286	18.383	2332.607	2357.350
52.301	18.192	2331.222	2353.027
53.315	19.042	2334.663	2367.980
54.330	22.341	2343.839	2422.744
55.344	24.453	2346.137	2454.049
56.359	24.763	2343.576	2455.354
57.374	24.859	2342.969	2455.750
58.388	24.851	2340.837	2453.102
59.403	24.671	2334.822	2444.037
60.417	24.217	2331.157	2433.674
61.432	24.290	2329.753	2432.929
62.447	24.469	2328.768	2434.059
63.461	24.698	2326.648	2434.689
64.476	24.743	2325.156	2433.447
65.490	24.502	2323.547	2428.178
66.505	23.582	2319.091	2410.671
67.520	21.248	2309.585	2368.730
68.534	18.679	2300.045	2323.744
69.549	18.096	2294.077	2309.523
70.563	17.851	2292.477	2304.306
71.578	17.776	2290.749	2301.272
72.593	17.840	2288.616	2299.731
73.607	17.951	2288.049	2300.385
74.622	18.136	2285.232	2299.780
75.636	17.960	2282.261	2294.135
76.651	17.698	2280.183	2288.246
77.666	17.688	2278.690	2286.336
78.680	17.659	2276.017	2282.986
79.695	17.300	2273.546	2275.401
80.709	17.192	2272.336	2272.474
81.724	17.301	2269.596	2270.918
82.739	17.369	2266.709	2268.677
83.753	17.393	2265.274	2267.285
84.768	17.328	2263.262	2264.129
85.782	17.202	2262.154	2261.069
86.797	17.125	2259.091	2256.704
87.812	17.157	2257.632	2255.410
88.826	17.373	2255.865	2256.257
89.841	17.417	2253.772	2254.477
90.855	17.414	2251.413	2251.803
91.870	17.447	2250.626	2251.189
92.884	17.510	2248.434	2249.555
93.899	17.611	2247.730	2249.923
94.914	18.435	2251.274	2264.156
95.928	21.397	2259.867	2311.949
96.943	22.398	2258.804	2323.876
97.957	19.434	2246.436	2271.705
98.972	17.640	2238.760	2239.996
99.987	17.303	2235.837	2232.357
101.001	17.252	2234.178	2229.759
102.016	17.346	2231.417	2227.964
103.030	17.152	2230.306	2224.047
104.045	17.273	2227.160	2222.228
105.060	17.278	2226.205	2221.070
106.074	17.350	2223.967	2219.521
107.089	17.475	2221.837	2218.765
108.103	17.417	2220.839	2216.739
109.118	17.413	2220.039	2215.633
110.133	17.540	2217.908	2214.894
111.147	17.415	2215.227	2210.326
112.162	17.498	2213.722	2209.634
113.176	17.611	2212.750	2209.885
114.191	17.783	2211.210	2210.312
115.206	17.785	2209.389	2208.259
116.220	17.780	2206.946	2205.482
117.235	17.719	2205.631	2203.113
118.249	17.905	2203.228	2202.861
119.264	17.814	2201.971	2200.167
120.279	17.784	2200.915	2198.452
121.293	17.747	2199.422	2196.223
122.308	17.841	2197.693	2195.451
123.322	17.689	2196.387	2191.917
124.337	18.287	2196.179	2199.168
125.352	21.278	2207.314	2248.822
126.366	22.109	2204.586	2256.499
127.381	19.094	2192.495	2205.088
128.395	17.716	2186.910	2181.506
129.410	17.625	2184.535	2177.700
130.424	17.399	2183.511	2173.518
131.439	17.627	2180.961	2173.649
132.454	17.738	2179.930	2173.782
133.468	17.889	2177.009	2172.540
134.483	18.053	2175.951	2173.314
135.497	17.990	2174.913	2171.217
136.512	17.853	2173.033	2167.327
137.527	17.694	2170.872	2162.883
138.541	17.501	2168.476	2157.788
139.556	17.465	2167.561	2156.159
140.570	17.389	2166.480	2153.859
141.585	17.273	2163.408	2149.077
142.600	17.278	2162.246	2147.718
143.614	17.304	2160.195	2145.759
144.629	17.224	2159.266	2143.570
145.643	17.111	2157.694	2140.321
146.658	17.137	2156.020	2138.728
147.673	17.237	2152.917	2136.656
148.687	17.220	2152.873	2136.145
149.702	17.385	2152.224	2137.324
150.716	17.460	2151.052	2136.853
151.731	17.444	2149.279	2134.632
152.746	17.480	2148.534	2134.096
153.760	18.349	2152.404	2148.645
154.775	21.525	2160.988	2197.104
155.789	22.664	2159.308	2209.493
156.804	19.818	2146.759	2160.704
157.819	17.581	2139.771	2125.384
158.833	17.369	2136.606	2119.337
159.848	17.361	2133.248	2115.651
160.862	17.594	2132.341	2117.403
161.877	17.656	2131.692	2117.286
162.892	17.632	2131.555	2116.596
163.906	17.841	2129.346	2116.750
164.921	17.671	2127.732	2112.782
165.935	17.594	2125.241	2109.090
166.950	17.648	2124.002	2108.274
167.964	17.732	2121.192	2106.282
168.979	17.373	2119.102	2099.502
169.994	17.272	2117.676	2096.586
171.008	17.158	2115.835	2093.104
172.023	17.271	2114.701	2093.121
173.037	17.343	2114.166	2093.232
174.052	17.605	2112.852	2094.929
175.067	17.671	2109.992	2092.657
176.081	17.422	2108.589	2087.938
177.096	17.518	2108.264	2088.555
178.110	17.616	2106.959	2088.211
179.125	17.800	2106.840	2090.115
180.140	17.660	2104.613	2085.931
181.154	17.880	2103.169	2086.951
182.169	17.954	2102.528	2086.974
183.183	18.874	2105.892	2101.377
184.198	22.291	2114.238	2151.539
185.213	22.943	2112.365	2157.386
186.227	19.482	2101.387	2103.588
187.242	18.099	2095.663	2080.690
188.256	17.888	2093.415	2075.635
189.271	17.704	2091.605	2071.349
190.286	17.638	2088.633	2067.350
191.300	17.578	2087.398	2065.148
192.315	17.746	2085.412	2064.984
193.329	17.910	2084.511	2065.833
194.344	18.152	2083.679	2067.704
195.359	18.169	2083.360	2067.343
196.373	17.876	2079.823	2060.034
197.388	17.611	2076.953	2053.736
198.402	17.426	2074.679	2049.008
199.417	17.383	2072.374	2045.962
200.432	17.356	2071.754	2044.783
201.446	17.379	2070.489	2043.560
202.461	17.340	2067.948	2040.337
203.475	17.245	2066.777	2037.799
204.490	17.296	2063.839	2035.264
205.504	17.217	2061.994	2032.252
206.519	17.326	2059.951	2031.308
207.534	17.360	2058.987	2030.520
208.548	17.302	2058.151	2028.761
209.563	17.537	2057.292	2030.482
210.577	17.697	2055.992	2030.872
211.592	17.988	2054.531	2032.675
212.607	19.205	2061.334	2053.747
213.621	22.894	2069.577	2106.013
214.636	22.379	2062.603	2092.520
215.650	18.829	2051.290	2038.528
216.665	17.768	2047.626	2022.009
217.680	17.683	2046.033	2019.183
218.694	17.483	2043.472	2014.033
219.709	17.381	2041.925	2011.055
220.723	17.498	2041.127	2011.417
221.738	17.680	2039.687	2011.919
222.753	17.854	2037.745	2011.816
223.767	17.757	2036.172	2008.874
224.782	17.696	2033.612	2005.394
225.796	17.618	2032.708	2003.343
226.811	17.598	2030.159	2000.355
227.826	17.626	2029.288	1999.583
228.840	17.440	2027.791	1995.672
229.855	17.473	2026.800	1994.850
230.869	17.534	2024.840	1993.397
231.884	17.582	2023.772	1992.673
232.899	17.620	2022.686	1991.808
233.913	17.779	2021.299	1992.074
234.928	17.654	2020.665	1989.742
235.942	17.676	2017.890	1987.036
236.957	17.763	2016.747	1986.688
237.972	17.740	2016.559	1985.992
238.986	17.647	2014.829	1982.970
240.001	17.671	2012.619	1980.835
241.015	17.820	2012.461	1982.187
242.030	18.688	2015.876	1995.459
243.045	21.788	2022.957	2038.519
244.059	22.436	2019.605	2042.457
245.074	19.389	2008.971	1996.059
246.088	18.179	2005.247	1978.072
247.103	18.341	2003.059	1977.550
248.117	18.290	2001.607	1975.294
249.132	18.091	1999.241	1970.417
250.147	17.929	1996.959	1966.060
251.161	17.963	1995.396	1964.678
252.176	18.173	1994.483	1965.971
253.190	18.278	1993.244	1965.727
254.205	18.494	1992.745	1967.491
255.220	18.356	1990.823	1963.766
256.234	18.274	1988.855	1960.647
257.249	17.914	1987.079	1954.517
258.263	17.584	1986.547	1949.965
259.278	17.388	1984.808	1945.763
260.293	17.583	1981.124	1944.159
261.307	17.534	1979.449	1941.727
262.322	17.515	1978.196	1940.049
263.336	17.409	1976.597	1937.033
264.351	17.188	1975.064	1932.763
265.366	17.214	1972.762	1930.586
266.380	17.248	1972.238	1930.230
267.395	17.224	1971.120	1928.629
268.409	17.363	1969.889	1928.780
269.424	17.388	1968.087	1927.064
270.439	17.458	1967.871	1927.424
271.453	18.695	1971.221	1944.562
272.468	22.131	1978.143	1990.350
273.482	22.418	1974.326	1989.532
274.497	19.058	1963.402	1940.266
275.512	17.687	1958.155	1919.346
276.526	17.402	1955.963	1913.750
277.541	17.339	1954.627	1911.498
278.555	17.149	1952.278	1906.824
279.570	17.036	1950.424	1903.518
280.585	17.363	1949.612	1906.185
281.599	17.421	1948.531	1905.547
282.614	17.676	1948.149	1907.817
283.628	18.061	1947.340	1911.123
284.643	18.209	1946.015	1911.253
285.657	18.487	1946.005	1914.138
286.672	18.498	1944.550	1912.600
287.687	18.624	1943.505	1912.758
288.701	18.784	1943.169	1913.990
289.716	18.723	1941.633	1911.567
290.730	18.705	1939.736	1909.268
291.745	18.795	1938.005	1908.342
292.760	19.010	1937.013	1909.538
293.774	18.808	1936.648	1906.698
294.789	18.497	1934.252	1900.636
295.803	18.254	1930.578	1894.095
296.818	18.072	1929.864	1891.142
297.833	18.192	1929.088	1891.491
298.847	18.152	1927.590	1889.356
299.862	18.066	1926.359	1886.967
300.876	18.833	1929.267	1898.109
301.891	22.103	1936.780	1941.665
302.906	22.875	1933.089	1946.287
303.920	19.414	1923.319	1898.004
304.935	18.327	1918.344	1880.870
305.949	18.126	1916.376	1876.498
306.964	18.115	1914.890	1874.700
307.979	18.257	1912.739	1873.939
308.993	18.488	1912.589	1876.103
310.008	18.903	1912.160	1880.026
311.022	18.918	1910.791	1878.620
312.037	18.805	1908.363	1874.760
313.052	18.800	1907.162	1873.305
314.066	18.908	1906.622	1873.734
315.081	18.865	1904.684	1871.130
316.095	18.714	1902.814	1867.422
317.110	18.337	1900.076	1860.401
318.125	18.005	1898.303	1854.818
319.139	17.835	1896.953	1851.420
320.154	17.917	1896.037	1851.194
321.168	17.886	1893.722	1848.384
322.183	17.661	1891.754	1843.793
323.197	17.504	1890.516	1840.654
324.212	17.207	1889.395	1836.118
325.227	17.037	1886.387	1831.136
326.241	17.235	1884.366	1831.098
327.256	17.331	1883.378	1830.951
328.270	17.189	1883.256	1829.082
329.285	17.197	1883.892	1829.568
330.300	18.470	1888.667	1847.791
331.314	22.301	1895.305	1895.641
332.329	22.406	1888.811	1890.054
333.343	18.808	1878.508	1840.829
334.358	17.263	1875.109	1820.662
335.373	17.131	1872.979	1816.948
336.387	16.972	1870.312	1812.436
337.402	17.140	1868.710	1812.477
338.416	17.332	1867.523	1813.159
339.431	17.426	1866.516	1812.976
340.446	17.511	1865.367	1812.553
341.460	17.607	1865.065	1813.071
342.475	18.021	1863.481	1815.739
343.489	18.258	1862.429	1817.019
344.504	18.142	1862.101	1815.243
345.519	18.358	1859.895	1815.176
346.533	18.531	1858.906	1815.844
347.548	18.799	1858.364	1817.945
348.562	18.975	1858.801	1820.031
349.577	19.810	1859.974	1829.842
350.592	20.046	1858.760	1830.938
351.606	19.544	1855.898	1822.568
352.621	19.123	1853.553	1815.588
353.635	18.793	1852.209	1810.563
354.650	18.552	1849.694	1805.333
355.665	18.318	1847.109	1800.116
356.679	18.232	1845.840	1797.758
357.694	18.310	1843.454	1796.041
358.708	18.118	1842.858	1793.220
359.723	19.371	1848.217	1811.465
360.738	22.925	1853.406	1853.886
361.752	22.391	1848.127	1842.768
362.767	19.220	1839.970	1801.143
363.781	18.291	1835.693	1786.995
364.796	18.220	1833.337	1783.746
365.810	18.068	1832.784	1781.401
366.825	18.251	1831.604	1781.963
367.840	18.511	1830.959	1783.840
368.854	19.009	1830.835	1788.706
369.869	19.219	1830.661	1790.524
370.883	18.789	1827.722	1782.949
371.898	18.703	1826.477	1780.622
372.913	18.599	1825.189	1778.072
373.927	18.655	1823.833	1777.115
374.942	18.731	1822.061	1775.965
375.956	18.339	1821.197	1770.840
376.971	18.305	1818.568	1767.719
377.986	18.099	1815.680	1762.564
379.000	17.961	1814.470	1759.750
380.015	17.936	1812.662	1757.525
381.029	17.807	1810.675	1754.057
382.044	17.318	1808.539	1746.733
383.059	17.290	1807.155	1744.895
384.073	17.265	1807.384	1744.652
385.088	17.444	1805.902	1744.854
386.102	17.411	1803.557	1742.037
387.117	17.273	1802.154	1739.061
388.132	17.503	1802.180	1741.241
389.146	18.495	1807.212	1756.113
390.161	22.238	1813.741	1800.856
391.175	22.141	1805.984	1791.941
392.190	18.582	1796.209	1745.688
393.205	17.770	1792.091	1733.178
394.219	17.561	1790.524	1729.322
395.234	17.505	1789.142	1727.218
396.248	17.656	1787.477	1726.939
397.263	17.448	1785.460	1722.669
398.278	17.507	1783.395	1721.071
399.292	17.458	1783.017	1719.998
400.307	17.588	1782.179	1720.301
401.321	17.817	1781.326	1721.593
402.336	17.901	1780.757	1721.696
403.350	17.951	1779.363	1720.648
404.365	18.029	1778.554	1720.444
405.380	18.239	1777.734	1721.571
406.394	18.605	1777.872	1725.200
407.409	18.768	1777.002	1725.793
408.423	19.060	1775.070	1726.656
409.438	19.006	1772.974	1723.870
410.453	18.805	1772.037	1720.730
411.467	18.752	1771.422	1719.395
412.482	18.590	1769.329	1715.528
413.496	18.330	1767.318	1710.764
414.511	18.219	1765.956	1708.126
415.526	18.374	1762.418	1706.048
416.540	18.025	1761.400	1701.368
417.555	18.019	1760.773	1700.495
418.569	18.357	1760.659	1703.564
419.584	18.334	1760.794	1703.262
420.599	18.245	1759.801	1701.206
421.613	18.150	1758.247	1698.551
422.628	17.889	1756.823	1694.365
423.642	18.075	1754.704	1693.973
424.657	17.989	1752.639	1690.922
425.672	18.224	1751.404	1691.870
426.686	18.212	1750.979	1691.137
427.701	18.034	1750.104	1688.315
428.715	18.234	1748.047	1688.119
429.730	18.380	1747.412	1688.750
430.745	18.335	1745.849	1686.593
431.759	18.370	1745.551	1686.448
432.774	18.682	1745.259	1689.053
433.788	19.062	1746.224	1693.540
434.803	19.392	1745.616	1696.011
435.818	19.254	1745.206	1694.040
436.832	19.303	1743.576	1692.738
437.847	18.473	1737.027	1678.019
438.861	10.393	1715.761	1578.439
439.876	1.853	1699.830	1480.466
440.890	0.285	1696.254	1461.891
441.905	0.278	1694.155	1459.847
442.920	0.107	1693.996	1457.863
443.934	0.073	1692.358	1455.953
444.949	0.183	1690.699	1455.417
445.963	0.260	1689.422	1454.891
446.978	0.117	1689.806	1453.659
447.993	0.102	1687.684	1451.510
449.007	0.142	1685.747	1450.061
450.022	0.115	1683.662	1447.834
451.036	0.086	1682.046	1445.992
452.051	1.007	1686.403	1458.484
453.066	8.989	1704.843	1552.118
454.080	17.620	1718.695	1648.838
455.095	19.860	1723.097	1674.680
456.109	21.293	1724.329	1689.613
457.124	21.471	1724.754	1691.556
458.139	21.510	1724.454	1691.446
459.153	21.783	1723.293	1692.753
460.168	21.870	1720.583	1690.731
461.182	21.595	1718.960	1686.271
462.197	21.483	1717.259	1683.320
463.212	21.350	1714.836	1679.454
464.226	21.369	1714.177	1678.793
465.241	21.778	1713.619	1681.988
466.255	22.031	1712.624	1683.252
467.270	22.010	1711.597	1681.842
468.285	21.659	1709.335	1676.039
469.299	21.386	1708.275	1672.177
470.314	21.704	1706.605	1673.396
471.328	21.663	1705.137	1671.356
472.343	21.638	1704.602	1670.395
473.358	21.827	1703.914	1671.330
474.372	21.942	1702.129	1670.479
475.387	21.552	1700.430	1664.886
476.401	21.369	1698.802	1661.345
477.416	21.384	1697.564	1660.076
478.430	21.539	1696.720	1660.529
479.445	21.341	1695.346	1657.102
480.460	21.155	1693.793	1653.619
481.474	21.356	1693.404	1654.949
482.489	21.738	1692.360	1657.366
483.503	22.180	1691.021	1660.052
484.518	22.190	1690.572	1659.503
485.533	22.007	1688.362	1655.400
486.547	21.979	1686.925	1653.531
487.562	22.369	1686.619	1656.724
488.576	22.449	1685.025	1655.714
489.591	22.267	1683.439	1652.240
490.606	22.060	1681.561	1648.249
491.620	22.195	1680.550	1648.336
492.635	22.558	1679.660	1650.677
493.649	22.655	1678.518	1650.274
494.664	22.161	1675.408	1642.375
495.679	21.442	1673.451	1633.515
496.693	21.494	1673.151	1633.515
497.708	21.914	1672.511	1636.637
498.722	22.350	1672.220	1640.240
499.737	22.441	1670.469	1639.182
500.752	22.125	1668.736	1634.326
501.766	21.917	1666.890	1630.385
502.781	22.129	1665.853	1631.151
503.795	22.046	1664.357	1628.715
504.810	22.129	1663.396	1628.355
505.825	22.400	1662.835	1630.130
506.839	22.430	1661.863	1629.269
507.854	22.318	1660.752	1626.941
508.868	22.368	1658.454	1624.954
509.883	22.306	1658.569	1624.296
510.898	22.524	1657.648	1625.230
511.912	22.379	1654.855	1620.948
512.927	22.189	1652.763	1616.954
513.941	22.223	1650.867	1615.217
514.956	21.833	1651.002	1611.555
515.971	21.846	1649.423	1609.942
516.985	22.145	1648.111	1611.219
518.000	22.344	1648.493	1613.233
519.014	22.660	1646.989	1614.484
520.029	22.764	1645.813	1614.092
521.043	22.584	1644.602	1611.056
522.058	22.374	1643.527	1607.879
523.073	22.576	1642.735	1608.768
524.087	23.097	1642.108	1612.738
525.102	22.810	1640.356	1608.196
526.116	22.389	1637.337	1601.197
527.131	22.218	1637.088	1599.200
528.146	22.726	1637.521	1604.068
529.160	22.847	1637.037	1604.512
530.175	22.925	1635.032	1603.067
531.189	23.092	1633.879	1603.260
532.204	23.157	1632.155	1601.974
533.219	22.535	1630.945	1594.937
534.233	22.231	1629.152	1590.225
535.248	22.597	1628.971	1593.189
536.262	23.090	1629.220	1597.717
537.277	23.014	1627.656	1595.300
538.292	22.853	1624.281	1590.344
539.306	22.748	1622.676	1587.639
540.321	22.775	1620.941	1585.990
541.335	22.489	1620.183	1582.476
542.350	22.748	1619.253	1583.716
543.365	23.147	1618.483	1586.374
544.379	23.189	1617.556	1585.652
545.394	23.217	1616.564	1584.746
546.408	22.650	1614.282	1577.220
547.423	22.156	1611.913	1570.277
548.438	22.113	1610.641	1568.465
549.452	22.627	1610.532	1572.783
550.467	22.639	1610.473	1572.642
551.481	22.639	1609.458	1571.467
552.496	23.015	1608.897	1574.097
553.511	23.412	1607.678	1576.261
554.525	23.461	1605.694	1574.571
555.540	23.473	1606.132	1574.912
556.554	23.461	1604.698	1573.217
557.569	23.232	1602.578	1568.909
558.583	23.077	1601.150	1565.942
559.598	23.160	1599.665	1565.040
560.613	23.052	1598.966	1563.209
561.627	23.208	1597.981	1563.444
562.642	23.339	1597.274	1563.728
563.656	23.663	1596.359	1565.513
564.671	23.738	1594.791	1564.457
565.686	23.470	1592.851	1559.998
566.700	23.244	1591.022	1556.024
567.715	23.119	1589.557	1553.300
568.729	22.971	1587.336	1549.641
569.744	22.677	1585.464	1545.040
570.759	22.760	1585.459	1545.576
571.773	22.884	1584.500	1545.550
572.788	23.247	1583.462	1547.540
573.802	23.247	1582.367	1546.284
574.817	23.539	1581.391	1547.713
575.832	23.757	1581.002	1549.055
576.846	23.776	1579.065	1547.135
577.861	23.430	1577.350	1542.246
578.875	23.580	1577.078	1543.111
579.890	23.818	1576.926	1544.851
580.905	23.838	1576.181	1544.110
581.919	23.850	1575.927	1543.780
582.934	24.036	1574.953	1544.270
583.948	24.112	1573.315	1543.142
584.963	23.853	1571.158	1538.586
585.978	23.452	1569.456	1533.245
586.992	23.734	1568.907	1534.977
588.007	24.027	1568.042	1536.494
589.021	23.290	1565.479	1527.408
590.036	22.590	1564.255	1519.969
591.051	23.098	1563.539	1523.493
592.065	23.555	1562.747	1526.491
593.080	23.993	1561.519	1528.894
594.094	23.991	1559.815	1527.022
595.109	23.374	1556.645	1518.426
596.123	22.946	1555.303	1513.251
597.138	23.366	1555.543	1516.920
598.153	23.730	1554.628	1518.968
599.167	23.850	1552.678	1517.911
600.182	23.866	1552.677	1517.870
601.196	23.800	1552.007	1516.465
602.211	23.798	1550.127	1514.430
603.226	24.130	1549.075	1516.059
604.240	24.336	1547.922	1516.518
605.255	24.380	1547.818	1516.605
606.269	24.162	1546.789	1513.556
607.284	24.257	1545.451	1512.878
608.299	24.130	1543.954	1510.149
609.313	23.957	1542.245	1506.825
610.328	24.041	1541.097	1506.237
611.342	24.256	1539.913	1506.727
612.357	24.363	1539.426	1506.971
613.372	24.488	1538.097	1506.550
614.386	24.227	1536.815	1502.904
615.401	24.339	1536.733	1503.593
616.415	24.443	1535.573	1503.157
617.430	24.429	1534.818	1502.121
618.445	24.563	1533.817	1502.098
619.459	24.433	1531.873	1498.913
620.474	24.048	1529.612	1493.281
621.488	23.272	1527.904	1484.895
622.503	22.987	1526.552	1481.002
623.518	23.751	1527.116	1487.804
624.532	24.295	1525.889	1491.010
625.547	24.515	1525.264	1492.067
626.561	24.760	1525.811	1494.481
627.576	25.035	1523.715	1494.550
628.591	24.122	1521.587	1484.640
629.605	23.814	1519.867	1480.207
630.620	23.626	1518.300	1476.932
631.634	23.145	1516.900	1471.376
632.649	23.466	1515.979	1472.980
633.663	23.820	1515.603	1475.399
634.678	24.445	1515.160	1479.998
635.693	24.899	1513.962	1482.431
636.707	24.974	1512.769	1481.710
637.722	25.013	1512.262	1481.359
638.736	25.092	1511.167	1480.767
639.751	25.097	1510.178	1479.663
640.766	24.829	1508.309	1475.430
641.780	24.913	1506.999	1474.673
642.795	24.779	1506.375	1472.774
643.809	24.844	1505.404	1472.186
644.824	24.916	1504.328	1471.551
645.839	24.600	1503.564	1468.021
646.853	24.755	1502.639	1468.222
647.868	24.865	1500.613	1466.970
648.882	24.633	1499.362	1463.659
649.897	24.694	1497.708	1462.375
650.912	24.669	1496.576	1460.892
651.926	24.686	1495.741	1460.038
652.941	24.263	1494.044	1454.741
653.955	23.766	1490.639	1447.183
654.970	23.341	1488.553	1441.505
655.985	23.320	1487.053	1439.710
656.999	23.478	1486.320	1440.116
658.014	23.784	1486.117	1442.245
659.028	24.148	1486.384	1445.300
660.043	24.539	1485.713	1447.663
661.058	24.677	1484.773	1447.700
662.072	24.789	1484.564	1448.231
663.087	24.702	1482.999	1445.821
664.101	24.675	1481.044	1443.522
665.116	24.848	1480.415	1444.144
666.131	24.940	1479.896	1444.212
667.145	24.853	1478.293	1441.769
668.160	25.191	1477.562	1443.620
669.174	25.325	1476.747	1443.728
670.189	25.220	1475.673	1441.664
671.204	25.002	1474.933	1439.004
672.218	24.932	1473.351	1436.727
673.233	25.145	1472.684	1437.618
674.247	25.669	1471.329	1440.342
675.262	25.659	1470.619	1439.393
676.276	25.366	1470.021	1436.284
677.291	25.243	1469.056	1434.175
678.306	25.044	1466.723	1430.129
679.320	24.902	1465.758	1427.882
680.335	25.098	1465.505	1429.039
681.349	25.327	1464.556	1429.772
682.364	25.347	1463.769	1428.995
683.379	25.244	1462.363	1426.630
684.393	25.187	1461.097	1424.767
685.408	25.310	1460.368	1424.866
686.422	25.131	1458.965	1421.901
687.437	25.369	1458.016	1422.701
688.452	25.624	1457.877	1424.425
689.466	25.470	1455.602	1420.810
690.481	25.297	1454.057	1417.756
691.495	24.903	1452.035	1412.493
692.510	24.229	1450.453	1405.443
693.525	23.801	1447.873	1399.387
694.539	24.194	1447.964	1402.420
695.554	24.887	1449.258	1408.990
696.568	25.395	1448.757	1412.343
697.583	25.477	1448.341	1412.416
698.598	25.659	1447.310	1412.679
699.612	25.622	1446.015	1410.960
700.627	25.650	1444.932	1409.956
701.641	25.499	1443.745	1407.438
702.656	25.561	1442.316	1406.359
703.671	25.932	1442.501	1409.288
704.685	25.853	1441.360	1407.386
705.700	25.700	1439.963	1404.658
706.714	25.473	1437.450	1400.255
707.729	25.234	1435.455	1396.274
708.744	25.221	1434.723	1395.298
709.758	25.067	1433.249	1392.495
710.773	24.614	1431.425	1387.019
711.787	24.170	1430.252	1382.257
712.802	24.500	1429.727	1384.152
713.816	24.930	1429.103	1386.735
714.831	25.440	1428.689	1390.136
715.846	25.532	1427.854	1389.867
716.860	25.668	1426.690	1389.625
717.875	25.583	1425.224	1387.375
718.889	25.327	1424.541	1384.554
719.904	25.563	1423.621	1385.326
720.919	25.649	1422.462	1384.700
721.933	25.832	1422.122	1385.612
722.948	25.836	1420.994	1384.385
723.962	25.866	1419.550	1383.040
724.977	26.045	1418.512	1383.247
725.992	26.085	1417.668	1382.561
727.006	25.827	1416.803	1379.566
728.021	25.985	1415.563	1379.407
729.035	26.020	1414.157	1378.141
730.050	25.924	1413.250	1376.355
731.065	25.854	1412.633	1375.053
732.079	25.979	1411.507	1374.754
733.094	25.988	1410.083	1373.272
734.108	25.739	1408.176	1369.345
735.123	25.925	1405.997	1368.482
736.138	25.935	1405.561	1367.968
737.152	26.017	1405.506	1368.379
738.167	26.115	1404.501	1367.985
739.181	26.169	1403.883	1367.631
740.196	26.151	1403.260	1366.722
741.211	26.086	1401.908	1364.747
742.225	26.029	1401.466	1363.717
743.240	26.050	1399.338	1361.647
744.254	26.041	1397.814	1359.932
745.269	25.954	1397.289	1358.599
746.284	25.880	1396.504	1357.114
747.298	25.692	1394.425	1353.510
748.313	25.465	1392.432	1349.697
749.327	24.965	1391.025	1344.403
750.342	24.347	1390.008	1338.597
751.356	23.814	1388.262	1332.737
752.371	24.257	1387.752	1335.428
753.386	25.154	1388.321	1342.570
754.400	25.986	1388.013	1348.368
755.415	26.142	1387.266	1348.651
756.429	26.235	1386.330	1348.280
757.444	26.119	1384.919	1345.871
758.459	26.321	1383.785	1346.125
759.473	26.398	1383.144	1345.914
760.488	26.319	1381.667	1343.724
761.502	26.271	1380.777	1342.338
762.517	26.255	1379.378	1340.700
763.532	25.935	1377.893	1336.711
764.546	25.703	1376.379	1333.353
765.561	25.009	1374.418	1326.132
766.575	24.405	1371.631	1318.805
767.590	24.244	1370.853	1316.699
768.605	25.071	1370.724	1322.558
769.619	25.625	1370.169	1325.968
770.634	25.935	1369.541	1327.495
771.648	26.090	1369.727	1328.667
772.663	26.276	1369.815	1329.965
773.678	26.233	1368.527	1328.236
774.692	26.347	1367.690	1328.108
775.707	26.310	1367.252	1327.254
776.721	26.398	1366.444	1326.961
777.736	26.503	1364.894	1326.067
778.751	26.473	1364.075	1324.896
779.765	26.419	1362.967	1323.258
780.780	26.499	1362.884	1323.609
781.794	26.285	1361.827	1320.855
782.809	26.193	1359.857	1318.111
783.824	25.983	1358.783	1315.369
784.838	25.604	1355.869	1309.621
785.853	24.835	1353.723	1301.770
786.867	25.075	1354.174	1303.799
787.882	25.533	1354.087	1306.911
788.897	25.706	1353.402	1307.358
789.911	25.801	1352.998	1307.503
790.926	26.025	1351.984	1307.995
791.940	26.104	1350.963	1307.430
792.955	26.289	1350.100	1307.780
793.969	26.338	1349.100	1307.014
794.984	26.316	1348.430	1306.051
795.999	26.372	1347.545	1305.445
797.013	26.586	1345.911	1305.253
798.028	26.368	1344.193	1301.850
799.042	26.507	1344.133	1302.648
800.057	26.543	1342.928	1301.585
801.072	26.732	1340.664	1300.594
802.086	26.696	1339.579	1299.126
803.101	26.692	1338.965	1298.346
804.115	26.660	1338.101	1297.122
805.130	26.441	1337.413	1294.729
806.145	26.430	1336.429	1293.536
807.159	26.457	1334.320	1291.540
808.174	26.274	1333.529	1289.307
809.188	26.193	1331.897	1286.996
810.203	25.964	1329.888	1283.260
811.218	25.493	1327.734	1277.663
812.232	25.071	1326.035	1272.861
813.247	24.809	1324.615	1269.479
814.261	25.456	1325.718	1275.002
815.276	26.012	1325.327	1278.431
816.291	26.310	1324.307	1279.415
817.305	26.326	1324.361	1279.434
818.320	26.456	1322.805	1278.695
819.334	26.516	1321.768	1277.968
820.349	26.755	1320.323	1278.112
821.364	26.782	1318.989	1276.858
822.378	26.681	1318.025	1275.063
823.393	26.689	1316.313	1273.309
824.407	26.721	1315.003	1272.116
825.422	26.838	1314.474	1272.272
826.437	26.421	1313.390	1268.132
827.451	26.131	1311.243	1263.870
828.466	25.528	1308.318	1256.666
829.480	25.077	1306.571	1251.672
830.495	25.526	1305.628	1253.764
831.509	26.016	1305.850	1257.265
832.524	26.226	1305.120	1257.882
833.539	26.548	1304.654	1259.532
834.553	26.683	1303.186	1258.904
835.568	26.734	1302.807	1258.747
836.582	26.629	1301.951	1257.036
837.597	26.800	1300.281	1256.463
838.612	26.607	1298.309	1253.065
839.626	26.516	1297.099	1251.117
840.641	26.137	1296.078	1247.353
841.655	25.800	1294.456	1243.301
842.670	25.266	1291.656	1236.765
843.685	24.380	1291.242	1230.087
844.699	25.361	1291.368	1236.852
845.714	25.993	1290.936	1240.658
846.728	26.035	1289.849	1239.757
847.743	26.212	1289.567	1240.561
848.758	26.527	1288.429	1241.489
849.772	26.572	1287.428	1240.687
850.787	26.607	1286.061	1239.464
851.801	26.629	1285.117	1238.555
852.816	26.520	1283.187	1235.799
853.831	26.529	1282.212	1234.773
854.845	26.513	1280.595	1232.962
855.860	26.310	1278.683	1229.584
856.874	26.011	1277.439	1226.194
857.889	25.876	1275.144	1222.924
858.904	25.626	1273.061	1219.080
859.918	25.113	1270.796	1213.275
860.933	24.756	1269.721	1209.676
861.947	25.180	1269.912	1212.597
862.962	25.719	1268.858	1215.103
863.977	26.043	1268.197	1216.520
864.991	26.162	1268.568	1217.538
866.006	26.353	1267.597	1217.757
867.020	26.565	1266.625	1218.110
868.035	26.719	1265.586	1218.003
869.049	26.768	1264.807	1217.437
870.064	26.675	1264.327	1216.205
871.079	26.780	1262.776	1215.272
872.093	26.556	1262.777	1213.618
873.108	26.413	1261.594	1211.377
874.122	26.161	1259.453	1207.483
875.137	25.622	1258.217	1202.533
876.152	25.363	1256.984	1199.469
877.166	25.719	1255.535	1200.333
878.181	26.099	1254.900	1202.125
879.195	26.380	1255.236	1204.183
880.210	26.552	1254.725	1204.702
881.225	26.673	1253.497	1204.184
882.239	26.676	1252.467	1203.071
883.254	26.815	1251.487	1202.912
884.268	26.795	1250.717	1201.898
885.283	26.772	1249.337	1200.273
886.298	26.748	1247.867	1198.559
887.312	26.690	1246.745	1196.950
888.327	26.791	1245.366	1196.153
889.341	26.649	1243.609	1193.384
890.356	26.448	1243.767	1192.058
891.371	26.454	1243.585	1191.784
892.385	26.466	1242.349	1190.534
893.400	26.029	1241.277	1186.479
894.414	25.966	1239.205	1183.939
895.429	25.767	1237.192	1180.563
896.444	25.030	1234.394	1172.906
897.458	24.275	1233.146	1166.616
898.473	24.924	1233.316	1170.902
899.487	25.738	1233.386	1176.178
900.502	25.983	1232.954	1177.230
901.517	26.186	1232.276	1177.773
902.531	26.482	1231.095	1178.445
903.546	26.519	1230.890	1178.351
904.560	26.577	1230.444	1178.157
905.575	26.612	1229.421	1177.265
906.589	26.492	1228.193	1175.171
907.604	26.370	1227.995	1174.040
