DTS Sentinel unit serial number:	SN409020Multiplexer serial number:	ORYXHardware model number:	OX4-SRSoftware version number:	ORYX F/W v3.00 Oryx Data Collector v3.7.2.0data status	okinstallation	HaddamTimeLapsedifferential loss correction	single-endedforward channel	channel 3reverse channel	N/Adate	2011/06/21time	21:51:16forward acquisition time	30.00reverse acquisition time	0.00gamma	498.7831k internal	0.1760k external	0.1760temperature offset calibration	1.0074default loss term (dB/km)	0.3790temperature slope calibration	1.3530multiplexer offset coefficient	1.0000multiplexer slope coefficient	1.0000fibre end	0.00T internal ref (°C)	25.31T ext. ref 1 (°C)	19.27T ext. ref 2 (°C)	0.03length (m)	temperature (°C)	Stokes	anti-Stokes-747.200	-111.561	0.142	0.038
-746.185	63.991	-0.292	0.389
-745.171	-200.000	0.005	-0.429
-744.156	800.000	0.068	0.346
-743.142	139.641	0.145	-0.253
-742.127	-66.248	0.516	0.270
-741.112	-66.649	0.393	0.205
-740.098	58.280	-0.024	0.031
-739.083	-200.000	0.016	0.278
-738.069	-16.495	-0.050	0.042
-737.054	225.515	-0.158	-0.339
-736.039	102.624	0.071	0.110
-735.025	-160.758	-0.468	-0.032
-734.010	-183.982	-0.217	-0.005
-732.996	-112.990	-0.165	-0.043
-731.981	-111.683	-0.078	-0.021
-730.966	800.000	0.165	0.787
-729.952	17.229	0.127	-0.134
-728.937	-102.877	0.477	-0.149
-727.923	203.512	0.263	-0.539
-726.908	96.318	-0.065	0.098
-725.894	-66.952	0.047	0.024
-724.879	-121.301	0.575	0.126
-723.864	-178.208	-0.363	0.011
-722.850	26.164	-0.262	-0.289
-721.835	-125.990	-0.367	0.072
-720.821	72.894	0.198	-0.274
-719.806	403.705	-0.159	-0.445
-718.791	-200.000	-0.014	-0.241
-717.777	-56.832	0.504	-0.293
-716.762	-150.511	0.299	0.030
-715.748	108.459	0.279	0.440
-714.733	-82.747	-0.120	-0.051
-713.718	-147.066	0.200	-0.022
-712.704	-36.685	0.306	-0.217
-711.689	-151.394	-0.205	-0.020
-710.675	-111.006	-0.323	0.087
-709.660	-125.242	0.299	-0.060
-708.645	-200.000	0.019	-0.359
-707.631	-118.089	-0.528	0.124
-706.616	257.484	-0.110	-0.252
-705.602	-103.004	0.371	-0.115
-704.587	-100.106	0.503	0.164
-703.572	12.066	0.076	0.077
-702.558	-57.456	0.196	0.113
-701.543	45.944	-0.036	0.044
-700.529	-200.000	0.055	-0.456
-699.514	-200.000	0.008	0.109
-698.499	84.524	-0.235	-0.340
-697.485	21.346	0.181	-0.194
-696.470	-200.000	0.004	-0.156
-695.456	800.000	-0.131	0.522
-694.441	-200.000	0.022	0.619
-693.426	186.018	0.074	-0.145
-692.412	9.228	-0.170	-0.169
-691.397	-144.178	-0.249	-0.030
-690.383	240.646	0.187	-0.413
-689.368	152.789	0.217	-0.392
-688.354	800.000	0.015	0.066
-687.339	-179.021	0.386	0.011
-686.324	-49.647	-0.247	0.154
-685.310	83.221	0.252	-0.363
-684.295	-114.695	-0.311	0.078
-683.281	138.667	-0.090	0.157
-682.266	800.000	-0.087	-0.378
-681.251	284.581	0.177	0.423
-680.237	-59.694	0.213	0.120
-679.222	248.702	-0.077	-0.173
-678.208	97.831	0.110	0.167
-677.193	-200.000	0.014	-0.138
-676.178	52.716	-0.291	0.367
-675.164	-200.000	-0.071	0.684
-674.149	-103.395	-0.391	0.121
-673.135	659.091	-0.122	-0.418
-672.120	214.527	0.180	-0.376
-671.105	52.769	0.308	-0.388
-670.091	800.000	0.026	0.118
-669.076	94.328	0.264	0.396
-668.062	384.422	-0.214	-0.584
-667.047	-200.000	-0.018	-0.160
-666.032	-160.014	-0.631	0.045
-665.018	138.336	0.352	-0.610
-664.003	-33.829	0.217	-0.157
-662.989	98.899	-0.245	0.374
-661.974	308.653	0.044	-0.108
-660.959	52.570	-0.117	-0.147
-659.945	19.517	0.436	-0.462
-658.930	-166.092	0.333	-0.018
-657.916	45.497	-0.244	0.297
-656.901	46.291	0.453	-0.554
-655.886	441.820	0.060	0.175
-654.872	-89.054	0.202	-0.078
-653.857	-200.000	0.005	0.166
-652.843	315.608	0.086	0.214
-651.828	-80.533	-0.186	-0.081
-650.814	-9.838	-0.296	-0.260
-649.799	-78.516	-0.092	-0.041
-648.784	520.777	0.122	-0.379
-647.770	19.195	-0.466	-0.493
-646.755	-142.935	-0.251	-0.032
-645.741	-81.325	0.416	-0.180
-644.726	-200.000	-0.025	-0.349
-643.711	-200.000	-0.011	0.654
-642.697	-4.392	0.275	0.251
-641.682	-88.313	-0.270	0.106
-640.668	233.281	0.127	-0.276
-639.653	143.240	-0.091	-0.159
-638.638	-112.112	0.257	-0.068
-637.624	125.564	-0.319	-0.531
-636.609	101.606	0.221	-0.339
-635.595	-200.000	-0.091	-0.535
-634.580	74.249	0.184	-0.254
-633.565	-91.828	-0.467	-0.173
-632.551	-65.440	0.170	-0.090
-631.536	-200.000	0.019	0.324
-630.522	-153.258	0.454	0.041
-629.507	-79.342	-0.619	0.274
-628.492	-149.873	-0.334	0.034
-627.478	-40.440	-0.401	-0.273
-626.463	-122.668	0.518	0.110
-625.449	246.038	-0.159	0.354
-624.434	23.454	-0.151	-0.163
-623.419	-110.223	-0.177	0.048
-622.405	-139.518	0.223	0.031
-621.390	-122.000	0.348	-0.075
-620.376	108.424	-0.033	0.052
-619.361	15.471	-0.205	-0.212
-618.346	118.899	-0.085	-0.138
-617.332	-200.000	0.058	0.361
-616.317	-133.816	-0.098	0.016
-615.303	-58.374	-0.384	-0.219
-614.288	166.914	-0.058	-0.108
-613.273	-52.962	-0.265	0.160
-612.259	277.766	-0.167	0.393
-611.244	108.493	0.064	0.100
-610.230	-161.555	-0.170	-0.011
-609.215	-119.497	0.267	0.060
-608.201	-19.556	0.167	0.135
-607.186	-200.000	-0.019	-0.473
-606.171	-27.790	0.400	0.305
-605.157	-171.161	0.391	0.017
-604.142	-60.449	-0.349	-0.194
-603.128	224.988	-0.048	-0.102
-602.113	-131.107	-0.072	0.012
-601.098	-200.000	0.023	-0.382
-600.084	-200.000	0.048	0.292
-599.069	-164.676	0.246	-0.014
-598.055	-17.973	0.155	0.128
-597.040	112.195	-0.245	-0.390
-596.025	-76.490	-0.301	0.138
-595.011	-82.787	-0.525	-0.222
-593.996	-103.025	0.719	0.223
-592.982	-99.764	-0.254	-0.083
-591.967	-87.229	-0.120	-0.048
-590.952	-143.540	0.529	0.066
-589.938	-52.856	0.503	-0.303
-588.923	14.113	0.039	0.039
-587.909	800.000	0.053	-0.235
-586.894	-65.575	-0.431	0.226
-585.879	-96.303	-0.063	-0.022
-584.865	46.665	0.214	-0.261
-583.850	-89.025	-0.286	-0.111
-582.836	-98.619	0.238	-0.079
-581.821	-142.673	-0.427	0.054
-580.806	-15.867	-0.061	0.051
-579.792	-200.000	0.068	-0.401
-578.777	-200.000	-0.080	-0.543
-577.763	-200.000	0.018	-0.191
-576.748	-1.666	0.098	-0.091
-575.733	-104.327	0.170	0.051
-574.719	-96.241	-0.200	0.069
-573.704	-54.987	-0.264	-0.156
-572.690	-83.013	0.118	-0.050
-571.675	-115.042	-0.133	0.033
-570.661	-187.248	-0.351	-0.006
-569.646	-94.865	0.476	-0.168
-568.631	-78.038	0.335	-0.151
-567.617	70.827	-0.263	0.358
-566.602	-38.748	-0.368	-0.254
-565.588	657.679	-0.029	-0.098
-564.573	-26.647	0.328	-0.252
-563.558	13.305	-0.271	0.276
-562.544	-41.284	0.213	-0.144
-561.529	316.464	0.116	0.288
-560.515	-200.000	0.009	-0.143
-559.500	-65.871	0.055	0.029
-558.485	41.692	0.152	-0.181
-557.471	-144.279	0.201	0.024
-556.456	-70.156	0.395	-0.196
-555.442	800.000	-0.012	0.062
-554.427	-59.164	-0.414	-0.233
-553.412	15.356	-0.435	-0.448
-552.398	24.792	-0.142	0.154
-551.383	-119.144	0.120	-0.027
-550.369	800.000	-0.083	0.406
-549.354	-27.276	0.226	0.173
-548.339	-161.706	0.261	0.017
-547.325	-81.869	-0.244	-0.104
-546.310	-39.299	0.123	0.085
-545.296	-151.366	0.277	0.027
-544.281	-38.006	-0.111	0.077
-543.266	307.073	-0.117	0.286
-542.252	-104.508	-0.133	-0.040
-541.237	34.222	-0.067	-0.076
-540.223	-33.496	0.400	-0.290
-539.208	61.998	-0.249	-0.326
-538.193	-61.275	-0.307	0.169
-537.179	-119.849	-0.208	-0.047
-536.164	-107.340	0.238	0.068
-535.150	-1.248	-0.318	-0.294
-534.135	51.061	0.251	0.313
-533.121	104.029	0.156	-0.241
-532.106	-38.340	-0.249	-0.173
-531.091	-118.028	0.533	-0.124
-530.077	142.928	0.165	-0.288
-529.062	-171.226	-0.157	0.007
-528.048	680.902	-0.035	-0.120
-527.033	-200.000	0.058	-0.357
-526.018	-100.166	0.288	-0.093
-525.004	800.000	0.067	-0.276
-523.989	104.914	0.161	0.249
-522.975	299.179	0.160	0.388
-521.960	157.221	-0.103	-0.187
-520.945	79.683	-0.113	-0.159
-519.931	800.000	-0.034	0.193
-518.916	-184.109	-0.144	-0.003
-517.902	-91.968	-0.397	0.147
-516.887	-124.978	-0.482	0.096
-515.872	163.685	-0.130	0.240
-514.858	-181.340	0.382	-0.010
-513.843	176.770	0.177	0.338
-512.829	660.361	0.122	0.413
-511.814	-171.142	0.358	0.016
-510.799	-30.801	0.191	-0.141
-509.785	-157.823	-0.385	-0.030
-508.770	-51.668	-0.064	0.039
-507.756	153.141	-0.119	0.213
-506.741	-27.115	-0.454	-0.346
-505.726	-21.346	0.101	0.081
-504.712	-74.885	-0.403	-0.188
-503.697	-200.000	0.016	-0.203
-502.683	-200.000	0.010	0.127
-501.668	27.476	0.290	0.319
-500.653	-25.723	0.678	-0.523
-499.639	32.197	-0.066	0.075
-498.624	-200.000	0.041	0.332
-497.610	141.193	-0.090	0.157
-496.595	193.884	0.151	-0.300
-495.581	800.000	0.059	-0.284
-494.566	-200.000	0.049	0.330
-493.551	308.969	-0.033	-0.081
-492.537	-121.653	-0.271	0.058
-491.522	800.000	-0.110	0.436
-490.508	-139.911	-0.658	-0.090
-489.493	-75.504	0.288	0.134
-488.478	-175.670	0.127	-0.004
-487.464	559.971	0.158	-0.502
-486.449	173.892	-0.075	0.142
-485.435	-145.999	0.098	-0.011
-484.420	-200.000	0.029	0.205
-483.405	262.881	0.089	0.202
-482.391	-200.000	-0.021	-0.168
-481.376	800.000	-0.057	0.215
-480.362	423.932	-0.123	-0.347
-479.347	-46.206	0.087	-0.056
-478.332	-77.143	0.097	-0.044
-477.318	-104.033	0.102	-0.031
-476.303	12.027	-0.320	0.322
-475.289	-34.331	-0.478	-0.342
-474.274	52.120	-0.272	0.340
-473.259	100.143	0.188	0.286
-472.245	529.159	0.083	0.258
-471.230	-23.272	-0.096	0.075
-470.216	-18.907	-0.179	0.146
-469.201	-200.000	0.007	-0.420
-468.186	-76.252	-0.185	-0.085
-467.172	-133.948	-0.141	-0.023
-466.157	30.454	0.249	0.278
-465.143	800.000	0.088	-0.421
-464.128	-85.807	-0.136	-0.055
-463.113	57.369	0.067	0.086
-462.099	238.903	-0.069	-0.150
-461.084	114.208	-0.078	-0.125
-460.070	-53.822	-0.536	0.318
-459.055	6.961	-0.143	0.139
-458.040	-200.000	-0.087	-0.563
-457.026	-200.000	-0.025	-0.338
-456.011	-200.000	0.015	-0.249
-454.997	800.000	-0.034	-0.146
-453.982	-101.019	0.236	0.075
-452.968	185.564	0.338	-0.658
-451.953	-5.239	-0.220	-0.197
-450.938	319.382	-0.116	-0.289
-449.924	-28.265	0.144	0.109
-448.909	-141.451	0.305	-0.040
-447.895	-186.871	0.299	0.005
-446.880	139.987	-0.219	0.378
-445.865	-82.572	-0.349	-0.147
-444.851	217.839	-0.241	-0.505
-443.836	-173.783	-0.515	0.020
-442.822	94.825	0.185	0.275
-441.807	-102.314	0.054	-0.017
-440.792	154.196	0.044	-0.079
-439.778	-102.961	0.351	-0.108
-438.763	-9.119	0.307	0.268
-437.749	-16.987	0.112	0.092
-436.734	-200.000	-0.027	0.293
-435.719	800.000	-0.029	-0.121
-434.705	241.822	0.053	0.117
-433.690	-92.206	0.916	0.336
-432.676	-8.999	0.217	-0.190
-431.661	-200.000	0.018	0.183
-430.646	21.963	0.180	-0.192
-429.632	66.050	0.272	-0.360
-428.617	52.942	0.142	0.177
-427.603	-51.593	-0.382	-0.232
-426.588	-44.429	-0.593	0.387
-425.573	-85.196	0.286	-0.116
-424.559	-97.295	0.175	0.059
-423.544	-200.000	0.013	-0.499
-422.530	800.000	0.064	-0.285
-421.515	-200.000	-0.006	-0.201
-420.500	441.894	-0.070	-0.201
-419.486	20.466	0.114	-0.120
-418.471	-105.424	-0.334	0.098
-417.457	-175.196	0.215	0.008
-416.442	18.497	0.517	-0.539
-415.428	13.881	-0.145	0.147
-414.413	-160.290	-0.463	-0.032
-413.398	-151.306	0.134	0.013
-412.384	-23.288	-0.200	0.157
-411.369	800.000	-0.088	-0.339
-410.355	800.000	-0.047	-0.226
-409.340	258.782	0.191	0.432
-408.325	-130.802	-0.353	0.061
-407.311	-45.284	0.114	-0.074
-406.296	-200.000	0.033	0.236
-405.282	387.100	-0.229	0.620
-404.267	-200.000	-0.104	0.693
-403.252	-200.000	-0.014	0.232
-402.238	138.633	-0.153	-0.263
-401.223	-158.924	-0.368	0.027
-400.209	252.010	-0.131	-0.293
-399.194	-30.617	-0.304	-0.224
-398.179	-69.531	0.098	-0.049
-397.165	-200.000	-0.054	0.459
-396.150	420.667	-0.136	-0.383
-395.136	-200.000	-0.005	-0.075
-394.121	107.158	-0.338	0.525
-393.106	-93.753	0.108	0.039
-392.092	-8.122	-0.144	-0.127
-391.077	-49.708	0.463	-0.286
-390.063	-97.143	0.382	-0.129
-389.048	-200.000	0.088	0.563
-388.033	114.608	-0.039	-0.062
-387.019	274.279	-0.036	-0.084
-386.004	-17.082	0.385	-0.316
-384.990	-182.162	-0.339	0.008
-383.975	371.009	0.048	0.129
-382.960	-88.808	0.260	0.100
-381.946	-78.004	-0.304	-0.136
-380.931	-32.543	-0.313	0.227
-379.917	28.368	0.040	0.044
-378.902	-200.000	-0.036	0.405
-377.888	-111.569	-0.366	-0.096
-376.873	-9.893	0.142	-0.123
-375.858	-62.100	0.138	-0.075
-374.844	-200.000	-0.069	0.526
-373.829	27.407	0.211	0.232
-372.815	88.483	-0.190	-0.275
-371.800	445.327	-0.015	-0.044
-370.785	-32.922	-0.157	0.113
-369.771	-166.884	-0.282	-0.015
-368.756	-200.000	-0.015	-0.114
-367.742	-200.000	0.015	0.170
-366.727	377.785	-0.135	0.362
-365.712	-90.499	-0.351	-0.132
-364.698	-88.559	0.277	0.107
-363.683	-120.476	-0.336	0.074
-362.669	-88.971	-0.603	-0.231
-361.654	174.165	0.214	-0.404
-360.639	-173.007	-0.186	-0.007
-359.625	800.000	0.035	-0.136
-358.610	-12.418	-0.340	-0.289
-357.596	-200.000	0.036	0.577
-356.581	-46.898	-0.072	-0.046
-355.566	271.377	0.056	-0.130
-354.552	80.351	-0.113	0.159
-353.537	-155.862	0.114	0.009
-352.523	96.688	0.232	-0.347
-351.508	211.119	-0.163	0.335
-350.493	-82.598	-0.237	0.100
-349.479	-28.394	-0.289	0.217
-348.464	255.786	-0.173	-0.387
-347.450	580.174	0.182	0.583
-346.435	24.972	-0.266	-0.287
-345.420	-200.000	0.043	-0.547
-344.406	164.151	-0.132	0.243
-343.391	129.465	0.326	0.543
-342.377	-143.677	-0.330	0.040
-341.362	800.000	0.059	0.234
-340.348	755.734	-0.179	-0.635
-339.333	-114.452	0.186	0.046
-338.318	154.821	0.174	0.312
-337.304	-123.788	0.488	0.099
-336.289	-62.567	-0.456	-0.246
-335.275	159.955	-0.200	0.363
-334.260	471.938	-0.053	0.155
-333.245	-121.464	-0.437	0.094
-332.231	800.000	0.187	0.684
-331.216	-158.006	-0.088	-0.007
-330.202	-158.029	-0.317	0.024
-329.187	-98.158	-0.399	-0.133
-328.172	260.431	-0.061	0.137
-327.158	111.134	-0.210	-0.330
-326.143	38.851	0.301	-0.350
-325.129	78.592	0.152	-0.212
-324.114	-111.872	0.500	-0.130
-323.099	202.521	-0.155	-0.312
-322.085	745.312	0.114	-0.401
-321.070	-101.674	-0.224	0.070
-320.056	68.577	0.193	-0.258
-319.041	142.474	-0.037	-0.063
-318.026	800.000	-0.080	0.325
-317.012	-123.559	0.051	0.011
-315.997	90.133	-0.183	-0.267
-314.983	24.614	0.348	0.374
-313.968	-107.779	-0.249	-0.070
-312.953	-44.308	-0.027	-0.018
-311.939	583.417	0.072	0.230
-310.924	-12.344	0.228	0.193
-309.910	-80.340	0.321	-0.139
-308.895	124.240	0.053	0.087
-307.880	229.709	-0.182	-0.388
-306.866	-10.313	0.249	-0.214
-305.851	-200.000	0.007	0.363
-304.837	-150.259	-0.262	0.026
-303.822	-191.889	-0.071	0.001
-302.807	-135.655	0.680	0.104
-301.793	148.359	0.246	-0.432
-300.778	47.900	-0.143	0.174
-299.764	-200.000	0.011	-0.103
-298.749	17.094	0.350	-0.360
-297.735	-185.242	-0.081	-0.002
-296.720	-200.000	0.056	0.365
-295.705	38.812	-0.156	0.181
-294.691	148.633	0.287	0.506
-293.676	-200.000	0.012	0.509
-292.662	-116.476	-0.249	-0.059
-291.647	27.176	0.446	0.486
-290.632	56.678	0.228	0.288
-289.618	-137.507	0.335	0.049
-288.603	-200.000	-0.047	-0.391
-287.589	-92.781	0.260	-0.094
-286.574	-92.791	-0.444	0.161
-285.559	800.000	0.087	0.340
-284.545	-77.763	-0.386	0.172
-283.530	-200.000	0.004	0.098
-282.516	-80.877	0.159	-0.068
-281.501	418.296	0.103	0.288
-280.486	-148.932	0.408	-0.042
-279.472	-59.589	0.178	0.099
-278.457	116.760	0.081	0.129
-277.443	-0.585	-0.076	-0.070
-276.428	17.854	-0.337	0.348
-275.413	-200.000	-0.005	-0.354
-274.399	150.877	0.198	-0.350
-273.384	-81.936	0.194	-0.082
-272.370	33.605	0.247	0.279
-271.355	-113.601	-0.244	0.061
-270.340	-175.278	0.173	0.006
-269.326	-200.000	0.026	-0.468
-268.311	-200.000	0.185	0.000
-267.297	-134.410	0.427	0.067
-266.282	-135.632	0.102	0.016
-265.267	-200.000	0.011	0.320
-264.253	-107.494	-0.398	0.112
-263.238	526.850	-0.032	-0.098
-262.224	-105.352	0.313	-0.092
-261.209	125.523	-0.212	0.347
-260.195	-84.928	0.206	-0.084
-259.180	86.363	0.088	0.126
-258.165	-118.791	-0.487	0.110
-257.151	-156.197	0.125	0.010
-256.136	-105.673	0.161	0.047
-255.122	98.615	-0.240	-0.359
-254.107	-29.875	0.186	0.137
-253.092	58.207	0.308	-0.392
-252.078	-200.000	-0.015	-0.363
-251.063	-96.345	-0.395	0.135
-250.049	-104.630	0.196	-0.058
-249.034	800.000	0.019	0.106
-248.019	-55.352	0.398	0.231
-247.005	-75.642	0.121	0.055
-245.990	-21.946	-0.119	-0.094
-244.976	-64.284	-0.472	-0.248
-243.961	8.833	0.251	-0.245
-242.946	800.000	-0.066	-0.295
-241.932	-50.654	-0.447	0.272
-240.917	-102.893	-0.264	0.081
-239.903	-200.000	0.003	-0.058
-238.888	7.498	0.143	0.138
-237.873	74.667	-0.089	0.122
-236.859	94.100	0.084	0.124
-235.844	137.255	-0.066	-0.112
-234.830	277.896	-0.147	-0.340
-233.815	-200.000	0.044	-0.780
-232.800	-6.365	-0.122	-0.108
-231.786	-200.000	0.035	0.255
-230.771	36.179	0.350	-0.400
-229.757	-41.876	0.411	-0.272
-228.742	-142.490	-0.277	-0.035
-227.727	59.018	-0.301	0.384
-226.713	24.765	-0.326	0.350
-225.698	-83.974	0.281	-0.115
-224.684	59.601	0.348	-0.444
-223.669	68.615	0.039	0.051
-222.655	800.000	-0.133	0.693
-221.640	316.278	-0.189	0.465
-220.625	-22.230	0.244	0.191
-219.611	-32.047	-0.269	0.195
-218.596	486.348	-0.240	0.713
-217.582	-200.000	-0.013	0.564
-216.567	-88.511	0.073	0.028
-215.552	-124.657	-0.207	-0.041
-214.538	-44.536	-0.505	0.326
-213.523	-27.768	0.509	0.381
-212.509	-129.375	-0.094	-0.017
-211.494	800.000	0.133	-0.514
-210.479	-52.529	-0.369	0.220
-209.465	800.000	0.123	0.451
-208.450	-35.908	0.268	0.187
-207.436	-29.288	-0.337	0.250
-206.421	-200.000	0.021	-0.154
-205.406	235.072	0.222	-0.475
-204.392	189.203	-0.240	-0.466
-203.377	-200.000	-0.048	-0.439
-202.363	134.832	0.113	-0.190
-201.348	4.625	0.075	-0.072
-200.333	-99.970	0.194	0.062
-199.319	206.615	-0.097	-0.196
-198.304	171.575	-0.191	-0.357
-197.290	-78.126	-0.061	-0.027
-196.275	-87.925	0.310	-0.120
-195.260	-200.000	0.019	-0.298
-194.246	-166.646	0.210	0.011
-193.231	-38.433	0.243	0.166
-192.217	92.315	-0.124	0.181
-191.202	800.000	0.016	0.072
-190.187	0.289	0.085	0.079
-189.173	800.000	-0.093	-0.412
-188.158	-140.934	0.081	0.011
-187.144	-11.578	0.067	0.057
-186.129	86.816	-0.258	0.369
-185.114	381.480	0.323	0.861
-184.100	-66.091	0.188	-0.097
-183.085	-17.990	-0.168	0.136
-182.071	-59.525	0.515	-0.285
-181.056	19.995	0.242	0.252
-180.042	-59.954	0.411	0.226
-179.027	-111.407	0.208	0.054
-178.012	52.244	-0.068	0.084
-176.998	-67.719	-0.241	-0.122
-175.983	800.000	0.018	-0.093
-174.969	-131.622	0.303	-0.051
-173.954	557.943	-0.071	0.222
-172.939	-200.000	0.045	-0.414
-171.925	-109.349	0.534	0.145
-170.910	-156.408	0.133	-0.011
-169.896	310.086	0.168	0.408
-168.881	143.106	0.088	-0.151
-167.866	-182.353	0.388	0.009
-166.852	800.000	-0.063	0.332
-165.837	-57.353	-0.207	0.117
-164.823	503.593	0.021	0.063
-163.808	16.904	0.222	-0.228
-162.793	-64.423	0.453	0.237
-161.779	-86.872	0.323	-0.127
-160.764	45.728	-0.270	-0.323
-159.750	-9.263	-0.148	-0.128
-158.735	-200.000	0.070	0.496
-157.720	100.066	-0.302	0.453
-156.706	-0.396	-0.180	0.165
-155.691	780.878	0.040	0.144
-154.677	-200.000	-0.009	0.433
-153.662	-70.417	-0.350	0.171
-152.647	-200.000	-0.004	0.359
-151.633	-143.626	0.276	0.033
-150.618	29.789	-0.101	-0.112
-149.604	42.739	0.273	0.321
-148.589	800.000	0.014	-0.071
-147.574	-129.506	-0.281	0.050
-146.560	-54.296	0.090	-0.053
-145.545	-200.000	0.008	-0.250
-144.531	-200.000	-0.031	-0.295
-143.516	-109.680	0.413	-0.112
-142.502	-85.485	0.228	0.091
-141.487	-121.762	0.137	0.029
-140.472	-25.975	-0.287	-0.218
-139.458	502.310	0.184	0.550
-138.443	15.207	-0.255	0.258
-137.429	41.034	0.063	-0.073
-136.414	-102.618	0.214	-0.065
-135.399	-6.889	-0.093	-0.081
-134.385	-59.292	-0.446	0.247
-133.370	-40.398	0.133	0.089
-132.356	-172.152	0.331	-0.014
-131.341	108.482	0.161	0.248
-130.326	-38.462	0.205	0.140
-129.312	-18.112	0.201	0.162
-128.297	-20.941	0.548	0.433
-127.283	-191.523	0.243	-0.003
-126.268	268.698	0.159	0.361
-125.253	-108.747	-0.470	-0.129
-124.239	-174.984	-0.176	0.006
-123.224	41.784	0.223	0.260
-122.210	-6.497	0.089	-0.079
-121.195	14.089	-0.267	0.268
-120.180	187.052	-0.222	-0.428
-119.166	-200.000	0.020	-0.431
-118.151	-149.431	-0.251	-0.025
-117.137	-200.000	-0.029	-0.229
-116.122	-7.501	0.183	0.160
-115.107	-72.218	0.278	-0.132
-114.093	-87.865	-0.287	0.111
-113.078	800.000	0.029	-0.166
-112.064	800.000	0.053	0.289
-111.049	-200.000	0.024	-0.225
-110.034	-90.246	-0.484	-0.181
-109.020	-167.144	-0.330	0.017
-108.005	-91.977	-0.221	-0.080
-106.991	-88.140	-0.185	0.071
-105.976	-133.068	0.446	0.072
-104.962	-59.468	0.154	0.085
-103.947	-114.948	0.355	-0.087
-102.932	24.409	-0.073	-0.078
-101.918	-41.424	-0.218	-0.144
-100.903	172.066	-0.167	0.310
-99.889	-200.000	-0.022	0.167
-98.874	47.124	0.250	0.300
-97.859	7.867	0.170	0.164
-96.845	23.232	0.116	-0.122
-95.830	16.397	0.132	-0.135
-94.816	775.568	-0.116	-0.411
-93.801	305.676	0.032	-0.077
-92.786	-200.000	0.035	-0.485
-91.772	152.174	-0.161	0.283
-90.757	800.000	-0.081	0.349
-89.743	55.784	-0.234	0.292
-88.728	-200.000	0.006	-0.190
-87.713	-22.448	0.508	-0.395
-86.699	110.979	-0.241	0.375
-85.684	164.491	0.082	0.150
-84.670	42.406	-0.307	-0.359
-83.655	-200.000	-0.025	0.238
-82.640	-77.755	0.341	0.151
-81.626	5.765	-0.140	0.134
-80.611	-149.322	0.191	0.019
-79.597	-200.000	0.069	-0.412
-78.582	222.246	-0.125	0.260
-77.567	-42.047	0.249	0.164
-76.553	-46.423	0.321	-0.202
-75.538	-200.000	-0.000	-0.079
-74.524	10.893	-0.144	-0.141
-73.509	800.000	0.089	-0.496
-72.494	-200.000	0.039	-0.353
-71.480	-174.348	-0.073	-0.003
-70.465	590.514	-0.035	0.111
-69.451	-126.334	0.436	-0.083
-68.436	66.042	0.237	0.309
-67.422	220.224	0.206	0.427
-66.407	228.091	-0.157	0.330
-65.392	800.000	0.022	-0.103
-64.378	-32.263	0.202	-0.145
-63.363	2.856	0.274	0.256
-62.349	-42.560	-0.177	-0.116
-61.334	103.671	-1.828	-2.768
-60.319	62.891	1.474	1.901
-59.305	310.831	-3.078	-7.452
-58.290	62.589	3.656	4.707
-57.276	465.527	3.671	10.627
-56.261	-200.000	20.913	302.603
-55.246	362.109	1293.641	3354.952
-54.232	52.695	2865.175	3525.404
-53.217	53.355	2677.293	3304.304
-52.203	35.353	2406.353	2716.512
-51.188	30.792	2074.315	2285.452
-50.173	27.276	1960.678	2119.075
-49.159	26.120	1949.772	2093.739
-48.144	25.722	1945.654	2084.593
-47.130	25.627	1943.177	2080.761
-46.115	25.588	1942.057	2079.028
-45.100	25.550	1940.819	2077.178
-44.086	25.591	1939.139	2075.773
-43.071	25.562	1937.346	2073.426
-42.057	25.498	1936.167	2071.345
-41.042	25.573	1934.680	2070.541
-40.027	25.614	1933.672	2069.857
-39.013	25.517	1931.155	2065.954
-37.998	25.503	1929.797	2064.263
-36.984	25.525	1928.719	2063.273
-35.969	25.521	1927.353	2061.692
-34.954	25.469	1926.896	2060.521
-33.940	25.511	1925.168	2059.069
-32.925	25.396	1924.594	2057.056
-31.911	25.598	1921.711	2056.208
-30.896	25.506	1921.313	2054.645
-29.881	25.496	1919.554	2052.576
-28.867	25.470	1917.962	2050.487
-27.852	25.367	1916.660	2047.832
-26.838	25.344	1915.266	2045.997
-25.823	25.255	1914.640	2044.230
-24.809	25.231	1913.587	2042.752
-23.794	25.402	1911.391	2042.281
-22.779	25.305	1910.573	2040.218
-21.765	25.282	1910.431	2039.719
-20.750	25.301	1908.067	2037.334
-19.736	25.330	1907.384	2036.850
-18.721	25.111	1906.467	2033.301
-17.706	25.221	1905.226	2033.144
-16.692	25.348	1903.235	2032.384
-15.677	25.213	1903.422	2030.968
-14.663	25.131	1901.913	2028.348
-13.648	25.110	1900.342	2026.355
-12.633	25.186	1898.937	2025.635
-11.619	25.159	1897.714	2023.943
-10.604	25.161	1895.740	2021.778
-9.590	25.228	1894.447	2021.077
-8.575	25.163	1893.886	2019.662
-7.560	25.111	1892.351	2017.357
-6.546	25.133	1891.840	2016.980
-5.531	25.228	1889.930	2015.937
-4.517	25.309	1888.377	2015.116
-3.502	25.184	1888.320	2013.568
-2.487	25.219	1887.099	2012.583
-1.473	25.255	1882.361	2007.853
-0.458	24.855	1863.280	1982.972
0.556	20.694	2008.393	2075.138
1.571	18.798	2214.706	2262.952
2.586	19.596	2254.952	2314.549
3.600	19.530	2258.890	2317.423
4.615	19.585	2256.598	2315.537
5.629	19.513	2254.676	2312.310
6.644	19.555	2252.435	2310.306
7.659	19.461	2251.856	2308.169
8.673	19.528	2249.773	2306.653
9.688	19.333	2258.032	2312.223
10.702	18.353	2338.257	2380.396
11.717	16.480	2402.463	2418.566
12.731	7.743	2382.007	2272.617
13.746	1.061	2363.501	2159.217
14.761	0.202	2361.038	2144.410
15.775	0.124	2358.393	2140.641
16.790	0.073	2356.816	2138.229
17.804	0.033	2356.342	2136.961
18.819	-0.004	2354.675	2134.671
19.834	0.104	2352.351	2133.850
20.848	-0.030	2352.209	2131.548
21.863	0.047	2349.843	2130.244
22.877	0.006	2347.376	2127.177
23.892	0.014	2344.727	2124.634
24.907	0.084	2341.490	2122.445
25.921	0.073	2341.255	2121.820
26.936	-0.018	2339.852	2119.001
27.950	0.003	2336.874	2116.347
28.965	0.122	2333.956	2115.130
29.980	-0.011	2333.156	2112.273
30.994	0.060	2330.987	2111.059
32.009	3.907	2343.102	2176.253
33.023	13.543	2370.043	2338.303
34.038	17.547	2377.777	2402.548
35.053	17.449	2373.884	2396.939
36.067	17.218	2371.318	2390.798
37.082	17.229	2369.741	2389.067
38.096	17.411	2368.338	2389.944
39.111	17.661	2366.500	2391.332
40.126	17.988	2364.005	2393.126
41.140	18.063	2363.097	2392.969
42.155	18.029	2361.888	2390.991
43.169	17.993	2359.377	2387.647
44.184	17.789	2355.228	2380.309
45.199	17.800	2352.601	2377.524
46.213	17.761	2353.743	2377.843
47.228	18.004	2351.889	2379.090
48.242	17.989	2349.971	2376.657
49.257	18.148	2349.047	2377.652
50.271	18.217	2346.522	2375.782
51.286	17.924	2342.934	2367.777
52.301	17.668	2340.970	2361.949
53.315	18.667	2343.783	2378.429
54.330	21.760	2353.746	2431.451
55.344	23.885	2355.921	2463.023
56.359	24.215	2351.986	2463.196
57.374	24.211	2351.968	2462.829
58.388	24.266	2348.953	2460.148
59.403	24.100	2343.953	2452.309
60.417	23.768	2340.034	2443.330
61.432	23.690	2339.418	2441.322
62.447	23.893	2338.017	2442.364
63.461	24.147	2336.361	2443.849
64.476	24.342	2334.108	2443.889
65.490	23.943	2332.622	2436.551
66.505	23.030	2328.292	2419.182
67.520	20.846	2318.708	2378.988
68.534	18.468	2309.547	2336.752
69.549	17.838	2304.756	2322.998
70.563	17.755	2302.931	2319.748
71.578	17.786	2300.680	2317.628
72.593	17.796	2298.881	2315.670
73.607	17.854	2298.927	2316.240
74.622	17.818	2296.138	2312.659
75.636	17.751	2293.512	2308.826
76.651	17.685	2290.768	2304.890
77.666	17.550	2289.061	2301.067
78.680	17.522	2285.881	2297.207
79.695	17.255	2284.216	2291.643
80.709	17.202	2281.904	2288.332
81.724	17.172	2280.491	2286.237
82.739	17.263	2277.425	2284.115
83.753	17.350	2275.874	2283.459
84.768	17.254	2274.411	2280.424
85.782	17.190	2274.008	2278.884
86.797	17.099	2272.034	2275.417
87.812	17.247	2269.346	2274.442
88.826	17.275	2268.847	2274.036
89.841	17.549	2265.159	2273.749
90.855	17.411	2263.085	2269.550
91.870	17.585	2261.915	2270.427
92.884	17.624	2260.176	2268.943
93.899	17.719	2258.968	2268.729
94.914	18.365	2262.488	2280.640
95.928	21.066	2270.114	2324.276
96.943	22.045	2268.108	2335.027
97.957	19.357	2256.737	2287.254
98.972	17.562	2250.714	2256.987
99.987	17.380	2248.128	2251.707
101.001	17.438	2245.142	2249.210
102.016	17.420	2242.494	2246.055
103.030	17.331	2240.093	2242.199
104.045	17.430	2237.565	2240.716
105.060	17.340	2235.651	2237.336
106.074	17.313	2234.450	2235.516
107.089	17.344	2232.334	2233.537
108.103	17.355	2231.275	2232.352
109.118	17.408	2229.538	2231.048
110.133	17.618	2228.114	2232.117
111.147	17.434	2225.823	2227.142
112.162	17.332	2224.218	2223.931
113.176	17.488	2222.973	2224.469
114.191	17.575	2221.626	2223.997
115.206	17.612	2218.824	2221.408
116.220	17.486	2218.279	2218.944
117.235	17.579	2215.843	2217.457
118.249	17.803	2214.027	2218.301
119.264	17.600	2212.312	2213.665
120.279	17.517	2210.582	2210.582
121.293	17.678	2209.209	2211.052
122.308	17.686	2208.107	2209.789
123.322	17.475	2206.765	2205.426
124.337	18.056	2207.664	2213.633
125.352	20.971	2216.055	2259.821
126.366	21.858	2213.517	2268.500
127.381	18.839	2202.473	2217.792
128.395	17.703	2196.717	2197.033
129.410	17.575	2194.532	2192.919
130.424	17.402	2193.367	2189.261
131.439	17.573	2191.034	2188.881
132.454	17.576	2190.150	2187.768
133.468	17.755	2188.013	2187.688
134.483	17.850	2187.039	2187.677
135.497	17.775	2185.461	2184.861
136.512	17.741	2182.565	2181.267
137.527	17.633	2180.536	2177.601
138.541	17.341	2179.870	2172.917
139.556	17.419	2178.062	2171.858
140.570	17.303	2177.413	2169.468
141.585	17.170	2174.841	2164.933
142.600	17.342	2173.078	2165.131
143.614	17.346	2170.919	2162.761
144.629	17.278	2168.776	2159.505
145.643	17.116	2168.396	2156.796
146.658	17.093	2166.351	2154.213
147.673	16.997	2164.017	2150.409
148.687	17.104	2162.820	2150.328
149.702	17.349	2162.316	2152.693
150.716	17.365	2161.332	2151.651
151.731	17.500	2158.910	2150.693
152.746	17.398	2159.010	2149.243
153.760	18.333	2161.902	2163.743
154.775	21.200	2170.045	2208.138
155.789	22.301	2168.491	2220.264
156.804	19.378	2156.796	2171.100
157.819	17.500	2147.740	2138.038
158.833	17.082	2145.215	2129.991
159.848	17.024	2144.454	2128.250
160.862	17.279	2143.131	2129.893
161.877	17.445	2141.779	2130.387
162.892	17.411	2141.543	2129.472
163.906	17.536	2139.260	2128.514
164.921	17.551	2137.370	2126.562
165.935	17.449	2136.142	2123.813
166.950	17.577	2134.055	2123.084
167.964	17.636	2131.217	2120.746
168.979	17.472	2128.993	2116.237
169.994	17.193	2127.351	2110.857
171.008	17.228	2125.197	2108.907
172.023	17.234	2123.660	2107.203
173.037	17.320	2123.555	2107.919
174.052	17.510	2122.637	2109.122
175.067	17.482	2119.930	2105.834
176.081	17.320	2118.554	2102.199
177.096	17.451	2117.720	2102.752
178.110	17.503	2116.723	2102.151
179.125	17.555	2115.838	2101.669
180.140	17.585	2114.447	2100.400
181.154	17.539	2112.722	2097.869
182.169	17.806	2112.292	2100.503
183.183	18.601	2115.589	2113.368
184.198	21.941	2122.961	2161.910
185.213	22.419	2120.813	2165.379
186.227	19.218	2109.768	2114.421
187.242	17.859	2105.483	2093.129
188.256	17.569	2103.000	2086.836
189.271	17.434	2101.268	2083.207
190.286	17.439	2099.466	2081.234
191.300	17.394	2097.123	2078.112
192.315	17.447	2095.596	2076.995
193.329	17.664	2094.298	2078.124
194.344	17.917	2093.335	2080.010
195.359	17.855	2093.011	2078.681
196.373	17.707	2088.584	2072.231
197.388	17.499	2085.718	2066.603
198.402	17.245	2084.477	2062.023
199.417	17.259	2082.456	2059.947
200.432	17.362	2081.075	2059.588
201.446	17.438	2079.823	2059.026
202.461	17.239	2078.458	2055.013
203.475	17.281	2075.838	2052.690
204.490	17.266	2073.130	2049.585
205.504	17.314	2071.741	2048.545
206.519	17.411	2069.485	2047.246
207.534	17.311	2068.630	2044.947
208.548	17.254	2067.114	2042.513
209.563	17.360	2065.983	2042.426
210.577	17.518	2065.608	2043.719
211.592	17.460	2064.744	2041.925
212.607	18.886	2070.391	2064.492
213.621	22.548	2079.064	2117.202
214.636	21.998	2071.680	2102.810
215.650	18.545	2061.748	2051.037
216.665	17.676	2057.177	2035.813
217.680	17.518	2054.999	2031.518
218.694	17.398	2053.101	2027.963
219.709	17.240	2051.343	2024.090
220.723	17.505	2050.286	2025.974
221.738	17.567	2049.425	2025.623
222.753	17.639	2047.993	2024.831
223.767	17.592	2046.338	2022.387
224.782	17.587	2044.251	2020.025
225.796	17.521	2042.107	2016.874
226.811	17.408	2041.337	2014.533
227.826	17.576	2039.139	2014.122
228.840	17.390	2038.444	2010.976
229.855	17.468	2036.123	2009.370
230.869	17.484	2033.949	2007.176
231.884	17.428	2033.744	2006.077
232.899	17.477	2032.536	2005.226
233.913	17.609	2031.621	2005.642
234.928	17.539	2030.449	2003.418
235.942	17.460	2029.034	2000.848
236.957	17.516	2026.370	1998.643
237.972	17.572	2025.479	1998.184
238.986	17.454	2024.202	1995.289
240.001	17.585	2022.369	1994.788
241.015	17.591	2022.121	1994.381
242.030	18.431	2024.668	2006.541
243.045	21.370	2031.033	2047.255
244.059	22.000	2028.180	2051.536
245.074	18.911	2018.184	2005.028
246.088	17.922	2014.119	1989.168
247.103	18.005	2012.652	1988.459
248.117	18.056	2010.512	1986.704
249.132	17.763	2008.502	1981.056
250.147	17.692	2006.749	1978.263
251.161	17.688	2006.103	1977.346
252.176	17.842	2004.105	1976.923
253.190	18.089	2001.764	1977.257
254.205	18.159	2000.199	1976.280
255.220	18.179	1999.237	1975.328
256.234	17.921	1998.106	1970.989
257.249	17.665	1997.128	1966.812
258.263	17.468	1995.231	1962.429
259.278	17.411	1994.329	1960.649
260.293	17.563	1991.192	1959.087
261.307	17.411	1989.454	1955.387
262.322	17.264	1988.432	1952.442
263.336	17.299	1986.073	1950.307
264.351	17.142	1984.333	1946.549
265.366	17.219	1983.379	1946.263
266.380	17.217	1983.163	1945.800
267.395	17.151	1981.457	1943.139
268.409	17.394	1978.921	1943.203
269.424	17.305	1977.631	1940.687
270.439	17.423	1976.710	1940.902
271.453	18.584	1979.837	1957.060
272.468	21.880	1986.639	2001.414
273.482	21.976	1982.756	1998.367
274.497	18.926	1971.509	1952.037
275.512	17.468	1968.619	1932.315
276.526	17.396	1965.795	1928.493
277.541	17.213	1963.885	1924.300
278.555	17.368	1962.537	1924.515
279.570	17.224	1960.505	1920.650
280.585	17.353	1959.298	1920.706
281.599	17.456	1957.842	1920.213
282.614	17.679	1956.852	1921.538
283.628	17.957	1956.873	1924.489
284.643	18.143	1956.144	1925.641
285.657	18.156	1956.159	1925.574
286.672	18.308	1953.612	1924.556
287.687	18.076	1951.619	1919.743
288.701	17.863	1950.815	1916.312
289.716	18.083	1948.587	1916.377
290.730	17.980	1947.381	1913.801
291.745	18.136	1945.524	1913.504
292.760	18.127	1943.881	1911.555
293.774	17.940	1943.919	1909.261
294.789	17.974	1942.208	1907.741
295.803	17.920	1939.386	1904.136
296.818	17.736	1938.737	1901.205
297.833	17.923	1936.926	1901.289
298.847	17.712	1936.525	1898.308
299.862	17.803	1934.259	1896.884
300.876	18.687	1936.167	1908.409
301.891	21.932	1943.915	1952.160
302.906	22.341	1940.830	1953.403
303.920	19.083	1931.711	1907.744
304.935	17.917	1926.928	1889.833
305.949	17.996	1924.066	1887.673
306.964	17.809	1923.387	1884.700
307.979	17.923	1922.049	1884.436
308.993	18.110	1920.422	1884.686
310.008	18.225	1920.058	1885.378
311.022	18.312	1918.394	1884.475
312.037	18.067	1915.887	1879.081
313.052	18.123	1914.477	1878.095
314.066	18.190	1913.802	1877.941
315.081	18.231	1912.167	1876.572
316.095	18.379	1910.983	1876.807
317.110	18.172	1909.570	1872.927
318.125	17.929	1907.478	1867.968
319.139	17.805	1905.670	1864.615
320.154	17.894	1904.090	1863.828
321.168	17.823	1902.347	1861.118
322.183	17.669	1900.573	1857.472
323.197	17.357	1899.484	1852.775
324.212	17.232	1897.250	1848.997
325.227	17.244	1895.714	1847.413
326.241	17.255	1893.835	1845.482
327.256	17.272	1892.705	1844.349
328.270	17.360	1891.158	1843.579
329.285	17.474	1891.066	1844.510
330.300	18.376	1896.219	1859.155
331.314	21.906	1903.247	1904.414
332.329	22.017	1897.678	1899.817
333.343	18.760	1886.821	1853.445
334.358	17.425	1883.279	1835.280
335.373	17.255	1881.439	1831.427
336.387	17.029	1879.123	1826.508
337.402	17.006	1878.120	1825.068
338.416	17.128	1877.303	1825.374
339.431	17.275	1876.018	1825.489
340.446	17.404	1874.367	1825.057
341.460	17.876	1873.094	1828.689
342.475	17.937	1872.370	1828.414
343.489	18.111	1871.510	1829.229
344.504	18.107	1871.182	1828.644
345.519	18.183	1869.838	1827.924
346.533	18.902	1869.262	1834.860
347.548	19.324	1869.935	1839.839
348.562	19.132	1867.357	1835.024
349.577	19.040	1865.592	1832.077
350.592	18.690	1864.245	1826.798
351.606	18.617	1862.298	1823.883
352.621	18.622	1859.628	1821.114
353.635	18.148	1859.093	1815.307
354.650	18.001	1857.550	1812.021
355.665	17.973	1855.224	1809.235
356.679	17.909	1853.765	1806.911
357.694	18.029	1851.989	1806.241
358.708	17.820	1850.763	1802.612
359.723	19.040	1855.392	1819.883
360.738	22.440	1861.380	1861.738
361.752	21.921	1856.004	1850.634
362.767	18.857	1847.029	1809.096
363.781	17.863	1843.819	1795.233
364.796	17.839	1841.369	1792.372
365.810	17.591	1840.622	1788.818
366.825	17.882	1838.876	1789.969
367.840	17.840	1837.929	1788.398
368.854	17.720	1837.658	1786.646
369.869	17.763	1835.775	1785.054
370.883	17.883	1833.984	1784.362
371.898	18.040	1834.001	1785.822
372.913	17.916	1832.566	1782.901
373.927	18.122	1831.269	1783.591
374.942	18.209	1830.041	1783.096
375.956	18.276	1828.393	1781.970
376.971	17.998	1826.777	1777.274
377.986	17.925	1824.921	1774.493
379.000	17.904	1823.449	1772.636
380.015	17.933	1822.413	1771.715
381.029	17.638	1819.238	1765.344
382.044	17.450	1817.167	1761.172
383.059	17.488	1815.559	1759.798
384.073	17.415	1814.744	1758.041
385.088	17.410	1814.389	1757.429
386.102	17.290	1812.507	1754.156
387.117	17.277	1811.077	1752.431
388.132	17.324	1811.259	1752.876
389.146	18.351	1815.782	1767.708
390.161	22.010	1820.586	1810.166
391.175	21.751	1813.155	1799.890
392.190	18.566	1803.959	1757.779
393.205	17.674	1801.074	1745.587
394.219	17.588	1799.057	1742.530
395.234	17.460	1797.546	1739.547
396.248	17.641	1796.293	1739.980
397.263	17.523	1793.903	1736.251
398.278	17.549	1792.135	1734.604
399.292	17.517	1791.293	1733.244
400.307	17.675	1789.684	1733.096
401.321	17.728	1789.497	1733.257
402.336	18.014	1788.612	1735.112
403.350	18.042	1787.025	1733.648
404.365	17.963	1786.711	1732.334
405.380	18.007	1785.825	1731.709
406.394	18.109	1785.339	1732.066
407.409	18.435	1783.765	1733.651
408.423	18.570	1782.767	1733.852
409.438	18.397	1780.286	1729.467
410.453	18.265	1779.163	1726.830
411.467	18.252	1779.234	1726.565
412.482	18.123	1777.338	1723.209
413.496	17.911	1775.215	1718.800
414.511	17.868	1773.254	1716.260
415.526	17.888	1770.877	1713.954
416.540	17.558	1770.348	1709.912
417.555	17.746	1768.602	1709.918
418.569	17.941	1768.459	1711.538
419.584	18.010	1768.475	1712.047
420.599	17.873	1768.861	1710.826
421.613	17.661	1766.099	1705.827
422.628	17.671	1764.614	1704.284
423.642	17.612	1763.459	1702.374
424.657	17.604	1761.455	1700.157
425.672	17.674	1760.345	1699.579
426.686	17.786	1758.877	1699.076
427.701	17.672	1757.870	1696.764
428.715	17.913	1756.023	1697.186
429.730	17.918	1755.903	1696.918
430.745	17.939	1753.901	1694.992
431.759	17.956	1753.128	1694.211
432.774	18.209	1753.860	1697.232
433.788	18.679	1753.353	1701.223
434.803	18.924	1753.490	1703.601
435.818	18.850	1752.763	1701.949
436.832	18.689	1752.019	1699.418
437.847	17.996	1744.051	1684.626
438.861	10.126	1723.003	1586.742
439.876	1.834	1708.381	1491.741
440.890	0.304	1704.203	1472.898
441.905	0.208	1702.574	1470.374
442.920	0.252	1701.263	1469.496
443.934	0.133	1700.341	1467.357
444.949	0.132	1699.720	1466.631
445.963	0.094	1698.620	1465.138
446.978	0.145	1697.992	1464.917
447.993	0.168	1696.009	1463.259
449.007	0.149	1694.120	1461.261
450.022	0.046	1692.127	1458.367
451.036	0.172	1690.913	1458.373
452.051	1.066	1695.669	1471.027
453.066	8.799	1712.969	1561.866
454.080	17.056	1726.631	1655.390
455.095	19.322	1729.811	1680.470
456.109	20.279	1730.832	1690.636
457.124	20.714	1729.777	1693.666
458.139	20.861	1729.008	1694.140
459.153	20.900	1728.864	1694.181
460.168	20.813	1727.215	1691.516
461.182	20.738	1725.051	1688.458
462.197	20.613	1723.546	1685.568
463.212	20.391	1721.849	1681.547
464.226	20.579	1720.236	1681.595
465.241	20.863	1719.759	1683.692
466.255	20.940	1719.637	1684.115
467.270	21.046	1718.013	1683.352
468.285	20.595	1716.020	1676.829
469.299	20.376	1714.513	1673.032
470.314	20.705	1712.475	1674.025
471.328	20.792	1710.992	1673.218
472.343	20.705	1710.995	1672.182
473.358	20.760	1710.203	1671.736
474.372	20.933	1708.478	1671.516
475.387	20.717	1706.082	1666.890
476.401	20.524	1704.399	1663.189
477.416	20.490	1703.275	1661.570
478.430	20.542	1702.985	1661.588
479.445	20.359	1700.966	1657.666
480.460	20.205	1699.184	1654.249
481.474	20.486	1699.162	1656.726
482.489	20.857	1698.302	1659.236
483.503	20.979	1697.498	1659.420
484.518	21.133	1695.920	1659.153
485.533	21.066	1694.626	1657.048
486.547	21.158	1692.738	1655.884
487.562	21.276	1692.604	1656.680
488.576	21.273	1690.581	1654.475
489.591	21.274	1689.621	1653.343
490.606	21.109	1687.227	1649.239
491.620	21.109	1686.509	1648.340
492.635	21.443	1684.742	1649.582
493.649	21.643	1684.651	1651.193
494.664	20.982	1682.309	1642.442
495.679	20.492	1679.470	1634.833
496.693	20.628	1678.644	1635.121
497.708	20.960	1678.685	1638.104
498.722	21.350	1678.023	1640.946
499.737	21.526	1676.481	1640.899
500.752	21.132	1673.954	1634.520
501.766	21.053	1672.226	1631.893
502.781	21.063	1672.000	1631.567
503.795	21.155	1669.967	1630.257
504.810	21.120	1670.073	1629.839
505.825	21.507	1668.982	1632.203
506.839	21.468	1667.561	1630.252
507.854	21.413	1666.544	1628.549
508.868	21.304	1665.181	1626.002
509.883	21.493	1663.469	1625.905
510.898	21.667	1662.634	1626.517
511.912	21.492	1660.256	1622.369
512.927	21.171	1659.115	1618.064
513.941	21.126	1657.894	1616.261
514.956	20.926	1655.941	1612.304
515.971	20.939	1654.989	1611.307
516.985	21.186	1654.010	1612.450
518.000	21.226	1653.457	1612.090
519.014	21.616	1653.664	1615.720
520.029	21.588	1652.264	1613.895
521.043	21.594	1650.066	1611.619
522.058	21.537	1649.177	1610.025
523.073	21.697	1648.699	1610.847
524.087	22.149	1648.034	1614.181
525.102	22.039	1645.414	1610.401
526.116	21.301	1643.712	1601.746
527.131	21.189	1643.211	1600.040
528.146	21.762	1643.054	1604.965
529.160	21.993	1641.604	1605.485
530.175	21.971	1641.227	1604.722
531.189	21.963	1639.634	1602.900
532.204	22.143	1637.450	1602.218
533.219	21.740	1635.688	1596.614
534.233	21.236	1634.938	1591.076
535.248	21.598	1635.339	1594.586
536.262	22.197	1634.967	1599.512
537.277	21.930	1632.944	1594.911
538.292	21.738	1630.059	1590.145
539.306	21.483	1628.623	1586.231
540.321	21.654	1626.905	1585.928
541.335	21.427	1625.879	1582.675
542.350	21.721	1624.832	1584.134
543.365	22.140	1623.020	1585.984
544.379	22.168	1622.230	1585.272
545.394	22.140	1621.883	1584.492
546.408	21.755	1618.830	1577.837
547.423	21.183	1617.286	1570.967
548.438	21.218	1616.329	1570.167
549.452	21.483	1616.237	1572.287
550.467	21.530	1615.499	1571.805
551.481	21.730	1613.951	1571.911
552.496	22.213	1613.254	1575.399
553.511	22.372	1612.736	1576.130
554.525	21.987	1613.168	1572.897
555.540	22.218	1611.683	1573.339
556.554	22.457	1610.244	1573.893
557.569	22.235	1608.412	1569.926
558.583	21.926	1606.408	1565.009
559.598	22.151	1605.536	1565.989
560.613	22.136	1604.179	1564.346
561.627	22.362	1602.454	1564.492
562.642	22.354	1602.193	1563.985
563.656	22.688	1600.802	1565.418
564.671	22.691	1599.663	1564.139
565.686	22.619	1597.962	1561.648
566.700	22.286	1596.172	1556.755
567.715	21.954	1595.108	1552.577
568.729	21.823	1593.152	1549.326
569.744	21.631	1590.954	1545.298
570.759	21.655	1590.004	1544.401
571.773	21.835	1589.157	1544.991
572.788	22.076	1589.072	1546.857
573.802	22.225	1587.424	1546.387
574.817	22.429	1586.829	1547.421
575.832	22.611	1586.533	1548.558
576.846	22.565	1584.437	1545.915
577.861	22.370	1583.756	1543.348
578.875	22.551	1582.898	1543.925
579.890	22.685	1582.267	1544.304
580.905	22.915	1580.282	1544.204
581.919	22.949	1580.293	1544.328
582.934	22.993	1579.811	1544.055
583.948	22.959	1578.806	1542.591
584.963	22.718	1577.050	1538.575
585.978	22.268	1575.413	1532.853
586.992	22.594	1574.748	1534.882
588.007	22.853	1573.703	1535.943
589.021	22.202	1570.821	1527.266
590.036	21.570	1569.081	1519.874
591.051	22.088	1568.252	1523.406
592.065	22.491	1567.445	1525.951
593.080	22.776	1565.931	1526.770
594.094	22.850	1564.520	1525.852
595.109	22.346	1561.828	1518.678
596.123	21.955	1560.406	1513.720
597.138	22.289	1560.431	1516.464
598.153	22.645	1559.703	1518.656
599.167	22.587	1558.623	1516.917
600.182	22.628	1558.323	1516.801
601.196	22.812	1556.829	1516.752
602.211	22.744	1555.650	1514.841
603.226	22.912	1555.206	1515.670
604.240	22.930	1554.121	1514.590
605.255	23.304	1552.584	1516.126
606.269	23.203	1551.415	1513.938
607.284	23.015	1550.623	1511.366
608.299	23.073	1548.917	1510.022
609.313	22.855	1546.940	1506.045
610.328	22.942	1546.205	1505.893
611.342	23.124	1544.713	1505.818
612.357	23.214	1544.591	1506.287
613.372	23.343	1543.382	1506.029
614.386	23.235	1541.748	1503.336
615.401	23.331	1541.451	1503.683
616.415	23.322	1540.669	1502.664
617.430	23.342	1540.261	1502.261
618.445	23.366	1539.077	1501.128
619.459	23.291	1537.248	1498.530
620.474	22.828	1535.443	1492.655
621.488	22.306	1532.291	1484.980
622.503	21.764	1531.765	1479.698
623.518	22.425	1531.867	1485.229
624.532	23.100	1531.962	1490.862
625.547	23.118	1531.204	1490.099
626.561	23.554	1530.901	1493.317
627.576	23.768	1529.102	1493.186
628.591	22.963	1526.495	1483.673
629.605	22.662	1524.649	1479.163
630.620	22.480	1523.037	1475.887
631.634	22.145	1520.864	1470.787
632.649	22.242	1521.192	1471.746
633.663	22.682	1520.755	1474.849
634.678	23.217	1519.986	1478.414
635.693	23.490	1519.407	1479.973
636.707	23.780	1517.703	1480.558
637.722	23.927	1516.814	1480.748
638.736	23.985	1516.099	1480.354
639.751	23.820	1514.981	1477.707
640.766	23.581	1514.192	1474.765
641.780	23.738	1512.416	1474.167
642.795	23.555	1511.580	1471.649
643.809	23.652	1510.677	1471.407
644.824	23.729	1509.645	1470.862
645.839	23.491	1508.311	1467.410
646.853	23.655	1506.835	1467.161
647.868	23.798	1505.089	1466.474
648.882	23.464	1504.381	1462.833
649.897	23.410	1503.515	1461.370
650.912	23.392	1501.792	1459.376
651.926	23.470	1500.605	1458.686
652.941	23.105	1498.761	1453.708
653.955	22.681	1495.832	1447.196
654.970	22.283	1493.230	1441.227
655.985	22.224	1492.632	1439.993
656.999	22.357	1491.825	1440.136
658.014	22.579	1491.291	1441.278
659.028	22.949	1490.822	1443.689
660.043	23.181	1490.817	1445.416
661.058	23.271	1489.898	1445.086
662.072	23.601	1488.610	1446.374
663.087	23.533	1487.075	1444.148
664.101	23.278	1486.653	1441.481
665.116	23.675	1486.169	1444.088
666.131	23.592	1485.122	1442.220
667.145	23.691	1483.380	1441.163
668.160	23.999	1482.581	1442.726
669.174	24.231	1481.755	1443.637
670.189	24.086	1479.824	1440.403
671.204	23.699	1479.298	1436.574
672.218	23.697	1478.445	1435.554
673.233	24.058	1477.089	1436.999
674.247	24.217	1476.496	1437.536
675.262	24.285	1476.269	1437.695
676.276	24.312	1474.483	1436.002
677.291	24.094	1473.086	1432.707
678.306	23.771	1471.675	1428.552
679.320	23.817	1470.845	1427.945
680.335	23.894	1471.229	1428.769
681.349	24.092	1469.916	1428.924
682.364	24.119	1468.475	1427.570
683.379	24.205	1467.300	1426.943
684.393	24.029	1465.912	1424.009
685.408	24.190	1465.052	1424.302
686.422	23.963	1463.780	1421.072
687.437	24.155	1463.345	1422.014
688.452	24.379	1462.650	1422.967
689.466	24.208	1460.497	1419.335
690.481	24.094	1459.258	1417.051
691.495	23.628	1457.186	1411.142
692.510	22.882	1454.503	1402.428
693.525	22.464	1453.069	1397.541
694.539	22.803	1453.172	1400.173
695.554	23.708	1454.215	1408.229
696.568	24.232	1453.908	1411.940
697.583	24.262	1453.069	1411.189
698.598	24.449	1452.110	1411.576
699.612	24.588	1450.797	1411.235
700.627	24.385	1449.581	1408.276
701.641	24.318	1447.751	1405.798
702.656	24.435	1447.339	1406.159
703.671	24.595	1447.068	1406.989
704.685	24.806	1445.856	1407.313
705.700	24.446	1444.974	1403.445
706.714	24.264	1442.770	1399.699
707.729	24.011	1440.702	1395.530
708.744	23.922	1439.737	1393.727
709.758	23.819	1437.690	1390.766
710.773	23.272	1436.203	1384.865
711.787	23.147	1434.763	1382.331
712.802	23.522	1433.525	1383.910
713.816	23.749	1433.939	1385.928
714.831	24.130	1433.239	1388.066
715.846	24.150	1432.918	1387.751
716.860	24.447	1431.276	1388.318
717.875	24.410	1430.036	1386.654
718.889	24.159	1429.074	1383.600
719.904	24.353	1427.608	1383.529
720.919	24.422	1427.115	1383.418
721.933	24.555	1426.189	1383.391
722.948	24.564	1425.743	1382.864
723.962	24.719	1424.867	1383.057
724.977	24.720	1423.771	1381.830
725.992	24.772	1422.531	1380.865
727.006	24.653	1421.016	1378.310
728.021	24.666	1420.088	1377.343
729.035	24.777	1418.773	1376.762
730.050	24.774	1417.500	1375.343
731.065	24.797	1416.277	1374.167
732.079	24.961	1415.340	1374.361
733.094	24.692	1414.394	1371.203
734.108	24.620	1412.110	1368.269
735.123	24.629	1411.695	1367.775
736.138	24.638	1410.592	1366.606
737.152	24.679	1409.658	1365.858
738.167	24.925	1408.849	1366.793
739.181	24.894	1408.374	1365.934
740.196	24.933	1407.565	1365.283
741.211	24.936	1406.976	1364.573
742.225	24.960	1404.751	1362.434
743.240	24.851	1403.582	1360.307
744.254	24.933	1402.219	1359.449
745.269	24.788	1401.663	1357.639
746.284	24.578	1400.996	1355.227
747.298	24.501	1399.594	1353.126
748.313	24.123	1397.290	1347.861
749.327	23.531	1395.558	1341.532
750.342	23.115	1393.569	1336.298
751.356	22.759	1391.853	1331.791
752.371	23.136	1391.442	1334.096
753.386	24.039	1392.741	1342.030
754.400	24.604	1392.598	1346.015
755.415	25.090	1391.873	1348.825
756.429	25.150	1390.359	1347.655
757.444	24.944	1388.854	1344.475
758.459	25.039	1388.626	1344.811
759.473	25.104	1387.878	1344.414
760.488	25.055	1386.779	1342.824
761.502	25.154	1385.423	1342.092
762.517	24.953	1383.617	1338.677
763.532	24.742	1381.927	1335.296
764.546	24.456	1380.402	1331.521
765.561	23.760	1378.622	1324.425
766.575	23.068	1377.115	1317.638
767.590	22.952	1376.297	1315.832
768.605	23.767	1376.255	1321.735
769.619	24.244	1375.392	1324.307
770.634	24.558	1374.956	1326.074
771.648	24.784	1374.518	1327.179
772.663	25.109	1373.810	1328.757
773.678	25.145	1372.762	1327.851
774.692	25.124	1372.424	1327.209
775.707	25.239	1371.869	1327.366
776.721	25.154	1371.229	1325.960
777.736	25.100	1370.294	1324.495
778.751	25.192	1368.990	1323.761
779.765	25.123	1367.066	1321.231
780.780	25.283	1366.642	1321.846
781.794	25.103	1365.576	1319.322
782.809	25.081	1364.227	1317.701
783.824	24.821	1363.170	1314.604
784.838	24.296	1360.309	1307.815
785.853	23.550	1358.616	1300.540
786.867	23.661	1359.101	1301.660
787.882	24.216	1358.864	1305.372
788.897	24.416	1358.179	1306.027
789.911	24.809	1356.630	1307.267
790.926	24.864	1356.070	1306.977
791.940	24.981	1355.321	1306.957
792.955	24.924	1354.476	1305.564
793.969	25.139	1353.340	1305.889
794.984	25.104	1352.755	1304.913
795.999	25.308	1351.755	1305.283
797.013	25.335	1350.276	1303.898
798.028	25.308	1348.756	1302.072
799.042	25.191	1348.300	1300.628
800.057	25.348	1347.184	1300.538
801.072	25.301	1346.012	1298.908
802.086	25.270	1344.786	1297.342
803.101	25.351	1344.103	1297.117
804.115	25.514	1342.325	1296.425
805.130	25.407	1341.482	1294.687
806.145	25.421	1340.244	1293.434
807.159	25.208	1338.638	1290.189
808.174	25.040	1337.507	1287.732
809.188	25.208	1335.403	1286.765
810.203	24.811	1333.725	1282.138
811.218	24.440	1332.323	1277.967
812.232	23.977	1330.504	1272.736
813.247	23.474	1329.822	1268.320
814.261	24.117	1330.436	1273.374
815.276	24.847	1329.722	1277.776
816.291	25.148	1329.283	1279.362
817.305	25.500	1328.302	1280.789
818.320	25.356	1327.291	1278.631
819.334	25.316	1326.165	1277.107
820.349	25.331	1324.279	1275.242
821.364	25.278	1323.366	1273.835
822.378	25.219	1322.299	1272.232
823.393	25.697	1319.946	1273.220
824.407	25.548	1318.579	1270.690
825.422	25.497	1318.242	1269.850
826.437	25.318	1316.880	1267.117
827.451	25.149	1314.532	1263.509
828.466	24.226	1311.968	1254.362
829.480	23.937	1310.135	1250.423
830.495	24.391	1309.059	1252.448
831.509	24.799	1309.735	1255.825
832.524	24.972	1310.065	1257.212
833.539	25.276	1308.947	1258.132
834.553	25.514	1307.234	1258.009
835.568	25.458	1306.273	1256.539
836.582	25.520	1305.672	1256.244
837.597	25.523	1304.277	1254.773
838.612	25.457	1302.281	1252.241
839.626	25.161	1301.241	1249.019
840.641	24.865	1300.057	1245.667
841.655	24.523	1298.114	1241.266
842.670	23.948	1295.663	1234.760
843.685	23.347	1294.354	1229.177
844.699	24.106	1294.951	1234.887
845.714	24.669	1294.368	1238.103
846.728	24.929	1294.066	1239.479
847.743	25.320	1293.061	1241.084
848.758	25.505	1291.725	1240.935
849.772	25.480	1290.638	1239.569
850.787	25.450	1289.752	1238.366
851.801	25.514	1288.291	1237.253
852.816	25.315	1287.137	1234.623
853.831	25.273	1285.387	1232.510
854.845	25.463	1283.234	1231.604
855.860	25.300	1281.876	1229.035
856.874	25.047	1280.353	1225.683
857.889	24.603	1278.900	1221.096
858.904	24.268	1277.036	1216.878
859.918	23.724	1274.924	1210.993
860.933	23.577	1273.632	1208.612
861.947	23.942	1273.536	1210.872
862.962	24.493	1273.118	1214.099
863.977	24.632	1272.403	1214.219
864.991	24.972	1271.593	1215.625
866.006	24.992	1272.150	1216.147
867.020	25.323	1270.664	1216.838
868.035	25.519	1269.185	1216.606
869.049	25.578	1268.921	1216.609
870.064	25.586	1268.080	1215.712
871.079	25.482	1267.232	1214.049
872.093	25.494	1266.801	1213.569
873.108	25.401	1265.123	1211.185
874.122	24.978	1263.549	1206.671
875.137	24.516	1262.082	1202.001
876.152	24.273	1260.462	1198.669
877.166	24.616	1259.114	1199.562
878.181	24.800	1259.215	1200.757
879.195	25.163	1259.261	1203.103
880.210	25.436	1258.382	1203.962
881.225	25.626	1257.166	1203.927
882.239	25.653	1255.912	1202.769
883.254	25.653	1256.002	1202.707
884.268	25.608	1255.228	1201.521
885.283	25.608	1253.317	1199.547
886.298	25.551	1251.669	1197.446
887.312	25.598	1250.770	1196.759
888.327	25.535	1249.694	1195.161
889.341	25.417	1247.964	1192.581
890.356	25.286	1247.701	1191.312
891.371	25.227	1247.628	1190.704
892.385	25.122	1246.336	1188.627
893.400	25.198	1244.665	1187.401
894.414	24.908	1243.029	1183.770
895.429	24.585	1240.680	1179.249
896.444	23.716	1237.646	1170.468
897.458	22.999	1236.986	1164.959
898.473	23.576	1236.947	1168.604
899.487	24.515	1237.053	1174.771
900.502	24.764	1236.982	1176.215
901.517	25.016	1236.517	1177.297
902.531	25.200	1235.506	1177.401
903.546	25.271	1234.939	1177.194
904.560	25.343	1234.308	1176.925
905.575	25.415	1233.522	1176.504
906.589	25.466	1231.731	1174.994
907.604	25.468	1231.016	1174.185
