DTS Sentinel unit serial number:	SN409020Multiplexer serial number:	ORYXHardware model number:	OX4-SRSoftware version number:	ORYX F/W v3.00 Oryx Data Collector v3.7.2.0data status	okinstallation	HaddamTimeLapsedifferential loss correction	single-endedforward channel	channel 3reverse channel	N/Adate	2011/06/22time	10:31:17forward acquisition time	30.00reverse acquisition time	0.00gamma	498.7831k internal	0.1812k external	0.1812temperature offset calibration	1.0074default loss term (dB/km)	0.3790temperature slope calibration	1.3530multiplexer offset coefficient	1.0000multiplexer slope coefficient	1.0000fibre end	0.00T internal ref (°C)	30.16T ext. ref 1 (°C)	25.70T ext. ref 2 (°C)	0.23length (m)	temperature (°C)	Stokes	anti-Stokes-747.200	180.962	-0.133	0.252
-746.185	-200.000	-0.054	0.623
-745.171	-84.471	-0.253	-0.102
-744.156	498.716	-0.030	0.090
-743.142	-200.000	-0.052	-0.463
-742.127	-107.134	-0.331	0.093
-741.112	-141.317	0.168	-0.022
-740.098	175.259	-0.149	0.278
-739.083	35.230	-0.238	-0.268
-738.069	12.697	-0.329	0.326
-737.054	79.374	-0.124	-0.171
-736.039	-93.902	-0.242	-0.085
-735.025	-147.750	0.229	0.024
-734.010	-200.000	0.023	0.357
-732.996	3.726	-0.440	0.411
-731.981	716.516	-0.110	0.377
-730.966	242.458	-0.259	-0.557
-729.952	-121.668	-0.553	0.117
-728.937	-80.172	-0.242	-0.104
-727.923	-42.817	0.032	0.021
-726.908	-25.480	-0.406	-0.307
-725.894	800.000	-0.108	0.611
-724.879	-54.874	0.430	0.248
-723.864	100.917	0.158	-0.237
-722.850	-200.000	-0.069	-0.512
-721.835	186.766	-0.242	-0.464
-720.821	433.863	0.101	-0.283
-719.806	-200.000	0.036	-0.435
-718.791	63.508	0.346	0.445
-717.777	-178.059	-0.627	-0.019
-716.762	2.536	0.179	-0.166
-715.748	136.519	-0.188	-0.315
-714.733	-192.306	-0.492	-0.006
-713.718	-2.745	-0.247	-0.221
-712.704	-115.018	-0.247	-0.060
-711.689	-34.371	-0.265	0.186
-710.675	451.839	-0.243	-0.692
-709.660	-35.730	0.246	0.171
-708.645	214.429	0.318	0.648
-707.631	-13.930	0.207	-0.171
-706.616	17.222	0.438	-0.445
-705.602	300.414	0.052	0.124
-704.587	79.952	-0.067	0.092
-703.572	-200.000	-0.070	-0.633
-702.558	-36.818	-0.398	0.273
-701.543	800.000	-0.059	-0.287
-700.529	385.745	0.169	0.449
-699.514	-179.057	-0.520	0.015
-698.499	9.926	-0.310	0.302
-697.485	-80.095	-0.232	-0.099
-696.470	-143.661	-0.369	0.044
-695.456	-111.085	-0.463	0.121
-694.441	78.911	-0.161	0.221
-693.426	-200.000	-0.022	0.166
-692.412	-176.327	0.489	-0.016
-691.397	800.000	-0.024	0.098
-690.383	-28.271	-0.333	-0.246
-689.368	-9.281	-0.283	-0.242
-688.354	-27.623	-0.533	0.395
-687.339	136.412	-0.261	-0.437
-686.324	-175.288	-0.282	-0.010
-685.310	59.175	-0.370	0.467
-684.295	433.905	0.163	0.456
-683.281	-16.483	-0.147	-0.119
-682.266	-200.000	-0.006	0.236
-681.251	124.665	-0.038	-0.061
-680.237	297.525	0.220	-0.520
-679.222	62.325	-0.340	-0.435
-678.208	800.000	0.023	-0.097
-677.193	3.108	-0.107	-0.100
-676.178	483.969	0.062	0.183
-675.164	621.441	-0.093	-0.300
-674.149	-112.894	0.368	-0.093
-673.135	71.076	-0.188	-0.249
-672.120	800.000	0.074	-0.282
-671.105	-130.414	-0.145	-0.025
-670.091	-75.791	0.350	0.158
-669.076	-19.241	0.126	0.100
-668.062	-5.981	-0.547	-0.478
-667.047	194.632	0.146	-0.285
-666.032	10.993	-0.296	-0.289
-665.018	-178.061	0.325	-0.010
-664.003	-86.267	0.072	-0.028
-662.989	20.575	-0.212	0.219
-661.974	-48.037	-0.239	-0.148
-660.959	-84.431	0.209	-0.084
-659.945	-74.045	0.139	0.064
-658.930	74.058	-0.124	-0.166
-657.916	-200.000	-0.020	-0.414
-656.901	-200.000	-0.095	-0.655
-655.886	48.839	-0.107	-0.129
-654.872	-18.214	-0.133	-0.106
-653.857	800.000	-0.076	-0.375
-652.843	29.706	-0.205	0.224
-651.828	41.704	0.361	-0.419
-650.814	-200.000	-0.014	-0.334
-649.799	-58.708	0.100	0.055
-648.784	-200.000	0.050	0.466
-647.770	-122.366	-0.676	-0.140
-646.755	-9.201	-0.380	0.324
-645.741	-93.074	-0.361	0.128
-644.726	107.342	-0.055	-0.084
-643.711	264.428	-0.157	-0.350
-642.697	-26.340	-0.276	0.207
-641.682	-36.292	-0.517	-0.356
-640.668	800.000	-0.129	-0.483
-639.653	-41.684	-0.238	0.156
-638.638	800.000	0.064	-0.347
-637.624	751.751	0.097	-0.338
-636.609	-200.000	-0.002	-0.750
-635.595	-148.611	-0.230	0.024
-634.580	10.169	-0.218	0.212
-633.565	-21.867	0.282	-0.219
-632.551	100.842	-0.446	0.664
-631.536	-70.786	0.400	0.192
-630.522	-95.512	-0.381	0.130
-629.507	70.804	-0.235	-0.311
-628.492	57.208	-0.221	0.276
-627.478	40.556	-0.188	0.217
-626.463	-181.384	-0.300	-0.007
-625.449	-160.412	-0.790	0.053
-624.434	-95.115	-0.083	-0.028
-623.419	-44.999	-0.336	-0.213
-622.405	89.405	0.241	-0.343
-621.390	423.828	-0.104	-0.286
-620.376	-39.605	-0.534	0.356
-619.361	-47.422	-0.629	0.390
-618.346	-82.888	-0.200	-0.082
-617.332	-200.000	-0.036	0.233
-616.317	-59.615	-0.143	0.078
-615.303	11.234	-0.260	0.254
-614.288	207.285	0.090	0.179
-613.273	-51.198	0.474	-0.283
-612.259	-49.287	-0.458	-0.279
-611.244	559.979	-0.198	0.613
-610.230	-80.647	-0.214	-0.090
-609.215	-118.303	0.378	0.085
-608.201	12.302	0.101	0.099
-607.186	-29.798	-0.671	0.488
-606.171	-15.472	-0.243	-0.198
-605.157	-22.299	-0.318	0.245
-604.142	800.000	0.086	0.411
-603.128	131.976	-0.146	-0.240
-602.113	800.000	0.054	0.300
-601.098	-72.353	-0.223	0.105
-600.084	-85.545	0.217	-0.086
-599.069	-104.207	0.230	0.068
-598.055	-89.812	-0.395	-0.147
-597.040	71.230	-0.090	-0.120
-596.025	-65.547	0.086	0.044
-595.011	-18.562	0.168	-0.134
-593.996	-138.374	0.524	-0.073
-592.982	153.947	0.060	-0.104
-591.967	11.584	-0.137	0.134
-590.952	455.805	0.025	0.071
-589.938	-59.472	0.379	0.207
-588.923	-92.250	0.321	0.115
-587.909	-200.000	0.000	0.015
-586.894	-200.000	0.007	-0.361
-585.879	-145.905	0.437	0.049
-584.865	4.235	0.203	0.189
-583.850	-34.280	0.347	-0.243
-582.836	-151.754	0.068	-0.006
-581.821	800.000	0.137	-0.566
-580.806	77.921	-0.104	0.142
-579.792	-200.000	0.025	0.603
-578.777	32.983	-0.377	0.417
-577.763	60.363	-0.084	0.106
-576.748	800.000	0.176	-0.630
-575.733	67.582	0.264	0.345
-574.719	-130.801	0.145	0.025
-573.704	-200.000	0.000	-0.038
-572.690	-107.354	0.542	-0.151
-571.675	193.692	0.023	0.044
-570.661	-11.989	-0.062	-0.052
-569.646	-200.000	-0.032	0.346
-568.631	64.169	-0.121	0.156
-567.617	-84.825	-0.148	-0.059
-566.602	-107.892	-0.368	0.101
-565.588	-200.000	0.418	-0.002
-564.573	-80.341	-0.222	-0.094
-563.558	-48.956	-0.132	-0.080
-562.544	-47.207	0.186	-0.115
-561.529	800.000	-0.125	-0.476
-560.515	49.275	-0.482	-0.578
-559.500	-73.570	-0.378	-0.175
-558.485	-200.000	0.045	0.447
-557.471	-200.000	-0.010	0.255
-556.456	164.739	0.116	0.210
-555.442	-200.000	0.067	0.528
-554.427	-200.000	0.088	0.511
-553.412	644.767	0.067	-0.220
-552.398	-31.921	0.262	0.186
-551.383	62.017	-0.240	0.305
-550.369	800.000	-0.048	0.214
-549.354	-14.569	-0.535	-0.438
-548.339	-53.099	0.241	-0.140
-547.325	33.399	-0.155	0.171
-546.310	-103.854	-0.235	0.070
-545.296	22.971	0.095	0.099
-544.281	-44.184	0.175	-0.112
-543.266	800.000	-0.133	-0.524
-542.252	-38.223	0.382	0.257
-541.237	-82.842	-0.188	0.077
-540.223	-169.035	-0.318	-0.015
-539.208	20.651	0.159	-0.164
-538.193	-129.358	-0.281	0.049
-537.179	98.804	-0.177	0.261
-536.164	39.005	0.092	-0.105
-535.150	-15.162	-0.441	-0.359
-534.135	-154.601	-0.135	0.011
-533.121	452.962	-0.236	-0.667
-532.106	110.805	0.081	0.125
-531.091	42.068	-0.108	-0.125
-530.077	12.656	-0.217	0.213
-529.062	141.137	-0.264	0.446
-528.048	800.000	-0.064	-0.268
-527.033	-152.367	-0.344	0.031
-526.018	-109.676	-0.522	-0.139
-525.004	-51.775	0.192	-0.114
-523.989	457.524	0.111	0.314
-522.975	80.369	0.214	0.294
-521.960	-118.872	0.426	0.094
-520.945	-169.471	-0.244	-0.011
-519.931	-108.207	-0.458	0.125
-518.916	-34.098	0.041	-0.029
-517.902	-200.000	-0.030	0.181
-516.887	-151.920	-0.145	-0.013
-515.872	-148.393	-0.165	0.017
-514.858	206.614	0.122	-0.243
-513.843	65.586	0.198	-0.256
-512.829	-185.063	0.201	-0.004
-511.814	-171.674	0.505	-0.021
-510.799	60.219	0.344	-0.432
-509.785	768.578	0.074	-0.257
-508.770	608.729	0.033	-0.107
-507.756	800.000	0.084	0.385
-506.741	276.192	-0.146	-0.332
-505.726	-200.000	0.022	-0.253
-504.712	-47.545	0.442	0.272
-503.697	-144.842	0.503	-0.058
-502.683	111.280	-0.181	0.277
-501.668	-160.128	-0.521	-0.035
-500.653	-68.507	-0.398	-0.195
-499.639	-111.897	0.213	-0.054
-498.624	283.328	-0.233	0.535
-497.610	-200.000	-0.005	0.166
-496.595	27.197	-0.236	-0.252
-495.581	-111.694	-0.273	0.070
-494.566	-200.000	0.024	-0.167
-493.551	-32.458	-0.112	-0.079
-492.537	-140.642	0.565	-0.074
-491.522	800.000	-0.053	-0.188
-490.508	-11.072	-0.147	-0.123
-489.493	294.456	0.047	-0.110
-488.478	214.970	0.240	-0.484
-487.464	-119.632	0.120	0.026
-486.449	-129.110	0.455	-0.080
-485.435	53.568	0.311	-0.380
-484.420	-29.725	0.359	-0.259
-483.405	111.338	-0.193	-0.295
-482.391	-91.719	0.064	-0.023
-481.376	800.000	0.061	0.228
-480.362	-144.701	0.217	0.025
-479.347	77.165	0.489	-0.661
-478.332	57.324	-0.249	0.309
-477.318	-134.541	0.137	0.021
-476.303	-200.000	-0.004	-0.299
-475.289	77.691	0.198	0.268
-474.274	-131.701	-0.195	-0.032
-473.259	-200.000	0.011	0.303
-472.245	591.883	-0.024	0.074
-471.230	456.307	-0.133	-0.376
-470.216	800.000	0.064	-0.317
-469.201	420.845	0.075	0.205
-468.186	-200.000	-0.013	0.281
-467.172	107.759	0.104	-0.158
-466.157	-61.624	0.286	-0.152
-465.143	-147.452	0.626	-0.066
-464.128	-17.770	0.339	0.269
-463.113	-110.387	0.093	-0.024
-462.099	-103.116	0.377	0.112
-461.084	-98.914	0.567	0.182
-460.070	800.000	-0.044	-0.205
-459.055	346.743	0.043	0.107
-458.040	549.825	-0.047	0.143
-457.026	-67.638	0.181	0.090
-456.011	800.000	0.039	0.217
-454.997	-96.564	0.179	0.059
-453.982	14.281	-0.082	-0.081
-452.968	421.508	-0.088	0.240
-451.953	-42.472	0.254	-0.164
-450.938	-79.250	-0.389	0.167
-449.924	103.520	0.165	-0.246
-448.909	70.268	-0.415	-0.545
-447.895	90.923	-0.160	0.228
-446.880	1.141	0.435	-0.395
-445.865	245.976	-0.061	0.130
-444.851	800.000	0.066	-0.315
-443.836	800.000	0.080	-0.366
-442.822	-140.791	0.612	-0.079
-441.807	-70.611	0.157	-0.075
-440.792	664.087	-0.066	-0.218
-439.778	-114.577	0.334	0.081
-438.763	145.421	0.291	0.495
-437.749	-53.679	-0.495	0.286
-436.734	-6.387	0.280	-0.242
-435.719	131.679	-0.081	-0.132
-434.705	-171.856	0.649	0.026
-433.690	-51.814	0.209	0.123
-432.676	303.179	-0.040	0.094
-431.661	111.101	0.277	0.424
-430.646	-65.029	-0.293	-0.149
-429.632	-65.374	0.184	0.093
-428.617	-200.000	-0.014	-0.678
-427.603	96.920	0.075	0.109
-426.588	-94.811	0.284	-0.097
-425.573	286.376	0.246	-0.566
-424.559	-127.178	0.152	-0.028
-423.544	-200.000	-0.036	0.212
-422.530	-159.302	-0.057	-0.004
-421.515	56.013	0.271	0.333
-420.500	-200.000	-0.054	0.323
-419.486	300.620	-0.036	0.085
-418.471	181.359	-0.126	-0.235
-417.457	184.189	-0.103	-0.193
-416.442	-118.335	-0.235	-0.053
-415.428	59.431	0.041	0.052
-414.413	698.496	0.058	-0.195
-413.398	-98.984	-0.354	-0.113
-412.384	522.574	-0.100	-0.298
-411.369	-103.342	0.679	-0.202
-410.355	54.023	0.221	0.269
-409.340	1.077	-0.207	-0.188
-408.325	-200.000	0.045	-0.467
-407.311	-65.533	-0.280	-0.142
-406.296	-200.000	-0.024	0.220
-405.282	-37.302	-0.189	-0.128
-404.267	-46.510	-0.285	-0.177
-403.252	-93.891	0.623	0.216
-402.238	-200.000	-0.039	-0.249
-401.223	95.910	-0.126	-0.182
-400.209	-200.000	0.004	-0.130
-399.194	380.653	-0.374	-0.975
-398.179	82.144	-0.120	0.164
-397.165	474.750	-0.195	-0.559
-396.150	-114.192	-0.229	-0.056
-395.136	319.344	-0.105	0.253
-394.121	-200.000	0.044	0.459
-393.106	-100.899	-0.238	-0.074
-392.092	-43.546	-0.207	-0.132
-391.077	-194.041	-0.336	-0.003
-390.063	-200.000	-0.004	-0.234
-389.048	-200.000	0.009	0.105
-388.033	-56.163	-0.256	-0.144
-387.019	-145.393	0.068	-0.008
-386.004	800.000	-0.104	-0.560
-384.990	399.247	-0.050	0.133
-383.975	58.344	-0.262	0.325
-382.960	-52.348	0.046	0.027
-381.946	-3.192	0.323	0.285
-380.931	71.739	-0.168	-0.221
-379.917	617.379	-0.081	0.260
-378.902	800.000	0.080	-0.356
-377.888	148.687	0.119	-0.204
-376.873	-123.552	-0.444	0.088
-375.858	138.991	0.054	0.090
-374.844	800.000	-0.107	0.396
-373.829	800.000	-0.016	0.068
-372.815	-152.144	0.734	0.067
-371.800	-52.296	-0.372	0.217
-370.785	624.836	-0.077	0.247
-369.771	-98.696	-0.213	0.068
-368.756	15.140	-0.257	-0.255
-367.742	-62.298	0.256	-0.134
-366.727	-77.605	-0.065	-0.028
-365.712	-77.919	-0.121	-0.052
-364.698	-110.875	0.136	0.035
-363.683	800.000	-0.104	-0.396
-362.669	-175.809	0.085	0.003
-361.654	-150.886	0.053	0.005
-360.639	-200.000	-0.002	0.256
-359.625	-200.000	-0.102	-0.620
-358.610	-151.451	-0.199	0.018
-357.596	-200.000	0.008	-0.176
-356.581	-37.334	-0.121	-0.081
-355.566	168.256	-0.086	-0.155
-354.552	-112.459	0.453	0.114
-353.537	-89.986	0.253	-0.093
-352.523	-50.344	0.435	-0.259
-351.508	160.606	0.177	0.313
-350.493	-60.136	-0.153	-0.082
-349.479	800.000	-0.180	0.689
-348.464	-100.474	0.217	0.067
-347.450	-3.371	0.283	-0.249
-346.435	23.238	-0.115	-0.120
-345.420	-65.655	-0.331	-0.167
-344.406	-35.117	-0.403	0.277
-343.391	-96.081	0.541	0.181
-342.377	-200.000	0.020	0.119
-341.362	800.000	-0.014	-0.056
-340.348	-161.161	0.398	0.026
-339.333	-200.000	0.009	-0.092
-338.318	87.174	0.307	-0.429
-337.304	291.156	-0.078	-0.181
-336.289	-105.811	-0.235	0.067
-335.275	800.000	0.016	0.070
-334.260	-126.678	0.752	-0.139
-333.245	173.475	0.186	0.340
-332.231	-107.410	-0.381	0.105
-331.216	-98.009	-0.359	0.116
-330.202	800.000	-0.054	0.233
-329.187	-0.101	-0.358	0.321
-328.172	194.912	-0.139	0.268
-327.158	-40.504	0.517	-0.338
-326.143	-200.000	-0.008	0.279
-325.129	-200.000	0.020	0.225
-324.114	800.000	0.132	0.578
-323.099	-144.476	0.184	0.021
-322.085	-95.317	-0.307	0.104
-321.070	12.775	-0.254	-0.247
-320.056	-40.930	-0.196	0.128
-319.041	-34.013	-0.202	-0.140
-318.026	-200.000	-0.036	-0.327
-317.012	-200.000	-0.006	0.205
-315.997	-108.288	0.121	-0.033
-314.983	-6.573	0.128	-0.110
-313.968	-143.293	0.218	-0.026
-312.953	-132.797	-0.223	0.036
-311.939	-66.958	-0.174	-0.087
-310.924	-200.000	0.003	0.249
-309.910	-200.000	-0.016	-0.350
-308.895	-48.520	-0.243	-0.147
-307.880	-15.007	0.308	0.249
-306.866	-200.000	-0.014	0.092
-305.851	-86.220	0.148	0.057
-304.837	-200.000	0.000	-0.599
-303.822	-121.984	-0.270	-0.056
-302.807	-145.439	0.495	-0.056
-301.793	2.987	0.056	-0.051
-300.778	-93.951	-0.270	0.093
-299.764	348.213	-0.136	0.339
-298.749	-5.481	0.110	-0.095
-297.735	-94.710	-0.320	0.109
-296.720	143.381	-0.047	-0.080
-295.705	-19.421	-0.292	-0.228
-294.691	-182.081	-0.398	-0.009
-293.676	-104.436	-0.075	-0.022
-292.662	240.703	0.078	-0.166
-291.647	163.204	0.212	-0.377
-290.632	-104.949	-0.263	-0.075
-289.618	458.594	0.065	0.183
-288.603	-115.247	0.448	0.106
-287.589	-61.741	-0.122	-0.064
-286.574	12.595	-0.093	0.091
-285.559	9.957	-0.267	0.255
-284.545	160.734	-0.135	-0.238
-283.530	-52.439	-0.186	0.108
-282.516	167.240	0.178	0.319
-281.501	-57.292	0.081	0.045
-280.486	-34.322	0.331	-0.229
-279.472	-200.000	-0.034	-0.335
-278.457	201.738	-0.236	-0.459
-277.443	-200.000	-0.030	0.657
-276.428	289.985	-0.269	0.618
-275.413	800.000	-0.180	0.711
-274.399	800.000	0.108	0.525
-273.384	-200.000	0.053	0.478
-272.370	-101.756	0.371	-0.113
-271.355	-86.956	-0.443	-0.169
-270.340	-200.000	0.034	0.227
-269.326	17.501	-0.351	0.351
-268.311	-0.474	-0.315	0.282
-267.297	-104.051	-0.258	-0.075
-266.282	74.841	0.285	0.379
-265.267	-186.385	0.295	-0.005
-264.253	-194.107	-0.302	0.003
-263.238	492.364	0.128	-0.371
-262.224	121.387	-0.184	-0.289
-261.209	-200.000	0.008	0.112
-260.195	115.685	0.071	0.109
-259.180	-42.955	0.142	-0.090
-258.165	-8.517	-0.389	-0.328
-257.151	2.071	0.187	-0.170
-256.136	-200.000	-0.001	0.119
-255.122	84.281	0.329	-0.454
-254.107	-127.646	0.059	0.011
-253.092	-69.305	0.626	-0.301
-252.078	-200.000	-0.061	0.393
-251.063	-154.957	0.265	-0.022
-250.049	-12.643	0.287	0.235
-249.034	-99.267	0.255	-0.080
-248.019	758.656	0.175	0.600
-247.005	-32.316	0.367	-0.257
-245.990	-200.000	-0.038	-0.403
-244.976	199.549	0.132	0.255
-243.961	-11.974	0.253	0.209
-242.946	-51.143	0.510	0.300
-241.932	-30.949	0.112	-0.079
-240.917	-91.590	0.310	-0.111
-239.903	93.042	0.046	0.065
-238.888	-48.009	0.160	-0.097
-237.873	499.869	-0.192	0.559
-236.859	357.700	-0.134	-0.339
-235.844	-38.845	-0.254	0.168
-234.830	165.475	-0.127	0.227
-233.815	228.756	0.099	-0.204
-232.800	60.944	0.186	-0.233
-231.786	-200.000	-0.025	0.279
-230.771	279.897	0.130	0.293
-229.757	-62.210	0.449	0.234
-228.742	-137.922	0.500	0.069
-227.727	-133.951	0.508	-0.078
-226.713	-24.820	-0.153	0.114
-225.698	45.420	-0.204	-0.237
-224.684	237.051	0.212	-0.442
-223.669	800.000	0.023	-0.106
-222.655	-200.000	-0.029	-0.294
-221.640	384.163	0.149	-0.387
-220.625	-29.587	0.329	0.236
-219.611	72.268	-0.214	0.280
-218.596	-154.614	-0.158	0.013
-217.582	800.000	0.050	0.202
-216.567	-1.043	-0.277	-0.246
-215.552	-32.268	-0.122	0.085
-214.538	239.692	-0.059	-0.124
-213.523	-197.000	-0.402	-0.003
-212.509	-42.436	-0.298	-0.191
-211.494	-10.429	0.361	0.300
-210.479	223.786	-0.107	0.218
-209.465	-9.207	0.435	-0.365
-208.450	98.402	-0.281	0.407
-207.436	-161.831	-0.496	0.031
-206.421	-200.000	-0.032	-0.547
-205.406	-75.325	-0.397	-0.177
-204.392	20.812	0.206	-0.210
-203.377	-83.933	0.129	0.051
-202.363	6.426	0.353	0.329
-201.348	13.138	-0.332	0.322
-200.333	-75.742	-0.188	-0.084
-199.319	-52.458	-0.095	-0.055
-198.304	-200.000	-0.024	-0.215
-197.290	-147.682	0.134	0.014
-196.275	-121.520	-0.589	-0.122
-195.260	-59.639	0.604	0.324
-194.246	77.541	-0.184	-0.246
-193.231	192.367	-0.046	0.088
-192.217	52.621	0.129	0.155
-191.202	-31.360	0.192	-0.136
-190.187	-48.015	0.334	0.202
-189.173	-37.736	-0.121	-0.081
-188.158	800.000	0.073	0.358
-187.144	-82.263	0.079	0.032
-186.129	-53.541	-0.148	-0.085
-185.114	-54.198	0.229	0.130
-184.100	-89.617	-0.392	-0.144
-183.085	800.000	0.055	0.231
-182.071	-200.000	0.017	-0.296
-181.056	125.355	0.108	-0.172
-180.042	52.967	0.274	0.330
-179.027	-136.075	0.429	-0.063
-178.012	791.894	0.054	0.188
-176.998	-159.998	0.274	0.019
-175.983	-178.978	-0.504	0.014
-174.969	153.176	-0.369	-0.636
-173.954	183.550	-0.125	0.233
-172.939	9.585	-0.284	-0.270
-171.925	-95.678	0.405	-0.135
-170.910	153.289	0.276	-0.475
-169.896	249.373	-0.087	0.186
-168.881	-200.000	-0.024	0.213
-167.866	-200.000	-0.005	0.546
-166.852	21.188	0.328	0.334
-165.837	-103.256	-0.316	0.093
-164.823	-91.679	0.136	-0.048
-163.808	-47.092	0.273	0.166
-162.793	-0.440	0.234	0.208
-161.779	67.190	0.252	0.322
-160.764	-81.576	0.162	0.066
-159.750	-141.717	0.608	-0.076
-158.735	-27.122	-0.243	0.177
-157.720	-38.589	-0.081	-0.053
-156.706	-170.328	-0.449	-0.019
-155.691	-78.610	-0.440	-0.188
-154.677	-41.614	-0.225	0.145
-153.662	-24.374	-0.111	-0.083
-152.647	-109.920	0.285	-0.074
-151.633	-118.590	0.499	0.110
-150.618	-43.785	-0.153	0.096
-149.604	36.371	0.190	-0.210
-148.589	-61.680	0.506	-0.265
-147.574	-12.559	-0.360	-0.294
-146.560	176.928	0.291	-0.532
-145.545	-50.585	0.464	-0.273
-144.531	32.083	0.345	-0.372
-143.516	-55.545	-0.149	-0.083
-142.502	52.823	0.132	-0.158
-141.487	187.930	-0.064	0.121
-140.472	800.000	0.097	0.523
-139.458	-63.901	-0.331	-0.169
-138.443	16.290	0.495	-0.489
-137.429	-200.000	-0.042	-0.244
-136.414	-200.000	-0.045	0.444
-135.399	-81.952	-0.228	0.093
-134.385	-2.339	-0.503	-0.441
-133.370	-95.089	-0.110	0.037
-132.356	-193.907	0.364	0.004
-131.341	800.000	0.059	-0.242
-130.326	-71.752	-0.320	0.149
-129.312	-29.839	-0.144	-0.102
-128.297	411.734	0.101	-0.270
-127.283	-57.614	-0.065	-0.036
-126.268	-73.015	0.343	-0.157
-125.253	-26.337	-0.103	0.075
-124.239	105.355	-0.163	0.242
-123.224	123.869	-0.111	-0.175
-122.210	112.045	-0.210	0.318
-121.195	13.056	-0.081	0.078
-120.180	455.905	0.128	-0.358
-119.166	-10.896	-0.174	0.144
-118.151	-49.605	0.422	0.251
-117.137	-139.522	0.231	0.031
-116.122	-53.736	0.254	0.145
-115.107	-200.000	0.091	-0.696
-114.093	800.000	0.052	0.227
-113.078	-129.764	-0.268	0.046
-112.064	149.422	0.114	-0.194
-111.049	-148.978	-0.550	0.055
-110.034	132.080	-0.105	-0.169
-109.020	-56.467	0.194	0.108
-108.005	-98.950	0.381	0.120
-106.991	-45.419	-0.182	-0.113
-105.976	-66.344	0.152	0.076
-104.962	329.684	-0.076	-0.184
-103.947	-105.152	0.409	-0.116
-102.932	140.225	0.320	-0.530
-101.918	-62.038	0.119	-0.062
-100.903	-35.178	0.610	0.415
-99.889	113.060	-0.141	0.214
-98.874	-74.450	0.346	-0.155
-97.859	120.617	0.291	-0.453
-96.845	103.933	-0.091	-0.133
-95.830	-143.280	0.269	-0.032
-94.816	118.865	-0.292	-0.452
-93.801	445.027	-0.090	0.249
-92.786	30.030	-0.188	-0.200
-91.772	190.441	-0.079	0.148
-90.757	-151.382	0.363	-0.033
-89.743	27.414	0.286	0.301
-88.728	-25.511	-0.225	-0.166
-87.713	237.125	0.115	-0.239
-86.699	800.000	-0.120	-0.612
-85.684	-200.000	-0.020	0.232
-84.670	-78.097	-0.063	0.027
-83.655	-161.948	-0.036	0.002
-82.640	-113.612	-0.130	0.032
-81.626	336.668	-0.133	-0.324
-80.611	189.687	-0.083	-0.156
-79.597	-200.000	0.014	0.478
-78.582	135.744	-0.184	0.301
-77.567	-200.000	0.064	-0.505
-76.553	-169.099	-0.276	-0.013
-75.538	-200.000	0.031	0.345
-74.524	-139.599	-0.068	0.009
-73.509	172.010	-0.198	0.357
-72.494	101.984	0.265	0.387
-71.480	-127.230	0.194	-0.035
-70.465	-178.585	0.437	0.012
-69.451	59.814	-0.142	-0.175
-68.436	-15.167	-0.202	0.161
-67.422	-74.395	-0.136	-0.061
-66.407	-107.308	-0.279	0.076
-65.392	679.866	-0.020	0.067
-64.378	-50.319	0.203	-0.119
-63.363	-55.007	0.241	0.135
-62.349	-116.516	-0.502	0.115
-61.334	57.307	-1.655	-2.020
-60.319	-53.599	1.134	0.646
-59.305	284.519	-3.027	-6.834
-58.290	-9.951	3.549	2.945
-57.276	456.458	3.813	10.627
-56.261	-200.000	16.680	255.333
-55.246	443.754	1203.322	3313.022
-54.232	62.711	2823.579	3530.358
-53.217	72.229	2709.457	3529.049
-52.203	63.531	2442.436	3064.633
-51.188	35.830	2097.181	2304.043
-50.173	33.390	1973.143	2140.005
-49.159	31.274	1961.601	2103.488
-48.144	30.618	1958.605	2092.766
-47.130	30.583	1956.355	2089.883
-46.115	30.648	1953.973	2087.998
-45.100	30.457	1952.321	2083.989
-44.086	30.429	1950.901	2082.072
-43.071	30.459	1949.349	2080.675
-42.057	30.403	1948.680	2079.243
-41.042	30.352	1947.479	2077.311
-40.027	30.320	1945.836	2075.122
-39.013	30.334	1944.655	2073.933
-37.998	30.397	1942.469	2072.227
-36.984	30.385	1941.556	2071.032
-35.969	30.318	1941.105	2069.725
-34.954	30.255	1939.538	2067.256
-33.940	30.269	1938.376	2066.092
-32.925	30.269	1936.719	2064.246
-31.911	30.329	1934.594	2062.570
-30.896	30.243	1934.066	2060.967
-29.881	30.211	1932.848	2059.228
-28.867	30.157	1931.758	2057.380
-27.852	30.205	1929.931	2055.888
-26.838	30.194	1928.316	2053.967
-25.823	30.148	1927.072	2052.047
-24.809	30.177	1925.735	2050.872
-23.794	30.117	1925.435	2049.801
-22.779	30.254	1922.201	2047.796
-21.765	30.079	1921.795	2045.345
-20.750	30.029	1921.646	2044.539
-19.736	30.094	1919.462	2042.859
-18.721	30.185	1917.510	2041.707
-17.706	30.159	1916.056	2039.794
-16.692	30.176	1915.456	2039.255
-15.677	30.029	1915.178	2037.262
-14.663	30.104	1914.276	2037.049
-13.648	30.215	1911.652	2035.403
-12.633	30.006	1910.408	2031.689
-11.619	30.178	1908.684	2031.666
-10.604	30.076	1908.076	2029.820
-9.590	29.949	1907.922	2028.173
-8.575	29.975	1906.276	2026.631
-7.560	30.080	1904.683	2026.010
-6.546	29.968	1904.097	2024.080
-5.531	29.972	1902.198	2022.019
-4.517	30.015	1901.623	2021.805
-3.502	30.047	1899.565	2019.890
-2.487	29.981	1899.443	2018.949
-1.473	30.104	1895.607	2016.136
-0.458	30.285	1876.035	1997.206
0.556	26.700	2016.716	2092.886
1.571	25.768	2230.542	2302.532
2.586	27.273	2274.943	2367.788
3.600	27.185	2278.231	2369.781
4.615	27.197	2277.818	2369.228
5.629	27.227	2276.475	2367.942
6.644	27.222	2273.120	2364.098
7.659	27.198	2272.131	2362.475
8.673	27.430	2270.341	2363.355
9.688	26.854	2275.195	2360.587
10.702	24.418	2349.854	2404.804
11.717	22.019	2415.684	2438.428
12.731	11.359	2388.662	2262.958
13.746	1.875	2362.152	2106.306
14.761	0.406	2357.065	2081.156
15.775	0.305	2355.156	2077.814
16.790	0.309	2353.328	2076.008
17.804	0.235	2351.836	2073.431
18.819	0.273	2350.975	2072.937
19.834	0.230	2349.230	2070.564
20.848	0.276	2347.963	2069.836
21.863	0.212	2346.303	2067.242
22.877	0.285	2343.556	2065.578
23.892	0.207	2340.899	2061.916
24.907	0.202	2339.347	2060.236
25.921	0.106	2337.148	2056.723
26.936	0.140	2335.751	2055.713
27.950	0.268	2332.315	2054.201
28.965	0.253	2330.478	2052.141
29.980	0.339	2328.830	2051.613
30.994	0.428	2326.737	2050.740
32.009	5.411	2344.435	2134.591
33.023	19.018	2387.213	2362.278
34.038	26.059	2402.584	2474.653
35.053	27.305	2402.977	2491.925
36.067	27.451	2399.649	2490.180
37.082	27.141	2398.125	2484.050
38.096	27.038	2395.763	2479.890
39.111	27.510	2394.435	2484.684
40.126	27.986	2394.149	2490.617
41.140	28.409	2393.598	2495.536
42.155	27.920	2390.838	2485.668
43.169	27.741	2388.528	2480.525
44.184	27.967	2386.174	2480.871
45.199	27.894	2383.148	2476.440
46.213	27.595	2381.997	2470.868
47.228	27.501	2380.672	2467.913
48.242	27.526	2378.312	2465.519
49.257	27.655	2377.305	2465.930
50.271	28.045	2374.475	2467.990
51.286	28.164	2372.450	2467.209
52.301	27.817	2370.185	2459.853
53.315	27.159	2367.454	2447.824
54.330	25.576	2360.794	2419.255
55.344	24.406	2354.727	2396.967
56.359	24.256	2352.021	2391.901
57.374	24.068	2349.191	2386.198
58.388	24.002	2346.629	2382.419
59.403	24.400	2344.153	2384.981
60.417	24.697	2341.975	2386.462
61.432	24.994	2340.348	2388.491
62.447	24.879	2338.068	2384.351
63.461	24.608	2336.825	2379.167
64.476	24.550	2334.609	2375.844
65.490	25.115	2334.992	2383.512
66.505	25.766	2336.687	2393.656
67.520	26.666	2338.118	2406.852
68.534	27.072	2337.102	2410.938
69.549	27.436	2334.406	2412.723
70.563	27.684	2332.511	2413.768
71.578	27.519	2330.842	2409.560
72.593	27.543	2329.509	2408.220
73.607	27.836	2328.502	2410.774
74.622	27.928	2327.015	2410.169
75.636	27.740	2323.903	2404.171
76.651	27.608	2321.558	2399.703
77.666	27.646	2319.123	2397.404
78.680	27.791	2317.706	2397.572
79.695	28.027	2316.999	2399.664
80.709	28.221	2315.633	2400.517
81.724	28.239	2314.967	2399.785
82.739	28.307	2311.063	2396.337
83.753	28.112	2309.595	2391.968
84.768	27.928	2308.041	2387.652
85.782	27.980	2306.450	2386.408
86.797	27.883	2303.827	2382.131
87.812	27.742	2301.140	2377.231
88.826	27.535	2299.582	2372.618
89.841	27.777	2297.516	2373.365
90.855	28.103	2296.015	2375.794
91.870	27.711	2293.423	2367.718
92.884	27.578	2291.738	2363.950
93.899	27.758	2290.977	2365.236
94.914	27.243	2288.846	2356.046
95.928	25.686	2283.945	2330.475
96.943	25.201	2280.148	2320.018
97.957	26.339	2282.286	2336.709
98.972	27.328	2281.787	2348.754
99.987	27.095	2278.976	2342.568
101.001	27.114	2276.877	2340.376
102.016	27.408	2274.630	2341.581
103.030	27.428	2272.903	2339.785
104.045	27.672	2271.669	2341.387
105.060	28.001	2270.686	2344.334
106.074	28.031	2268.158	2341.822
107.089	27.677	2266.212	2334.980
108.103	27.750	2266.736	2336.184
109.118	27.921	2263.647	2334.915
110.133	27.936	2263.401	2334.582
111.147	28.219	2260.005	2334.429
112.162	28.113	2257.912	2330.624
113.176	27.787	2256.523	2324.743
114.191	27.743	2253.246	2320.518
115.206	27.581	2251.577	2316.450
116.220	27.596	2249.727	2314.461
117.235	27.553	2246.823	2310.655
118.249	27.600	2244.721	2308.808
119.264	27.779	2244.332	2310.416
120.279	27.832	2243.825	2310.286
121.293	27.674	2240.470	2304.557
122.308	27.471	2239.727	2300.934
123.322	27.677	2237.378	2300.855
124.337	27.109	2234.151	2290.068
125.352	25.720	2230.358	2268.336
126.366	25.640	2230.527	2267.220
127.381	26.793	2230.074	2281.082
128.395	27.483	2228.580	2287.989
129.410	27.682	2227.429	2289.049
130.424	27.645	2225.730	2286.559
131.439	27.656	2223.214	2283.843
132.454	27.470	2221.187	2279.148
133.468	27.630	2218.932	2278.572
134.483	27.718	2217.888	2278.327
135.497	27.469	2216.493	2273.495
136.512	27.621	2214.277	2272.862
137.527	27.867	2211.864	2273.189
138.541	27.649	2211.670	2269.994
139.556	27.528	2210.384	2266.887
140.570	27.657	2208.587	2266.378
141.585	27.676	2206.371	2264.079
142.600	27.745	2205.470	2263.742
143.614	27.678	2204.729	2261.867
144.629	27.965	2201.620	2261.980
145.643	27.645	2200.649	2256.737
146.658	27.466	2198.291	2251.825
147.673	27.486	2195.956	2249.411
148.687	27.734	2195.189	2251.427
149.702	27.583	2193.501	2247.554
150.716	27.502	2192.828	2245.590
151.731	27.814	2192.722	2249.077
152.746	28.066	2190.650	2249.810
153.760	27.205	2187.371	2235.531
154.775	25.443	2181.543	2207.571
155.789	24.645	2178.436	2194.321
156.804	25.711	2179.646	2208.433
157.819	26.993	2178.540	2222.830
158.833	27.486	2176.591	2226.634
159.848	27.850	2175.169	2229.379
160.862	28.123	2174.433	2231.715
161.877	28.123	2173.785	2230.780
162.892	28.230	2173.379	2231.412
163.906	28.324	2172.877	2231.775
164.921	28.345	2170.507	2229.325
165.935	28.364	2167.097	2225.792
166.950	28.132	2165.675	2221.236
167.964	27.740	2163.863	2214.333
168.979	27.602	2161.046	2209.503
169.994	27.825	2160.191	2211.081
171.008	27.933	2158.370	2210.259
172.023	27.730	2156.027	2205.135
173.037	27.846	2155.686	2205.923
174.052	27.811	2152.680	2202.161
175.067	27.475	2151.259	2196.373
176.081	27.426	2149.842	2194.074
177.096	27.581	2148.651	2194.473
178.110	27.412	2146.618	2190.086
179.125	27.405	2144.421	2187.497
180.140	27.574	2143.822	2188.664
181.154	27.486	2143.809	2187.325
182.169	27.380	2141.651	2183.581
183.183	26.755	2138.246	2172.323
184.198	25.339	2132.103	2148.810
185.213	24.816	2132.008	2142.156
186.227	26.744	2134.286	2167.393
187.242	27.490	2134.483	2176.300
188.256	27.456	2132.302	2173.408
189.271	27.890	2132.103	2178.139
190.286	27.996	2129.997	2177.004
191.300	27.585	2127.339	2169.115
192.315	27.497	2124.977	2165.389
193.329	27.621	2125.422	2167.071
194.344	28.044	2123.627	2170.024
195.359	28.122	2122.222	2169.255
196.373	28.320	2120.734	2169.836
197.388	28.341	2117.349	2166.366
198.402	27.985	2115.296	2159.775
199.417	27.790	2113.264	2155.124
200.432	27.932	2111.882	2155.144
201.446	27.940	2111.737	2154.837
202.461	28.027	2108.440	2152.246
203.475	27.714	2107.483	2147.305
204.490	27.757	2105.152	2145.178
205.504	27.705	2102.673	2141.783
206.519	27.470	2100.442	2136.480
207.534	27.615	2099.200	2136.673
208.548	27.673	2098.157	2136.038
209.563	27.515	2096.114	2131.844
210.577	27.369	2094.858	2128.600
211.592	27.664	2094.530	2131.474
212.607	26.844	2089.889	2116.885
213.621	24.509	2083.588	2082.896
214.636	24.622	2082.819	2083.210
215.650	26.492	2087.195	2109.272
216.665	27.368	2087.278	2119.357
217.680	27.758	2085.530	2121.890
218.694	28.047	2084.448	2123.904
219.709	27.830	2083.378	2120.030
220.723	27.915	2081.164	2118.514
221.738	28.093	2080.025	2119.174
222.753	27.782	2077.648	2112.880
223.767	27.783	2075.755	2110.715
224.782	27.592	2073.665	2106.119
225.796	27.530	2072.378	2103.837
226.811	27.745	2072.487	2106.191
227.826	27.961	2070.671	2106.599
228.840	28.080	2068.572	2105.597
229.855	27.889	2067.167	2101.697
230.869	27.888	2065.690	2099.932
231.884	27.777	2063.653	2096.329
232.899	27.649	2061.025	2091.932
233.913	27.567	2060.605	2090.315
234.928	27.787	2059.049	2091.019
235.942	27.747	2058.148	2089.397
236.957	27.691	2056.112	2086.431
237.972	27.720	2054.295	2084.669
238.986	27.759	2053.200	2083.763
240.001	27.666	2050.973	2080.181
241.015	27.402	2049.728	2075.642
242.030	27.123	2047.925	2070.375
243.045	25.956	2042.086	2050.889
244.059	25.455	2041.998	2044.831
245.074	26.945	2042.726	2062.342
246.088	27.457	2040.005	2065.189
247.103	27.449	2038.538	2063.369
248.117	27.598	2038.217	2064.489
249.132	27.812	2037.081	2065.530
250.147	27.683	2034.306	2061.003
251.161	27.312	2032.917	2055.130
252.176	27.633	2031.318	2056.915
253.190	27.488	2028.720	2052.391
254.205	26.903	2026.286	2043.072
255.220	27.027	2025.532	2043.466
256.234	27.231	2024.008	2043.992
257.249	27.170	2023.139	2042.180
258.263	27.276	2021.982	2041.956
259.278	26.959	2020.731	2036.875
260.293	26.989	2019.026	2035.250
261.307	27.404	2017.807	2038.459
262.322	27.791	2015.849	2040.587
263.336	27.416	2014.050	2034.307
264.351	27.405	2012.590	2032.459
265.366	27.598	2011.901	2033.688
266.380	27.704	2011.261	2033.985
267.395	27.348	2009.348	2027.818
268.409	27.322	2008.428	2026.355
269.424	27.922	2006.519	2030.903
270.439	27.945	2005.956	2030.338
271.453	27.430	2001.505	2019.860
272.468	25.352	1995.635	1990.565
273.482	25.013	1994.595	1985.511
274.497	26.598	1995.771	2004.096
275.512	27.558	1995.238	2013.981
276.526	27.647	1994.832	2014.324
277.541	27.544	1992.603	2010.694
278.555	27.496	1990.251	2007.547
279.570	27.294	1987.384	2002.179
280.585	27.096	1985.757	1998.109
281.599	27.500	1985.229	2001.806
282.614	27.635	1983.933	2001.746
283.628	27.255	1981.813	1995.179
284.643	27.071	1981.639	1992.732
285.657	27.172	1980.070	1992.035
286.672	27.199	1977.802	1989.810
287.687	26.871	1975.475	1983.625
288.701	26.694	1973.916	1979.878
289.716	26.648	1971.900	1977.111
290.730	26.555	1970.354	1974.312
291.745	26.717	1969.551	1975.047
292.760	26.871	1968.588	1975.522
293.774	26.857	1968.588	1975.133
294.789	27.487	1968.044	1981.243
295.803	27.568	1967.496	1981.338
296.818	27.477	1965.669	1978.268
297.833	27.726	1963.881	1978.945
298.847	27.685	1963.256	1977.640
299.862	27.652	1961.613	1975.385
300.876	27.223	1957.182	1966.023
301.891	25.647	1951.898	1943.388
302.906	25.092	1953.258	1938.472
303.920	26.865	1956.183	1960.430
304.935	27.698	1953.841	1966.876
305.949	27.672	1951.890	1964.394
306.964	27.967	1950.785	1966.239
307.979	27.899	1948.673	1963.144
308.993	27.011	1944.759	1949.385
310.008	26.592	1941.805	1941.677
311.022	26.827	1941.960	1944.137
312.037	27.051	1940.515	1944.870
313.052	26.673	1937.497	1937.544
314.066	25.972	1934.500	1926.786
315.081	25.602	1933.465	1921.556
316.095	25.589	1931.056	1918.789
317.110	25.599	1930.027	1917.644
318.125	26.103	1930.444	1923.230
319.139	26.652	1930.576	1929.010
320.154	27.236	1929.300	1933.755
321.168	27.222	1927.106	1931.165
322.183	27.471	1927.518	1934.010
323.197	27.609	1926.942	1934.677
324.212	27.524	1924.710	1931.297
325.227	27.507	1922.606	1928.776
326.241	27.761	1921.399	1930.035
327.256	27.945	1920.843	1931.193
328.270	27.652	1919.607	1926.611
329.285	27.692	1919.058	1926.259
330.300	27.218	1917.607	1919.536
331.314	25.209	1910.779	1891.209
332.329	25.005	1909.191	1887.250
333.343	26.759	1912.010	1908.396
334.358	27.849	1911.422	1919.101
335.373	28.059	1910.555	1920.219
336.387	28.142	1908.693	1918.993
337.402	28.113	1906.985	1916.739
338.416	27.956	1904.157	1912.010
339.431	27.813	1904.060	1910.186
340.446	28.192	1902.360	1912.230
341.460	27.934	1900.990	1907.914
342.475	27.820	1898.043	1903.535
343.489	27.196	1895.284	1894.015
344.504	26.855	1893.723	1888.659
345.519	26.728	1890.859	1884.251
346.533	26.445	1888.382	1878.601
347.548	26.331	1887.925	1876.734
348.562	26.623	1886.867	1878.501
349.577	26.750	1885.422	1878.161
350.592	26.675	1884.279	1876.010
351.606	26.568	1882.760	1873.166
352.621	26.536	1880.772	1870.623
353.635	26.472	1881.083	1870.044
354.650	26.863	1879.948	1872.756
355.665	27.133	1878.826	1874.211
356.679	27.334	1878.110	1875.361
357.694	27.340	1877.623	1874.706
358.708	27.598	1877.022	1876.551
359.723	27.200	1873.348	1868.543
360.738	25.382	1868.731	1844.963
361.752	25.413	1868.952	1845.277
362.767	27.106	1869.909	1863.478
363.781	27.720	1868.817	1868.485
364.796	27.807	1867.896	1868.241
365.810	27.687	1866.927	1865.811
366.825	27.629	1865.656	1863.717
367.840	27.724	1864.373	1863.190
368.854	27.592	1864.072	1861.310
369.869	27.474	1862.052	1857.862
370.883	27.378	1860.370	1854.981
371.898	26.956	1857.726	1847.809
372.913	26.764	1855.678	1843.583
373.927	26.844	1854.805	1843.311
374.942	27.045	1853.641	1843.987
375.956	27.135	1852.431	1843.486
376.971	26.963	1848.278	1837.379
377.986	26.469	1846.310	1830.184
379.000	26.479	1845.885	1829.641
380.015	27.506	1846.282	1840.253
381.029	28.022	1845.681	1844.666
382.044	28.060	1844.508	1843.655
383.059	28.213	1841.906	1842.388
384.073	27.731	1840.872	1836.258
385.088	27.330	1839.257	1830.372
386.102	27.332	1837.842	1828.761
387.117	27.295	1835.049	1825.397
388.132	27.260	1835.262	1825.038
389.146	27.021	1833.990	1821.143
390.161	25.263	1828.167	1797.459
391.175	25.059	1826.437	1793.489
392.190	26.719	1826.463	1809.981
393.205	27.294	1825.801	1814.881
394.219	27.367	1825.010	1814.611
395.234	27.425	1823.099	1813.068
396.248	27.397	1821.493	1810.973
397.263	27.406	1818.621	1807.997
398.278	27.154	1817.117	1803.770
399.292	27.114	1815.793	1801.836
400.307	27.574	1815.656	1806.071
401.321	27.658	1814.293	1805.333
402.336	26.845	1810.726	1793.490
403.350	26.082	1808.623	1783.621
404.365	26.547	1808.376	1787.776
405.380	26.659	1807.258	1787.573
406.394	26.104	1805.734	1780.345
407.409	25.924	1803.221	1775.874
408.423	25.893	1801.086	1773.254
409.438	25.995	1799.524	1772.512
410.453	25.945	1799.570	1771.851
411.467	26.667	1800.394	1779.582
412.482	27.352	1799.922	1785.661
413.496	27.480	1799.579	1786.367
414.511	27.493	1797.091	1783.806
415.526	27.303	1794.874	1779.533
416.540	27.724	1793.523	1782.112
417.555	27.563	1792.779	1779.575
418.569	27.249	1792.277	1775.785
419.584	27.399	1791.827	1776.601
420.599	27.174	1790.862	1773.219
421.613	26.981	1788.989	1769.269
422.628	27.232	1788.784	1771.313
423.642	27.733	1787.538	1774.762
424.657	27.572	1785.310	1770.768
425.672	26.930	1782.242	1761.248
426.686	27.061	1781.343	1761.429
427.701	27.111	1780.083	1760.464
428.715	26.979	1779.345	1758.229
429.730	27.417	1777.996	1760.946
430.745	27.541	1776.835	1760.794
431.759	27.306	1775.957	1757.434
432.774	26.454	1773.219	1746.250
433.788	25.210	1768.733	1729.571
434.803	24.595	1766.029	1720.768
435.818	24.500	1766.045	1719.658
436.832	24.302	1766.152	1717.646
437.847	23.352	1758.063	1700.410
438.861	13.864	1729.703	1582.296
439.876	2.767	1709.776	1458.305
440.890	0.480	1705.062	1432.311
441.905	0.311	1703.513	1429.224
442.920	0.379	1702.439	1428.798
443.934	0.248	1700.703	1425.920
444.949	0.245	1699.741	1424.914
445.963	0.201	1699.402	1424.050
446.978	0.170	1698.864	1423.134
447.993	0.223	1697.105	1421.987
449.007	0.234	1694.506	1419.749
450.022	0.262	1692.618	1418.262
451.036	0.272	1691.172	1416.973
452.051	0.845	1694.311	1424.858
453.066	9.677	1717.588	1528.741
454.080	20.989	1736.931	1654.249
455.095	24.278	1742.709	1690.961
456.109	25.578	1744.736	1705.123
457.124	25.920	1743.671	1707.134
458.139	25.569	1742.387	1702.335
459.153	25.330	1740.856	1698.365
460.168	25.384	1739.060	1696.923
461.182	25.476	1737.554	1696.124
462.197	25.515	1735.872	1694.649
463.212	25.630	1734.913	1694.596
464.226	25.749	1733.772	1694.407
465.241	25.833	1732.024	1693.289
466.255	25.759	1731.048	1691.428
467.270	25.714	1730.211	1689.985
468.285	25.820	1728.553	1689.170
469.299	26.020	1727.456	1689.773
470.314	25.928	1726.237	1687.516
471.328	25.896	1723.965	1684.791
472.343	25.959	1722.952	1684.189
473.358	25.956	1722.221	1683.248
474.372	25.804	1721.380	1680.796
475.387	26.107	1719.800	1681.895
476.401	25.838	1718.411	1677.818
477.416	25.588	1716.221	1673.139
478.430	25.668	1715.238	1672.730
479.445	25.863	1714.690	1673.816
480.460	26.127	1713.885	1675.287
481.474	26.103	1712.845	1673.847
482.489	25.904	1711.918	1670.888
483.503	25.832	1708.764	1666.943
484.518	25.731	1707.152	1664.233
485.533	25.760	1705.975	1663.156
486.547	25.724	1703.977	1660.668
487.562	25.253	1703.228	1655.378
488.576	25.441	1702.188	1655.907
489.591	25.559	1700.812	1655.464
490.606	25.769	1700.347	1656.759
491.620	25.965	1698.547	1656.616
492.635	25.816	1696.234	1652.792
493.649	25.408	1694.715	1647.354
494.664	25.577	1694.358	1648.363
495.679	25.952	1692.651	1649.955
496.693	25.842	1691.843	1647.955
497.708	25.840	1690.785	1646.708
498.722	25.776	1689.142	1644.327
499.737	25.813	1687.278	1642.654
500.752	25.846	1686.263	1641.775
501.766	25.855	1685.260	1640.679
502.781	25.851	1683.602	1638.835
503.795	25.948	1681.371	1637.353
504.810	25.816	1680.881	1635.479
505.825	25.730	1680.344	1633.969
506.839	25.776	1678.719	1632.614
507.854	25.815	1676.765	1630.878
508.868	25.673	1675.207	1627.870
509.883	25.501	1674.295	1625.230
510.898	25.217	1672.925	1621.127
511.912	25.338	1670.783	1619.954
512.927	25.429	1669.278	1619.121
513.941	25.294	1668.407	1616.866
514.956	25.718	1667.361	1619.492
515.971	25.783	1666.095	1618.656
516.985	25.540	1665.375	1615.572
518.000	25.473	1663.990	1613.429
519.014	25.370	1661.786	1610.166
520.029	25.334	1660.646	1608.550
521.043	25.146	1659.182	1605.242
522.058	25.414	1657.933	1606.248
523.073	25.274	1657.005	1603.903
524.087	25.204	1655.530	1601.655
525.102	25.222	1654.361	1600.491
526.116	25.731	1654.348	1604.849
527.131	25.932	1652.998	1605.147
528.146	25.604	1652.341	1601.387
529.160	25.612	1650.604	1599.578
530.175	25.550	1649.987	1598.238
531.189	25.572	1648.258	1596.572
532.204	25.431	1647.159	1594.051
533.219	25.459	1647.003	1593.966
534.233	25.760	1645.476	1594.979
535.248	25.627	1643.766	1591.946
536.262	25.313	1642.422	1587.661
537.277	25.361	1641.619	1587.119
538.292	25.380	1640.612	1586.130
539.306	25.448	1637.932	1583.951
540.321	25.321	1635.940	1580.710
541.335	25.250	1634.396	1578.400
542.350	25.420	1633.608	1578.952
543.365	25.559	1632.342	1578.767
544.379	25.460	1630.958	1576.362
545.394	25.363	1629.371	1573.789
546.408	25.485	1628.961	1574.275
547.423	25.688	1627.983	1574.931
548.438	25.777	1627.528	1575.085
549.452	25.636	1625.967	1572.150
550.467	25.590	1624.570	1570.203
551.481	25.543	1623.339	1568.415
552.496	25.565	1621.648	1566.789
553.511	25.312	1620.849	1563.610
554.525	25.254	1619.922	1562.021
555.540	25.233	1618.647	1560.423
556.554	25.319	1617.046	1559.443
557.569	25.230	1616.215	1557.677
558.583	25.270	1614.903	1556.576
559.598	25.363	1613.478	1555.825
560.613	25.332	1612.456	1554.382
561.627	25.137	1610.956	1551.056
562.642	25.005	1608.285	1547.153
563.656	24.648	1606.502	1542.159
564.671	24.709	1605.594	1541.632
565.686	24.683	1605.128	1540.777
566.700	24.881	1603.494	1540.731
567.715	24.848	1602.596	1539.398
568.729	24.993	1601.732	1539.644
569.744	25.346	1600.648	1541.463
570.759	25.523	1598.938	1541.155
571.773	25.255	1597.536	1537.311
572.788	25.083	1595.738	1533.918
573.802	24.950	1594.250	1531.161
574.817	24.819	1591.533	1527.244
575.832	24.643	1590.886	1524.933
576.846	24.755	1590.288	1525.139
577.861	25.146	1589.219	1527.279
578.875	25.150	1589.357	1527.258
579.890	25.111	1587.967	1525.410
580.905	24.996	1587.094	1523.403
581.919	25.122	1585.880	1523.133
582.934	24.907	1585.101	1520.366
583.948	24.960	1583.718	1519.307
584.963	24.910	1582.540	1517.568
585.978	25.020	1581.892	1517.702
586.992	25.024	1579.932	1515.678
588.007	24.707	1579.206	1512.104
589.021	24.864	1578.539	1512.620
590.036	24.618	1577.098	1508.966
591.051	24.815	1574.672	1508.136
592.065	24.805	1572.908	1506.179
593.080	24.749	1571.592	1504.264
594.094	24.890	1569.978	1503.730
595.109	25.107	1570.004	1505.409
596.123	25.452	1568.594	1506.788
597.138	25.536	1567.173	1505.953
598.153	25.088	1565.536	1500.425
599.167	25.081	1564.671	1499.360
600.182	25.121	1562.922	1497.841
601.196	25.042	1562.658	1496.743
602.211	24.951	1561.227	1494.433
603.226	24.850	1559.287	1491.554
604.240	24.786	1557.900	1489.511
605.255	24.769	1555.857	1487.233
606.269	24.698	1556.444	1487.022
607.284	24.739	1555.802	1486.575
608.299	24.832	1553.583	1485.053
609.313	24.939	1552.220	1484.466
610.328	24.846	1550.750	1482.103
611.342	24.744	1549.248	1479.643
612.357	24.781	1548.339	1478.909
613.372	24.770	1546.802	1477.169
614.386	24.627	1545.891	1474.937
615.401	24.495	1545.495	1473.291
616.415	24.445	1544.179	1471.446
617.430	24.286	1542.864	1468.700
618.445	24.223	1541.586	1466.781
619.459	24.270	1541.070	1466.504
620.474	24.371	1540.841	1466.952
621.488	24.921	1539.767	1470.289
622.503	25.315	1538.383	1472.037
623.518	24.761	1536.954	1465.933
624.532	24.310	1534.543	1459.754
625.547	24.331	1533.374	1458.638
626.561	23.844	1532.070	1453.220
627.576	23.891	1530.848	1452.269
628.591	24.330	1530.634	1455.497
629.605	24.639	1530.412	1457.644
630.620	24.791	1529.499	1457.846
631.634	25.090	1529.386	1460.017
632.649	25.066	1527.605	1457.946
633.663	24.771	1524.953	1452.827
634.678	24.230	1523.067	1446.448
635.693	23.783	1520.742	1440.422
636.707	23.925	1519.387	1440.126
637.722	23.741	1518.289	1437.411
638.736	23.858	1517.918	1437.841
639.751	24.088	1517.341	1438.990
640.766	24.296	1515.409	1438.676
641.780	24.310	1513.750	1437.042
642.795	24.374	1513.739	1437.373
643.809	24.474	1513.049	1437.361
644.824	24.521	1512.660	1437.194
645.839	24.645	1512.019	1437.421
646.853	24.413	1510.064	1433.518
647.868	24.587	1508.069	1432.852
648.882	24.541	1507.111	1431.402
649.897	24.517	1505.618	1429.619
650.912	24.531	1503.679	1427.722
651.926	24.376	1502.837	1425.507
652.941	24.362	1501.873	1424.303
653.955	24.394	1501.211	1423.768
654.970	24.367	1498.908	1421.191
655.985	24.305	1497.675	1419.362
656.999	24.162	1496.597	1417.025
658.014	24.049	1495.200	1414.625
659.028	23.956	1494.012	1412.593
660.043	24.328	1493.100	1414.530
661.058	24.395	1491.637	1413.506
662.072	24.329	1491.121	1412.318
663.087	24.413	1490.117	1411.867
664.101	24.394	1488.934	1410.428
665.116	24.454	1487.745	1409.609
666.131	24.348	1486.836	1407.741
667.145	24.389	1485.615	1406.738
668.160	24.187	1484.011	1403.458
669.174	23.957	1482.098	1399.656
670.189	24.093	1481.516	1400.016
671.204	24.171	1481.569	1400.512
672.218	24.480	1479.894	1401.206
673.233	24.220	1478.631	1397.789
674.247	24.021	1476.931	1394.446
675.262	23.852	1476.026	1392.093
676.276	23.874	1475.130	1391.256
677.291	24.058	1474.649	1392.086
678.306	24.350	1474.139	1393.728
679.320	24.334	1472.583	1391.968
680.335	24.070	1471.038	1388.267
681.349	23.879	1470.739	1386.325
682.364	23.882	1469.723	1385.227
683.379	23.820	1468.069	1383.012
684.393	23.934	1466.127	1381.909
685.408	23.734	1465.139	1379.254
686.422	23.776	1463.893	1378.238
687.437	23.596	1463.076	1375.902
688.452	23.361	1461.957	1372.862
689.466	23.432	1460.514	1371.887
690.481	23.659	1459.127	1372.192
691.495	23.747	1459.498	1373.055
692.510	24.399	1459.578	1378.029
693.525	24.834	1457.885	1379.640
694.539	24.516	1456.122	1375.346
695.554	23.672	1454.847	1367.442
696.568	23.373	1452.850	1363.094
697.583	23.272	1451.870	1361.233
698.598	23.413	1451.146	1361.475
699.612	23.419	1450.038	1360.316
700.627	23.493	1448.375	1359.168
701.641	23.795	1447.811	1360.801
702.656	23.799	1446.082	1359.044
703.671	23.690	1445.442	1357.444
704.685	23.749	1444.813	1357.139
705.700	23.767	1443.557	1355.939
706.714	23.851	1442.559	1355.481
707.729	24.016	1441.790	1355.858
708.744	23.881	1440.095	1353.075
709.758	23.958	1438.339	1351.847
710.773	23.796	1437.539	1349.697
711.787	23.876	1436.454	1349.129
712.802	23.948	1435.738	1348.839
713.816	23.728	1435.352	1346.643
714.831	23.802	1434.127	1345.897
715.846	23.701	1432.094	1343.061
716.860	23.672	1430.729	1341.397
717.875	23.679	1430.117	1340.716
718.889	23.944	1428.735	1341.267
719.904	23.687	1427.596	1338.093
720.919	23.545	1427.152	1336.439
721.933	23.472	1425.550	1334.227
722.948	23.334	1424.689	1332.220
723.962	23.392	1423.483	1331.374
724.977	23.301	1421.881	1329.024
725.992	23.475	1420.834	1329.202
727.006	23.657	1419.922	1329.556
728.021	23.568	1418.111	1327.031
729.035	23.407	1416.635	1324.282
730.050	23.461	1416.239	1324.162
731.065	23.515	1415.136	1323.379
732.079	23.294	1414.352	1320.829
733.094	23.555	1414.038	1322.335
734.108	23.731	1412.028	1321.614
735.123	23.689	1410.443	1319.652
736.138	23.560	1409.347	1317.513
737.152	23.284	1409.404	1315.345
738.167	23.269	1407.135	1312.958
739.181	23.331	1406.652	1312.810
740.196	23.205	1405.567	1310.706
741.211	23.225	1404.504	1309.704
742.225	23.311	1403.414	1309.172
743.240	23.281	1401.588	1307.089
744.254	23.171	1400.212	1304.837
745.269	23.075	1398.967	1302.805
746.284	22.984	1398.607	1301.639
747.298	23.140	1397.942	1302.021
748.313	23.372	1397.863	1303.510
749.327	23.690	1397.754	1305.600
750.342	24.191	1397.573	1308.972
751.356	24.731	1396.396	1311.699
752.371	24.311	1394.804	1306.955
753.386	23.522	1392.415	1298.756
754.400	23.287	1390.827	1295.392
755.415	23.291	1389.944	1294.445
756.429	23.229	1388.431	1292.424
757.444	23.331	1387.345	1292.001
758.459	23.207	1386.430	1290.092
759.473	23.079	1385.131	1287.789
760.488	23.065	1383.838	1286.331
761.502	23.076	1382.171	1284.704
762.517	23.223	1381.167	1284.690
763.532	23.363	1380.381	1284.827
764.546	23.398	1379.454	1284.066
765.561	23.343	1379.428	1283.490
766.575	23.639	1378.306	1284.443
767.590	23.714	1376.922	1283.547
768.605	23.931	1375.162	1283.323
769.619	23.495	1374.302	1279.206
770.634	23.356	1372.603	1276.466
771.648	23.165	1371.055	1273.491
772.663	23.123	1370.871	1272.862
773.678	23.066	1370.548	1272.005
774.692	23.097	1369.736	1271.318
775.707	23.119	1368.789	1270.450
776.721	23.080	1368.217	1269.482
777.736	23.006	1366.573	1267.272
778.751	23.033	1365.210	1266.055
779.765	23.126	1364.053	1265.498
780.780	23.018	1363.948	1264.473
781.794	23.076	1363.065	1263.916
782.809	22.910	1361.820	1261.418
783.824	22.785	1360.922	1259.538
784.838	23.068	1360.503	1261.030
785.853	23.571	1360.626	1264.597
786.867	23.552	1359.314	1263.089
787.882	23.164	1357.833	1258.790
788.897	23.072	1356.531	1256.774
789.911	22.796	1354.967	1253.204
790.926	22.786	1353.747	1251.858
791.940	22.789	1351.819	1249.943
792.955	22.759	1350.236	1248.122
793.969	22.568	1349.316	1245.760
794.984	22.656	1348.842	1245.803
795.999	22.752	1348.415	1245.935
797.013	22.921	1345.718	1244.492
798.028	22.764	1344.739	1242.331
799.042	22.738	1344.791	1242.041
800.057	22.580	1344.070	1240.111
801.072	22.699	1342.147	1239.028
802.086	22.697	1340.759	1237.586
803.101	22.715	1340.044	1236.903
804.115	22.668	1338.937	1235.400
805.130	22.775	1337.475	1234.662
806.145	22.798	1335.980	1233.290
807.159	22.770	1334.637	1231.707
808.174	22.814	1334.348	1231.606
809.188	22.963	1333.772	1231.972
810.203	22.933	1332.214	1230.173
811.218	22.955	1330.773	1228.849
812.232	23.068	1329.938	1228.719
813.247	23.239	1328.255	1228.208
814.261	23.146	1327.970	1227.150
815.276	23.071	1327.205	1225.773
816.291	22.907	1325.040	1222.486
817.305	22.718	1323.914	1219.986
818.320	22.609	1322.707	1217.976
819.334	22.687	1322.013	1217.733
820.349	22.690	1320.492	1216.207
821.364	22.580	1319.327	1214.221
822.378	22.673	1317.578	1213.111
823.393	22.650	1315.681	1211.059
824.407	22.519	1314.731	1209.139
825.422	22.649	1314.292	1209.487
826.437	22.651	1313.356	1208.492
827.451	22.611	1312.075	1206.894
828.466	23.003	1312.129	1209.500
829.480	23.456	1310.013	1210.515
830.495	23.049	1307.458	1205.216
831.509	22.691	1306.264	1201.524
832.524	22.556	1305.632	1199.873
833.539	22.569	1304.365	1198.657
834.553	22.410	1303.155	1196.313
835.568	22.374	1302.305	1195.144
836.582	22.273	1301.732	1193.785
837.597	22.637	1299.572	1194.139
838.612	22.530	1297.973	1191.800
839.626	22.689	1297.541	1192.342
840.641	22.826	1296.746	1192.399
841.655	22.937	1295.984	1192.310
842.670	23.137	1295.415	1192.996
843.685	23.364	1294.617	1193.657
844.699	22.991	1293.366	1189.839
845.714	22.797	1291.705	1186.856
846.728	22.596	1290.359	1184.120
847.743	22.498	1289.978	1182.966
848.758	22.631	1287.765	1181.695
849.772	22.563	1286.102	1179.567
850.787	22.484	1284.834	1177.730
851.801	22.379	1283.103	1175.302
852.816	22.532	1282.244	1175.402
853.831	22.551	1280.868	1174.122
854.845	22.413	1279.877	1172.153
855.860	22.356	1278.329	1170.212
856.874	22.571	1277.257	1170.528
857.889	22.746	1276.540	1170.899
858.904	23.125	1276.187	1172.957
859.918	23.512	1275.085	1174.384
860.933	23.730	1273.903	1174.602
861.947	23.288	1272.539	1170.271
862.962	22.884	1270.934	1165.970
863.977	22.722	1269.273	1163.238
864.991	22.644	1268.039	1161.450
866.006	22.538	1267.177	1159.822
867.020	22.349	1266.587	1157.890
868.035	22.526	1265.083	1157.550
869.049	22.375	1263.990	1155.411
870.064	22.433	1263.185	1154.923
871.079	22.515	1261.975	1154.218
872.093	22.517	1261.757	1153.889
873.108	22.508	1260.887	1152.899
874.122	22.793	1260.043	1153.858
875.137	22.796	1259.946	1153.654
876.152	23.140	1258.171	1154.149
877.166	22.922	1256.669	1151.204
878.181	22.604	1255.824	1148.210
879.195	22.298	1254.820	1145.154
880.210	22.486	1253.908	1145.412
881.225	22.437	1252.619	1143.776
882.239	22.618	1251.034	1143.377
883.254	22.564	1250.398	1142.306
884.268	22.525	1249.452	1141.048
885.283	22.596	1248.415	1140.425
886.298	22.505	1246.700	1138.130
887.312	22.454	1246.188	1137.196
888.327	22.400	1245.291	1135.893
889.341	22.435	1243.894	1134.712
890.356	22.435	1242.963	1133.724
891.371	22.533	1242.308	1133.624
892.385	22.299	1242.544	1132.188
893.400	22.439	1241.107	1131.650
894.414	22.736	1239.825	1132.262
895.429	22.645	1239.395	1131.149
896.444	23.455	1239.165	1136.021
897.458	24.003	1237.674	1138.045
898.473	23.598	1236.330	1134.071
899.487	22.974	1234.764	1128.493
900.502	22.852	1232.803	1125.786
901.517	22.586	1231.779	1123.012
902.531	22.531	1230.907	1121.731
903.546	22.394	1230.198	1120.072
904.560	22.552	1229.303	1120.133
905.575	22.611	1227.705	1118.921
906.589	22.618	1226.612	1117.833
907.604	22.568	1227.064	1117.794
