DTS Sentinel unit serial number:	SN409020Multiplexer serial number:	ORYXHardware model number:	OX4-SRSoftware version number:	ORYX F/W v3.00 Oryx Data Collector v3.7.2.0data status	okinstallation	HaddamTimeLapsedifferential loss correction	single-endedforward channel	channel 3reverse channel	N/Adate	2011/06/22time	02:51:17forward acquisition time	30.00reverse acquisition time	0.00gamma	498.7831k internal	0.1750k external	0.1750temperature offset calibration	1.0074default loss term (dB/km)	0.3790temperature slope calibration	1.3530multiplexer offset coefficient	1.0000multiplexer slope coefficient	1.0000fibre end	0.00T internal ref (°C)	22.31T ext. ref 1 (°C)	17.51T ext. ref 2 (°C)	0.02length (m)	temperature (°C)	Stokes	anti-Stokes-747.200	-200.000	0.010	-0.145
-746.185	-21.616	0.214	-0.173
-745.171	518.546	-0.107	-0.336
-744.156	800.000	0.100	0.452
-743.142	-7.264	-0.306	-0.275
-742.127	30.957	-0.115	0.131
-741.112	-136.868	0.180	-0.027
-740.098	771.539	-0.180	0.656
-739.083	-73.902	-0.318	-0.153
-738.069	140.270	-0.222	0.391
-737.054	800.000	0.019	-0.080
-736.039	-119.943	-0.414	0.094
-735.025	800.000	0.104	0.596
-734.010	-13.501	0.260	-0.224
-732.996	15.945	-0.119	-0.124
-731.981	-10.058	0.185	-0.163
-730.966	-114.111	0.267	-0.068
-729.952	-160.773	0.474	0.033
-728.937	113.046	-0.172	-0.277
-727.923	-200.000	-0.032	-0.412
-726.908	-8.453	0.169	-0.150
-725.894	795.045	0.081	-0.300
-724.879	-200.000	0.003	0.244
-723.864	137.977	-0.223	0.390
-722.850	604.576	0.089	0.295
-721.835	800.000	-0.064	0.327
-720.821	-131.749	0.248	-0.043
-719.806	-122.389	-0.215	0.046
-718.791	365.837	-0.286	-0.769
-717.777	-200.000	0.051	-0.328
-716.762	-179.735	0.167	-0.005
-715.748	-126.197	0.349	0.069
-714.733	-146.036	0.334	0.039
-713.718	-92.224	-0.244	0.091
-712.704	-91.857	0.180	-0.067
-711.689	722.756	-0.008	-0.030
-710.675	18.024	-0.302	-0.319
-709.660	15.903	-0.199	-0.208
-708.645	-45.279	-0.075	0.049
-707.631	800.000	-0.072	-0.270
-706.616	121.378	-0.094	-0.156
-705.602	52.100	0.089	0.112
-704.587	65.387	-0.126	-0.169
-703.572	-106.630	-0.300	0.088
-702.558	52.593	-0.133	0.168
-701.543	800.000	-0.036	0.157
-700.529	800.000	0.083	-0.310
-699.514	-172.801	0.424	0.017
-698.499	-62.672	0.483	-0.265
-697.485	71.411	0.297	0.410
-696.470	252.460	-0.094	-0.213
-695.456	384.871	-0.118	-0.323
-694.441	-200.000	0.034	0.432
-693.426	-200.000	0.019	-0.390
-692.412	-133.708	-0.657	-0.108
-691.397	34.096	0.265	0.306
-690.383	-200.000	0.031	-0.488
-689.368	-78.729	0.310	-0.140
-688.354	-79.736	0.228	0.102
-687.339	-1.653	0.257	0.240
-686.324	-200.000	0.007	0.279
-685.310	146.121	0.119	0.212
-684.295	-200.000	-0.002	0.550
-683.281	-185.972	-0.692	0.013
-682.266	-19.942	0.126	-0.103
-681.251	-92.359	0.134	-0.050
-680.237	800.000	-0.018	0.093
-679.222	800.000	-0.047	0.260
-678.208	-4.276	-0.381	-0.349
-677.193	-135.235	0.308	0.049
-676.178	-133.284	0.153	-0.025
-675.164	234.933	0.101	-0.222
-674.149	-200.000	-0.027	0.179
-673.135	-2.333	0.127	-0.118
-672.120	153.510	-0.154	0.280
-671.105	-135.730	-0.410	0.064
-670.091	3.606	-0.504	0.487
-669.076	90.075	0.194	0.288
-668.062	263.888	-0.240	0.556
-667.047	-15.698	-0.183	-0.154
-666.032	24.200	-0.329	-0.360
-665.018	-107.507	-0.506	-0.146
-664.003	50.078	-0.250	-0.313
-662.989	800.000	-0.098	0.531
-661.974	-32.531	0.313	0.231
-660.959	-43.506	-0.329	-0.220
-659.945	-142.514	-0.905	0.116
-658.930	412.750	0.138	-0.390
-657.916	-92.984	-0.231	-0.085
-656.901	-39.044	-0.469	-0.326
-655.886	-132.609	-0.386	0.065
-654.872	485.598	-0.173	0.524
-653.857	112.709	0.138	0.221
-652.843	-80.234	0.439	0.194
-651.828	-75.791	0.224	0.105
-650.814	-200.000	-0.020	0.124
-649.799	369.590	0.034	-0.091
-648.784	-104.008	0.332	-0.102
-647.770	418.098	-0.030	-0.085
-646.755	35.277	0.118	0.137
-645.741	-119.475	-0.435	0.099
-644.726	-157.234	-0.259	0.021
-643.711	-173.669	-0.498	0.019
-642.697	-2.655	-0.243	0.225
-641.682	82.608	-0.209	-0.300
-640.668	-200.000	0.030	-0.240
-639.653	-200.000	-0.013	0.093
-638.638	-200.000	-0.032	0.532
-637.624	90.027	-0.291	0.431
-636.609	-128.351	-0.246	0.046
-635.595	111.780	0.124	0.198
-634.580	-70.223	-0.311	0.156
-633.565	800.000	-0.016	-0.084
-632.551	800.000	-0.048	-0.224
-631.536	-200.000	-0.007	0.108
-630.522	-115.043	0.206	-0.051
-629.507	164.841	0.124	0.233
-628.492	-102.032	0.075	-0.024
-627.478	-200.000	0.026	-0.559
-626.463	68.891	-0.169	-0.230
-625.449	-200.000	-0.063	-0.610
-624.434	41.113	-0.246	-0.294
-623.419	79.864	0.035	-0.050
-622.405	-190.985	-0.370	-0.005
-621.390	-200.000	-0.044	0.314
-620.376	-121.339	-0.574	0.126
-619.361	10.457	-0.166	-0.167
-618.346	-42.451	0.221	-0.149
-617.332	-77.060	0.551	-0.253
-616.317	-82.505	-0.193	0.083
-615.303	2.327	0.462	-0.442
-614.288	-161.760	0.227	-0.015
-613.273	603.093	0.124	0.412
-612.259	-133.102	-0.178	0.030
-611.244	-14.791	-0.525	0.445
-610.230	100.741	-0.133	-0.204
-609.215	800.000	-0.041	-0.164
-608.201	-130.084	0.161	0.029
-607.186	-61.066	0.144	0.080
-606.171	-34.647	-0.194	-0.140
-605.157	-170.730	0.296	0.013
-604.142	-143.831	-0.232	0.029
-603.128	177.119	0.430	-0.830
-602.113	19.679	-0.568	0.604
-601.098	-79.030	0.388	0.174
-600.084	70.771	0.034	-0.046
-599.069	-170.767	-0.337	-0.015
-598.055	471.054	0.063	0.188
-597.040	-110.675	0.329	-0.089
-596.025	51.547	-0.307	0.386
-595.011	59.528	-0.358	-0.466
-593.996	39.535	0.176	-0.208
-592.982	800.000	0.049	0.236
-591.967	35.460	0.025	0.029
-590.952	-147.207	0.324	-0.036
-589.938	-157.121	-0.263	0.021
-588.923	295.963	0.094	-0.230
-587.909	-137.700	0.199	-0.029
-586.894	403.991	0.168	0.468
-585.879	-200.000	-0.011	0.075
-584.865	715.496	0.077	0.271
-583.850	-103.108	0.286	-0.089
-582.836	-83.557	0.543	-0.228
-581.821	-200.000	-0.020	-0.334
-580.806	-134.085	0.042	0.007
-579.792	-140.054	0.169	-0.023
-578.777	-62.424	-0.140	0.077
-577.763	-120.754	0.222	0.049
-576.748	-137.843	0.329	0.048
-575.733	434.169	-0.124	-0.358
-574.719	299.429	0.290	-0.709
-573.704	310.132	0.071	-0.177
-572.690	191.601	-0.119	0.238
-571.675	800.000	0.033	-0.142
-570.661	-106.525	0.026	0.007
-569.646	-66.651	0.171	0.089
-568.631	-3.264	-0.209	-0.192
-567.617	-83.963	0.054	-0.022
-566.602	-0.127	-0.285	0.267
-565.588	422.470	-0.111	0.317
-564.573	134.453	-0.121	-0.207
-563.558	57.272	-0.185	0.239
-562.544	-105.473	-0.169	0.050
-561.529	-51.978	0.317	0.194
-560.515	-78.608	0.159	0.072
-559.500	-200.000	-0.004	-0.026
-558.485	14.029	-0.252	-0.259
-557.471	-52.074	-0.116	-0.071
-556.456	-200.000	0.076	-0.662
-555.442	353.377	0.070	0.183
-554.427	-200.000	0.054	-0.362
-553.412	-3.741	0.479	0.438
-552.398	800.000	0.015	-0.063
-551.383	-200.000	0.043	-0.474
-550.369	-70.703	0.312	0.155
-549.354	-200.000	-0.050	-0.481
-548.339	-94.896	-0.366	-0.130
-547.325	510.440	-0.074	0.229
-546.310	292.821	-0.045	-0.109
-545.296	342.666	-0.202	-0.524
-544.281	-157.023	-0.418	-0.033
-543.266	24.699	-0.136	0.149
-542.252	-58.099	0.424	0.243
-541.237	66.314	-0.160	0.214
-540.223	-200.000	0.015	0.230
-539.208	-7.640	0.102	0.091
-538.193	-200.000	0.015	-0.162
-537.179	-54.173	0.170	0.102
-536.164	6.453	-0.224	-0.220
-535.150	-64.726	0.668	0.355
-534.135	228.319	0.290	0.625
-533.121	-101.147	-0.390	-0.125
-532.106	-63.741	-0.478	0.257
-531.091	434.607	0.168	0.484
-530.077	-46.338	0.163	0.105
-529.062	-23.069	0.169	-0.134
-528.048	-88.096	0.321	0.126
-527.033	186.193	-0.160	-0.315
-526.018	-2.488	0.398	-0.367
-525.004	-175.881	0.604	0.021
-523.989	331.232	0.041	0.106
-522.975	-132.091	-0.117	-0.020
-521.960	-164.493	0.219	-0.013
-520.945	259.702	0.088	0.201
-519.931	699.855	-0.040	0.140
-518.916	-200.000	0.008	-0.187
-517.902	57.336	0.106	0.137
-516.887	800.000	-0.023	-0.094
-515.872	17.259	-0.450	-0.470
-514.858	104.267	-0.250	-0.389
-513.843	-182.182	0.507	0.012
-512.829	-58.896	-0.136	-0.077
-511.814	107.004	0.295	-0.462
-510.799	-200.000	-0.007	-0.194
-509.785	-49.378	0.341	0.214
-508.770	-51.706	0.427	0.261
-507.756	-112.587	0.492	0.128
-506.741	-57.486	-0.204	0.118
-505.726	97.446	0.143	0.216
-504.712	-200.000	-0.019	0.119
-503.697	-200.000	0.001	0.012
-502.683	-181.149	0.412	-0.011
-501.668	7.973	-0.376	-0.371
-500.653	-200.000	-0.004	-0.320
-499.639	-58.337	-0.363	0.207
-498.624	77.998	0.290	0.407
-497.610	-138.887	0.676	-0.096
-496.595	103.630	0.033	-0.052
-495.581	-157.048	-0.425	-0.034
-494.566	-68.593	-0.176	0.089
-493.551	4.357	-0.211	0.203
-492.537	-51.828	-0.056	0.034
-491.522	-145.807	0.207	-0.024
-490.508	5.345	-0.227	-0.220
-489.493	-136.813	-0.276	0.041
-488.478	476.603	0.129	-0.385
-487.464	149.846	0.065	-0.116
-486.449	-62.777	0.448	-0.243
-485.435	426.710	0.106	-0.302
-484.420	31.969	0.091	-0.103
-483.405	-120.976	0.185	-0.041
-482.391	438.252	-0.143	0.414
-481.376	-19.324	0.161	-0.131
-480.362	-111.544	0.205	-0.054
-479.347	-95.545	-0.523	-0.183
-478.332	39.235	0.040	0.047
-477.318	51.159	0.149	-0.186
-476.303	-200.000	0.015	-0.383
-475.289	548.915	-0.112	-0.356
-474.274	15.635	-0.168	0.174
-473.259	800.000	0.174	0.761
-472.245	-200.000	-0.000	-0.314
-471.230	151.587	-0.144	0.259
-470.216	-168.531	-0.492	0.024
-469.201	-200.000	-0.025	-0.461
-468.186	-121.110	-0.215	0.047
-467.172	-75.110	-0.421	0.197
-466.157	-43.624	0.495	0.327
-465.143	-158.604	0.429	0.032
-464.128	306.458	-0.287	-0.704
-463.113	-16.427	-0.040	0.034
-462.099	800.000	-0.080	0.337
-461.084	106.232	-0.310	0.484
-460.070	-27.146	0.195	-0.149
-459.055	-11.900	-0.265	-0.228
-458.040	453.162	0.090	-0.262
-457.026	-158.837	-0.266	0.020
-456.011	315.206	0.204	0.509
-454.997	80.989	0.215	0.305
-453.982	-142.893	0.554	0.070
-452.968	-200.000	-0.025	0.258
-451.953	79.720	0.332	-0.469
-450.938	49.200	-0.066	-0.081
-449.924	-37.809	-0.377	0.263
-448.909	-104.862	0.342	0.102
-447.895	-26.169	0.141	0.108
-446.880	17.260	0.223	-0.232
-445.865	134.620	-0.108	-0.184
-444.851	-93.970	-0.272	-0.097
-443.836	-43.248	-0.078	-0.052
-442.822	126.317	-0.146	-0.242
-441.807	-149.789	-0.588	0.060
-440.792	87.850	-0.170	0.247
-439.778	-38.426	0.196	0.136
-438.763	32.468	-0.473	-0.536
-437.749	131.428	-0.210	-0.355
-436.734	-89.284	0.245	-0.094
-435.719	-98.141	-0.059	-0.020
-434.705	-200.000	-0.006	0.282
-433.690	152.918	0.374	-0.673
-432.676	-58.578	0.098	-0.056
-431.661	253.662	-0.178	0.401
-430.646	93.649	-0.140	0.208
-429.632	9.898	-0.381	-0.379
-428.617	-200.000	-0.006	-0.221
-427.603	78.393	0.116	-0.163
-426.588	800.000	0.151	0.683
-425.573	-124.467	-0.080	-0.016
-424.559	76.495	0.066	-0.092
-423.544	-200.000	-0.055	-0.396
-422.530	49.638	-0.092	0.114
-421.515	-60.671	0.163	-0.091
-420.500	41.850	-0.088	0.105
-419.486	-82.111	0.453	-0.193
-418.471	16.729	0.301	-0.313
-417.457	166.229	0.134	0.250
-416.442	23.488	-0.073	-0.078
-415.428	-114.327	0.434	-0.109
-414.413	70.694	-0.117	-0.159
-413.398	-200.000	0.000	0.007
-412.384	-146.123	0.205	-0.023
-411.369	82.961	-0.367	0.525
-410.355	-61.096	-0.353	-0.195
-409.340	19.030	-0.086	0.091
-408.325	86.030	0.245	-0.354
-407.311	-200.000	0.037	0.576
-406.296	58.829	0.324	0.418
-405.282	-15.583	-0.237	0.198
-404.267	-3.186	0.086	0.078
-403.252	-48.554	0.345	0.217
-402.238	-20.112	-0.112	0.090
-401.223	119.835	-0.234	0.381
-400.209	-9.784	-0.318	0.278
-399.194	155.080	-0.237	0.429
-398.179	-61.315	-0.229	0.126
-397.165	-20.756	0.101	0.081
-396.150	-157.566	0.148	-0.011
-395.136	9.441	-0.463	0.459
-394.121	139.973	-0.202	-0.350
-393.106	217.532	-0.190	0.399
-392.092	-37.946	0.343	-0.239
-391.077	-200.000	-0.052	0.309
-390.063	-7.619	0.254	0.225
-389.048	-149.951	0.355	0.036
-388.033	-112.279	-0.079	-0.021
-387.019	-124.144	-0.137	0.028
-386.004	-200.000	-0.032	0.341
-384.990	215.936	0.042	-0.087
-383.975	800.000	-0.084	-0.323
-382.960	800.000	0.039	-0.217
-381.946	-146.977	-0.196	-0.022
-380.931	-200.000	-0.002	-0.189
-379.917	-96.434	-0.537	-0.185
-378.902	-99.279	0.291	-0.096
-377.888	53.332	-0.108	-0.135
-376.873	-147.343	-0.267	-0.029
-375.858	96.754	0.047	-0.070
-374.844	125.290	0.136	0.225
-373.829	-129.770	0.434	0.077
-372.815	-140.454	-0.860	-0.116
-371.800	1.875	0.211	-0.199
-370.785	-109.872	0.265	-0.072
-369.771	-128.323	-0.534	0.099
-368.756	176.641	-0.116	-0.222
-367.742	-123.790	-0.118	0.024
-366.727	-92.680	0.434	-0.158
-365.712	534.221	0.077	-0.241
-364.698	267.872	0.113	-0.261
-363.683	-200.000	0.030	0.269
-362.669	-200.000	0.008	-0.153
-361.654	-91.352	-0.306	-0.114
-360.639	-200.000	-0.005	0.435
-359.625	75.560	0.142	-0.196
-358.610	-200.000	-0.002	-0.115
-357.596	157.605	0.116	0.211
-356.581	64.732	-0.127	-0.168
-355.566	-200.000	0.016	0.254
-354.552	92.885	-0.320	0.473
-353.537	144.319	-0.090	-0.157
-352.523	-159.578	-0.220	0.016
-351.508	-23.062	0.275	-0.216
-350.493	-28.434	0.279	0.210
-349.479	-137.951	0.358	0.052
-348.464	-48.286	0.210	0.132
-347.450	-168.408	0.355	-0.018
-346.435	441.680	-0.088	0.253
-345.420	-200.000	0.001	-0.275
-344.406	1.171	0.265	0.249
-343.391	384.206	0.066	0.178
-342.377	-119.477	-0.332	-0.075
-341.362	-131.657	-0.380	-0.065
-340.348	-120.913	-0.325	-0.071
-339.333	-200.000	0.036	-0.374
-338.318	469.317	0.140	-0.413
-337.304	-15.334	-0.302	0.252
-336.289	-200.000	-0.022	-0.467
-335.275	-175.661	-0.349	-0.012
-334.260	18.831	0.137	0.143
-333.245	-10.328	-0.417	0.361
-332.231	391.450	0.107	-0.293
-331.216	-7.346	0.195	0.172
-330.202	800.000	0.041	-0.204
-329.187	-159.284	-0.181	-0.013
-328.172	-194.110	0.319	-0.003
-327.158	607.770	-0.060	0.196
-326.143	-15.293	-0.231	0.193
-325.129	800.000	0.137	0.607
-324.114	233.091	-0.115	0.247
-323.099	-136.218	-0.300	0.045
-322.085	265.480	0.110	-0.253
-321.070	62.306	-0.199	-0.260
-320.056	-174.051	-0.841	-0.032
-319.041	324.849	-0.153	-0.383
-318.026	-107.642	-0.171	-0.048
-317.012	61.531	0.129	-0.168
-315.997	800.000	-0.092	-0.349
-314.983	-57.213	-0.376	0.216
-313.968	87.424	0.197	0.286
-312.953	-114.293	0.566	0.141
-311.939	36.676	-0.318	0.367
-310.924	83.671	-0.165	0.235
-309.910	-200.000	-0.059	0.343
-308.895	588.954	-0.077	0.250
-307.880	800.000	0.055	0.213
-306.866	-3.107	0.309	-0.282
-305.851	-63.152	0.103	-0.055
-304.837	-138.779	-0.242	-0.034
-303.822	299.306	0.052	-0.126
-302.807	-54.580	0.202	-0.119
-301.793	-19.643	0.527	-0.425
-300.778	-70.213	0.407	-0.201
-299.764	-141.839	0.426	0.055
-298.749	144.286	-0.214	-0.373
-297.735	101.059	-0.210	0.320
-296.720	-99.350	0.371	-0.121
-295.705	-9.276	0.453	-0.395
-294.691	-37.337	-0.168	0.117
-293.676	-200.000	-0.005	-0.355
-292.662	-200.000	-0.037	-0.243
-291.647	403.715	-0.181	-0.501
-290.632	-90.656	0.157	-0.059
-289.618	-154.233	0.444	0.039
-288.603	-200.000	0.059	-0.371
-287.589	-65.494	-0.227	0.119
-286.574	279.185	0.102	-0.239
-285.559	58.016	-0.085	-0.108
-284.545	-23.361	0.207	0.162
-283.530	159.196	-0.258	0.469
-282.516	-17.459	0.326	-0.267
-281.501	-200.000	0.038	0.341
-280.486	800.000	0.064	0.281
-279.472	800.000	-0.124	0.500
-278.457	115.407	-0.247	-0.395
-277.443	-87.264	-0.551	0.217
-276.428	-63.007	0.207	0.111
-275.413	-142.863	0.436	0.055
-274.399	532.946	-0.063	0.196
-273.384	61.712	-0.201	-0.262
-272.370	-36.183	0.053	-0.037
-271.355	-173.507	0.378	0.015
-270.340	-53.813	-0.164	0.098
-269.326	-19.056	0.364	0.295
-268.311	-156.891	-0.276	0.022
-267.297	800.000	0.049	-0.261
-266.282	-170.271	0.176	0.008
-265.267	-200.000	-0.021	0.281
-264.253	-24.207	-0.085	-0.066
-263.238	342.742	-0.174	0.445
-262.224	-93.599	0.515	-0.184
-261.209	-117.608	0.346	0.081
-260.195	-142.466	0.379	-0.048
-259.180	68.958	-0.082	-0.111
-258.165	-137.183	0.137	-0.020
-257.151	176.401	0.072	-0.136
-256.136	-59.946	0.136	0.076
-255.122	-0.091	-0.382	-0.354
-254.107	-16.016	-0.276	0.229
-253.092	-200.000	0.018	0.198
-252.078	179.951	-0.096	0.184
-251.063	-90.131	0.070	-0.027
-250.049	800.000	-0.091	0.437
-249.034	-122.153	0.200	0.042
-248.019	2.576	0.237	-0.223
-247.005	-141.810	-0.387	0.050
-245.990	800.000	0.054	0.288
-244.976	-53.136	0.304	0.182
-243.961	-55.016	-0.237	-0.139
-242.946	549.128	0.160	-0.502
-241.932	-200.000	0.008	-0.186
-240.917	-3.976	0.269	0.243
-239.903	-57.631	-0.234	-0.133
-238.888	-200.000	-0.009	-0.441
-237.873	-119.747	-0.494	-0.110
-236.859	800.000	0.100	0.519
-235.844	506.262	-0.108	-0.327
-234.830	648.899	0.131	-0.438
-233.815	-148.604	-0.569	-0.060
-232.800	29.054	0.375	0.414
-231.786	-26.783	0.054	0.041
-230.771	-200.000	0.019	-0.140
-229.757	-111.889	0.188	-0.049
-228.742	265.193	0.131	0.298
-227.727	-130.121	0.246	-0.043
-226.713	800.000	0.099	-0.432
-225.698	15.470	0.089	0.091
-224.684	-107.367	-0.081	-0.023
-223.669	-73.606	0.461	-0.218
-222.655	164.872	-0.219	-0.404
-221.640	-159.286	-0.253	-0.018
-220.625	-95.734	-0.063	-0.022
-219.611	-200.000	-0.029	-0.265
-218.596	-11.106	-0.257	-0.221
-217.582	250.130	0.102	0.227
-216.567	-66.647	-0.195	-0.100
-215.552	-130.400	-0.190	0.033
-214.538	-151.197	0.384	0.037
-213.523	2.665	0.439	0.414
-212.509	-119.989	-0.463	-0.103
-211.494	-87.921	-0.367	0.143
-210.479	-139.081	-0.068	0.009
-209.465	-72.819	-0.719	0.343
-208.450	26.156	-0.129	-0.140
-207.436	-74.044	-0.080	-0.038
-206.421	29.498	0.216	-0.239
-205.406	0.696	0.052	0.048
-204.392	-7.757	-0.254	-0.223
-203.377	110.005	-0.167	0.262
-202.363	-175.511	0.367	-0.013
-201.348	-91.247	-0.445	0.165
-200.333	-54.604	-0.207	-0.121
-199.319	110.230	-0.261	0.408
-198.304	-200.000	0.091	0.559
-197.290	800.000	-0.064	-0.247
-196.275	-36.755	-0.047	-0.033
-195.260	800.000	-0.024	0.128
-194.246	4.882	0.366	0.350
-193.231	-200.000	-0.058	0.344
-192.217	126.800	-0.179	-0.295
-191.202	-200.000	-0.044	0.376
-190.187	-32.681	0.034	-0.024
-189.173	43.901	0.218	0.260
-188.158	72.088	0.101	0.136
-187.144	-98.733	-0.538	0.177
-186.129	-30.067	0.220	-0.162
-185.114	-42.035	0.314	0.209
-184.100	12.710	0.218	-0.219
-183.085	-160.655	0.187	0.013
-182.071	147.643	0.281	-0.494
-181.056	81.657	-0.110	0.155
-180.042	800.000	0.046	-0.235
-179.027	-200.000	0.032	-0.336
-178.012	-113.203	-0.311	-0.079
-176.998	-41.896	0.602	0.400
-175.983	-167.839	0.380	-0.019
-174.969	125.290	0.057	0.093
-173.954	170.170	-0.244	0.455
-172.939	4.620	0.227	0.216
-171.925	-82.870	0.150	-0.062
-170.910	-137.134	-0.360	0.053
-169.896	7.712	-0.079	-0.077
-168.881	30.301	-0.060	0.066
-167.866	800.000	0.090	0.426
-166.852	-189.454	0.262	-0.004
-165.837	-127.539	-0.074	-0.014
-164.823	332.323	-0.178	0.448
-163.808	-200.000	0.048	0.313
-162.793	2.030	0.322	-0.302
-161.779	-146.476	-0.193	-0.022
-160.764	-139.397	-0.408	0.056
-159.750	-108.419	-0.072	0.020
-158.735	61.305	0.333	-0.430
-157.720	1.178	-0.331	0.308
-156.706	800.000	0.077	0.439
-155.691	-78.886	-0.330	-0.145
-154.677	800.000	-0.051	0.223
-153.662	-200.000	-0.030	-0.346
-152.647	-50.406	-0.311	-0.190
-151.633	77.508	-0.045	-0.063
-150.618	-64.605	0.187	-0.098
-149.604	-35.073	-0.343	-0.242
-148.589	28.082	-0.179	-0.196
-147.574	227.429	0.167	-0.355
-146.560	-63.016	0.250	0.133
-145.545	19.837	0.176	-0.185
-144.531	-111.603	0.470	-0.123
-143.516	-24.632	0.212	0.163
-142.502	-200.000	-0.001	-0.066
-141.487	-159.132	-0.220	0.016
-140.472	373.232	-0.200	0.531
-139.458	-83.147	-0.459	0.191
-138.443	-126.026	-0.231	-0.045
-137.429	-94.343	-0.325	-0.115
-136.414	-10.316	0.266	0.228
-135.399	800.000	-0.108	0.393
-134.385	-166.400	-0.391	0.021
-133.370	-14.271	0.135	-0.113
-132.356	100.278	0.039	-0.059
-131.341	-89.179	-0.524	-0.200
-130.326	204.842	-0.102	0.206
-129.312	354.225	0.097	0.251
-128.297	-184.456	0.091	0.002
-127.283	-174.391	0.190	-0.007
-126.268	-47.890	0.326	0.204
-125.253	-92.021	-0.365	0.133
-124.239	-165.864	-0.113	-0.006
-123.224	164.535	-0.046	0.085
-122.210	-138.678	0.556	0.078
-121.195	-101.982	0.272	0.085
-120.180	-165.078	0.274	-0.016
-119.166	110.348	-0.401	0.625
-118.151	-200.000	-0.003	-0.117
-117.137	-27.263	-0.254	0.191
-116.122	800.000	-0.011	0.043
-115.107	-200.000	-0.038	-0.361
-114.093	293.538	-0.134	0.317
-113.078	-66.532	0.453	-0.232
-112.064	800.000	-0.074	-0.354
-111.049	-44.161	0.197	-0.128
-110.034	-131.557	-0.409	0.069
-109.020	634.361	-0.131	0.433
-108.005	-11.070	-0.463	-0.396
-106.991	236.635	0.060	-0.128
-105.976	-103.187	-0.414	0.126
-104.962	-38.505	0.219	0.150
-103.947	208.657	0.170	0.347
-102.932	127.083	-0.179	0.295
-101.918	-47.481	-0.337	0.212
-100.903	-10.179	-0.517	0.444
-99.889	-67.595	-0.265	0.134
-98.874	27.094	0.260	0.283
-97.859	-55.538	0.325	-0.188
-96.845	-138.366	-0.089	0.013
-95.830	-114.890	-0.089	0.022
-94.816	-175.364	0.158	-0.005
-93.801	100.685	-0.157	-0.237
-92.786	180.835	-0.082	-0.157
-91.772	66.282	0.347	-0.457
-90.757	303.176	0.103	0.248
-89.743	178.381	0.379	0.720
-88.728	-200.000	-0.019	0.404
-87.713	237.199	-0.116	0.249
-86.699	-33.346	-0.142	0.102
-85.684	133.675	0.094	-0.158
-84.670	-72.571	0.275	-0.131
-83.655	-14.938	-0.495	-0.411
-82.640	-144.032	0.308	0.037
-81.626	800.000	0.090	-0.505
-80.611	54.551	-0.114	0.143
-79.597	-200.000	0.031	0.394
-78.582	95.792	0.271	-0.402
-77.567	-137.831	-0.315	-0.045
-76.553	-200.000	-0.005	-0.212
-75.538	-2.062	-0.211	-0.192
-74.524	-130.375	-0.764	-0.133
-73.509	21.155	-0.172	-0.181
-72.494	124.503	-0.122	-0.199
-71.480	-92.902	-0.469	0.169
-70.465	-119.287	0.227	0.051
-69.451	156.496	0.310	-0.556
-68.436	-24.347	0.093	-0.071
-67.422	-200.000	-0.010	0.120
-66.407	-200.000	0.037	-0.358
-65.392	-87.631	-0.257	-0.100
-64.378	800.000	-0.080	0.338
-63.363	-142.137	0.557	0.071
-62.349	-7.667	-0.412	0.360
-61.334	18.363	-2.552	-2.637
-60.319	-10.436	1.474	1.263
-59.305	201.906	-3.715	-7.435
-58.290	56.377	4.163	5.239
-57.276	457.181	3.459	9.990
-56.261	-200.000	24.607	323.207
-55.246	349.675	1311.586	3366.716
-54.232	52.349	2850.388	3520.464
-53.217	50.971	2660.687	3264.696
-52.203	31.161	2390.073	2652.988
-51.188	27.519	2057.041	2238.348
-50.173	24.186	1944.138	2076.435
-49.159	23.079	1932.398	2050.915
-48.144	22.554	1927.757	2039.807
-47.130	22.518	1925.444	2036.863
-46.115	22.496	1923.593	2034.562
-45.100	22.536	1922.049	2033.320
-44.086	22.515	1921.029	2031.916
-43.071	22.461	1918.947	2029.004
-42.057	22.445	1916.821	2026.492
-41.042	22.479	1916.353	2026.314
-40.027	22.664	1914.143	2026.028
-39.013	22.550	1912.608	2023.008
-37.998	22.432	1912.540	2021.497
-36.984	22.505	1911.209	2020.847
-35.969	22.580	1909.114	2019.421
-34.954	22.517	1907.574	2016.979
-33.940	22.554	1906.543	2016.236
-32.925	22.322	1906.244	2013.169
-31.911	22.381	1904.120	2011.532
-30.896	22.262	1902.871	2008.761
-29.881	22.392	1900.749	2007.934
-28.867	22.457	1899.809	2007.604
-27.852	22.409	1898.312	2005.389
-26.838	22.273	1897.268	2002.652
-25.823	22.229	1896.868	2001.648
-24.809	22.288	1894.576	1999.824
-23.794	22.297	1893.336	1998.540
-22.779	22.326	1892.105	1997.496
-21.765	22.383	1889.976	1995.821
-20.750	22.254	1889.912	1994.204
-19.736	22.254	1888.860	1993.008
-18.721	22.338	1887.196	1992.132
-17.706	22.298	1886.124	1990.467
-16.692	22.149	1885.272	1987.795
-15.677	22.250	1884.026	1987.547
-14.663	22.242	1882.609	1985.881
-13.648	22.238	1881.405	1984.493
-12.633	22.245	1880.736	1983.783
-11.619	22.326	1878.663	1982.441
-10.604	22.159	1878.436	1980.231
-9.590	22.217	1876.756	1979.039
-8.575	22.185	1875.217	1976.974
-7.560	22.145	1874.674	1975.874
-6.546	22.150	1873.675	1974.794
-5.531	22.217	1872.464	1974.195
-4.517	22.320	1870.348	1973.048
-3.502	22.304	1869.443	1971.834
-2.487	22.269	1867.811	1969.644
-1.473	22.348	1864.509	1966.963
-0.458	22.142	1846.584	1945.682
0.556	18.524	1994.410	2045.849
1.571	17.121	2197.636	2235.486
2.586	17.907	2236.304	2285.130
3.600	18.036	2238.130	2288.452
4.615	17.944	2237.599	2286.402
5.629	17.972	2235.882	2284.747
6.644	17.928	2233.028	2280.972
7.659	18.015	2231.131	2279.931
8.673	18.016	2229.910	2278.413
9.688	17.687	2238.704	2282.706
10.702	16.824	2319.239	2352.494
11.717	15.129	2382.828	2392.396
12.731	7.059	2364.204	2258.041
13.746	0.986	2347.071	2154.741
14.761	0.183	2344.521	2140.663
15.775	0.106	2342.339	2137.324
16.790	0.079	2341.072	2135.523
17.804	-0.100	2340.023	2131.756
18.819	0.011	2338.109	2131.347
19.834	0.050	2336.362	2130.056
20.848	0.013	2336.080	2129.016
21.863	-0.009	2333.609	2126.197
22.877	-0.026	2331.974	2124.199
23.892	-0.145	2330.281	2120.716
24.907	-0.063	2327.973	2119.526
25.921	-0.101	2326.616	2117.503
26.936	-0.093	2324.080	2115.054
27.950	0.022	2320.810	2113.454
28.965	-0.063	2319.403	2110.710
29.980	-0.034	2317.819	2109.430
30.994	0.058	2315.086	2107.989
32.009	3.776	2325.153	2169.420
33.023	12.541	2351.634	2318.519
34.038	16.431	2356.482	2378.146
35.053	16.407	2354.283	2375.303
36.067	16.319	2351.178	2370.647
37.082	16.202	2349.635	2367.145
38.096	16.434	2348.004	2368.498
39.111	16.559	2345.112	2367.055
40.126	16.605	2343.450	2365.734
41.140	16.770	2342.322	2366.633
42.155	16.684	2340.580	2363.383
43.169	16.669	2338.623	2360.914
44.184	16.565	2335.189	2355.704
45.199	16.508	2333.676	2353.102
46.213	16.588	2332.235	2352.479
47.228	16.706	2331.183	2352.791
48.242	16.669	2330.157	2350.954
49.257	16.766	2327.896	2349.748
50.271	16.758	2325.552	2346.993
51.286	16.678	2323.053	2343.069
52.301	16.530	2320.676	2338.334
53.315	17.205	2324.283	2351.085
54.330	19.707	2330.179	2391.608
55.344	21.166	2331.458	2412.924
56.359	21.362	2327.462	2411.212
57.374	21.510	2326.962	2412.464
58.388	21.685	2324.122	2411.644
59.403	21.503	2320.402	2404.980
60.417	21.306	2316.985	2398.437
61.432	21.284	2316.225	2397.059
62.447	21.583	2315.383	2400.030
63.461	21.773	2313.239	2400.129
64.476	21.893	2310.535	2398.689
65.490	21.584	2309.205	2392.771
66.505	20.720	2306.209	2377.522
67.520	18.808	2298.651	2343.257
68.534	17.070	2291.425	2311.841
69.549	16.601	2287.116	2300.805
70.563	16.506	2284.390	2296.485
71.578	16.649	2281.327	2295.083
72.593	16.740	2279.969	2294.680
73.607	16.775	2278.911	2293.822
74.622	16.576	2278.014	2289.930
75.636	16.578	2273.350	2285.005
76.651	16.469	2272.238	2282.129
77.666	16.537	2270.525	2281.062
78.680	16.527	2267.786	2277.898
79.695	16.454	2265.087	2273.933
80.709	16.372	2264.222	2271.672
81.724	16.346	2262.222	2269.046
82.739	16.352	2259.774	2266.399
83.753	16.426	2257.232	2264.574
84.768	16.277	2255.811	2260.881
85.782	16.301	2255.036	2260.157
86.797	16.351	2252.444	2257.952
87.812	16.362	2250.939	2256.326
88.826	16.465	2249.981	2256.471
89.841	16.383	2246.437	2251.550
90.855	16.416	2244.356	2249.640
91.870	16.553	2243.223	2250.073
92.884	16.484	2241.143	2246.791
93.899	16.519	2239.924	2245.760
94.914	17.032	2242.975	2255.405
95.928	19.330	2247.890	2290.810
96.943	19.999	2246.918	2298.473
97.957	17.840	2236.887	2259.234
98.972	16.579	2232.200	2237.477
99.987	16.601	2227.741	2233.036
101.001	16.557	2226.090	2230.523
102.016	16.536	2223.760	2227.652
103.030	16.388	2222.127	2223.786
104.045	16.419	2219.623	2221.423
105.060	16.393	2217.626	2218.820
106.074	16.383	2216.726	2217.526
107.089	16.360	2214.556	2214.786
108.103	16.387	2213.475	2213.787
109.118	16.512	2211.069	2212.767
110.133	16.485	2210.847	2211.921
111.147	16.506	2207.755	2208.844
112.162	16.513	2206.380	2207.289
113.176	16.543	2204.438	2205.483
114.191	16.667	2202.030	2204.432
115.206	16.635	2200.854	2202.567
116.220	16.516	2199.348	2199.236
117.235	16.533	2196.618	2196.475
118.249	16.683	2194.790	2196.335
119.264	16.575	2194.109	2193.981
120.279	16.519	2192.047	2190.933
121.293	16.557	2190.151	2189.267
122.308	16.417	2189.529	2186.567
123.322	16.460	2187.934	2185.272
124.337	16.960	2189.340	2192.910
125.352	19.370	2196.309	2231.007
126.366	19.917	2193.139	2234.621
127.381	17.507	2183.080	2192.942
128.395	16.485	2178.833	2175.192
129.410	16.525	2176.362	2172.983
130.424	16.370	2175.942	2170.305
131.439	16.400	2173.955	2168.449
132.454	16.390	2173.095	2167.210
133.468	16.617	2169.222	2166.006
134.483	16.807	2167.607	2166.577
135.497	16.688	2166.993	2164.166
136.512	16.576	2165.743	2161.220
137.527	16.554	2163.393	2158.339
138.541	16.443	2161.498	2154.767
139.556	16.438	2160.311	2153.270
140.570	16.440	2158.455	2151.177
141.585	16.340	2156.198	2147.402
142.600	16.367	2155.864	2147.151
143.614	16.299	2154.277	2144.449
144.629	16.279	2152.074	2141.744
145.643	16.312	2149.595	2139.443
146.658	16.351	2148.131	2138.216
147.673	16.318	2146.517	2135.944
148.687	16.362	2145.327	2135.054
149.702	16.445	2144.206	2134.745
150.716	16.482	2143.629	2134.383
151.731	16.450	2141.743	2131.837
152.746	16.463	2140.150	2130.161
153.760	17.138	2143.462	2141.767
154.775	19.576	2149.011	2178.002
155.789	20.116	2147.743	2183.297
156.804	17.928	2137.857	2145.378
157.819	16.581	2132.022	2122.295
158.833	16.438	2128.550	2116.787
159.848	16.519	2125.909	2114.927
160.862	16.550	2124.999	2114.156
161.877	16.614	2123.430	2113.138
162.892	16.584	2123.670	2112.747
163.906	16.554	2121.634	2110.091
164.921	16.587	2119.969	2108.606
165.935	16.607	2117.948	2106.587
166.950	16.641	2116.518	2105.346
167.964	16.581	2113.601	2101.439
168.979	16.472	2112.446	2098.677
169.994	16.446	2111.003	2096.662
171.008	16.345	2109.434	2093.605
172.023	16.409	2107.860	2092.584
173.037	16.428	2106.826	2091.538
174.052	16.537	2105.066	2090.905
175.067	16.482	2102.861	2087.777
176.081	16.415	2101.745	2085.585
177.096	16.435	2100.972	2084.825
178.110	16.452	2098.998	2082.821
179.125	16.557	2097.763	2082.652
180.140	16.488	2096.795	2080.578
181.154	16.491	2096.107	2079.688
182.169	16.682	2093.582	2079.293
183.183	17.286	2096.513	2089.419
184.198	19.818	2103.068	2127.040
185.213	20.340	2099.851	2129.975
186.227	17.712	2090.890	2088.307
187.242	16.654	2086.675	2070.847
188.256	16.494	2085.516	2067.481
189.271	16.380	2084.002	2064.335
190.286	16.431	2082.053	2062.785
191.300	16.466	2079.068	2060.008
192.315	16.512	2078.524	2059.779
193.329	16.536	2076.631	2057.955
194.344	16.726	2076.372	2059.772
195.359	16.755	2074.779	2058.307
196.373	16.664	2071.792	2053.979
197.388	16.603	2069.038	2050.264
198.402	16.475	2067.541	2046.975
199.417	16.435	2064.976	2043.705
200.432	16.572	2063.334	2043.502
201.446	16.491	2063.142	2042.086
202.461	16.517	2060.045	2039.082
203.475	16.439	2059.175	2037.037
204.490	16.463	2057.697	2035.626
205.504	16.466	2055.080	2032.825
206.519	16.493	2053.444	2031.297
207.534	16.399	2052.275	2028.752
208.548	16.366	2051.128	2026.980
209.563	16.447	2050.084	2026.682
210.577	16.625	2048.267	2026.784
211.592	16.541	2047.919	2025.188
212.607	17.711	2052.215	2043.300
213.621	20.627	2058.788	2084.777
214.636	20.075	2052.147	2071.177
215.650	17.345	2043.780	2029.773
216.665	16.761	2040.661	2019.443
217.680	16.686	2038.809	2016.466
218.694	16.422	2037.134	2011.409
219.709	16.499	2035.222	2010.208
220.723	16.514	2034.613	2009.542
221.738	16.582	2032.733	2008.250
222.753	16.714	2029.868	2006.754
223.767	16.605	2029.342	2004.697
224.782	16.567	2026.800	2001.495
225.796	16.592	2025.457	2000.223
226.811	16.532	2024.169	1998.005
227.826	16.644	2022.607	1997.545
228.840	16.497	2021.922	1994.889
229.855	16.302	2021.112	1991.539
230.869	16.447	2019.087	1991.027
231.884	16.465	2016.554	1988.502
232.899	16.420	2014.986	1986.190
233.913	16.453	2014.160	1985.526
234.928	16.377	2013.086	1983.330
235.942	16.424	2010.980	1981.568
236.957	16.351	2010.011	1979.522
237.972	16.372	2008.703	1978.247
238.986	16.304	2008.280	1976.792
240.001	16.432	2005.448	1975.264
241.015	16.513	2004.337	1974.887
242.030	17.204	2006.313	1984.720
243.045	19.482	2011.177	2016.070
244.059	19.719	2008.284	2015.704
245.074	17.387	2000.324	1980.226
246.088	16.678	1995.781	1967.213
247.103	16.685	1994.769	1966.060
248.117	16.667	1993.238	1964.101
249.132	16.657	1990.887	1961.434
250.147	16.631	1989.007	1959.046
251.161	16.602	1987.935	1957.418
252.176	16.661	1987.243	1957.184
253.190	16.994	1984.441	1958.055
254.205	17.004	1982.335	1955.859
255.220	16.773	1982.216	1952.830
256.234	16.834	1981.373	1952.473
257.249	16.631	1979.426	1947.973
258.263	16.552	1978.733	1946.141
259.278	16.630	1977.770	1945.868
260.293	16.558	1975.463	1942.528
261.307	16.416	1973.507	1938.739
262.322	16.482	1971.207	1937.006
263.336	16.571	1968.776	1935.412
264.351	16.354	1968.060	1931.983
265.366	16.353	1967.433	1931.124
266.380	16.418	1966.599	1930.817
267.395	16.423	1964.724	1928.809
268.409	16.369	1963.074	1926.331
269.424	16.303	1961.697	1923.995
270.439	16.483	1960.836	1924.978
271.453	17.333	1962.496	1936.112
272.468	19.779	1968.230	1969.575
273.482	19.935	1963.669	1966.558
274.497	17.458	1955.017	1929.468
275.512	16.497	1951.263	1914.599
276.526	16.441	1949.058	1911.573
277.541	16.344	1947.705	1908.912
278.555	16.295	1946.539	1906.980
279.570	16.290	1943.846	1904.056
280.585	16.290	1942.296	1902.313
281.599	16.503	1941.562	1903.780
282.614	16.573	1940.777	1903.576
283.628	16.694	1940.060	1904.012
284.643	16.861	1938.207	1903.844
285.657	16.779	1937.678	1902.175
286.672	16.922	1935.585	1901.500
287.687	16.821	1934.475	1899.047
288.701	16.811	1933.460	1897.716
289.716	16.798	1931.958	1895.867
290.730	16.683	1931.017	1893.427
291.745	16.821	1928.953	1892.723
292.760	16.835	1927.741	1891.459
293.774	16.678	1926.989	1888.735
294.789	16.753	1925.478	1887.875
295.803	16.568	1923.447	1883.584
296.818	16.552	1921.697	1881.468
297.833	16.682	1920.284	1881.313
298.847	16.590	1919.227	1879.023
299.862	16.721	1917.088	1878.159
300.876	17.286	1918.776	1885.893
301.891	19.862	1924.080	1919.644
302.906	20.264	1922.334	1922.148
303.920	17.658	1913.922	1884.579
304.935	16.720	1910.884	1870.950
305.949	16.602	1908.868	1867.445
306.964	16.570	1906.128	1864.184
307.979	16.625	1905.904	1864.351
308.993	16.815	1904.582	1864.935
310.008	17.077	1902.227	1865.301
311.022	17.054	1900.715	1863.348
312.037	16.835	1899.896	1859.905
313.052	16.773	1898.764	1857.891
314.066	16.815	1896.898	1856.306
315.081	16.933	1895.300	1855.812
316.095	16.871	1894.243	1853.883
317.110	16.568	1892.896	1849.006
318.125	16.614	1891.366	1847.797
319.139	16.688	1890.094	1847.148
320.154	16.684	1888.730	1845.542
321.168	16.767	1886.090	1843.651
322.183	16.703	1884.458	1841.144
323.197	16.540	1883.225	1837.933
324.212	16.338	1881.657	1833.979
325.227	16.253	1880.416	1831.626
326.241	16.451	1877.786	1830.999
327.256	16.487	1877.064	1830.472
328.270	16.444	1876.256	1828.995
329.285	16.386	1875.945	1827.840
330.300	17.370	1879.786	1842.075
331.314	20.294	1884.507	1878.342
332.329	19.963	1880.457	1870.491
333.343	17.384	1871.830	1833.778
334.358	16.486	1868.253	1820.334
335.373	16.467	1866.550	1818.251
336.387	16.384	1864.355	1815.002
337.402	16.354	1863.288	1813.426
338.416	16.346	1862.190	1812.051
339.431	16.340	1860.654	1810.270
340.446	16.470	1858.932	1809.785
341.460	16.613	1857.782	1809.986
342.475	16.780	1856.178	1809.998
343.489	16.762	1855.567	1808.993
344.504	16.665	1854.853	1807.043
345.519	16.839	1852.534	1806.427
346.533	16.978	1850.653	1805.860
347.548	16.995	1850.581	1805.754
348.562	16.874	1849.158	1802.861
349.577	16.903	1848.210	1802.027
350.592	17.063	1846.533	1801.887
351.606	17.094	1845.912	1801.391
352.621	17.006	1843.323	1797.714
353.635	16.734	1842.191	1793.502
354.650	16.759	1840.367	1791.778
355.665	16.706	1838.144	1788.840
356.679	16.508	1837.111	1785.517
357.694	16.532	1836.551	1785.012
358.708	16.476	1835.173	1782.860
359.723	17.701	1838.610	1798.993
360.738	20.223	1842.835	1829.691
361.752	19.553	1837.252	1816.844
362.767	17.102	1830.865	1784.441
363.781	16.405	1828.148	1774.227
364.796	16.425	1826.046	1772.188
365.810	16.408	1825.317	1771.092
366.825	16.401	1824.593	1770.095
367.840	16.655	1823.863	1771.855
368.854	16.712	1822.346	1770.769
369.869	16.505	1820.628	1766.706
370.883	16.465	1818.087	1763.610
371.898	16.390	1816.758	1761.332
372.913	16.359	1816.291	1760.344
373.927	16.596	1814.957	1761.314
374.942	16.639	1814.124	1760.743
375.956	16.679	1813.168	1760.027
376.971	16.634	1810.614	1756.869
377.986	16.558	1808.989	1754.284
379.000	16.375	1807.933	1751.146
380.015	16.458	1806.376	1750.293
381.029	16.475	1804.610	1748.552
382.044	16.399	1802.341	1745.348
383.059	16.376	1800.677	1743.299
384.073	16.375	1800.428	1742.829
385.088	16.406	1798.526	1741.107
386.102	16.398	1797.019	1739.358
387.117	16.341	1795.040	1736.644
388.132	16.374	1794.863	1736.605
389.146	17.326	1799.583	1750.818
390.161	20.129	1803.268	1783.223
391.175	19.830	1795.950	1772.694
392.190	17.236	1788.517	1738.500
393.205	16.624	1785.440	1729.020
394.219	16.518	1784.650	1726.962
395.234	16.371	1783.491	1724.124
396.248	16.534	1781.804	1723.956
397.263	16.391	1779.615	1720.167
398.278	16.447	1777.555	1718.544
399.292	16.546	1777.047	1718.860
400.307	16.379	1776.386	1716.309
401.321	16.488	1775.062	1715.939
402.336	16.657	1773.532	1715.973
403.350	16.803	1770.842	1714.655
404.365	16.717	1771.152	1713.869
405.380	16.992	1770.168	1715.513
406.394	16.999	1769.799	1715.015
407.409	16.784	1768.593	1711.458
408.423	16.940	1766.671	1710.982
409.438	16.986	1764.622	1709.251
410.453	16.932	1763.568	1707.481
411.467	17.022	1762.153	1706.816
412.482	16.831	1761.138	1703.699
413.496	16.700	1759.477	1700.563
414.511	16.569	1757.902	1697.523
415.526	16.453	1756.072	1694.376
416.540	16.347	1754.552	1691.645
417.555	16.399	1753.233	1690.688
418.569	16.656	1753.179	1693.021
419.584	16.682	1752.937	1692.850
420.599	16.608	1752.720	1691.688
421.613	16.581	1751.203	1689.755
422.628	16.568	1750.322	1688.574
423.642	16.519	1748.614	1686.230
424.657	16.644	1746.314	1685.065
425.672	16.639	1745.605	1684.127
426.686	16.648	1743.793	1682.267
427.701	16.454	1743.005	1679.371
428.715	16.475	1741.841	1678.258
429.730	16.674	1740.688	1678.925
430.745	16.721	1738.544	1677.126
431.759	16.650	1738.857	1676.517
432.774	17.043	1738.375	1679.768
433.788	17.467	1738.333	1683.739
434.803	17.734	1737.843	1685.714
435.818	17.581	1737.635	1683.795
436.832	17.432	1736.453	1680.967
437.847	16.424	1729.873	1664.419
438.861	9.019	1709.841	1572.252
439.876	1.513	1695.907	1485.718
440.890	0.229	1692.011	1469.535
441.905	0.144	1691.525	1468.111
442.920	0.084	1690.305	1466.286
443.934	0.097	1688.763	1464.902
444.949	0.154	1687.491	1464.176
445.963	0.041	1686.801	1462.302
446.978	0.095	1685.318	1461.363
447.993	0.128	1683.661	1460.082
449.007	0.178	1682.186	1459.107
450.022	0.111	1680.337	1456.683
451.036	0.116	1679.394	1455.738
452.051	1.049	1682.604	1467.430
453.066	8.485	1698.832	1554.295
454.080	15.792	1710.171	1636.143
455.095	17.297	1712.306	1652.699
456.109	17.568	1712.158	1655.010
457.124	17.620	1711.254	1654.440
458.139	17.519	1710.900	1652.914
459.153	17.606	1709.902	1652.601
460.168	17.704	1707.927	1651.450
461.182	17.698	1706.321	1649.645
462.197	17.570	1704.295	1646.242
463.212	17.688	1702.073	1645.043
464.226	17.646	1701.275	1643.673
465.241	17.529	1700.873	1641.956
466.255	17.782	1699.574	1642.950
467.270	17.734	1698.137	1640.903
468.285	17.626	1697.165	1638.723
469.299	17.599	1695.318	1636.477
470.314	17.629	1694.008	1635.308
471.328	17.595	1692.563	1633.394
472.343	17.495	1692.521	1632.188
473.358	17.551	1691.552	1631.603
474.372	17.707	1689.119	1630.562
475.387	17.587	1687.686	1627.828
476.401	17.544	1686.383	1625.964
477.416	17.574	1685.128	1624.841
478.430	17.685	1684.492	1625.098
479.445	17.533	1682.815	1621.831
480.460	17.488	1682.220	1620.632
481.474	17.490	1681.450	1619.718
482.489	17.797	1679.261	1620.349
483.503	17.808	1677.223	1618.296
484.518	17.807	1676.305	1617.206
485.533	17.787	1675.661	1616.195
486.547	17.768	1674.249	1614.459
487.562	17.944	1672.925	1614.663
488.576	17.865	1671.215	1612.073
489.591	17.886	1669.707	1610.628
490.606	17.791	1668.610	1608.475
491.620	17.864	1667.377	1607.786
492.635	18.017	1665.423	1607.153
493.649	17.971	1664.507	1605.645
494.664	17.740	1663.791	1602.574
495.679	17.553	1661.525	1598.439
496.693	17.653	1660.138	1597.854
497.708	17.627	1659.922	1597.210
498.722	17.786	1658.357	1597.006
499.737	17.783	1657.014	1595.496
500.752	17.554	1655.815	1592.003
501.766	17.666	1654.237	1591.344
502.781	17.790	1652.174	1590.333
503.795	17.815	1650.521	1588.779
504.810	17.774	1649.615	1587.336
505.825	17.933	1649.214	1588.247
506.839	17.806	1648.651	1586.329
507.854	17.822	1647.584	1585.259
508.868	17.808	1645.538	1582.977
509.883	17.833	1645.220	1582.716
510.898	17.891	1643.679	1581.576
511.912	17.895	1641.584	1579.413
512.927	17.728	1639.855	1576.005
513.941	17.788	1638.679	1575.246
514.956	17.591	1638.480	1573.037
515.971	17.785	1635.876	1572.147
516.985	17.719	1635.045	1570.552
518.000	17.879	1634.431	1571.250
519.014	17.844	1634.422	1570.733
520.029	18.039	1632.813	1570.795
521.043	18.003	1630.525	1568.082
522.058	17.912	1629.120	1565.695
523.073	17.972	1628.801	1565.761
524.087	18.103	1628.330	1566.324
525.102	18.216	1626.300	1565.220
526.116	17.843	1625.097	1560.448
527.131	17.702	1624.967	1558.845
528.146	18.022	1624.192	1560.849
529.160	18.060	1622.252	1559.150
530.175	18.073	1620.601	1557.498
531.189	17.993	1620.491	1556.470
532.204	17.974	1618.804	1554.489
533.219	17.837	1617.204	1551.515
534.233	17.883	1616.236	1550.821
535.248	18.001	1615.214	1550.732
536.262	18.181	1614.654	1551.647
537.277	18.123	1613.508	1549.832
538.292	17.912	1611.242	1545.550
539.306	17.997	1609.479	1544.446
540.321	17.999	1608.175	1543.029
541.335	18.001	1606.757	1541.504
542.350	18.081	1605.048	1540.401
543.365	18.160	1603.768	1539.709
544.379	18.090	1603.374	1538.511
545.394	18.190	1601.998	1537.909
546.408	18.127	1599.806	1535.050
547.423	17.814	1598.769	1531.053
548.438	17.791	1598.045	1529.966
549.452	17.982	1596.743	1530.261
550.467	18.024	1595.536	1529.299
551.481	18.069	1594.627	1528.642
552.496	18.125	1594.156	1528.512
553.511	18.255	1593.154	1528.535
554.525	18.185	1591.839	1526.462
555.540	18.256	1591.998	1527.076
556.554	18.219	1590.127	1524.768
557.569	18.168	1588.264	1522.343
558.583	18.148	1587.031	1520.791
559.598	17.994	1586.362	1518.594
560.613	18.135	1584.486	1517.876
561.627	18.215	1582.894	1516.880
562.642	18.090	1582.412	1515.126
563.656	18.332	1581.485	1516.213
564.671	18.235	1580.178	1513.913
565.686	18.291	1578.395	1512.526
566.700	17.886	1577.757	1508.133
567.715	17.930	1576.135	1506.789
568.729	17.929	1574.493	1505.037
569.744	17.955	1571.815	1502.521
570.759	17.999	1571.159	1502.110
571.773	18.082	1570.465	1501.996
572.788	18.114	1569.097	1500.788
573.802	18.055	1568.087	1499.122
574.817	18.221	1566.382	1498.778
575.832	18.355	1565.587	1499.016
576.846	18.299	1564.928	1497.709
577.861	18.211	1563.130	1495.043
578.875	18.205	1562.337	1494.051
579.890	18.441	1561.324	1494.972
580.905	18.353	1560.834	1493.548
581.919	18.231	1560.439	1491.924
582.934	18.369	1559.907	1492.449
583.948	18.335	1558.343	1490.476
584.963	18.385	1556.727	1489.188
585.978	18.232	1554.961	1485.986
586.992	18.429	1554.171	1486.773
588.007	18.362	1553.402	1485.271
589.021	18.195	1552.617	1482.893
590.036	18.127	1550.777	1480.364
591.051	18.255	1549.136	1479.736
592.065	18.263	1548.394	1478.916
593.080	18.389	1546.444	1477.968
594.094	18.584	1544.477	1477.599
595.109	18.127	1542.595	1471.675
596.123	18.010	1541.592	1469.524
597.138	18.164	1541.310	1470.413
598.153	18.186	1540.536	1469.692
599.167	18.309	1538.875	1468.989
600.182	18.274	1537.792	1467.475
601.196	18.372	1536.829	1467.226
602.211	18.389	1535.022	1465.475
603.226	18.385	1534.759	1465.011
604.240	18.390	1533.308	1463.491
605.255	18.385	1532.092	1462.119
606.269	18.572	1531.513	1462.991
607.284	18.533	1530.147	1461.182
608.299	18.547	1528.447	1459.495
609.313	18.353	1527.480	1456.741
610.328	18.313	1527.074	1455.842
611.342	18.406	1525.400	1454.863
612.357	18.484	1524.523	1454.519
613.372	18.462	1523.516	1453.197
614.386	18.458	1522.398	1451.919
615.401	18.393	1521.960	1450.776
616.415	18.598	1520.370	1450.831
617.430	18.506	1519.922	1449.448
618.445	18.540	1518.663	1448.363
619.459	18.520	1516.943	1446.378
620.474	18.200	1516.445	1443.020
621.488	18.001	1514.692	1439.490
622.503	18.028	1513.058	1437.993
623.518	18.112	1512.397	1437.906
624.532	18.488	1511.502	1440.060
625.547	18.460	1510.603	1438.794
626.561	18.659	1509.565	1439.310
627.576	18.716	1508.493	1438.596
628.591	18.370	1507.001	1434.085
629.605	18.248	1505.095	1431.078
630.620	18.169	1504.108	1429.305
631.634	18.098	1502.734	1427.228
632.649	18.067	1502.027	1426.125
633.663	18.286	1501.106	1426.920
634.678	18.464	1499.973	1427.164
635.693	18.614	1498.373	1426.723
636.707	18.564	1497.460	1425.264
637.722	18.765	1496.734	1426.078
638.736	18.784	1495.493	1424.886
639.751	18.563	1494.778	1422.194
640.766	18.601	1492.670	1420.335
641.780	18.653	1491.924	1419.888
642.795	18.631	1490.949	1418.606
643.809	18.710	1490.068	1418.250
644.824	18.715	1489.223	1417.323
645.839	18.602	1488.359	1415.390
646.853	18.619	1486.780	1413.856
647.868	18.701	1485.217	1412.878
648.882	18.562	1484.012	1410.421
649.897	18.513	1483.127	1409.007
650.912	18.674	1481.724	1408.829
651.926	18.673	1480.522	1407.510
652.941	18.605	1478.950	1405.286
653.955	18.357	1477.241	1401.457
654.970	18.385	1475.612	1399.972
655.985	18.316	1474.358	1398.048
656.999	18.434	1473.650	1398.175
658.014	18.433	1472.603	1397.014
659.028	18.411	1472.146	1396.230
660.043	18.759	1470.696	1397.537
661.058	18.708	1468.773	1395.126
662.072	18.710	1468.531	1394.743
663.087	18.695	1467.504	1393.475
664.101	18.487	1466.632	1390.788
665.116	18.725	1465.511	1391.495
666.131	18.785	1464.875	1391.218
667.145	18.632	1463.930	1388.901
668.160	18.816	1462.131	1388.525
669.174	18.972	1461.245	1388.783
670.189	18.892	1460.103	1386.884
671.204	18.741	1458.579	1384.048
672.218	18.665	1458.143	1382.853
673.233	18.743	1457.006	1382.238
674.247	18.814	1456.118	1381.805
675.262	18.819	1455.604	1381.195
676.276	18.742	1454.657	1379.512
677.291	18.749	1453.072	1377.896
678.306	18.722	1451.348	1375.878
679.320	18.739	1450.537	1375.086
680.335	18.816	1449.667	1374.713
681.349	18.820	1449.455	1374.382
682.364	18.783	1448.584	1373.091
683.379	18.864	1446.668	1371.759
684.393	18.723	1445.837	1369.679
685.408	18.801	1444.341	1368.725
686.422	18.732	1444.008	1367.686
687.437	18.806	1443.622	1367.753
688.452	18.818	1442.744	1366.857
689.466	18.699	1440.362	1363.483
690.481	18.797	1438.385	1362.229
691.495	18.594	1437.980	1360.067
692.510	18.418	1436.359	1356.972
693.525	18.296	1434.113	1353.717
694.539	18.511	1433.530	1354.712
695.554	18.617	1433.787	1355.636
696.568	18.908	1432.911	1356.948
697.583	18.817	1432.802	1355.964
698.598	18.902	1431.992	1355.709
699.612	18.964	1430.413	1354.543
700.627	18.954	1428.926	1352.890
701.641	18.990	1427.383	1351.551
702.656	18.800	1426.902	1349.440
703.671	18.854	1427.189	1349.975
704.685	19.019	1425.733	1349.733
705.700	19.018	1424.000	1347.926
706.714	18.927	1422.684	1345.807
707.729	18.862	1421.424	1343.941
708.744	18.855	1420.052	1342.423
709.758	18.826	1418.597	1340.665
710.773	18.719	1417.656	1338.773
711.787	18.743	1415.956	1337.196
712.802	18.661	1414.650	1335.160
713.816	18.886	1413.754	1335.915
714.831	18.925	1413.590	1335.907
715.846	19.000	1412.481	1335.279
716.860	19.030	1411.325	1334.264
717.875	19.041	1409.522	1332.482
718.889	18.911	1408.612	1330.449
719.904	19.019	1407.865	1330.429
720.919	18.925	1407.540	1329.232
721.933	19.002	1406.926	1329.088
722.948	19.008	1405.614	1327.738
723.962	19.044	1404.639	1326.937
724.977	19.114	1403.521	1326.267
725.992	19.188	1401.699	1324.956
727.006	19.039	1400.607	1322.613
728.021	19.242	1399.264	1322.752
729.035	19.064	1398.247	1320.265
730.050	18.939	1397.886	1318.802
731.065	19.150	1395.626	1318.129
732.079	19.087	1395.543	1317.412
733.094	19.016	1394.206	1315.444
734.108	19.098	1392.768	1314.564
735.123	18.975	1391.186	1311.968
736.138	18.984	1390.339	1311.080
737.152	19.095	1389.204	1310.704
738.167	19.192	1388.564	1310.685
739.181	19.080	1387.378	1308.555
740.196	19.145	1387.490	1308.997
741.211	19.084	1386.819	1307.740
742.225	18.957	1385.870	1305.724
743.240	19.165	1384.008	1305.396
744.254	19.008	1382.619	1302.737
745.269	18.912	1381.549	1300.838
746.284	19.105	1381.082	1301.714
747.298	19.054	1379.413	1299.599
748.313	18.724	1378.309	1295.900
749.327	18.464	1377.696	1293.191
750.342	18.393	1376.017	1290.925
751.356	18.328	1375.268	1289.574
752.371	18.454	1373.865	1289.063
753.386	18.682	1372.733	1289.569
754.400	19.136	1372.142	1292.281
755.415	19.152	1371.214	1291.371
756.429	19.314	1369.765	1291.071
757.444	19.101	1369.297	1288.872
758.459	19.062	1368.896	1288.052
759.473	19.158	1367.996	1287.773
760.488	19.340	1366.615	1287.681
761.502	19.332	1365.027	1285.976
762.517	19.229	1363.492	1283.601
763.532	19.145	1362.425	1281.815
764.546	19.070	1361.269	1280.010
765.561	18.878	1360.579	1277.778
766.575	18.682	1359.005	1274.685
767.590	18.652	1358.083	1273.443
768.605	18.791	1357.475	1273.757
769.619	18.953	1355.694	1273.139
770.634	19.067	1354.819	1273.011
771.648	19.184	1354.177	1273.121
772.663	19.207	1354.011	1272.989
773.678	19.249	1353.377	1272.553
774.692	19.162	1352.859	1271.266
775.707	19.263	1352.291	1271.331
776.721	19.302	1351.580	1270.797
777.736	19.326	1349.161	1268.551
778.751	19.306	1348.349	1267.484
779.765	19.226	1347.601	1266.040
780.780	19.236	1346.999	1265.394
781.794	19.160	1345.842	1263.598
782.809	19.220	1344.860	1262.966
783.824	19.018	1344.241	1260.747
784.838	18.746	1342.417	1256.886
785.853	18.461	1340.607	1252.946
786.867	18.598	1340.283	1253.496
787.882	18.759	1339.860	1254.130
788.897	18.909	1339.191	1254.461
789.911	19.013	1338.553	1254.473
790.926	19.057	1336.453	1252.675
791.940	19.259	1334.517	1252.186
792.955	19.235	1333.626	1251.028
793.969	19.144	1333.153	1249.765
794.984	19.210	1332.134	1249.142
795.999	19.207	1331.819	1248.677
797.013	19.145	1330.269	1246.622
798.028	19.319	1328.512	1246.093
799.042	19.265	1328.364	1245.413
800.057	19.282	1327.619	1244.685
801.072	19.276	1325.988	1242.970
802.086	19.314	1324.571	1241.766
803.101	19.323	1324.131	1241.270
804.115	19.316	1323.541	1240.518
805.130	19.311	1321.995	1238.885
806.145	19.329	1320.221	1237.200
807.159	19.390	1318.744	1236.108
808.174	19.344	1317.328	1234.306
809.188	19.320	1316.300	1233.017
810.203	19.252	1314.300	1230.509
811.218	18.982	1313.114	1227.317
812.232	18.853	1311.783	1224.998
813.247	18.860	1311.082	1224.249
814.261	19.099	1310.039	1224.843
815.276	19.241	1309.715	1225.408
816.291	19.311	1309.465	1225.522
817.305	19.375	1308.309	1224.750
818.320	19.395	1307.099	1223.620
819.334	19.160	1306.052	1220.815
820.349	19.456	1303.538	1220.426
821.364	19.510	1302.215	1219.423
822.378	19.419	1301.776	1218.218
823.393	19.411	1300.036	1216.389
824.407	19.410	1299.300	1215.544
825.422	19.290	1298.579	1213.875
826.437	19.339	1296.939	1212.544
827.451	19.356	1294.907	1210.624
828.466	18.871	1293.777	1205.997
829.480	18.731	1292.179	1203.376
830.495	18.713	1290.721	1201.749
831.509	19.073	1290.190	1203.647
832.524	19.274	1289.542	1204.308
833.539	19.412	1288.509	1204.170
834.553	19.375	1287.735	1203.038
835.568	19.304	1286.467	1201.215
836.582	19.488	1285.476	1201.430
837.597	19.368	1284.259	1199.315
838.612	19.459	1283.102	1198.727
839.626	19.492	1281.243	1197.077
840.641	19.295	1280.770	1195.117
841.655	19.135	1279.448	1192.622
842.670	18.959	1278.316	1190.201
843.685	18.855	1277.335	1188.423
844.699	18.938	1276.444	1188.027
845.714	19.282	1275.454	1189.354
846.728	19.253	1274.481	1188.103
847.743	19.432	1273.232	1188.035
848.758	19.426	1272.599	1187.261
849.772	19.519	1271.081	1186.345
850.787	19.394	1269.672	1184.022
851.801	19.483	1268.274	1183.192
852.816	19.386	1267.331	1181.506
853.831	19.207	1266.341	1179.205
854.845	19.234	1264.617	1177.645
855.860	19.082	1262.150	1174.168
856.874	19.076	1261.323	1173.216
857.889	19.020	1260.361	1171.799
858.904	18.838	1258.363	1168.556
859.918	18.691	1256.663	1165.836
860.933	18.703	1255.248	1164.463
861.947	18.840	1255.056	1165.079
862.962	19.002	1254.189	1165.236
863.977	18.847	1253.638	1163.530
864.991	18.950	1253.273	1163.751
866.006	19.259	1252.430	1164.932
867.020	19.485	1251.078	1165.067
868.035	19.341	1250.234	1163.167
869.049	19.370	1249.250	1162.307
870.064	19.428	1248.183	1161.569
871.079	19.483	1247.748	1161.395
872.093	19.438	1247.213	1160.454
873.108	19.547	1245.548	1159.507
874.122	19.315	1244.362	1156.699
875.137	19.269	1243.301	1155.259
876.152	19.089	1242.284	1152.968
877.166	19.325	1240.853	1153.089
878.181	19.346	1239.976	1152.277
879.195	19.378	1239.975	1152.353
880.210	19.385	1238.827	1151.192
881.225	19.361	1238.159	1150.272
882.239	19.466	1237.176	1149.925
883.254	19.642	1235.840	1149.724
884.268	19.487	1235.189	1147.948
885.283	19.476	1233.993	1146.621
886.298	19.444	1232.837	1145.195
887.312	19.471	1231.409	1143.915
888.327	19.465	1230.191	1142.605
889.341	19.359	1229.239	1140.878
890.356	19.326	1228.928	1140.237
891.371	19.488	1228.302	1140.593
892.385	19.289	1227.469	1138.362
893.400	19.236	1226.408	1136.889
894.414	19.244	1224.876	1135.389
895.429	19.291	1222.214	1133.098
896.444	18.865	1220.209	1128.289
897.458	18.436	1219.586	1124.751
898.473	18.704	1219.748	1126.532
899.487	18.909	1219.269	1127.306
900.502	19.258	1218.098	1128.385
901.517	19.391	1216.771	1127.899
902.531	19.646	1215.415	1128.179
903.546	19.565	1215.055	1127.176
904.560	19.612	1214.434	1126.772
905.575	19.710	1213.744	1126.644
906.589	19.482	1213.424	1124.715
907.604	19.467	1212.594	1123.712
