DTS Sentinel unit serial number:	SN409020Multiplexer serial number:	ORYXHardware model number:	OX4-SRSoftware version number:	ORYX F/W v3.00 Oryx Data Collector v3.7.2.0data status	okinstallation	HaddamTimeLapsedifferential loss correction	single-endedforward channel	channel 3reverse channel	N/Adate	2011/06/22time	07:46:17forward acquisition time	30.00reverse acquisition time	0.00gamma	498.7831k internal	0.1762k external	0.1762temperature offset calibration	1.0074default loss term (dB/km)	0.3790temperature slope calibration	1.3530multiplexer offset coefficient	1.0000multiplexer slope coefficient	1.0000fibre end	0.00T internal ref (°C)	24.00T ext. ref 1 (°C)	22.39T ext. ref 2 (°C)	0.16length (m)	temperature (°C)	Stokes	anti-Stokes-747.200	-200.000	-0.016	0.851
-746.185	38.177	-0.124	0.146
-745.171	197.716	0.068	0.138
-744.156	30.964	0.392	0.443
-743.142	-97.723	0.119	-0.040
-742.127	-200.000	0.033	0.431
-741.112	706.591	-0.055	-0.191
-740.098	-37.774	0.232	0.163
-739.083	338.260	-0.110	-0.285
-738.069	800.000	0.075	0.338
-737.054	90.434	-0.171	-0.254
-736.039	-9.715	-0.237	0.209
-735.025	-200.000	-0.004	-0.327
-734.010	-99.492	0.442	-0.146
-732.996	-33.973	0.336	-0.244
-731.981	-93.102	-0.184	0.067
-730.966	63.125	-0.100	0.133
-729.952	359.533	0.080	-0.211
-728.937	291.413	0.240	-0.579
-727.923	800.000	-0.101	0.512
-726.908	-42.155	-0.556	0.374
-725.894	800.000	-0.090	-0.355
-724.879	800.000	-0.078	-0.435
-723.864	-53.804	-0.280	-0.168
-722.850	96.070	-0.341	-0.515
-721.835	-4.008	-0.102	-0.093
-720.821	26.235	-0.108	0.119
-719.806	130.461	-0.228	-0.386
-718.791	1.486	0.121	-0.114
-717.777	-60.422	-0.269	-0.150
-716.762	-72.274	0.089	0.043
-715.748	145.418	-0.081	0.144
-714.733	242.275	0.041	-0.091
-713.718	119.671	-0.062	-0.102
-712.704	-45.275	0.203	-0.132
-711.689	-178.607	0.219	-0.007
-710.675	-43.442	-0.064	-0.042
-709.660	-200.000	-0.048	-0.629
-708.645	49.547	-0.023	0.029
-707.631	-81.720	-0.184	-0.079
-706.616	-200.000	-0.054	-0.377
-705.602	-63.886	-0.129	-0.069
-704.587	800.000	0.051	0.216
-703.572	0.783	0.274	0.259
-702.558	600.688	-0.069	0.229
-701.543	-30.652	-0.264	0.196
-700.529	-61.345	-0.171	0.094
-699.514	-149.518	-0.382	0.039
-698.499	-106.104	-0.313	0.092
-697.485	-38.829	-0.181	0.126
-696.470	800.000	-0.038	-0.193
-695.456	-143.810	-0.371	-0.046
-694.441	-85.738	-0.255	-0.104
-693.426	-82.316	-0.441	0.188
-692.412	5.777	-0.228	0.222
-691.397	710.589	0.161	-0.566
-690.383	-45.872	-0.413	-0.268
-689.368	752.201	0.040	0.145
-688.354	-119.263	-0.269	-0.061
-687.339	40.312	0.355	0.421
-686.324	-123.572	-0.115	-0.024
-685.310	-113.324	0.202	-0.052
-684.295	71.148	-0.183	-0.251
-683.281	-98.034	-0.821	-0.277
-682.266	34.758	0.135	0.156
-681.251	308.417	-0.119	-0.295
-680.237	-87.214	-0.377	0.150
-679.222	-54.300	-0.327	-0.195
-678.208	-83.679	0.103	-0.043
-677.193	-91.022	0.322	-0.121
-676.178	84.502	-0.178	0.257
-675.164	-71.997	-0.261	-0.127
-674.149	-104.797	0.168	-0.051
-673.135	39.139	0.244	-0.287
-672.120	-71.835	-0.466	-0.228
-671.105	355.312	-0.091	-0.240
-670.091	-116.972	-0.256	-0.061
-669.076	197.469	0.191	-0.386
-668.062	8.183	-0.262	-0.259
-667.047	-200.000	-0.069	0.446
-666.032	-117.556	-0.079	0.019
-665.018	47.545	0.197	0.242
-664.003	171.759	0.045	-0.085
-662.989	92.046	0.135	-0.201
-661.974	-132.115	0.231	-0.039
-660.959	-200.000	0.013	-0.163
-659.945	-71.331	-0.080	-0.039
-658.930	224.642	-0.164	-0.351
-657.916	-75.926	-0.371	-0.172
-656.901	601.162	-0.150	-0.494
-655.886	-133.950	0.671	-0.108
-654.872	-32.851	-0.265	0.193
-653.857	-45.336	0.122	-0.079
-652.843	-112.483	-0.442	0.115
-651.828	-47.947	-0.422	-0.268
-650.814	800.000	0.033	-0.180
-649.799	116.689	-0.211	-0.341
-648.784	-135.660	0.406	-0.063
-647.770	100.714	-0.051	-0.079
-646.755	42.654	-0.165	-0.197
-645.741	105.230	0.189	-0.294
-644.726	-41.788	-0.181	-0.122
-643.711	-5.392	-0.067	-0.061
-642.697	501.244	-0.054	-0.164
-641.682	669.095	0.095	0.327
-640.668	-136.997	0.287	0.043
-639.653	-49.074	-0.472	0.296
-638.638	-200.000	-0.051	0.334
-637.624	21.089	-0.180	0.192
-636.609	-77.214	0.216	0.099
-635.595	-23.855	-0.446	0.350
-634.580	-172.931	-0.315	-0.013
-633.565	-150.895	0.251	-0.025
-632.551	-120.752	-0.487	0.107
-631.536	-14.595	-0.089	-0.075
-630.522	-190.004	0.179	-0.003
-629.507	-142.446	-0.300	0.038
-628.492	-79.347	0.333	0.147
-627.478	-200.000	-0.014	-0.084
-626.463	228.554	0.108	0.233
-625.449	-26.079	-0.800	0.617
-624.434	-200.000	-0.034	0.405
-623.419	-78.203	-0.198	0.089
-622.405	168.665	-0.214	0.401
-621.390	6.265	-0.064	-0.063
-620.376	180.871	-0.114	0.220
-619.361	44.909	-0.118	-0.142
-618.346	800.000	-0.117	-0.518
-617.332	64.490	0.072	-0.095
-616.317	129.530	-0.163	0.273
-615.303	-25.672	-0.342	-0.265
-614.288	-39.200	0.095	0.065
-613.273	-104.050	0.345	0.105
-612.259	-200.000	-0.019	0.449
-611.244	-148.890	0.282	0.030
-610.230	-7.779	0.128	0.114
-609.215	800.000	-0.080	-0.301
-608.201	43.692	-0.262	-0.315
-607.186	-131.185	-0.143	0.025
-606.171	-16.402	-0.335	-0.279
-605.157	-113.835	0.172	0.044
-604.142	34.288	0.189	0.217
-603.128	-171.863	-0.318	0.013
-602.113	800.000	-0.080	-0.307
-601.098	-200.000	-0.088	-0.757
-600.084	-126.180	-0.315	0.061
-599.069	93.045	0.138	0.205
-598.055	-41.678	0.213	-0.144
-597.040	-72.163	-0.459	-0.223
-596.025	-77.071	0.256	0.117
-595.011	-97.472	-0.111	-0.038
-593.996	-200.000	-0.005	0.328
-592.982	-8.625	0.338	0.298
-591.967	51.202	0.165	0.205
-590.952	800.000	0.038	0.202
-589.938	-63.934	-0.232	-0.124
-588.923	-8.318	0.226	-0.199
-587.909	-52.634	0.225	0.136
-586.894	-181.391	0.101	0.003
-585.879	800.000	-0.027	0.140
-584.865	-47.418	0.342	-0.217
-583.850	-139.715	0.157	-0.022
-582.836	71.314	0.271	-0.369
-581.821	80.187	-0.165	-0.233
-580.806	102.610	-0.241	-0.371
-579.792	407.052	0.044	0.123
-578.777	247.146	0.224	0.497
-577.763	9.374	0.423	0.420
-576.748	329.503	0.121	0.308
-575.733	-58.352	-0.066	0.037
-574.719	-200.000	0.013	0.154
-573.704	-144.376	0.246	-0.030
-572.690	-200.000	0.024	0.251
-571.675	16.051	0.151	0.156
-570.661	-54.504	-0.150	-0.089
-569.646	-66.589	0.498	-0.258
-568.631	-200.000	-0.017	-0.282
-567.617	-26.088	0.287	-0.221
-566.602	294.778	-0.035	-0.085
-565.588	-37.099	0.464	-0.325
-564.573	-16.784	-0.363	-0.301
-563.558	-115.551	0.431	-0.105
-562.544	-200.000	0.013	-0.201
-561.529	1.191	0.421	-0.396
-560.515	-200.000	0.039	-0.283
-559.500	-118.439	-0.187	0.043
-558.485	-133.590	0.551	-0.090
-557.471	121.901	0.170	-0.279
-556.456	253.129	-0.124	-0.278
-555.442	91.436	0.324	-0.478
-554.427	-79.168	0.465	0.206
-553.412	-33.086	-0.293	0.212
-552.398	-200.000	-0.019	-0.169
-551.383	-81.178	-0.189	0.081
-550.369	408.688	-0.079	0.219
-549.354	94.493	-0.106	-0.157
-548.339	88.887	-0.331	-0.483
-547.325	73.831	0.121	0.167
-546.310	-107.177	0.084	0.024
-545.296	-8.954	-0.140	-0.123
-544.281	-99.650	-0.380	-0.124
-543.266	-48.683	-0.486	-0.305
-542.252	-27.711	0.198	-0.150
-541.237	-157.231	0.178	-0.014
-540.223	-83.918	0.567	0.235
-539.208	-173.863	0.301	-0.011
-538.193	155.455	-0.140	-0.253
-537.179	-200.000	0.040	0.382
-536.164	-38.263	0.348	-0.241
-535.150	-155.967	-0.407	-0.033
-534.135	66.362	-0.477	0.635
-533.121	-165.595	0.248	0.014
-532.106	-200.000	-0.019	0.209
-531.091	-29.751	0.151	-0.113
-530.077	-136.568	0.233	-0.035
-529.062	800.000	-0.068	0.349
-528.048	127.696	0.131	-0.219
-527.033	-35.643	-0.282	0.200
-526.018	-152.947	-0.369	0.034
-525.004	-200.000	-0.019	-0.116
-523.989	-91.188	-0.171	-0.064
-522.975	-13.211	-0.093	0.079
-521.960	-85.813	-0.042	0.017
-520.945	-102.872	-0.340	0.105
-519.931	-5.707	0.252	-0.225
-518.916	-133.703	0.645	-0.104
-517.902	141.628	0.160	-0.279
-516.887	-11.834	-0.576	0.494
-515.872	14.899	0.265	-0.271
-514.858	280.618	-0.077	-0.181
-513.843	-36.369	0.297	-0.209
-512.829	791.518	-0.103	-0.374
-511.814	800.000	0.076	0.319
-510.799	129.972	-0.171	0.288
-509.785	653.968	-0.113	0.380
-508.770	-86.955	0.407	-0.162
-507.756	26.373	-0.122	0.133
-506.741	341.582	-0.105	-0.269
-505.726	28.110	-0.089	-0.098
-504.712	-200.000	0.043	-0.417
-503.697	-109.197	0.550	-0.152
-502.683	-200.000	-0.025	0.325
-501.668	-76.890	-0.317	0.144
-500.653	304.768	0.012	0.029
-499.639	-16.222	0.121	0.100
-498.624	-111.653	0.458	-0.121
-497.610	-200.000	0.018	-0.429
-496.595	54.357	0.179	0.225
-495.581	136.414	-0.307	0.524
-494.566	111.213	-0.192	-0.303
-493.551	129.187	-0.177	-0.296
-492.537	-95.538	-0.302	0.105
-491.522	-164.108	0.336	-0.020
-490.508	61.531	0.175	0.228
-489.493	500.260	0.148	-0.448
-488.478	-82.439	0.206	0.087
-487.464	189.067	-0.304	-0.597
-486.449	203.515	-0.060	0.123
-485.435	-200.000	0.025	-0.157
-484.420	75.215	-0.388	0.536
-483.405	0.572	0.313	0.292
-482.391	-75.885	-0.354	-0.163
-481.376	44.522	0.164	0.197
-480.362	-32.313	0.319	-0.232
-479.347	64.851	0.090	0.118
-478.332	800.000	0.049	-0.228
-477.318	-200.000	-0.060	0.639
-476.303	351.155	-0.037	0.097
-475.289	10.525	0.498	0.495
-474.274	77.006	0.177	-0.246
-473.259	0.674	-0.235	-0.219
-472.245	57.558	-0.209	0.266
-471.230	-101.722	-0.355	0.112
-470.216	187.948	0.164	0.321
-469.201	-200.000	0.036	0.555
-468.186	-116.399	-0.227	0.054
-467.172	52.500	0.265	0.330
-466.157	-108.832	0.302	-0.084
-465.143	126.397	0.148	-0.245
-464.128	157.357	-0.211	0.383
-463.113	-116.137	-0.203	0.049
-462.099	-200.000	-0.030	-0.389
-461.084	-122.386	-0.322	0.068
-460.070	23.518	-0.222	-0.238
-459.055	-22.683	-0.183	-0.144
-458.040	220.954	-0.234	0.491
-457.026	-95.152	0.373	-0.131
-456.011	-16.900	-0.208	-0.171
-454.997	10.870	0.320	-0.319
-453.982	-200.000	-0.056	-0.352
-452.968	-91.977	-0.648	0.238
-451.953	-18.336	-0.164	-0.133
-450.938	-67.298	0.271	-0.139
-449.924	13.241	0.279	0.282
-448.909	-74.388	-0.416	-0.195
-447.895	446.414	-0.105	0.304
-446.880	426.004	-0.044	-0.123
-445.865	800.000	0.128	0.530
-444.851	59.792	-0.378	0.487
-443.836	-34.283	-0.445	-0.318
-442.822	-138.116	0.579	-0.083
-441.807	-191.827	0.307	0.004
-440.792	-46.158	0.072	0.046
-439.778	-111.627	0.334	-0.088
-438.763	800.000	-0.065	-0.237
-437.749	800.000	-0.019	-0.085
-436.734	110.670	0.064	0.100
-435.719	-141.448	-0.145	0.019
-434.705	404.131	-0.017	-0.048
-433.690	-71.713	-0.338	0.164
-432.676	288.701	0.080	0.190
-431.661	22.780	-0.463	0.495
-430.646	171.086	0.053	0.100
-429.632	-142.602	0.545	-0.069
-428.617	57.847	0.131	-0.168
-427.603	-55.043	0.147	-0.086
-426.588	800.000	0.051	-0.245
-425.573	-130.351	0.150	-0.026
-424.559	-95.754	0.330	0.114
-423.544	-42.837	-0.119	0.079
-422.530	99.135	0.224	0.338
-421.515	-58.238	0.258	-0.146
-420.500	-150.873	-0.538	-0.052
-419.486	75.293	-0.336	0.463
-418.471	-126.368	0.245	0.047
-417.457	-106.636	-0.679	0.196
-416.442	-74.618	-0.101	-0.047
-415.428	81.505	0.101	0.143
-414.413	800.000	-0.104	-0.599
-413.398	230.080	-0.312	-0.667
-412.384	-117.752	-0.611	-0.142
-411.369	-200.000	-0.014	-0.651
-410.355	-95.714	-0.249	0.086
-409.340	-156.450	-0.253	0.020
-408.325	-106.131	-0.169	-0.049
-407.311	88.507	-0.214	-0.311
-406.296	-200.000	-0.018	0.212
-405.282	-127.904	-0.328	0.061
-404.267	-159.432	0.433	-0.031
-403.252	445.430	-0.052	-0.149
-402.238	-167.103	0.377	0.020
-401.223	-32.569	0.281	-0.203
-400.209	-54.211	-0.121	-0.072
-399.194	538.302	-0.174	0.541
-398.179	-2.790	0.141	-0.128
-397.165	800.000	0.076	-0.303
-396.150	216.197	0.193	-0.402
-395.136	-66.023	-0.490	0.254
-394.121	-48.739	0.176	0.110
-393.106	402.025	-0.109	0.299
-392.092	533.204	0.108	0.336
-391.077	118.459	0.105	-0.170
-390.063	149.181	-0.209	0.369
-389.048	88.898	-0.436	0.632
-388.033	-50.442	-0.530	0.325
-387.019	-101.150	0.260	-0.082
-386.004	119.017	0.192	-0.309
-384.990	140.696	-0.214	-0.368
-383.975	-200.000	-0.019	-0.144
-382.960	-71.796	0.149	0.072
-381.946	177.106	0.083	-0.158
-380.931	-4.657	0.328	0.294
-379.917	-31.891	0.332	-0.242
-378.902	-81.737	0.688	-0.292
-377.888	-45.390	-0.287	-0.185
-376.873	33.269	-0.323	-0.365
-375.858	-43.925	0.101	-0.066
-374.844	66.406	-0.027	0.035
-373.829	-163.902	-0.293	0.018
-372.815	-4.621	0.049	0.044
-371.800	28.608	-0.116	-0.127
-370.785	-165.911	0.101	-0.006
-369.771	-90.117	0.709	0.267
-368.756	-200.000	-0.027	-0.601
-367.742	-90.131	0.304	0.114
-366.727	800.000	-0.158	-0.619
-365.712	304.472	-0.106	-0.257
-364.698	318.959	-0.069	-0.171
-363.683	200.744	-0.186	-0.373
-362.669	-200.000	-0.001	0.096
-361.654	412.266	0.020	0.055
-360.639	800.000	0.046	-0.175
-359.625	-117.738	-0.061	0.014
-358.610	26.785	-0.310	-0.338
-357.596	8.144	0.368	-0.359
-356.581	-59.622	0.089	0.050
-355.566	156.408	0.230	0.414
-354.552	-47.379	0.325	-0.205
-353.537	-59.439	0.484	-0.270
-352.523	215.279	0.070	-0.145
-351.508	-163.933	0.559	-0.033
-350.493	-37.916	0.214	-0.148
-349.479	-85.582	-0.204	0.082
-348.464	19.423	-0.275	0.288
-347.450	-200.000	0.063	-0.645
-346.435	-200.000	0.043	-0.290
-345.420	-140.588	0.320	0.043
-344.406	325.430	-0.119	0.296
-343.391	-200.000	0.011	-0.071
-342.377	-156.758	-0.465	0.037
-341.362	-200.000	0.089	0.691
-340.348	419.899	0.155	0.432
-339.333	-200.000	0.022	0.191
-338.318	-140.493	-0.143	0.019
-337.304	800.000	-0.074	0.407
-336.289	138.664	0.167	0.285
-335.275	-200.000	0.014	0.168
-334.260	-200.000	-0.016	0.353
-333.245	800.000	0.092	0.429
-332.231	-174.607	-0.017	-0.001
-331.216	30.482	0.298	0.331
-330.202	438.357	0.124	-0.354
-329.187	-40.076	0.211	0.142
-328.172	392.700	-0.107	-0.291
-327.158	-51.127	0.439	0.267
-326.143	250.365	-0.125	0.277
-325.129	-200.000	-0.907	-0.002
-324.114	241.895	-0.125	0.271
-323.099	189.316	0.194	0.378
-322.085	54.104	-0.095	-0.118
-321.070	-88.184	0.368	0.143
-320.056	-127.345	0.386	-0.072
-319.041	-200.000	-0.525	-0.002
-318.026	76.550	-0.079	0.108
-317.012	800.000	-0.060	0.289
-315.997	-162.359	0.514	-0.033
-314.983	-58.406	0.403	-0.227
-313.968	79.014	-0.216	-0.301
-312.953	-89.464	-0.417	0.158
-311.939	363.470	-0.060	0.158
-310.924	-200.000	-0.016	-0.546
-309.910	-200.000	-0.037	0.229
-308.895	-200.000	0.062	0.470
-307.880	-29.575	0.364	-0.269
-306.866	800.000	-0.099	0.417
-305.851	124.847	0.137	-0.224
-304.837	53.701	-0.311	-0.388
-303.822	20.751	0.369	-0.387
-302.807	211.372	0.229	-0.469
-301.793	800.000	0.098	-0.484
-300.778	629.377	0.054	0.180
-299.764	-200.000	0.049	-0.382
-298.749	-86.636	0.433	0.171
-297.735	41.024	0.281	-0.329
-296.720	25.510	-0.085	0.092
-295.705	455.931	-0.103	0.299
-294.691	-200.000	-0.011	0.278
-293.676	410.806	-0.110	0.303
-292.662	800.000	-0.013	0.063
-291.647	800.000	0.021	-0.090
-290.632	-14.283	0.169	-0.141
-289.618	800.000	0.092	0.411
-288.603	149.913	0.068	-0.119
-287.589	132.347	-0.164	-0.275
-286.574	318.763	-0.172	0.425
-285.559	403.497	-0.065	-0.179
-284.545	-200.000	-0.007	-0.228
-283.530	-20.288	-0.291	-0.232
-282.516	28.313	-0.271	0.297
-281.501	-200.000	0.028	0.503
-280.486	-72.762	0.627	0.298
-279.472	-200.000	0.020	-0.119
-278.457	-92.726	-0.558	0.201
-277.443	-1.676	0.398	0.363
-276.428	800.000	-0.029	-0.112
-275.413	-200.000	-0.003	0.367
-274.399	-11.150	0.421	0.359
-273.384	-79.063	0.454	0.199
-272.370	-100.058	-0.441	0.142
-271.355	-168.893	0.139	0.007
-270.340	-142.445	-0.127	0.016
-269.326	-130.171	-0.577	-0.101
-268.311	-61.290	0.072	-0.039
-267.297	-200.000	0.027	0.294
-266.282	-16.811	-0.131	0.107
-265.267	-18.979	0.168	-0.135
-264.253	162.042	0.166	-0.303
-263.238	-200.000	-0.020	0.180
-262.224	-22.701	-0.142	-0.111
-261.209	-96.191	-0.268	0.092
-260.195	198.913	0.161	0.321
-259.180	167.880	0.081	-0.149
-258.165	-118.427	0.482	-0.110
-257.151	201.460	-0.214	-0.428
-256.136	-102.928	-0.523	-0.160
-255.122	390.176	-0.118	0.318
-254.107	-146.404	0.292	-0.033
-253.092	800.000	-0.098	-0.364
-252.078	-71.482	-0.531	-0.256
-251.063	800.000	-0.088	0.402
-250.049	-89.887	-0.362	-0.136
-249.034	-200.000	0.013	0.189
-248.019	-22.804	0.110	-0.086
-247.005	-200.000	-0.020	0.750
-245.990	-151.410	0.112	0.011
-244.976	800.000	-0.027	0.129
-243.961	511.441	-0.203	-0.615
-242.946	-102.299	0.322	-0.099
-241.932	-37.400	-0.344	-0.238
-240.917	-200.000	0.007	0.337
-239.903	-154.444	0.162	-0.014
-238.888	100.778	0.237	0.357
-237.873	-6.671	0.217	0.191
-236.859	-133.934	0.581	-0.092
-235.844	0.014	-0.170	-0.156
-234.830	-57.068	-0.055	0.031
-233.815	-200.000	0.009	0.080
-232.800	18.985	-0.139	0.145
-231.786	-46.772	0.101	-0.064
-230.771	386.337	-0.142	-0.381
-229.757	-137.120	-0.378	0.055
-228.742	-36.675	-0.470	-0.326
-227.727	153.613	-0.137	0.243
-226.713	161.898	-0.110	-0.200
-225.698	265.529	-0.115	-0.261
-224.684	30.821	0.235	0.260
-223.669	-200.000	0.032	-0.275
-222.655	-67.964	-0.387	-0.194
-221.640	-113.528	0.154	0.039
-220.625	-200.000	0.021	0.458
-219.611	-66.271	0.188	-0.096
-218.596	800.000	-0.064	-0.300
-217.582	-200.000	0.043	0.299
-216.567	-60.817	0.279	-0.152
-215.552	-110.280	-0.151	-0.040
-214.538	-200.000	0.057	-0.361
-213.523	241.545	-0.243	0.527
-212.509	-80.805	0.440	-0.188
-211.494	800.000	0.093	0.356
-210.479	-86.401	0.305	-0.121
-209.465	283.180	0.050	-0.118
-208.450	306.359	0.155	-0.375
-207.436	166.794	-0.182	-0.335
-206.421	120.857	-0.341	0.550
-205.406	650.195	0.053	-0.175
-204.392	205.206	0.018	-0.036
-203.377	207.803	-0.076	0.153
-202.363	800.000	0.035	0.137
-201.348	-142.807	0.416	-0.052
-200.333	-200.000	0.031	0.687
-199.319	-104.758	0.335	0.099
-198.304	380.647	-0.237	0.631
-197.290	161.236	0.086	0.156
-196.275	196.775	-0.181	0.357
-195.260	-200.000	0.062	0.692
-194.246	-152.810	0.207	-0.019
-193.231	137.482	-0.224	0.379
-192.217	-79.252	0.016	0.007
-191.202	-39.218	-0.287	-0.194
-190.187	-2.169	-0.357	-0.323
-189.173	-200.000	0.013	-0.132
-188.158	-24.737	0.256	-0.197
-187.144	54.999	-0.319	0.398
-186.129	294.330	-0.075	0.178
-185.114	42.185	0.196	0.230
-184.100	-186.669	-0.200	-0.004
-183.085	75.893	-0.491	-0.671
-182.071	-44.168	-0.267	0.173
-181.056	-104.178	-0.328	0.098
-180.042	-38.288	-0.201	-0.137
-179.027	-47.400	-0.312	0.195
-178.012	289.762	-0.174	-0.408
-176.998	-200.000	0.015	-0.144
-175.983	-28.873	0.244	-0.181
-174.969	-9.435	-0.058	-0.050
-173.954	245.860	-0.133	0.290
-172.939	25.647	0.319	0.343
-171.925	-152.630	-0.103	-0.009
-170.910	-80.364	-0.214	-0.092
-169.896	-77.804	0.454	-0.202
-168.881	-90.554	0.130	0.048
-167.866	-57.055	0.194	0.110
-166.852	167.037	-0.293	-0.538
-165.837	-200.000	-0.316	-0.002
-164.823	-129.518	0.324	-0.057
-163.808	800.000	0.041	-0.155
-162.793	800.000	0.140	-0.599
-161.779	251.097	0.017	-0.038
-160.764	-107.530	-0.437	-0.123
-159.750	731.011	0.176	-0.611
-158.735	800.000	0.017	-0.093
-157.720	-107.302	0.448	-0.126
-156.706	800.000	-0.074	-0.328
-155.691	-50.544	-0.351	-0.213
-154.677	-200.000	0.340	-0.001
-153.662	365.977	-0.211	-0.552
-152.647	696.824	-0.082	0.280
-151.633	33.424	0.154	0.172
-150.618	-130.435	0.611	-0.106
-149.604	87.371	-0.008	0.012
-148.589	-24.763	0.260	-0.199
-147.574	201.368	0.040	0.080
-146.560	124.871	0.422	0.687
-145.545	196.075	0.078	0.154
-144.531	-113.463	0.395	0.099
-143.516	-123.445	-0.541	0.110
-142.502	418.120	0.087	-0.240
-141.487	2.533	0.540	-0.504
-140.472	-10.501	-0.075	-0.064
-139.458	161.619	-0.315	-0.571
-138.443	800.000	0.077	0.298
-137.429	-200.000	-0.059	0.503
-136.414	113.019	-0.106	0.165
-135.399	345.238	-0.128	0.325
-134.385	202.541	-0.266	0.530
-133.370	-62.056	0.191	0.103
-132.356	-56.807	0.711	0.404
-131.341	114.752	0.326	0.513
-130.326	-83.020	0.404	-0.167
-129.312	-161.460	-0.371	0.024
-128.297	322.189	0.010	0.025
-127.283	-200.000	-0.038	-0.313
-126.268	173.682	-0.058	0.108
-125.253	166.331	-0.094	0.172
-124.239	-81.688	0.113	-0.048
-123.224	49.071	0.368	-0.445
-122.210	-147.501	0.551	-0.059
-121.195	-183.107	-0.373	-0.008
-120.180	458.244	0.109	-0.314
-119.166	62.456	0.034	0.044
-118.151	-112.792	0.563	-0.143
-117.137	52.131	0.256	-0.315
-116.122	-39.940	-0.474	-0.318
-115.107	418.092	0.215	0.596
-114.093	-101.946	-0.405	-0.125
-113.078	-0.474	-0.177	0.162
-112.064	-75.052	-0.372	0.171
-111.049	82.185	0.214	0.299
-110.034	211.187	0.074	0.150
-109.020	188.040	-0.105	0.202
-108.005	-23.581	0.511	0.394
-106.991	-123.624	0.423	0.086
-105.976	-200.000	0.022	-0.281
-104.962	-200.000	0.025	0.417
-103.947	-79.256	0.169	0.073
-102.932	-173.534	-0.591	-0.023
-101.918	75.874	-0.146	0.199
-100.903	800.000	0.085	-0.393
-99.889	76.935	0.260	0.356
-98.874	-200.000	-0.036	0.534
-97.859	-30.724	-0.329	0.239
-96.845	800.000	0.042	0.214
-95.830	-200.000	-0.065	0.616
-94.816	-45.988	0.077	-0.049
-93.801	-6.865	0.191	-0.167
-92.786	-124.636	-0.190	0.038
-91.772	-71.813	-0.384	-0.183
-90.757	444.455	0.124	-0.352
-89.743	-148.839	0.270	-0.028
-88.728	-91.360	-0.147	-0.054
-87.713	-104.623	-0.165	0.049
-86.699	481.184	0.124	-0.365
-85.684	-17.857	0.295	0.238
-84.670	54.938	0.140	-0.174
-83.655	277.787	-0.044	0.101
-82.640	-26.855	-0.175	0.131
-81.626	-124.526	0.399	0.079
-80.611	110.762	0.165	0.256
-79.597	67.708	-0.308	-0.405
-78.582	638.771	0.038	-0.124
-77.567	-100.272	0.353	-0.112
-76.553	302.999	0.176	0.422
-75.538	264.498	0.196	0.440
-74.524	27.885	-0.038	0.041
-73.509	33.909	-0.332	-0.372
-72.494	61.160	-0.187	-0.240
-71.480	800.000	0.058	-0.258
-70.465	-100.219	0.217	0.069
-69.451	-107.811	0.081	-0.022
-68.436	17.986	0.563	-0.576
-67.422	97.579	0.296	0.438
-66.407	-74.923	0.202	-0.093
-65.392	-200.000	-0.037	-0.248
-64.378	-52.446	-0.316	0.187
-63.363	-19.855	-0.311	0.247
-62.349	-200.000	0.008	-0.054
-61.334	36.237	-2.111	-2.392
-60.319	150.915	0.915	1.604
-59.305	273.523	-3.367	-7.680
-58.290	91.726	3.291	4.764
-57.276	425.332	3.804	10.579
-56.261	-200.000	21.636	299.508
-55.246	371.572	1277.796	3348.071
-54.232	54.426	2843.946	3523.281
-53.217	53.842	2666.532	3294.382
-52.203	32.666	2399.497	2667.219
-51.188	30.121	2068.358	2267.791
-50.173	26.030	1955.462	2096.245
-49.159	24.822	1944.817	2070.710
-48.144	24.490	1939.655	2061.285
-47.130	24.295	1938.254	2057.449
-46.115	24.276	1936.074	2054.835
-45.100	24.159	1935.222	2052.497
-44.086	24.179	1933.101	2050.396
-43.071	24.213	1931.772	2049.291
-42.057	24.203	1929.938	2047.148
-41.042	24.300	1927.897	2046.024
-40.027	24.257	1927.489	2045.017
-39.013	24.222	1925.359	2042.274
-37.998	24.169	1923.695	2039.809
-36.984	24.237	1922.839	2039.608
-35.969	24.262	1921.215	2038.088
-34.954	24.093	1920.517	2035.333
-33.940	24.074	1919.780	2034.253
-32.925	24.132	1917.769	2032.702
-31.911	24.215	1916.004	2031.700
-30.896	23.970	1915.393	2028.169
-29.881	24.017	1913.391	2026.499
-28.867	24.141	1911.837	2026.197
-27.852	23.966	1911.283	2023.527
-26.838	24.005	1909.436	2021.936
-25.823	24.030	1908.090	2020.713
-24.809	23.971	1907.179	2018.999
-23.794	24.015	1905.690	2017.842
-22.779	24.081	1904.179	2016.917
-21.765	23.955	1903.591	2014.781
-20.750	23.867	1902.944	2013.008
-19.736	23.980	1900.807	2011.960
-18.721	24.032	1898.455	2009.973
-17.706	23.921	1897.882	2008.026
-16.692	23.907	1896.715	2006.558
-15.677	23.891	1896.051	2005.592
-14.663	23.865	1894.925	2004.034
-13.648	23.927	1893.516	2003.163
-12.633	23.938	1891.912	2001.515
-11.619	23.983	1890.332	2000.268
-10.604	23.804	1889.585	1997.379
-9.590	23.896	1888.837	1997.546
-8.575	23.859	1886.669	1994.750
-7.560	23.935	1886.366	1995.207
-6.546	23.921	1884.811	1993.333
-5.531	23.939	1883.520	1992.086
-4.517	23.943	1882.108	1990.557
-3.502	23.911	1882.176	1990.197
-2.487	23.890	1880.573	1988.179
-1.473	24.094	1876.316	1985.895
-0.458	24.275	1859.933	1970.486
0.556	21.713	2008.552	2084.900
1.571	20.861	2216.919	2289.649
2.586	21.825	2257.701	2344.460
3.600	21.928	2260.006	2347.961
4.615	21.863	2259.427	2346.204
5.629	21.884	2258.101	2344.826
6.644	21.854	2256.017	2341.979
7.659	21.758	2254.821	2339.164
8.673	21.989	2251.711	2338.757
9.688	21.846	2259.962	2345.116
10.702	20.747	2339.826	2412.404
11.717	19.084	2405.481	2455.968
12.731	9.508	2380.495	2293.626
13.746	1.518	2358.800	2158.743
14.761	0.320	2354.749	2137.701
15.775	0.192	2354.113	2135.046
16.790	0.142	2352.178	2132.329
17.804	0.124	2350.600	2130.383
18.819	0.103	2349.990	2129.273
19.834	0.152	2347.499	2127.458
20.848	0.159	2347.231	2127.065
21.863	0.107	2344.378	2123.480
22.877	0.016	2342.844	2120.552
23.892	0.195	2340.128	2120.371
24.907	0.077	2338.332	2116.828
25.921	-0.041	2336.918	2113.630
26.936	0.145	2333.799	2113.177
27.950	0.081	2331.047	2109.532
28.965	0.068	2329.703	2107.880
29.980	0.105	2327.552	2106.203
30.994	0.122	2326.267	2105.020
32.009	4.885	2340.878	2185.266
33.023	16.350	2375.692	2380.763
34.038	21.543	2385.962	2464.472
35.053	22.270	2384.721	2473.179
36.067	22.039	2380.669	2465.420
37.082	21.354	2377.210	2451.892
38.096	21.366	2374.995	2449.472
39.111	21.646	2373.471	2451.557
40.126	22.272	2373.272	2459.865
41.140	22.817	2372.557	2466.484
42.155	22.552	2370.477	2460.297
43.169	22.531	2368.450	2457.605
44.184	22.766	2367.336	2459.453
45.199	22.900	2365.241	2458.857
46.213	22.446	2362.511	2449.377
47.228	22.227	2361.059	2444.522
48.242	22.620	2360.410	2449.046
49.257	22.754	2358.741	2448.894
50.271	22.662	2354.695	2443.120
51.286	22.545	2352.741	2439.161
52.301	22.713	2353.376	2441.868
53.315	22.588	2350.694	2437.062
54.330	22.086	2346.351	2425.301
55.344	21.689	2343.812	2416.879
56.359	21.639	2339.777	2411.737
57.374	21.502	2338.308	2408.034
58.388	21.621	2335.891	2406.905
59.403	21.801	2333.602	2406.747
60.417	21.849	2331.145	2404.587
61.432	22.041	2329.282	2405.015
62.447	21.997	2328.054	2402.853
63.461	22.049	2325.609	2400.763
64.476	22.132	2323.746	2399.691
65.490	22.257	2323.426	2400.785
66.505	22.466	2323.373	2403.306
67.520	22.800	2322.150	2406.336
68.534	22.780	2320.782	2404.362
69.549	23.175	2318.130	2406.725
70.563	23.136	2316.166	2403.865
71.578	23.239	2314.508	2403.265
72.593	23.098	2311.854	2398.301
73.607	23.060	2310.698	2396.285
74.622	23.382	2309.413	2399.055
75.636	23.301	2306.677	2394.820
76.651	23.276	2304.144	2391.564
77.666	23.206	2302.501	2388.630
78.680	23.481	2300.520	2390.009
79.695	23.576	2299.885	2390.359
80.709	23.774	2298.417	2391.214
81.724	23.729	2296.372	2388.194
82.739	23.459	2292.995	2380.750
83.753	23.427	2291.461	2378.451
84.768	23.650	2290.824	2380.511
85.782	23.674	2290.121	2379.814
86.797	23.748	2286.771	2377.039
87.812	23.407	2284.493	2369.813
88.826	23.508	2283.490	2369.838
89.841	23.696	2281.094	2369.596
90.855	23.721	2279.239	2367.721
91.870	23.518	2276.960	2362.348
92.884	23.584	2275.078	2360.996
93.899	23.486	2273.650	2357.917
94.914	23.251	2272.679	2353.492
95.928	22.563	2270.161	2341.422
96.943	22.129	2267.001	2332.087
97.957	22.720	2267.316	2340.019
98.972	23.313	2265.923	2346.198
99.987	23.028	2263.023	2339.126
101.001	23.224	2260.505	2338.849
102.016	23.401	2258.311	2338.640
103.030	23.220	2254.967	2332.503
104.045	23.106	2252.154	2327.814
105.060	23.189	2250.714	2327.138
106.074	23.188	2248.907	2324.975
107.089	22.822	2247.433	2318.351
108.103	23.063	2246.744	2320.541
109.118	23.122	2245.995	2320.260
110.133	23.232	2244.254	2319.637
111.147	23.426	2242.670	2320.267
112.162	23.893	2241.713	2325.139
113.176	23.530	2237.248	2315.474
114.191	23.009	2235.164	2306.213
115.206	22.852	2233.801	2302.475
116.220	22.873	2231.466	2300.067
117.235	22.873	2229.089	2297.333
118.249	22.903	2226.896	2295.192
119.264	23.074	2226.791	2297.038
120.279	23.437	2225.670	2300.343
121.293	23.258	2223.668	2295.666
122.308	23.219	2221.495	2292.640
123.322	23.211	2221.262	2292.021
124.337	23.040	2219.303	2287.511
125.352	22.632	2216.845	2279.395
126.366	22.547	2215.748	2276.897
127.381	22.906	2212.951	2278.403
128.395	22.847	2209.337	2273.647
129.410	22.855	2208.813	2272.935
130.424	23.037	2207.355	2273.520
131.439	22.903	2205.083	2269.173
132.454	22.911	2203.777	2267.664
133.468	22.846	2200.770	2263.460
134.483	22.675	2198.686	2258.843
135.497	22.545	2196.831	2254.995
136.512	22.530	2195.989	2253.665
137.527	22.704	2193.970	2253.561
138.541	22.942	2192.150	2254.475
139.556	22.669	2191.702	2250.243
140.570	22.793	2190.147	2249.972
141.585	23.033	2188.996	2251.584
142.600	22.981	2187.799	2249.421
143.614	22.883	2184.780	2244.795
144.629	22.912	2184.598	2244.706
145.643	22.856	2182.854	2241.931
146.658	23.131	2180.795	2243.056
147.673	23.232	2179.182	2242.418
148.687	23.461	2178.683	2244.549
149.702	23.932	2177.663	2249.212
150.716	23.879	2177.070	2247.660
151.731	23.873	2176.329	2246.552
152.746	23.639	2174.295	2241.219
153.760	22.952	2171.892	2229.760
154.775	22.207	2170.393	2218.499
155.789	21.802	2166.835	2209.478
156.804	22.443	2164.058	2214.486
157.819	22.993	2163.410	2220.501
158.833	23.283	2160.804	2221.214
159.848	23.406	2159.642	2221.313
160.862	23.482	2159.036	2221.377
161.877	23.574	2156.547	2219.711
162.892	23.444	2155.385	2216.611
163.906	23.520	2155.283	2217.195
164.921	23.437	2151.914	2212.422
165.935	23.235	2149.336	2206.976
166.950	23.149	2147.565	2203.824
167.964	22.945	2144.374	2197.728
168.979	22.838	2142.650	2194.363
169.994	23.066	2142.564	2196.862
171.008	23.137	2140.961	2195.840
172.023	23.383	2140.599	2198.280
173.037	23.560	2138.179	2197.729
174.052	23.325	2135.347	2191.632
175.067	22.909	2134.247	2185.074
176.081	22.959	2133.536	2184.697
177.096	22.962	2131.673	2182.568
178.110	22.745	2129.458	2177.355
179.125	22.967	2128.100	2178.448
180.140	23.364	2127.800	2182.801
181.154	23.375	2125.833	2180.654
182.169	22.832	2123.630	2171.423
183.183	22.420	2122.331	2164.745
184.198	22.050	2119.525	2157.056
185.213	22.141	2117.854	2156.216
186.227	22.836	2118.363	2165.055
187.242	22.998	2116.698	2165.092
188.256	22.965	2116.558	2164.282
189.271	23.353	2115.396	2167.605
190.286	23.473	2113.020	2166.385
191.300	22.972	2109.877	2156.755
192.315	22.901	2106.558	2152.239
193.329	22.871	2106.646	2151.697
194.344	23.029	2106.099	2152.813
195.359	22.974	2105.226	2150.997
196.373	23.050	2102.653	2149.040
197.388	23.179	2100.562	2148.223
198.402	23.146	2099.200	2146.162
199.417	23.182	2096.602	2143.686
200.432	23.269	2095.167	2143.025
201.446	23.342	2094.384	2142.857
202.461	23.533	2092.130	2142.616
203.475	23.440	2090.597	2139.663
204.490	23.414	2088.888	2137.335
205.504	23.313	2086.483	2133.394
206.519	23.158	2083.656	2128.384
207.534	22.995	2081.971	2124.433
208.548	23.225	2081.468	2126.448
209.563	23.506	2080.628	2128.715
210.577	23.161	2079.145	2122.783
211.592	23.080	2078.147	2120.540
212.607	22.907	2076.147	2116.162
213.621	22.161	2073.145	2103.871
214.636	22.022	2072.300	2101.092
215.650	22.648	2072.247	2108.317
216.665	22.971	2070.385	2110.045
217.680	23.213	2069.506	2111.805
218.694	23.751	2069.220	2117.705
219.709	24.052	2068.885	2120.714
220.723	24.031	2066.404	2117.670
221.738	23.489	2063.431	2107.886
222.753	23.272	2061.105	2102.675
223.767	23.064	2059.976	2098.784
224.782	22.939	2056.527	2093.529
225.796	23.061	2054.770	2092.946
226.811	23.267	2053.766	2094.124
227.826	23.129	2053.212	2091.662
228.840	23.208	2050.827	2089.919
229.855	23.151	2050.232	2088.391
230.869	23.266	2048.998	2088.247
231.884	23.238	2046.753	2085.373
232.899	22.881	2044.183	2078.289
233.913	22.811	2043.200	2076.212
234.928	22.817	2041.985	2074.803
235.942	23.068	2040.187	2075.690
236.957	22.986	2038.806	2073.064
237.972	22.951	2038.384	2071.972
238.986	23.121	2037.403	2072.733
240.001	23.033	2035.725	2069.749
241.015	22.965	2034.135	2067.081
242.030	22.975	2032.130	2064.910
243.045	22.401	2029.164	2054.917
244.059	22.156	2028.076	2050.695
245.074	22.661	2026.276	2054.547
246.088	22.803	2024.417	2054.081
247.103	22.938	2022.949	2053.923
248.117	22.861	2022.658	2052.476
249.132	23.199	2020.760	2054.254
250.147	22.971	2018.857	2049.416
251.161	22.741	2016.663	2044.258
252.176	22.997	2015.537	2045.852
253.190	23.187	2013.891	2046.149
254.205	23.252	2011.855	2044.586
255.220	23.397	2011.223	2045.389
256.234	23.422	2010.436	2044.630
257.249	23.398	2009.319	2042.967
258.263	23.235	2008.072	2039.566
259.278	23.253	2006.001	2037.436
260.293	22.931	2004.879	2032.330
261.307	23.001	2003.057	2031.048
262.322	23.028	2001.353	2029.389
263.336	23.032	1999.203	2027.002
264.351	23.174	1997.942	2027.125
265.366	23.336	1995.730	2026.492
266.380	23.351	1995.171	2025.861
267.395	23.235	1994.095	2023.186
268.409	23.063	1992.531	2019.389
269.424	23.335	1992.108	2021.844
270.439	23.560	1990.508	2022.548
271.453	23.188	1987.259	2014.757
272.468	22.115	1983.835	1998.771
273.482	22.077	1983.050	1997.307
274.497	22.848	1982.739	2005.572
275.512	23.393	1980.407	2009.185
276.526	23.372	1978.046	2006.302
277.541	23.382	1976.359	2004.463
278.555	23.572	1974.723	2004.732
279.570	23.220	1972.706	1998.449
280.585	22.955	1971.937	1994.417
281.599	23.006	1970.816	1993.622
282.614	23.153	1969.152	1993.371
283.628	23.042	1967.760	1990.469
284.643	22.793	1965.531	1985.160
285.657	22.729	1965.585	1984.250
286.672	22.825	1963.298	1982.784
287.687	22.665	1960.960	1978.386
288.701	22.630	1959.995	1976.777
289.716	22.581	1958.755	1974.738
290.730	22.422	1956.022	1969.966
291.745	22.420	1955.196	1968.868
292.760	22.737	1954.928	1971.928
293.774	22.807	1953.932	1971.471
294.789	22.914	1952.921	1971.421
295.803	22.931	1950.384	1968.809
296.818	23.277	1949.157	1971.214
297.833	23.326	1948.802	1971.166
298.847	23.057	1947.845	1966.954
299.862	22.952	1945.415	1963.085
300.876	22.762	1943.019	1958.317
301.891	22.272	1940.336	1949.924
302.906	22.485	1939.946	1951.666
303.920	23.155	1939.467	1958.413
304.935	22.887	1937.928	1953.639
305.949	22.745	1935.618	1949.500
306.964	22.853	1934.632	1949.470
307.979	23.141	1932.746	1950.528
308.993	22.864	1930.836	1945.301
310.008	23.067	1929.134	1945.606
311.022	23.195	1928.193	1945.835
312.037	22.953	1926.262	1940.986
313.052	22.827	1922.769	1935.844
314.066	22.607	1921.768	1932.177
315.081	22.533	1921.922	1931.282
316.095	22.525	1919.310	1928.338
317.110	22.326	1917.986	1924.592
318.125	22.671	1917.781	1927.949
319.139	23.156	1916.983	1932.238
320.154	23.191	1914.924	1930.317
321.168	23.389	1915.060	1932.395
322.183	23.391	1912.532	1929.639
323.197	23.171	1912.245	1926.703
324.212	23.200	1908.900	1923.418
325.227	23.010	1908.413	1920.624
326.241	23.261	1906.351	1921.060
327.256	23.510	1905.168	1922.345
328.270	23.538	1904.867	1922.118
329.285	23.464	1904.420	1920.634
330.300	23.192	1903.154	1916.170
331.314	22.361	1899.690	1903.423
332.329	22.059	1897.344	1897.567
333.343	22.699	1897.291	1904.225
334.358	23.433	1896.846	1911.513
335.373	23.688	1894.823	1912.009
336.387	23.453	1893.070	1907.468
337.402	23.674	1890.735	1907.275
338.416	23.392	1889.827	1903.080
339.431	23.554	1887.990	1902.760
340.446	23.589	1886.513	1901.421
341.460	23.424	1885.360	1898.245
342.475	23.381	1883.503	1895.690
343.489	23.388	1881.726	1893.747
344.504	23.361	1881.170	1892.674
345.519	23.015	1878.593	1886.146
346.533	22.781	1877.027	1881.837
347.548	22.974	1875.168	1881.813
348.562	23.068	1874.155	1881.582
349.577	22.803	1872.885	1877.244
350.592	22.642	1871.556	1873.970
351.606	22.805	1870.002	1873.929
352.621	22.952	1868.641	1873.911
353.635	22.713	1867.734	1870.234
354.650	22.660	1866.210	1867.911
355.665	22.894	1864.811	1868.781
356.679	22.930	1864.008	1868.134
357.694	23.039	1862.486	1867.537
358.708	23.145	1861.585	1867.542
359.723	22.980	1859.502	1863.473
360.738	22.305	1857.374	1853.972
361.752	22.295	1857.230	1853.500
362.767	22.836	1855.676	1857.455
363.781	23.115	1853.041	1857.536
364.796	23.407	1853.554	1860.907
365.810	23.616	1853.162	1862.495
366.825	23.383	1850.482	1857.128
367.840	23.402	1849.601	1856.229
368.854	23.206	1849.406	1853.741
369.869	23.140	1847.330	1850.742
370.883	23.151	1844.613	1847.914
371.898	23.217	1843.845	1847.622
372.913	23.317	1843.220	1847.819
373.927	23.409	1843.171	1848.514
374.942	23.573	1841.774	1848.616
375.956	23.610	1840.277	1847.271
376.971	23.659	1837.129	1844.405
377.986	23.148	1835.495	1837.209
379.000	23.292	1834.801	1837.800
380.015	23.784	1832.535	1840.430
381.029	23.779	1831.258	1838.880
382.044	23.636	1830.380	1836.294
383.059	23.756	1828.342	1835.267
384.073	23.465	1827.072	1830.758
385.088	23.180	1825.327	1825.838
386.102	23.131	1823.964	1823.747
387.117	23.066	1821.501	1820.391
388.132	22.987	1820.836	1818.688
389.146	22.895	1821.119	1817.799
390.161	22.291	1817.722	1807.960
391.175	22.477	1815.172	1807.128
392.190	23.149	1813.474	1812.133
393.205	22.849	1811.457	1806.820
394.219	23.049	1810.403	1807.606
395.234	23.172	1809.269	1807.518
396.248	23.134	1808.388	1806.035
397.263	23.050	1804.814	1801.388
398.278	22.800	1802.565	1796.375
399.292	22.868	1801.430	1795.719
400.307	23.085	1802.165	1798.457
401.321	23.179	1800.379	1797.424
402.336	22.997	1799.054	1794.027
403.350	23.119	1797.492	1793.499
404.365	23.473	1797.320	1796.713
405.380	23.713	1796.379	1797.998
406.394	23.772	1794.934	1796.941
407.409	23.599	1793.192	1793.220
408.423	23.308	1791.476	1788.344
409.438	22.991	1789.418	1782.855
410.453	23.125	1788.718	1783.304
411.467	23.209	1786.985	1782.219
412.482	22.922	1786.559	1778.670
413.496	23.060	1784.809	1778.114
414.511	23.079	1782.813	1776.105
415.526	22.762	1780.696	1770.583
416.540	22.883	1779.745	1770.648
417.555	23.108	1778.718	1771.682
418.569	22.949	1778.190	1769.346
419.584	23.095	1777.569	1769.980
420.599	23.606	1778.709	1776.049
421.613	23.807	1778.006	1777.148
422.628	24.091	1776.756	1778.541
423.642	23.986	1774.647	1775.166
424.657	23.600	1772.568	1769.002
425.672	23.594	1770.994	1767.166
426.686	23.431	1769.410	1763.737
427.701	22.961	1767.280	1756.705
428.715	22.979	1765.787	1755.194
429.730	23.306	1763.871	1756.345
430.745	23.259	1762.877	1754.677
431.759	22.666	1762.002	1747.688
432.774	22.242	1759.988	1741.256
433.788	21.827	1757.381	1734.349
434.803	21.509	1756.524	1730.135
435.818	21.495	1755.950	1729.225
436.832	21.700	1755.034	1730.145
437.847	20.453	1747.492	1710.171
438.861	11.378	1722.273	1596.403
439.876	2.025	1705.921	1489.605
440.890	0.421	1702.091	1470.379
441.905	0.283	1700.651	1467.607
442.920	0.175	1699.248	1465.157
443.934	0.239	1697.118	1463.773
444.949	0.112	1696.189	1461.553
445.963	0.084	1696.291	1461.194
446.978	0.204	1695.174	1461.230
447.993	0.225	1693.422	1459.748
449.007	0.169	1691.478	1457.356
450.022	0.162	1690.203	1456.012
451.036	0.281	1687.992	1455.087
452.051	0.741	1691.049	1462.024
453.066	8.263	1709.806	1551.792
454.080	18.069	1725.542	1662.185
455.095	20.531	1730.155	1690.527
456.109	20.887	1729.387	1693.055
457.124	20.733	1728.722	1690.700
458.139	20.868	1727.578	1690.694
459.153	20.917	1726.769	1690.172
460.168	20.892	1724.650	1687.655
461.182	21.120	1722.992	1688.049
462.197	21.026	1722.601	1686.553
463.212	21.106	1721.491	1686.039
464.226	21.444	1719.126	1686.792
465.241	21.275	1717.868	1683.726
466.255	21.123	1716.041	1680.264
467.270	21.131	1715.129	1679.242
468.285	21.116	1714.893	1678.669
469.299	21.159	1712.847	1676.874
470.314	21.033	1710.932	1673.582
471.328	21.022	1709.292	1671.672
472.343	20.953	1709.039	1670.564
473.358	20.977	1706.923	1668.527
474.372	20.799	1705.713	1665.428
475.387	20.965	1704.429	1665.570
476.401	20.877	1702.493	1662.638
477.416	20.529	1701.879	1658.503
478.430	20.560	1700.120	1656.883
479.445	20.770	1699.221	1657.823
480.460	20.967	1698.286	1658.595
481.474	20.866	1697.426	1656.594
482.489	20.758	1695.630	1653.612
483.503	20.575	1693.538	1649.625
484.518	20.634	1692.006	1648.503
485.533	20.586	1690.358	1646.238
486.547	20.408	1688.583	1642.623
487.562	20.123	1687.442	1638.613
488.576	20.172	1686.226	1637.694
489.591	20.341	1685.194	1638.100
490.606	20.616	1683.558	1638.919
491.620	20.626	1682.336	1637.626
492.635	20.388	1680.644	1633.532
493.649	20.196	1679.634	1630.548
494.664	20.604	1679.083	1633.667
495.679	20.978	1678.099	1636.047
496.693	21.010	1676.252	1634.348
497.708	20.738	1676.235	1631.573
498.722	20.499	1674.871	1627.798
499.737	20.702	1672.239	1626.958
500.752	20.866	1671.635	1627.715
501.766	20.970	1670.570	1627.459
502.781	20.882	1668.543	1624.463
503.795	20.933	1667.101	1623.337
504.810	21.123	1666.269	1624.120
505.825	20.893	1665.065	1620.594
506.839	20.868	1664.255	1619.382
507.854	20.782	1662.824	1616.997
508.868	20.771	1660.617	1614.548
509.883	20.566	1660.409	1612.240
510.898	20.463	1659.060	1609.782
511.912	20.634	1656.973	1609.151
512.927	20.769	1654.891	1608.194
513.941	20.593	1654.847	1606.323
514.956	20.802	1653.286	1606.555
515.971	20.598	1651.791	1603.016
516.985	20.719	1650.112	1602.320
518.000	20.558	1649.962	1600.488
519.014	20.389	1648.024	1596.858
520.029	20.167	1646.561	1593.202
521.043	20.346	1644.777	1592.931
522.058	20.573	1643.937	1594.023
523.073	20.510	1642.917	1592.263
524.087	20.225	1641.417	1587.996
525.102	20.474	1640.071	1588.795
526.116	20.936	1640.069	1592.845
527.131	20.960	1639.119	1591.953
528.146	20.730	1637.700	1588.273
529.160	20.591	1636.066	1585.221
530.175	20.414	1635.397	1582.769
531.189	20.417	1633.823	1581.077
532.204	20.220	1632.142	1577.462
533.219	20.417	1630.940	1577.911
534.233	20.592	1630.170	1578.571
535.248	20.427	1629.394	1576.130
536.262	20.140	1627.303	1571.308
537.277	20.027	1626.414	1569.232
538.292	20.145	1624.555	1568.318
539.306	20.103	1622.997	1566.251
540.321	20.061	1621.431	1564.168
541.335	20.080	1620.264	1563.025
542.350	20.096	1618.151	1560.946
543.365	20.114	1616.769	1559.591
544.379	20.036	1615.716	1557.680
545.394	20.032	1614.061	1555.859
546.408	20.175	1614.778	1557.658
547.423	20.538	1614.314	1560.303
548.438	20.658	1612.560	1559.501
549.452	20.463	1610.679	1555.736
550.467	20.491	1609.177	1554.353
551.481	20.431	1608.733	1553.199
552.496	20.349	1607.129	1550.729
553.511	20.094	1606.104	1547.270
554.525	20.012	1605.221	1545.492
555.540	20.055	1604.053	1544.571
556.554	20.157	1602.897	1544.188
557.569	20.127	1601.933	1542.801
558.583	20.350	1600.386	1543.127
559.598	20.381	1598.824	1541.710
560.613	20.344	1598.083	1540.484
561.627	20.230	1595.640	1536.927
562.642	20.071	1594.385	1534.120
563.656	19.892	1592.115	1530.160
564.671	19.791	1591.612	1528.592
565.686	19.798	1590.822	1527.713
566.700	19.916	1589.282	1527.100
567.715	20.025	1588.091	1526.743
568.729	20.138	1586.700	1526.216
569.744	20.028	1585.292	1523.714
570.759	20.094	1584.068	1522.936
571.773	20.089	1582.919	1521.603
572.788	19.938	1581.810	1519.026
573.802	19.905	1579.981	1516.793
574.817	19.814	1578.588	1514.476
575.832	19.638	1576.691	1510.925
576.846	19.737	1576.623	1511.546
577.861	20.096	1575.489	1513.433
578.875	20.099	1574.941	1512.753
579.890	19.958	1573.859	1510.292
580.905	19.826	1572.521	1507.678
581.919	19.831	1572.071	1507.103
582.934	19.852	1570.234	1505.349
583.948	19.769	1569.453	1503.698
584.963	19.710	1568.863	1502.434
585.978	19.914	1566.760	1502.020
586.992	19.968	1565.231	1500.844
588.007	19.638	1565.005	1497.576
589.021	19.701	1563.994	1496.975
590.036	19.892	1562.061	1496.605
591.051	19.586	1561.399	1493.136
592.065	19.665	1558.510	1490.875
593.080	19.690	1557.061	1489.525
594.094	19.664	1555.936	1488.049
595.109	20.042	1555.578	1490.802
596.123	20.226	1554.279	1490.968
597.138	20.130	1552.582	1488.329
598.153	19.924	1551.265	1485.113
599.167	19.868	1550.289	1483.520
600.182	19.949	1548.703	1482.525
601.196	19.789	1549.265	1481.505
602.211	19.821	1547.304	1479.727
603.226	19.749	1545.456	1477.164
604.240	19.691	1543.998	1475.094
605.255	19.575	1542.741	1472.727
606.269	19.595	1542.850	1472.820
607.284	19.727	1541.042	1472.047
608.299	19.755	1539.923	1471.047
609.313	19.858	1538.845	1470.721
610.328	19.838	1536.988	1468.602
611.342	19.780	1535.537	1466.542
612.357	19.639	1534.612	1464.278
613.372	19.648	1533.508	1463.128
614.386	19.617	1532.787	1461.999
615.401	19.592	1531.977	1460.844
616.415	19.446	1530.771	1458.277
617.430	19.468	1529.573	1457.145
618.445	19.445	1528.205	1455.478
619.459	19.596	1526.574	1455.031
620.474	19.716	1526.401	1455.702
621.488	19.808	1526.238	1456.156
622.503	19.819	1525.191	1455.071
623.518	19.521	1523.475	1450.743
624.532	19.254	1522.178	1447.080
625.547	19.365	1520.300	1446.058
626.561	19.242	1518.985	1443.601
627.576	19.120	1517.979	1441.442
628.591	19.352	1517.828	1443.083
629.605	19.546	1516.282	1443.067
630.620	19.693	1514.746	1442.666
631.634	19.722	1514.427	1442.430
632.649	19.631	1513.513	1440.628
633.663	19.508	1511.296	1437.315
634.678	19.402	1509.625	1434.667
635.693	19.169	1507.874	1430.887
636.707	19.283	1506.136	1430.013
637.722	19.259	1505.486	1429.023
638.736	19.277	1505.088	1428.630
639.751	19.370	1503.505	1427.727
640.766	19.412	1502.037	1426.511
641.780	19.424	1501.213	1425.659
642.795	19.530	1500.210	1425.415
643.809	19.612	1499.564	1425.316
644.824	19.541	1499.169	1424.180
645.839	19.574	1498.551	1423.695
646.853	19.406	1497.178	1420.830
647.868	19.425	1495.632	1419.351
648.882	19.523	1494.386	1418.803
649.897	19.621	1493.254	1418.372
650.912	19.566	1491.363	1415.948
651.926	19.458	1490.385	1413.958
652.941	19.312	1489.876	1412.107
653.955	19.503	1487.861	1411.596
654.970	19.707	1486.716	1412.018
655.985	19.599	1485.625	1409.930
656.999	19.599	1483.070	1407.336
658.014	19.396	1482.388	1404.860
659.028	19.283	1481.757	1403.170
660.043	19.467	1480.447	1403.263
661.058	19.431	1479.258	1401.675
662.072	19.365	1478.570	1400.319
663.087	19.517	1477.896	1400.747
664.101	19.402	1476.771	1398.573
665.116	19.570	1474.952	1398.054
666.131	19.463	1474.414	1396.509
667.145	19.595	1473.194	1396.258
668.160	19.357	1471.762	1392.797
669.174	19.381	1469.865	1391.031
670.189	19.357	1469.227	1390.072
671.204	19.456	1468.475	1389.995
672.218	19.632	1466.862	1389.722
673.233	19.446	1466.100	1387.330
674.247	19.394	1464.502	1385.237
675.262	19.214	1463.610	1382.768
676.276	19.090	1463.303	1381.313
677.291	19.393	1462.112	1382.468
678.306	19.342	1461.587	1381.396
679.320	19.434	1459.712	1380.200
680.335	19.353	1458.934	1378.645
681.349	19.427	1458.595	1378.754
682.364	19.377	1456.913	1376.597
683.379	19.338	1455.140	1374.445
684.393	19.311	1453.536	1372.546
685.408	19.171	1452.191	1369.997
686.422	19.258	1451.167	1369.564
687.437	19.320	1450.320	1369.094
688.452	18.914	1450.206	1365.582
689.466	19.036	1448.452	1364.739
690.481	19.011	1447.474	1363.456
691.495	18.987	1446.765	1362.433
692.510	19.328	1446.184	1364.431
693.525	19.578	1444.041	1364.237
694.539	19.137	1443.538	1360.095
695.554	18.997	1442.770	1358.099
696.568	19.060	1441.113	1356.873
697.583	18.822	1441.047	1354.761
698.598	18.910	1439.837	1354.163
699.612	18.931	1438.433	1352.845
700.627	19.096	1436.826	1352.477
701.641	19.224	1435.911	1352.461
702.656	19.272	1434.957	1351.784
703.671	19.071	1434.380	1349.487
704.685	19.164	1434.088	1349.786
705.700	19.134	1432.788	1348.169
706.714	19.254	1431.139	1347.394
707.729	19.378	1429.948	1347.084
708.744	19.214	1428.472	1344.247
709.758	19.128	1427.093	1342.118
710.773	19.208	1427.149	1342.637
711.787	19.359	1425.182	1341.808
712.802	19.310	1422.987	1339.194
713.816	19.247	1423.216	1338.762
714.831	19.190	1421.956	1336.971
715.846	19.376	1420.312	1336.711
716.860	19.255	1418.975	1334.352
717.875	19.274	1417.889	1333.315
718.889	19.338	1417.197	1333.003
719.904	19.311	1416.413	1331.902
720.919	19.241	1414.669	1329.561
721.933	19.099	1414.269	1327.920
722.948	19.115	1413.240	1326.918
723.962	19.193	1411.841	1326.053
724.977	19.127	1410.601	1324.218
725.992	19.124	1410.069	1323.536
727.006	19.134	1408.472	1321.957
728.021	19.103	1407.074	1320.246
729.035	19.145	1406.214	1319.602
730.050	19.126	1404.942	1318.111
731.065	19.223	1403.632	1317.469
732.079	19.112	1403.068	1315.927
733.094	19.182	1402.290	1315.577
734.108	19.214	1400.644	1314.117
735.123	19.232	1399.100	1312.653
736.138	19.165	1398.423	1311.344
737.152	19.122	1396.985	1309.515
738.167	19.023	1396.516	1308.157
739.181	19.174	1395.279	1307.997
740.196	19.024	1395.033	1306.464
741.211	18.880	1394.501	1304.711
742.225	19.153	1392.745	1304.994
743.240	19.095	1390.910	1302.674
744.254	19.078	1389.405	1300.981
745.269	18.966	1388.969	1299.568
746.284	18.968	1388.150	1298.661
747.298	18.913	1387.025	1297.037
748.313	19.125	1385.609	1297.161
749.327	19.002	1385.827	1296.282
750.342	19.299	1385.173	1297.758
751.356	19.421	1383.963	1297.395
752.371	19.393	1382.457	1295.616
753.386	19.032	1380.788	1291.171
754.400	19.069	1379.496	1290.091
755.415	19.149	1378.710	1289.803
756.429	19.138	1377.308	1288.256
757.444	19.014	1376.644	1286.547
758.459	18.935	1376.134	1285.319
759.473	18.946	1375.121	1284.307
760.488	18.991	1373.678	1283.141
761.502	19.163	1371.757	1282.477
762.517	19.214	1370.871	1281.882
763.532	19.066	1369.391	1279.233
764.546	19.179	1368.501	1279.092
765.561	19.090	1368.088	1277.892
766.575	19.309	1368.081	1279.364
767.590	19.390	1366.368	1278.218
768.605	19.228	1365.020	1275.597
769.619	19.227	1363.139	1273.674
770.634	19.161	1362.284	1272.236
771.648	19.122	1361.287	1270.860
772.663	19.040	1361.033	1269.863
773.678	19.090	1359.527	1268.678
774.692	19.137	1358.583	1267.995
775.707	19.056	1358.612	1267.267
776.721	18.997	1357.369	1265.526
777.736	19.079	1355.888	1264.597
778.751	19.040	1355.289	1263.597
779.765	18.856	1355.146	1261.952
780.780	18.850	1353.954	1260.652
781.794	19.029	1352.647	1260.601
782.809	18.923	1351.694	1258.783
783.824	18.875	1350.438	1257.112
784.838	19.003	1349.383	1256.915
785.853	19.004	1348.184	1255.653
786.867	18.907	1347.512	1254.172
787.882	18.795	1346.992	1252.716
788.897	18.816	1346.290	1252.061
789.911	18.872	1345.126	1251.242
790.926	18.795	1343.618	1249.124
791.940	18.789	1342.505	1247.897
792.955	18.861	1340.894	1246.779
793.969	18.974	1339.336	1246.004
794.984	18.752	1338.888	1243.819
795.999	18.897	1337.783	1243.703
797.013	18.951	1336.358	1242.614
798.028	18.799	1335.789	1240.835
799.042	18.838	1335.130	1240.360
800.057	18.867	1333.852	1239.233
801.072	18.938	1331.999	1237.880
802.086	18.820	1330.812	1235.773
803.101	18.953	1330.456	1236.257
804.115	19.078	1328.991	1235.649
805.130	18.941	1328.430	1233.989
806.145	18.920	1327.110	1232.464
807.159	19.070	1325.207	1231.633
808.174	19.057	1324.275	1230.522
809.188	19.103	1323.511	1229.994
810.203	19.041	1322.025	1228.021
811.218	18.982	1320.539	1226.074
812.232	19.167	1319.067	1225.887
813.247	19.135	1318.470	1224.954
814.261	19.083	1318.238	1224.217
815.276	19.099	1316.366	1222.447
816.291	19.031	1315.117	1220.657
817.305	19.117	1314.267	1220.333
818.320	18.982	1312.843	1217.909
819.334	18.992	1311.369	1216.466
820.349	19.026	1309.807	1215.111
821.364	19.028	1308.607	1213.868
822.378	19.030	1307.403	1212.620
823.393	18.879	1306.044	1210.142
824.407	18.908	1304.887	1209.131
825.422	18.882	1304.805	1208.726
826.437	18.856	1304.088	1207.732
827.451	18.835	1301.775	1205.303
828.466	18.922	1300.665	1204.743
829.480	18.989	1299.571	1204.053
830.495	18.891	1297.767	1201.550
831.509	18.867	1296.305	1199.888
832.524	19.008	1295.570	1200.048
833.539	18.809	1295.065	1198.041
834.553	18.796	1293.862	1196.696
835.568	18.876	1292.403	1195.766
836.582	18.898	1291.185	1194.650
837.597	18.967	1289.764	1193.672
838.612	18.897	1288.780	1192.126
839.626	19.025	1287.334	1191.543
840.641	18.970	1286.789	1190.512
841.655	19.075	1285.949	1190.320
842.670	19.191	1285.551	1190.614
843.685	19.191	1284.453	1189.458
844.699	19.220	1282.983	1188.152
845.714	19.104	1282.037	1186.334
846.728	19.117	1280.903	1185.232
847.743	19.062	1279.759	1183.652
848.758	19.024	1278.440	1182.026
849.772	18.954	1277.504	1180.537
850.787	18.920	1275.718	1178.509
851.801	18.849	1274.746	1176.983
852.816	18.918	1273.492	1176.156
853.831	18.808	1271.557	1173.475
854.845	19.011	1269.468	1172.797
855.860	18.779	1267.989	1169.707
856.874	18.777	1267.256	1168.876
857.889	18.819	1266.614	1168.428
858.904	18.906	1265.459	1167.817
859.918	18.988	1263.868	1166.772
860.933	19.161	1262.842	1166.861
861.947	19.221	1261.654	1166.033
862.962	18.981	1260.577	1163.268
863.977	18.885	1258.801	1160.836
864.991	18.817	1258.575	1160.025
866.006	18.847	1258.231	1159.776
867.020	18.838	1256.737	1158.197
868.035	18.945	1255.407	1157.555
869.049	18.953	1254.625	1156.752
870.064	18.989	1253.830	1156.123
871.079	18.904	1253.382	1155.000
872.093	19.107	1252.550	1155.463
873.108	19.148	1251.701	1154.818
874.122	19.098	1250.406	1153.150
875.137	19.169	1250.394	1153.477
876.152	19.220	1249.308	1152.681
877.166	19.215	1247.419	1150.768
878.181	19.177	1246.257	1149.301
879.195	19.060	1245.806	1147.962
880.210	19.134	1244.632	1147.237
881.225	18.993	1243.772	1145.367
882.239	19.094	1242.492	1144.724
883.254	19.059	1241.651	1143.577
884.268	19.101	1240.194	1142.379
885.283	19.088	1239.028	1141.084
886.298	19.039	1237.354	1139.079
887.312	19.200	1236.478	1139.209
888.327	19.098	1235.187	1137.202
889.341	19.090	1233.744	1135.683
890.356	19.160	1233.626	1135.904
891.371	19.020	1233.622	1134.840
892.385	18.955	1233.108	1133.799
893.400	18.913	1232.233	1132.581
894.414	19.155	1229.882	1131.883
895.429	19.138	1228.785	1130.628
896.444	19.239	1228.215	1130.631
897.458	19.378	1227.152	1130.434
898.473	19.162	1225.951	1127.767
899.487	19.077	1224.766	1125.984
900.502	19.076	1223.728	1124.893
901.517	19.074	1222.163	1123.303
902.531	19.161	1220.989	1122.659
903.546	19.186	1220.422	1122.168
904.560	19.176	1220.521	1122.061
905.575	19.015	1219.640	1120.064
906.589	18.993	1218.647	1118.873
907.604	19.253	1217.868	1119.723
