DTS Sentinel unit serial number:	SN409020Multiplexer serial number:	ORYXHardware model number:	OX4-SRSoftware version number:	ORYX F/W v3.00 Oryx Data Collector v3.7.2.0data status	okinstallation	HaddamTimeLapsedifferential loss correction	single-endedforward channel	channel 3reverse channel	N/Adate	2011/06/22time	09:01:17forward acquisition time	30.00reverse acquisition time	0.00gamma	498.7831k internal	0.1797k external	0.1797temperature offset calibration	1.0074default loss term (dB/km)	0.3790temperature slope calibration	1.3530multiplexer offset coefficient	1.0000multiplexer slope coefficient	1.0000fibre end	0.00T internal ref (°C)	27.47T ext. ref 1 (°C)	24.19T ext. ref 2 (°C)	0.17length (m)	temperature (°C)	Stokes	anti-Stokes-747.200	800.000	-0.054	0.235
-746.185	32.142	0.403	0.450
-745.171	-23.204	-0.148	0.115
-744.156	240.906	0.074	0.161
-743.142	12.850	0.244	0.244
-742.127	317.106	-0.188	0.461
-741.112	-2.570	0.069	-0.063
-740.098	402.450	-0.130	0.354
-739.083	-96.054	-0.375	-0.128
-738.069	800.000	0.073	0.290
-737.054	-150.419	0.174	-0.017
-736.039	800.000	-0.133	0.487
-735.025	135.326	0.063	-0.106
-734.010	-13.019	0.412	0.346
-732.996	42.966	-0.051	-0.061
-731.981	269.454	0.144	-0.328
-730.966	-18.668	-0.346	-0.278
-729.952	18.135	-0.319	-0.329
-728.937	-200.000	-0.001	0.119
-727.923	72.183	-0.245	0.331
-726.908	-171.988	-0.496	0.020
-725.894	-73.830	0.140	0.065
-724.879	-200.000	0.015	-0.343
-723.864	323.869	-0.065	-0.160
-722.850	35.688	0.309	-0.351
-721.835	199.713	0.194	0.386
-720.821	582.108	0.136	-0.433
-719.806	-6.850	-0.350	-0.307
-718.791	-112.807	0.227	0.058
-717.777	487.593	0.110	-0.327
-716.762	279.968	0.196	0.454
-715.748	-114.291	0.567	0.140
-714.733	-100.454	-0.135	0.043
-713.718	-15.189	0.128	0.106
-712.704	80.120	0.294	0.409
-711.689	-56.404	0.518	0.296
-710.675	634.813	-0.156	-0.514
-709.660	94.668	0.249	-0.367
-708.645	143.431	-0.240	-0.413
-707.631	18.981	0.307	-0.318
-706.616	-142.670	-0.371	-0.046
-705.602	9.379	-0.289	-0.283
-704.587	-200.000	-0.016	-0.217
-703.572	284.670	0.083	-0.195
-702.558	-200.000	0.092	0.636
-701.543	60.688	-0.077	0.099
-700.529	98.100	0.218	0.326
-699.514	-120.170	0.547	-0.120
-698.499	-157.214	-0.124	0.010
-697.485	-200.000	0.017	-0.154
-696.470	-200.000	0.272	0.001
-695.456	-200.000	0.042	-0.577
-694.441	-14.099	0.355	-0.295
-693.426	-74.620	0.330	-0.153
-692.412	-128.326	-0.052	0.009
-691.397	-97.904	-0.374	0.124
-690.383	-200.000	0.415	0.002
-689.368	-70.975	-0.284	-0.138
-688.354	57.115	-0.236	-0.298
-687.339	-83.342	0.160	0.066
-686.324	-112.830	-0.228	-0.058
-685.310	523.909	0.075	0.229
-684.295	-54.239	-0.170	0.099
-683.281	-81.067	-0.179	0.076
-682.266	138.652	0.187	-0.318
-681.251	353.397	0.133	0.342
-680.237	341.802	-0.113	-0.286
-679.222	800.000	-0.036	0.184
-678.208	169.983	0.048	-0.089
-677.193	-25.769	0.116	-0.088
-676.178	264.392	-0.107	-0.241
-675.164	800.000	0.029	-0.120
-674.149	64.906	0.205	0.267
-673.135	-141.636	0.077	0.010
-672.120	-67.988	0.275	0.138
-671.105	-78.519	-0.318	-0.140
-670.091	-107.809	-0.443	-0.124
-669.076	99.247	-0.075	-0.112
-668.062	-32.444	0.091	0.065
-667.047	-76.445	-0.070	0.031
-666.032	-121.664	-0.422	0.089
-665.018	1.247	0.331	0.307
-664.003	-38.857	0.136	0.092
-662.989	-66.093	-0.504	0.258
-661.974	-200.000	0.036	0.281
-660.959	-200.000	0.042	0.304
-659.945	-2.402	0.281	-0.254
-658.930	-118.160	-0.427	0.097
-657.916	284.708	-0.050	-0.116
-656.901	-132.899	0.470	-0.076
-655.886	-44.438	0.175	-0.113
-654.872	-117.730	-0.373	0.086
-653.857	10.773	-0.088	-0.087
-652.843	45.588	0.259	-0.309
-651.828	6.801	0.338	0.324
-650.814	-200.000	0.466	-0.002
-649.799	126.217	-0.141	-0.231
-648.784	-26.031	0.226	-0.171
-647.770	47.830	-0.136	0.164
-646.755	46.069	-0.312	0.372
-645.741	27.355	-0.306	-0.332
-644.726	275.773	0.110	-0.253
-643.711	-200.000	-0.077	-0.700
-642.697	-44.827	-0.550	-0.353
-641.682	236.445	-0.105	0.224
-640.668	-200.000	0.002	0.364
-639.653	-162.172	-0.379	0.024
-638.638	257.468	0.191	-0.425
-637.624	347.696	0.055	-0.139
-636.609	160.324	0.213	-0.384
-635.595	145.172	0.198	-0.342
-634.580	-69.349	0.330	-0.162
-633.565	556.351	-0.072	0.225
-632.551	-38.705	0.383	0.260
-631.536	800.000	0.069	0.371
-630.522	800.000	-0.099	0.427
-629.507	-117.856	-0.478	-0.110
-628.492	800.000	-0.109	-0.409
-627.478	-200.000	-0.029	-0.305
-626.463	37.433	0.157	-0.179
-625.449	-100.940	-0.065	-0.020
-624.434	-114.912	-0.415	-0.101
-623.419	-36.499	-0.335	-0.232
-622.405	-45.805	-0.215	-0.136
-621.390	-80.272	0.231	0.099
-620.376	-200.000	0.001	-0.057
-619.361	-200.000	-0.004	0.380
-618.346	128.355	0.298	0.490
-617.332	800.000	0.042	0.190
-616.317	-152.173	-0.174	-0.016
-615.303	94.076	-0.287	0.420
-614.288	-108.647	-0.248	0.068
-613.273	242.906	-0.061	0.131
-612.259	-200.000	-0.040	0.500
-611.244	800.000	0.063	0.309
-610.230	-107.801	-0.211	-0.059
-609.215	-52.923	-0.232	-0.137
-608.201	-28.683	0.295	-0.218
-607.186	-123.722	0.361	0.073
-606.171	-70.362	0.258	0.125
-605.157	-163.776	0.132	-0.008
-604.142	-54.991	0.394	0.228
-603.128	1.611	-0.049	0.046
-602.113	-200.000	-0.004	0.310
-601.098	454.432	-0.115	0.330
-600.084	-35.907	-0.294	-0.204
-599.069	-19.060	0.119	-0.095
-598.055	-200.000	-0.015	0.141
-597.040	-45.235	-0.339	-0.216
-596.025	136.835	0.075	-0.126
-595.011	302.352	-0.108	0.259
-593.996	110.671	0.317	-0.491
-592.982	-190.804	0.491	-0.007
-591.967	-200.000	0.087	0.626
-590.952	48.505	-0.202	-0.243
-589.938	-114.719	-0.244	0.060
-588.923	-186.877	-0.153	0.003
-587.909	-200.000	0.052	0.297
-586.894	-76.723	0.236	-0.106
-585.879	79.147	0.250	0.345
-584.865	38.970	0.192	0.221
-583.850	-200.000	0.020	0.325
-582.836	149.398	0.358	0.625
-581.821	37.687	-0.100	0.114
-580.806	8.958	0.322	-0.312
-579.792	105.266	0.163	-0.247
-578.777	-17.555	0.114	-0.092
-577.763	105.216	0.085	0.130
-576.748	-93.175	0.172	-0.061
-575.733	-186.083	-0.390	0.007
-574.719	-134.579	-0.429	-0.067
-573.704	-119.770	-0.705	0.155
-572.690	30.848	0.380	0.419
-571.675	-75.963	-0.205	0.093
-570.661	-149.054	0.365	0.037
-569.646	-200.000	-0.023	-0.196
-568.631	800.000	-0.119	-0.435
-567.617	42.140	-0.446	-0.521
-566.602	-200.000	-0.016	-0.396
-565.588	-74.376	0.370	-0.171
-564.573	-96.068	0.507	0.172
-563.558	-168.830	-0.366	0.017
-562.544	-116.333	-0.036	0.008
-561.529	-161.314	-0.167	0.011
-560.515	-147.868	-0.504	0.053
-559.500	-34.816	0.511	0.358
-558.485	800.000	0.112	0.499
-557.471	-0.913	-0.222	-0.202
-556.456	-76.142	-0.643	-0.290
-555.442	103.199	-0.217	0.328
-554.427	-70.141	-0.493	0.240
-553.412	190.127	0.162	0.314
-552.398	110.293	0.114	-0.177
-551.383	580.565	-0.032	0.101
-550.369	-200.000	0.026	0.352
-549.354	800.000	0.032	0.173
-548.339	-146.104	0.389	-0.044
-547.325	132.628	-0.028	0.047
-546.310	-105.143	-0.313	-0.091
-545.296	-200.000	0.051	-0.605
-544.281	-97.460	-0.204	-0.068
-543.266	-200.000	0.025	0.401
-542.252	800.000	-0.105	-0.516
-541.237	800.000	-0.091	-0.433
-540.223	210.067	0.048	0.097
-539.208	67.061	0.063	-0.082
-538.193	68.370	-0.271	0.356
-537.179	253.884	0.065	0.142
-536.164	595.096	-0.100	-0.318
-535.150	71.633	-0.276	0.369
-534.135	-200.000	0.017	0.153
-533.121	-200.000	-0.002	0.639
-532.106	-43.797	-0.410	0.264
-531.091	-114.659	-0.115	0.028
-530.077	800.000	-0.090	-0.411
-529.062	-176.148	-0.225	-0.007
-528.048	133.839	-0.109	0.181
-527.033	-22.674	-0.387	0.300
-526.018	-106.163	0.510	0.146
-525.004	-104.360	0.345	-0.102
-523.989	700.871	-0.105	0.357
-522.975	409.171	0.233	0.636
-521.960	-200.000	-0.108	0.692
-520.945	-112.742	-0.159	0.040
-519.931	-200.000	-0.005	0.033
-518.916	-48.460	0.299	0.184
-517.902	-168.060	0.550	0.027
-516.887	23.207	-0.411	-0.433
-515.872	-41.250	-0.434	-0.286
-514.858	201.572	-0.119	0.236
-513.843	-142.591	0.110	0.014
-512.829	800.000	0.112	-0.436
-511.814	-26.293	-0.314	0.236
-510.799	-121.911	0.232	-0.049
-509.785	-0.826	-0.164	-0.149
-508.770	-70.165	-0.220	0.107
-507.756	-200.000	-0.076	-0.488
-506.741	206.785	-0.179	-0.358
-505.726	-106.192	-0.285	0.081
-504.712	434.006	-0.198	-0.553
-503.697	-200.000	-0.008	-0.106
-502.683	-3.853	-0.155	0.138
-501.668	-79.742	-0.070	-0.030
-500.653	-31.202	0.299	0.216
-499.639	68.337	0.167	0.219
-498.624	-200.000	-0.025	0.388
-497.610	-55.053	-0.204	-0.118
-496.595	101.614	-0.060	0.090
-495.581	238.480	-0.046	0.099
-494.566	15.857	-0.148	0.149
-493.551	-48.028	0.268	0.165
-492.537	121.950	-0.233	-0.373
-491.522	-50.980	-0.186	-0.112
-490.508	-33.584	0.258	0.182
-489.493	-200.000	0.235	0.000
-488.478	-172.594	0.206	0.008
-487.464	-172.429	-0.400	0.016
-486.449	-142.154	0.093	0.012
-485.435	800.000	0.071	0.283
-484.420	63.697	0.140	-0.180
-483.405	-101.837	-0.600	0.185
-482.391	-200.000	0.022	0.136
-481.376	-157.757	0.269	-0.020
-480.362	-200.000	-0.283	0.000
-479.347	197.945	-0.068	-0.134
-478.332	-37.733	0.298	0.203
-477.318	-91.477	-0.529	0.192
-476.303	-154.323	-0.314	-0.027
-475.289	-13.455	0.317	0.263
-474.274	800.000	0.042	0.236
-473.259	222.195	-0.104	0.214
-472.245	-10.313	-0.221	0.188
-471.230	800.000	0.027	-0.114
-470.216	63.181	-0.209	0.268
-469.201	48.213	-0.231	0.276
-468.186	-12.107	0.142	-0.119
-467.172	-117.651	-0.356	-0.081
-466.157	497.582	-0.130	0.386
-465.143	-154.257	0.196	0.017
-464.128	266.317	0.059	0.132
-463.113	77.030	0.293	0.399
-462.099	-200.000	-0.049	-0.286
-461.084	644.175	0.120	0.394
-460.070	800.000	0.092	-0.362
-459.055	800.000	0.064	-0.268
-458.040	-31.202	0.339	0.244
-457.026	-137.106	0.070	-0.010
-456.011	800.000	-0.068	0.266
-454.997	-33.071	0.061	0.043
-453.982	-200.000	-0.052	0.357
-452.968	645.466	0.029	-0.097
-451.953	-14.181	0.425	-0.350
-450.938	-160.428	0.354	-0.024
-449.924	286.422	-0.179	0.415
-448.909	-121.024	-0.183	0.039
-447.895	193.870	0.225	0.436
-446.880	-200.000	0.006	0.390
-445.865	-200.000	-0.054	-0.565
-444.851	-188.754	-0.179	-0.003
-443.836	-22.291	-0.289	-0.223
-442.822	-126.738	-0.188	-0.035
-441.807	3.849	0.105	-0.098
-440.792	800.000	-0.049	-0.203
-439.778	-132.453	-0.124	0.020
-438.763	175.662	0.202	-0.375
-437.749	-63.001	0.186	0.098
-436.734	29.035	-0.092	-0.100
-435.719	-107.813	0.487	-0.135
-434.705	-95.598	0.288	0.098
-433.690	210.932	-0.131	0.265
-432.676	-148.537	-0.248	-0.026
-431.661	-142.391	0.314	-0.039
-430.646	-97.670	0.401	-0.132
-429.632	-158.188	-0.398	-0.029
-428.617	-81.531	0.123	0.051
-427.603	-17.719	-0.097	0.078
-426.588	-42.480	0.138	0.090
-425.573	-200.000	0.018	0.249
-424.559	11.658	0.525	-0.514
-423.544	800.000	0.033	-0.138
-422.530	-200.000	-0.002	-0.431
-421.515	77.414	0.183	-0.249
-420.500	-200.000	0.004	-0.151
-419.486	65.353	-0.219	-0.284
-418.471	-187.104	0.410	-0.007
-417.457	-198.178	-0.356	0.003
-416.442	-29.241	-0.267	0.195
-415.428	198.063	-0.183	-0.358
-414.413	187.987	0.130	-0.248
-413.398	300.049	0.138	0.326
-412.384	800.000	0.091	0.437
-411.369	-52.831	-0.393	-0.231
-410.355	-52.180	0.380	0.224
-409.340	181.019	-0.108	-0.204
-408.325	-86.411	-0.466	0.182
-407.311	101.050	-0.102	-0.153
-406.296	-163.128	0.186	0.011
-405.282	800.000	0.173	0.851
-404.267	-49.962	-0.552	0.333
-403.252	-200.000	0.036	0.228
-402.238	38.145	-0.374	-0.425
-401.223	800.000	0.098	-0.417
-400.209	-92.013	-0.268	0.096
-399.194	59.050	0.203	-0.255
-398.179	-86.707	-0.427	-0.166
-397.165	-200.000	0.016	0.126
-396.150	-60.732	-0.426	-0.229
-395.136	21.929	0.138	0.143
-394.121	-113.672	-0.233	-0.058
-393.106	-119.242	0.424	0.094
-392.092	-149.739	0.433	0.043
-391.077	48.329	-0.206	-0.246
-390.063	-102.933	-0.350	-0.105
-389.048	129.576	-0.288	-0.470
-388.033	-58.202	0.250	0.139
-387.019	523.625	0.074	-0.224
-386.004	306.065	-0.311	-0.741
-384.990	137.391	-0.193	0.323
-383.975	275.526	0.161	0.365
-382.960	-123.525	0.429	-0.086
-381.946	-39.000	-0.167	0.112
-380.931	-166.846	-0.316	-0.016
-379.917	55.156	0.209	0.258
-378.902	-75.804	-0.145	0.066
-377.888	-200.000	0.054	0.451
-376.873	-150.825	-0.389	0.037
-375.858	84.742	0.427	-0.597
-374.844	-97.183	0.353	-0.117
-373.829	800.000	0.086	-0.405
-372.815	475.843	-0.070	0.203
-371.800	331.739	0.121	-0.300
-370.785	81.104	-0.152	0.209
-369.771	60.783	-0.060	-0.076
-368.756	-137.525	0.371	-0.053
-367.742	-181.654	0.166	0.004
-366.727	-111.426	0.474	0.122
-365.712	312.864	0.105	0.253
-364.698	-146.054	-0.197	-0.022
-363.683	124.935	0.095	-0.153
-362.669	-25.805	-0.154	-0.115
-361.654	-115.030	0.361	0.087
-360.639	-200.000	0.017	0.304
-359.625	800.000	-0.119	-0.666
-358.610	-2.577	0.164	0.146
-357.596	235.187	-0.186	0.394
-356.581	-200.000	-0.048	0.306
-355.566	1.154	-0.150	0.137
-354.552	-141.870	-0.237	0.030
-353.537	32.755	0.418	0.462
-352.523	148.125	-0.159	0.274
-351.508	-44.918	0.064	-0.041
-350.493	25.958	0.198	-0.211
-349.479	-200.000	0.017	-0.564
-348.464	-7.160	-0.228	-0.197
-347.450	67.064	-0.154	0.200
-346.435	-114.086	0.171	0.042
-345.420	-140.474	0.462	0.061
-344.406	-109.255	0.291	-0.078
-343.391	350.819	-0.122	0.308
-342.377	-21.807	-0.426	-0.330
-341.362	33.226	-0.260	-0.288
-340.348	22.617	0.293	-0.305
-339.333	800.000	0.093	-0.476
-338.318	-86.368	-0.325	0.127
-337.304	114.551	0.139	-0.216
-336.289	-12.175	-0.517	-0.431
-335.275	-178.629	-0.359	-0.010
-334.260	-200.000	-0.116	0.840
-333.245	800.000	-0.084	0.445
-332.231	800.000	-0.017	0.061
-331.216	-9.672	0.318	0.270
-330.202	-128.601	0.545	0.097
-329.187	-145.536	-0.418	-0.047
-328.172	4.408	-0.079	-0.073
-327.158	-51.691	0.236	-0.140
-326.143	-200.000	-0.005	-0.400
-325.129	-200.000	-0.006	-0.220
-324.114	800.000	0.064	-0.266
-323.099	-153.567	0.188	0.016
-322.085	-64.323	-0.128	0.066
-321.070	-83.856	-0.234	-0.094
-320.056	122.437	-0.143	-0.228
-319.041	187.721	-0.167	0.319
-318.026	26.522	0.226	0.241
-317.012	-110.472	0.420	0.110
-315.997	-8.885	-0.209	-0.178
-314.983	12.119	-0.405	0.397
-313.968	-200.000	-0.029	0.194
-312.953	192.456	0.185	-0.356
-311.939	215.044	0.182	-0.368
-310.924	-184.455	0.168	-0.003
-309.910	-111.423	-0.490	-0.126
-308.895	-200.000	-0.052	-0.511
-307.880	477.098	0.111	-0.321
-306.866	-200.000	0.009	-0.394
-305.851	-147.662	-0.541	0.057
-304.837	-200.000	0.068	0.561
-303.822	-200.000	-0.012	0.225
-302.807	-12.862	0.412	-0.341
-301.793	421.284	0.026	0.072
-300.778	-58.577	-0.033	0.018
-299.764	800.000	-0.124	-0.471
-298.749	392.551	0.071	0.189
-297.735	623.180	0.146	-0.469
-296.720	-171.311	0.417	0.018
-295.705	-106.169	-0.131	-0.037
-294.691	92.191	-0.170	0.244
-293.676	-200.000	-0.054	-0.483
-292.662	127.750	-0.197	-0.320
-291.647	-200.000	-0.006	0.212
-290.632	-200.000	-0.015	0.138
-289.618	115.813	-0.120	0.188
-288.603	-200.000	-0.042	-0.452
-287.589	-200.000	0.006	0.166
-286.574	33.561	-0.195	0.215
-285.559	-122.978	0.348	-0.071
-284.545	-78.897	0.361	-0.156
-283.530	104.103	-0.196	-0.294
-282.516	241.613	-0.190	-0.405
-281.501	-200.000	0.010	0.130
-280.486	109.387	-0.257	0.392
-279.472	5.804	-0.319	-0.299
-278.457	-200.000	-0.092	0.639
-277.443	78.675	0.246	-0.335
-276.428	273.477	-0.059	-0.132
-275.413	-38.649	-0.066	-0.044
-274.399	-39.685	-0.299	0.198
-273.384	-50.175	0.221	-0.133
-272.370	-71.348	0.169	-0.080
-271.355	-147.493	0.436	0.046
-270.340	-200.000	0.006	-0.096
-269.326	800.000	0.151	-0.595
-268.311	238.889	-0.069	-0.146
-267.297	-83.557	0.424	0.171
-266.282	-129.062	0.378	-0.067
-265.267	596.897	0.041	0.129
-264.253	-73.106	0.271	-0.126
-263.238	-172.223	0.264	-0.011
-262.224	70.404	-0.185	0.243
-261.209	433.014	-0.059	-0.163
-260.195	275.464	0.108	-0.245
-259.180	165.286	-0.144	-0.260
-258.165	-135.178	-0.112	0.017
-257.151	-114.901	0.452	-0.108
-256.136	-152.466	0.211	0.019
-255.122	-200.000	-0.010	0.226
-254.107	196.777	0.167	0.325
-253.092	-49.840	-0.286	0.172
-252.078	-117.052	-0.493	0.113
-251.063	-67.944	0.335	-0.166
-250.049	198.636	-0.023	-0.045
-249.034	-152.918	-0.092	-0.008
-248.019	781.658	-0.032	-0.112
-247.005	-94.040	-0.087	-0.030
-245.990	-200.000	-0.053	-0.528
-244.976	-200.000	-0.015	0.307
-243.961	76.513	0.217	0.292
-242.946	52.419	-0.126	-0.153
-241.932	117.844	-0.154	0.241
-240.917	-69.270	-0.412	0.200
-239.903	-51.509	0.291	-0.172
-238.888	-181.676	-0.135	0.003
-237.873	106.729	0.176	0.265
-236.859	-168.704	0.079	0.004
-235.844	498.246	0.146	-0.430
-234.830	800.000	0.143	0.676
-233.815	-39.423	0.321	0.213
-232.800	53.862	0.188	-0.229
-231.786	-85.187	-0.370	0.146
-230.771	155.401	-0.074	0.130
-229.757	-66.838	0.210	0.105
-228.742	36.245	0.078	0.087
-227.727	-55.114	0.147	-0.083
-226.713	800.000	0.115	0.431
-225.698	-114.480	0.392	-0.095
-224.684	249.373	0.092	0.199
-223.669	-16.029	0.031	-0.025
-222.655	-67.109	-0.148	-0.074
-221.640	800.000	-0.060	-0.230
-220.625	50.624	-0.082	-0.099
-219.611	-9.469	-0.240	-0.203
-218.596	98.413	0.149	0.217
-217.582	800.000	0.084	-0.321
-216.567	-138.029	-0.316	0.044
-215.552	30.053	-0.260	-0.281
-214.538	2.274	-0.312	-0.285
-213.523	-200.000	-0.005	-0.462
-212.509	-136.433	0.437	0.064
-211.494	106.499	0.160	0.240
-210.479	-71.186	-0.148	0.070
-209.465	-123.529	0.277	-0.055
-208.450	-140.954	-0.215	-0.028
-207.436	48.185	0.099	0.117
-206.421	-10.538	0.360	0.302
-205.406	800.000	0.026	0.137
-204.392	43.461	-0.175	-0.203
-203.377	-200.000	0.074	-0.601
-202.363	-124.450	0.333	-0.065
-201.348	-100.789	0.373	0.116
-200.333	-2.372	0.211	-0.187
-199.319	-200.000	-0.007	0.041
-198.304	207.194	0.129	-0.256
-197.290	-101.300	0.505	0.155
-196.275	-156.862	0.197	0.015
-195.260	-52.001	0.356	-0.209
-194.246	-43.822	0.394	-0.251
-193.231	27.274	0.366	-0.389
-192.217	41.460	0.434	-0.498
-191.202	-61.364	-0.306	0.162
-190.187	528.299	0.052	-0.157
-189.173	16.743	0.078	0.078
-188.158	188.673	0.134	-0.255
-187.144	-108.324	0.199	0.054
-186.129	-50.330	0.192	-0.115
-185.114	182.507	0.113	-0.212
-184.100	631.130	-0.078	0.252
-183.085	-24.443	0.370	0.278
-182.071	-139.160	-0.526	0.071
-181.056	-103.312	-0.412	0.122
-180.042	800.000	-0.049	0.177
-179.027	47.447	0.057	0.068
-178.012	-200.000	0.020	-0.578
-176.998	-200.000	0.009	-0.424
-175.983	-112.405	0.177	-0.045
-174.969	-200.000	0.005	0.243
-173.954	-55.077	0.379	0.215
-172.939	800.000	-0.046	0.223
-171.925	-200.000	-0.032	-0.557
-170.910	-152.401	-0.419	-0.038
-169.896	74.494	0.158	-0.210
-168.881	800.000	-0.053	-0.238
-167.866	-134.473	-0.345	0.053
-166.852	123.946	-0.064	0.101
-165.837	-124.779	0.103	0.020
-164.823	-80.972	-0.352	-0.147
-163.808	-46.004	-0.340	0.212
-162.793	-35.192	-0.391	0.269
-161.779	5.799	0.215	-0.201
-160.764	-101.540	-0.193	-0.059
-159.750	287.944	-0.042	-0.097
-158.735	-85.809	0.416	0.162
-157.720	1.333	0.449	0.407
-156.706	-142.864	0.560	0.068
-155.691	800.000	-0.024	0.089
-154.677	-115.796	-0.437	0.102
-153.662	154.103	0.098	0.170
-152.647	-200.000	0.060	0.384
-151.633	84.724	-0.074	-0.102
-150.618	800.000	-0.027	0.113
-149.604	-16.196	-0.050	-0.040
-148.589	-200.000	-0.014	-0.256
-147.574	717.138	-0.182	-0.614
-146.560	439.498	-0.164	0.454
-145.545	-200.000	-0.008	0.165
-144.531	-105.910	-0.286	-0.081
-143.516	-200.000	0.006	0.121
-142.502	27.323	0.277	0.295
-141.487	49.715	-0.156	0.186
-140.472	107.689	0.180	-0.271
-139.458	-200.000	-0.033	-0.285
-138.443	119.685	0.157	0.247
-137.429	-22.087	0.108	-0.083
-136.414	-84.751	-0.337	0.133
-135.399	-26.161	0.523	0.388
-134.385	800.000	-0.130	0.576
-133.370	-107.684	-0.320	0.088
-132.356	146.013	-0.177	0.301
-131.341	-179.958	-0.266	0.007
-130.326	-200.000	0.001	-0.093
-129.312	-52.929	-0.103	-0.060
-128.297	-200.000	0.013	-0.678
-127.283	19.828	0.204	-0.208
-126.268	-6.380	-0.121	-0.105
-125.253	-200.000	0.017	-0.549
-124.239	-46.721	-0.438	-0.270
-123.224	-160.637	0.050	-0.003
-122.210	-112.744	-0.142	0.035
-121.195	266.827	-0.137	-0.303
-120.180	707.524	-0.155	0.520
-119.166	392.014	-0.142	-0.375
-118.151	593.493	-0.049	-0.154
-117.137	-83.612	0.229	0.092
-116.122	645.101	-0.056	0.181
-115.107	-146.807	-0.292	0.031
-114.093	-89.161	-0.166	-0.062
-113.078	-200.000	-0.038	0.293
-112.064	-174.723	0.444	-0.016
-111.049	-92.269	-0.280	-0.099
-110.034	-200.000	-0.032	-0.393
-109.020	33.162	-0.145	0.159
-108.005	800.000	-0.150	-0.559
-106.991	800.000	0.120	0.515
-105.976	277.927	-0.218	-0.491
-104.962	-200.000	-0.001	-0.234
-103.947	193.083	-0.128	-0.245
-102.932	12.194	0.105	-0.102
-101.918	-65.368	0.159	0.081
-100.903	-126.541	-0.514	0.095
-99.889	-156.574	0.346	0.027
-98.874	800.000	-0.046	0.170
-97.859	-93.682	0.176	0.061
-96.845	213.236	0.103	-0.206
-95.830	-172.890	0.343	0.013
-94.816	690.915	-0.112	0.374
-93.801	498.144	-0.049	-0.143
-92.786	-200.000	0.050	-0.419
-91.772	800.000	0.018	-0.070
-90.757	132.212	0.108	0.175
-89.743	-32.560	0.216	0.151
-88.728	-56.920	-0.093	-0.052
-87.713	-98.162	-0.456	0.147
-86.699	-43.140	0.150	0.096
-85.684	-90.671	0.099	0.036
-84.670	73.381	-0.085	-0.112
-83.655	435.624	-0.134	-0.370
-82.640	127.565	-0.152	-0.245
-81.626	-200.000	0.035	-0.478
-80.611	11.088	0.227	0.219
-79.597	-200.000	0.026	0.196
-78.582	-17.622	-0.288	0.228
-77.567	636.216	0.170	0.547
-76.553	800.000	0.083	0.332
-75.538	218.872	-0.064	0.130
-74.524	-73.083	0.267	-0.123
-73.509	-199.221	0.193	-0.001
-72.494	81.079	-0.124	-0.170
-71.480	-57.622	-0.298	0.164
-70.465	-117.880	0.561	-0.126
-69.451	412.162	0.222	-0.598
-68.436	132.746	-0.099	0.162
-67.422	800.000	0.154	0.719
-66.407	-9.055	0.307	-0.259
-65.392	321.633	-0.239	-0.576
-64.378	-87.896	-0.580	0.219
-63.363	-19.522	0.257	-0.201
-62.349	-28.364	-0.509	0.370
-61.334	30.875	-1.976	-2.133
-60.319	67.728	0.967	1.246
-59.305	336.324	-2.812	-6.907
-58.290	44.208	3.359	3.884
-57.276	346.123	4.161	10.354
-56.261	-200.000	17.763	272.328
-55.246	425.180	1220.524	3326.516
-54.232	60.806	2821.103	3526.917
-53.217	70.999	2697.327	3524.563
-52.203	48.206	2432.173	2867.502
-51.188	37.208	2093.115	2335.598
-50.173	29.894	1974.347	2119.176
-49.159	28.514	1963.760	2091.912
-48.144	27.929	1959.461	2080.558
-47.130	27.923	1957.223	2078.030
-46.115	27.736	1956.152	2074.669
-45.100	27.818	1954.028	2073.280
-44.086	27.733	1953.173	2071.318
-43.071	27.677	1951.439	2068.757
-42.057	27.906	1949.756	2069.502
-41.042	27.569	1949.238	2065.027
-40.027	27.608	1947.013	2063.034
-39.013	27.507	1945.793	2060.514
-37.998	27.545	1944.697	2059.703
-36.984	27.587	1942.972	2058.274
-35.969	27.590	1942.031	2057.221
-34.954	27.591	1940.137	2055.145
-33.940	27.647	1938.829	2054.315
-32.925	27.544	1938.192	2052.394
-31.911	27.561	1936.275	2050.473
-30.896	27.568	1935.639	2049.796
-29.881	27.587	1933.377	2047.537
-28.867	27.577	1932.390	2046.292
-27.852	27.421	1931.854	2043.888
-26.838	27.439	1929.583	2041.606
-25.823	27.535	1928.132	2041.066
-24.809	27.593	1926.702	2040.126
-23.794	27.475	1925.537	2037.484
-22.779	27.398	1924.814	2035.774
-21.765	27.433	1922.385	2033.513
-20.750	27.438	1921.449	2032.508
-19.736	27.496	1920.390	2031.952
-18.721	27.486	1919.761	2031.092
-17.706	27.425	1919.348	2029.896
-16.692	27.465	1918.299	2029.150
-15.677	27.456	1916.679	2027.258
-14.663	27.402	1915.049	2024.844
-13.648	27.395	1912.864	2022.375
-12.633	27.474	1910.995	2021.207
-11.619	27.281	1911.343	2019.344
-10.604	27.488	1908.874	2018.960
-9.590	27.346	1908.057	2016.429
-8.575	27.416	1907.006	2016.014
-7.560	27.364	1905.974	2014.274
-6.546	27.330	1904.782	2012.550
-5.531	27.298	1903.592	2010.860
-4.517	27.378	1901.895	2009.873
-3.502	27.572	1900.867	2010.866
-2.487	27.506	1899.556	2008.663
-1.473	27.627	1896.392	2006.581
-0.458	27.568	1878.241	1986.644
0.556	24.439	2023.068	2090.540
1.571	23.514	2236.635	2298.910
2.586	24.879	2279.331	2360.620
3.600	24.957	2283.232	2365.418
4.615	24.977	2283.057	2365.212
5.629	24.913	2281.829	2362.815
6.644	25.038	2279.384	2361.650
7.659	24.967	2277.900	2358.889
8.673	25.136	2275.493	2358.348
9.688	24.676	2282.267	2358.984
10.702	22.335	2357.531	2404.373
11.717	20.117	2421.671	2438.169
12.731	10.158	2395.296	2271.382
13.746	1.562	2372.193	2128.649
14.761	0.390	2367.906	2108.082
15.775	0.262	2366.742	2104.995
16.790	0.162	2364.677	2101.509
17.804	0.174	2363.465	2100.347
18.819	0.239	2362.512	2100.157
19.834	0.144	2360.905	2097.149
20.848	0.199	2359.183	2096.140
21.863	0.193	2357.131	2093.986
22.877	0.176	2354.518	2091.166
23.892	0.161	2353.161	2089.514
24.907	0.155	2350.736	2087.022
25.921	0.187	2348.529	2085.253
26.936	0.215	2345.892	2083.056
27.950	0.139	2343.444	2079.574
28.965	0.087	2342.584	2077.838
29.980	0.075	2341.947	2076.859
30.994	0.228	2338.509	2075.690
32.009	4.895	2354.404	2154.528
33.023	17.363	2392.421	2364.235
34.038	23.562	2405.414	2463.603
35.053	24.555	2404.310	2476.022
36.067	24.397	2401.383	2470.505
37.082	23.992	2398.726	2461.845
38.096	23.762	2397.171	2456.755
39.111	24.060	2395.381	2458.774
40.126	24.752	2395.364	2468.063
41.140	25.455	2395.253	2477.399
42.155	25.103	2392.183	2469.049
43.169	24.800	2390.173	2462.491
44.184	25.062	2388.065	2463.643
45.199	25.037	2383.862	2458.678
46.213	24.713	2382.837	2452.851
47.228	24.641	2382.471	2451.185
48.242	24.658	2381.397	2450.024
49.257	24.795	2379.543	2449.718
50.271	24.948	2377.385	2449.304
51.286	25.009	2374.007	2446.369
52.301	24.876	2372.807	2443.005
53.315	24.463	2371.130	2435.330
54.330	23.583	2366.803	2418.547
55.344	23.134	2362.001	2407.212
56.359	23.101	2359.099	2403.510
57.374	22.866	2357.433	2398.319
58.388	22.867	2354.501	2395.067
59.403	23.199	2351.742	2396.488
60.417	23.454	2350.231	2398.134
61.432	23.748	2348.413	2399.976
62.447	23.592	2347.029	2396.155
63.461	23.586	2344.226	2392.935
64.476	23.525	2342.356	2389.914
65.490	23.983	2341.413	2394.864
66.505	24.266	2342.249	2399.263
67.520	24.437	2342.466	2401.508
68.534	24.546	2340.588	2400.768
69.549	24.614	2337.601	2398.337
70.563	24.882	2335.015	2399.005
71.578	24.870	2332.869	2396.354
72.593	24.792	2332.102	2394.230
73.607	24.796	2330.648	2392.496
74.622	24.920	2328.488	2391.654
75.636	24.775	2323.553	2384.358
76.651	24.613	2322.244	2380.571
77.666	24.618	2321.337	2379.413
78.680	24.785	2319.955	2379.948
79.695	25.110	2318.067	2382.072
80.709	25.102	2317.670	2381.271
81.724	25.285	2315.146	2380.836
82.739	25.022	2311.612	2373.411
83.753	24.772	2308.919	2367.040
84.768	24.544	2308.066	2362.852
85.782	24.552	2305.993	2360.545
86.797	24.627	2303.423	2358.631
87.812	24.552	2302.470	2356.375
88.826	24.529	2299.137	2352.376
89.841	24.660	2298.120	2352.787
90.855	24.915	2295.714	2353.420
91.870	24.612	2294.048	2347.425
92.884	24.692	2292.046	2346.157
93.899	24.592	2292.151	2344.658
94.914	24.346	2290.883	2339.844
95.928	24.010	2288.716	2332.919
96.943	23.809	2285.778	2327.002
97.957	24.090	2285.453	2330.091
98.972	24.569	2283.396	2333.999
99.987	24.485	2280.563	2329.724
101.001	24.559	2277.712	2327.507
102.016	24.621	2275.978	2326.264
103.030	24.691	2273.831	2324.704
104.045	24.718	2272.398	2323.321
105.060	24.810	2270.111	2321.900
106.074	24.747	2268.455	2319.107
107.089	24.428	2265.524	2311.686
108.103	24.528	2265.566	2312.751
109.118	24.605	2263.417	2311.274
110.133	24.573	2262.101	2309.244
111.147	24.849	2261.145	2311.569
112.162	24.972	2259.517	2311.225
113.176	24.794	2255.851	2304.903
114.191	24.791	2253.789	2302.481
115.206	24.871	2251.696	2301.096
116.220	24.722	2251.396	2298.592
117.235	24.764	2248.068	2295.463
118.249	24.619	2246.129	2291.331
119.264	24.722	2246.020	2292.275
120.279	24.856	2244.629	2292.308
121.293	24.839	2242.065	2289.193
122.308	24.860	2241.112	2288.224
123.322	24.886	2239.204	2286.335
124.337	24.660	2236.718	2280.615
125.352	24.155	2235.259	2272.390
126.366	23.940	2234.765	2268.851
127.381	24.361	2231.334	2270.491
128.395	24.456	2229.492	2269.554
129.410	24.757	2227.414	2271.014
130.424	24.610	2226.236	2267.659
131.439	24.448	2223.977	2263.023
132.454	24.370	2222.520	2260.282
133.468	24.510	2220.058	2259.288
134.483	24.573	2217.842	2257.564
135.497	24.524	2217.071	2255.877
136.512	24.507	2213.577	2251.846
137.527	24.431	2212.418	2249.430
138.541	24.356	2211.893	2247.677
139.556	24.248	2210.379	2244.500
140.570	24.317	2207.708	2242.400
141.585	24.405	2206.220	2241.733
142.600	24.523	2205.361	2242.079
143.614	24.599	2203.153	2240.514
144.629	24.594	2202.201	2239.220
145.643	24.516	2200.701	2236.440
146.658	24.507	2198.346	2233.677
147.673	24.530	2196.562	2231.875
148.687	24.641	2195.809	2232.237
149.702	24.571	2194.347	2229.608
150.716	24.538	2192.800	2227.354
151.731	24.740	2191.623	2228.430
152.746	24.818	2190.919	2228.423
153.760	24.443	2188.891	2221.398
154.775	23.697	2186.463	2209.345
155.789	23.287	2183.242	2200.708
156.804	23.767	2181.444	2204.622
157.819	24.215	2180.821	2209.311
158.833	24.499	2179.157	2210.900
159.848	24.778	2176.376	2211.276
160.862	24.995	2175.228	2212.543
161.877	25.049	2174.356	2212.051
162.892	24.912	2173.863	2209.588
163.906	24.775	2172.596	2206.346
164.921	24.863	2169.743	2204.264
165.935	24.780	2167.376	2200.573
166.950	24.843	2165.744	2199.431
167.964	24.766	2162.663	2195.093
168.979	24.587	2161.728	2191.677
169.994	24.706	2160.581	2191.711
171.008	24.746	2158.916	2190.259
172.023	24.558	2158.440	2187.198
173.037	24.670	2155.891	2185.727
174.052	24.613	2153.476	2182.321
175.067	24.487	2151.980	2178.997
176.081	24.603	2150.192	2178.340
177.096	24.567	2149.530	2176.968
178.110	24.431	2146.695	2172.179
179.125	24.432	2146.160	2171.386
180.140	24.625	2145.654	2172.979
181.154	24.594	2144.419	2171.084
182.169	24.553	2141.656	2167.528
183.183	24.142	2140.408	2160.994
184.198	23.493	2137.181	2149.570
185.213	23.291	2136.409	2146.077
186.227	24.144	2136.685	2156.482
187.242	24.563	2135.334	2159.952
188.256	24.713	2134.148	2160.323
189.271	24.784	2132.117	2158.866
190.286	24.838	2130.374	2157.504
191.300	24.589	2127.462	2151.277
192.315	24.462	2125.862	2147.865
193.329	24.581	2125.044	2148.223
194.344	24.720	2124.811	2149.412
195.359	24.873	2123.045	2149.210
196.373	25.040	2120.687	2148.575
197.388	24.968	2118.253	2144.990
198.402	24.851	2116.250	2141.295
199.417	24.696	2114.808	2137.714
200.432	24.753	2112.748	2136.061
201.446	24.987	2112.190	2138.055
202.461	24.876	2110.548	2134.805
203.475	24.772	2107.354	2130.074
204.490	24.681	2106.185	2127.544
205.504	24.774	2104.016	2126.211
206.519	24.677	2100.393	2121.146
207.534	24.497	2099.602	2117.938
208.548	24.592	2096.763	2115.953
209.563	24.427	2096.239	2113.209
210.577	24.381	2094.415	2110.570
211.592	24.408	2094.741	2110.972
212.607	24.181	2092.028	2105.290
213.621	23.157	2089.013	2089.855
214.636	23.139	2088.468	2088.838
215.650	24.083	2088.561	2099.879
216.665	24.461	2087.183	2102.719
217.680	24.548	2085.862	2102.168
218.694	24.748	2085.011	2103.427
219.709	24.723	2083.625	2101.475
220.723	24.714	2082.333	2099.815
221.738	24.753	2079.801	2097.471
222.753	24.682	2078.065	2094.631
223.767	24.886	2076.768	2095.479
224.782	24.565	2074.614	2089.273
225.796	24.531	2073.653	2087.665
226.811	24.733	2072.333	2088.455
227.826	25.016	2071.418	2090.607
228.840	25.223	2070.067	2091.419
229.855	24.919	2068.622	2086.147
230.869	24.915	2066.263	2083.473
231.884	24.754	2064.909	2079.976
232.899	24.624	2061.832	2075.109
233.913	24.536	2060.721	2072.710
234.928	24.597	2059.557	2072.010
235.942	24.690	2059.080	2072.367
236.957	24.837	2056.636	2071.360
237.972	24.841	2055.122	2069.640
238.986	24.939	2054.096	2069.492
240.001	24.986	2053.124	2068.811
241.015	24.766	2051.198	2064.073
242.030	24.397	2050.691	2059.041
243.045	23.990	2046.882	2050.250
244.059	23.708	2045.508	2045.368
245.074	24.314	2043.597	2050.222
246.088	24.518	2041.329	2050.051
247.103	24.356	2040.264	2046.868
248.117	24.442	2038.650	2045.999
249.132	24.807	2037.596	2048.889
250.147	24.563	2036.144	2044.387
251.161	24.358	2033.744	2039.376
252.176	24.503	2031.786	2038.830
253.190	24.205	2029.093	2032.467
254.205	23.500	2025.402	2020.456
255.220	23.185	2023.560	2014.774
256.234	23.374	2023.708	2016.839
257.249	23.437	2022.256	2015.872
258.263	23.354	2020.866	2013.293
259.278	23.199	2018.379	2008.807
260.293	23.314	2017.546	2009.051
261.307	23.886	2018.246	2016.028
262.322	24.595	2017.069	2022.681
263.336	24.633	2015.891	2021.693
264.351	24.570	2014.229	2019.064
265.366	24.583	2012.860	2017.607
266.380	24.578	2012.199	2016.644
267.395	24.418	2009.976	2012.355
268.409	24.388	2007.578	2009.381
269.424	24.529	2006.572	2009.729
270.439	24.646	2006.128	2010.358
271.453	24.294	2003.310	2003.325
272.468	23.553	2000.478	1991.891
273.482	23.330	1998.475	1987.146
274.497	24.028	1996.959	1993.264
275.512	24.344	1996.132	1995.748
276.526	24.568	1994.153	1996.055
277.541	24.455	1992.758	1993.153
278.555	24.477	1991.231	1991.630
279.570	24.174	1988.628	1985.393
280.585	24.145	1986.549	1982.759
281.599	24.409	1986.892	1985.814
282.614	24.490	1985.158	1984.743
283.628	23.680	1981.102	1971.423
284.643	23.200	1979.706	1964.435
285.657	23.417	1978.330	1965.255
286.672	23.344	1976.493	1962.382
287.687	23.047	1975.180	1957.540
288.701	22.884	1973.564	1953.897
289.716	23.009	1970.939	1952.448
290.730	23.047	1968.972	1950.688
291.745	23.000	1968.308	1949.277
292.760	22.988	1967.818	1948.421
293.774	23.360	1968.779	1953.269
294.789	24.043	1968.409	1960.224
295.803	24.343	1966.326	1961.230
296.818	24.391	1965.639	1960.848
297.833	24.540	1964.739	1961.359
298.847	24.604	1963.676	1960.770
299.862	24.679	1961.694	1959.380
300.876	24.473	1959.454	1954.643
301.891	23.800	1957.090	1944.656
302.906	23.694	1956.770	1942.938
303.920	24.488	1956.706	1951.369
304.935	24.661	1953.945	1950.277
305.949	24.395	1951.658	1944.842
306.964	24.558	1950.540	1945.280
307.979	24.445	1948.352	1941.635
308.993	23.841	1945.399	1931.863
310.008	23.468	1942.890	1925.066
311.022	23.183	1940.623	1919.490
312.037	23.223	1939.575	1918.652
313.052	23.136	1936.872	1914.802
314.066	22.751	1934.144	1907.692
315.081	22.677	1933.657	1906.187
316.095	22.513	1932.186	1902.726
317.110	22.609	1930.253	1901.633
318.125	22.859	1929.916	1903.790
319.139	23.081	1929.381	1905.428
320.154	23.268	1928.612	1906.471
321.168	23.288	1926.772	1904.638
322.183	23.876	1927.008	1911.004
323.197	24.236	1927.422	1915.065
324.212	24.342	1925.063	1913.643
325.227	24.349	1923.805	1912.237
326.241	24.551	1921.488	1911.882
327.256	24.521	1921.479	1911.319
328.270	24.611	1920.277	1910.858
329.285	24.670	1919.280	1910.269
330.300	24.503	1918.399	1907.374
331.314	23.485	1916.299	1894.135
332.329	23.466	1912.954	1890.392
333.343	24.300	1912.762	1898.910
334.358	24.857	1912.188	1904.079
335.373	24.977	1909.828	1902.782
336.387	24.668	1908.596	1898.028
337.402	24.680	1907.236	1896.577
338.416	24.687	1905.726	1894.917
339.431	24.761	1904.274	1894.040
340.446	24.909	1902.410	1893.529
341.460	24.198	1898.197	1881.562
342.475	23.064	1895.783	1866.917
343.489	22.786	1892.653	1860.672
344.504	22.934	1892.532	1861.897
345.519	23.050	1891.052	1861.446
346.533	22.966	1888.522	1857.847
347.548	22.863	1887.597	1855.627
348.562	22.980	1886.617	1855.672
349.577	22.971	1885.939	1854.688
350.592	23.117	1883.379	1853.483
351.606	23.233	1882.797	1853.912
352.621	23.260	1880.834	1852.042
353.635	23.403	1880.258	1852.754
354.650	23.608	1880.271	1854.702
355.665	23.865	1879.954	1856.862
356.679	24.256	1879.558	1860.353
357.694	24.537	1876.866	1860.413
358.708	24.555	1876.935	1860.441
359.723	24.342	1875.130	1856.205
360.738	23.648	1873.160	1846.775
361.752	23.731	1871.484	1845.774
362.767	24.200	1869.959	1848.934
363.781	24.200	1868.311	1847.091
364.796	24.100	1867.796	1845.316
365.810	24.127	1866.551	1844.141
366.825	24.263	1865.696	1844.500
367.840	24.451	1863.980	1844.531
368.854	24.371	1863.123	1842.632
369.869	23.761	1860.175	1833.172
370.883	22.961	1856.376	1820.920
371.898	22.356	1854.004	1812.115
372.913	22.302	1852.524	1809.896
373.927	22.500	1851.637	1810.864
374.942	22.443	1850.666	1809.107
375.956	22.461	1847.579	1806.059
376.971	22.427	1844.935	1802.910
377.986	22.322	1843.019	1799.735
379.000	22.906	1843.944	1806.431
380.015	23.941	1845.783	1818.657
381.029	24.812	1844.803	1826.419
382.044	24.755	1843.192	1824.019
383.059	24.655	1841.775	1821.379
384.073	24.595	1840.157	1818.943
385.088	24.455	1839.295	1816.445
386.102	24.362	1837.182	1813.191
387.117	24.138	1835.154	1808.685
388.132	24.202	1835.073	1809.038
389.146	24.196	1835.059	1808.746
390.161	23.524	1832.804	1799.457
391.175	23.492	1829.713	1795.885
392.190	24.193	1827.888	1801.004
393.205	24.371	1825.919	1800.651
394.219	24.411	1825.420	1800.355
395.234	24.394	1824.252	1798.808
396.248	24.457	1822.506	1797.516
397.263	24.455	1819.939	1794.748
398.278	24.309	1817.474	1790.628
399.292	24.248	1817.706	1790.024
400.307	24.590	1817.005	1792.568
401.321	24.547	1814.131	1789.085
402.336	23.354	1810.528	1773.323
403.350	22.431	1808.286	1761.640
404.365	22.769	1807.196	1763.760
405.380	23.069	1805.775	1765.170
406.394	22.896	1805.596	1763.052
407.409	22.849	1803.374	1760.197
408.423	22.724	1801.244	1756.665
409.438	22.723	1800.889	1756.092
410.453	23.454	1801.614	1763.906
411.467	23.902	1802.206	1768.749
412.482	24.241	1801.332	1771.071
413.496	24.647	1800.448	1774.036
414.511	24.748	1797.303	1771.731
415.526	24.667	1795.194	1768.637
416.540	24.647	1794.700	1767.736
417.555	24.539	1792.971	1764.749
418.569	24.190	1792.429	1760.540
419.584	24.385	1792.730	1762.566
420.599	24.496	1792.504	1763.232
421.613	24.472	1791.783	1762.078
422.628	24.568	1791.298	1762.340
423.642	24.959	1789.313	1764.046
424.657	24.773	1786.912	1759.630
425.672	24.527	1784.548	1754.661
426.686	24.620	1783.842	1754.678
427.701	24.597	1782.705	1753.118
428.715	24.569	1781.289	1751.243
429.730	24.858	1779.652	1752.273
430.745	24.824	1777.942	1750.044
431.759	24.361	1777.398	1744.739
432.774	23.714	1774.323	1735.160
433.788	23.013	1772.380	1726.179
434.803	22.979	1771.387	1724.671
435.818	22.862	1771.862	1723.782
436.832	22.894	1770.237	1722.308
437.847	21.724	1760.968	1701.672
438.861	12.169	1735.235	1584.263
439.876	2.332	1716.594	1472.230
440.890	0.463	1712.224	1450.256
441.905	0.163	1711.985	1446.982
442.920	0.290	1710.106	1446.447
443.934	0.197	1708.210	1443.779
444.949	0.283	1706.755	1443.202
445.963	0.249	1706.090	1442.134
446.978	0.143	1705.964	1440.839
447.993	0.147	1704.658	1439.605
449.007	0.129	1701.817	1436.860
450.022	0.315	1699.931	1436.879
451.036	0.155	1698.907	1434.310
452.051	0.833	1701.446	1442.781
453.066	8.685	1722.304	1536.266
454.080	19.049	1740.434	1652.809
455.095	22.159	1745.404	1687.394
456.109	23.295	1746.532	1699.246
457.124	23.637	1746.270	1702.090
458.139	23.319	1745.111	1697.688
459.153	23.136	1743.137	1693.808
460.168	23.292	1741.717	1693.719
461.182	23.178	1740.680	1691.414
462.197	23.277	1738.268	1689.820
463.212	23.423	1736.886	1689.669
464.226	23.431	1736.400	1689.074
465.241	23.597	1734.875	1688.977
466.255	23.533	1733.331	1686.657
467.270	23.469	1732.332	1684.872
468.285	23.640	1731.100	1685.105
469.299	23.470	1730.795	1682.985
470.314	23.547	1727.921	1680.723
471.328	23.399	1727.318	1678.525
472.343	23.448	1725.960	1677.470
473.358	23.553	1723.911	1676.274
474.372	23.503	1722.367	1674.101
475.387	23.419	1721.745	1672.502
476.401	23.362	1720.765	1670.810
477.416	23.474	1718.794	1669.753
478.430	23.383	1718.239	1668.150
479.445	23.330	1717.042	1666.293
480.460	23.528	1715.109	1666.085
481.474	23.499	1714.216	1664.748
482.489	23.589	1712.497	1663.724
483.503	23.435	1710.521	1660.153
484.518	23.344	1709.409	1658.017
485.533	23.357	1708.142	1656.714
486.547	23.321	1705.917	1654.019
487.562	23.117	1705.114	1651.127
488.576	23.133	1703.820	1649.827
489.591	23.260	1702.346	1649.394
490.606	23.424	1701.278	1649.696
491.620	23.386	1700.204	1648.106
492.635	23.282	1698.337	1645.125
493.649	23.067	1696.320	1640.966
494.664	23.258	1696.087	1642.332
495.679	23.410	1694.897	1642.396
496.693	23.419	1693.521	1640.946
497.708	23.395	1693.265	1640.282
498.722	23.342	1691.707	1638.087
499.737	23.324	1690.308	1636.363
500.752	23.527	1688.152	1635.963
501.766	23.509	1686.739	1634.234
502.781	23.504	1685.042	1632.347
503.795	23.508	1683.574	1630.771
504.810	23.576	1683.025	1630.669
505.825	23.423	1682.915	1628.949
506.839	23.532	1681.005	1627.915
507.854	23.317	1680.249	1625.003
508.868	23.423	1677.775	1623.395
509.883	23.199	1676.154	1619.568
510.898	23.144	1675.104	1617.857
511.912	23.091	1673.527	1615.652
512.927	23.108	1671.761	1613.912
513.941	23.186	1670.499	1613.213
514.956	23.296	1670.308	1613.841
515.971	23.422	1668.910	1613.455
516.985	23.389	1667.239	1611.340
518.000	23.309	1665.325	1608.567
519.014	23.151	1664.572	1606.205
520.029	22.927	1663.778	1603.203
521.043	23.176	1661.916	1603.490
522.058	23.157	1660.390	1601.652
523.073	23.107	1659.526	1600.172
524.087	23.068	1658.534	1598.670
525.102	23.123	1657.415	1597.896
526.116	23.479	1656.862	1600.410
527.131	23.616	1655.543	1600.183
528.146	23.461	1654.828	1597.897
529.160	23.363	1653.286	1595.325
530.175	23.214	1652.605	1593.128
531.189	23.224	1651.078	1591.560
532.204	23.246	1648.973	1589.536
533.219	23.179	1648.217	1588.019
534.233	23.228	1648.301	1588.343
535.248	23.166	1645.443	1584.850
536.262	22.772	1643.795	1579.525
537.277	22.805	1643.103	1578.963
538.292	22.931	1642.139	1578.985
539.306	22.985	1639.987	1577.207
540.321	22.836	1638.815	1574.562
541.335	23.039	1637.973	1575.376
542.350	22.966	1636.487	1573.105
543.365	22.867	1634.093	1569.737
544.379	22.870	1632.267	1567.816
545.394	22.673	1631.566	1565.201
546.408	23.027	1629.894	1566.565
547.423	23.281	1630.338	1569.069
548.438	23.382	1629.191	1568.671
549.452	23.192	1627.474	1565.144
550.467	23.281	1626.525	1564.834
551.481	23.193	1625.471	1562.850
552.496	23.113	1624.586	1561.103
553.511	23.037	1622.757	1558.482
554.525	23.133	1621.138	1557.597
555.540	23.073	1620.896	1556.641
556.554	23.024	1619.160	1554.358
557.569	23.063	1617.695	1553.111
558.583	23.256	1616.656	1553.625
559.598	23.239	1615.676	1552.349
560.613	23.103	1614.996	1550.313
561.627	22.993	1613.288	1547.521
562.642	22.811	1611.553	1544.073
563.656	22.397	1610.077	1538.832
564.671	22.393	1608.707	1537.306
565.686	22.545	1606.931	1536.753
566.700	22.692	1606.562	1537.511
567.715	22.827	1604.691	1536.716
568.729	22.840	1603.474	1535.483
569.744	23.218	1602.538	1537.704
570.759	23.114	1601.048	1535.181
571.773	22.901	1600.338	1532.456
572.788	22.864	1598.216	1529.920
573.802	22.751	1596.214	1526.842
574.817	22.524	1595.036	1523.558
575.832	22.332	1593.988	1520.707
576.846	22.533	1593.388	1521.698
577.861	22.849	1592.325	1523.242
578.875	22.787	1591.930	1522.136
579.890	22.749	1589.896	1519.681
580.905	22.910	1588.368	1519.436
581.919	22.795	1588.222	1518.115
582.934	22.770	1587.247	1516.785
583.948	22.608	1586.055	1514.073
584.963	22.634	1584.572	1512.699
585.978	22.779	1583.392	1512.643
586.992	22.603	1581.421	1509.060
588.007	22.287	1580.849	1505.614
589.021	22.704	1580.420	1508.613
590.036	22.876	1579.688	1509.211
591.051	22.640	1577.726	1505.127
592.065	22.465	1575.007	1500.856
593.080	22.241	1573.541	1497.368
594.094	22.325	1572.406	1496.821
595.109	22.667	1571.097	1498.316
596.123	22.836	1570.824	1499.327
597.138	22.781	1568.899	1496.840
598.153	22.653	1567.995	1494.704
599.167	22.645	1566.839	1493.358
600.182	22.567	1566.002	1491.712
601.196	22.697	1564.598	1491.304
602.211	22.584	1563.245	1488.876
603.226	22.465	1561.887	1486.399
604.240	22.406	1560.226	1484.140
605.255	22.348	1558.366	1481.703
606.269	22.465	1558.480	1482.619
607.284	22.566	1557.285	1482.163
608.299	22.695	1555.757	1481.614
609.313	22.813	1554.988	1481.705
610.328	22.558	1553.535	1477.995
611.342	22.638	1551.672	1476.719
612.357	22.482	1550.609	1474.215
613.372	22.422	1549.526	1472.502
614.386	22.365	1548.650	1471.020
615.401	22.348	1548.189	1470.263
616.415	22.083	1547.216	1466.933
617.430	22.079	1545.902	1465.485
618.445	22.020	1543.959	1462.971
619.459	22.062	1543.412	1462.627
620.474	22.414	1542.766	1464.789
621.488	22.665	1542.364	1466.322
622.503	22.879	1541.617	1467.227
623.518	22.568	1539.299	1462.249
624.532	22.006	1537.911	1456.073
625.547	22.054	1535.917	1454.413
626.561	21.768	1534.902	1450.895
627.576	21.660	1533.420	1448.423
628.591	22.133	1533.421	1452.181
629.605	22.263	1532.587	1452.303
630.620	22.539	1531.049	1452.956
631.634	22.650	1531.025	1453.676
632.649	22.528	1529.827	1451.354
633.663	22.184	1527.780	1446.398
634.678	21.939	1525.337	1441.885
635.693	21.786	1522.826	1438.077
636.707	21.705	1521.665	1436.149
637.722	21.566	1520.427	1433.665
638.736	21.821	1519.663	1434.865
639.751	21.836	1518.744	1433.951
640.766	22.090	1517.623	1434.808
641.780	22.026	1516.601	1433.146
642.795	22.142	1515.712	1433.083
643.809	22.205	1515.532	1433.258
644.824	22.069	1514.584	1431.075
645.839	22.259	1513.604	1431.530
646.853	22.136	1512.018	1428.854
647.868	22.043	1510.755	1426.732
648.882	22.214	1509.353	1426.635
649.897	22.048	1507.923	1423.758
650.912	22.121	1505.487	1421.884
651.926	21.966	1504.578	1419.587
652.941	22.039	1503.673	1419.159
653.955	22.271	1502.977	1420.218
654.970	22.570	1502.075	1421.618
655.985	22.447	1500.385	1418.856
656.999	22.299	1499.754	1416.890
658.014	22.025	1498.035	1412.877
659.028	22.052	1495.725	1410.746
660.043	21.913	1495.723	1409.458
661.058	21.838	1493.819	1406.889
662.072	21.793	1492.837	1405.434
663.087	21.975	1491.977	1405.919
664.101	22.048	1491.115	1405.525
665.116	21.950	1490.115	1403.631
666.131	21.779	1489.783	1401.775
667.145	21.983	1487.562	1401.153
668.160	21.851	1486.324	1398.765
669.174	21.645	1484.705	1395.422
670.189	21.735	1483.952	1395.265
671.204	21.926	1484.002	1396.673
672.218	22.159	1482.397	1396.862
673.233	21.941	1480.665	1393.318
674.247	21.586	1478.974	1388.734
675.262	21.534	1478.207	1387.430
676.276	21.753	1477.099	1387.971
677.291	21.890	1477.010	1388.811
678.306	22.087	1475.920	1389.184
679.320	22.018	1474.505	1387.141
680.335	21.806	1473.807	1384.634
681.349	21.763	1472.694	1383.083
682.364	21.751	1471.342	1381.552
683.379	21.751	1470.203	1380.315
684.393	21.688	1468.233	1377.798
685.408	21.406	1467.452	1374.678
686.422	21.548	1466.497	1374.739
687.437	21.557	1465.334	1373.554
688.452	21.224	1464.439	1369.922
689.466	21.173	1463.114	1368.120
690.481	21.516	1461.329	1368.981
691.495	21.467	1461.891	1368.963
692.510	22.054	1461.133	1372.704
693.525	22.267	1459.647	1372.811
694.539	21.932	1457.928	1368.403
695.554	21.375	1456.697	1362.725
696.568	21.153	1455.095	1359.324
697.583	20.989	1454.282	1357.123
698.598	21.050	1453.779	1356.966
699.612	21.250	1451.901	1356.611
700.627	21.334	1450.502	1355.794
701.641	21.421	1450.239	1356.065
702.656	21.571	1449.036	1355.948
703.671	21.264	1448.561	1352.947
704.685	21.339	1447.873	1352.728
705.700	21.485	1446.141	1352.080
706.714	21.531	1444.560	1350.801
707.729	21.633	1443.397	1350.343
708.744	21.563	1442.184	1348.503
709.758	21.392	1441.430	1346.311
710.773	21.533	1441.198	1347.024
711.787	21.964	1439.634	1348.734
712.802	21.668	1437.974	1344.734
713.816	21.402	1436.825	1341.448
714.831	21.439	1435.336	1340.182
715.846	21.350	1433.457	1337.580
716.860	21.378	1432.232	1336.495
717.875	21.367	1432.099	1336.126
718.889	21.443	1431.001	1335.524
719.904	21.283	1429.777	1332.992
720.919	21.341	1428.469	1332.059
721.933	21.097	1427.385	1329.025
722.948	21.086	1426.528	1327.978
723.962	21.192	1425.363	1327.550
724.977	21.252	1423.137	1325.770
725.992	21.023	1422.773	1323.531
727.006	21.318	1421.776	1324.694
728.021	21.143	1420.322	1321.849
729.035	21.154	1419.398	1320.911
730.050	21.152	1418.781	1320.167
731.065	21.326	1417.601	1320.228
732.079	21.208	1416.435	1318.088
733.094	21.253	1415.983	1317.856
734.108	21.632	1413.798	1318.534
735.123	21.371	1411.995	1314.721
736.138	21.475	1411.550	1314.932
737.152	21.202	1410.882	1312.094
738.167	21.147	1409.572	1310.301
739.181	21.071	1408.644	1308.705
740.196	21.048	1408.172	1307.941
741.211	21.188	1406.984	1307.736
742.225	21.093	1406.189	1306.126
743.240	21.038	1404.190	1303.696
744.254	20.973	1402.527	1301.506
745.269	20.830	1401.273	1299.121
746.284	20.839	1400.942	1298.723
747.298	20.940	1400.181	1298.617
748.313	21.175	1399.745	1299.816
749.327	21.512	1399.527	1301.982
750.342	21.702	1399.741	1303.446
751.356	22.019	1398.857	1304.836
752.371	21.920	1396.798	1302.015
753.386	21.171	1395.042	1294.646
754.400	21.064	1393.527	1292.284
755.415	21.059	1392.520	1291.159
756.429	21.133	1390.978	1290.130
757.444	21.036	1389.992	1288.338
758.459	20.870	1388.955	1285.991
759.473	20.876	1387.075	1284.144
760.488	20.833	1386.005	1282.678
761.502	20.761	1384.868	1280.939
762.517	20.853	1383.609	1280.305
763.532	21.036	1382.870	1280.818
764.546	21.102	1381.881	1280.232
765.561	21.269	1381.732	1281.172
766.575	21.769	1381.554	1284.537
767.590	21.862	1379.854	1283.491
768.605	21.655	1377.336	1279.472
769.619	21.232	1376.225	1275.183
770.634	21.043	1375.086	1272.589
771.648	20.747	1374.112	1269.370
772.663	20.543	1373.574	1267.225
773.678	20.758	1372.633	1267.778
774.692	20.822	1372.382	1267.861
775.707	20.899	1371.391	1267.357
776.721	20.818	1370.036	1265.366
777.736	20.728	1368.858	1263.464
778.751	20.667	1368.072	1262.147
779.765	20.952	1367.186	1263.253
780.780	20.893	1366.242	1261.799
781.794	20.930	1365.586	1261.308
782.809	20.871	1363.929	1259.200
783.824	20.723	1363.233	1257.330
784.838	20.901	1362.223	1257.546
785.853	21.488	1361.428	1260.915
786.867	21.243	1361.089	1258.674
787.882	20.921	1359.664	1254.872
788.897	20.874	1358.482	1253.294
789.911	20.688	1357.691	1251.073
790.926	20.530	1355.953	1248.179
791.940	20.515	1354.409	1246.502
792.955	20.685	1352.514	1245.831
793.969	20.686	1351.373	1244.638
794.984	20.531	1351.625	1243.606
795.999	20.710	1350.168	1243.404
797.013	20.711	1348.288	1241.531
798.028	20.700	1347.020	1240.136
799.042	20.707	1346.329	1239.400
800.057	20.809	1344.453	1238.251
801.072	20.543	1344.179	1235.954
802.086	20.696	1342.995	1235.809
803.101	20.609	1342.080	1234.200
804.115	20.546	1341.259	1232.843
805.130	20.624	1340.201	1232.279
806.145	20.714	1338.036	1230.782
807.159	20.661	1337.127	1229.421
808.174	20.733	1336.082	1228.825
809.188	20.916	1334.769	1228.767
810.203	20.970	1333.621	1227.949
811.218	20.940	1332.863	1226.890
812.232	21.174	1331.769	1227.390
813.247	21.257	1331.741	1227.799
814.261	21.112	1330.303	1225.305
815.276	20.905	1328.813	1222.330
816.291	20.591	1327.376	1218.648
817.305	20.713	1325.713	1217.831
818.320	20.643	1324.459	1216.047
819.334	20.499	1323.501	1214.011
820.349	20.670	1322.089	1213.770
821.364	20.677	1320.822	1212.511
822.378	20.532	1319.597	1210.226
823.393	20.519	1317.415	1207.983
824.407	20.498	1316.022	1206.415
825.422	20.420	1316.754	1206.402
826.437	20.518	1315.729	1206.001
827.451	20.594	1313.818	1204.637
828.466	20.995	1313.092	1206.616
829.480	21.288	1311.714	1207.242
830.495	20.877	1309.472	1202.181
831.509	20.540	1308.303	1198.627
832.524	20.461	1307.124	1196.860
833.539	20.561	1305.916	1196.302
834.553	20.460	1304.435	1194.102
835.568	20.443	1303.908	1193.361
836.582	20.529	1302.808	1192.805
837.597	20.523	1301.571	1191.483
838.612	20.687	1299.879	1190.922
839.626	20.697	1299.218	1190.244
840.641	20.706	1299.112	1190.065
841.655	20.795	1298.262	1189.758
842.670	21.218	1298.566	1192.800
843.685	21.843	1297.554	1196.014
844.699	21.388	1294.575	1190.010
845.714	20.972	1292.597	1185.209
846.728	20.654	1292.585	1182.881
847.743	20.582	1290.706	1180.529
848.758	20.480	1289.996	1179.044
849.772	20.411	1287.949	1176.559
850.787	20.494	1286.126	1175.319
851.801	20.473	1285.462	1174.428
852.816	20.589	1284.149	1173.879
853.831	20.445	1282.847	1171.567
854.845	20.379	1281.223	1169.499
855.860	20.243	1280.352	1167.640
856.874	20.409	1279.009	1167.404
857.889	20.671	1277.982	1168.092
858.904	20.843	1277.167	1168.366
859.918	21.127	1276.397	1169.437
860.933	21.396	1274.619	1169.476
861.947	21.247	1273.798	1167.580
862.962	20.926	1272.132	1163.761
863.977	20.759	1270.562	1161.068
864.991	20.458	1269.278	1157.736
866.006	20.286	1269.432	1156.590
867.020	20.354	1267.913	1155.518
868.035	20.311	1266.889	1154.162
869.049	20.318	1266.179	1153.423
870.064	20.523	1264.865	1153.455
871.079	20.545	1264.504	1153.137
872.093	20.648	1264.188	1153.396
873.108	20.664	1262.842	1152.134
874.122	20.944	1261.512	1152.643
875.137	20.995	1262.197	1153.469
876.152	21.144	1261.201	1153.415
877.166	21.032	1258.813	1150.350
878.181	20.764	1257.294	1147.050
879.195	20.620	1256.358	1145.107
880.210	20.390	1255.671	1142.819
881.225	20.531	1255.102	1143.096
882.239	20.564	1253.816	1142.009
883.254	20.505	1252.570	1140.350
884.268	20.445	1251.865	1139.175
885.283	20.485	1250.616	1138.164
886.298	20.433	1249.067	1136.277
887.312	20.492	1247.852	1135.419
888.327	20.651	1246.320	1134.936
889.341	20.676	1245.059	1133.815
890.356	20.392	1244.960	1131.725
891.371	20.422	1244.386	1131.270
892.385	20.277	1243.808	1129.659
893.400	20.541	1242.763	1130.302
894.414	20.575	1241.847	1129.555
895.429	20.655	1240.599	1128.805
896.444	21.284	1240.467	1132.646
897.458	21.844	1239.470	1135.248
898.473	21.280	1238.201	1130.286
899.487	20.939	1236.163	1126.076
900.502	20.634	1234.546	1122.485
901.517	20.631	1233.111	1121.029
902.531	20.638	1232.062	1119.988
903.546	20.492	1231.882	1118.741
904.560	20.574	1231.415	1118.715
905.575	20.608	1230.571	1118.036
906.589	20.627	1229.699	1117.231
907.604	20.598	1228.877	1116.167
