DTS Sentinel unit serial number:	SN409020Multiplexer serial number:	ORYXHardware model number:	OX4-SRSoftware version number:	ORYX F/W v3.00 Oryx Data Collector v3.7.2.0data status	okinstallation	HaddamTimeLapsedifferential loss correction	single-endedforward channel	channel 3reverse channel	N/Adate	2011/06/22time	06:16:17forward acquisition time	30.00reverse acquisition time	0.00gamma	498.7831k internal	0.1751k external	0.1751temperature offset calibration	1.0074default loss term (dB/km)	0.3790temperature slope calibration	1.3530multiplexer offset coefficient	1.0000multiplexer slope coefficient	1.0000fibre end	0.00T internal ref (°C)	22.56T ext. ref 1 (°C)	18.31T ext. ref 2 (°C)	0.17length (m)	temperature (°C)	Stokes	anti-Stokes-747.200	-78.661	-0.355	-0.160
-746.185	-174.570	-0.365	0.014
-745.171	800.000	0.035	0.181
-744.156	32.831	-0.429	0.493
-743.142	-200.000	-0.004	-0.535
-742.127	-81.643	-0.286	0.124
-741.112	7.925	-0.154	0.153
-740.098	-145.178	-0.117	0.014
-739.083	-172.983	-0.185	-0.007
-738.069	800.000	-0.123	0.524
-737.054	-90.607	-0.128	0.049
-736.039	517.081	-0.126	0.392
-735.025	133.349	0.304	0.523
-734.010	-133.344	0.076	0.013
-732.996	-4.900	0.124	-0.113
-731.981	141.138	0.020	0.035
-730.966	-126.342	0.202	-0.040
-729.952	-128.469	-0.056	-0.010
-728.937	-33.727	0.226	0.165
-727.923	-60.226	-0.339	-0.191
-726.908	-94.294	0.587	0.212
-725.894	-200.000	0.052	-0.482
-724.879	44.676	0.116	-0.142
-723.864	252.152	0.170	-0.385
-722.850	-134.482	0.165	0.026
-721.835	-200.000	-0.028	0.646
-720.821	-80.792	-0.506	0.222
-719.806	-163.913	-0.547	0.033
-718.791	-83.708	0.113	-0.047
-717.777	17.658	-0.381	0.402
-716.762	-200.000	-0.077	-0.540
-715.748	-200.000	-0.007	0.236
-714.733	66.511	0.088	-0.119
-713.718	185.936	-0.170	-0.336
-712.704	-59.291	-0.394	-0.225
-711.689	-64.344	-0.326	-0.175
-710.675	68.228	-0.143	0.194
-709.660	398.208	0.036	-0.100
-708.645	800.000	-0.027	-0.121
-707.631	221.208	-0.130	-0.279
-706.616	-29.635	-0.412	-0.312
-705.602	-104.545	0.158	0.048
-704.587	94.402	0.276	0.417
-703.572	-105.913	0.397	-0.118
-702.558	141.567	-0.320	0.564
-701.543	158.937	0.008	0.016
-700.529	-43.725	-0.118	-0.079
-699.514	137.002	0.108	-0.188
-698.499	-16.952	-0.297	0.249
-697.485	-200.000	-0.006	-0.052
-696.470	-145.923	-0.331	-0.038
-695.456	-23.037	0.128	-0.102
-694.441	800.000	-0.089	-0.453
-693.426	-200.000	-0.004	-0.320
-692.412	-158.761	0.475	0.036
-691.397	-96.263	0.631	-0.220
-690.383	188.613	0.159	-0.316
-689.368	-200.000	-0.027	0.197
-688.354	72.048	0.249	-0.343
-687.339	130.571	0.104	-0.177
-686.324	-168.462	-0.314	-0.016
-685.310	-29.675	0.322	0.243
-684.295	-200.000	0.035	0.211
-683.281	67.349	-0.315	-0.427
-682.266	150.459	-0.145	-0.261
-681.251	140.423	0.165	0.289
-680.237	176.951	0.130	-0.251
-679.222	242.790	-0.093	-0.206
-678.208	210.785	0.048	0.100
-677.193	496.428	-0.055	0.170
-676.178	118.414	-0.164	0.268
-675.164	-84.530	-0.073	-0.031
-674.149	-164.648	0.418	0.025
-673.135	-45.406	0.065	0.043
-672.120	800.000	-0.025	0.130
-671.105	-8.749	-0.138	-0.123
-670.091	425.266	-0.006	-0.018
-669.076	60.233	-0.168	-0.220
-668.062	-144.461	0.312	0.038
-667.047	-182.123	-0.220	0.005
-666.032	-200.000	-0.022	0.391
-665.018	-142.942	-0.496	0.063
-664.003	190.589	0.088	0.176
-662.989	-131.000	0.349	0.061
-661.974	-8.451	-0.144	-0.128
-660.959	-78.596	0.212	0.096
-659.945	-35.773	0.066	0.047
-658.930	-200.000	0.000	0.353
-657.916	-97.772	-0.201	0.068
-656.901	29.848	-0.155	-0.175
-655.886	-20.106	-0.270	-0.220
-654.872	-127.095	-0.247	-0.048
-653.857	-200.000	0.030	-0.470
-652.843	178.165	0.073	0.141
-651.828	65.030	0.259	0.347
-650.814	53.569	0.390	0.496
-649.799	200.295	-0.127	0.259
-648.784	121.726	0.061	0.101
-647.770	87.641	0.108	-0.158
-646.755	-126.952	0.106	-0.020
-645.741	-36.561	-0.280	-0.199
-644.726	166.804	-0.249	-0.468
-643.711	107.566	0.112	0.177
-642.697	-169.629	-0.413	-0.020
-641.682	-44.914	0.724	-0.476
-640.668	-44.303	-0.537	0.355
-639.653	-90.459	0.668	-0.255
-638.638	-81.791	-0.193	0.083
-637.624	-77.445	-0.352	-0.161
-636.609	-68.244	0.256	0.131
-635.595	29.311	-0.178	0.200
-634.580	-200.000	0.030	-0.197
-633.565	-33.955	-0.226	0.164
-632.551	-191.323	-0.243	-0.003
-631.536	-27.747	-0.353	-0.270
-630.522	129.856	0.187	0.318
-629.507	289.691	-0.141	0.339
-628.492	113.616	-0.120	0.193
-627.478	-134.116	-0.351	-0.057
-626.463	293.118	0.065	-0.158
-625.449	-150.476	-0.781	-0.078
-624.434	-81.930	0.175	0.075
-623.419	73.825	0.190	0.264
-622.405	183.700	-0.169	-0.332
-621.390	21.280	0.262	-0.282
-620.376	631.961	0.052	-0.174
-619.361	-62.870	-0.302	0.165
-618.346	509.629	-0.082	0.252
-617.332	10.381	-0.286	-0.288
-616.317	-200.000	-0.044	0.381
-615.303	170.214	0.127	0.241
-614.288	-120.375	-0.466	-0.104
-613.273	-200.000	-0.023	-0.318
-612.259	-200.000	0.063	-0.437
-611.244	-33.833	0.047	-0.034
-610.230	-200.000	-0.006	0.186
-609.215	-35.153	0.209	-0.150
-608.201	24.212	-0.301	-0.328
-607.186	-32.747	-0.366	-0.269
-606.171	-130.473	-0.156	-0.028
-605.157	-61.039	0.344	0.191
-604.142	-142.141	0.694	-0.090
-603.128	-64.293	-0.180	-0.096
-602.113	95.139	0.078	0.118
-601.098	-200.000	-0.004	0.495
-600.084	732.881	0.117	0.415
-599.069	-85.614	0.567	-0.232
-598.055	-87.895	-0.191	-0.076
-597.040	-180.425	-0.310	0.008
-596.025	800.000	0.038	0.164
-595.011	800.000	0.091	-0.354
-593.996	105.787	-0.303	-0.473
-592.982	800.000	-0.045	-0.227
-591.967	471.140	0.140	-0.417
-590.952	-88.083	-0.131	0.052
-589.938	89.534	0.120	0.177
-588.923	121.598	-0.210	0.346
-587.909	482.557	0.126	-0.379
-586.894	2.641	-0.124	-0.118
-585.879	800.000	-0.063	0.282
-584.865	-200.000	0.016	-0.170
-583.850	176.060	-0.222	-0.427
-582.836	-49.223	-0.603	0.379
-581.821	145.161	-0.236	0.418
-580.806	-200.000	0.021	0.179
-579.792	-75.410	-0.305	0.143
-578.777	289.415	0.076	-0.182
-577.763	800.000	-0.156	-0.578
-576.748	-55.853	-0.533	-0.313
-575.733	35.271	-0.314	-0.363
-574.719	-58.009	0.337	-0.193
-573.704	800.000	0.017	0.099
-572.690	-148.913	-0.143	-0.015
-571.675	-22.974	-0.051	-0.040
-570.661	36.010	-0.182	0.211
-569.646	800.000	-0.024	0.088
-568.631	-61.797	-0.160	0.088
-567.617	-161.575	0.668	0.045
-566.602	-91.925	0.266	0.099
-565.588	-122.790	0.288	-0.061
-564.573	800.000	0.122	-0.539
-563.558	-102.884	0.531	-0.165
-562.544	25.646	0.256	-0.281
-561.529	-54.681	0.206	-0.122
-560.515	-105.069	0.293	-0.088
-559.500	-74.856	0.280	-0.132
-558.485	-114.719	0.262	-0.066
-557.471	128.652	0.125	0.210
-556.456	157.002	-0.082	-0.150
-555.442	-28.639	0.262	0.199
-554.427	-200.000	-0.004	0.144
-553.412	489.012	-0.029	0.088
-552.398	11.339	-0.056	-0.056
-551.383	-28.791	0.186	-0.141
-550.369	-110.667	-0.329	0.089
-549.354	-200.000	0.023	0.226
-548.339	207.910	0.168	0.347
-547.325	28.788	0.077	0.086
-546.310	-93.768	0.290	0.105
-545.296	-200.000	0.040	-0.485
-544.281	514.759	-0.100	0.309
-543.266	28.238	0.177	0.197
-542.252	-200.000	-0.008	0.314
-541.237	-200.000	0.053	0.590
-540.223	364.118	0.064	0.171
-539.208	-176.602	-0.275	-0.009
-538.193	411.489	0.044	-0.123
-537.179	-107.459	-0.372	-0.107
-536.164	-200.000	-0.039	0.331
-535.150	174.984	0.343	-0.656
-534.135	74.404	-0.093	-0.128
-533.121	-15.692	-0.086	-0.072
-532.106	-182.657	-0.415	-0.010
-531.091	-58.529	-0.468	0.267
-530.077	201.865	-0.184	0.375
-529.062	-4.462	-0.057	-0.052
-528.048	-44.543	0.273	-0.180
-527.033	432.554	0.055	0.158
-526.018	800.000	0.064	-0.275
-525.004	-82.360	-0.213	0.091
-523.989	-200.000	0.029	-0.196
-522.975	-26.986	-0.235	0.180
-521.960	-162.357	0.142	0.009
-520.945	-20.770	0.314	-0.253
-519.931	181.771	0.119	-0.232
-518.916	-118.441	0.007	-0.002
-517.902	316.436	0.054	0.134
-516.887	-177.249	0.275	-0.009
-515.872	-144.444	-0.390	0.047
-514.858	-73.046	-0.248	-0.119
-513.843	-91.503	0.356	-0.133
-512.829	-115.112	-0.609	0.151
-511.814	-47.370	0.448	-0.286
-510.799	205.465	0.150	0.308
-509.785	800.000	-0.165	-0.617
-508.770	-79.916	-0.369	-0.162
-507.756	-115.837	-0.501	-0.122
-506.741	-45.299	-0.172	-0.112
-505.726	-143.387	0.347	-0.043
-504.712	800.000	0.054	0.272
-503.697	-156.600	0.240	-0.019
-502.683	-34.043	-0.081	-0.058
-501.668	159.874	-0.212	-0.390
-500.653	-159.385	0.165	-0.012
-499.639	166.693	0.175	0.327
-498.624	20.017	0.258	-0.274
-497.610	-114.389	-0.165	-0.041
-496.595	-39.082	0.316	-0.218
-495.581	272.923	0.172	-0.402
-494.566	144.687	0.208	-0.366
-493.551	800.000	-0.136	-0.633
-492.537	800.000	0.055	-0.299
-491.522	196.096	0.113	-0.228
-490.508	-115.164	-0.179	0.044
-489.493	124.822	0.177	0.293
-488.478	-11.658	-0.176	0.152
-487.464	-105.000	-0.135	0.040
-486.449	-58.906	-0.401	0.227
-485.435	-78.638	-0.273	0.122
-484.420	11.061	-0.399	0.401
-483.405	-200.000	-0.026	0.344
-482.391	-116.496	0.293	-0.071
-481.376	-158.786	-0.637	0.047
-480.362	10.940	-0.278	-0.279
-479.347	-49.258	-0.658	0.412
-478.332	5.344	-0.135	-0.131
-477.318	-160.945	0.280	0.019
-476.303	-110.091	0.209	0.057
-475.289	-154.666	-0.429	0.037
-474.274	72.249	-0.156	-0.214
-473.259	516.184	0.066	0.203
-472.245	-14.161	0.187	0.159
-471.230	-100.083	-0.113	-0.037
-470.216	-118.592	-0.404	-0.093
-469.201	130.640	0.333	-0.562
-468.186	77.604	-0.301	-0.422
-467.172	-135.391	-0.153	-0.024
-466.157	48.395	-0.157	-0.194
-465.143	-64.853	0.307	0.163
-464.128	-119.194	0.438	0.100
-463.113	51.282	-0.117	0.146
-462.099	-52.845	-0.075	-0.045
-461.084	-122.755	0.356	0.075
-460.070	158.229	0.089	-0.163
-459.055	-200.000	0.026	-0.324
-458.040	48.634	0.041	-0.051
-457.026	655.625	-0.046	-0.155
-456.011	145.323	0.131	0.231
-454.997	39.865	0.190	0.224
-453.982	-68.448	0.626	0.318
-452.968	-108.227	0.239	0.067
-451.953	87.778	0.138	-0.201
-450.938	-106.608	0.298	0.086
-449.924	-37.983	0.188	-0.131
-448.909	435.710	-0.049	0.142
-447.895	800.000	-0.123	0.490
-446.880	728.635	0.175	-0.618
-445.865	-200.000	-0.048	-0.288
-444.851	-200.000	-0.046	-0.407
-443.836	-96.755	-0.233	0.080
-442.822	-8.266	0.124	0.109
-441.807	1.718	0.050	-0.047
-440.792	-62.266	0.172	0.094
-439.778	-136.957	0.279	-0.042
-438.763	-94.997	-0.304	0.107
-437.749	-141.397	-0.396	0.052
-436.734	251.043	-0.061	-0.137
-435.719	-90.335	-0.347	0.131
-434.705	-28.618	-0.299	0.225
-433.690	-122.577	-0.278	0.059
-432.676	133.805	-0.126	-0.214
-431.661	-176.073	-0.104	0.004
-430.646	12.578	0.114	-0.115
-429.632	-142.546	-0.511	0.065
-428.617	-200.000	0.026	-0.244
-427.603	19.049	0.296	-0.312
-426.588	116.200	0.274	-0.441
-425.573	154.419	-0.155	-0.280
-424.559	-23.803	-0.015	-0.012
-423.544	-82.883	-0.372	0.157
-422.530	102.473	0.110	-0.170
-421.515	26.818	-0.031	-0.034
-420.500	70.876	-0.122	-0.166
-419.486	-61.164	-0.219	-0.121
-418.471	-86.662	-0.187	0.075
-417.457	38.663	-0.134	0.157
-416.442	-141.532	-0.308	0.040
-415.428	98.886	-0.172	0.261
-414.413	228.220	-0.135	-0.289
-413.398	-98.026	-0.215	0.072
-412.384	800.000	0.054	0.300
-411.369	-110.501	0.130	-0.035
-410.355	-74.862	-0.301	-0.141
-409.340	172.011	0.100	-0.189
-408.325	305.714	0.261	-0.640
-407.311	800.000	-0.020	0.105
-406.296	-161.598	0.551	0.037
-405.282	-45.312	-0.322	-0.209
-404.267	122.856	-0.192	0.316
-403.252	-97.989	-0.140	-0.047
-402.238	-165.569	-0.560	0.031
-401.223	-183.712	0.236	-0.005
-400.209	-21.395	0.528	-0.422
-399.194	-78.692	-0.322	-0.143
-398.179	-41.270	-0.298	-0.201
-397.165	-130.551	-0.269	0.047
-396.150	166.821	-0.152	0.283
-395.136	-158.580	0.094	0.007
-394.121	-137.308	-0.203	0.030
-393.106	-29.514	-0.670	-0.501
-392.092	-74.224	-0.314	-0.148
-391.077	-61.889	-0.212	-0.116
-390.063	-49.838	0.139	0.086
-389.048	-200.000	-0.023	0.511
-388.033	-101.010	0.334	-0.107
-387.019	-53.218	0.112	-0.067
-386.004	-200.000	0.025	0.241
-384.990	-115.363	0.598	0.147
-383.975	-200.000	0.019	0.202
-382.960	-85.358	-0.010	0.004
-381.946	-200.000	0.032	0.365
-380.931	-15.224	-0.585	-0.490
-379.917	-95.136	-0.359	0.126
-378.902	-200.000	-0.005	0.031
-377.888	16.888	0.074	-0.076
-376.873	740.669	0.071	-0.250
-375.858	446.196	0.034	0.097
-374.844	-15.253	-0.495	0.414
-373.829	-156.622	0.277	0.022
-372.815	-128.576	0.337	-0.062
-371.800	-110.914	0.282	0.075
-370.785	-129.676	-0.039	0.007
-369.771	800.000	-0.044	0.226
-368.756	-90.164	0.148	0.056
-367.742	-61.703	-0.161	0.088
-366.727	271.685	-0.160	0.370
-365.712	24.964	-0.137	-0.149
-364.698	-181.345	-0.492	0.012
-363.683	800.000	0.068	0.264
-362.669	-110.622	-0.278	-0.075
-361.654	-46.247	0.253	-0.163
-360.639	-200.000	0.011	-0.106
-359.625	-38.057	0.270	0.187
-358.610	800.000	0.098	0.424
-357.596	-130.096	-0.441	0.078
-356.581	39.537	-0.271	0.318
-355.566	76.427	0.134	0.186
-354.552	239.280	-0.006	-0.013
-353.537	-66.500	-0.281	0.146
-352.523	7.251	-0.167	0.163
-351.508	168.145	-0.025	0.047
-350.493	268.586	0.105	-0.242
-349.479	-12.995	-0.221	-0.188
-348.464	-4.963	0.515	-0.464
-347.450	-8.916	0.068	-0.060
-346.435	800.000	-0.077	0.374
-345.420	28.431	-0.400	0.442
-344.406	-200.000	-0.039	0.239
-343.391	-26.318	-0.260	0.199
-342.377	800.000	0.032	-0.176
-341.362	-41.089	-0.187	-0.126
-340.348	82.338	-0.124	-0.176
-339.333	-42.954	0.236	0.156
-338.318	118.157	-0.236	-0.382
-337.304	104.354	0.119	-0.183
-336.289	-200.000	0.089	0.518
-335.275	-40.404	0.189	-0.128
-334.260	800.000	-0.054	-0.266
-333.245	78.987	0.160	0.225
-332.231	-200.000	0.014	0.204
-331.216	-70.877	0.267	0.131
-330.202	-11.889	0.332	-0.284
-329.187	717.827	0.026	0.093
-328.172	-122.238	0.291	0.062
-327.158	-46.467	-0.251	0.160
-326.143	-73.584	0.492	0.233
-325.129	10.740	0.492	0.491
-324.114	137.220	-0.167	0.287
-323.099	-20.241	-0.261	0.210
-322.085	15.449	-0.082	0.084
-321.070	-30.193	-0.025	0.019
-320.056	-167.866	-0.428	-0.022
-319.041	800.000	-0.085	-0.332
-318.026	-139.282	0.387	-0.054
-317.012	-38.202	-0.319	0.220
-315.997	-200.000	-0.024	0.233
-314.983	-23.347	0.457	0.358
-313.968	321.513	0.167	0.416
-312.953	246.448	-0.108	-0.239
-311.939	-75.845	0.252	0.116
-310.924	-84.001	0.569	0.235
-309.910	-26.822	0.272	0.207
-308.895	800.000	-0.071	0.290
-307.880	-82.564	-0.184	-0.078
-306.866	-85.670	-0.029	-0.012
-305.851	75.377	-0.315	0.434
-304.837	-133.173	-0.298	0.049
-303.822	800.000	-0.110	0.432
-302.807	-200.000	-0.009	0.131
-301.793	-76.559	0.619	-0.283
-300.778	-32.390	-0.359	-0.261
-299.764	131.906	-0.277	0.466
-298.749	-200.000	0.020	0.199
-297.735	425.730	-0.130	-0.366
-296.720	84.685	-0.241	-0.344
-295.705	-91.349	-0.079	-0.029
-294.691	83.257	0.183	-0.261
-293.676	437.293	-0.029	-0.083
-292.662	32.263	-0.318	0.359
-291.647	21.604	-0.162	0.172
-290.632	126.947	0.239	0.397
-289.618	-95.413	0.183	0.064
-288.603	199.928	0.097	-0.195
-287.589	549.706	0.145	-0.456
-286.574	-200.000	0.013	-0.370
-285.559	320.028	-0.156	-0.387
-284.545	-87.684	-0.365	0.143
-283.530	-200.000	0.026	0.262
-282.516	124.830	0.508	0.836
-281.501	110.950	0.196	0.308
-280.486	84.519	0.284	0.406
-279.472	-117.568	-0.378	0.088
-278.457	800.000	0.093	0.362
-277.443	-49.888	0.293	-0.181
-276.428	-174.350	0.146	0.005
-275.413	-20.494	0.248	-0.199
-274.399	-111.450	0.142	-0.037
-273.384	800.000	-0.048	-0.234
-272.370	-67.089	-0.070	0.036
-271.355	-200.000	-0.030	0.419
-270.340	-120.110	0.436	-0.097
-269.326	-159.069	0.513	0.037
-268.311	-19.984	0.485	-0.390
-267.297	-74.941	0.544	-0.253
-266.282	-200.000	-0.001	-0.185
-265.267	73.633	-0.118	-0.161
-264.253	552.296	0.023	-0.072
-263.238	8.855	0.432	0.424
-262.224	466.210	-0.094	0.277
-261.209	28.911	-0.048	-0.053
-260.195	-90.619	-0.098	-0.037
-259.180	-145.361	0.199	0.023
-258.165	800.000	-0.119	-0.552
-257.151	800.000	0.088	-0.364
-256.136	-57.673	0.070	0.040
-255.122	-92.726	0.370	-0.134
-254.107	-4.065	0.382	-0.345
-253.092	-4.703	-0.457	0.411
-252.078	178.997	0.283	0.540
-251.063	125.857	0.299	-0.494
-250.049	567.117	0.109	-0.347
-249.034	-142.416	-0.164	-0.021
-248.019	163.562	-0.093	-0.171
-247.005	181.387	-0.059	-0.114
-245.990	-67.913	-0.569	-0.288
-244.976	-181.734	0.379	0.009
-243.961	-77.071	0.305	-0.138
-242.946	-128.642	0.273	0.050
-241.932	21.774	-0.119	-0.127
-240.917	-200.000	0.064	-0.387
-239.903	800.000	0.097	0.391
-238.888	397.218	-0.135	0.369
-237.873	46.210	0.319	-0.385
-236.859	43.237	0.325	-0.387
-235.844	28.357	-0.203	-0.224
-234.830	-200.000	0.011	-0.150
-233.815	-100.717	0.274	0.087
-232.800	-84.912	0.084	-0.034
-231.786	151.374	0.338	0.601
-230.771	-76.004	0.218	0.100
-229.757	51.469	-0.261	-0.323
-228.742	-80.119	0.331	-0.144
-227.727	-62.273	-0.452	-0.244
-226.713	-113.035	-0.305	-0.078
-225.698	-107.318	0.272	0.077
-224.684	176.631	-0.076	-0.144
-223.669	-161.859	0.164	0.011
-222.655	-9.165	0.188	-0.163
-221.640	256.190	0.094	0.211
-220.625	-106.786	0.490	0.141
-219.611	-169.196	0.258	-0.012
-218.596	167.255	-0.246	-0.455
-217.582	8.102	0.382	0.373
-216.567	-77.626	-0.203	-0.091
-215.552	-107.556	-0.333	-0.094
-214.538	164.474	0.129	-0.238
-213.523	316.905	-0.126	0.311
-212.509	-21.862	-0.390	0.308
-211.494	-86.367	-0.158	0.063
-210.479	145.131	-0.178	0.311
-209.465	259.930	-0.186	0.419
-208.450	800.000	-0.054	0.273
-207.436	335.098	0.151	0.381
-206.421	132.618	0.077	0.129
-205.406	-64.313	-0.133	0.070
-204.392	251.136	-0.143	0.317
-203.377	451.776	0.080	-0.232
-202.363	143.459	0.287	-0.498
-201.348	-9.467	0.253	-0.219
-200.333	-91.429	0.199	-0.073
-199.319	-152.263	0.440	0.041
-198.304	-175.650	-0.470	-0.016
-197.290	-16.330	0.173	0.143
-196.275	-80.501	0.517	-0.223
-195.260	800.000	0.023	-0.130
-194.246	69.483	0.204	0.274
-193.231	800.000	-0.045	-0.236
-192.217	71.483	0.241	0.326
-191.202	-40.673	0.208	-0.140
-190.187	-182.751	0.439	-0.010
-189.173	800.000	-0.032	0.137
-188.158	-93.926	0.296	-0.105
-187.144	194.766	-0.204	-0.404
-186.129	-141.630	0.489	0.063
-185.114	644.353	-0.053	-0.177
-184.100	4.905	-0.241	-0.230
-183.085	-61.700	-0.154	0.084
-182.071	-133.497	0.283	0.046
-181.056	-33.483	-0.421	0.302
-180.042	-52.904	-0.322	0.192
-179.027	-151.647	0.184	0.017
-178.012	16.170	-0.169	0.173
-176.998	52.065	-0.199	0.247
-175.983	-200.000	0.002	0.271
-174.969	-187.041	-0.435	-0.008
-173.954	45.750	-0.125	0.150
-172.939	-148.690	-0.433	-0.045
-171.925	-200.000	-0.003	0.213
-170.910	-91.966	0.339	-0.124
-169.896	-60.079	0.275	0.152
-168.881	-34.491	0.160	0.114
-167.866	-119.524	-0.268	-0.060
-166.852	-69.818	-0.352	-0.174
-165.837	-138.057	-0.208	-0.030
-164.823	-200.000	0.031	-0.275
-163.808	-47.710	0.206	-0.129
-162.793	-87.606	-0.209	-0.082
-161.779	-200.000	-0.031	0.370
-160.764	130.812	0.330	0.551
-159.750	800.000	0.076	-0.402
-158.735	401.308	-0.012	0.034
-157.720	-200.000	-0.059	0.552
-156.706	-92.727	0.266	0.096
-155.691	-136.905	0.343	0.051
-154.677	25.377	0.277	0.299
-153.662	10.247	0.285	0.281
-152.647	-50.132	0.043	-0.026
-151.633	-200.000	-0.007	-0.083
-150.618	-65.860	0.330	-0.171
-149.604	211.093	-0.072	-0.147
-148.589	114.011	0.275	-0.435
-147.574	-75.440	0.230	-0.106
-146.560	-121.882	0.493	0.105
-145.545	-44.536	0.232	0.150
-144.531	-200.000	0.034	0.354
-143.516	-89.184	0.248	0.094
-142.502	-70.146	0.089	0.044
-141.487	-182.956	-0.359	0.008
-140.472	-200.000	0.000	-0.083
-139.458	-200.000	-0.012	-0.268
-138.443	-200.000	-0.001	-0.560
-137.429	590.777	-0.167	0.539
-136.414	-179.284	0.147	-0.004
-135.399	49.633	0.311	-0.380
-134.385	75.823	-0.177	0.242
-133.370	-133.723	0.418	-0.067
-132.356	124.609	-0.229	0.375
-131.341	315.223	-0.129	0.317
-130.326	-117.959	-0.374	0.086
-129.312	-52.418	0.332	0.199
-128.297	-200.000	0.025	-0.266
-127.283	527.114	0.127	0.390
-126.268	-10.320	-0.206	0.177
-125.253	116.073	0.173	-0.275
-124.239	51.743	-0.276	-0.341
-123.224	165.064	0.102	-0.188
-122.210	174.027	0.156	-0.293
-121.195	800.000	-0.106	0.433
-120.180	-169.145	-0.159	0.008
-119.166	-1.047	-0.315	0.288
-118.151	800.000	0.099	-0.373
-117.137	-20.169	-0.244	-0.194
-116.122	35.255	-0.198	-0.225
-115.107	330.239	0.260	-0.651
-114.093	800.000	-0.080	-0.305
-113.078	17.976	0.159	-0.164
-112.064	-200.000	-0.038	-0.492
-111.049	-18.478	0.155	0.125
-110.034	-57.816	0.250	-0.141
-109.020	54.763	-0.375	0.469
-108.005	-121.955	0.350	-0.074
-106.991	64.414	-0.106	0.139
-105.976	-37.152	0.359	-0.248
-104.962	-73.157	-0.242	0.114
-103.947	2.564	-0.200	0.187
-102.932	468.178	0.090	0.263
-101.918	-159.982	-0.619	-0.043
-100.903	-200.000	0.041	0.326
-99.889	-200.000	0.015	0.114
-98.874	-116.899	-0.302	0.071
-97.859	800.000	-0.051	-0.200
-96.845	35.987	-0.147	0.167
-95.830	-69.165	0.407	-0.202
-94.816	-5.149	-0.140	0.124
-93.801	-154.044	0.159	0.014
-92.786	100.834	-0.202	0.305
-91.772	-67.126	0.440	-0.224
-90.757	-139.455	-0.592	-0.081
-89.743	44.852	0.273	-0.325
-88.728	-135.880	-0.198	0.030
-87.713	-102.495	0.436	-0.134
-86.699	143.759	-0.140	0.242
-85.684	800.000	0.125	-0.500
-84.670	-200.000	-0.030	0.541
-83.655	428.481	0.106	0.297
-82.640	18.730	0.061	0.064
-81.626	-21.257	0.145	-0.114
-80.611	-200.000	-0.000	-0.092
-79.597	-20.844	-0.033	0.026
-78.582	-164.823	-0.312	-0.018
-77.567	-57.301	-0.225	-0.127
-76.553	91.159	-0.336	0.489
-75.538	17.987	-0.314	-0.324
-74.524	800.000	0.078	-0.400
-73.509	-8.390	-0.184	-0.160
-72.494	64.204	-0.166	-0.217
-71.480	-157.020	0.284	-0.022
-70.465	800.000	0.084	-0.316
-69.451	30.363	-0.096	-0.106
-68.436	-83.720	-0.199	-0.082
-67.422	-153.423	-0.455	-0.040
-66.407	-68.239	-0.411	-0.206
-65.392	46.043	0.193	-0.231
-64.378	171.146	0.091	-0.169
-63.363	73.267	-0.063	-0.085
-62.349	272.972	0.149	-0.342
-61.334	51.060	-2.253	-2.765
-60.319	9.348	1.208	1.181
-59.305	266.860	-3.415	-7.750
-58.290	101.036	3.652	5.504
-57.276	473.154	3.670	10.752
-56.261	-200.000	24.105	318.997
-55.246	356.128	1301.682	3367.028
-54.232	53.119	2842.958	3522.098
-53.217	51.426	2659.837	3268.942
-52.203	31.815	2388.756	2659.437
-51.188	27.819	2054.360	2237.929
-50.173	24.415	1941.461	2075.141
-49.159	23.371	1929.450	2050.078
-48.144	22.976	1925.086	2040.780
-47.130	22.749	1923.143	2036.007
-46.115	22.831	1920.404	2033.975
-45.100	22.847	1918.813	2032.397
-44.086	22.777	1917.823	2030.457
-43.071	22.732	1916.025	2027.957
-42.057	22.666	1915.132	2026.165
-41.042	22.820	1913.666	2026.309
-40.027	22.708	1911.394	2022.537
-39.013	22.837	1909.737	2022.183
-37.998	22.793	1909.238	2021.066
-36.984	22.722	1907.978	2018.835
-35.969	22.657	1906.889	2016.861
-34.954	22.580	1906.194	2015.165
-33.940	22.568	1904.464	2013.116
-32.925	22.703	1902.776	2012.799
-31.911	22.510	1902.675	2010.391
-30.896	22.683	1900.065	2009.539
-29.881	22.719	1898.977	2008.718
-28.867	22.541	1897.809	2005.370
-27.852	22.526	1896.532	2003.767
-26.838	22.513	1894.837	2001.750
-25.823	22.638	1892.850	2000.999
-24.809	22.563	1892.662	1999.863
-23.794	22.511	1891.079	1997.517
-22.779	22.517	1890.040	1996.411
-21.765	22.506	1888.349	1994.422
-20.750	22.562	1887.225	1993.793
-19.736	22.511	1886.796	1992.677
-18.721	22.596	1885.401	1992.093
-17.706	22.565	1883.730	1989.903
-16.692	22.504	1882.700	1988.041
-15.677	22.497	1880.983	1986.064
-14.663	22.496	1879.848	1984.778
-13.648	22.589	1878.474	1984.306
-12.633	22.527	1878.239	1983.273
-11.619	22.459	1876.498	1980.582
-10.604	22.507	1874.920	1979.385
-9.590	22.401	1874.129	1977.277
-8.575	22.482	1872.088	1975.960
-7.560	22.449	1870.753	1974.101
-6.546	22.467	1870.148	1973.582
-5.531	22.632	1868.783	1973.926
-4.517	22.390	1868.172	1970.478
-3.502	22.384	1866.807	1968.889
-2.487	22.508	1865.228	1968.543
-1.473	22.567	1861.295	1964.969
-0.458	22.450	1843.797	1945.126
0.556	19.081	1990.882	2047.781
1.571	17.896	2193.820	2240.628
2.586	18.651	2232.859	2290.362
3.600	18.722	2235.429	2293.680
4.615	18.690	2234.256	2291.770
5.629	18.711	2232.592	2290.076
6.644	18.650	2231.351	2287.711
7.659	18.642	2229.617	2285.547
8.673	18.792	2226.234	2283.804
9.688	18.451	2235.542	2288.509
10.702	17.532	2315.649	2357.440
11.717	16.000	2379.093	2399.825
12.731	7.433	2359.684	2257.864
13.746	1.040	2342.861	2150.485
14.761	0.055	2339.566	2133.166
15.775	0.070	2337.576	2131.317
16.790	0.075	2335.003	2128.788
17.804	0.030	2333.867	2126.858
18.819	0.035	2333.475	2126.307
19.834	0.011	2331.551	2123.958
20.848	-0.007	2329.550	2121.635
21.863	-0.064	2328.248	2119.381
22.877	-0.038	2326.923	2118.285
23.892	-0.042	2324.315	2115.610
24.907	-0.005	2321.198	2113.036
25.921	-0.027	2319.637	2111.058
26.936	-0.095	2318.010	2108.358
27.950	-0.083	2315.982	2106.437
28.965	0.000	2313.672	2105.253
29.980	-0.022	2312.348	2103.487
30.994	0.137	2309.744	2103.100
32.009	4.096	2322.195	2169.997
33.023	13.668	2349.983	2331.575
34.038	17.946	2357.524	2399.321
35.053	18.320	2355.734	2402.487
36.067	18.511	2352.574	2401.665
37.082	18.347	2351.294	2397.769
38.096	18.302	2349.194	2394.698
39.111	18.441	2347.435	2394.574
40.126	18.611	2345.131	2394.319
41.140	18.837	2343.309	2395.345
42.155	18.572	2341.522	2389.525
43.169	18.533	2339.372	2386.497
44.184	18.522	2336.838	2383.477
45.199	18.484	2333.609	2379.357
46.213	18.516	2333.217	2379.124
47.228	18.610	2332.411	2379.323
48.242	18.596	2330.736	2377.136
49.257	18.549	2329.541	2374.980
50.271	18.500	2327.728	2372.166
51.286	18.651	2323.643	2369.812
52.301	18.493	2322.504	2366.179
53.315	18.621	2323.475	2368.666
54.330	19.966	2326.259	2389.889
55.344	21.025	2324.265	2402.234
56.359	20.980	2321.837	2398.800
57.374	20.934	2321.330	2397.356
58.388	21.232	2318.128	2397.876
59.403	21.178	2314.702	2393.303
60.417	21.125	2312.156	2389.662
61.432	21.222	2310.811	2389.321
62.447	21.343	2309.434	2389.269
63.461	21.424	2308.186	2388.797
64.476	21.522	2306.125	2387.723
65.490	21.393	2305.615	2385.141
66.505	21.002	2301.897	2375.658
67.520	19.787	2297.451	2354.173
68.534	18.676	2291.239	2332.361
69.549	18.493	2287.327	2325.608
70.563	18.632	2286.095	2325.970
71.578	18.661	2284.169	2324.117
72.593	18.585	2282.183	2320.793
73.607	18.552	2281.398	2319.259
74.622	18.604	2278.845	2317.095
75.636	18.556	2275.452	2312.723
76.651	18.579	2274.406	2311.688
77.666	18.574	2272.493	2309.404
78.680	18.490	2270.994	2306.464
79.695	18.557	2267.997	2304.050
80.709	18.632	2267.413	2304.201
81.724	18.767	2264.466	2302.745
82.739	18.644	2262.456	2298.762
83.753	18.525	2260.688	2295.102
84.768	18.472	2259.112	2292.510
85.782	18.439	2257.898	2290.554
86.797	18.422	2255.073	2287.196
87.812	18.410	2253.474	2285.130
88.826	18.558	2250.805	2284.137
89.841	18.557	2249.087	2282.101
90.855	18.508	2247.609	2279.677
91.870	18.473	2245.852	2277.152
92.884	18.568	2243.877	2276.144
93.899	18.571	2242.198	2274.209
94.914	18.721	2243.600	2277.358
95.928	19.986	2246.223	2296.629
96.943	20.390	2244.189	2299.651
97.957	19.166	2238.800	2277.592
98.972	18.542	2234.465	2264.623
99.987	18.438	2230.860	2259.323
101.001	18.394	2229.096	2256.688
102.016	18.444	2227.155	2255.107
103.030	18.354	2225.745	2252.222
104.045	18.581	2223.165	2252.344
105.060	18.462	2220.721	2248.020
106.074	18.515	2218.519	2246.227
107.089	18.502	2216.640	2243.882
108.103	18.554	2216.391	2244.041
109.118	18.539	2215.116	2242.292
110.133	18.653	2213.888	2242.281
111.147	18.643	2211.913	2239.873
112.162	18.620	2210.003	2237.373
113.176	18.572	2207.704	2234.149
114.191	18.551	2205.325	2231.198
115.206	18.621	2203.965	2230.465
116.220	18.591	2202.235	2228.062
117.235	18.412	2199.736	2222.927
118.249	18.505	2197.570	2221.688
119.264	18.518	2196.899	2220.907
120.279	18.777	2195.054	2222.145
121.293	18.597	2193.200	2217.664
122.308	18.527	2191.592	2214.868
123.322	18.513	2191.293	2214.125
124.337	18.721	2191.146	2216.402
125.352	20.109	2194.542	2237.602
126.366	20.388	2192.527	2238.892
127.381	19.020	2185.257	2213.524
128.395	18.415	2181.307	2201.444
129.410	18.500	2180.238	2201.205
130.424	18.543	2177.826	2199.053
131.439	18.486	2176.341	2196.555
132.454	18.384	2174.843	2193.466
133.468	18.427	2172.370	2191.265
134.483	18.553	2171.279	2191.526
135.497	18.561	2169.173	2189.239
136.512	18.454	2167.072	2185.479
137.527	18.530	2165.677	2184.792
138.541	18.511	2164.086	2182.673
139.556	18.438	2163.336	2180.731
140.570	18.476	2160.996	2178.597
141.585	18.480	2159.246	2176.617
142.600	18.560	2157.631	2175.755
143.614	18.434	2156.411	2172.655
144.629	18.513	2154.126	2171.101
145.643	18.498	2153.243	2169.751
146.658	18.381	2151.967	2166.724
147.673	18.492	2148.981	2164.869
148.687	18.609	2148.090	2165.195
149.702	18.592	2147.442	2164.067
150.716	18.557	2146.137	2162.054
151.731	18.623	2144.754	2161.230
152.746	18.510	2143.921	2158.705
153.760	18.695	2145.314	2162.191
154.775	20.070	2147.910	2181.970
155.789	20.327	2145.288	2182.292
156.804	19.022	2138.962	2159.139
157.819	18.572	2133.789	2147.992
158.833	18.661	2131.725	2146.776
159.848	18.621	2129.280	2143.557
160.862	18.635	2128.911	2143.101
161.877	18.689	2127.485	2142.088
162.892	18.701	2126.083	2140.572
163.906	18.668	2125.393	2139.212
164.921	18.601	2123.310	2136.018
165.935	18.668	2121.193	2134.469
166.950	18.754	2119.353	2133.433
167.964	18.610	2116.806	2128.829
168.979	18.560	2115.778	2126.906
169.994	18.779	2113.431	2127.025
171.008	18.554	2112.982	2123.518
172.023	18.573	2110.648	2121.152
173.037	18.690	2109.309	2121.004
174.052	18.638	2107.810	2118.603
175.067	18.530	2105.845	2115.031
176.081	18.581	2104.177	2113.740
177.096	18.461	2103.301	2111.112
178.110	18.406	2101.807	2108.688
179.125	18.413	2101.321	2108.036
180.140	18.616	2099.504	2108.461
181.154	18.595	2097.850	2106.294
182.169	18.545	2096.732	2104.301
183.183	18.682	2097.281	2106.293
184.198	20.089	2100.326	2126.462
185.213	20.502	2098.224	2129.160
186.227	19.207	2093.323	2108.014
187.242	18.748	2089.411	2098.187
188.256	18.607	2088.419	2095.211
189.271	18.525	2087.180	2092.710
190.286	18.629	2085.630	2092.181
191.300	18.660	2081.863	2088.532
192.315	18.441	2080.350	2084.083
193.329	18.681	2078.935	2085.346
194.344	18.792	2078.635	2086.160
195.359	18.738	2077.426	2084.029
196.373	18.633	2075.358	2080.425
197.388	18.620	2072.250	2076.914
198.402	18.552	2070.074	2073.648
199.417	18.447	2068.193	2070.239
200.432	18.529	2067.202	2069.999
201.446	18.629	2066.133	2069.893
202.461	18.554	2064.431	2067.030
203.475	18.499	2062.880	2064.568
204.490	18.566	2060.113	2062.363
205.504	18.594	2057.814	2060.145
206.519	18.378	2056.703	2056.187
207.534	18.424	2054.719	2054.506
208.548	18.564	2053.983	2055.216
209.563	18.412	2052.271	2051.429
210.577	18.410	2050.915	2049.802
211.592	18.543	2050.584	2050.819
212.607	19.245	2052.669	2061.108
213.621	20.789	2055.814	2082.594
214.636	20.394	2050.637	2072.363
215.650	18.868	2045.382	2048.535
216.665	18.573	2042.259	2041.637
217.680	18.646	2041.315	2041.322
218.694	18.698	2039.653	2040.029
219.709	18.575	2038.267	2036.930
220.723	18.625	2037.283	2036.305
221.738	18.590	2035.196	2033.558
222.753	18.510	2032.825	2029.998
223.767	18.597	2031.300	2029.256
224.782	18.562	2029.598	2026.900
225.796	18.615	2029.139	2026.835
226.811	18.743	2027.436	2026.404
227.826	18.675	2026.123	2024.040
228.840	18.654	2024.550	2021.986
229.855	18.696	2022.746	2020.440
230.869	18.753	2021.314	2019.432
231.884	18.666	2019.162	2016.016
232.899	18.426	2018.795	2012.578
233.913	18.542	2016.908	2011.819
234.928	18.642	2015.398	2011.254
235.942	18.561	2014.492	2009.154
236.957	18.694	2013.163	2009.151
237.972	18.601	2011.619	2006.284
238.986	18.607	2010.576	2005.071
240.001	18.624	2008.129	2002.588
241.015	18.515	2007.241	2000.187
242.030	18.746	2008.180	2003.594
243.045	20.091	2009.204	2020.140
244.059	20.167	2007.222	2018.799
245.074	18.998	2001.876	1999.527
246.088	18.576	1998.500	1991.000
247.103	18.535	1996.617	1988.402
248.117	18.547	1995.812	1987.502
249.132	18.743	1993.878	1987.615
250.147	18.612	1992.299	1984.289
251.161	18.468	1990.797	1980.875
252.176	18.594	1989.391	1980.705
253.190	18.828	1987.813	1981.611
254.205	18.816	1986.098	1979.526
255.220	18.713	1985.550	1977.548
256.234	18.777	1984.008	1976.518
257.249	18.688	1982.576	1973.819
258.263	18.689	1981.400	1972.426
259.278	18.614	1980.029	1969.964
260.293	18.648	1978.456	1968.558
261.307	18.563	1976.067	1964.959
262.322	18.460	1974.673	1962.156
263.336	18.478	1972.775	1960.237
264.351	18.459	1971.241	1958.259
265.366	18.578	1969.468	1957.633
266.380	18.613	1968.603	1956.940
267.395	18.444	1968.078	1954.248
268.409	18.538	1965.791	1952.817
269.424	18.582	1964.024	1951.328
270.439	18.499	1963.704	1949.832
271.453	19.062	1963.173	1955.500
272.468	20.169	1965.644	1970.384
273.482	20.271	1963.269	1968.927
274.497	19.035	1957.458	1948.799
275.512	18.529	1954.021	1939.391
276.526	18.500	1951.958	1936.790
277.541	18.488	1950.516	1934.990
278.555	18.426	1949.619	1933.170
279.570	18.403	1946.717	1929.790
280.585	18.421	1945.018	1928.079
281.599	18.499	1943.797	1927.525
282.614	18.597	1943.510	1928.116
283.628	18.750	1941.763	1927.877
284.643	18.648	1942.004	1926.734
285.657	18.713	1940.829	1926.079
286.672	18.786	1939.000	1924.852
287.687	18.745	1937.300	1922.466
288.701	18.817	1936.022	1921.779
289.716	18.719	1934.101	1918.541
290.730	18.694	1932.849	1916.793
291.745	18.495	1931.764	1913.259
292.760	18.634	1930.341	1913.169
293.774	18.600	1929.244	1911.474
294.789	18.548	1928.485	1909.910
295.803	18.494	1925.918	1906.542
296.818	18.501	1924.716	1905.203
297.833	18.642	1922.406	1904.255
298.847	18.574	1922.476	1903.343
299.862	18.662	1920.231	1901.865
300.876	18.839	1920.015	1903.396
301.891	20.253	1922.382	1921.267
302.906	20.502	1921.792	1923.226
303.920	19.235	1916.501	1903.633
304.935	18.617	1912.954	1893.029
305.949	18.618	1910.373	1890.263
306.964	18.612	1909.239	1888.850
307.979	18.677	1907.857	1887.975
308.993	18.762	1905.541	1886.392
310.008	18.686	1905.556	1885.336
311.022	18.787	1904.056	1884.741
312.037	18.789	1902.236	1882.741
313.052	18.831	1900.487	1881.241
314.066	18.909	1897.924	1879.341
315.081	18.652	1898.365	1876.724
316.095	18.798	1897.007	1876.762
317.110	18.898	1894.625	1875.283
318.125	18.885	1893.456	1873.759
319.139	18.879	1892.117	1872.140
320.154	18.793	1891.380	1870.243
321.168	18.729	1890.406	1868.361
322.183	18.750	1888.503	1866.482
323.197	18.603	1887.068	1863.234
324.212	18.610	1884.628	1860.683
325.227	18.478	1882.691	1857.105
326.241	18.659	1881.191	1857.373
327.256	18.596	1880.192	1855.487
328.270	18.523	1880.140	1854.411
329.285	18.622	1878.862	1854.012
330.300	19.082	1881.429	1861.326
331.314	20.578	1883.095	1879.013
332.329	20.318	1879.436	1872.317
333.343	18.956	1873.790	1851.734
334.358	18.656	1871.423	1845.927
335.373	18.686	1869.322	1843.964
336.387	18.632	1866.945	1840.818
337.402	18.568	1866.110	1839.079
338.416	18.577	1865.057	1837.919
339.431	18.703	1863.263	1837.284
340.446	18.776	1862.083	1836.686
341.460	18.789	1860.928	1835.467
342.475	18.773	1859.796	1833.965
343.489	18.788	1858.027	1832.154
344.504	18.687	1857.781	1830.612
345.519	18.964	1855.190	1830.805
346.533	18.999	1853.612	1829.406
347.548	19.012	1852.580	1828.308
348.562	19.002	1851.654	1827.068
349.577	18.893	1850.596	1824.637
350.592	18.850	1848.948	1822.336
351.606	18.719	1847.175	1818.977
352.621	18.765	1845.182	1817.285
353.635	18.556	1843.949	1813.627
354.650	18.565	1841.967	1811.562
355.665	18.460	1841.211	1809.482
356.679	18.565	1839.544	1808.740
357.694	18.535	1838.099	1806.795
358.708	18.495	1838.766	1806.809
359.723	19.187	1839.171	1814.322
360.738	20.686	1840.685	1831.470
361.752	20.387	1836.321	1823.750
362.767	18.834	1832.059	1802.933
363.781	18.419	1830.519	1796.822
364.796	18.430	1829.029	1795.260
365.810	18.385	1827.622	1793.187
366.825	18.358	1826.652	1791.738
367.840	18.611	1825.227	1792.783
368.854	18.576	1824.634	1791.628
369.869	18.356	1822.978	1787.474
370.883	18.341	1821.007	1785.176
371.898	18.364	1820.397	1784.597
372.913	18.462	1818.956	1783.997
373.927	18.505	1818.005	1783.298
374.942	18.621	1816.424	1782.751
375.956	18.681	1814.341	1781.120
376.971	18.592	1812.640	1778.304
377.986	18.515	1811.223	1775.908
379.000	18.608	1809.605	1775.074
380.015	18.715	1809.569	1775.933
381.029	18.707	1807.973	1774.078
382.044	18.771	1805.457	1772.058
383.059	18.716	1803.407	1769.266
384.073	18.586	1802.422	1766.736
385.088	18.624	1801.889	1766.403
386.102	18.464	1800.893	1763.560
387.117	18.455	1797.468	1759.899
388.132	18.375	1797.607	1758.998
389.146	18.921	1799.798	1766.571
390.161	20.488	1801.244	1783.967
391.175	20.281	1796.425	1776.842
392.190	18.927	1790.734	1757.104
393.205	18.438	1787.792	1748.997
394.219	18.499	1787.023	1748.654
395.234	18.493	1785.541	1746.938
396.248	18.590	1783.919	1746.126
397.263	18.626	1780.922	1743.356
398.278	18.411	1779.931	1739.986
399.292	18.566	1778.946	1740.392
400.307	18.696	1779.144	1741.709
401.321	18.805	1777.635	1741.126
402.336	18.660	1776.114	1737.955
403.350	18.859	1774.841	1738.523
404.365	18.952	1773.970	1738.412
405.380	19.056	1772.887	1738.196
406.394	19.048	1771.415	1736.465
407.409	19.006	1770.119	1734.557
408.423	18.896	1769.077	1732.213
409.438	18.873	1767.364	1730.101
410.453	18.846	1766.187	1728.471
411.467	18.895	1765.072	1727.668
412.482	18.790	1763.299	1724.659
413.496	18.550	1762.820	1721.570
414.511	18.575	1760.636	1719.477
415.526	18.548	1757.639	1716.075
416.540	18.678	1755.420	1715.004
417.555	18.714	1754.548	1714.315
418.569	18.581	1755.406	1713.607
419.584	18.670	1755.241	1714.136
420.599	18.748	1755.182	1714.658
421.613	18.678	1754.213	1712.801
422.628	18.814	1752.316	1712.106
423.642	18.692	1750.934	1709.330
424.657	18.772	1748.822	1707.868
425.672	18.658	1747.017	1704.755
426.686	18.596	1746.535	1703.464
427.701	18.397	1744.326	1699.124
428.715	18.512	1742.247	1698.037
429.730	18.489	1741.701	1697.076
430.745	18.596	1741.391	1697.633
431.759	18.469	1740.457	1695.263
432.774	18.410	1739.763	1693.797
433.788	18.551	1738.463	1693.721
434.803	18.492	1737.610	1692.102
435.818	18.430	1737.084	1690.776
436.832	18.296	1735.755	1687.952
437.847	17.388	1728.851	1672.069
438.861	9.738	1708.498	1577.232
439.876	1.688	1693.758	1484.749
440.890	0.271	1689.830	1467.265
441.905	0.141	1687.937	1464.178
442.920	0.081	1686.986	1462.585
443.934	0.082	1686.370	1461.890
444.949	-0.053	1685.611	1459.738
445.963	0.006	1684.126	1458.851
446.978	-0.008	1684.157	1458.564
447.993	0.057	1682.537	1457.619
449.007	0.089	1680.535	1456.026
450.022	0.133	1677.890	1453.987
451.036	0.091	1676.987	1452.622
452.051	1.100	1681.007	1465.741
453.066	8.830	1698.263	1556.303
454.080	16.612	1710.047	1643.149
455.095	18.041	1711.453	1658.247
456.109	18.145	1711.064	1658.690
457.124	18.113	1710.170	1657.306
458.139	18.074	1709.949	1656.515
459.153	18.065	1708.259	1654.598
460.168	17.975	1706.907	1652.212
461.182	17.982	1704.709	1649.954
462.197	18.085	1703.237	1649.333
463.212	18.099	1701.842	1647.915
464.226	18.134	1700.743	1646.996
465.241	18.220	1699.326	1646.259
466.255	18.098	1698.474	1644.061
467.270	18.072	1697.744	1642.904
468.285	18.156	1696.296	1642.117
469.299	18.173	1694.676	1640.517
470.314	18.139	1692.616	1637.995
471.328	17.993	1692.089	1635.884
472.343	17.967	1691.399	1634.770
473.358	18.146	1689.091	1634.063
474.372	18.240	1687.638	1633.362
475.387	18.021	1686.829	1630.290
476.401	18.129	1685.323	1629.668
477.416	18.323	1683.786	1629.844
478.430	18.125	1682.755	1626.756
479.445	18.198	1681.458	1626.006
480.460	18.222	1680.209	1624.831
481.474	18.091	1679.628	1622.828
482.489	18.190	1678.283	1622.276
483.503	18.346	1675.234	1620.626
484.518	18.148	1674.700	1618.024
485.533	18.022	1674.761	1616.692
486.547	18.064	1672.730	1614.936
487.562	18.213	1671.607	1615.074
488.576	18.210	1670.318	1613.606
489.591	18.194	1668.409	1611.420
490.606	18.189	1667.730	1610.525
491.620	18.202	1666.087	1608.866
492.635	18.138	1663.671	1605.738
493.649	18.088	1663.235	1604.657
494.664	18.058	1662.403	1603.378
495.679	18.063	1661.121	1601.996
496.693	18.226	1658.933	1601.226
497.708	18.189	1657.654	1599.451
498.722	18.136	1656.737	1597.882
499.737	18.143	1655.568	1596.626
500.752	18.132	1653.677	1594.504
501.766	18.104	1652.291	1592.717
502.781	18.133	1650.897	1591.459
503.795	18.098	1649.687	1589.767
504.810	18.226	1648.546	1589.677
505.825	18.220	1648.311	1589.206
506.839	18.113	1647.393	1587.126
507.854	18.133	1645.467	1585.273
508.868	18.111	1644.295	1583.747
509.883	18.119	1643.335	1582.703
510.898	18.151	1641.782	1581.314
511.912	18.129	1640.454	1579.643
512.927	18.043	1638.741	1577.012
513.941	18.090	1637.476	1576.042
514.956	18.073	1636.680	1574.923
515.971	18.148	1634.935	1573.751
516.985	18.088	1633.945	1572.053
518.000	18.081	1633.223	1571.112
519.014	18.057	1632.548	1570.052
520.029	18.042	1630.523	1567.775
521.043	18.175	1628.350	1566.723
522.058	18.144	1628.095	1566.007
523.073	18.128	1627.720	1565.312
524.087	18.193	1626.182	1564.242
525.102	18.168	1624.549	1562.255
526.116	18.256	1623.092	1561.476
527.131	18.180	1622.984	1560.487
528.146	18.269	1621.456	1559.647
529.160	18.204	1619.979	1557.444
530.175	18.151	1618.696	1555.537
531.189	18.089	1618.338	1554.441
532.204	18.166	1616.749	1553.436
533.219	18.093	1615.189	1551.085
534.233	18.087	1614.834	1550.502
535.248	18.122	1614.154	1549.984
536.262	18.139	1612.632	1548.485
537.277	18.190	1612.186	1548.337
538.292	18.151	1609.310	1545.033
539.306	18.202	1606.843	1542.946
540.321	18.304	1605.843	1542.723
541.335	18.211	1605.544	1541.414
542.350	18.216	1603.887	1539.684
543.365	18.251	1602.204	1538.198
544.379	18.140	1601.191	1536.035
545.394	18.185	1599.738	1534.868
546.408	18.192	1598.737	1533.785
547.423	18.063	1597.829	1531.566
548.438	18.170	1596.707	1531.270
549.452	18.272	1595.128	1530.497
550.467	18.171	1594.437	1528.743
551.481	18.120	1593.514	1527.211
552.496	18.164	1592.246	1526.213
553.511	18.247	1590.598	1525.192
554.525	18.137	1590.227	1523.669
555.540	18.105	1589.746	1522.735
556.554	18.237	1588.216	1522.269
557.569	18.297	1586.081	1520.577
558.583	18.231	1584.428	1518.226
559.598	18.232	1583.472	1517.134
560.613	18.184	1582.120	1515.228
561.627	18.241	1580.259	1513.774
562.642	18.099	1579.383	1511.489
563.656	18.089	1578.692	1510.560
564.671	18.064	1577.232	1508.763
565.686	18.107	1576.550	1508.311
566.700	18.088	1575.056	1506.530
567.715	18.130	1573.736	1505.459
568.729	18.024	1572.048	1502.728
569.744	18.250	1570.678	1503.230
570.759	18.246	1569.283	1501.685
571.773	18.203	1568.124	1500.018
572.788	18.096	1567.824	1498.601
573.802	18.067	1565.721	1496.163
574.817	18.073	1564.040	1494.432
575.832	18.179	1563.059	1494.243
576.846	18.321	1561.616	1493.932
577.861	18.001	1560.690	1490.061
578.875	17.918	1561.177	1489.617
579.890	18.197	1559.655	1490.433
580.905	18.243	1558.479	1489.535
581.919	18.086	1558.487	1487.987
582.934	18.280	1557.181	1488.258
583.948	18.142	1554.831	1484.631
584.963	18.156	1554.020	1483.803
585.978	18.143	1552.939	1482.479
586.992	18.257	1552.117	1482.506
588.007	18.263	1550.990	1481.303
589.021	18.206	1550.375	1480.043
590.036	18.250	1548.805	1478.753
591.051	18.092	1548.457	1476.868
592.065	18.170	1546.469	1475.474
593.080	18.186	1544.522	1473.580
594.094	18.309	1542.656	1472.684
595.109	18.251	1540.709	1470.150
596.123	18.242	1539.412	1468.656
597.138	18.161	1538.905	1467.302
598.153	18.246	1537.652	1466.661
599.167	18.214	1536.460	1465.073
600.182	18.150	1535.168	1463.114
601.196	18.287	1534.198	1463.198
602.211	18.206	1533.411	1461.575
603.226	18.219	1532.195	1460.351
604.240	18.135	1531.084	1458.401
605.255	18.100	1529.832	1456.730
606.269	18.260	1528.623	1456.774
607.284	18.200	1527.308	1454.835
608.299	18.301	1525.951	1454.225
609.313	18.220	1524.739	1452.208
610.328	18.293	1523.478	1451.452
611.342	18.150	1522.427	1449.067
612.357	18.272	1521.787	1449.317
613.372	18.261	1520.695	1448.016
614.386	18.279	1519.214	1446.578
615.401	18.178	1518.741	1445.096
616.415	18.244	1518.168	1444.939
617.430	18.198	1517.698	1443.929
618.445	18.216	1515.291	1441.624
619.459	18.128	1514.973	1440.399
620.474	18.271	1513.433	1439.975
621.488	18.199	1512.271	1438.090
622.503	18.072	1511.377	1435.994
623.518	18.057	1510.440	1434.805
624.532	18.314	1508.899	1435.338
625.547	18.278	1507.432	1433.464
626.561	18.250	1507.748	1433.358
627.576	18.211	1506.825	1431.981
628.591	18.178	1504.664	1429.480
629.605	18.232	1502.913	1428.096
630.620	18.169	1501.824	1426.366
631.634	18.116	1501.279	1425.225
632.649	18.142	1500.479	1424.518
633.663	18.165	1498.633	1422.784
634.678	18.308	1496.722	1421.995
635.693	18.265	1495.699	1420.498
636.707	18.220	1494.858	1419.153
637.722	18.304	1493.633	1418.516
638.736	18.245	1492.862	1417.125
639.751	18.269	1492.014	1416.355
640.766	18.364	1490.212	1415.262
641.780	18.241	1488.958	1412.881
642.795	18.333	1487.959	1412.523
643.809	18.247	1487.826	1411.518
644.824	18.160	1487.059	1409.895
645.839	18.198	1485.761	1408.817
646.853	18.245	1483.771	1407.147
647.868	18.173	1482.288	1404.978
648.882	18.199	1481.964	1404.716
649.897	18.301	1479.902	1403.435
650.912	18.378	1478.921	1402.973
651.926	18.265	1478.087	1401.081
652.941	18.457	1476.687	1401.167
653.955	18.312	1474.899	1398.107
654.970	18.238	1473.634	1396.138
655.985	18.265	1472.544	1395.162
656.999	18.341	1471.397	1394.530
658.014	18.442	1469.531	1393.415
659.028	18.312	1469.076	1391.760
660.043	18.369	1468.486	1391.493
661.058	18.370	1467.556	1390.457
662.072	18.356	1466.293	1388.983
663.087	18.292	1465.523	1387.559
664.101	18.278	1464.499	1386.310
665.116	18.251	1463.233	1384.725
666.131	18.384	1461.340	1383.852
667.145	18.273	1460.565	1382.052
668.160	18.243	1459.912	1381.027
669.174	18.318	1458.517	1380.150
670.189	18.426	1456.800	1379.233
671.204	18.364	1456.358	1378.148
672.218	18.220	1455.887	1376.367
673.233	18.262	1453.944	1374.711
674.247	18.407	1452.976	1374.798
675.262	18.251	1452.612	1373.034
676.276	18.223	1451.510	1371.600
677.291	18.327	1450.222	1371.056
678.306	18.391	1449.138	1370.385
679.320	18.219	1447.779	1367.553
680.335	18.261	1447.060	1367.048
681.349	18.309	1446.231	1366.480
682.364	18.290	1445.303	1365.291
683.379	18.349	1443.628	1364.021
684.393	18.277	1442.342	1362.064
685.408	18.357	1441.130	1361.394
686.422	18.253	1439.933	1359.267
687.437	18.287	1439.751	1359.207
688.452	18.367	1438.582	1358.577
689.466	18.516	1437.082	1358.189
690.481	18.392	1436.003	1356.021
691.495	18.278	1435.391	1354.371
692.510	18.212	1434.260	1352.615
693.525	18.246	1432.584	1351.145
694.539	18.282	1431.539	1350.284
695.554	18.062	1432.064	1348.869
696.568	18.109	1430.727	1347.821
697.583	18.295	1428.899	1347.412
698.598	18.377	1428.124	1347.170
699.612	18.371	1426.270	1345.212
700.627	18.451	1425.272	1344.738
701.641	18.412	1424.250	1343.307
702.656	18.332	1423.850	1342.137
703.671	18.372	1423.546	1342.002
704.685	18.509	1422.442	1341.880
705.700	18.411	1420.861	1339.458
706.714	18.343	1419.276	1337.273
707.729	18.381	1418.096	1336.299
708.744	18.359	1417.394	1335.305
709.758	18.144	1416.737	1332.844
710.773	18.403	1415.369	1333.421
711.787	18.550	1413.279	1332.437
712.802	18.411	1411.870	1329.868
713.816	18.521	1411.779	1330.479
714.831	18.320	1411.541	1328.533
715.846	18.557	1409.332	1328.138
716.860	18.445	1407.928	1325.784
717.875	18.470	1407.139	1325.079
718.889	18.554	1405.854	1324.361
719.904	18.399	1405.102	1322.292
720.919	18.496	1403.772	1321.635
721.933	18.471	1403.087	1320.634
722.948	18.534	1402.208	1320.139
723.962	18.462	1401.484	1318.739
724.977	18.423	1400.168	1317.041
725.992	18.477	1398.911	1316.125
727.006	18.519	1397.554	1315.010
728.021	18.385	1396.669	1312.987
729.035	18.312	1395.758	1311.416
730.050	18.389	1395.040	1311.173
731.065	18.445	1393.590	1310.084
732.079	18.495	1392.471	1309.257
733.094	18.561	1390.720	1307.959
734.108	18.345	1389.805	1305.292
735.123	18.336	1388.621	1303.954
736.138	18.353	1387.386	1302.769
737.152	18.457	1386.689	1302.755
738.167	18.549	1385.448	1302.131
739.181	18.222	1385.388	1299.426
740.196	18.321	1384.388	1299.087
741.211	18.499	1383.577	1299.528
742.225	18.239	1382.535	1296.414
743.240	18.333	1380.543	1295.104
744.254	18.464	1379.161	1294.649
745.269	18.328	1378.680	1293.009
746.284	18.271	1378.019	1291.801
747.298	18.333	1377.117	1291.273
748.313	18.293	1375.461	1289.257
749.327	18.283	1374.592	1288.215
750.342	18.232	1373.538	1286.691
751.356	18.350	1372.280	1286.249
752.371	18.147	1371.837	1284.142
753.386	18.192	1371.146	1283.682
754.400	18.359	1369.952	1283.669
755.415	18.471	1368.877	1283.354
756.429	18.441	1367.219	1281.422
757.444	18.273	1366.219	1279.070
758.459	18.505	1365.283	1279.782
759.473	18.435	1364.408	1278.278
760.488	18.590	1363.143	1278.104
761.502	18.634	1361.896	1277.109
762.517	18.481	1361.186	1275.149
763.532	18.587	1359.548	1274.254
764.546	18.396	1358.507	1271.698
765.561	18.485	1357.753	1271.508
766.575	18.467	1357.668	1271.138
767.590	18.235	1356.800	1268.448
768.605	18.481	1354.734	1268.192
769.619	18.439	1353.564	1266.635
770.634	18.397	1352.851	1265.501
771.648	18.506	1351.737	1265.119
772.663	18.527	1351.101	1264.525
773.678	18.517	1349.830	1263.112
774.692	18.502	1349.227	1262.287
775.707	18.381	1349.607	1261.595
776.721	18.519	1348.054	1261.008
777.736	18.506	1346.210	1259.037
778.751	18.536	1345.082	1258.053
779.765	18.575	1344.178	1257.349
780.780	18.594	1343.454	1256.658
781.794	18.602	1342.319	1255.501
782.809	18.417	1341.655	1253.370
783.824	18.404	1340.854	1252.380
784.838	18.166	1339.158	1248.902
785.853	18.169	1338.055	1247.744
786.867	18.081	1337.625	1246.545
787.882	18.336	1337.125	1247.798
788.897	18.365	1336.403	1247.186
789.911	18.272	1335.241	1245.276
790.926	18.256	1334.169	1244.011
791.940	18.297	1332.994	1243.064
792.955	18.435	1331.268	1242.315
793.969	18.399	1329.666	1240.408
794.984	18.437	1328.956	1239.872
795.999	18.542	1328.438	1240.005
797.013	18.440	1326.353	1237.171
798.028	18.516	1325.354	1236.637
799.042	18.484	1324.783	1235.729
800.057	18.471	1324.194	1234.938
801.072	18.455	1322.604	1233.188
802.086	18.539	1320.810	1231.976
803.101	18.503	1319.970	1230.781
804.115	18.626	1318.906	1230.533
805.130	18.686	1317.583	1229.586
806.145	18.426	1317.396	1227.385
807.159	18.622	1315.682	1227.054
808.174	18.635	1314.287	1225.701
809.188	18.557	1313.181	1223.964
810.203	18.438	1312.060	1221.916
811.218	18.496	1310.617	1220.847
812.232	18.358	1309.258	1218.447
813.247	18.455	1308.314	1218.112
814.261	18.611	1307.753	1218.556
815.276	18.525	1306.830	1216.942
816.291	18.625	1305.409	1216.179
817.305	18.629	1304.365	1215.091
818.320	18.640	1303.195	1213.939
819.334	18.496	1302.029	1211.680
820.349	18.412	1300.497	1209.512
821.364	18.698	1299.215	1210.207
822.378	18.569	1298.102	1208.107
823.393	18.638	1296.595	1207.054
824.407	18.486	1296.339	1205.590
825.422	18.367	1295.528	1203.857
826.437	18.513	1294.550	1203.831
827.451	18.392	1292.307	1200.746
828.466	18.264	1291.127	1198.609
829.480	18.399	1288.980	1197.419
830.495	18.419	1287.739	1196.263
831.509	18.279	1286.937	1194.391
832.524	18.417	1286.116	1194.454
833.539	18.415	1285.272	1193.514
834.553	18.445	1284.257	1192.638
835.568	18.618	1282.543	1192.118
836.582	18.652	1281.569	1191.305
837.597	18.714	1280.098	1190.229
838.612	18.690	1279.154	1189.037
839.626	18.689	1277.921	1187.745
840.641	18.678	1276.942	1186.615
841.655	18.505	1276.627	1184.981
842.670	18.479	1275.632	1183.731
843.685	18.456	1274.403	1182.289
844.699	18.679	1272.833	1182.239
845.714	18.577	1271.728	1180.363
846.728	18.490	1271.303	1179.228
847.743	18.522	1270.101	1178.192
848.758	18.541	1269.463	1177.591
849.772	18.759	1267.364	1177.005
850.787	18.673	1266.127	1175.119
851.801	18.629	1264.887	1173.526
852.816	18.477	1264.110	1171.621
853.831	18.455	1262.311	1169.663
854.845	18.596	1260.269	1168.594
855.860	18.299	1259.382	1165.599
856.874	18.523	1258.110	1165.818
857.889	18.579	1256.379	1164.456
858.904	18.359	1255.269	1161.787
859.918	18.283	1254.539	1160.452
860.933	18.297	1252.916	1158.909
861.947	18.312	1252.160	1158.173
862.962	18.374	1251.120	1157.492
863.977	18.395	1250.217	1156.662
864.991	18.431	1249.548	1156.153
866.006	18.533	1249.009	1156.207
867.020	18.586	1246.621	1154.212
868.035	18.561	1245.671	1153.027
869.049	18.762	1245.304	1153.903
870.064	18.617	1244.387	1151.939
871.079	18.683	1243.597	1151.515
872.093	18.725	1243.258	1151.345
873.108	18.713	1241.739	1149.719
874.122	18.696	1240.952	1148.743
875.137	18.482	1240.799	1147.022
876.152	18.499	1239.662	1145.951
877.166	18.713	1238.099	1145.806
878.181	18.672	1236.496	1143.905
879.195	18.640	1236.392	1143.459
880.210	18.533	1235.931	1142.181
881.225	18.592	1234.713	1141.310
882.239	18.659	1233.326	1140.342
883.254	18.504	1232.585	1138.483
884.268	18.666	1231.559	1138.480
885.283	18.754	1230.320	1137.787
886.298	18.716	1228.567	1135.776
887.312	18.622	1227.938	1134.433
888.327	18.816	1226.978	1134.699
889.341	18.640	1225.730	1132.244
890.356	18.526	1225.337	1130.985
891.371	18.699	1224.379	1131.114
892.385	18.671	1223.568	1130.047
893.400	18.564	1222.681	1128.382
894.414	18.565	1221.273	1126.953
895.429	18.485	1220.167	1125.269
896.444	18.564	1218.172	1123.819
897.458	18.402	1217.196	1121.713
898.473	18.429	1216.541	1121.158
899.487	18.755	1215.500	1122.203
900.502	18.692	1214.081	1120.344
901.517	18.652	1213.370	1119.291
902.531	18.681	1213.081	1119.080
903.546	18.711	1212.227	1118.357
904.560	18.692	1211.718	1117.628
905.575	18.735	1210.867	1116.994
906.589	18.832	1209.584	1116.308
907.604	18.644	1208.943	1114.354
