DTS Sentinel unit serial number:	SN409020Multiplexer serial number:	ORYXHardware model number:	OX4-SRSoftware version number:	ORYX F/W v3.00 Oryx Data Collector v3.7.2.0data status	okinstallation	HaddamTimeLapsedifferential loss correction	single-endedforward channel	channel 3reverse channel	N/Adate	2011/06/22time	04:36:17forward acquisition time	30.00reverse acquisition time	0.00gamma	498.7831k internal	0.1752k external	0.1752temperature offset calibration	1.0074default loss term (dB/km)	0.3790temperature slope calibration	1.3530multiplexer offset coefficient	1.0000multiplexer slope coefficient	1.0000fibre end	0.00T internal ref (°C)	22.69T ext. ref 1 (°C)	18.12T ext. ref 2 (°C)	0.14length (m)	temperature (°C)	Stokes	anti-Stokes-747.200	-95.249	-0.156	-0.056
-746.185	-200.000	-0.026	0.345
-745.171	-101.041	0.363	-0.117
-744.156	154.780	0.314	0.574
-743.142	-99.402	-0.453	0.150
-742.127	-152.257	0.662	-0.063
-741.112	-61.053	-0.342	-0.191
-740.098	75.330	-0.337	0.473
-739.083	73.433	0.127	0.177
-738.069	-200.000	0.020	0.697
-737.054	-76.753	-0.489	0.226
-736.039	-200.000	-0.037	-0.582
-735.025	800.000	0.117	-0.459
-734.010	-152.937	0.265	-0.025
-732.996	35.022	0.210	-0.244
-731.981	-119.666	0.275	0.063
-730.966	-200.000	0.012	-0.572
-729.952	277.150	-0.076	0.179
-728.937	-106.167	0.192	-0.057
-727.923	-59.226	-0.205	-0.117
-726.908	-200.000	0.026	-0.241
-725.894	-50.201	0.343	0.214
-724.879	-110.844	0.198	0.054
-723.864	-144.116	0.178	-0.022
-722.850	-200.000	-0.018	-0.112
-721.835	-200.000	0.056	0.345
-720.821	-54.942	0.059	-0.035
-719.806	60.260	-0.335	-0.440
-718.791	-42.607	-0.121	-0.082
-717.777	-200.000	0.234	0.001
-716.762	334.407	-0.207	-0.533
-715.748	104.027	-0.136	-0.213
-714.733	-33.430	-0.452	0.331
-713.718	123.119	0.143	0.238
-712.704	800.000	-0.104	0.481
-711.689	70.579	0.307	0.421
-710.675	-47.995	0.369	0.236
-709.660	-83.848	0.512	-0.215
-708.645	704.290	0.064	-0.224
-707.631	-112.866	-0.235	-0.061
-706.616	-34.554	-0.252	0.183
-705.602	-96.234	-0.290	0.101
-704.587	-17.939	-0.455	0.377
-703.572	60.804	-0.269	-0.354
-702.558	691.987	-0.093	0.326
-701.543	-19.987	-0.261	-0.213
-700.529	-172.254	-0.329	-0.014
-699.514	415.292	0.193	0.549
-698.499	-80.024	0.320	0.141
-697.485	14.893	0.215	0.223
-696.470	-42.179	-0.246	0.166
-695.456	-200.000	-0.017	0.237
-694.441	-65.738	-0.200	-0.106
-693.426	-175.243	-0.288	-0.010
-692.412	-200.000	0.023	-0.313
-691.397	96.227	0.161	0.244
-690.383	-60.039	-0.150	-0.084
-689.368	-200.000	0.030	0.511
-688.354	54.985	-0.337	-0.431
-687.339	-28.230	0.152	0.116
-686.324	165.413	-0.049	-0.091
-685.310	0.527	-0.047	0.044
-684.295	-121.069	-0.335	-0.074
-683.281	-89.666	-0.083	-0.032
-682.266	48.891	-0.098	-0.121
-681.251	-200.000	-0.006	0.067
-680.237	176.645	-0.170	-0.328
-679.222	-41.082	0.200	-0.137
-678.208	-191.841	-0.529	0.007
-677.193	323.748	0.078	-0.197
-676.178	-94.327	-0.098	-0.035
-675.164	113.340	0.166	-0.267
-674.149	491.541	0.170	0.519
-673.135	-200.000	-0.015	-0.385
-672.120	-200.000	-0.053	0.362
-671.105	-115.657	0.223	-0.055
-670.091	-80.027	0.382	0.169
-669.076	22.560	-0.058	-0.063
-668.062	32.632	-0.141	0.161
-667.047	25.522	0.136	0.150
-666.032	22.845	0.056	0.060
-665.018	-131.020	-0.451	-0.079
-664.003	-40.900	-0.332	-0.227
-662.989	2.872	-0.073	-0.070
-661.974	-77.872	0.207	-0.094
-660.959	172.653	0.088	-0.169
-659.945	496.541	-0.123	-0.376
-658.930	59.981	-0.258	-0.338
-657.916	-171.888	-0.234	-0.010
-656.901	-169.737	-0.326	0.015
-655.886	-61.562	-0.142	0.079
-654.872	-120.875	0.567	0.125
-653.857	30.001	-0.117	0.132
-652.843	800.000	0.074	-0.339
-651.828	-200.000	-0.045	-0.369
-650.814	-87.855	-0.368	-0.146
-649.799	-33.305	0.338	0.247
-648.784	-73.149	-0.340	0.164
-647.770	-200.000	-0.034	-0.281
-646.755	-134.976	-0.227	-0.036
-645.741	-49.630	-0.489	0.307
-644.726	800.000	-0.102	0.404
-643.711	-200.000	0.004	-0.055
-642.697	29.594	0.114	-0.128
-641.682	0.873	-0.270	-0.256
-640.668	2.124	-0.320	-0.306
-639.653	-83.201	-0.188	-0.080
-638.638	-124.111	-0.506	0.104
-637.624	337.707	0.176	-0.454
-636.609	206.518	0.209	-0.431
-635.595	49.611	-0.051	0.063
-634.580	169.592	0.288	-0.546
-633.565	-39.293	-0.254	-0.176
-632.551	-200.000	-0.015	0.261
-631.536	82.439	-0.135	0.194
-630.522	133.414	-0.169	-0.290
-629.507	427.035	0.258	0.739
-628.492	632.788	-0.109	-0.367
-627.478	-48.458	0.130	-0.083
-626.463	-130.801	-0.362	-0.064
-625.449	-158.817	-0.716	0.053
-624.434	4.558	0.188	0.182
-623.419	-91.631	0.415	0.155
-622.405	-20.843	0.222	0.180
-621.390	431.656	0.054	-0.156
-620.376	0.874	0.500	-0.473
-619.361	800.000	0.070	0.343
-618.346	62.583	-0.258	-0.341
-617.332	143.515	-0.148	-0.261
-616.317	-3.769	-0.111	0.102
-615.303	135.850	-0.105	-0.181
-614.288	-200.000	-0.003	0.268
-613.273	800.000	0.035	0.192
-612.259	392.021	0.033	-0.091
-611.244	800.000	0.111	-0.459
-610.230	-200.000	0.029	0.345
-609.215	-161.370	0.122	0.008
-608.201	800.000	-0.033	0.172
-607.186	750.674	0.062	0.222
-606.171	-101.357	-0.074	0.024
-605.157	-111.157	-0.460	0.123
-604.142	277.019	-0.049	0.115
-603.128	-135.301	-0.281	0.044
-602.113	-109.085	-0.629	-0.176
-601.098	-118.844	0.222	0.051
-600.084	-200.000	-0.001	0.111
-599.069	-123.216	0.504	0.106
-598.055	-142.423	0.628	0.081
-597.040	-75.625	0.134	0.063
-596.025	-64.003	-0.551	-0.296
-595.011	83.766	0.391	0.563
-593.996	-200.000	-0.004	0.481
-592.982	-200.000	0.003	-0.590
-591.967	-79.314	0.094	0.042
-590.952	-138.518	-0.078	0.011
-589.938	123.262	-0.150	0.248
-588.923	-149.839	-0.375	0.038
-587.909	-53.095	0.297	0.180
-586.894	-134.635	0.330	0.052
-585.879	-141.465	0.278	-0.037
-584.865	113.982	0.135	0.218
-583.850	-200.000	-0.039	-0.269
-582.836	-110.224	0.281	-0.077
-581.821	-19.453	0.249	0.204
-580.806	-56.496	-0.292	0.170
-579.792	800.000	-0.073	0.363
-578.777	-200.000	0.034	0.273
-577.763	-79.817	-0.299	-0.132
-576.748	800.000	0.124	0.534
-575.733	173.955	0.181	0.346
-574.719	600.055	-0.180	-0.592
-573.704	-200.000	0.016	-0.307
-572.690	-167.053	-0.267	0.014
-571.675	-129.605	0.404	0.073
-570.661	30.223	0.419	0.471
-569.646	-200.000	0.013	0.348
-568.631	-80.071	0.247	-0.109
-567.617	23.241	-0.244	0.264
-566.602	-47.030	-0.189	0.121
-565.588	675.461	-0.038	-0.131
-564.573	45.587	0.532	-0.648
-563.558	566.028	0.143	-0.461
-562.544	-200.000	0.006	-0.319
-561.529	800.000	-0.077	-0.332
-560.515	-110.115	-0.575	-0.157
-559.500	-200.000	-0.025	0.183
-558.485	-51.178	-0.331	0.204
-557.471	275.928	0.093	0.218
-556.456	800.000	-0.080	-0.311
-555.442	-200.000	0.097	-0.807
-554.427	800.000	0.017	0.078
-553.412	-101.198	0.543	-0.174
-552.398	360.577	0.100	0.266
-551.383	243.337	0.245	0.544
-550.369	-29.016	-0.218	0.164
-549.354	-58.656	0.232	0.132
-548.339	293.056	0.073	-0.176
-547.325	-200.000	0.019	-0.513
-546.310	-139.122	-0.472	-0.066
-545.296	37.197	0.460	-0.537
-544.281	800.000	-0.091	-0.429
-543.266	363.274	-0.085	-0.225
-542.252	-168.894	-0.239	0.012
-541.237	-185.795	-0.112	0.002
-540.223	-6.019	0.066	0.060
-539.208	406.128	0.027	0.076
-538.193	582.203	0.041	0.134
-537.179	287.267	-0.162	-0.388
-536.164	-200.000	0.047	-0.331
-535.150	24.949	0.304	0.332
-534.135	125.429	-0.208	0.347
-533.121	171.249	-0.269	0.509
-532.106	-90.627	-0.531	-0.201
-531.091	87.997	-0.339	-0.496
-530.077	-200.000	-0.015	0.243
-529.062	222.576	0.083	-0.176
-528.048	-200.000	0.017	-0.107
-527.033	79.682	-0.208	0.294
-526.018	-134.431	0.262	0.042
-525.004	-200.000	-0.016	-0.184
-523.989	-195.621	0.594	0.006
-522.975	-200.000	0.039	0.555
-521.960	-10.155	-0.359	0.314
-520.945	-135.010	-0.679	-0.107
-519.931	-120.228	-0.463	0.103
-518.916	-61.139	0.260	0.144
-517.902	-200.000	0.007	0.166
-516.887	153.702	-0.190	0.343
-515.872	-127.145	-0.194	0.037
-514.858	-124.816	0.302	0.061
-513.843	-156.464	0.073	0.006
-512.829	-47.218	0.055	-0.035
-511.814	-73.889	-0.259	0.123
-510.799	-16.250	0.416	0.347
-509.785	161.193	-0.349	-0.644
-508.770	-51.731	-0.224	0.137
-507.756	-111.393	0.375	0.100
-506.741	-200.000	0.038	0.331
-505.726	-155.723	-0.387	-0.032
-504.712	-6.785	-0.286	-0.255
-503.697	206.168	-0.101	-0.208
-502.683	-133.572	-0.187	-0.030
-501.668	19.227	-0.041	0.044
-500.653	-73.399	0.092	0.044
-499.639	1.788	0.077	-0.073
-498.624	-121.120	-0.276	-0.060
-497.610	109.174	-0.168	0.265
-496.595	-200.000	-0.013	-0.235
-495.581	-131.977	-0.209	0.036
-494.566	-14.805	-0.436	-0.368
-493.551	337.904	0.018	-0.045
-492.537	126.170	0.317	-0.528
-491.522	-0.898	0.239	0.222
-490.508	800.000	-0.092	0.529
-489.493	-180.045	-0.303	-0.008
-488.478	-129.601	0.053	-0.010
-487.464	-58.161	0.399	0.228
-486.449	155.222	0.230	0.416
-485.435	-11.056	0.355	-0.308
-484.420	-200.000	0.007	-0.055
-483.405	56.402	0.219	0.279
-482.391	-57.671	-0.364	0.209
-481.376	-200.000	0.039	-0.271
-480.362	-162.118	0.119	0.008
-479.347	2.815	0.125	-0.119
-478.332	70.592	-0.188	-0.256
-477.318	21.721	-0.064	0.068
-476.303	78.281	0.102	0.143
-475.289	-3.083	0.294	0.269
-474.274	-65.714	-0.498	0.261
-473.259	63.025	-0.184	0.242
-472.245	-120.270	-0.213	-0.047
-471.230	31.691	-0.356	0.403
-470.216	-153.829	-0.220	-0.020
-469.201	68.229	-0.024	-0.032
-468.186	-118.900	-0.124	-0.028
-467.172	800.000	-0.141	0.538
-466.157	-120.999	-0.411	0.090
-465.143	-200.000	-0.007	-0.217
-464.128	-38.193	-0.369	0.256
-463.113	138.936	-0.072	-0.125
-462.099	-22.047	0.278	0.221
-461.084	-33.395	0.077	0.056
-460.070	800.000	-0.049	-0.238
-459.055	-41.089	0.386	-0.261
-458.040	-113.615	0.417	-0.106
-457.026	-6.613	0.317	-0.283
-456.011	-183.702	0.204	0.004
-454.997	800.000	-0.068	0.358
-453.982	-200.000	-0.002	0.435
-452.968	47.191	0.324	0.396
-451.953	65.367	-0.046	-0.061
-450.938	-158.231	-0.408	-0.031
-449.924	-84.722	-0.375	0.154
-448.909	-200.000	-0.015	0.166
-447.895	370.336	0.179	0.477
-446.880	-5.340	0.156	0.141
-445.865	93.439	0.217	0.324
-444.851	207.201	0.130	-0.268
-443.836	-200.000	-0.015	-0.207
-442.822	620.922	-0.097	-0.322
-441.807	800.000	0.050	-0.196
-440.792	-48.996	0.463	-0.290
-439.778	101.485	-0.116	0.177
-438.763	-129.345	0.139	0.025
-437.749	-200.000	-0.050	0.352
-436.734	-154.020	0.293	0.026
-435.719	-14.454	0.129	0.109
-434.705	-57.335	0.341	-0.196
-433.690	-76.426	0.489	0.225
-432.676	-119.755	-0.316	-0.071
-431.661	-26.320	-0.198	-0.152
-430.646	-128.413	0.223	-0.041
-429.632	-151.059	-0.259	0.025
-428.617	34.121	-0.268	-0.306
-427.603	-112.141	-0.462	0.121
-426.588	-122.822	-0.165	-0.035
-425.573	102.338	0.195	0.299
-424.559	39.640	0.237	-0.278
-423.544	-33.794	-0.300	-0.217
-422.530	-52.498	0.077	0.046
-421.515	-4.651	0.216	-0.195
-420.500	271.189	-0.118	0.273
-419.486	-27.880	0.183	-0.139
-418.471	-163.189	0.691	-0.043
-417.457	-104.672	-0.417	0.125
-416.442	-100.730	0.410	0.132
-415.428	-114.846	0.161	0.040
-414.413	-200.000	-0.003	-0.239
-413.398	-129.655	0.267	-0.048
-412.384	149.008	0.156	0.276
-411.369	-200.000	0.004	-0.263
-410.355	-200.000	0.031	-0.269
-409.340	-68.088	0.363	0.184
-408.325	-119.367	-0.250	0.057
-407.311	800.000	0.077	0.404
-406.296	437.480	0.114	-0.328
-405.282	-120.570	0.426	0.094
-404.267	47.083	0.277	-0.338
-403.252	-20.782	0.163	0.131
-402.238	-200.000	0.047	-0.507
-401.223	-34.496	0.183	-0.131
-400.209	151.522	-0.197	0.352
-399.194	800.000	0.047	0.178
-398.179	-153.689	0.312	0.028
-397.165	97.027	0.377	0.568
-396.150	-74.038	-0.218	0.103
-395.136	-42.716	0.280	0.186
-394.121	-160.896	-0.294	-0.020
-393.106	-105.063	0.203	0.060
-392.092	-23.532	-0.104	0.082
-391.077	-88.472	-0.213	-0.083
-390.063	-61.730	-0.089	0.049
-389.048	-200.000	-0.011	-0.080
-388.033	-145.978	-0.306	0.035
-387.019	800.000	0.064	0.255
-386.004	800.000	-0.098	0.449
-384.990	-82.222	0.277	0.117
-383.975	-46.715	-0.189	0.121
-382.960	37.243	-0.303	-0.352
-381.946	-101.724	0.101	-0.032
-380.931	172.823	0.071	-0.134
-379.917	-93.904	-0.517	-0.185
-378.902	-76.869	0.081	-0.037
-377.888	-200.000	-0.026	-0.329
-376.873	-200.000	-0.037	0.375
-375.858	261.877	-0.015	-0.035
-374.844	77.199	0.261	-0.364
-373.829	76.872	-0.108	-0.150
-372.815	-200.000	-0.005	-0.287
-371.800	-19.252	-0.495	0.401
-370.785	0.438	-0.158	0.147
-369.771	-25.580	-0.161	0.124
-368.756	-200.000	-0.000	-0.159
-367.742	800.000	-0.078	0.419
-366.727	682.668	0.052	0.179
-365.712	438.987	-0.045	0.129
-364.698	-99.144	-0.248	0.082
-363.683	226.135	-0.108	0.229
-362.669	57.707	-0.316	0.404
-361.654	-200.000	-0.000	0.211
-360.639	-200.000	-0.008	-0.406
-359.625	114.807	0.090	0.144
-358.610	-109.591	0.065	-0.018
-357.596	-89.584	0.271	-0.103
-356.581	-68.514	0.367	-0.185
-355.566	-63.661	-0.436	0.233
-354.552	107.626	-0.136	0.212
-353.537	-200.000	0.015	0.180
-352.523	-84.079	0.375	-0.155
-351.508	-141.563	0.257	0.034
-350.493	279.509	0.023	-0.055
-349.479	1.451	0.077	0.073
-348.464	436.786	0.042	0.120
-347.450	-42.208	-0.253	0.169
-346.435	144.017	-0.132	-0.230
-345.420	132.395	0.236	-0.399
-344.406	76.538	0.220	-0.306
-343.391	-200.000	0.044	-0.342
-342.377	-100.565	-0.510	0.164
-341.362	38.420	-0.172	0.200
-340.348	411.271	0.161	0.448
-339.333	-134.919	0.147	-0.023
-338.318	-200.000	-0.075	-0.681
-337.304	109.591	-0.513	-0.805
-336.289	-37.048	-0.375	0.262
-335.275	-200.000	0.025	-0.238
-334.260	456.483	0.044	-0.127
-333.245	103.626	0.240	-0.368
-332.231	-85.201	0.254	0.103
-331.216	17.608	0.155	-0.161
-330.202	8.369	0.155	0.152
-329.187	-200.000	0.006	0.498
-328.172	-40.450	-0.252	0.170
-327.158	-9.475	-0.204	0.177
-326.143	-166.289	-0.361	-0.020
-325.129	76.949	0.304	-0.423
-324.114	800.000	-0.052	-0.245
-323.099	786.335	0.151	-0.545
-322.085	27.690	-0.242	-0.266
-321.070	165.975	-0.160	0.297
-320.056	-81.974	-0.162	0.069
-319.041	-43.394	0.101	-0.066
-318.026	140.129	0.317	-0.547
-317.012	800.000	0.183	-0.712
-315.997	800.000	-0.117	-0.525
-314.983	-200.000	-0.037	0.317
-313.968	108.073	-0.261	0.408
-312.953	-126.222	0.177	0.034
-311.939	71.541	0.176	0.240
-310.924	24.876	0.268	-0.289
-309.910	-4.582	0.036	-0.032
-308.895	-95.635	0.081	-0.028
-307.880	436.926	0.106	-0.302
-306.866	63.636	0.483	0.634
-305.851	355.084	-0.085	-0.223
-304.837	225.972	-0.067	-0.141
-303.822	296.193	0.057	-0.136
-302.807	13.979	-0.071	-0.072
-301.793	-76.477	-0.287	0.131
-300.778	26.190	0.505	0.550
-299.764	526.018	-0.188	0.581
-298.749	-91.803	0.109	0.040
-297.735	-48.444	0.126	-0.079
-296.720	-9.031	0.331	0.289
-295.705	-117.828	0.149	0.035
-294.691	800.000	0.067	-0.381
-293.676	-12.919	0.229	0.194
-292.662	31.819	0.350	0.393
-291.647	301.334	-0.089	0.215
-290.632	91.645	0.231	0.339
-289.618	178.452	0.190	-0.364
-288.603	-142.843	-0.647	-0.081
-287.589	-149.688	0.277	-0.028
-286.574	-79.392	0.209	-0.092
-285.559	131.171	-0.056	-0.095
-284.545	-61.143	0.452	0.248
-283.530	-167.097	0.120	0.006
-282.516	-132.647	-0.287	-0.047
-281.501	50.545	0.225	-0.278
-280.486	-77.548	-0.153	-0.069
-279.472	-140.106	-0.367	-0.050
-278.457	-200.000	-0.003	-0.168
-277.443	800.000	0.036	0.163
-276.428	-73.250	0.035	-0.017
-275.413	-127.576	0.290	-0.054
-274.399	133.654	0.154	-0.260
-273.384	-99.000	-0.296	0.097
-272.370	-13.890	-0.220	-0.185
-271.355	-62.184	0.384	-0.208
-270.340	800.000	-0.053	0.245
-269.326	21.894	-0.301	-0.319
-268.311	-20.312	0.357	0.286
-267.297	-73.175	0.342	0.163
-266.282	-145.348	0.277	-0.032
-265.267	282.417	-0.127	0.298
-264.253	46.223	0.335	0.404
-263.238	800.000	-0.089	0.499
-262.224	-150.731	-0.218	-0.021
-261.209	-200.000	-0.020	-0.261
-260.195	159.280	0.137	-0.248
-259.180	0.047	-0.233	-0.216
-258.165	457.967	-0.121	-0.352
-257.151	800.000	0.039	0.151
-256.136	-142.584	0.524	0.066
-255.122	-108.664	0.412	0.114
-254.107	-96.520	0.527	-0.180
-253.092	-84.996	0.376	-0.153
-252.078	723.953	-0.179	-0.625
-251.063	800.000	0.084	-0.431
-250.049	-177.228	0.282	-0.009
-249.034	-155.295	0.341	-0.028
-248.019	800.000	-0.090	0.377
-247.005	-27.783	0.194	-0.146
-245.990	-62.741	-0.536	0.288
-244.976	-13.095	-0.154	0.130
-243.961	-57.277	-0.297	0.170
-242.946	-99.169	0.475	0.156
-241.932	-64.575	-0.052	-0.028
-240.917	800.000	0.105	-0.591
-239.903	114.101	-0.143	-0.227
-238.888	-100.802	-0.426	-0.136
-237.873	800.000	0.076	0.382
-236.859	-200.000	0.010	0.194
-235.844	-100.999	-0.198	0.063
-234.830	-200.000	-0.076	0.688
-233.815	800.000	0.095	0.410
-232.800	-8.306	0.429	0.375
-231.786	-144.302	-0.207	0.025
-230.771	-200.000	-0.039	0.256
-229.757	-33.490	0.052	-0.038
-228.742	-200.000	-0.003	0.151
-227.727	800.000	-0.091	-0.415
-226.713	-72.926	0.256	0.122
-225.698	-98.912	-0.030	0.010
-224.684	23.470	0.150	0.161
-223.669	-133.695	-0.372	0.060
-222.655	474.906	-0.080	-0.235
-221.640	-123.822	0.479	-0.098
-220.625	51.320	0.170	-0.210
-219.611	-70.537	0.074	0.036
-218.596	-200.000	-0.054	-0.434
-217.582	-120.129	-0.236	0.052
-216.567	18.749	0.205	0.213
-215.552	800.000	0.034	-0.135
-214.538	-14.307	-0.277	-0.232
-213.523	42.044	-0.038	0.045
-212.509	259.628	-0.077	0.175
-211.494	-55.408	-0.318	0.185
-210.479	93.290	-0.146	-0.215
-209.465	-13.451	0.249	-0.209
-208.450	-200.000	-0.040	-0.296
-207.436	85.596	-0.223	0.318
-206.421	81.819	0.089	0.126
-205.406	29.612	-0.165	-0.183
-204.392	199.528	0.070	-0.141
-203.377	-98.702	-0.026	-0.008
-202.363	24.347	-0.301	-0.323
-201.348	540.650	-0.106	-0.329
-200.333	800.000	-0.026	-0.103
-199.319	111.252	0.187	-0.294
-198.304	-64.403	-0.232	0.122
-197.290	43.730	0.343	-0.408
-196.275	-64.495	0.409	0.215
-195.260	29.448	0.163	0.180
-194.246	-200.000	0.005	-0.188
-193.231	-200.000	0.026	-0.301
-192.217	-120.716	-0.023	0.005
-191.202	-167.487	-0.350	0.018
-190.187	27.743	-0.251	0.275
-189.173	-27.393	0.222	0.168
-188.158	-123.937	-0.134	-0.027
-187.144	-112.471	0.323	-0.083
-186.129	-69.569	-0.279	-0.138
-185.114	-5.329	0.092	0.082
-184.100	90.907	0.293	0.428
-183.085	-167.177	0.266	0.014
-182.071	800.000	-0.111	-0.484
-181.056	56.536	-0.262	-0.331
-180.042	-200.000	0.018	-0.341
-179.027	-200.000	-0.012	-0.534
-178.012	67.563	0.069	-0.092
-176.998	800.000	-0.156	0.717
-175.983	-115.786	-0.445	-0.107
-174.969	-59.611	-0.260	-0.144
-173.954	-105.465	-0.087	0.026
-172.939	-146.836	-0.199	0.022
-171.925	-76.302	0.367	0.167
-170.910	-86.101	0.143	-0.057
-169.896	3.155	0.036	0.034
-168.881	33.362	-0.219	-0.246
-167.866	-12.803	-0.238	0.201
-166.852	37.198	-0.185	-0.213
-165.837	166.855	-0.139	-0.257
-164.823	-175.272	0.238	0.008
-163.808	-5.083	-0.210	0.187
-162.793	-157.706	-0.600	0.046
-161.779	-151.132	-0.166	-0.016
-160.764	344.806	0.066	0.168
-159.750	800.000	0.053	-0.270
-158.735	-200.000	-0.026	0.252
-157.720	502.743	-0.114	-0.344
-156.706	-200.000	-0.067	0.560
-155.691	-164.137	0.132	0.008
-154.677	1.379	-0.124	-0.116
-153.662	485.079	-0.134	-0.397
-152.647	161.493	-0.104	-0.190
-151.633	261.107	-0.064	-0.145
-150.618	-129.154	-0.257	-0.046
-149.604	-200.000	-0.008	0.235
-148.589	-151.019	-0.501	0.048
-147.574	266.040	-0.018	0.041
-146.560	-168.455	0.432	-0.021
-145.545	-200.000	-0.208	-0.000
-144.531	369.205	-0.144	-0.380
-143.516	800.000	-0.059	-0.266
-142.502	-2.641	-0.107	-0.097
-141.487	800.000	-0.018	-0.076
-140.472	-8.473	0.126	-0.109
-139.458	27.577	-0.104	0.114
-138.443	-200.000	-0.021	-0.379
-137.429	-10.782	-0.170	-0.146
-136.414	-163.992	0.434	-0.026
-135.399	-77.183	0.221	-0.099
-134.385	-37.867	0.431	0.296
-133.370	-173.772	0.131	0.005
-132.356	520.493	-0.035	-0.108
-131.341	249.095	-0.246	0.543
-130.326	183.697	-0.119	0.228
-129.312	-55.331	0.547	-0.318
-128.297	-88.214	-0.045	0.017
-127.283	-97.979	-0.139	0.046
-126.268	-164.575	-0.297	-0.017
-125.253	164.632	0.098	-0.179
-124.239	-200.000	-0.017	0.339
-123.224	75.728	-0.335	-0.459
-122.210	-146.618	0.279	-0.031
-121.195	752.972	-0.069	-0.244
-120.180	-96.298	-0.134	-0.046
-119.166	-176.357	-0.104	-0.003
-118.151	-200.000	-0.024	-0.487
-117.137	800.000	-0.078	0.360
-116.122	800.000	0.043	0.174
-115.107	800.000	0.069	-0.378
-114.093	-122.200	0.236	0.050
-113.078	800.000	-0.098	-0.391
-112.064	-175.718	0.574	-0.020
-111.049	-47.822	0.363	0.227
-110.034	-147.526	0.184	-0.020
-109.020	-145.031	0.417	0.049
-108.005	-0.998	-0.134	-0.122
-106.991	-95.269	0.282	-0.098
-105.976	-200.000	-0.011	0.200
-104.962	-98.623	0.155	-0.051
-103.947	-200.000	-0.069	-0.436
-102.932	-33.084	0.507	0.363
-101.918	257.082	-0.040	-0.089
-100.903	127.026	0.030	-0.050
-99.889	-31.587	0.219	0.159
-98.874	-150.458	0.168	0.016
-97.859	800.000	-0.056	-0.203
-96.845	-81.977	0.257	0.108
-95.830	-73.800	0.180	-0.084
-94.816	-200.000	0.025	0.157
-93.801	509.667	-0.161	-0.486
-92.786	800.000	0.059	-0.274
-91.772	-85.815	0.575	0.229
-90.757	-29.023	0.076	-0.056
-89.743	424.046	-0.053	-0.150
-88.728	-200.000	0.026	-0.260
-87.713	-9.792	-0.283	0.244
-86.699	618.834	-0.159	-0.519
-85.684	379.991	0.081	-0.215
-84.670	-200.000	0.045	0.631
-83.655	-109.688	0.149	-0.040
-82.640	-200.000	0.088	0.544
-81.626	183.029	-0.359	0.687
-80.611	-94.738	-0.056	-0.019
-79.597	-200.000	-0.039	-0.336
-78.582	-63.461	0.133	0.070
-77.567	-33.652	0.238	-0.170
-76.553	-64.025	-0.182	-0.096
-75.538	64.808	-0.101	-0.132
-74.524	191.466	0.297	0.579
-73.509	-200.000	0.099	0.673
-72.494	95.725	-0.297	0.439
-71.480	262.926	0.079	0.178
-70.465	217.619	-0.160	0.331
-69.451	-118.440	0.213	-0.048
-68.436	-180.761	-0.294	0.008
-67.422	-34.348	-0.255	0.181
-66.407	-194.754	0.448	-0.004
-65.392	-120.163	-0.598	-0.131
-64.378	732.452	0.046	-0.160
-63.363	-132.488	0.322	-0.053
-62.349	8.217	0.137	-0.133
-61.334	36.897	-2.287	-2.615
-60.319	68.377	1.187	1.574
-59.305	245.770	-3.408	-7.444
-58.290	43.570	4.481	5.298
-57.276	316.445	4.125	10.111
-56.261	-200.000	25.018	318.462
-55.246	358.147	1298.325	3364.794
-54.232	53.622	2838.614	3522.837
-53.217	51.740	2659.621	3271.504
-52.203	32.154	2388.463	2662.290
-51.188	27.883	2054.927	2237.945
-50.173	24.592	1941.523	2075.992
-49.159	23.461	1929.877	2050.316
-48.144	23.019	1925.461	2040.420
-47.130	23.012	1922.696	2037.329
-46.115	22.964	1921.344	2035.261
-45.100	22.926	1919.806	2033.112
-44.086	22.863	1918.605	2031.025
-43.071	22.975	1916.368	2029.871
-42.057	22.886	1914.666	2026.958
-41.042	22.918	1913.377	2025.889
-40.027	22.919	1912.041	2024.404
-39.013	22.896	1910.638	2022.566
-37.998	22.827	1909.504	2020.501
-36.984	22.798	1908.598	2019.120
-35.969	22.742	1908.118	2017.894
-34.954	22.835	1906.537	2017.206
-33.940	22.755	1904.257	2013.799
-32.925	22.775	1903.468	2013.109
-31.911	22.877	1901.746	2012.380
-30.896	22.701	1901.744	2010.282
-29.881	22.770	1900.244	2009.403
-28.867	22.833	1897.546	2007.194
-27.852	22.675	1896.657	2004.366
-26.838	22.708	1894.238	2002.106
-25.823	22.736	1893.728	2001.814
-24.809	22.689	1892.423	1999.814
-23.794	22.800	1890.337	1998.798
-22.779	22.786	1889.109	1997.262
-21.765	22.630	1888.642	1994.918
-20.750	22.623	1887.584	1993.640
-19.736	22.696	1886.987	1993.750
-18.721	22.553	1886.227	1991.255
-17.706	22.637	1884.085	1989.861
-16.692	22.685	1882.853	1989.027
-15.677	22.648	1881.576	1987.176
-14.663	22.477	1881.117	1984.675
-13.648	22.579	1878.478	1982.965
-12.633	22.639	1877.831	1982.881
-11.619	22.583	1876.416	1980.684
-10.604	22.614	1875.112	1979.573
-9.590	22.602	1874.063	1978.255
-8.575	22.624	1872.905	1977.204
-7.560	22.666	1871.357	1975.967
-6.546	22.506	1871.093	1973.806
-5.531	22.615	1869.426	1973.192
-4.517	22.515	1868.374	1970.874
-3.502	22.510	1867.540	1969.861
-2.487	22.622	1865.695	1969.094
-1.473	22.760	1862.190	1966.865
-0.458	22.519	1843.624	1944.504
0.556	19.081	1990.935	2046.585
1.571	17.870	2193.911	2239.003
2.586	18.760	2232.930	2290.486
3.600	18.693	2236.309	2292.779
4.615	18.746	2234.784	2291.654
5.629	18.748	2232.779	2289.349
6.644	18.707	2229.906	2285.581
7.659	18.645	2229.607	2284.172
8.673	18.669	2227.046	2281.586
9.688	18.335	2236.517	2286.534
10.702	17.423	2314.955	2353.768
11.717	15.857	2379.940	2397.152
12.731	7.815	2359.420	2261.673
13.746	1.050	2342.393	2148.870
14.761	0.180	2338.845	2132.969
15.775	-0.080	2338.155	2128.386
16.790	-0.025	2335.780	2126.754
17.804	-0.046	2334.260	2124.815
18.819	0.088	2332.794	2125.139
19.834	-0.054	2332.196	2122.320
20.848	0.070	2329.474	2121.341
21.863	-0.076	2328.803	2118.413
22.877	0.009	2326.456	2117.228
23.892	0.065	2323.486	2115.067
24.907	-0.037	2322.270	2112.255
25.921	-0.030	2320.299	2110.317
26.936	-0.015	2317.950	2108.131
27.950	0.007	2314.866	2105.394
28.965	0.037	2313.284	2104.117
29.980	0.113	2310.494	2102.394
30.994	0.202	2309.026	2102.061
32.009	4.218	2322.266	2170.450
33.023	13.515	2349.579	2327.576
34.038	17.521	2356.088	2390.382
35.053	17.710	2353.592	2390.230
36.067	17.987	2350.686	2390.896
37.082	17.825	2348.763	2386.377
38.096	17.923	2347.146	2385.817
39.111	18.017	2345.256	2384.935
40.126	18.116	2342.005	2382.724
41.140	18.157	2341.799	2382.812
42.155	17.993	2340.786	2379.199
43.169	18.032	2337.743	2376.360
44.184	18.004	2334.977	2372.881
45.199	18.004	2332.986	2370.574
46.213	17.883	2332.299	2367.898
47.228	18.080	2331.170	2369.217
48.242	17.954	2329.219	2365.200
49.257	18.188	2326.203	2365.102
50.271	18.009	2324.670	2360.779
51.286	18.140	2321.414	2358.997
52.301	17.945	2320.575	2355.169
53.315	18.173	2323.253	2360.758
54.330	20.085	2326.226	2390.039
55.344	20.985	2326.087	2402.071
56.359	21.336	2321.219	2401.605
57.374	21.313	2321.137	2400.925
58.388	21.495	2318.534	2400.443
59.403	21.441	2315.579	2396.361
60.417	21.297	2312.494	2390.905
61.432	21.290	2311.169	2389.146
62.447	21.562	2309.097	2390.459
63.461	21.723	2307.315	2390.536
64.476	21.771	2305.447	2388.962
65.490	21.571	2305.013	2385.498
66.505	21.015	2301.137	2373.587
67.520	19.575	2295.945	2348.278
68.534	18.319	2289.532	2324.307
69.549	18.014	2285.825	2316.112
70.563	18.032	2283.624	2313.848
71.578	18.003	2282.608	2312.157
72.593	18.069	2280.571	2310.715
73.607	18.146	2278.933	2309.822
74.622	18.183	2276.375	2307.447
75.636	18.053	2273.597	2302.599
76.651	18.090	2271.399	2300.599
77.666	18.051	2270.017	2298.402
78.680	17.955	2268.069	2294.849
79.695	17.992	2266.428	2293.417
80.709	18.006	2264.698	2291.585
81.724	17.972	2263.348	2289.480
82.739	17.889	2261.321	2286.036
83.753	17.981	2257.929	2283.577
84.768	17.907	2256.777	2281.145
85.782	17.881	2255.294	2279.026
86.797	17.861	2253.472	2276.641
87.812	17.929	2251.563	2275.346
88.826	18.029	2248.705	2273.529
89.841	17.984	2246.622	2270.544
90.855	18.044	2244.233	2268.666
91.870	17.908	2243.776	2266.110
92.884	17.893	2242.068	2263.917
93.899	18.019	2239.234	2262.456
94.914	18.309	2241.445	2268.280
95.928	19.799	2245.221	2291.695
96.943	20.367	2244.512	2298.254
97.957	18.761	2237.116	2269.095
98.972	17.999	2232.622	2254.170
99.987	17.895	2229.472	2249.333
101.001	17.872	2227.195	2246.467
102.016	17.855	2224.301	2243.049
103.030	17.836	2222.553	2240.778
104.045	17.989	2220.336	2240.282
105.060	18.000	2218.361	2238.174
106.074	17.976	2216.686	2235.894
107.089	17.968	2214.554	2233.371
108.103	18.017	2213.700	2232.889
109.118	18.087	2211.806	2231.634
110.133	18.025	2210.892	2229.627
111.147	18.055	2208.814	2227.652
112.162	17.993	2207.632	2225.389
113.176	17.987	2204.905	2222.292
114.191	17.991	2203.278	2220.442
115.206	17.971	2202.549	2219.180
116.220	18.098	2199.718	2217.715
117.235	18.175	2196.838	2215.553
118.249	17.930	2195.898	2211.150
119.264	18.102	2194.492	2211.700
120.279	18.182	2193.038	2211.011
121.293	18.120	2190.583	2207.470
122.308	18.099	2189.492	2205.829
123.322	18.032	2188.330	2203.528
124.337	18.337	2188.500	2207.384
125.352	20.013	2192.889	2233.296
126.366	20.391	2190.970	2235.960
127.381	18.725	2182.733	2205.791
128.395	18.020	2178.755	2192.414
129.410	18.009	2177.362	2190.617
130.424	18.026	2175.946	2189.145
131.439	17.947	2174.259	2186.176
132.454	17.975	2172.252	2184.247
133.468	18.015	2169.331	2181.566
134.483	17.950	2168.673	2179.807
135.497	18.041	2166.894	2178.925
136.512	17.922	2164.491	2174.720
137.527	17.988	2162.011	2172.821
138.541	17.933	2162.156	2171.997
139.556	17.949	2160.073	2169.846
140.570	17.993	2159.941	2170.016
141.585	17.889	2157.170	2165.655
142.600	17.932	2155.242	2164.004
143.614	17.900	2154.313	2162.404
144.629	17.843	2152.452	2159.552
145.643	17.882	2150.798	2158.135
146.658	17.850	2148.722	2155.385
147.673	17.881	2147.023	2153.812
148.687	17.915	2145.815	2152.779
149.702	17.959	2144.588	2151.845
150.716	18.019	2143.762	2151.520
151.731	17.956	2142.337	2149.027
152.746	17.987	2140.772	2147.602
153.760	18.318	2142.994	2153.749
154.775	19.997	2146.743	2178.511
155.789	20.408	2144.687	2181.358
156.804	18.843	2136.907	2153.476
157.819	18.059	2131.370	2137.789
158.833	18.024	2129.034	2134.754
159.848	18.124	2126.980	2133.696
160.862	18.130	2125.864	2132.386
161.877	18.110	2124.725	2130.745
162.892	18.162	2123.027	2129.430
163.906	18.256	2121.221	2128.547
164.921	18.065	2120.072	2124.746
165.935	18.035	2117.981	2122.021
166.950	18.017	2116.484	2120.044
167.964	18.144	2114.372	2119.258
168.979	18.065	2111.831	2115.480
169.994	18.016	2110.768	2113.546
171.008	17.916	2109.885	2111.167
172.023	18.023	2108.208	2110.573
173.037	18.041	2107.419	2109.752
174.052	18.012	2104.677	2106.397
175.067	17.925	2104.416	2104.794
176.081	17.920	2103.118	2103.188
177.096	17.967	2101.460	2101.861
178.110	17.802	2099.964	2098.076
179.125	17.888	2098.765	2097.690
180.140	17.994	2096.476	2096.449
181.154	17.964	2095.956	2095.317
182.169	17.934	2094.392	2093.133
183.183	18.468	2094.615	2099.683
184.198	20.123	2099.453	2124.682
185.213	20.546	2096.708	2126.856
186.227	18.841	2090.539	2099.422
187.242	18.145	2086.851	2086.936
188.256	18.052	2085.781	2084.469
189.271	18.033	2084.345	2082.552
190.286	18.025	2082.237	2080.102
191.300	18.058	2079.563	2077.583
192.315	17.993	2077.295	2074.273
193.329	18.016	2076.751	2073.765
194.344	18.199	2075.029	2074.025
195.359	18.151	2074.569	2072.736
196.373	18.083	2072.761	2069.849
197.388	18.070	2069.905	2066.594
198.402	17.943	2068.327	2063.232
199.417	17.884	2065.770	2059.720
200.432	18.003	2064.673	2059.824
201.446	17.942	2063.926	2058.087
202.461	17.890	2061.777	2055.069
203.475	17.874	2060.714	2053.572
204.490	17.944	2058.184	2051.647
205.504	17.928	2056.402	2049.437
206.519	17.952	2053.458	2046.547
207.534	17.987	2051.727	2044.990
208.548	18.023	2050.815	2044.269
209.563	18.034	2049.496	2042.844
210.577	18.030	2048.221	2041.284
211.592	17.906	2048.249	2039.583
212.607	18.830	2050.855	2053.037
213.621	20.812	2054.997	2080.757
214.636	20.399	2050.142	2070.646
215.650	18.465	2043.769	2040.840
216.665	18.101	2040.868	2033.347
217.680	18.191	2039.180	2032.489
218.694	18.133	2037.037	2029.426
219.709	17.996	2036.069	2026.580
220.723	18.049	2034.797	2025.703
221.738	17.981	2033.280	2023.140
222.753	18.034	2030.480	2020.740
223.767	18.005	2028.855	2018.541
224.782	18.076	2026.878	2017.170
225.796	17.987	2026.510	2015.512
226.811	18.180	2024.813	2015.871
227.826	18.135	2022.164	2012.457
228.840	18.095	2020.866	2010.457
229.855	17.997	2020.866	2009.056
230.869	18.051	2018.908	2007.506
231.884	18.069	2017.542	2006.118
232.899	17.989	2016.148	2003.550
233.913	17.986	2013.701	2000.841
234.928	18.071	2013.308	2001.207
235.942	17.974	2012.678	1999.209
236.957	18.137	2010.172	1998.392
237.972	18.077	2008.708	1995.995
238.986	18.091	2007.921	1995.136
240.001	17.955	2006.069	1991.463
241.015	17.987	2004.478	1990.014
242.030	18.270	2006.163	1994.768
243.045	19.871	2008.730	2015.842
244.059	20.195	2005.494	2016.147
245.074	18.674	1998.893	1991.545
246.088	18.190	1996.197	1982.976
247.103	18.012	1994.670	1979.149
248.117	18.086	1992.345	1977.468
249.132	18.068	1991.277	1975.964
250.147	18.025	1989.577	1973.536
251.161	18.001	1988.016	1971.478
252.176	18.002	1987.633	1970.866
253.190	18.203	1985.478	1970.828
254.205	18.076	1983.433	1967.089
255.220	18.141	1981.836	1966.019
256.234	18.096	1981.015	1964.451
257.249	18.205	1979.260	1963.731
258.263	18.128	1978.311	1961.667
259.278	18.161	1977.640	1961.154
260.293	17.940	1976.486	1957.221
261.307	18.030	1973.649	1955.220
262.322	17.931	1972.228	1952.435
263.336	17.944	1970.664	1950.802
264.351	17.880	1969.628	1948.810
265.366	17.749	1968.039	1945.507
266.380	17.879	1966.772	1945.504
267.395	17.985	1965.878	1945.601
268.409	17.956	1963.560	1942.751
269.424	17.931	1962.339	1941.019
270.439	18.001	1961.497	1940.751
271.453	18.559	1961.458	1946.858
272.468	20.222	1964.305	1968.428
273.482	20.349	1961.270	1966.603
274.497	18.578	1955.820	1940.771
275.512	18.088	1951.404	1930.604
276.526	18.054	1949.030	1927.631
277.541	18.154	1946.702	1926.238
278.555	18.000	1946.632	1924.194
279.570	17.878	1945.390	1921.349
280.585	17.940	1943.558	1920.014
281.599	18.038	1942.076	1919.427
282.614	18.162	1940.996	1919.526
283.628	18.195	1939.654	1918.342
284.643	18.169	1939.104	1917.277
285.657	18.229	1938.288	1916.920
286.672	18.278	1935.831	1914.803
287.687	18.229	1934.628	1912.842
288.701	18.230	1933.358	1911.366
289.716	18.082	1932.124	1908.255
290.730	18.159	1929.786	1906.583
291.745	18.151	1928.691	1905.182
292.760	18.124	1928.538	1904.503
293.774	18.077	1927.568	1902.793
294.789	18.271	1925.628	1902.810
295.803	17.987	1923.601	1897.409
296.818	17.911	1922.191	1894.942
297.833	17.999	1921.285	1894.803
298.847	17.942	1920.684	1893.355
299.862	18.054	1917.987	1891.713
300.876	18.420	1918.134	1895.700
301.891	20.134	1922.372	1918.750
302.906	20.555	1920.264	1921.097
303.920	18.765	1914.086	1894.849
304.935	18.135	1910.563	1884.164
305.949	18.136	1908.468	1881.876
306.964	18.074	1907.283	1879.796
307.979	18.096	1905.719	1878.281
308.993	18.242	1903.597	1877.570
310.008	18.217	1903.055	1876.535
311.022	18.183	1901.186	1874.092
312.037	18.274	1899.555	1873.268
313.052	18.234	1898.350	1871.412
314.066	18.227	1896.153	1868.949
315.081	18.287	1896.047	1869.280
316.095	18.126	1895.158	1866.412
317.110	18.294	1892.485	1865.390
318.125	18.170	1890.521	1861.874
319.139	18.257	1889.479	1861.583
320.154	18.156	1888.721	1859.502
321.168	18.154	1887.422	1857.986
322.183	18.068	1886.074	1855.493
323.197	17.974	1884.662	1852.854
324.212	17.833	1882.704	1849.181
325.227	17.814	1881.388	1847.457
326.241	17.873	1879.444	1845.963
327.256	18.060	1877.617	1845.985
328.270	18.085	1877.094	1845.523
329.285	18.042	1876.840	1844.577
330.300	18.605	1879.266	1852.856
331.314	20.572	1882.612	1877.308
332.329	20.426	1877.809	1870.714
333.343	18.502	1872.276	1844.193
334.358	18.019	1869.780	1836.290
335.373	18.116	1867.386	1834.765
336.387	17.912	1866.236	1831.222
337.402	17.882	1864.497	1828.974
338.416	18.068	1862.640	1828.934
339.431	18.001	1861.576	1826.953
340.446	18.101	1859.575	1825.834
341.460	18.098	1859.165	1825.189
342.475	18.129	1857.100	1823.269
343.489	18.187	1854.779	1821.401
344.504	18.317	1854.023	1821.832
345.519	18.395	1852.172	1820.625
346.533	18.265	1851.669	1818.527
347.548	18.501	1850.181	1819.357
348.562	18.250	1848.799	1815.112
349.577	18.281	1847.905	1814.341
350.592	18.223	1847.066	1812.684
351.606	18.403	1844.819	1812.180
352.621	18.091	1843.565	1807.408
353.635	17.951	1842.483	1804.647
354.650	18.039	1840.290	1803.223
355.665	18.044	1838.734	1801.529
356.679	17.912	1838.333	1799.528
357.694	17.975	1837.055	1798.721
358.708	17.889	1835.929	1796.498
359.723	18.660	1837.992	1806.460
360.738	20.469	1841.020	1828.375
361.752	20.037	1836.109	1818.725
362.767	18.469	1830.571	1796.505
363.781	18.025	1828.604	1789.686
364.796	17.986	1827.280	1787.772
365.810	18.010	1824.891	1785.473
366.825	17.919	1824.324	1783.747
367.840	17.967	1823.866	1783.588
368.854	18.012	1823.004	1783.005
369.869	18.061	1820.142	1780.509
370.883	17.806	1818.693	1776.209
371.898	17.958	1817.753	1776.665
372.913	18.080	1816.345	1776.353
373.927	18.044	1815.198	1774.637
374.942	17.887	1814.550	1772.152
375.956	18.133	1813.221	1773.210
376.971	17.953	1811.270	1769.213
377.986	17.992	1808.623	1766.826
379.000	18.009	1806.656	1764.871
380.015	18.314	1805.253	1766.452
381.029	18.268	1805.164	1765.676
382.044	18.117	1803.476	1762.249
383.059	18.169	1801.343	1760.491
384.073	18.012	1800.645	1757.973
385.088	18.013	1800.124	1757.268
386.102	18.005	1797.936	1754.838
387.117	17.980	1795.739	1752.219
388.132	17.951	1795.752	1751.727
389.146	18.454	1799.353	1760.221
390.161	20.344	1800.861	1780.999
391.175	20.259	1794.442	1773.562
392.190	18.634	1788.178	1750.506
393.205	17.976	1786.129	1741.557
394.219	18.084	1784.715	1741.074
395.234	18.196	1783.057	1740.390
396.248	18.065	1782.204	1738.011
397.263	18.053	1779.348	1734.895
398.278	18.093	1778.058	1733.838
399.292	18.099	1777.018	1732.674
400.307	18.089	1777.607	1732.939
401.321	18.280	1775.549	1732.670
402.336	18.113	1773.864	1729.126
403.350	18.221	1772.068	1728.266
404.365	18.302	1770.936	1727.779
405.380	18.305	1770.490	1727.159
406.394	18.351	1770.202	1727.145
407.409	18.176	1768.657	1723.653
408.423	18.388	1766.337	1723.334
409.438	18.233	1764.763	1720.022
410.453	18.398	1764.013	1720.757
411.467	18.237	1763.398	1718.318
412.482	18.269	1761.051	1716.148
413.496	18.065	1759.751	1712.625
414.511	18.160	1758.018	1711.688
415.526	18.187	1755.245	1709.056
416.540	17.983	1755.056	1706.622
417.555	18.013	1753.608	1705.305
418.569	18.049	1753.721	1705.571
419.584	18.083	1754.060	1706.041
420.599	17.987	1753.550	1704.375
421.613	18.011	1751.934	1702.842
422.628	18.065	1751.035	1702.305
423.642	18.177	1748.542	1700.802
424.657	18.071	1747.372	1698.403
425.672	18.015	1746.151	1696.452
426.686	17.985	1744.213	1694.064
427.701	17.967	1743.291	1692.790
428.715	18.008	1741.376	1691.128
429.730	18.195	1739.771	1691.230
430.745	18.078	1739.081	1689.199
431.759	18.222	1738.019	1689.390
432.774	18.255	1737.831	1689.335
433.788	18.145	1736.591	1686.830
434.803	18.221	1735.995	1686.808
435.818	18.222	1735.493	1686.131
436.832	18.012	1735.196	1683.557
437.847	17.212	1727.717	1668.205
438.861	9.783	1707.501	1575.787
439.876	1.670	1692.845	1482.856
440.890	0.276	1688.965	1465.660
441.905	0.181	1688.526	1464.171
442.920	0.123	1687.468	1462.510
443.934	0.095	1685.432	1460.303
444.949	0.136	1684.101	1459.371
445.963	0.151	1683.511	1458.832
446.978	0.073	1682.901	1457.366
447.993	0.176	1681.369	1456.871
449.007	0.096	1678.739	1453.637
450.022	0.142	1676.697	1452.146
451.036	0.272	1675.660	1452.334
452.051	1.223	1680.095	1465.234
453.066	9.069	1697.542	1557.014
454.080	16.471	1709.551	1640.281
455.095	17.698	1711.114	1653.556
456.109	17.892	1710.934	1655.073
457.124	18.147	1709.695	1656.158
458.139	18.117	1708.290	1654.308
459.153	17.877	1707.092	1650.614
460.168	18.036	1705.277	1650.212
461.182	17.987	1703.474	1647.791
462.197	17.961	1701.444	1645.373
463.212	17.960	1700.493	1644.251
464.226	17.781	1699.777	1641.635
465.241	18.124	1698.702	1643.715
466.255	18.071	1697.592	1641.932
467.270	17.971	1695.981	1639.213
468.285	17.981	1694.644	1637.814
469.299	17.871	1693.973	1635.913
470.314	17.898	1692.323	1634.382
471.328	17.976	1690.257	1632.939
472.343	17.927	1689.291	1631.341
473.358	18.065	1688.283	1631.503
474.372	17.995	1686.516	1628.930
475.387	18.070	1685.310	1628.280
476.401	17.963	1684.464	1626.251
477.416	18.024	1683.733	1625.933
478.430	17.998	1682.199	1624.002
479.445	17.989	1681.048	1622.611
480.460	17.988	1679.509	1620.923
481.474	18.048	1677.873	1619.728
482.489	18.001	1676.484	1617.747
483.503	18.169	1674.998	1617.716
484.518	18.035	1674.284	1615.555
485.533	18.188	1672.467	1615.063
486.547	18.083	1671.309	1612.757
487.562	18.244	1670.624	1613.429
488.576	18.276	1669.312	1612.267
489.591	18.129	1668.489	1609.886
490.606	18.168	1666.728	1608.367
491.620	18.059	1665.329	1605.793
492.635	18.234	1663.464	1605.454
493.649	18.152	1661.893	1602.974
494.664	18.240	1661.303	1603.038
495.679	17.802	1660.530	1597.976
496.693	17.906	1658.405	1596.724
497.708	17.975	1657.554	1596.358
498.722	18.022	1656.272	1595.374
499.737	18.133	1654.815	1594.821
500.752	18.174	1652.790	1593.059
501.766	18.110	1651.347	1590.882
502.781	18.131	1649.559	1589.167
503.795	18.162	1648.644	1588.380
504.810	18.101	1648.159	1587.152
505.825	17.998	1648.421	1586.259
506.839	18.166	1645.937	1585.239
507.854	18.146	1644.603	1583.585
508.868	18.076	1643.257	1581.445
509.883	18.111	1642.500	1580.848
510.898	18.046	1641.428	1579.024
511.912	18.035	1639.235	1576.629
512.927	18.118	1636.951	1575.012
513.941	18.109	1636.055	1573.875
514.956	18.152	1634.887	1572.966
515.971	18.092	1634.416	1571.771
516.985	17.981	1633.367	1569.546
518.000	17.965	1632.777	1568.637
519.014	18.018	1631.461	1567.678
520.029	17.987	1629.846	1565.655
521.043	18.081	1627.773	1564.340
522.058	18.046	1627.678	1563.735
523.073	18.122	1626.354	1562.981
524.087	18.096	1625.833	1562.047
525.102	18.150	1624.231	1560.822
526.116	18.259	1621.717	1559.218
527.131	18.157	1621.685	1558.065
528.146	18.325	1620.335	1558.120
529.160	18.319	1618.802	1556.401
530.175	18.212	1618.880	1555.311
531.189	18.099	1618.284	1553.527
532.204	18.261	1616.389	1552.997
533.219	18.149	1614.977	1550.431
534.233	18.169	1613.535	1549.047
535.248	18.258	1612.123	1548.311
536.262	18.324	1611.284	1547.919
537.277	18.121	1611.215	1545.827
538.292	18.220	1608.704	1544.131
539.306	18.184	1607.111	1542.086
540.321	18.183	1606.052	1540.878
541.335	18.179	1605.535	1540.162
542.350	18.291	1602.924	1538.490
543.365	18.330	1601.210	1537.007
544.379	18.326	1600.656	1536.252
545.394	18.384	1599.273	1535.268
546.408	18.197	1598.177	1532.352
547.423	18.139	1597.198	1530.705
548.438	18.070	1596.251	1528.989
549.452	18.070	1594.801	1527.422
550.467	18.136	1593.991	1527.053
551.481	18.203	1593.154	1526.671
552.496	18.126	1592.126	1524.811
553.511	18.260	1590.505	1524.279
554.525	18.183	1589.229	1522.181
555.540	18.353	1589.091	1523.394
556.554	18.325	1587.327	1521.267
557.569	18.311	1585.744	1519.443
558.583	18.249	1584.385	1517.406
559.598	18.121	1582.680	1514.455
560.613	18.289	1581.321	1514.467
561.627	18.227	1580.528	1512.970
562.642	18.395	1579.102	1512.920
563.656	18.288	1577.896	1510.629
564.671	18.219	1576.623	1508.618
565.686	18.340	1575.563	1508.498
566.700	18.175	1574.813	1506.135
567.715	18.022	1572.971	1502.840
568.729	18.080	1571.971	1502.218
569.744	18.240	1569.674	1501.255
570.759	18.232	1568.521	1499.907
571.773	18.130	1568.658	1498.959
572.788	18.158	1567.291	1497.716
573.802	18.100	1566.073	1495.868
574.817	18.159	1563.744	1493.980
575.832	18.199	1562.703	1493.156
576.846	18.287	1562.007	1493.088
577.861	18.446	1559.962	1492.344
578.875	18.312	1559.613	1490.657
579.890	18.343	1558.719	1489.898
580.905	18.367	1558.197	1489.427
581.919	18.330	1557.826	1488.574
582.934	18.354	1556.647	1487.478
583.948	18.411	1555.069	1486.292
584.963	18.181	1553.814	1482.904
585.978	18.287	1552.313	1482.218
586.992	18.378	1551.399	1481.962
588.007	18.319	1551.365	1481.235
589.021	18.527	1549.446	1481.031
590.036	18.304	1548.398	1477.921
591.051	18.288	1547.389	1476.639
592.065	18.488	1545.697	1476.582
593.080	18.405	1543.829	1473.902
594.094	18.384	1542.435	1472.214
595.109	18.275	1540.609	1469.358
596.123	18.148	1539.769	1467.281
597.138	18.251	1538.545	1466.826
598.153	18.517	1536.797	1467.277
599.167	18.303	1535.661	1464.179
600.182	18.283	1534.745	1462.952
601.196	18.414	1534.131	1463.318
602.211	18.372	1532.813	1461.525
603.226	18.450	1531.494	1460.765
604.240	18.435	1529.520	1458.573
605.255	18.500	1528.614	1458.095
606.269	18.341	1528.358	1456.316
607.284	18.460	1527.031	1455.897
608.299	18.379	1526.264	1454.293
609.313	18.280	1525.370	1452.422
610.328	18.371	1523.434	1451.186
611.342	18.461	1522.045	1450.449
612.357	18.321	1521.823	1448.878
613.372	18.518	1520.489	1449.109
614.386	18.412	1519.390	1446.984
615.401	18.444	1518.334	1446.080
616.415	18.426	1518.038	1445.470
617.430	18.329	1516.866	1443.363
618.445	18.458	1515.499	1442.982
619.459	18.365	1514.369	1440.947
620.474	18.218	1513.170	1438.391
621.488	18.169	1512.431	1437.102
622.503	18.252	1511.270	1436.520
623.518	18.318	1510.171	1435.866
624.532	18.189	1509.014	1433.510
625.547	18.346	1508.088	1433.779
626.561	18.376	1507.158	1432.968
627.576	18.509	1505.629	1432.461
628.591	18.368	1504.252	1429.802
629.605	18.235	1503.147	1427.468
630.620	18.289	1502.206	1426.851
631.634	18.270	1501.125	1425.498
632.649	18.330	1499.726	1424.499
633.663	18.408	1498.398	1423.712
634.678	18.245	1497.110	1420.959
635.693	18.384	1495.992	1420.887
636.707	18.371	1493.848	1418.579
637.722	18.366	1493.674	1418.196
638.736	18.396	1493.090	1417.726
639.751	18.503	1491.433	1416.871
640.766	18.526	1489.664	1415.215
641.780	18.556	1488.590	1414.271
642.795	18.472	1488.169	1413.003
643.809	18.607	1487.640	1413.448
644.824	18.531	1486.507	1411.573
645.839	18.370	1485.697	1409.309
646.853	18.553	1484.134	1409.165
647.868	18.512	1482.359	1406.976
648.882	18.683	1480.900	1406.831
649.897	18.631	1480.197	1405.570
650.912	18.517	1478.578	1402.922
651.926	18.483	1477.753	1401.692
652.941	18.653	1476.530	1401.765
653.955	18.568	1475.031	1399.471
654.970	18.490	1473.242	1396.971
655.985	18.517	1472.310	1396.138
656.999	18.553	1470.894	1394.921
658.014	18.511	1470.347	1393.897
659.028	18.691	1468.880	1393.808
660.043	18.622	1468.463	1392.682
661.058	18.563	1466.782	1390.441
662.072	18.614	1466.425	1390.349
663.087	18.502	1465.528	1388.421
664.101	18.420	1463.875	1386.024
665.116	18.467	1463.339	1385.736
666.131	18.460	1462.309	1384.530
667.145	18.472	1460.630	1382.879
668.160	18.468	1460.369	1382.432
669.174	18.574	1458.659	1381.500
670.189	18.626	1457.200	1380.375
671.204	18.517	1456.363	1378.534
672.218	18.551	1455.715	1378.038
673.233	18.641	1453.751	1376.738
674.247	18.636	1452.500	1375.346
675.262	18.469	1452.261	1373.608
676.276	18.716	1450.878	1374.124
677.291	18.611	1449.635	1371.939
678.306	18.568	1448.801	1370.638
679.320	18.568	1447.686	1369.418
680.335	18.396	1447.315	1367.531
681.349	18.643	1446.814	1368.867
682.364	18.673	1444.297	1366.563
683.379	18.504	1443.172	1363.986
684.393	18.631	1442.410	1364.115
685.408	18.625	1441.393	1362.947
686.422	18.571	1440.413	1361.425
687.437	18.491	1440.362	1360.576
688.452	18.601	1439.482	1360.455
689.466	18.594	1437.230	1358.114
690.481	18.414	1436.022	1355.378
691.495	18.207	1435.598	1353.167
692.510	18.369	1434.501	1353.261
693.525	18.515	1432.900	1352.743
694.539	18.339	1432.009	1350.348
695.554	18.301	1431.465	1349.373
696.568	18.455	1429.898	1348.952
697.583	18.530	1429.158	1348.686
698.598	18.715	1427.805	1348.707
699.612	18.626	1427.007	1347.090
700.627	18.514	1426.299	1345.378
701.641	18.619	1424.391	1344.244
702.656	18.644	1423.377	1343.321
703.671	18.731	1423.323	1343.794
704.685	18.512	1423.288	1341.875
705.700	18.656	1421.448	1341.115
706.714	18.732	1419.312	1339.530
707.729	18.524	1419.081	1337.522
708.744	18.694	1417.121	1336.844
709.758	18.667	1416.047	1335.461
710.773	18.575	1415.751	1334.300
711.787	18.532	1413.740	1331.914
712.802	18.654	1411.805	1330.882
713.816	18.664	1410.847	1329.897
714.831	18.626	1410.746	1329.350
715.846	18.756	1409.825	1329.334
716.860	18.678	1408.210	1327.044
717.875	18.831	1407.544	1327.448
718.889	18.630	1407.144	1325.348
719.904	18.635	1406.280	1324.413
720.919	18.621	1404.519	1322.491
721.933	18.769	1403.299	1322.325
722.948	18.779	1402.458	1321.452
723.962	18.814	1401.250	1320.427
724.977	18.846	1400.163	1319.497
725.992	18.579	1399.261	1316.428
727.006	18.579	1397.892	1314.980
728.021	18.708	1395.830	1313.876
729.035	18.753	1395.101	1313.376
730.050	18.710	1394.281	1312.122
731.065	18.738	1393.109	1311.073
732.079	18.723	1392.711	1310.430
733.094	18.723	1391.608	1309.230
734.108	18.765	1389.320	1307.247
735.123	18.696	1388.610	1305.890
736.138	18.802	1387.631	1305.622
737.152	18.594	1386.907	1303.196
738.167	18.815	1385.576	1303.481
739.181	18.776	1384.994	1302.474
740.196	18.771	1383.820	1301.177
741.211	18.680	1383.056	1299.611
742.225	18.680	1381.739	1298.218
743.240	18.717	1380.605	1297.281
744.254	18.655	1379.149	1295.289
745.269	18.668	1378.324	1294.457
746.284	18.607	1377.284	1292.862
747.298	18.590	1376.346	1291.694
748.313	18.446	1375.192	1289.373
749.327	18.419	1374.736	1288.583
750.342	18.405	1374.003	1287.641
751.356	18.371	1372.714	1286.017
752.371	18.460	1371.855	1285.732
753.386	18.498	1370.613	1284.700
754.400	18.657	1369.123	1284.346
755.415	18.638	1368.528	1283.493
756.429	18.881	1367.032	1283.756
757.444	18.653	1365.933	1280.859
758.459	18.741	1365.492	1280.954
759.473	18.766	1364.660	1280.207
760.488	18.882	1362.894	1279.265
761.502	18.928	1361.757	1278.390
762.517	18.750	1360.961	1276.158
763.532	18.801	1359.421	1274.947
764.546	18.716	1358.626	1273.411
765.561	18.685	1357.916	1272.362
766.575	18.773	1356.755	1271.782
767.590	18.754	1355.517	1270.326
768.605	18.728	1354.400	1268.933
769.619	18.890	1352.762	1268.445
770.634	18.800	1352.531	1267.414
771.648	18.890	1351.533	1266.993
772.663	18.842	1351.203	1266.178
773.678	18.884	1349.898	1265.116
774.692	18.792	1349.186	1263.610
775.707	18.776	1348.931	1263.105
776.721	18.813	1347.752	1262.121
777.736	18.954	1346.213	1261.567
778.751	18.800	1345.537	1259.648
779.765	18.829	1344.536	1258.774
780.780	18.685	1343.852	1256.925
781.794	18.684	1342.576	1255.576
782.809	18.883	1340.912	1255.326
783.824	18.681	1340.600	1253.402
784.838	18.523	1338.696	1250.318
785.853	18.482	1338.227	1249.426
786.867	18.326	1338.010	1247.936
787.882	18.319	1337.477	1247.232
788.897	18.497	1336.452	1247.429
789.911	18.451	1335.658	1246.208
790.926	18.480	1334.359	1245.057
791.940	18.553	1332.574	1243.771
792.955	18.707	1330.860	1243.149
793.969	18.797	1329.708	1242.578
794.984	18.617	1329.763	1241.169
795.999	18.759	1328.409	1240.786
797.013	18.882	1326.728	1239.959
798.028	18.643	1325.628	1237.056
799.042	18.776	1324.956	1237.244
800.057	18.882	1323.847	1236.823
801.072	18.924	1322.454	1235.681
802.086	18.853	1321.270	1233.910
803.101	18.762	1320.713	1232.585
804.115	19.042	1319.778	1233.585
805.130	18.883	1318.507	1231.103
806.145	18.910	1316.898	1229.650
807.159	18.996	1315.361	1228.685
808.174	18.868	1314.557	1226.868
809.188	18.898	1313.433	1225.885
810.203	18.893	1311.807	1224.189
811.218	18.751	1310.529	1221.829
812.232	18.818	1309.363	1221.079
813.247	18.834	1308.886	1220.604
814.261	18.494	1308.782	1217.932
815.276	18.756	1307.161	1218.141
816.291	18.800	1306.075	1217.302
817.305	18.865	1305.427	1217.012
818.320	18.909	1303.298	1215.193
819.334	18.903	1302.253	1214.029
820.349	18.891	1300.853	1212.499
821.364	18.897	1299.685	1211.304
822.378	18.937	1298.398	1210.242
823.393	18.813	1296.638	1207.581
824.407	18.841	1295.599	1206.666
825.422	18.785	1295.870	1206.381
826.437	18.766	1294.475	1204.806
827.451	18.673	1292.567	1202.230
828.466	18.393	1291.512	1199.135
829.480	18.429	1289.799	1197.653
830.495	18.629	1287.798	1197.055
831.509	18.663	1287.362	1196.746
832.524	18.744	1286.966	1196.803
833.539	18.804	1285.885	1196.075
834.553	18.949	1284.450	1195.605
835.568	18.781	1282.948	1192.891
836.582	18.931	1282.424	1193.311
837.597	19.039	1280.998	1192.593
838.612	18.963	1279.169	1190.216
839.626	18.989	1278.431	1189.570
840.641	18.957	1277.504	1188.346
841.655	18.931	1276.600	1187.180
842.670	18.828	1275.860	1185.636
843.685	18.829	1274.862	1184.574
844.699	18.860	1273.832	1183.688
845.714	18.881	1272.305	1182.270
846.728	18.920	1272.034	1182.149
847.743	18.848	1270.940	1180.496
848.758	18.944	1269.634	1179.802
849.772	18.998	1268.343	1178.831
850.787	18.722	1266.911	1175.464
851.801	18.875	1265.401	1174.974
852.816	18.824	1264.484	1173.626
853.831	18.637	1262.766	1170.614
854.845	18.828	1261.051	1170.187
855.860	18.770	1259.393	1168.118
856.874	18.670	1258.401	1166.371
857.889	18.516	1257.168	1164.040
858.904	18.440	1255.731	1162.047
859.918	18.651	1253.799	1161.559
860.933	18.511	1252.930	1159.664
861.947	18.631	1252.616	1160.051
862.962	18.658	1251.268	1158.843
863.977	18.717	1250.593	1158.481
864.991	18.723	1249.528	1157.396
866.006	18.854	1249.235	1157.876
867.020	18.868	1247.920	1156.615
868.035	18.855	1246.612	1155.172
869.049	18.836	1246.284	1154.606
870.064	18.873	1245.361	1153.857
871.079	18.895	1244.788	1153.340
872.093	19.018	1244.097	1153.390
873.108	18.968	1242.854	1151.764
874.122	19.038	1240.887	1150.273
875.137	18.907	1240.714	1149.092
876.152	18.779	1239.694	1147.153
877.166	19.061	1237.586	1146.956
878.181	19.178	1236.312	1146.422
879.195	19.131	1236.721	1146.346
880.210	18.949	1236.018	1144.342
881.225	18.871	1235.240	1142.965
882.239	18.922	1233.821	1141.851
883.254	19.084	1232.519	1141.591
884.268	18.928	1231.889	1139.831
885.283	19.036	1230.627	1139.243
886.298	18.969	1229.556	1137.671
887.312	19.159	1228.037	1137.391
888.327	19.095	1226.898	1135.776
889.341	19.008	1225.474	1133.745
890.356	19.014	1225.157	1133.356
891.371	19.021	1224.955	1133.082
892.385	18.939	1224.139	1131.648
893.400	18.834	1223.460	1130.194
894.414	18.839	1221.885	1128.636
895.429	18.833	1220.131	1126.842
896.444	18.738	1218.457	1124.533
897.458	18.591	1217.583	1122.625
898.473	18.647	1217.267	1122.566
899.487	18.901	1216.186	1123.105
900.502	18.860	1215.114	1121.709
901.517	19.068	1213.988	1121.902
902.531	19.125	1213.547	1121.729
903.546	19.063	1213.447	1121.098
904.560	19.005	1211.766	1119.033
905.575	18.971	1211.069	1118.030
906.589	18.986	1210.706	1117.661
907.604	19.012	1209.862	1116.922
