DTS Sentinel unit serial number:	SN409020Multiplexer serial number:	ORYXHardware model number:	OX4-SRSoftware version number:	ORYX F/W v3.00 Oryx Data Collector v3.7.2.0data status	okinstallation	HaddamTimeLapsedifferential loss correction	single-endedforward channel	channel 3reverse channel	N/Adate	2011/06/21time	19:21:17forward acquisition time	30.00reverse acquisition time	0.00gamma	498.7831k internal	0.1797k external	0.1797temperature offset calibration	1.0074default loss term (dB/km)	0.3790temperature slope calibration	1.3530multiplexer offset coefficient	1.0000multiplexer slope coefficient	1.0000fibre end	0.00T internal ref (°C)	34.06T ext. ref 1 (°C)	26.97T ext. ref 2 (°C)	0.24length (m)	temperature (°C)	Stokes	anti-Stokes-747.200	-21.237	-0.153	-0.121
-746.185	-26.058	-0.232	0.176
-745.171	-30.692	-0.180	0.132
-744.156	238.520	0.137	0.295
-743.142	-142.649	-0.566	0.071
-742.127	-34.012	-0.087	0.062
-741.112	5.581	0.063	-0.061
-740.098	-41.051	-0.506	0.337
-739.083	-157.079	-0.328	0.026
-738.069	398.283	-0.270	0.735
-737.054	-53.379	-0.084	0.050
-736.039	-59.870	0.403	-0.222
-735.025	3.770	0.317	-0.299
-734.010	-200.000	-0.015	0.501
-732.996	800.000	-0.049	0.256
-731.981	-200.000	0.000	0.206
-730.966	114.572	0.135	-0.214
-729.952	-35.621	-0.085	-0.060
-728.937	-11.146	0.302	-0.257
-727.923	800.000	-0.111	-0.538
-726.908	5.316	-0.331	-0.316
-725.894	-54.654	-0.075	0.044
-724.879	45.297	0.253	0.303
-723.864	-92.874	-0.346	-0.124
-722.850	-60.655	-0.147	0.080
-721.835	29.895	-0.252	-0.277
-720.821	-129.863	0.176	0.031
-719.806	27.427	0.370	0.402
-718.791	41.694	0.169	0.199
-717.777	-200.000	-0.043	-0.455
-716.762	-29.037	-0.440	-0.326
-715.748	726.942	0.094	-0.326
-714.733	84.093	0.137	0.194
-713.718	800.000	0.052	0.252
-712.704	-200.000	-0.014	0.362
-711.689	-134.701	-0.517	0.080
-710.675	454.203	0.166	-0.478
-709.660	-95.371	-0.556	-0.192
-708.645	185.831	-0.218	0.420
-707.631	-200.000	0.010	-0.107
-706.616	-95.939	0.272	0.093
-705.602	-163.961	-0.554	0.033
-704.587	-46.697	-0.080	0.051
-703.572	168.040	-0.141	-0.261
-702.558	-114.307	-1.070	-0.265
-701.543	-109.598	-0.448	0.121
-700.529	800.000	0.013	0.049
-699.514	-53.075	-0.366	-0.217
-698.499	117.197	0.131	-0.209
-697.485	524.667	0.022	-0.066
-696.470	67.195	-0.353	0.466
-695.456	106.569	-0.114	0.175
-694.441	42.962	-0.155	-0.183
-693.426	179.104	-0.075	-0.142
-692.412	148.966	-0.339	0.594
-691.397	315.669	-0.159	0.389
-690.383	-168.714	-0.294	-0.014
-689.368	800.000	-0.076	-0.281
-688.354	53.266	-0.287	0.356
-687.339	-50.568	0.216	-0.131
-686.324	-200.000	-0.025	-0.391
-685.310	48.823	-0.243	-0.294
-684.295	27.075	0.185	0.201
-683.281	-90.282	-0.112	0.042
-682.266	261.861	-0.100	-0.225
-681.251	128.422	0.354	0.584
-680.237	-35.011	0.279	-0.196
-679.222	-113.467	-0.404	-0.101
-678.208	53.478	-0.210	0.260
-677.193	-200.000	-0.016	-0.161
-676.178	-18.967	-0.490	0.393
-675.164	-42.377	-0.374	-0.246
-674.149	485.441	0.088	0.261
-673.135	-200.000	-0.028	-0.370
-672.120	-126.046	0.256	0.049
-671.105	-127.077	-0.158	0.030
-670.091	-79.329	-0.268	-0.116
-669.076	-200.000	-0.018	-0.245
-668.062	-58.044	0.130	-0.073
-667.047	-155.122	-0.157	0.013
-666.032	-124.307	-0.429	0.086
-665.018	287.603	0.087	-0.205
-664.003	-162.200	0.402	0.026
-662.989	-163.310	0.261	0.016
-661.974	42.194	0.169	0.198
-660.959	800.000	-0.070	0.308
-659.945	166.381	-0.149	0.274
-658.930	-66.217	-0.171	-0.088
-657.916	-200.000	-0.013	-0.456
-656.901	-152.593	-0.422	0.038
-655.886	-200.000	0.021	0.378
-654.872	47.595	-0.175	0.210
-653.857	305.075	0.129	0.311
-652.843	98.348	-0.171	0.255
-651.828	-14.675	-0.219	0.181
-650.814	-67.545	0.354	-0.179
-649.799	-107.095	-0.462	-0.131
-648.784	442.688	0.166	-0.472
-647.770	50.942	0.089	-0.109
-646.755	441.539	-0.087	-0.247
-645.741	-138.456	-0.413	0.058
-644.726	-25.834	-0.208	0.158
-643.711	-85.941	0.200	0.079
-642.697	-65.670	-0.722	0.372
-641.682	-179.450	0.286	0.008
-640.668	800.000	0.098	0.472
-639.653	211.712	-0.320	0.652
-638.638	-24.792	-0.259	0.198
-637.624	53.065	0.067	0.083
-636.609	131.472	-0.042	0.070
-635.595	800.000	-0.020	0.095
-634.580	452.012	-0.223	0.639
-633.565	-200.000	-0.036	-0.261
-632.551	-96.672	0.154	-0.052
-631.536	19.631	0.260	0.270
-630.522	-7.590	0.282	-0.246
-629.507	-142.615	-0.218	0.027
-628.492	-19.532	0.344	0.274
-627.478	55.590	0.290	-0.362
-626.463	132.000	0.066	0.109
-625.449	-150.785	-0.431	-0.042
-624.434	-138.801	-0.503	-0.070
-623.419	56.027	-0.148	-0.185
-622.405	5.433	0.353	-0.336
-621.390	-99.063	0.355	-0.115
-620.376	0.034	0.238	0.218
-619.361	54.857	0.263	-0.328
-618.346	-136.105	0.311	-0.047
-617.332	-57.651	-0.272	-0.153
-616.317	41.996	-0.011	0.013
-615.303	55.750	-0.213	-0.266
-614.288	178.427	0.350	-0.661
-613.273	83.713	0.085	-0.120
-612.259	800.000	0.045	-0.228
-611.244	-35.864	-0.385	-0.268
-610.230	-142.660	-0.163	0.020
-609.215	-200.000	-0.021	0.370
-608.201	-112.764	-0.277	0.070
-607.186	800.000	-0.162	-0.626
-606.171	10.459	-0.071	0.070
-605.157	-37.019	-0.545	-0.375
-604.142	-200.000	-0.005	-0.076
-603.128	-89.326	-0.468	0.177
-602.113	-173.162	0.223	0.009
-601.098	-94.529	0.188	-0.066
-600.084	-8.972	-0.332	-0.286
-599.069	-200.000	-0.013	0.332
-598.055	59.664	0.299	0.380
-597.040	93.404	0.040	0.059
-596.025	293.510	0.046	-0.108
-595.011	-74.692	0.462	-0.213
-593.996	-21.204	-0.109	-0.085
-592.982	-129.262	-0.099	-0.018
-591.967	-60.117	0.260	0.142
-590.952	59.125	-0.248	-0.314
-589.938	-60.589	-0.110	-0.060
-588.923	-47.203	-0.378	0.236
-587.909	105.527	0.456	0.695
-586.894	-200.000	-0.025	-0.443
-585.879	800.000	-0.039	-0.151
-584.865	-78.470	0.077	0.034
-583.850	38.638	0.233	0.267
-582.836	173.093	-0.046	0.085
-581.821	-119.704	-0.158	0.035
-580.806	673.211	0.068	0.228
-579.792	-84.265	-0.246	-0.100
-578.777	224.667	0.110	0.231
-577.763	-101.814	0.223	0.069
-576.748	-127.095	0.529	0.099
-575.733	-200.000	-0.033	0.498
-574.719	-104.419	-0.338	0.100
-573.704	-200.000	0.009	-0.202
-572.690	-200.000	0.051	-0.699
-571.675	-193.324	0.188	0.002
-570.661	91.583	0.205	0.296
-569.646	-90.252	-0.500	-0.186
-568.631	-151.099	0.459	-0.044
-567.617	-30.797	0.216	-0.157
-566.602	-171.387	-0.463	-0.020
-565.588	-89.835	-0.194	0.073
-564.573	-162.406	-0.647	-0.041
-563.558	-42.501	0.291	0.190
-562.544	-57.591	-0.563	0.316
-561.529	-6.891	-0.025	0.022
-560.515	-65.256	-0.363	-0.187
-559.500	-112.521	-0.305	-0.078
-558.485	-200.000	0.199	-0.001
-557.471	-47.407	0.223	-0.139
-556.456	219.079	0.149	-0.308
-555.442	282.542	0.072	0.168
-554.427	718.430	0.063	0.217
-553.412	-75.204	-0.571	-0.261
-552.398	-149.811	-0.177	0.018
-551.383	176.643	-0.192	0.360
-550.369	-44.418	-0.073	0.047
-549.354	374.383	-0.151	-0.398
-548.339	106.660	-0.243	0.371
-547.325	-41.306	-0.394	0.260
-546.310	-151.438	0.572	0.054
-545.296	-22.741	0.306	-0.237
-544.281	-159.919	-0.296	-0.021
-543.266	-15.719	0.195	-0.159
-542.252	800.000	-0.045	0.169
-541.237	169.932	0.152	-0.281
-540.223	-71.158	-0.078	-0.038
-539.208	-138.606	-0.502	0.070
-538.193	-200.000	0.043	0.427
-537.179	-121.512	-0.214	-0.045
-536.164	128.819	0.145	-0.238
-535.150	-200.000	-0.024	0.248
-534.135	-200.000	0.050	-0.347
-533.121	-101.780	-0.057	0.018
-532.106	93.912	0.081	0.118
-531.091	-157.737	0.333	-0.025
-530.077	-4.370	0.269	0.239
-529.062	-200.000	-0.013	-0.396
-528.048	153.767	0.212	0.373
-527.033	267.606	-0.112	0.252
-526.018	-97.542	0.180	-0.060
-525.004	-20.843	0.195	-0.153
-523.989	-73.385	0.357	0.167
-522.975	21.507	0.220	-0.230
-521.960	66.116	0.089	0.116
-520.945	607.217	-0.121	0.389
-519.931	-11.387	-0.221	0.187
-518.916	-2.027	-0.375	0.338
-517.902	-3.254	0.221	0.197
-516.887	88.602	0.284	0.406
-515.872	132.573	0.351	0.582
-514.858	-54.314	0.168	-0.097
-513.843	-148.800	0.847	0.087
-512.829	-25.815	0.270	0.204
-511.814	-200.000	-0.022	-0.272
-510.799	-200.000	-0.021	-0.427
-509.785	-49.098	-0.205	0.126
-508.770	-41.350	-0.203	-0.134
-507.756	-98.890	-0.442	-0.143
-506.741	-165.002	0.385	0.022
-505.726	-26.184	0.158	-0.119
-504.712	-153.733	0.154	0.013
-503.697	-185.514	0.222	-0.004
-502.683	-136.275	-0.280	-0.041
-501.668	-137.006	0.352	0.051
-500.653	-200.000	-0.059	0.343
-499.639	-62.874	0.312	0.165
-498.624	120.870	0.215	-0.343
-497.610	63.037	0.056	-0.072
-496.595	-137.696	-0.238	-0.034
-495.581	-200.000	0.061	-0.393
-494.566	141.478	0.112	-0.191
-493.551	-19.160	0.137	-0.109
-492.537	-61.060	-0.161	0.087
-491.522	37.812	-0.282	0.321
-490.508	12.401	0.060	0.059
-489.493	273.978	-0.199	-0.453
-488.478	-121.241	0.210	-0.045
-487.464	-18.963	-0.115	0.091
-486.449	-35.765	0.221	-0.153
-485.435	-105.149	-0.187	0.054
-484.420	-35.133	-0.235	0.164
-483.405	21.490	0.282	-0.293
-482.391	-22.575	-0.316	-0.244
-481.376	-1.828	0.421	-0.379
-480.362	-57.713	0.147	-0.082
-479.347	-129.285	0.230	0.041
-478.332	220.644	-0.086	0.178
-477.318	-130.432	-0.293	-0.050
-476.303	-172.001	0.486	-0.020
-475.289	-80.705	-0.226	-0.096
-474.274	-130.119	-0.228	-0.039
-473.259	143.849	0.271	-0.465
-472.245	-102.993	-0.268	-0.081
-471.230	-42.046	-0.238	-0.156
-470.216	-140.850	-0.184	-0.024
-469.201	-200.000	-0.001	-0.251
-468.186	-29.160	-0.435	-0.319
-467.172	100.643	-0.214	-0.320
-466.157	800.000	0.015	0.067
-465.143	7.574	0.221	-0.212
-464.128	-200.000	-0.045	0.471
-463.113	-177.902	-0.527	0.016
-462.099	116.813	-0.161	0.253
-461.084	545.430	-0.154	0.473
-460.070	-163.648	-0.364	-0.022
-459.055	63.708	-0.065	0.084
-458.040	-12.922	0.256	-0.213
-457.026	-200.000	0.073	-0.529
-456.011	17.249	0.175	0.178
-454.997	-141.884	-0.228	0.029
-453.982	185.486	-0.086	-0.163
-452.968	-113.931	-0.126	0.031
-451.953	10.502	-0.270	0.264
-450.938	-34.916	-0.520	-0.362
-449.924	94.068	-0.061	0.089
-448.909	800.000	-0.017	-0.096
-447.895	-149.314	-0.586	-0.059
-446.880	45.846	-0.365	-0.432
-445.865	-173.437	0.383	0.015
-444.851	-85.865	-0.378	-0.149
-443.836	-85.651	0.172	-0.068
-442.822	-66.480	-0.339	0.171
-441.807	-200.000	0.020	-0.381
-440.792	-6.641	0.295	0.257
-439.778	142.291	-0.197	-0.335
-438.763	-138.145	0.278	0.039
-437.749	200.315	-0.269	-0.531
-436.734	-131.278	-0.506	-0.085
-435.719	-92.078	-0.240	-0.086
-434.705	-98.837	0.241	0.078
-433.690	36.366	-0.155	0.175
-432.676	-142.235	0.413	0.052
-431.661	-11.458	0.110	0.092
-430.646	-135.585	-0.346	-0.052
-429.632	-100.526	-0.537	0.169
-428.617	104.035	-0.095	-0.142
-427.603	18.316	-0.336	0.343
-426.588	-198.359	-0.281	0.002
-425.573	-200.000	0.010	0.077
-424.559	-131.990	0.519	-0.086
-423.544	-45.794	0.653	0.411
-422.530	-138.627	0.411	0.057
-421.515	9.743	-0.396	0.383
-420.500	-200.000	-0.002	0.511
-419.486	4.776	0.228	0.214
-418.471	-200.000	-0.062	0.546
-417.457	-118.660	0.262	-0.059
-416.442	-58.056	0.478	0.266
-415.428	13.892	-0.304	-0.302
-414.413	800.000	0.040	0.151
-413.398	800.000	-0.043	0.172
-412.384	-200.000	-0.022	-0.528
-411.369	-88.766	0.581	-0.219
-410.355	-200.000	0.030	0.190
-409.340	-151.328	0.034	-0.003
-408.325	-77.508	0.454	0.200
-407.311	126.795	0.099	0.160
-406.296	800.000	0.075	-0.316
-405.282	-90.862	0.278	-0.102
-404.267	448.068	0.046	0.130
-403.252	124.103	0.224	-0.360
-402.238	800.000	0.102	0.371
-401.223	-103.324	0.450	0.135
-400.209	49.301	-0.167	0.201
-399.194	-52.235	0.142	-0.084
-398.179	742.021	-0.063	0.219
-397.165	-93.237	0.116	-0.041
-396.150	32.129	-0.284	0.312
-395.136	800.000	0.029	-0.118
-394.121	-77.059	-0.500	0.222
-393.106	-52.746	-0.537	-0.315
-392.092	-34.384	-0.147	-0.103
-391.077	-0.208	0.266	-0.242
-390.063	-200.000	-0.006	-0.067
-389.048	-10.946	-0.179	-0.151
-388.033	-200.000	-0.011	0.093
-387.019	-200.000	0.043	-0.553
-386.004	-82.946	-0.261	-0.107
-384.990	-88.979	-0.273	-0.103
-383.975	-155.795	-0.174	0.014
-382.960	67.746	0.118	0.154
-381.946	-113.315	-0.246	0.061
-380.931	-68.237	0.304	-0.150
-379.917	-200.000	-0.065	-0.388
-378.902	192.990	0.148	0.286
-377.888	-200.000	-0.026	-0.230
-376.873	111.960	-0.092	-0.143
-375.858	247.724	0.146	0.315
-374.844	288.918	0.085	-0.198
-373.829	569.497	0.054	0.170
-372.815	-200.000	-0.029	0.655
-371.800	-147.206	-0.587	0.063
-370.785	-85.719	-0.374	0.147
-369.771	798.031	-0.063	-0.224
-368.756	-16.152	-0.135	-0.110
-367.742	-38.075	-0.043	-0.029
-366.727	-200.000	0.045	0.346
-365.712	-65.434	-0.339	-0.173
-364.698	-96.319	-0.503	0.169
-363.683	59.074	0.333	0.419
-362.669	-0.612	0.640	0.579
-361.654	-28.430	0.292	0.215
-360.639	85.428	0.123	-0.172
-359.625	-100.857	-0.324	-0.101
-358.610	-24.097	0.342	-0.260
-357.596	623.407	0.078	0.253
-356.581	-200.000	0.006	-0.064
-355.566	-56.443	-0.439	-0.248
-354.552	800.000	0.178	-0.739
-353.537	-107.298	0.323	-0.090
-352.523	-37.276	-0.225	0.153
-351.508	-64.098	0.034	0.018
-350.493	-80.123	0.258	-0.110
-349.479	53.057	0.243	0.297
-348.464	-94.952	-0.215	0.074
-347.450	-200.000	-0.021	0.300
-346.435	82.467	-0.371	0.515
-345.420	275.987	0.014	0.032
-344.406	89.934	0.043	-0.062
-343.391	-61.234	-0.422	-0.226
-342.377	-51.044	0.169	0.101
-341.362	-6.640	0.146	-0.126
-340.348	800.000	-0.141	-0.524
-339.333	-44.005	-0.204	0.130
-338.318	512.033	0.126	0.376
-337.304	0.184	-0.103	-0.093
-336.289	-200.000	0.032	0.338
-335.275	-46.049	0.151	-0.095
-334.260	-151.777	-0.111	-0.010
-333.245	-45.499	0.449	0.283
-332.231	11.947	-0.066	0.065
-331.216	-200.000	0.029	-0.338
-330.202	-94.247	0.123	0.043
-329.187	-100.594	-0.297	0.093
-328.172	-48.857	-0.245	-0.149
-327.158	614.806	-0.101	0.324
-326.143	719.144	0.198	0.674
-325.129	-85.728	0.066	0.026
-324.114	-165.209	-0.325	-0.018
-323.099	-34.885	0.477	-0.331
-322.085	93.129	0.062	0.090
-321.070	-43.662	0.321	0.206
-320.056	114.128	-0.224	0.347
-319.041	307.449	-0.072	0.171
-318.026	-200.000	0.083	0.480
-317.012	126.868	0.312	0.505
-315.997	-66.661	0.353	0.177
-314.983	-200.000	0.015	0.240
-313.968	-34.368	0.109	0.076
-312.953	-167.944	0.616	-0.030
-311.939	-200.000	0.038	-0.234
-310.924	-98.516	0.311	0.101
-309.910	352.370	0.149	0.378
-308.895	-69.435	0.640	0.311
-307.880	135.266	0.166	0.275
-306.866	-69.321	0.339	0.165
-305.851	-183.475	-0.278	-0.006
-304.837	-0.929	0.248	-0.223
-303.822	96.868	-0.150	-0.218
-302.807	-45.619	0.089	-0.056
-301.793	800.000	0.104	0.450
-300.778	395.380	0.048	0.127
-299.764	-107.882	-0.025	0.007
-298.749	-200.000	-0.011	0.321
-297.735	98.551	-0.297	-0.436
-296.720	4.765	-0.312	-0.291
-295.705	-200.000	-0.014	-0.333
-294.691	-108.813	0.193	0.052
-293.676	201.238	-0.030	-0.059
-292.662	303.692	-0.069	0.164
-291.647	153.309	-0.133	0.232
-290.632	-143.870	-0.437	-0.052
-289.618	-142.080	-0.401	0.050
-288.603	-77.939	0.280	-0.122
-287.589	591.828	0.087	-0.276
-286.574	-158.002	0.240	-0.018
-285.559	359.236	0.095	-0.242
-284.545	-47.362	0.456	-0.282
-283.530	800.000	-0.124	0.642
-282.516	-108.125	0.347	-0.095
-281.501	-200.000	0.052	-0.508
-280.486	-64.475	0.328	-0.169
-279.472	651.866	-0.086	-0.282
-278.457	-190.920	-0.553	-0.007
-277.443	-115.315	0.063	0.015
-276.428	-151.188	-0.404	-0.038
-275.413	-200.000	-0.060	-0.373
-274.399	-12.746	-0.276	-0.228
-273.384	534.943	-0.047	0.141
-272.370	-200.000	-0.003	0.245
-271.355	33.865	-0.139	0.153
-270.340	-28.898	0.205	-0.149
-269.326	-104.106	0.439	0.129
-268.311	3.317	-0.184	-0.170
-267.297	251.420	-0.048	-0.104
-266.282	-34.173	-0.467	0.325
-265.267	-92.603	-0.165	-0.058
-264.253	481.109	0.071	-0.206
-263.238	112.692	0.218	-0.336
-262.224	205.262	-0.173	-0.343
-261.209	53.859	-0.376	-0.459
-260.195	800.000	-0.104	-0.452
-259.180	-41.085	0.665	0.435
-258.165	-65.391	0.367	0.187
-257.151	40.252	0.037	-0.043
-256.136	265.493	0.090	0.201
-255.122	285.820	0.027	-0.063
-254.107	-200.000	-0.025	0.281
-253.092	-24.168	0.190	-0.144
-252.078	-4.974	-0.173	-0.151
-251.063	-62.768	0.041	-0.021
-250.049	800.000	-0.126	-0.517
-249.034	-200.000	0.237	0.000
-248.019	-54.635	-0.192	-0.110
-247.005	378.245	0.184	0.481
-245.990	-76.531	0.581	-0.258
-244.976	-200.000	-0.026	0.225
-243.961	800.000	-0.007	0.031
-242.946	-83.054	-0.508	-0.207
-241.932	-200.000	0.001	0.123
-240.917	-200.000	0.029	-0.356
-239.903	102.686	0.034	-0.050
-238.888	185.738	0.107	0.203
-237.873	299.756	0.207	0.487
-236.859	800.000	-0.107	-0.405
-235.844	495.426	-0.066	-0.195
-234.830	59.107	0.106	0.133
-233.815	800.000	0.107	0.455
-232.800	-63.154	0.156	-0.082
-231.786	-148.032	-0.212	0.022
-230.771	-142.267	0.185	-0.023
-229.757	498.093	0.219	-0.644
-228.742	-144.498	0.111	0.013
-227.727	655.099	0.044	-0.145
-226.713	-104.214	-0.604	-0.177
-225.698	61.731	0.272	0.344
-224.684	4.122	0.035	-0.033
-223.669	-129.556	0.386	-0.067
-222.655	-169.665	0.348	-0.016
-221.640	106.721	-0.317	0.479
-220.625	-200.000	0.016	0.201
-219.611	-51.004	0.312	-0.185
-218.596	-200.000	-0.048	-0.365
-217.582	-71.302	-0.064	-0.030
-216.567	-20.897	0.243	0.189
-215.552	8.516	0.254	-0.242
-214.538	-128.970	0.565	0.100
-213.523	275.106	-0.120	-0.272
-212.509	-83.011	-0.170	-0.069
-211.494	172.385	-0.213	0.390
-210.479	-117.414	-0.298	0.068
-209.465	-200.000	0.014	-0.193
-208.450	-132.800	0.359	0.058
-207.436	-70.594	-0.028	-0.013
-206.421	-77.329	-0.302	-0.133
-205.406	248.750	0.274	-0.591
-204.392	-200.000	-0.035	-0.356
-203.377	38.872	0.478	-0.541
-202.363	-200.000	-0.014	0.087
-201.348	83.950	-0.300	-0.416
-200.333	-49.762	0.292	-0.175
-199.319	-27.578	0.348	-0.256
-198.304	-85.216	-0.378	-0.149
-197.290	2.470	-0.104	-0.095
-196.275	-78.827	0.498	0.214
-195.260	-26.514	-0.496	0.368
-194.246	-200.000	-0.089	-0.561
-193.231	800.000	0.034	0.149
-192.217	-200.000	0.001	0.357
-191.202	-23.030	-0.281	0.214
-190.187	-200.000	0.051	0.297
-189.173	-62.550	-0.164	0.086
-188.158	-149.741	0.202	-0.020
-187.144	-191.387	0.068	0.001
-186.129	17.967	0.099	-0.100
-185.114	-174.158	0.276	-0.010
-184.100	78.136	0.162	0.219
-183.085	-12.703	0.044	0.036
-182.071	-37.960	-0.689	0.462
-181.056	-111.012	-0.426	0.110
-180.042	-7.351	0.240	-0.206
-179.027	257.571	0.096	-0.211
-178.012	746.708	-0.072	-0.248
-176.998	800.000	-0.055	-0.230
-175.983	26.350	0.171	0.181
-174.969	-200.000	0.015	0.532
-173.954	103.952	0.089	0.133
-172.939	-102.769	0.293	0.088
-171.925	-200.000	0.028	-0.261
-170.910	541.322	-0.150	0.454
-169.896	-44.575	0.135	-0.085
-168.881	112.299	0.153	0.235
-167.866	-200.000	-0.009	-0.209
-166.852	-10.202	-0.343	0.288
-165.837	366.178	0.076	-0.195
-164.823	-195.567	-0.168	0.002
-163.808	-116.378	0.098	-0.023
-162.793	195.354	0.242	0.466
-161.779	-200.000	-0.008	0.182
-160.764	405.848	-0.153	-0.411
-159.750	-0.461	-0.381	-0.343
-158.735	11.874	0.287	-0.278
-157.720	47.798	-0.452	-0.534
-156.706	-145.705	-0.335	0.037
-155.691	-61.439	0.211	0.112
-154.677	-200.000	-0.040	0.303
-153.662	-23.004	-0.128	-0.097
-152.647	46.694	-0.079	-0.093
-151.633	759.149	0.089	0.308
-150.618	354.024	0.212	0.535
-149.604	27.218	-0.239	0.254
-148.589	-65.665	0.302	-0.152
-147.574	-117.977	-0.290	0.065
-146.560	-110.493	0.357	0.093
-145.545	-200.000	-0.038	0.395
-144.531	-188.446	-0.285	-0.004
-143.516	137.605	-0.154	0.256
-142.502	-71.804	-0.219	-0.103
-141.487	-171.731	-0.357	-0.015
-140.472	-70.077	0.172	-0.082
-139.458	139.849	-0.119	-0.198
-138.443	800.000	0.093	0.473
-137.429	-119.103	-0.127	0.028
-136.414	403.923	0.101	-0.270
-135.399	-141.311	-0.296	0.038
-134.385	800.000	-0.053	-0.192
-133.370	-128.857	-0.194	0.034
-132.356	446.049	-0.198	0.554
-131.341	-125.226	0.501	-0.096
-130.326	336.250	0.232	-0.572
-129.312	60.823	-0.120	0.151
-128.297	-160.794	0.605	0.040
-127.283	-85.923	0.267	0.104
-126.268	-200.000	0.002	-0.437
-125.253	800.000	-0.061	-0.278
-124.239	-181.512	-0.356	0.009
-123.224	36.643	0.056	0.063
-122.210	280.413	-0.095	0.214
-121.195	266.569	-0.196	-0.433
-120.180	-49.048	0.467	0.282
-119.166	-135.538	0.197	-0.029
-118.151	483.661	0.065	-0.186
-117.137	-200.000	-0.029	-0.364
-116.122	3.483	-0.324	-0.298
-115.107	-36.733	-0.433	-0.293
-114.093	-45.257	0.504	0.315
-113.078	800.000	-0.040	-0.165
-112.064	-4.187	0.449	-0.392
-111.049	-67.023	0.370	0.184
-110.034	86.883	0.234	0.326
-109.020	-75.307	-0.325	-0.146
-108.005	48.612	-0.323	-0.383
-106.991	-135.059	-0.444	0.067
-105.976	154.840	0.151	-0.263
-104.962	21.504	0.297	-0.305
-103.947	-200.000	-0.004	0.033
-102.932	453.043	-0.076	-0.213
-101.918	220.326	-0.244	-0.495
-100.903	7.178	-0.123	-0.116
-99.889	152.469	-0.086	0.149
-98.874	800.000	-0.039	0.137
-97.859	-64.081	-0.168	0.086
-96.845	-27.409	-0.140	-0.102
-95.830	-192.983	0.271	0.003
-94.816	-20.236	-0.207	0.161
-93.801	32.598	0.227	-0.248
-92.786	712.216	-0.094	0.317
-91.772	-53.441	0.147	0.085
-90.757	24.667	-0.332	-0.347
-89.743	159.758	-0.088	-0.156
-88.728	-99.473	0.268	-0.085
-87.713	-140.208	-0.175	-0.023
-86.699	-136.444	0.284	0.041
-85.684	-110.180	0.431	-0.113
-84.670	-77.992	-0.381	0.165
-83.655	-34.117	-0.297	-0.206
-82.640	261.053	-0.213	0.466
-81.626	-35.444	-0.160	0.110
-80.611	212.409	-0.019	0.037
-79.597	-12.411	-0.268	-0.221
-78.582	276.262	0.205	-0.461
-77.567	-200.000	-0.009	0.179
-76.553	59.082	0.242	-0.300
-75.538	-200.000	0.029	0.366
-74.524	69.938	-0.221	0.288
-73.509	-99.057	-0.305	0.097
-72.494	-200.000	0.126	0.001
-71.480	124.605	0.097	0.155
-70.465	-200.000	-0.050	-0.455
-69.451	-62.710	-0.349	0.182
-68.436	-94.487	-0.359	0.123
-67.422	-42.159	-0.383	0.246
-66.407	64.145	0.413	0.524
-65.392	-52.441	-0.124	-0.072
-64.378	-184.485	0.652	0.013
-63.363	52.453	0.415	0.500
-62.349	277.279	0.074	0.166
-61.334	85.717	-1.258	-1.746
-60.319	401.405	0.433	1.152
-59.305	247.808	-2.835	-6.062
-58.290	19.918	2.831	2.876
-57.276	361.854	4.169	10.588
-56.261	-200.000	15.144	239.676
-55.246	436.566	1195.844	3298.201
-54.232	59.199	2838.064	3524.075
-53.217	68.570	2722.388	3522.338
-52.203	49.920	2450.727	2914.503
-51.188	43.797	2101.210	2425.319
-50.173	36.418	1975.296	2195.954
-49.159	34.916	1964.171	2166.410
-48.144	34.504	1960.142	2157.193
-47.130	34.450	1958.305	2154.473
-46.115	34.444	1956.572	2152.419
-45.100	34.382	1955.221	2150.143
-44.086	34.367	1954.373	2148.953
-43.071	34.459	1952.589	2147.945
-42.057	34.475	1950.435	2145.680
-41.042	34.420	1949.714	2144.180
-40.027	34.331	1948.459	2141.710
-39.013	34.267	1945.964	2138.157
-37.998	34.221	1944.816	2136.286
-36.984	34.253	1943.872	2135.526
-35.969	34.212	1943.307	2134.360
-34.954	34.294	1940.768	2132.406
-33.940	34.084	1941.127	2130.357
-32.925	34.260	1938.665	2129.551
-31.911	34.323	1937.337	2128.708
-30.896	34.318	1935.455	2126.505
-29.881	34.073	1935.446	2123.659
-28.867	34.275	1933.349	2123.540
-27.852	34.161	1932.286	2121.011
-26.838	34.014	1931.365	2118.273
-25.823	34.120	1929.499	2117.327
-24.809	33.995	1928.922	2115.208
-23.794	33.991	1927.857	2113.915
-22.779	34.103	1925.778	2112.802
-21.765	34.070	1923.984	2110.378
-20.750	34.021	1923.153	2108.836
-19.736	33.965	1921.446	2106.266
-18.721	33.967	1920.704	2105.381
-17.706	34.038	1918.842	2104.048
-16.692	34.036	1917.199	2102.145
-15.677	33.929	1916.301	2099.883
-14.663	33.834	1915.406	2097.765
-13.648	33.821	1913.971	2095.973
-12.633	34.041	1911.596	2095.717
-11.619	34.063	1910.451	2094.632
-10.604	33.947	1909.917	2092.679
-9.590	33.999	1908.496	2091.608
-8.575	33.820	1908.198	2089.219
-7.560	33.928	1906.158	2088.103
-6.546	33.966	1904.964	2087.128
-5.531	33.934	1903.747	2085.353
-4.517	33.924	1902.919	2084.254
-3.502	34.006	1901.590	2083.622
-2.487	33.836	1901.435	2081.501
-1.473	33.971	1897.455	2078.542
-0.458	34.130	1877.829	2058.688
0.556	30.028	2011.686	2144.915
1.571	27.940	2225.859	2346.065
2.586	29.168	2271.627	2410.182
3.600	29.156	2273.575	2411.804
4.615	29.090	2274.126	2411.237
5.629	28.973	2271.557	2406.679
6.644	29.056	2270.168	2406.019
7.659	29.161	2268.688	2405.534
8.673	29.369	2265.637	2404.745
9.688	28.648	2271.165	2400.850
10.702	25.957	2342.949	2439.874
11.717	22.424	2405.152	2454.932
12.731	11.256	2377.173	2270.537
13.746	1.732	2351.023	2112.910
14.761	0.272	2346.764	2088.494
15.775	0.149	2345.514	2085.429
16.790	0.047	2343.875	2082.298
17.804	0.040	2342.348	2080.592
18.819	0.027	2340.555	2078.574
19.834	0.075	2338.715	2077.358
20.848	-0.014	2337.495	2074.789
21.863	0.094	2335.401	2074.182
22.877	0.023	2332.875	2070.710
23.892	-0.024	2331.455	2068.546
24.907	0.094	2328.796	2067.575
25.921	-0.025	2327.419	2064.452
26.936	0.022	2325.537	2063.190
27.950	-0.036	2323.158	2060.034
28.965	-0.010	2320.212	2057.536
29.980	0.059	2319.062	2057.213
30.994	0.191	2317.635	2057.515
32.009	6.174	2337.449	2157.554
33.023	19.439	2377.916	2379.707
34.038	25.571	2389.444	2476.107
35.053	26.225	2388.455	2483.834
36.067	25.784	2384.479	2473.316
37.082	25.616	2381.917	2468.051
38.096	25.653	2381.155	2467.463
39.111	25.960	2378.951	2469.111
40.126	25.590	2375.303	2459.948
41.140	25.843	2374.710	2462.514
42.155	26.286	2373.548	2467.106
43.169	25.982	2371.270	2460.269
44.184	25.842	2368.302	2454.974
45.199	25.768	2364.297	2449.519
46.213	25.107	2363.502	2439.360
47.228	24.871	2361.221	2433.500
48.242	24.788	2359.051	2429.832
49.257	24.840	2356.127	2427.234
50.271	24.911	2354.108	2425.835
51.286	24.778	2350.905	2420.436
52.301	24.428	2348.928	2413.354
53.315	24.780	2350.276	2419.239
54.330	26.087	2353.398	2439.933
55.344	26.838	2352.647	2449.065
56.359	27.085	2348.441	2447.738
57.374	26.959	2347.428	2444.687
58.388	26.929	2344.463	2440.900
59.403	26.859	2340.020	2435.033
60.417	26.585	2336.257	2427.132
61.432	26.686	2335.412	2427.333
62.447	26.759	2332.943	2425.456
63.461	26.730	2332.215	2424.012
64.476	26.796	2329.211	2421.487
65.490	26.854	2328.746	2421.500
66.505	26.503	2326.710	2414.387
67.520	26.365	2325.752	2411.248
68.534	27.259	2325.550	2422.726
69.549	27.190	2320.838	2416.609
70.563	26.570	2317.162	2404.217
71.578	26.435	2314.905	2399.781
72.593	26.662	2314.407	2402.009
73.607	26.366	2311.020	2394.271
74.622	26.339	2308.918	2391.445
75.636	26.797	2308.166	2396.464
76.651	26.617	2305.965	2391.505
77.666	26.716	2304.290	2390.792
78.680	26.661	2300.014	2385.337
79.695	25.839	2295.815	2369.846
80.709	25.031	2293.665	2356.658
81.724	24.796	2290.414	2349.931
82.739	25.404	2289.999	2357.249
83.753	26.565	2291.335	2373.661
84.768	26.459	2289.903	2370.485
85.782	26.580	2288.446	2370.289
86.797	26.452	2287.067	2366.902
87.812	26.123	2283.778	2358.884
88.826	26.257	2282.165	2358.704
89.841	26.717	2280.361	2362.578
90.855	26.653	2279.503	2360.566
91.870	26.426	2277.340	2355.073
92.884	26.404	2274.508	2351.584
93.899	26.148	2273.138	2346.537
94.914	25.970	2271.021	2341.741
95.928	25.773	2270.179	2338.032
96.943	25.954	2268.968	2338.865
97.957	26.181	2267.577	2340.106
98.972	26.340	2264.925	2339.154
99.987	26.371	2261.583	2335.827
101.001	26.312	2259.446	2332.578
102.016	26.524	2258.116	2333.675
103.030	26.178	2254.669	2325.347
104.045	25.711	2250.772	2315.025
105.060	25.937	2249.986	2316.853
106.074	26.317	2249.422	2320.896
107.089	26.081	2245.670	2313.717
108.103	25.608	2243.980	2305.605
109.118	26.043	2243.017	2309.934
110.133	26.186	2242.003	2310.460
111.147	26.332	2241.011	2311.027
112.162	26.368	2239.833	2310.002
113.176	26.369	2236.737	2306.543
114.191	25.792	2234.228	2296.290
115.206	25.666	2232.211	2292.333
116.220	26.285	2231.699	2299.454
117.235	26.269	2230.407	2297.637
118.249	26.218	2228.535	2294.783
119.264	26.139	2225.972	2290.864
120.279	26.068	2224.096	2287.756
121.293	26.214	2222.645	2287.839
122.308	26.508	2220.884	2289.496
123.322	26.174	2219.747	2283.803
124.337	25.422	2216.436	2270.574
125.352	25.594	2217.193	2273.263
126.366	26.456	2218.010	2284.786
127.381	27.169	2216.540	2292.027
128.395	27.297	2213.065	2289.788
129.410	26.705	2209.424	2278.265
130.424	26.549	2208.413	2274.985
131.439	27.097	2208.284	2281.492
132.454	26.865	2206.133	2276.077
133.468	27.052	2202.955	2274.875
134.483	26.839	2200.488	2269.373
135.497	26.498	2199.443	2263.741
136.512	26.611	2196.859	2262.233
137.527	26.731	2195.788	2262.367
138.541	26.625	2195.780	2260.755
139.556	26.715	2194.861	2260.658
140.570	26.637	2192.670	2257.158
141.585	26.294	2189.295	2249.120
142.600	25.944	2186.934	2242.053
143.614	25.975	2185.056	2240.254
144.629	26.085	2183.066	2239.307
145.643	25.704	2180.428	2231.592
146.658	25.661	2178.551	2228.872
147.673	25.563	2176.660	2225.453
148.687	25.449	2173.897	2220.946
149.702	25.566	2174.485	2222.725
150.716	25.966	2175.084	2228.044
151.731	26.577	2174.833	2235.105
152.746	26.536	2173.245	2232.701
153.760	26.094	2171.330	2224.988
154.775	25.879	2171.376	2222.101
155.789	25.994	2169.857	2221.706
156.804	26.351	2166.409	2222.322
157.819	26.088	2162.689	2214.991
158.833	25.912	2159.585	2209.385
159.848	26.005	2157.711	2208.342
160.862	26.038	2156.461	2207.206
161.877	26.342	2156.955	2211.194
162.892	26.417	2155.854	2210.718
163.906	26.530	2154.385	2210.335
164.921	26.326	2151.069	2204.161
165.935	25.990	2148.273	2196.919
166.950	25.746	2146.215	2191.572
167.964	26.005	2144.177	2192.391
168.979	25.817	2142.943	2188.568
169.994	25.926	2142.414	2189.099
171.008	25.897	2139.287	2185.295
172.023	25.745	2137.693	2181.552
173.037	25.974	2138.151	2184.545
174.052	26.034	2135.781	2182.587
175.067	25.878	2134.692	2179.328
176.081	26.114	2132.741	2179.931
177.096	26.401	2133.974	2184.422
178.110	26.722	2131.516	2185.534
179.125	26.793	2130.416	2185.009
180.140	26.772	2128.447	2182.466
181.154	26.752	2128.768	2182.292
182.169	27.127	2127.835	2185.609
183.183	27.089	2126.924	2183.950
184.198	26.902	2123.663	2178.085
185.213	26.779	2122.433	2175.085
186.227	27.036	2121.766	2177.238
187.242	26.878	2119.257	2172.501
188.256	26.538	2117.058	2165.895
189.271	26.690	2115.993	2166.372
190.286	26.331	2113.411	2159.161
191.300	26.193	2109.730	2153.485
192.315	26.553	2109.001	2156.804
193.329	26.703	2108.303	2157.624
194.344	26.417	2105.466	2151.049
195.359	26.047	2103.551	2144.415
196.373	26.349	2102.725	2146.919
197.388	26.253	2099.543	2142.262
198.402	26.191	2098.211	2139.913
199.417	26.346	2096.697	2139.963
200.432	26.158	2094.842	2135.572
201.446	26.026	2093.036	2131.906
202.461	26.157	2091.584	2131.724
203.475	26.181	2089.259	2129.390
204.490	26.110	2086.721	2125.703
205.504	26.172	2084.777	2124.208
206.519	26.019	2082.987	2120.316
207.534	26.135	2081.755	2120.181
208.548	26.465	2081.413	2123.477
209.563	26.195	2079.840	2118.433
210.577	26.478	2078.581	2120.232
211.592	26.599	2078.646	2121.465
212.607	26.325	2076.995	2116.298
213.621	26.017	2075.399	2110.802
214.636	26.110	2074.501	2110.726
215.650	26.954	2074.478	2120.364
216.665	27.196	2072.137	2120.563
217.680	26.604	2068.895	2110.061
218.694	26.375	2067.700	2105.898
219.709	26.200	2064.668	2100.514
220.723	25.926	2062.834	2095.199
221.738	26.384	2061.539	2098.978
222.753	26.513	2061.051	2099.730
223.767	26.645	2059.373	2099.315
224.782	26.584	2056.351	2095.268
225.796	26.174	2055.330	2089.207
226.811	26.266	2053.497	2088.168
227.826	26.050	2051.499	2083.382
228.840	25.707	2049.129	2076.750
229.855	25.994	2048.665	2079.351
230.869	26.203	2047.726	2080.578
231.884	26.574	2048.139	2085.035
232.899	26.792	2046.870	2086.019
233.913	26.729	2044.640	2082.775
234.928	26.518	2043.055	2078.473
235.942	25.920	2040.827	2069.061
236.957	25.823	2038.900	2065.741
237.972	26.249	2038.922	2070.419
238.986	26.174	2037.623	2067.986
240.001	26.112	2035.023	2064.389
241.015	26.069	2034.633	2063.260
242.030	26.810	2036.015	2072.927
243.045	26.771	2033.077	2069.241
244.059	26.871	2032.646	2069.698
245.074	27.487	2031.239	2075.073
246.088	27.199	2027.648	2067.873
247.103	26.875	2026.127	2062.372
248.117	27.610	2025.832	2070.210
249.132	27.420	2023.657	2065.579
250.147	26.888	2019.625	2055.162
251.161	26.163	2017.775	2044.778
252.176	26.307	2015.583	2043.950
253.190	26.278	2013.306	2041.068
254.205	26.163	2010.852	2037.028
255.220	25.980	2008.947	2032.788
256.234	25.391	2006.972	2023.881
257.249	25.462	2005.625	2023.074
258.263	25.664	2005.781	2025.273
259.278	25.589	2005.045	2023.449
260.293	25.885	2002.867	2024.343
261.307	26.024	2002.390	2025.197
262.322	26.273	2001.128	2026.476
263.336	25.896	1997.168	2017.987
264.351	25.789	1997.109	2016.483
265.366	26.363	1996.706	2022.283
266.380	26.467	1996.765	2023.270
267.395	26.480	1994.503	2020.891
268.409	26.740	1993.254	2022.293
269.424	26.468	1991.157	2016.881
270.439	26.263	1990.568	2013.748
271.453	26.854	1989.519	2019.058
272.468	26.596	1987.182	2013.557
273.482	26.177	1985.412	2006.847
274.497	26.413	1982.929	2006.731
275.512	26.511	1980.987	2005.618
276.526	26.414	1978.244	2001.519
277.541	26.092	1975.665	1995.087
278.555	25.665	1973.417	1987.846
279.570	25.852	1972.071	1988.322
280.585	25.904	1970.129	1986.709
281.599	25.946	1969.259	1986.049
282.614	26.251	1968.808	1988.737
283.628	26.527	1967.652	1990.379
284.643	26.294	1965.820	1985.719
285.657	25.725	1963.388	1976.748
286.672	25.696	1961.778	1974.569
287.687	25.644	1960.442	1972.414
288.701	25.565	1959.237	1970.094
289.716	25.220	1956.515	1963.329
290.730	24.876	1953.303	1956.093
291.745	25.847	1954.623	1967.843
292.760	26.111	1954.139	1970.020
293.774	25.947	1954.357	1968.206
294.789	26.314	1954.249	1971.884
295.803	26.594	1951.417	1971.862
296.818	26.607	1950.413	1970.744
297.833	27.057	1951.192	1976.225
298.847	26.640	1947.853	1968.049
299.862	26.043	1946.497	1959.926
300.876	26.602	1945.357	1964.639
301.891	26.724	1945.060	1965.441
302.906	26.719	1943.337	1963.412
303.920	26.587	1941.148	1959.521
304.935	26.767	1939.268	1959.346
305.949	26.545	1937.666	1955.084
306.964	26.659	1935.646	1954.050
307.979	26.003	1931.102	1942.136
308.993	24.901	1928.289	1927.156
310.008	23.881	1923.903	1911.525
311.022	23.671	1921.403	1906.544
312.037	23.723	1920.762	1906.245
313.052	23.545	1917.558	1900.913
314.066	23.287	1915.083	1895.464
315.081	23.420	1915.594	1897.167
316.095	23.384	1914.529	1895.499
317.110	23.362	1911.485	1892.024
318.125	23.134	1909.796	1887.678
319.139	22.990	1908.627	1884.754
320.154	23.456	1909.012	1889.905
321.168	23.592	1907.559	1889.698
322.183	24.682	1909.222	1902.790
323.197	25.968	1911.547	1918.638
324.212	26.342	1909.168	1920.019
325.227	26.071	1907.475	1915.190
326.241	26.334	1907.168	1917.455
327.256	26.616	1906.526	1919.586
328.270	26.023	1903.149	1909.647
329.285	25.935	1903.369	1908.706
330.300	25.903	1903.561	1908.329
331.314	26.096	1902.263	1908.857
332.329	26.410	1899.858	1909.546
333.343	26.286	1897.638	1905.771
334.358	25.868	1895.268	1898.737
335.373	25.958	1894.437	1898.624
336.387	26.462	1893.618	1902.913
337.402	26.628	1892.550	1903.359
338.416	26.569	1890.604	1900.555
339.431	26.572	1888.888	1898.630
340.446	26.227	1887.267	1893.149
341.460	25.720	1884.132	1884.445
342.475	25.228	1880.003	1874.917
343.489	24.022	1876.227	1858.274
344.504	23.444	1873.990	1849.785
345.519	23.446	1872.281	1847.889
346.533	23.315	1869.683	1843.737
347.548	23.316	1868.453	1842.319
348.562	23.483	1868.518	1843.908
349.577	23.725	1867.226	1844.937
350.592	23.930	1866.915	1846.546
351.606	23.922	1864.922	1844.268
352.621	23.561	1862.391	1837.784
353.635	23.501	1861.040	1835.612
354.650	24.132	1862.729	1843.621
355.665	25.345	1864.792	1858.068
356.679	25.902	1863.755	1862.606
357.694	26.434	1863.977	1868.128
358.708	26.718	1863.691	1870.564
359.723	26.699	1862.215	1868.661
360.738	26.543	1860.660	1865.262
361.752	26.661	1860.247	1865.850
362.767	27.537	1859.057	1873.486
363.781	27.253	1855.897	1867.148
364.796	26.620	1853.205	1857.689
365.810	26.643	1852.393	1856.889
366.825	26.361	1849.746	1851.117
367.840	24.792	1845.682	1830.706
368.854	23.547	1842.336	1814.376
369.869	23.637	1839.761	1812.544
370.883	23.876	1838.809	1813.837
371.898	23.959	1837.437	1813.117
372.913	23.742	1836.946	1810.201
373.927	23.564	1834.758	1806.002
374.942	23.740	1834.495	1807.324
375.956	24.361	1834.023	1812.996
376.971	24.656	1832.914	1814.695
377.986	24.845	1831.107	1814.608
379.000	24.701	1830.762	1812.588
380.015	24.671	1829.510	1810.826
381.029	25.650	1828.790	1819.850
382.044	25.911	1829.041	1822.541
383.059	25.937	1826.780	1820.332
384.073	26.079	1826.560	1821.338
385.088	26.323	1827.121	1824.148
386.102	26.310	1824.546	1821.233
387.117	25.871	1822.010	1814.039
388.132	25.785	1821.945	1812.886
389.146	26.119	1822.566	1816.663
390.161	26.279	1820.995	1816.500
391.175	26.232	1816.211	1811.037
392.190	25.863	1813.225	1804.134
393.205	26.061	1811.709	1804.398
394.219	25.893	1809.599	1800.390
395.234	25.726	1808.737	1797.639
396.248	25.833	1806.683	1796.458
397.263	25.378	1803.362	1788.387
398.278	25.519	1803.067	1789.291
399.292	25.855	1801.931	1791.312
400.307	25.455	1801.257	1786.432
401.321	25.402	1799.091	1783.536
402.336	25.756	1798.902	1786.667
403.350	25.738	1796.236	1783.628
404.365	25.443	1794.986	1779.236
405.380	24.867	1791.122	1769.472
406.394	23.524	1788.077	1752.923
407.409	23.355	1786.272	1749.264
408.423	23.348	1785.376	1748.108
409.438	23.342	1782.946	1745.464
410.453	23.339	1782.572	1744.858
411.467	23.645	1781.392	1746.522
412.482	23.902	1781.767	1749.219
413.496	25.527	1785.233	1768.496
414.511	26.489	1783.940	1776.500
415.526	26.395	1780.327	1771.769
416.540	26.180	1778.516	1767.633
417.555	26.213	1779.573	1768.804
418.569	26.628	1779.844	1772.942
419.584	26.415	1779.418	1770.206
420.599	26.781	1779.393	1773.570
421.613	27.316	1779.937	1779.166
422.628	26.839	1776.553	1770.882
423.642	26.083	1773.436	1760.157
424.657	25.627	1771.179	1753.237
425.672	26.255	1770.813	1758.821
426.686	26.114	1768.742	1755.169
427.701	25.426	1766.466	1745.989
428.715	25.449	1764.590	1744.144
429.730	25.929	1764.125	1748.158
430.745	26.536	1764.592	1754.326
431.759	26.926	1764.909	1758.234
432.774	27.430	1765.135	1763.149
433.788	25.946	1760.509	1743.908
434.803	24.151	1755.965	1721.767
435.818	23.815	1755.076	1717.430
436.832	23.806	1754.530	1716.602
437.847	23.216	1748.147	1704.442
438.861	14.644	1721.827	1596.514
439.876	3.047	1700.632	1466.005
440.890	0.499	1694.502	1436.193
441.905	0.222	1693.263	1432.323
442.920	0.024	1692.517	1429.627
443.934	0.024	1690.695	1427.921
444.949	0.202	1689.853	1428.735
445.963	-0.001	1689.353	1426.210
446.978	0.011	1689.211	1426.034
447.993	0.038	1687.321	1424.523
449.007	0.144	1684.959	1423.362
450.022	0.097	1682.827	1420.947
451.036	0.031	1682.488	1419.864
452.051	1.538	1689.458	1439.930
453.066	12.579	1714.852	1567.615
454.080	23.104	1730.004	1682.450
455.095	25.175	1734.216	1706.175
456.109	26.685	1736.944	1723.103
457.124	27.349	1736.174	1728.475
458.139	27.078	1735.040	1724.553
459.153	26.837	1734.495	1721.507
460.168	27.073	1732.515	1721.579
461.182	27.482	1731.784	1724.539
462.197	28.058	1731.220	1729.251
463.212	28.213	1729.380	1728.678
464.226	28.032	1729.452	1726.824
465.241	28.410	1728.099	1728.849
466.255	28.558	1726.836	1728.788
467.270	28.473	1726.054	1726.990
468.285	28.458	1725.592	1726.176
469.299	28.821	1724.203	1728.011
470.314	29.028	1722.664	1728.214
471.328	28.996	1722.213	1727.256
472.343	29.015	1721.713	1726.730
473.358	29.037	1720.413	1725.422
474.372	29.228	1718.636	1725.235
475.387	29.424	1717.524	1725.755
476.401	29.308	1716.022	1722.953
477.416	28.900	1714.007	1716.893
478.430	28.927	1712.892	1715.820
479.445	28.948	1712.354	1715.274
480.460	28.874	1710.694	1712.709
481.474	28.825	1710.087	1711.439
482.489	29.234	1708.591	1713.565
483.503	29.050	1706.237	1709.276
484.518	29.020	1704.867	1707.424
485.533	29.152	1704.076	1707.655
486.547	29.002	1701.805	1703.783
487.562	28.714	1700.018	1699.114
488.576	29.023	1699.682	1701.440
489.591	29.321	1699.488	1703.812
490.606	29.314	1698.152	1702.203
491.620	29.396	1696.329	1700.931
492.635	29.385	1693.571	1697.861
493.649	28.783	1692.497	1691.019
494.664	28.631	1691.761	1688.673
495.679	28.731	1689.745	1687.385
496.693	28.633	1688.868	1685.401
497.708	28.884	1687.931	1686.576
498.722	29.003	1686.458	1685.997
499.737	29.291	1685.322	1687.315
500.752	29.168	1683.744	1684.397
501.766	29.007	1682.749	1681.724
502.781	29.264	1680.382	1681.520
503.795	29.196	1679.055	1679.360
504.810	29.105	1678.848	1678.117
505.825	29.022	1678.071	1676.379
506.839	28.815	1675.818	1672.038
507.854	28.616	1674.739	1668.943
508.868	28.811	1672.479	1668.268
509.883	28.290	1671.555	1662.400
510.898	28.378	1669.556	1661.009
511.912	27.766	1667.434	1653.133
512.927	27.198	1664.319	1644.686
513.941	27.127	1662.283	1641.831
514.956	27.212	1661.358	1641.493
515.971	27.343	1661.550	1642.668
516.985	27.302	1659.850	1640.420
518.000	27.215	1658.731	1638.337
519.014	27.231	1657.494	1637.060
520.029	27.446	1655.211	1636.548
521.043	27.312	1654.217	1634.161
522.058	27.657	1653.898	1636.763
523.073	28.002	1653.677	1639.460
524.087	28.225	1653.119	1640.725
525.102	28.548	1651.360	1641.685
526.116	28.451	1651.384	1640.645
527.131	28.644	1651.072	1641.872
528.146	28.867	1650.925	1643.534
529.160	29.058	1648.995	1643.129
530.175	29.386	1648.312	1645.189
531.189	29.442	1647.182	1644.366
532.204	29.298	1645.835	1641.536
533.219	29.211	1644.333	1639.065
534.233	29.094	1643.532	1637.023
535.248	29.109	1642.902	1636.337
536.262	28.945	1641.713	1633.490
537.277	29.282	1640.625	1635.222
538.292	29.348	1638.955	1633.948
539.306	29.443	1636.698	1632.350
540.321	29.191	1635.162	1628.378
541.335	28.562	1633.336	1620.783
542.350	29.097	1631.772	1623.779
543.365	29.393	1631.226	1625.670
544.379	29.529	1630.475	1625.926
545.394	29.402	1629.167	1623.306
546.408	29.053	1627.523	1618.384
547.423	29.020	1626.588	1616.976
548.438	29.201	1625.310	1617.105
549.452	29.237	1623.964	1615.894
550.467	29.112	1622.454	1613.093
551.481	29.096	1621.370	1611.680
552.496	29.111	1620.848	1611.099
553.511	29.307	1620.048	1611.834
554.525	29.320	1618.658	1610.378
555.540	29.231	1617.697	1608.441
556.554	29.427	1616.120	1608.406
557.569	29.151	1614.593	1604.274
558.583	28.808	1612.650	1599.150
559.598	28.872	1611.707	1598.587
560.613	28.947	1610.099	1597.457
561.627	28.796	1609.135	1594.985
562.642	28.723	1606.478	1591.528
563.656	28.453	1604.714	1587.242
564.671	28.170	1603.220	1583.116
565.686	27.983	1602.193	1580.285
566.700	27.635	1600.372	1575.275
567.715	27.682	1598.370	1573.523
568.729	27.554	1597.356	1571.231
569.744	27.791	1596.148	1571.902
570.759	27.959	1594.897	1571.939
571.773	27.836	1593.660	1569.468
572.788	27.779	1592.853	1567.989
573.802	27.759	1591.091	1565.896
574.817	27.697	1590.104	1564.208
575.832	27.944	1589.308	1565.363
576.846	28.503	1588.712	1569.400
577.861	28.910	1587.798	1571.808
578.875	29.040	1587.589	1572.527
579.890	29.290	1587.643	1574.535
580.905	29.316	1587.090	1574.024
581.919	29.416	1586.792	1574.398
582.934	29.823	1584.853	1575.770
583.948	29.585	1583.073	1571.782
584.963	29.287	1581.416	1567.401
585.978	29.107	1580.370	1564.639
586.992	29.044	1580.231	1563.776
588.007	29.212	1579.468	1564.268
589.021	28.628	1576.495	1556.159
590.036	27.837	1573.801	1546.580
591.051	28.586	1573.943	1552.912
592.065	29.133	1573.486	1556.924
593.080	29.266	1572.254	1556.650
594.094	29.608	1570.250	1557.371
595.109	29.286	1568.468	1552.691
596.123	29.420	1567.151	1552.343
597.138	29.523	1567.428	1553.297
598.153	29.503	1565.866	1551.396
599.167	29.290	1563.570	1547.137
600.182	29.180	1562.284	1544.752
601.196	29.261	1562.668	1545.633
602.211	29.434	1561.262	1545.515
603.226	29.495	1559.746	1544.342
604.240	29.725	1558.585	1544.941
605.255	29.732	1557.608	1543.843
606.269	29.474	1557.247	1541.133
607.284	29.507	1555.088	1539.090
608.299	29.490	1553.640	1537.333
609.313	29.204	1551.364	1532.502
610.328	29.016	1550.644	1530.038
611.342	29.078	1549.053	1528.806
612.357	29.153	1548.324	1528.522
613.372	29.276	1546.905	1527.965
614.386	28.889	1546.280	1523.944
615.401	28.919	1545.202	1522.950
616.415	28.909	1544.383	1521.877
617.430	28.655	1542.397	1517.626
618.445	28.466	1541.005	1514.505
619.459	28.170	1539.840	1510.719
620.474	27.892	1538.985	1507.394
621.488	28.091	1537.183	1507.099
622.503	28.094	1535.986	1505.768
623.518	28.226	1534.429	1505.159
624.532	28.219	1534.028	1504.521
625.547	28.123	1532.956	1502.502
626.561	28.364	1532.022	1503.396
627.576	28.504	1530.767	1503.137
628.591	28.472	1529.048	1501.001
629.605	28.345	1528.674	1499.416
630.620	28.583	1527.143	1499.687
631.634	28.570	1526.224	1498.501
632.649	28.717	1525.560	1498.877
633.663	28.749	1524.011	1497.435
634.678	28.518	1522.785	1494.160
635.693	28.535	1521.036	1492.402
636.707	28.549	1519.346	1490.679
637.722	28.672	1518.774	1490.944
638.736	29.009	1518.707	1493.453
639.751	29.331	1518.119	1495.319
640.766	29.304	1516.711	1493.535
641.780	29.350	1514.938	1491.979
642.795	29.344	1515.296	1492.107
643.809	29.556	1514.445	1492.818
644.824	29.761	1513.078	1492.949
645.839	29.769	1512.334	1492.100
646.853	29.823	1511.388	1491.427
647.868	29.630	1509.287	1487.617
648.882	29.509	1508.045	1485.234
649.897	29.362	1506.844	1482.684
650.912	29.272	1506.128	1481.081
651.926	29.551	1504.076	1481.134
652.941	29.407	1502.899	1478.637
653.955	29.041	1499.875	1472.539
654.970	28.159	1497.512	1462.959
655.985	28.030	1495.584	1459.862
656.999	27.705	1495.115	1456.624
658.014	28.163	1494.204	1459.237
659.028	28.792	1494.581	1464.473
660.043	29.345	1494.362	1468.506
661.058	29.535	1493.359	1468.870
662.072	29.590	1492.214	1468.001
663.087	29.362	1490.700	1464.517
664.101	29.342	1489.539	1463.041
665.116	29.446	1489.084	1463.248
666.131	29.442	1488.370	1462.343
667.145	29.651	1487.095	1462.575
668.160	29.657	1486.389	1461.754
669.174	29.536	1485.363	1459.612
670.189	29.642	1484.341	1459.271
671.204	29.692	1483.273	1458.448
672.218	29.695	1482.013	1457.052
673.233	29.716	1481.333	1456.378
674.247	30.020	1479.417	1456.726
675.262	29.895	1478.972	1455.123
676.276	29.831	1477.668	1453.163
677.291	29.659	1476.794	1450.773
678.306	29.676	1475.013	1448.984
679.320	29.579	1473.821	1446.871
680.335	29.329	1473.059	1443.981
681.349	29.620	1472.536	1445.590
682.364	29.682	1471.127	1444.522
683.379	29.429	1469.508	1440.770
684.393	29.189	1468.418	1437.649
685.408	29.347	1466.653	1436.984
686.422	28.947	1466.197	1433.237
687.437	28.907	1465.028	1431.605
688.452	28.982	1463.390	1430.419
689.466	28.786	1461.574	1426.944
690.481	28.516	1460.394	1423.518
691.495	28.631	1459.405	1423.274
692.510	28.687	1459.490	1423.629
693.525	28.980	1457.843	1424.125
694.539	28.875	1456.427	1421.759
695.554	28.700	1455.690	1419.510
696.568	28.797	1454.167	1418.606
697.583	28.797	1453.388	1417.679
698.598	28.991	1453.339	1418.961
699.612	29.173	1452.765	1419.645
700.627	29.179	1451.930	1418.702
701.641	29.423	1451.050	1419.563
702.656	29.553	1450.610	1419.970
703.671	29.897	1449.508	1421.372
704.685	29.914	1449.090	1420.928
705.700	29.885	1447.398	1418.876
706.714	29.579	1444.932	1413.935
707.729	29.362	1443.624	1410.812
708.744	29.381	1442.525	1409.718
709.758	29.291	1440.547	1406.928
710.773	28.769	1438.259	1400.520
711.787	28.346	1437.285	1396.169
712.802	28.920	1437.209	1400.319
713.816	29.325	1436.475	1402.534
714.831	29.360	1435.708	1401.884
715.846	29.662	1434.491	1402.837
716.860	29.574	1433.573	1401.096
717.875	29.546	1432.028	1399.207
718.889	29.224	1432.170	1396.727
719.904	29.282	1430.892	1395.757
720.919	29.338	1429.441	1394.598
721.933	29.397	1428.186	1393.657
722.948	29.286	1427.517	1391.993
723.962	29.465	1425.924	1391.629
724.977	29.438	1425.200	1390.552
725.992	29.549	1424.655	1390.689
727.006	29.903	1423.623	1392.200
728.021	29.820	1421.810	1389.632
729.035	29.810	1421.111	1388.702
730.050	29.822	1419.930	1387.476
731.065	29.824	1419.161	1386.574
732.079	29.692	1417.840	1384.120
733.094	29.697	1416.250	1382.439
734.108	29.760	1414.775	1381.306
735.123	29.758	1413.210	1379.604
736.138	29.619	1412.199	1377.408
737.152	29.502	1411.078	1375.275
738.167	29.677	1410.543	1375.899
739.181	29.862	1409.588	1376.186
740.196	29.842	1408.258	1374.572
741.211	29.736	1407.404	1372.785
742.225	29.627	1406.542	1370.965
743.240	29.461	1404.887	1367.948
744.254	29.432	1402.549	1365.296
745.269	29.069	1402.435	1362.323
746.284	28.901	1401.218	1359.728
747.298	28.645	1400.523	1356.984
748.313	28.778	1398.565	1355.918
749.327	28.798	1398.162	1355.512
750.342	28.892	1397.910	1355.798
751.356	28.923	1396.213	1354.220
752.371	29.049	1394.815	1353.635
753.386	28.813	1393.910	1350.847
754.400	29.126	1393.979	1353.071
755.415	29.572	1393.726	1355.954
756.429	29.822	1392.806	1356.740
757.444	29.962	1391.143	1355.987
758.459	29.862	1389.670	1353.653
759.473	29.720	1388.784	1351.584
760.488	29.525	1387.323	1348.568
761.502	29.238	1385.884	1344.906
762.517	29.517	1384.672	1345.615
763.532	29.576	1383.957	1345.189
764.546	29.361	1381.856	1341.413
765.561	28.698	1380.039	1334.644
766.575	27.962	1378.518	1327.643
767.590	27.791	1377.799	1325.543
768.605	28.777	1377.724	1332.505
769.619	29.389	1376.551	1335.664
770.634	29.430	1376.082	1335.350
771.648	29.371	1374.535	1333.259
772.663	29.267	1373.991	1331.821
773.678	29.628	1373.377	1333.683
774.692	29.650	1373.487	1333.790
775.707	29.803	1372.636	1333.914
776.721	29.968	1371.185	1333.538
777.736	29.791	1370.419	1331.354
778.751	29.699	1369.895	1330.017
779.765	29.961	1368.136	1330.043
780.780	29.562	1367.815	1326.694
781.794	29.606	1367.258	1326.308
782.809	29.303	1365.693	1322.452
783.824	28.862	1363.915	1317.396
784.838	28.831	1361.639	1314.813
785.853	28.756	1361.432	1313.917
786.867	28.889	1361.192	1314.483
787.882	28.672	1360.674	1312.266
788.897	28.684	1359.027	1310.613
789.911	28.592	1358.021	1308.820
790.926	28.732	1356.494	1308.199
791.940	29.063	1355.314	1309.269
792.955	29.039	1354.339	1308.000
793.969	29.216	1353.298	1308.104
794.984	29.178	1353.298	1307.671
795.999	29.524	1352.823	1309.524
797.013	29.671	1350.864	1308.519
798.028	29.627	1349.325	1306.558
799.042	29.698	1348.444	1306.054
800.057	29.839	1347.208	1305.700
801.072	29.821	1345.931	1304.179
802.086	29.718	1345.093	1302.481
803.101	29.671	1343.971	1300.902
804.115	29.727	1342.908	1300.120
805.130	29.642	1342.487	1298.956
806.145	29.381	1341.289	1295.794
807.159	29.394	1338.780	1293.309
808.174	29.432	1337.638	1292.320
809.188	29.471	1337.036	1291.857
810.203	29.281	1334.988	1288.387
811.218	29.044	1332.748	1284.408
812.232	28.591	1331.282	1279.667
813.247	28.070	1330.520	1275.131
814.261	28.686	1330.737	1279.502
815.276	29.104	1330.799	1282.336
816.291	29.219	1329.571	1281.802
817.305	29.066	1328.491	1279.541
818.320	29.185	1327.659	1279.417
819.334	29.512	1326.287	1280.224
820.349	29.553	1325.205	1279.309
821.364	29.789	1323.629	1279.278
822.378	29.630	1322.845	1277.260
823.393	29.699	1320.927	1275.737
824.407	29.536	1319.873	1273.433
825.422	29.557	1319.436	1273.006
826.437	29.296	1317.531	1269.211
827.451	29.028	1315.452	1265.203
828.466	28.685	1314.822	1262.075
829.480	28.893	1313.219	1261.821
830.495	28.881	1310.764	1259.228
831.509	28.913	1309.923	1258.488
832.524	28.791	1310.285	1257.845
833.539	29.219	1309.485	1259.875
834.553	29.466	1307.703	1259.700
835.568	29.490	1306.895	1258.935
836.582	29.622	1305.737	1258.576
837.597	29.659	1304.790	1257.767
838.612	29.488	1302.681	1254.415
839.626	29.367	1301.229	1252.040
840.641	28.931	1300.796	1248.498
841.655	28.976	1299.299	1247.221
842.670	28.469	1297.273	1241.675
843.685	27.892	1295.385	1235.793
844.699	28.455	1295.358	1239.451
845.714	28.889	1295.199	1242.097
846.728	28.858	1294.275	1240.850
847.743	28.771	1294.110	1239.952
848.758	29.178	1293.038	1241.535
849.772	29.391	1291.744	1241.584
850.787	29.515	1290.145	1240.741
851.801	29.266	1289.277	1238.074
852.816	29.320	1288.306	1237.359
853.831	29.237	1286.167	1234.599
854.845	29.088	1284.682	1232.021
855.860	28.898	1282.620	1228.617
856.874	28.737	1281.854	1226.660
857.889	28.856	1280.541	1226.056
858.904	28.927	1279.232	1225.128
859.918	29.016	1277.903	1224.307
860.933	28.945	1276.916	1222.741
861.947	28.850	1276.090	1221.169
862.962	28.645	1274.698	1218.322
863.977	28.724	1273.292	1217.358
864.991	28.699	1273.171	1216.930
866.006	28.858	1272.963	1217.646
867.020	28.985	1271.403	1216.852
868.035	29.125	1270.529	1216.802
869.049	29.316	1270.138	1217.548
870.064	29.431	1269.201	1217.268
871.079	29.355	1268.138	1215.600
872.093	29.039	1267.002	1212.270
873.108	29.057	1265.491	1210.800
874.122	28.878	1263.977	1208.023
875.137	28.479	1263.511	1204.801
876.152	28.321	1262.161	1202.326
877.166	28.544	1260.052	1201.640
878.181	28.613	1259.625	1201.542
879.195	28.700	1259.724	1202.065
880.210	28.820	1259.375	1202.377
881.225	29.202	1257.926	1203.358
882.239	29.359	1256.355	1202.741
883.254	29.391	1255.490	1201.979
884.268	29.407	1254.766	1201.246
885.283	29.332	1253.101	1199.020
886.298	29.374	1251.907	1198.005
887.312	29.298	1250.987	1196.489
888.327	29.177	1250.307	1194.907
889.341	29.140	1248.675	1192.959
890.356	28.840	1248.172	1190.387
891.371	29.032	1247.295	1190.653
892.385	28.814	1247.269	1189.072
893.400	28.747	1246.185	1187.458
894.414	28.701	1244.317	1185.241
895.429	28.821	1242.378	1184.025
896.444	28.909	1241.201	1183.331
897.458	28.865	1240.834	1182.557
898.473	28.791	1240.189	1181.323
899.487	28.705	1239.000	1179.496
900.502	28.676	1237.320	1177.565
901.517	28.746	1236.962	1177.533
902.531	28.948	1235.504	1177.304
903.546	29.044	1234.496	1176.823
904.560	29.280	1234.292	1178.003
905.575	29.067	1233.705	1175.934
906.589	28.989	1232.069	1173.730
907.604	29.066	1230.835	1172.913
