DTS Sentinel unit serial number:	SN409020Multiplexer serial number:	ORYXHardware model number:	OX4-SRSoftware version number:	ORYX F/W v3.00 Oryx Data Collector v3.7.2.0data status	okinstallation	HaddamTimeLapsedifferential loss correction	single-endedforward channel	channel 3reverse channel	N/Adate	2011/06/22time	01:41:16forward acquisition time	30.00reverse acquisition time	0.00gamma	498.7831k internal	0.1751k external	0.1751temperature offset calibration	1.0074default loss term (dB/km)	0.3790temperature slope calibration	1.3530multiplexer offset coefficient	1.0000multiplexer slope coefficient	1.0000fibre end	0.00T internal ref (°C)	22.47T ext. ref 1 (°C)	17.71T ext. ref 2 (°C)	0.01length (m)	temperature (°C)	Stokes	anti-Stokes-747.200	83.666	0.116	-0.168
-746.185	194.863	-0.094	0.190
-745.171	49.929	0.536	-0.672
-744.156	-91.274	0.277	-0.105
-743.142	96.046	-0.133	-0.203
-742.127	-102.624	-0.599	0.189
-741.112	-16.472	-0.232	-0.195
-740.098	-130.842	0.239	0.042
-739.083	-200.000	0.009	0.376
-738.069	-172.914	-0.325	0.013
-737.054	-24.252	-0.397	0.314
-736.039	-43.449	-0.537	0.360
-735.025	-74.636	-0.101	-0.048
-734.010	308.146	-0.081	-0.202
-732.996	-130.814	-0.546	0.096
-731.981	-165.337	0.436	-0.025
-730.966	-77.604	-0.247	-0.113
-729.952	-168.909	0.262	0.013
-728.937	-151.803	-0.582	0.056
-727.923	-69.113	-0.502	-0.255
-726.908	-148.100	-0.206	-0.022
-725.894	-19.471	-0.274	0.225
-724.879	5.385	0.021	0.021
-723.864	4.390	0.083	0.081
-722.850	-159.560	0.241	-0.017
-721.835	-200.000	-0.038	0.384
-720.821	222.797	0.102	0.219
-719.806	4.288	0.090	-0.087
-718.791	-12.208	-0.215	0.186
-717.777	-107.907	0.186	-0.053
-716.762	-114.640	-0.526	-0.133
-715.748	717.718	0.120	0.425
-714.733	-123.332	0.242	-0.051
-713.718	371.263	-0.051	-0.139
-712.704	-65.266	0.266	-0.142
-711.689	87.516	-0.208	0.305
-710.675	495.734	0.112	-0.342
-709.660	-132.478	0.242	-0.041
-708.645	-22.241	0.156	-0.125
-707.631	211.103	0.141	0.296
-706.616	-9.074	-0.151	-0.134
-705.602	800.000	-0.100	-0.530
-704.587	51.043	0.062	0.078
-703.572	800.000	-0.079	0.435
-702.558	-76.465	-0.140	-0.065
-701.543	-22.038	-0.147	0.118
-700.529	791.325	-0.039	0.145
-699.514	249.366	0.152	-0.344
-698.499	-82.734	-0.349	-0.149
-697.485	215.653	0.070	-0.148
-696.470	-148.098	0.396	-0.043
-695.456	-91.395	0.568	0.214
-694.441	-151.282	-0.268	0.026
-693.426	-162.561	-0.463	-0.030
-692.412	435.128	-0.043	0.126
-691.397	45.267	-0.136	0.166
-690.383	800.000	-0.101	0.391
-689.368	5.283	0.221	-0.216
-688.354	-46.876	-0.249	0.161
-687.339	102.043	0.084	-0.131
-686.324	-78.336	-0.208	-0.094
-685.310	-24.218	0.275	-0.217
-684.295	-171.433	-0.073	-0.003
-683.281	1.008	0.239	-0.227
-682.266	-85.837	-0.457	-0.186
-681.251	-7.261	-0.406	-0.364
-680.237	522.636	-0.021	0.067
-679.222	-176.879	0.500	0.016
-678.208	-58.879	0.363	0.207
-677.193	-80.311	-0.175	-0.077
-676.178	129.270	0.044	-0.074
-675.164	239.284	0.136	0.300
-674.149	800.000	0.069	0.285
-673.135	484.299	0.102	0.310
-672.120	800.000	-0.117	-0.488
-671.105	-9.998	0.184	-0.162
-670.091	289.399	-0.371	-0.894
-669.076	-5.678	0.475	-0.431
-668.062	800.000	-0.151	-0.756
-667.047	-100.088	-0.421	-0.138
-666.032	29.037	-0.199	0.223
-665.018	76.931	-0.166	0.234
-664.003	-117.722	-0.334	0.079
-662.989	-200.000	-0.005	-0.275
-661.974	-101.895	-0.142	0.045
-660.959	-164.888	0.152	0.009
-659.945	-153.615	-0.694	0.063
-658.930	172.077	-0.117	0.224
-657.916	-200.000	-0.036	0.350
-656.901	-93.276	0.198	0.072
-655.886	800.000	0.057	0.262
-654.872	-200.000	0.014	0.215
-653.857	32.099	-0.379	-0.432
-652.843	-200.000	-0.182	-0.001
-651.828	157.863	-0.226	0.416
-650.814	-75.742	-0.721	0.337
-649.799	246.173	0.064	-0.144
-648.784	-103.090	-0.101	-0.031
-647.770	205.637	0.059	0.122
-646.755	36.322	-0.311	-0.363
-645.741	-200.000	-0.088	-0.603
-644.726	-64.786	-0.067	0.036
-643.711	-163.547	0.125	0.008
-642.697	-157.785	0.105	-0.008
-641.682	-111.473	0.507	-0.136
-640.668	-143.929	-0.085	0.011
-639.653	-135.648	-0.186	-0.029
-638.638	648.442	-0.039	0.133
-637.624	-104.968	0.181	0.054
-636.609	125.033	0.138	-0.230
-635.595	-200.000	-0.318	-0.002
-634.580	379.418	-0.093	-0.253
-633.565	267.996	-0.110	-0.256
-632.551	-200.000	-0.046	-0.273
-631.536	-138.979	-0.239	-0.034
-630.522	-126.040	0.562	0.111
-629.507	53.856	-0.327	0.415
-628.492	416.993	0.047	0.133
-627.478	75.234	-0.081	0.113
-626.463	-200.000	0.093	-0.557
-625.449	101.073	-0.212	0.326
-624.434	-21.397	-0.133	0.107
-623.419	-52.103	0.397	0.243
-622.405	-135.609	0.141	-0.022
-621.390	166.621	0.137	-0.258
-620.376	-135.169	-0.327	0.051
-619.361	-191.558	-0.142	-0.002
-618.346	-200.000	-0.019	-0.208
-617.332	-140.625	-0.651	-0.088
-616.317	28.746	-0.216	-0.241
-615.303	-2.608	-0.201	0.185
-614.288	-200.000	0.041	-0.327
-613.273	-54.264	0.094	0.056
-612.259	13.649	-0.075	0.077
-611.244	-27.417	-0.405	0.311
-610.230	-104.574	-0.214	0.065
-609.215	-66.500	0.440	-0.230
-608.201	-25.388	-0.188	0.147
-607.186	451.119	-0.025	0.073
-606.171	-71.704	-0.267	-0.131
-605.157	-14.689	-0.117	0.099
-604.142	-200.000	-0.028	-0.752
-603.128	188.470	-0.243	0.482
-602.113	22.537	-0.265	-0.286
-601.098	211.741	-0.102	-0.213
-600.084	166.972	0.168	-0.316
-599.069	-155.554	-0.078	0.007
-598.055	195.135	-0.137	0.275
-597.040	-193.347	0.056	0.001
-596.025	-158.229	-0.317	-0.024
-595.011	-200.000	0.015	0.339
-593.996	-95.102	-0.242	-0.086
-592.982	616.823	0.068	-0.226
-591.967	26.181	0.298	-0.329
-590.952	-200.000	-0.012	0.381
-589.938	83.766	0.083	-0.119
-588.923	-200.000	0.053	0.535
-587.909	800.000	0.101	0.529
-586.894	-200.000	0.005	-0.088
-585.879	800.000	-0.093	0.418
-584.865	-119.223	-0.077	-0.018
-583.850	-110.649	0.070	0.019
-582.836	-59.009	-0.167	-0.095
-581.821	6.587	-0.346	-0.339
-580.806	-35.160	0.289	0.207
-579.792	125.153	-0.348	0.580
-578.777	17.639	-0.307	0.322
-577.763	800.000	0.049	0.248
-576.748	187.697	0.068	-0.134
-575.733	-200.000	-0.038	0.317
-574.719	-26.530	0.081	0.063
-573.704	278.341	0.136	0.321
-572.690	-48.216	0.117	-0.074
-571.675	-35.223	-0.291	0.209
-570.661	474.484	0.173	0.518
-569.646	800.000	0.050	0.279
-568.631	-65.286	-0.131	-0.069
-567.617	-57.673	0.032	-0.018
-566.602	-111.852	-0.344	0.091
-565.588	134.822	0.158	0.271
-564.573	-96.994	0.397	0.136
-563.558	-81.922	-0.405	-0.174
-562.544	800.000	-0.059	-0.271
-561.529	-158.832	-0.102	-0.008
-560.515	-200.000	0.013	-0.326
-559.500	11.357	0.394	-0.397
-558.485	7.703	-0.154	0.152
-557.471	-35.994	-0.518	0.368
-556.456	-15.099	0.283	0.239
-555.442	-70.961	0.209	-0.103
-554.427	271.781	-0.206	-0.481
-553.412	-200.000	-0.027	0.233
-552.398	152.532	-0.141	-0.254
-551.383	-115.645	-0.276	-0.068
-550.369	-159.912	-0.314	0.022
-549.354	0.018	0.185	-0.174
-548.339	-108.208	0.207	-0.058
-547.325	800.000	0.016	0.092
-546.310	-136.332	-0.447	0.068
-545.296	-75.251	-0.303	0.142
-544.281	-162.781	0.260	-0.016
-543.266	-199.790	0.284	-0.002
-542.252	107.196	-0.210	0.329
-541.237	-37.976	-0.283	0.198
-540.223	9.268	0.092	-0.091
-539.208	-122.540	-0.366	0.078
-538.193	-41.777	0.334	-0.226
-537.179	112.537	0.194	0.310
-536.164	1.033	0.226	0.213
-535.150	-161.794	0.354	0.023
-534.135	-4.275	-0.187	0.170
-533.121	-102.188	-0.400	-0.126
-532.106	8.791	0.267	-0.265
-531.091	-195.028	0.249	0.002
-530.077	45.545	-0.225	-0.273
-529.062	-200.000	-0.021	-0.394
-528.048	-98.137	0.347	-0.117
-527.033	-132.987	0.115	0.019
-526.018	14.878	-0.330	-0.340
-525.004	-200.000	-0.003	-0.044
-523.989	-156.882	0.102	-0.008
-522.975	157.997	-0.217	-0.397
-521.960	-66.424	-0.499	-0.260
-520.945	800.000	-0.103	-0.584
-519.931	-81.700	-0.144	0.062
-518.916	800.000	-0.155	0.613
-517.902	800.000	0.181	0.936
-516.887	-31.262	-0.188	0.139
-515.872	800.000	0.115	-0.421
-514.858	-108.468	-0.144	0.041
-513.843	-112.770	0.401	0.104
-512.829	800.000	0.082	-0.416
-511.814	-128.296	-0.357	0.066
-510.799	-61.445	-0.595	0.328
-509.785	-61.981	-0.661	0.362
-508.770	-91.674	-0.330	-0.123
-507.756	-175.592	0.222	-0.008
-506.741	-114.828	0.553	0.138
-505.726	-200.000	0.000	0.457
-504.712	-15.232	-0.031	-0.026
-503.697	-40.014	-0.516	-0.353
-502.683	-111.012	-0.411	-0.110
-501.668	800.000	0.036	0.183
-500.653	641.328	0.048	-0.160
-499.639	-118.366	0.088	-0.020
-498.624	91.422	-0.163	0.241
-497.610	-141.468	0.204	-0.027
-496.595	-30.762	0.179	-0.133
-495.581	-160.896	-0.364	-0.025
-494.566	-156.561	-0.583	-0.047
-493.551	18.524	-0.190	-0.199
-492.537	83.448	-0.143	-0.205
-491.522	-52.521	0.162	0.098
-490.508	-200.000	-0.001	-0.310
-489.493	40.747	0.183	-0.217
-488.478	-96.105	0.514	-0.179
-487.464	-35.417	0.106	0.076
-486.449	152.989	0.101	-0.183
-485.435	-59.783	-0.460	0.258
-484.420	37.331	0.062	0.072
-483.405	188.611	0.092	0.182
-482.391	488.391	0.072	-0.217
-481.376	800.000	0.049	0.241
-480.362	8.353	0.067	0.066
-479.347	243.107	-0.212	-0.468
-478.332	800.000	-0.064	0.342
-477.318	-78.288	0.437	0.196
-476.303	47.728	-0.104	0.128
-475.289	209.216	-0.061	0.126
-474.274	123.575	0.279	-0.461
-473.259	28.188	-0.211	0.235
-472.245	-26.844	-0.349	-0.268
-471.230	-138.034	-0.377	-0.055
-470.216	-142.616	-0.296	-0.038
-469.201	800.000	0.088	0.395
-468.186	60.665	-0.174	0.227
-467.172	-74.135	0.265	0.125
-466.157	32.385	-0.334	0.378
-465.143	-43.116	-0.066	0.044
-464.128	-9.947	-0.402	-0.351
-463.113	800.000	0.032	0.181
-462.099	-200.000	0.003	0.360
-461.084	-35.562	-0.093	0.066
-460.070	-80.373	0.098	0.043
-459.055	36.364	0.210	-0.243
-458.040	-159.042	0.238	0.017
-457.026	8.465	-0.172	-0.170
-456.011	204.059	0.078	0.159
-454.997	-45.386	0.505	0.328
-453.982	-200.000	-0.016	0.228
-452.968	800.000	-0.128	0.609
-451.953	59.465	0.211	0.274
-450.938	-101.888	0.363	0.114
-449.924	-157.522	0.618	-0.048
-448.909	-127.072	-0.203	-0.039
-447.895	26.956	0.172	-0.189
-446.880	635.639	-0.144	-0.481
-445.865	174.161	-0.005	-0.010
-444.851	800.000	-0.089	-0.481
-443.836	-20.743	0.493	-0.396
-442.822	-11.140	0.181	-0.157
-441.807	144.021	0.275	0.483
-440.792	123.289	-0.129	0.212
-439.778	224.358	-0.099	-0.210
-438.763	190.927	-0.126	-0.250
-437.749	-64.854	-0.188	-0.100
-436.734	106.162	0.373	-0.580
-435.719	-107.446	-0.113	0.032
-434.705	-172.033	0.240	0.010
-433.690	162.100	-0.070	-0.128
-432.676	117.016	0.156	0.251
-431.661	0.767	0.244	0.229
-430.646	-77.658	-0.260	0.118
-429.632	-165.051	0.891	0.051
-428.617	373.272	-0.052	-0.141
-427.603	127.746	-0.154	-0.256
-426.588	-200.000	-0.021	0.151
-425.573	800.000	0.013	-0.060
-424.559	235.860	0.071	-0.155
-423.544	-119.270	0.152	-0.034
-422.530	-200.000	0.032	-0.195
-421.515	10.976	-0.108	-0.108
-420.500	485.082	-0.099	-0.297
-419.486	-175.983	-0.414	0.014
-418.471	127.706	-0.083	0.139
-417.457	245.911	-0.090	-0.199
-416.442	86.604	0.154	-0.223
-415.428	-51.001	-0.154	-0.094
-414.413	-83.592	-0.284	-0.118
-413.398	-160.073	0.167	-0.012
-412.384	-156.712	-0.338	0.027
-411.369	-176.771	0.175	0.006
-410.355	-112.648	0.260	0.067
-409.340	-200.000	-0.002	-0.223
-408.325	60.735	0.113	-0.147
-407.311	-30.940	-0.402	-0.297
-406.296	66.583	0.204	-0.272
-405.282	-55.736	0.468	0.273
-404.267	-140.753	-0.179	0.024
-403.252	-140.506	0.533	-0.072
-402.238	-145.605	-0.057	0.007
-401.223	800.000	0.093	-0.387
-400.209	395.892	-0.174	-0.479
-399.194	-62.122	-0.130	0.071
-398.179	-200.000	0.014	-0.097
-397.165	12.117	-0.358	0.361
-396.150	84.599	-0.131	0.187
-395.136	-87.068	0.260	0.103
-394.121	64.879	0.062	-0.083
-393.106	-145.846	-0.058	-0.007
-392.092	-49.838	-0.218	-0.135
-391.077	-150.438	0.506	-0.050
-390.063	800.000	0.028	-0.158
-389.048	44.835	-0.073	0.088
-388.033	-138.709	0.154	0.022
-387.019	16.552	0.219	0.227
-386.004	-134.992	-0.337	0.053
-384.990	-112.738	-0.105	0.027
-383.975	800.000	-0.081	-0.436
-382.960	-89.297	-0.357	-0.137
-381.946	800.000	0.035	-0.179
-380.931	-169.693	-0.333	-0.016
-379.917	40.001	0.245	0.288
-378.902	608.016	-0.016	-0.053
-377.888	-23.549	0.118	0.093
-376.873	320.251	-0.112	0.279
-375.858	-200.000	-0.006	-0.227
-374.844	-200.000	0.003	0.428
-373.829	-137.360	-0.270	0.040
-372.815	-200.000	-0.001	0.120
-371.800	24.951	0.265	-0.288
-370.785	800.000	0.168	0.762
-369.771	760.311	-0.031	0.110
-368.756	13.870	-0.143	-0.145
-367.742	650.655	0.060	-0.201
-366.727	-162.939	-0.270	0.017
-365.712	-116.463	0.644	0.154
-364.698	-87.366	-0.447	-0.176
-363.683	-113.125	-0.460	-0.118
-362.669	-129.121	0.131	0.024
-361.654	-197.943	-0.169	0.001
-360.639	-52.592	0.060	-0.036
-359.625	773.552	-0.067	0.240
-358.610	-46.723	0.675	0.431
-357.596	-148.967	0.400	0.042
-356.581	-68.606	-0.421	0.212
-355.566	-105.548	0.158	-0.047
-354.552	-134.019	0.332	-0.053
-353.537	-200.000	0.019	0.203
-352.523	60.951	-0.178	0.232
-351.508	-39.104	0.536	-0.368
-350.493	-200.000	-0.013	-0.464
-349.479	-1.616	0.186	0.172
-348.464	-200.000	0.026	0.163
-347.450	166.827	0.183	-0.341
-346.435	-45.343	-0.164	-0.106
-345.420	-200.000	-0.000	-0.051
-344.406	800.000	0.113	0.413
-343.391	-140.303	0.196	-0.027
-342.377	313.261	0.179	-0.443
-341.362	169.958	-0.197	0.368
-340.348	-79.432	0.492	-0.217
-339.333	-200.000	0.011	0.112
-338.318	-178.039	-0.239	-0.007
-337.304	385.565	0.090	-0.245
-336.289	-73.298	-0.226	0.108
-335.275	46.337	-0.139	-0.168
-334.260	-82.440	-0.605	-0.255
-333.245	-200.000	-0.002	0.111
-332.231	-121.605	-0.346	0.074
-331.216	-111.368	-0.243	-0.064
-330.202	59.393	-0.026	0.034
-329.187	-200.000	-0.022	0.271
-328.172	532.378	-0.070	0.218
-327.158	-22.356	0.429	0.339
-326.143	-77.768	-0.197	0.088
-325.129	-68.747	0.501	0.252
-324.114	46.814	0.195	0.237
-323.099	12.027	-0.293	0.294
-322.085	800.000	-0.167	0.735
-321.070	-122.231	0.665	0.141
-320.056	-62.277	0.447	-0.242
-319.041	800.000	-0.113	0.640
-318.026	-50.564	-0.228	-0.140
-317.012	24.818	0.187	0.202
-315.997	-0.972	0.081	-0.075
-314.983	148.124	0.074	-0.131
-313.968	-107.622	0.457	-0.129
-312.953	-10.709	0.212	-0.183
-311.939	-148.772	0.069	0.007
-310.924	-50.102	-0.400	-0.246
-309.910	-200.000	-0.013	-0.273
-308.895	316.708	-0.156	-0.386
-307.880	-83.635	-0.204	-0.085
-306.866	33.669	0.311	-0.353
-305.851	59.431	0.121	-0.156
-304.837	-129.079	-0.353	0.064
-303.822	-43.098	0.276	-0.182
-302.807	433.730	-0.166	0.472
-301.793	-157.043	-0.429	0.034
-300.778	196.215	0.175	0.349
-299.764	-111.086	0.329	0.087
-298.749	-138.306	-0.121	0.017
-297.735	800.000	0.100	0.369
-296.720	173.646	0.387	-0.731
-295.705	-74.542	-0.406	-0.190
-294.691	-98.824	0.270	0.089
-293.676	-200.000	-0.020	0.491
-292.662	-200.000	0.069	0.524
-291.647	-101.370	-0.251	0.079
-290.632	114.979	-0.170	-0.271
-289.618	-93.455	0.557	0.200
-288.603	-106.603	0.419	-0.121
-287.589	-79.597	0.317	0.139
-286.574	-95.259	-0.229	-0.080
-285.559	-80.423	0.341	-0.148
-284.545	-118.979	-0.265	0.060
-283.530	-135.801	0.404	-0.062
-282.516	329.891	-0.126	-0.317
-281.501	-1.785	-0.168	0.154
-280.486	173.483	0.128	0.242
-279.472	-61.159	-0.292	0.160
-278.457	-60.445	0.044	-0.024
-277.443	149.226	0.197	-0.349
-276.428	-58.945	-0.350	0.196
-275.413	-49.595	0.053	-0.033
-274.399	-138.421	-0.222	0.032
-273.384	-108.786	-0.426	-0.118
-272.370	-6.691	-0.245	-0.217
-271.355	106.349	-0.272	-0.421
-270.340	7.651	0.251	0.244
-269.326	-107.143	-0.344	-0.098
-268.311	-23.229	0.171	0.134
-267.297	63.582	-0.089	0.116
-266.282	192.753	0.191	0.378
-265.267	267.466	0.209	0.480
-264.253	-0.430	0.141	-0.131
-263.238	-41.764	0.573	0.383
-262.224	192.004	0.199	-0.392
-261.209	-16.590	0.151	-0.124
-260.195	176.164	0.133	0.252
-259.180	800.000	0.049	-0.238
-258.165	-200.000	0.031	-0.275
-257.151	246.034	0.039	-0.085
-256.136	-200.000	0.098	0.000
-255.122	-13.084	0.227	-0.192
-254.107	21.419	0.219	0.232
-253.092	153.880	-0.112	-0.200
-252.078	-5.265	0.342	0.306
-251.063	-79.248	0.195	0.086
-250.049	-200.000	0.096	-0.611
-249.034	48.250	-0.049	0.060
-248.019	-89.363	-0.226	-0.086
-247.005	15.695	0.281	-0.287
-245.990	-26.982	-0.330	-0.250
-244.976	37.683	-0.147	-0.170
-243.961	99.410	0.110	0.167
-242.946	-37.397	0.281	0.195
-241.932	-14.225	0.164	0.137
-240.917	268.985	-0.006	0.015
-239.903	-200.000	0.000	-0.229
-238.888	-146.541	0.147	-0.017
-237.873	442.679	-0.083	-0.237
-236.859	-79.463	0.527	-0.231
-235.844	160.032	-0.459	-0.836
-234.830	-200.000	0.019	-0.193
-233.815	-5.962	-0.217	0.193
-232.800	-83.148	-0.065	0.027
-231.786	-151.568	-0.406	-0.039
-230.771	-200.000	-0.023	0.344
-229.757	698.500	-0.176	0.607
-228.742	800.000	-0.067	0.382
-227.727	49.994	-0.117	0.144
-226.713	-200.000	0.005	-0.376
-225.698	-31.386	-0.113	0.082
-224.684	-152.932	-0.392	-0.036
-223.669	-108.932	-0.130	-0.036
-222.655	-69.026	-0.416	-0.208
-221.640	-200.000	-0.034	-0.229
-220.625	-116.152	-0.095	-0.023
-219.611	18.127	0.243	0.252
-218.596	59.177	0.254	0.326
-217.582	-138.700	-0.640	-0.090
-216.567	-42.589	0.357	0.236
-215.552	241.994	0.187	0.408
-214.538	-200.000	0.069	0.413
-213.523	-200.000	-0.061	-0.413
-212.509	-42.526	-0.401	-0.265
-211.494	-135.001	0.270	0.042
-210.479	15.074	0.054	0.054
-209.465	-76.399	-0.187	-0.085
-208.450	800.000	-0.057	-0.259
-207.436	-73.359	0.368	0.174
-206.421	233.432	-0.205	0.439
-205.406	27.357	0.151	0.165
-204.392	-200.000	0.009	-0.125
-203.377	594.598	0.127	-0.410
-202.363	-100.854	0.551	0.175
-201.348	-9.856	-0.077	-0.066
-200.333	800.000	-0.072	-0.410
-199.319	-84.001	-0.189	0.078
-198.304	28.758	-0.221	0.244
-197.290	800.000	-0.054	0.293
-196.275	-32.491	0.122	-0.088
-195.260	-56.950	0.309	-0.177
-194.246	-102.472	0.378	-0.117
-193.231	4.463	0.081	-0.078
-192.217	-61.428	-0.202	0.110
-191.202	-10.714	0.453	-0.389
-190.187	-12.173	0.188	-0.159
-189.173	25.147	0.239	-0.258
-188.158	-131.542	-0.129	0.022
-187.144	271.265	-0.142	-0.325
-186.129	800.000	-0.083	-0.450
-185.114	-58.817	0.091	-0.051
-184.100	-200.000	-0.053	0.593
-183.085	-56.853	0.071	0.040
-182.071	116.753	-0.134	0.215
-181.056	101.865	0.276	-0.420
-180.042	-108.218	0.771	-0.215
-179.027	-120.598	0.605	0.132
-178.012	-200.000	0.010	0.318
-176.998	-75.878	0.235	0.108
-175.983	-41.147	0.188	-0.126
-174.969	800.000	-0.021	0.108
-173.954	-40.870	0.238	-0.159
-172.939	458.341	0.067	-0.194
-171.925	-200.000	0.067	-0.457
-170.910	9.579	0.116	0.114
-169.896	-176.217	0.280	0.009
-168.881	-42.691	-0.101	-0.067
-167.866	-41.247	-0.099	0.066
-166.852	-92.020	0.113	0.041
-165.837	583.189	-0.111	0.354
-164.823	-155.912	-0.467	-0.038
-163.808	-139.148	-0.436	0.060
-162.793	179.997	-0.188	0.360
-161.779	94.132	0.327	-0.482
-160.764	304.965	0.080	0.195
-159.750	-200.000	-0.058	0.350
-158.735	-75.271	-0.220	0.102
-157.720	-89.870	0.348	-0.131
-156.706	453.889	-0.093	0.269
-155.691	115.158	0.123	0.194
-154.677	58.738	-0.185	-0.236
-153.662	-1.276	-0.053	-0.048
-152.647	-164.292	-0.402	-0.024
-151.633	-108.902	0.179	0.049
-150.618	-124.256	-0.481	-0.097
-149.604	-162.254	-0.260	0.017
-148.589	116.612	-0.086	0.137
-147.574	68.319	-0.165	0.220
-146.560	-61.011	0.207	-0.113
-145.545	18.152	-0.041	0.043
-144.531	800.000	0.116	0.618
-143.516	346.813	0.098	0.252
-142.502	800.000	0.033	-0.170
-141.487	15.850	0.350	-0.357
-140.472	-124.063	-0.161	0.033
-139.458	68.381	0.153	-0.203
-138.443	-80.176	0.306	0.132
-137.429	-200.000	-0.023	0.161
-136.414	-114.677	0.417	0.103
-135.399	-75.156	0.121	-0.056
-134.385	-139.984	-0.203	0.027
-133.370	-67.931	-0.471	-0.238
-132.356	-4.721	-0.155	-0.139
-131.341	-200.000	0.023	0.213
-130.326	165.654	-0.178	0.328
-129.312	-164.160	0.544	0.032
-128.297	-200.000	0.028	0.178
-127.283	294.379	0.003	-0.008
-126.268	-132.952	-0.272	0.044
-125.253	-100.303	-0.277	-0.089
-124.239	-128.938	-0.134	-0.024
-123.224	-136.596	-0.730	0.108
-122.210	-43.571	-0.203	-0.133
-121.195	800.000	-0.054	0.280
-120.180	-11.215	-0.305	0.261
-119.166	-73.421	-0.094	-0.045
-118.151	-10.590	-0.080	-0.068
-117.137	-200.000	0.020	-0.116
-116.122	147.764	-0.051	-0.090
-115.107	590.929	-0.120	0.385
-114.093	145.442	0.073	0.127
-113.078	138.575	-0.051	0.087
-112.064	18.805	-0.283	-0.293
-111.049	800.000	-0.036	-0.140
-110.034	-140.403	-0.274	-0.037
-109.020	-78.213	-0.201	0.089
-108.005	800.000	0.051	0.285
-106.991	155.334	-0.102	0.182
-105.976	-200.000	-0.088	-0.563
-104.962	91.468	-0.202	-0.294
-103.947	19.192	0.023	-0.024
-102.932	82.850	0.267	-0.376
-101.918	-121.776	-0.130	0.027
-100.903	155.949	-0.151	-0.269
-99.889	56.722	0.259	0.327
-98.874	52.490	0.063	0.078
-97.859	-138.698	0.388	-0.054
-96.845	7.355	0.291	-0.281
-95.830	488.303	-0.106	-0.315
-94.816	-43.804	0.147	-0.095
-93.801	-34.417	0.074	0.053
-92.786	-105.579	-0.307	-0.090
-91.772	-84.470	0.539	-0.219
-90.757	800.000	-0.053	-0.288
-89.743	-200.000	-0.020	0.402
-88.728	-9.996	0.145	0.125
-87.713	-42.513	0.200	-0.131
-86.699	-112.727	-0.747	-0.191
-85.684	229.160	0.181	0.383
-84.670	-158.104	-0.405	-0.030
-83.655	-200.000	-0.077	0.461
-82.640	323.369	-0.143	-0.355
-81.626	-99.579	0.289	-0.093
-80.611	-119.267	-0.118	-0.026
-79.597	-121.382	-0.176	0.038
-78.582	-28.137	0.077	0.058
-77.567	213.299	0.214	-0.438
-76.553	140.918	0.250	-0.428
-75.538	63.942	0.061	0.080
-74.524	-98.158	0.108	0.036
-73.509	-109.408	0.349	0.095
-72.494	64.023	-0.530	0.690
-71.480	80.742	-0.146	-0.204
-70.465	485.655	0.016	0.048
-69.451	-200.000	0.036	0.217
-68.436	-200.000	-0.016	0.207
-67.422	379.741	0.057	-0.153
-66.407	260.412	0.072	0.162
-65.392	-50.937	-0.498	0.302
-64.378	8.504	-0.134	0.130
-63.363	2.073	0.150	0.140
-62.349	-66.704	-0.369	0.188
-61.334	61.415	-1.802	-2.318
-60.319	42.476	1.542	1.814
-59.305	241.442	-3.589	-7.778
-58.290	94.146	3.548	5.214
-57.276	475.429	3.510	10.301
-56.261	-200.000	24.299	320.844
-55.246	351.148	1307.757	3360.463
-54.232	52.502	2847.488	3516.515
-53.217	51.141	2661.447	3265.573
-52.203	31.434	2391.455	2656.245
-51.188	27.603	2057.666	2238.218
-50.173	24.369	1944.535	2077.297
-49.159	23.328	1932.524	2052.268
-48.144	22.856	1928.236	2042.149
-47.130	22.762	1925.040	2037.588
-46.115	22.658	1923.957	2035.151
-45.100	22.576	1922.200	2032.259
-44.086	22.659	1921.053	2031.928
-43.071	22.593	1918.850	2028.757
-42.057	22.712	1917.505	2028.634
-41.042	22.582	1916.071	2025.529
-40.027	22.704	1914.504	2025.205
-39.013	22.821	1912.314	2024.158
-37.998	22.634	1911.719	2021.287
-36.984	22.630	1910.718	2020.103
-35.969	22.659	1909.677	2019.260
-34.954	22.584	1908.409	2016.970
-33.940	22.520	1907.718	2015.424
-32.925	22.447	1905.946	2012.641
-31.911	22.605	1904.251	2012.577
-30.896	22.593	1903.133	2011.186
-29.881	22.576	1901.656	2009.341
-28.867	22.518	1900.404	2007.282
-27.852	22.468	1898.642	2004.769
-26.838	22.422	1897.193	2002.628
-25.823	22.407	1896.522	2001.673
-24.809	22.494	1894.938	2000.914
-23.794	22.472	1893.754	1999.335
-22.779	22.455	1892.369	1997.592
-21.765	22.479	1890.859	1996.192
-20.750	22.414	1889.847	1994.312
-19.736	22.323	1889.863	1993.213
-18.721	22.553	1887.174	1992.913
-17.706	22.432	1885.967	1990.188
-16.692	22.463	1885.255	1989.709
-15.677	22.433	1884.240	1988.213
-14.663	22.290	1882.214	1984.371
-13.648	22.408	1880.875	1984.226
-12.633	22.419	1879.815	1983.151
-11.619	22.367	1877.950	1980.511
-10.604	22.453	1877.218	1980.641
-9.590	22.382	1876.297	1978.782
-8.575	22.291	1875.806	1977.164
-7.560	22.301	1874.279	1975.582
-6.546	22.346	1872.782	1974.431
-5.531	22.489	1871.240	1974.347
-4.517	22.410	1870.957	1973.082
-3.502	22.350	1870.094	1971.415
-2.487	22.542	1867.697	1970.970
-1.473	22.486	1864.457	1966.844
-0.458	22.217	1847.271	1945.645
0.556	18.797	1994.013	2047.026
1.571	17.260	2197.563	2235.408
2.586	18.023	2237.146	2285.669
3.600	18.204	2238.734	2289.446
4.615	18.103	2238.457	2287.538
5.629	18.063	2236.500	2284.718
6.644	18.090	2234.486	2282.752
7.659	18.131	2232.254	2280.745
8.673	18.141	2230.356	2278.674
9.688	17.903	2239.116	2284.148
10.702	16.920	2320.236	2352.909
11.717	15.064	2384.044	2390.708
12.731	6.856	2364.365	2253.430
13.746	0.858	2349.210	2153.104
14.761	0.148	2345.485	2139.281
15.775	0.137	2343.409	2136.973
16.790	0.113	2341.851	2134.954
17.804	0.172	2340.428	2134.242
18.819	0.085	2340.086	2132.447
19.834	0.026	2338.657	2130.049
20.848	0.060	2336.944	2128.707
21.863	0.140	2333.888	2126.816
22.877	0.013	2332.893	2123.842
23.892	0.006	2331.920	2122.600
24.907	0.089	2328.708	2120.605
25.921	0.017	2326.463	2117.288
26.936	0.047	2324.576	2115.743
27.950	0.127	2321.914	2114.188
28.965	0.064	2320.916	2112.141
29.980	0.102	2319.240	2110.904
30.994	0.098	2316.452	2108.058
32.009	3.610	2327.567	2167.547
33.023	12.474	2353.708	2317.698
34.038	16.272	2357.752	2375.215
35.053	16.279	2354.727	2371.981
36.067	16.184	2353.177	2368.790
37.082	16.210	2351.199	2366.883
38.096	16.276	2349.743	2366.062
39.111	16.544	2348.028	2367.830
40.126	16.778	2344.987	2367.773
41.140	16.779	2343.941	2366.439
42.155	16.724	2342.809	2364.243
43.169	16.779	2340.599	2362.500
44.184	16.606	2336.626	2355.795
45.199	16.579	2334.910	2353.397
46.213	16.644	2333.883	2352.990
47.228	16.719	2332.846	2352.718
48.242	16.756	2331.069	2351.155
49.257	16.856	2329.450	2350.635
50.271	16.869	2326.862	2347.916
51.286	16.536	2323.582	2339.704
52.301	16.483	2321.420	2336.506
53.315	17.265	2324.556	2350.250
54.330	19.956	2332.273	2395.255
55.344	21.688	2333.527	2420.328
56.359	21.905	2330.077	2419.463
57.374	22.011	2329.831	2420.392
58.388	22.271	2326.865	2420.610
59.403	21.990	2323.076	2412.502
60.417	21.715	2319.567	2404.775
61.432	21.718	2318.498	2403.420
62.447	22.021	2317.060	2405.818
63.461	22.198	2315.365	2406.212
64.476	22.283	2313.379	2405.027
65.490	21.979	2310.812	2397.891
66.505	21.221	2307.570	2383.837
67.520	19.037	2300.631	2346.477
68.534	17.133	2292.265	2311.638
69.549	16.574	2287.039	2298.459
70.563	16.476	2285.398	2295.206
71.578	16.513	2283.271	2293.299
72.593	16.431	2282.104	2290.732
73.607	16.635	2280.685	2291.814
74.622	16.701	2278.911	2290.646
75.636	16.648	2275.939	2286.673
76.651	16.507	2273.547	2282.075
77.666	16.489	2271.877	2279.891
78.680	16.487	2269.413	2277.116
79.695	16.374	2266.177	2272.064
80.709	16.244	2265.199	2269.060
81.724	16.294	2263.068	2267.328
82.739	16.206	2261.527	2264.321
83.753	16.372	2259.021	2263.781
84.768	16.285	2257.521	2260.833
85.782	16.221	2256.716	2258.896
86.797	16.252	2254.270	2256.600
87.812	16.253	2252.003	2254.075
88.826	16.362	2250.580	2253.837
89.841	16.467	2248.317	2252.709
90.855	16.385	2246.485	2249.507
91.870	16.629	2243.930	2249.942
92.884	16.500	2243.270	2247.280
93.899	16.583	2241.501	2246.343
94.914	17.150	2243.744	2255.904
95.928	19.469	2251.478	2294.440
96.943	20.241	2249.509	2302.460
97.957	17.985	2238.915	2261.348
98.972	16.506	2233.608	2236.074
99.987	16.444	2229.915	2231.285
101.001	16.294	2228.000	2227.116
102.016	16.375	2226.340	2226.259
103.030	16.475	2223.093	2224.068
104.045	16.379	2220.605	2220.049
105.060	16.455	2218.668	2218.855
106.074	16.246	2217.630	2214.789
107.089	16.401	2214.676	2213.614
108.103	16.368	2214.132	2212.379
109.118	16.487	2212.827	2212.373
110.133	16.594	2211.158	2211.847
111.147	16.430	2209.012	2207.279
112.162	16.336	2208.985	2205.751
113.176	16.568	2205.636	2205.188
114.191	16.668	2203.495	2204.086
115.206	16.503	2203.007	2201.174
116.220	16.434	2201.006	2198.014
117.235	16.436	2198.739	2195.513
118.249	16.514	2196.710	2194.243
119.264	16.482	2195.582	2192.435
120.279	16.545	2192.972	2190.387
121.293	16.487	2190.881	2187.287
122.308	16.357	2189.936	2184.381
123.322	16.228	2188.563	2181.083
124.337	16.694	2190.392	2188.704
125.352	19.429	2197.536	2231.182
126.366	20.062	2195.960	2237.528
127.381	17.462	2184.962	2192.439
128.395	16.439	2179.696	2173.671
129.410	16.315	2177.885	2169.996
130.424	16.303	2175.584	2167.298
131.439	16.359	2175.120	2167.294
132.454	16.505	2172.992	2166.797
133.468	16.594	2170.541	2165.243
134.483	16.709	2169.346	2165.272
135.497	16.666	2168.768	2163.876
136.512	16.588	2165.719	2159.577
137.527	16.417	2163.877	2155.286
138.541	16.190	2162.704	2150.957
139.556	16.329	2161.841	2151.620
140.570	16.400	2159.600	2150.044
141.585	16.323	2158.003	2147.204
142.600	16.294	2156.784	2145.364
143.614	16.430	2154.782	2144.850
144.629	16.283	2153.526	2141.478
145.643	16.173	2150.999	2137.299
146.658	16.171	2149.999	2136.032
147.673	16.196	2147.076	2133.183
148.687	16.231	2146.741	2133.038
149.702	16.433	2146.766	2135.377
150.716	16.394	2145.413	2133.275
151.731	16.508	2143.787	2132.859
152.746	16.479	2142.728	2131.173
153.760	17.300	2145.215	2143.801
154.775	19.893	2151.733	2182.986
155.789	20.593	2149.782	2189.608
156.804	18.139	2139.676	2148.103
157.819	16.636	2133.152	2122.368
158.833	16.342	2130.749	2116.021
159.848	16.485	2127.723	2114.556
160.862	16.480	2127.171	2113.685
161.877	16.501	2126.148	2112.683
162.892	16.622	2125.014	2112.823
163.906	16.646	2123.343	2111.214
164.921	16.667	2121.792	2109.674
165.935	16.660	2119.250	2106.809
166.950	16.593	2117.970	2104.449
167.964	16.497	2115.331	2100.370
168.979	16.306	2113.354	2095.784
169.994	16.326	2111.893	2094.327
171.008	16.305	2110.631	2092.562
172.023	16.189	2109.479	2089.727
173.037	16.296	2107.763	2089.109
174.052	16.505	2106.695	2090.392
175.067	16.472	2103.876	2086.936
176.081	16.242	2102.765	2082.737
177.096	16.296	2101.573	2081.969
178.110	16.373	2100.572	2081.687
179.125	16.298	2100.470	2080.404
180.140	16.408	2097.574	2078.648
181.154	16.485	2096.520	2078.316
182.169	16.610	2095.986	2079.081
183.183	17.320	2097.291	2088.886
184.198	20.081	2104.054	2129.532
185.213	20.588	2101.854	2133.298
186.227	17.707	2092.822	2088.453
187.242	16.618	2088.571	2070.578
188.256	16.484	2085.931	2066.065
189.271	16.334	2084.341	2062.400
190.286	16.312	2083.200	2060.760
191.300	16.252	2081.066	2057.660
192.315	16.390	2079.098	2057.156
193.329	16.426	2078.839	2057.099
194.344	16.618	2077.031	2057.413
195.359	16.776	2076.560	2058.627
196.373	16.617	2073.601	2053.507
197.388	16.358	2070.967	2047.500
198.402	16.394	2068.501	2045.258
199.417	16.263	2067.498	2042.422
200.432	16.433	2064.669	2041.448
201.446	16.462	2064.565	2041.456
202.461	16.438	2062.402	2038.776
203.475	16.290	2060.445	2034.815
204.490	16.461	2058.327	2034.547
205.504	16.457	2056.780	2032.720
206.519	16.513	2053.898	2030.307
207.534	16.477	2052.781	2028.525
208.548	16.521	2052.502	2028.535
209.563	16.574	2050.889	2027.335
210.577	16.687	2050.149	2027.728
211.592	16.585	2050.262	2026.369
212.607	17.982	2054.706	2047.356
213.621	20.892	2061.778	2089.280
214.636	20.365	2055.563	2076.410
215.650	17.447	2046.572	2032.103
216.665	16.774	2042.021	2019.280
217.680	16.495	2040.247	2013.939
218.694	16.413	2037.511	2010.016
219.709	16.368	2036.084	2007.835
220.723	16.439	2035.153	2007.526
221.738	16.681	2033.114	2008.159
222.753	16.602	2031.883	2005.761
223.767	16.597	2030.384	2003.983
224.782	16.467	2029.551	2001.372
225.796	16.474	2027.719	1999.413
226.811	16.382	2026.003	1996.381
227.826	16.486	2024.135	1995.536
228.840	16.480	2022.272	1993.391
229.855	16.427	2020.740	1991.014
230.869	16.297	2019.250	1987.775
231.884	16.265	2018.576	1986.490
232.899	16.402	2016.227	1985.557
233.913	16.299	2015.412	1983.309
234.928	16.246	2013.704	1980.766
235.942	16.237	2011.487	1978.239
236.957	16.305	2010.447	1977.779
237.972	16.192	2010.003	1975.772
238.986	16.230	2008.111	1974.120
240.001	16.227	2006.053	1971.827
241.015	16.260	2005.898	1971.824
242.030	17.049	2008.158	1983.087
243.045	19.686	2013.917	2019.545
244.059	20.012	2010.247	2019.453
245.074	17.299	2001.570	1978.797
246.088	16.550	1996.538	1964.842
247.103	16.696	1995.763	1965.547
248.117	16.684	1993.589	1963.032
249.132	16.465	1991.715	1958.403
250.147	16.309	1990.168	1954.826
251.161	16.304	1988.941	1953.332
252.176	16.523	1988.540	1955.252
253.190	16.740	1985.895	1954.932
254.205	16.801	1984.407	1953.946
255.220	16.779	1983.381	1952.439
256.234	16.675	1982.205	1949.844
257.249	16.599	1980.476	1947.031
258.263	16.416	1980.023	1944.236
259.278	16.571	1978.469	1944.267
260.293	16.402	1976.389	1940.048
261.307	16.262	1974.193	1936.036
262.322	16.282	1972.651	1934.533
263.336	16.327	1970.660	1932.856
264.351	16.113	1969.195	1928.730
265.366	16.163	1967.634	1927.543
266.380	16.196	1967.403	1927.471
267.395	16.247	1966.627	1927.068
268.409	16.358	1965.607	1927.107
269.424	16.370	1963.216	1924.665
270.439	16.432	1962.452	1924.394
271.453	17.401	1964.345	1937.121
272.468	20.194	1969.816	1974.291
273.482	20.180	1966.323	1970.396
274.497	17.505	1956.500	1929.873
275.512	16.385	1952.772	1913.230
276.526	16.208	1950.882	1909.133
277.541	16.277	1948.157	1907.025
278.555	16.174	1946.725	1904.216
279.570	16.149	1945.162	1902.185
280.585	16.201	1943.900	1901.307
281.599	16.235	1942.943	1900.535
282.614	16.381	1941.925	1900.962
283.628	16.650	1941.498	1903.357
284.643	16.757	1941.100	1903.946
285.657	16.977	1939.923	1905.052
286.672	16.968	1937.550	1902.388
287.687	16.783	1936.316	1898.861
288.701	16.807	1934.349	1896.972
289.716	16.624	1932.803	1893.171
290.730	16.652	1932.444	1892.912
291.745	16.770	1931.111	1892.704
292.760	16.763	1929.535	1890.860
293.774	16.477	1928.629	1886.537
294.789	16.494	1926.653	1884.564
295.803	16.337	1924.527	1880.498
296.818	16.244	1922.664	1877.421
297.833	16.383	1921.669	1877.775
298.847	16.361	1920.618	1876.273
299.862	16.297	1918.872	1873.637
300.876	17.140	1920.838	1884.736
301.891	19.949	1927.657	1922.603
302.906	20.547	1923.660	1925.038
303.920	17.563	1915.847	1883.868
304.935	16.580	1911.764	1868.716
305.949	16.548	1908.775	1865.224
306.964	16.356	1906.967	1861.101
307.979	16.469	1905.919	1861.110
308.993	16.675	1905.290	1862.552
310.008	16.929	1904.271	1864.132
311.022	16.997	1903.759	1864.159
312.037	16.817	1901.573	1859.816
313.052	16.846	1899.493	1857.878
314.066	16.852	1898.688	1856.934
315.081	16.942	1897.822	1856.855
316.095	16.885	1896.097	1854.322
317.110	16.691	1893.894	1849.813
318.125	16.613	1891.833	1846.717
319.139	16.468	1891.024	1844.124
320.154	16.734	1888.983	1844.822
321.168	16.572	1887.790	1841.668
322.183	16.452	1886.189	1838.570
323.197	16.222	1884.698	1834.382
324.212	16.187	1882.767	1831.902
325.227	16.127	1881.030	1829.338
326.241	16.237	1878.922	1828.265
327.256	16.323	1877.916	1828.004
328.270	16.193	1877.571	1826.036
329.285	16.232	1877.472	1826.142
330.300	17.310	1881.364	1841.448
331.314	20.457	1886.542	1880.601
332.329	20.343	1881.687	1874.297
333.343	17.293	1872.852	1832.279
334.358	16.218	1869.553	1817.201
335.373	16.194	1867.461	1814.687
336.387	16.054	1865.253	1810.814
337.402	16.033	1864.529	1809.672
338.416	16.236	1861.838	1809.034
339.431	16.300	1861.590	1809.263
340.446	16.263	1860.282	1807.374
341.460	16.483	1858.698	1807.989
342.475	16.731	1857.672	1809.439
343.489	16.779	1857.063	1809.138
344.504	16.710	1855.580	1806.735
345.519	16.811	1853.506	1805.585
346.533	16.953	1852.870	1806.267
347.548	16.990	1852.121	1805.717
348.562	16.739	1850.783	1801.511
349.577	16.885	1849.363	1801.473
350.592	17.056	1848.459	1802.210
351.606	17.070	1847.491	1801.198
352.621	16.963	1844.862	1797.275
353.635	16.754	1843.108	1793.132
354.650	16.658	1841.458	1790.290
355.665	16.496	1839.759	1786.703
356.679	16.417	1838.760	1784.677
357.694	16.471	1836.719	1783.059
358.708	16.269	1835.968	1779.973
359.723	17.604	1839.746	1797.595
360.738	20.556	1844.738	1833.598
361.752	19.841	1838.940	1820.055
362.767	17.176	1831.926	1784.793
363.781	16.497	1828.811	1774.380
364.796	16.336	1827.528	1771.228
365.810	16.373	1825.771	1769.699
366.825	16.305	1824.879	1767.910
367.840	16.520	1824.577	1769.662
368.854	16.579	1823.999	1769.517
369.869	16.374	1821.905	1765.119
370.883	16.323	1820.249	1762.769
371.898	16.315	1819.067	1761.322
372.913	16.271	1817.541	1759.173
373.927	16.480	1816.098	1759.756
374.942	16.646	1815.030	1760.245
375.956	16.677	1814.357	1759.704
376.971	16.521	1812.033	1755.613
377.986	16.474	1810.404	1753.341
379.000	16.365	1809.187	1750.817
380.015	16.429	1807.653	1749.781
381.029	16.491	1805.262	1747.901
382.044	16.184	1803.397	1742.707
383.059	16.230	1802.083	1741.697
384.073	16.066	1802.079	1739.793
385.088	16.312	1800.982	1741.075
386.102	16.263	1798.622	1738.078
387.117	16.214	1796.608	1735.412
388.132	16.235	1796.479	1735.299
389.146	17.356	1800.717	1750.785
390.161	20.454	1805.126	1786.952
391.175	20.050	1798.384	1775.898
392.190	17.369	1790.416	1740.285
393.205	16.593	1787.257	1729.032
394.219	16.356	1785.961	1725.137
395.234	16.420	1784.271	1723.954
396.248	16.385	1782.663	1721.838
397.263	16.282	1780.581	1718.568
398.278	16.350	1778.534	1717.084
399.292	16.388	1777.583	1716.348
400.307	16.415	1776.579	1715.444
401.321	16.479	1775.892	1715.233
402.336	16.573	1774.942	1715.067
403.350	16.540	1773.794	1713.418
404.365	16.505	1772.748	1711.841
405.380	16.867	1771.361	1713.985
406.394	16.882	1770.690	1713.277
407.409	16.691	1769.636	1710.116
408.423	16.900	1768.012	1710.458
409.438	16.837	1766.334	1707.992
410.453	16.825	1765.188	1706.560
411.467	16.927	1764.241	1706.468
412.482	16.758	1762.714	1703.079
413.496	16.512	1760.723	1698.468
414.511	16.426	1759.125	1695.864
415.526	16.430	1756.313	1692.983
416.540	16.326	1755.160	1690.621
417.555	16.439	1754.439	1690.866
418.569	16.522	1754.886	1691.926
419.584	16.506	1754.070	1690.775
420.599	16.534	1753.757	1690.559
421.613	16.540	1752.144	1688.860
422.628	16.451	1750.553	1686.235
423.642	16.344	1749.017	1683.473
424.657	16.406	1747.451	1682.388
425.672	16.650	1746.027	1683.258
426.686	16.613	1744.593	1681.303
427.701	16.524	1743.954	1679.600
428.715	16.558	1742.648	1678.480
429.730	16.807	1741.664	1679.810
430.745	16.953	1739.761	1679.224
431.759	16.846	1739.673	1677.877
432.774	17.097	1740.529	1681.001
433.788	17.669	1740.557	1686.510
434.803	17.950	1739.973	1688.537
435.818	17.931	1739.019	1687.227
436.832	17.738	1738.099	1684.211
437.847	16.663	1730.184	1665.715
438.861	8.708	1711.273	1569.205
439.876	1.535	1696.977	1485.650
440.890	0.444	1692.956	1471.257
441.905	0.244	1692.014	1468.304
442.920	0.147	1691.604	1466.818
443.934	0.231	1689.847	1465.944
444.949	0.134	1688.914	1464.014
445.963	0.024	1688.073	1462.032
446.978	0.113	1687.863	1462.541
447.993	0.043	1686.534	1460.535
449.007	0.140	1683.356	1458.551
450.022	0.151	1681.513	1456.890
451.036	0.120	1680.679	1455.686
452.051	1.095	1684.577	1468.391
453.066	8.750	1701.145	1557.713
454.080	16.040	1712.628	1639.561
455.095	17.395	1715.063	1654.959
456.109	17.838	1715.171	1659.196
457.124	17.933	1713.870	1658.664
458.139	18.015	1712.877	1658.308
459.153	18.072	1711.558	1657.385
460.168	18.200	1710.187	1657.103
461.182	18.060	1708.512	1653.919
462.197	18.045	1706.265	1651.401
463.212	18.026	1704.700	1649.505
464.226	18.037	1703.907	1648.647
465.241	18.023	1702.708	1647.156
466.255	18.037	1702.657	1647.041
467.270	18.129	1701.199	1646.329
468.285	17.890	1699.722	1642.395
469.299	17.998	1697.530	1641.122
470.314	18.081	1696.173	1640.408
471.328	18.063	1694.093	1638.028
472.343	18.194	1693.861	1638.869
473.358	18.055	1693.044	1636.549
474.372	18.182	1691.156	1635.751
475.387	18.177	1689.518	1633.917
476.401	17.981	1688.201	1630.570
477.416	18.007	1687.033	1629.499
478.430	18.229	1684.704	1629.175
479.445	17.956	1684.991	1626.645
480.460	17.840	1683.760	1624.154
481.474	17.911	1682.740	1623.655
482.489	18.130	1681.464	1624.322
483.503	18.242	1679.965	1623.741
484.518	18.179	1679.264	1622.274
485.533	18.134	1677.765	1620.200
486.547	18.236	1675.465	1618.756
487.562	18.298	1675.028	1618.727
488.576	18.341	1673.771	1617.733
489.591	18.208	1672.257	1614.811
490.606	18.064	1670.711	1611.763
491.620	18.225	1668.566	1611.019
492.635	18.339	1667.679	1611.048
493.649	18.433	1667.280	1611.359
494.664	18.135	1665.724	1606.844
495.679	17.908	1663.836	1602.696
496.693	18.035	1662.525	1602.436
497.708	18.125	1661.593	1602.195
498.722	18.393	1661.038	1603.994
499.737	18.310	1660.053	1602.066
500.752	18.216	1657.994	1599.005
501.766	18.084	1656.432	1596.069
502.781	18.174	1654.181	1594.547
503.795	18.267	1652.796	1593.899
504.810	18.223	1652.831	1593.327
505.825	18.334	1652.575	1593.923
506.839	18.348	1650.498	1591.867
507.854	18.424	1648.817	1590.763
508.868	18.267	1647.959	1588.278
509.883	18.486	1646.673	1588.887
510.898	18.454	1645.786	1587.549
511.912	18.303	1643.851	1584.088
512.927	18.345	1641.906	1582.409
513.941	18.227	1641.293	1580.533
514.956	18.221	1639.290	1578.359
515.971	18.245	1637.489	1576.662
516.985	18.271	1636.860	1576.108
518.000	18.295	1636.929	1576.204
519.014	18.439	1635.708	1576.171
520.029	18.361	1634.718	1574.308
521.043	18.414	1633.286	1573.236
522.058	18.335	1632.253	1571.323
523.073	18.348	1631.535	1570.564
524.087	18.606	1630.482	1571.741
525.102	18.631	1628.662	1570.021
526.116	18.311	1627.248	1565.532
527.131	18.267	1625.969	1563.706
528.146	18.464	1625.782	1565.153
529.160	18.511	1624.533	1564.197
530.175	18.557	1623.669	1563.598
531.189	18.559	1622.947	1562.729
532.204	18.590	1620.975	1560.925
533.219	18.491	1619.501	1558.417
534.233	18.236	1618.592	1555.024
535.248	18.432	1617.854	1555.922
536.262	18.814	1616.729	1558.134
537.277	18.648	1615.106	1554.874
538.292	18.424	1613.157	1550.771
539.306	18.401	1611.930	1549.197
540.321	18.531	1609.981	1548.321
541.335	18.358	1609.357	1545.970
542.350	18.476	1607.935	1545.484
543.365	18.568	1606.147	1544.417
544.379	18.632	1605.553	1544.233
545.394	18.517	1604.651	1542.146
546.408	18.590	1602.311	1540.367
547.423	18.263	1601.259	1536.221
548.438	18.267	1600.299	1535.156
549.452	18.517	1598.736	1535.722
550.467	18.602	1597.394	1535.019
551.481	18.513	1596.916	1533.571
552.496	18.597	1597.236	1534.455
553.511	18.724	1595.354	1533.604
554.525	18.690	1594.365	1532.159
555.540	18.740	1593.913	1531.990
556.554	18.796	1593.015	1531.450
557.569	18.660	1590.086	1527.228
558.583	18.635	1589.075	1525.855
559.598	18.571	1587.910	1523.983
560.613	18.614	1586.676	1523.003
561.627	18.740	1585.274	1522.595
562.642	18.828	1583.885	1521.865
563.656	18.944	1583.213	1522.068
564.671	18.867	1581.645	1519.690
565.686	18.932	1580.429	1518.922
566.700	18.629	1579.126	1514.800
567.715	18.699	1577.273	1513.456
568.729	18.491	1576.139	1510.348
569.744	18.443	1574.638	1508.302
570.759	18.353	1573.806	1506.525
571.773	18.517	1572.394	1506.448
572.788	18.563	1571.736	1506.042
573.802	18.547	1570.585	1504.617
574.817	18.790	1568.907	1504.969
575.832	18.794	1568.123	1504.075
576.846	18.884	1566.385	1503.020
577.861	18.664	1565.274	1499.841
578.875	18.762	1565.754	1500.976
579.890	18.923	1564.216	1500.737
580.905	18.911	1563.231	1499.508
581.919	18.900	1562.616	1498.640
582.934	19.019	1561.708	1498.634
583.948	18.978	1560.373	1496.815
584.963	19.066	1558.464	1495.574
585.978	18.825	1557.185	1492.066
586.992	18.933	1556.687	1492.350
588.007	18.958	1556.235	1491.952
589.021	18.760	1553.912	1487.830
590.036	18.553	1552.271	1484.274
591.051	18.666	1551.171	1484.031
592.065	18.957	1549.897	1485.156
593.080	18.864	1548.677	1483.005
594.094	18.910	1547.281	1481.889
595.109	18.586	1545.509	1477.215
596.123	18.698	1543.415	1476.005
597.138	18.785	1542.989	1476.167
598.153	18.852	1542.354	1475.966
599.167	18.849	1540.888	1474.357
600.182	19.064	1539.595	1474.797
601.196	18.971	1538.944	1473.193
602.211	19.037	1537.736	1472.433
603.226	18.928	1537.151	1470.753
604.240	19.044	1535.657	1470.150
605.255	19.159	1534.382	1469.740
606.269	19.221	1533.116	1468.883
607.284	19.149	1531.818	1466.849
608.299	19.084	1531.124	1465.447
609.313	19.098	1529.815	1464.139
610.328	18.978	1528.855	1462.025
611.342	19.034	1527.511	1461.038
612.357	19.042	1527.066	1460.505
613.372	19.158	1525.403	1459.728
614.386	19.103	1524.453	1458.177
615.401	19.157	1523.650	1457.697
616.415	19.143	1522.908	1456.688
617.430	19.282	1521.705	1456.542
618.445	19.426	1520.161	1456.117
619.459	19.084	1519.689	1452.588
620.474	18.925	1518.480	1449.913
621.488	18.732	1516.600	1446.306
622.503	18.630	1514.863	1443.617
623.518	18.776	1515.258	1445.053
624.532	18.985	1513.949	1445.396
625.547	19.234	1512.601	1446.040
626.561	19.245	1512.542	1445.904
627.576	19.277	1511.462	1444.967
628.591	19.053	1508.487	1440.067
629.605	18.771	1506.911	1436.016
630.620	18.656	1506.265	1434.270
631.634	18.624	1505.378	1432.985
632.649	18.637	1504.051	1431.652
633.663	18.833	1503.623	1432.722
634.678	18.992	1503.078	1433.359
635.693	19.251	1501.087	1433.461
636.707	19.265	1500.117	1432.473
637.722	19.329	1499.557	1432.303
638.736	19.479	1498.446	1432.326
639.751	19.273	1497.545	1429.576
640.766	19.370	1496.055	1428.787
641.780	19.418	1494.647	1427.669
642.795	19.375	1493.234	1425.790
643.809	19.410	1493.106	1425.792
644.824	19.442	1491.779	1424.623
645.839	19.315	1490.938	1422.589
646.853	19.312	1489.560	1421.085
647.868	19.394	1487.597	1419.719
648.882	19.281	1486.508	1417.576
649.897	19.207	1485.931	1416.242
650.912	19.321	1484.035	1415.206
651.926	19.242	1482.393	1412.817
652.941	19.090	1480.812	1409.891
653.955	18.995	1479.395	1407.595
654.970	18.806	1477.976	1404.524
655.985	18.821	1477.009	1403.560
656.999	18.877	1475.888	1402.782
658.014	19.087	1474.248	1402.777
659.028	19.039	1474.212	1402.183
660.043	19.186	1473.540	1402.578
661.058	19.320	1471.685	1401.739
662.072	19.250	1471.024	1400.369
663.087	19.380	1469.913	1400.208
664.101	19.247	1468.895	1397.987
665.116	19.427	1468.013	1398.442
666.131	19.391	1467.123	1397.134
667.145	19.386	1466.198	1396.050
668.160	19.524	1464.903	1395.767
669.174	19.538	1463.571	1394.451
670.189	19.508	1462.591	1393.105
671.204	19.450	1461.621	1391.544
672.218	19.437	1461.311	1390.977
673.233	19.448	1460.366	1390.000
674.247	19.657	1458.475	1389.724
675.262	19.642	1458.180	1389.156
676.276	19.658	1456.689	1387.697
677.291	19.557	1455.124	1385.223
678.306	19.552	1453.325	1383.303
679.320	19.459	1452.571	1381.677
680.335	19.361	1452.921	1381.049
681.349	19.509	1451.501	1380.725
682.364	19.529	1449.825	1379.132
683.379	19.670	1449.163	1379.463
684.393	19.500	1447.655	1376.504
685.408	19.592	1446.685	1376.151
686.422	19.454	1445.916	1374.152
687.437	19.471	1445.331	1373.564
688.452	19.649	1444.691	1374.218
689.466	19.697	1442.453	1372.310
690.481	19.458	1441.527	1369.358
691.495	19.333	1440.694	1367.406
692.510	18.973	1438.542	1362.334
693.525	18.745	1437.212	1359.093
694.539	18.821	1437.104	1359.433
695.554	19.181	1436.812	1361.856
696.568	19.623	1436.294	1364.716
697.583	19.707	1435.466	1364.428
698.598	19.662	1434.313	1362.814
699.612	19.772	1432.938	1362.215
700.627	19.642	1431.740	1359.883
701.641	19.715	1430.229	1358.869
702.656	19.774	1429.125	1358.118
703.671	19.801	1429.131	1358.174
704.685	19.688	1428.813	1356.819
705.700	19.822	1426.624	1355.636
706.714	19.724	1424.977	1353.135
707.729	19.528	1423.438	1349.974
708.744	19.531	1421.843	1348.320
709.758	19.463	1420.693	1346.537
710.773	19.428	1419.649	1345.106
711.787	19.244	1417.941	1341.889
712.802	19.134	1417.253	1340.218
713.816	19.467	1416.668	1342.112
714.831	19.561	1416.451	1342.475
715.846	19.791	1414.551	1342.307
716.860	19.745	1413.196	1340.508
717.875	19.724	1412.393	1339.419
718.889	19.650	1411.550	1337.882
719.904	19.786	1410.338	1337.630
720.919	19.858	1409.338	1337.085
721.933	19.867	1408.962	1336.637
722.948	19.797	1408.409	1335.410
723.962	19.711	1407.300	1333.533
724.977	19.922	1405.483	1333.286
725.992	19.865	1404.874	1332.106
727.006	19.721	1403.587	1329.608
728.021	19.934	1401.795	1329.395
729.035	19.931	1400.926	1328.395
730.050	19.884	1399.913	1326.909
731.065	19.854	1399.176	1325.822
732.079	19.942	1397.888	1325.118
733.094	19.877	1396.526	1323.173
734.108	19.820	1394.431	1320.588
735.123	19.720	1393.939	1319.202
736.138	19.761	1393.385	1318.835
737.152	19.786	1392.235	1317.776
738.167	19.980	1391.057	1317.986
739.181	20.009	1390.371	1317.405
740.196	20.086	1388.730	1316.281
741.211	20.027	1388.489	1315.439
742.225	19.894	1387.213	1313.061
743.240	19.969	1385.710	1312.049
744.254	19.904	1384.886	1310.622
745.269	19.818	1384.184	1309.148
746.284	19.849	1383.367	1308.448
747.298	19.747	1382.389	1306.595
748.313	19.458	1380.771	1302.714
749.327	19.142	1379.873	1299.315
750.342	18.933	1378.777	1296.548
751.356	18.890	1376.892	1294.288
752.371	18.963	1375.732	1293.597
753.386	19.482	1375.827	1297.452
754.400	19.843	1375.127	1299.366
755.415	19.964	1374.003	1299.061
756.429	20.106	1372.739	1298.782
757.444	20.062	1371.623	1297.237
758.459	19.956	1371.266	1295.949
759.473	20.116	1369.955	1295.757
760.488	20.170	1368.272	1294.410
761.502	20.141	1367.874	1293.666
762.517	19.989	1366.748	1291.302
763.532	19.902	1365.010	1288.856
764.546	19.701	1363.577	1285.849
765.561	19.540	1362.115	1283.110
766.575	19.228	1361.264	1279.824
767.590	19.314	1359.919	1279.053
768.605	19.455	1359.266	1279.339
769.619	19.705	1358.713	1280.521
770.634	19.809	1357.941	1280.415
771.648	20.053	1356.833	1281.031
772.663	20.109	1356.636	1281.111
773.678	20.153	1356.275	1280.940
774.692	19.975	1355.354	1278.599
775.707	20.083	1354.573	1278.507
776.721	20.078	1353.364	1277.175
777.736	20.128	1351.598	1275.726
778.751	20.110	1350.806	1274.692
779.765	19.961	1350.419	1273.074
780.780	20.013	1349.524	1272.463
781.794	20.090	1348.565	1271.975
782.809	19.947	1347.713	1269.965
783.824	19.832	1345.901	1267.257
784.838	19.564	1344.108	1263.451
785.853	19.239	1342.708	1259.592
786.867	19.280	1342.631	1259.670
787.882	19.452	1342.448	1260.611
788.897	19.635	1341.795	1261.193
789.911	19.909	1340.284	1261.629
790.926	20.059	1338.958	1261.329
791.940	19.896	1338.083	1259.156
792.955	20.046	1336.783	1258.877
793.969	20.124	1335.292	1257.892
794.984	20.130	1334.802	1257.329
795.999	20.091	1334.791	1256.879
797.013	20.085	1332.512	1254.542
798.028	20.233	1330.753	1253.809
799.042	20.065	1331.049	1252.716
800.057	20.337	1329.705	1253.280
801.072	20.298	1328.404	1251.617
802.086	20.161	1327.756	1249.869
803.101	20.181	1326.901	1249.054
804.115	20.279	1325.751	1248.533
805.130	20.289	1324.052	1246.852
806.145	20.379	1322.314	1245.721
807.159	20.270	1321.218	1243.750
808.174	20.100	1320.115	1241.340
809.188	20.069	1319.160	1240.067
810.203	19.824	1317.234	1236.351
811.218	19.859	1315.451	1234.783
812.232	19.504	1314.228	1230.940
813.247	19.401	1313.453	1229.328
814.261	19.603	1313.178	1230.372
815.276	20.036	1311.784	1232.012
816.291	20.112	1311.675	1232.309
817.305	20.214	1310.606	1231.885
818.320	20.230	1309.619	1230.924
819.334	20.071	1308.366	1228.467
820.349	20.221	1306.955	1228.063
821.364	20.466	1304.946	1227.769
822.378	20.278	1303.844	1225.252
823.393	20.158	1302.783	1223.254
824.407	20.388	1300.954	1223.020
825.422	20.301	1300.510	1221.840
826.437	20.288	1299.604	1220.751
827.451	20.103	1297.827	1217.628
828.466	19.538	1296.043	1211.827
829.480	19.534	1294.322	1210.039
830.495	19.546	1293.044	1208.786
831.509	19.984	1292.353	1211.077
832.524	20.066	1291.959	1211.140
833.539	20.159	1291.059	1210.804
834.553	20.293	1290.054	1210.654
835.568	20.382	1289.054	1210.197
836.582	20.258	1287.967	1208.164
837.597	20.344	1286.475	1207.219
838.612	20.318	1285.107	1205.610
839.626	20.341	1284.230	1204.804
840.641	20.114	1283.210	1202.116
841.655	19.915	1282.175	1199.619
842.670	19.714	1280.644	1196.643
843.685	19.466	1279.160	1193.388
844.699	19.763	1278.061	1194.281
845.714	19.998	1277.513	1195.258
846.728	20.119	1276.680	1195.176
847.743	20.310	1275.755	1195.492
848.758	20.371	1275.139	1195.190
849.772	20.325	1273.987	1193.653
850.787	20.325	1272.522	1192.136
851.801	20.316	1271.058	1190.561
852.816	20.177	1270.458	1188.896
853.831	20.055	1269.142	1186.681
854.845	20.219	1266.639	1185.329
855.860	20.105	1264.389	1182.296
856.874	19.793	1264.495	1180.118
857.889	19.700	1263.212	1178.142
858.904	19.672	1260.479	1175.257
859.918	19.259	1258.447	1170.407
860.933	19.251	1257.468	1169.302
861.947	19.586	1257.105	1171.109
862.962	19.565	1256.551	1170.310
863.977	19.722	1255.232	1170.006
864.991	19.924	1255.203	1171.213
866.006	19.992	1254.680	1171.051
867.020	20.310	1253.239	1171.721
868.035	20.200	1251.890	1169.574
869.049	20.386	1251.110	1169.965
870.064	20.536	1250.491	1170.261
871.079	20.411	1249.656	1168.492
872.093	20.242	1249.376	1166.952
873.108	20.394	1247.330	1165.926
874.122	20.193	1246.581	1163.732
875.137	19.867	1246.587	1161.394
876.152	19.971	1244.975	1160.460
877.166	19.901	1243.745	1158.698
878.181	19.973	1242.769	1158.134
879.195	20.205	1242.195	1159.022
880.210	20.227	1241.729	1158.593
881.225	20.225	1240.758	1157.538
882.239	20.480	1239.394	1157.837
883.254	20.402	1238.565	1156.398
884.268	20.442	1237.274	1155.327
885.283	20.595	1235.668	1154.705
886.298	20.227	1234.775	1151.280
887.312	20.507	1233.371	1151.700
888.327	20.410	1231.976	1149.611
889.341	20.486	1230.906	1148.982
890.356	20.186	1230.747	1146.702
891.371	20.292	1230.650	1147.176
892.385	20.199	1229.467	1145.321
893.400	20.181	1228.549	1144.208
894.414	20.174	1226.611	1142.223
895.429	19.956	1224.492	1138.669
896.444	19.394	1222.518	1132.992
897.458	19.145	1221.348	1130.123
898.473	19.359	1221.461	1131.510
899.487	19.799	1221.062	1133.900
900.502	20.311	1219.629	1135.807
901.517	20.227	1218.933	1134.467
902.531	20.188	1218.633	1133.796
903.546	20.318	1217.933	1133.863
904.560	20.239	1217.755	1133.042
905.575	20.522	1216.914	1133.983
906.589	20.387	1215.795	1131.920
907.604	20.515	1214.614	1131.518
