DTS Sentinel unit serial number:	SN409020Multiplexer serial number:	ORYXHardware model number:	OX4-SRSoftware version number:	ORYX F/W v3.00 Oryx Data Collector v3.7.2.0data status	okinstallation	HaddamTimeLapsedifferential loss correction	single-endedforward channel	channel 3reverse channel	N/Adate	2011/06/22time	08:36:17forward acquisition time	30.00reverse acquisition time	0.00gamma	498.7831k internal	0.1785k external	0.1785temperature offset calibration	1.0074default loss term (dB/km)	0.3790temperature slope calibration	1.3530multiplexer offset coefficient	1.0000multiplexer slope coefficient	1.0000fibre end	0.00T internal ref (°C)	26.22T ext. ref 1 (°C)	23.87T ext. ref 2 (°C)	0.17length (m)	temperature (°C)	Stokes	anti-Stokes-747.200	-200.000	0.011	-0.195
-746.185	412.284	-0.048	0.133
-745.171	240.660	-0.058	-0.127
-744.156	-129.277	0.465	0.084
-743.142	-109.057	-0.335	-0.092
-742.127	-200.000	0.041	0.678
-741.112	800.000	0.061	0.296
-740.098	-200.000	0.008	0.584
-739.083	-60.734	0.492	0.271
-738.069	800.000	0.059	0.215
-737.054	-3.768	-0.173	-0.157
-736.039	111.936	0.278	-0.438
-735.025	-76.183	-0.576	-0.263
-734.010	223.291	0.134	0.283
-732.996	463.663	0.121	0.353
-731.981	-4.773	-0.259	-0.233
-730.966	-200.000	0.007	-0.307
-729.952	135.994	-0.151	-0.258
-728.937	77.546	0.163	0.227
-727.923	126.713	-0.264	0.436
-726.908	56.575	-0.332	-0.421
-725.894	-88.993	-0.291	0.112
-724.879	800.000	-0.055	-0.283
-723.864	800.000	-0.096	0.455
-722.850	37.950	-0.097	0.112
-721.835	-45.738	0.152	0.098
-720.821	-61.065	0.111	-0.061
-719.806	-43.935	0.288	0.188
-718.791	-19.420	-0.383	-0.308
-717.777	-200.000	0.028	0.490
-716.762	-52.561	0.295	-0.177
-715.748	800.000	0.061	0.283
-714.733	800.000	0.064	0.316
-713.718	17.628	0.167	-0.173
-712.704	-200.000	0.065	0.541
-711.689	800.000	-0.047	0.233
-710.675	-69.432	-0.136	-0.068
-709.660	-200.000	0.021	0.134
-708.645	-21.084	-0.362	0.288
-707.631	-25.528	0.300	0.230
-706.616	-200.000	-0.024	-0.437
-705.602	-119.514	-0.046	0.010
-704.587	-48.186	-0.431	-0.270
-703.572	-200.000	-0.449	0.001
-702.558	800.000	-0.097	0.396
-701.543	272.757	-0.111	-0.256
-700.529	105.023	-0.086	-0.132
-699.514	800.000	-0.059	-0.311
-698.499	-69.826	-0.308	0.152
-697.485	-24.020	0.203	-0.158
-696.470	-89.592	0.198	-0.075
-695.456	-161.602	0.707	-0.046
-694.441	-200.000	-0.178	0.000
-693.426	-200.000	0.027	0.235
-692.412	9.376	-0.211	-0.208
-691.397	-74.278	-0.488	-0.228
-690.383	-11.603	-0.344	0.294
-689.368	-19.221	-0.405	0.327
-688.354	-168.558	0.448	0.022
-687.339	489.346	0.073	0.218
-686.324	-97.603	0.529	-0.177
-685.310	96.949	-0.337	-0.503
-684.295	-68.385	0.070	-0.035
-683.281	-52.047	-0.117	-0.071
-682.266	172.604	0.151	-0.284
-681.251	-200.000	-0.004	-0.373
-680.237	70.112	0.139	-0.187
-679.222	-128.094	0.271	-0.050
-678.208	-159.415	-0.388	-0.028
-677.193	391.371	0.008	-0.021
-676.178	-62.161	-0.100	0.054
-675.164	-67.272	-0.030	-0.015
-674.149	800.000	-0.267	-1.002
-673.135	-137.119	0.142	-0.021
-672.120	-122.625	-0.311	-0.065
-671.105	-1.613	-0.148	-0.136
-670.091	538.625	-0.165	0.513
-669.076	-87.092	-0.207	0.082
-668.062	14.377	-0.148	-0.150
-667.047	87.294	0.178	0.256
-666.032	-186.288	0.390	0.007
-665.018	-12.367	0.268	0.227
-664.003	-200.000	-0.016	0.470
-662.989	-200.000	0.025	-0.459
-661.974	-43.211	0.065	-0.042
-660.959	-200.000	-0.010	-0.213
-659.945	-138.087	-0.126	-0.018
-658.930	-99.607	-0.252	0.082
-657.916	148.793	-0.264	0.465
-656.901	-10.599	0.202	-0.174
-655.886	-99.411	-0.173	0.056
-654.872	-120.205	-0.343	-0.076
-653.857	-174.900	0.228	0.008
-652.843	-83.632	-0.258	-0.106
-651.828	-200.000	-0.039	0.495
-650.814	-140.630	0.366	0.049
-649.799	-122.583	0.065	-0.014
-648.784	220.476	0.063	0.132
-647.770	722.093	0.072	-0.250
-646.755	759.370	-0.075	-0.264
-645.741	-200.000	-0.049	-0.418
-644.726	-200.000	0.011	0.359
-643.711	111.472	-0.012	-0.019
-642.697	-55.574	0.235	0.136
-641.682	-200.000	0.021	-0.261
-640.668	210.873	0.162	0.332
-639.653	-122.257	-0.389	-0.082
-638.638	663.084	-0.118	0.397
-637.624	-200.000	-0.004	0.121
-636.609	-0.259	0.382	-0.352
-635.595	-12.050	-0.240	-0.204
-634.580	-117.536	-0.286	0.066
-633.565	800.000	0.100	0.372
-632.551	-127.115	-0.193	-0.036
-631.536	-18.353	-0.286	0.231
-630.522	18.630	-0.068	0.071
-629.507	-30.915	0.217	0.159
-628.492	-13.158	-0.627	0.528
-627.478	800.000	-0.037	-0.190
-626.463	44.041	0.150	0.178
-625.449	625.758	0.125	0.410
-624.434	-91.525	0.529	0.195
-623.419	800.000	0.026	-0.096
-622.405	114.299	-0.090	0.143
-621.390	-45.942	0.343	-0.219
-620.376	800.000	-0.075	0.372
-619.361	-57.829	0.165	0.093
-618.346	800.000	0.112	-0.482
-617.332	40.967	-0.101	0.118
-616.317	282.134	-0.141	-0.328
-615.303	-136.824	-0.504	-0.074
-614.288	34.982	-0.076	0.086
-613.273	-85.390	0.601	0.242
-612.259	108.967	0.089	-0.138
-611.244	-7.203	-0.111	-0.098
-610.230	-122.808	-0.126	-0.026
-609.215	62.916	0.106	0.138
-608.201	-200.000	-0.052	0.494
-607.186	-1.718	-0.206	0.188
-606.171	-58.273	-0.510	-0.287
-605.157	-181.553	0.344	0.008
-604.142	-108.094	0.240	-0.067
-603.128	101.970	-0.307	-0.465
-602.113	-89.110	0.339	0.129
-601.098	-200.000	0.013	0.217
-600.084	-95.248	0.218	-0.076
-599.069	-93.360	0.254	-0.091
-598.055	-200.000	0.009	-0.276
-597.040	-22.425	0.306	0.240
-596.025	421.767	-0.045	0.125
-595.011	-200.000	0.011	0.252
-593.996	800.000	-0.044	-0.163
-592.982	-162.773	-0.455	-0.028
-591.967	-200.000	-0.048	0.589
-590.952	-73.723	0.407	0.191
-589.938	-65.232	0.731	-0.380
-588.923	-18.099	-0.376	0.304
-587.909	697.568	-0.051	-0.176
-586.894	-179.047	0.787	-0.022
-585.879	67.876	-0.263	-0.349
-584.865	141.767	-0.099	0.171
-583.850	-56.081	-0.613	0.352
-582.836	20.238	0.047	-0.049
-581.821	220.593	0.131	-0.273
-580.806	-72.340	-0.429	-0.205
-579.792	-86.117	0.278	0.110
-578.777	-111.611	-0.293	-0.076
-577.763	-35.565	0.090	0.063
-576.748	100.464	0.144	0.217
-575.733	35.872	0.254	0.290
-574.719	-147.920	-0.091	0.010
-573.704	394.140	-0.070	0.191
-572.690	-60.547	-0.468	-0.256
-571.675	-80.389	0.376	0.162
-570.661	327.937	0.178	-0.445
-569.646	374.300	-0.048	-0.128
-568.631	-160.074	-0.302	-0.021
-567.617	-118.856	-0.090	0.020
-566.602	800.000	-0.085	-0.342
-565.588	5.810	0.376	-0.360
-564.573	58.101	-0.551	-0.699
-563.558	-43.222	0.320	-0.209
-562.544	-65.875	-0.188	-0.097
-561.529	-200.000	-0.107	-0.650
-560.515	12.432	-0.179	-0.178
-559.500	-145.882	0.370	0.042
-558.485	-200.000	-0.099	0.588
-557.471	-156.565	0.422	-0.033
-556.456	-24.798	0.217	0.167
-555.442	308.452	0.103	-0.250
-554.427	88.458	0.348	0.500
-553.412	380.252	-0.156	0.415
-552.398	-29.347	0.283	0.209
-551.383	-200.000	0.026	0.208
-550.369	-125.783	-0.082	0.016
-549.354	-200.000	0.056	0.459
-548.339	372.800	0.236	0.624
-547.325	519.924	-0.153	0.466
-546.310	24.663	-0.044	-0.047
-545.296	-5.966	0.098	0.087
-544.281	89.295	0.100	0.144
-543.266	-171.840	0.459	-0.019
-542.252	-53.949	0.284	0.167
-541.237	800.000	0.180	1.002
-540.223	240.993	0.230	0.497
-539.208	-34.662	0.319	0.225
-538.193	145.253	-0.026	0.045
-537.179	-96.452	0.482	0.164
-536.164	82.697	0.230	-0.323
-535.150	-32.806	0.403	-0.289
-534.135	404.206	0.187	-0.510
-533.121	135.513	0.051	0.086
-532.106	-146.246	0.305	-0.034
-531.091	-134.232	0.277	0.044
-530.077	247.111	-0.166	0.364
-529.062	-200.000	0.027	-0.651
-528.048	800.000	-0.116	-0.430
-527.033	190.733	-0.138	-0.268
-526.018	-76.532	0.281	0.127
-525.004	-200.000	-0.034	-0.324
-523.989	800.000	0.075	-0.367
-522.975	-200.000	-0.025	0.295
-521.960	-28.825	-0.144	0.107
-520.945	-34.167	-0.385	0.273
-519.931	-200.000	-0.035	0.601
-518.916	478.116	-0.163	0.478
-517.902	39.427	0.354	-0.409
-516.887	46.446	-0.034	0.041
-515.872	-91.003	-0.560	-0.207
-514.858	-200.000	-0.050	0.335
-513.843	121.529	0.148	-0.238
-512.829	86.306	0.195	0.278
-511.814	19.923	0.248	0.258
-510.799	-178.991	-0.502	0.014
-509.785	-52.262	-0.528	0.315
-508.770	154.928	-0.197	0.351
-507.756	19.515	0.317	-0.329
-506.741	-87.529	-0.306	-0.119
-505.726	187.052	0.190	-0.366
-504.712	297.274	-0.109	-0.260
-503.697	-200.000	0.073	0.638
-502.683	-63.705	-0.382	-0.201
-501.668	557.389	-0.079	0.247
-500.653	800.000	0.077	-0.334
-499.639	-42.396	-0.483	0.317
-498.624	-200.000	0.023	-0.590
-497.610	800.000	-0.080	0.322
-496.595	-43.391	-0.146	0.095
-495.581	122.135	-0.238	-0.384
-494.566	-77.617	-0.207	-0.092
-493.551	-86.699	-0.289	-0.114
-492.537	-45.206	-0.378	0.242
-491.522	219.461	-0.263	0.544
-490.508	494.790	0.043	-0.129
-489.493	5.212	-0.067	-0.063
-488.478	-200.000	-0.004	0.372
-487.464	-102.233	0.140	0.043
-486.449	800.000	0.042	-0.159
-485.435	-12.566	-0.252	0.212
-484.420	-115.031	-0.413	0.100
-483.405	-99.028	0.231	-0.075
-482.391	131.469	0.160	0.265
-481.376	252.345	-0.184	-0.405
-480.362	-8.729	-0.107	-0.093
-479.347	-200.000	-0.027	-0.275
-478.332	-105.948	-0.495	0.143
-477.318	800.000	-0.180	-0.713
-476.303	-200.000	-0.010	0.101
-475.289	155.634	0.217	-0.386
-474.274	90.113	-0.168	0.243
-473.259	89.953	-0.165	0.238
-472.245	403.538	0.126	0.344
-471.230	-81.188	-0.170	0.072
-470.216	-61.761	-0.126	-0.068
-469.201	-59.370	0.396	0.219
-468.186	-50.985	0.563	-0.340
-467.172	-3.944	0.255	-0.228
-466.157	260.709	-0.110	0.246
-465.143	91.686	-0.243	0.353
-464.128	374.093	0.088	0.231
-463.113	33.398	0.257	0.288
-462.099	397.140	0.150	-0.405
-461.084	-93.528	0.344	0.122
-460.070	-92.606	-0.235	-0.085
-459.055	-102.744	-0.497	-0.152
-458.040	80.511	-0.156	-0.217
-457.026	-141.841	0.145	0.019
-456.011	-106.229	-0.526	0.151
-454.997	800.000	-0.071	-0.363
-453.982	-160.531	-0.504	-0.034
-452.968	-58.625	-0.182	-0.101
-451.953	-180.764	0.148	0.004
-450.938	800.000	0.080	0.454
-449.924	2.492	-0.275	0.257
-448.909	-200.000	0.053	0.431
-447.895	8.758	0.203	0.197
-446.880	-200.000	0.030	0.346
-445.865	-102.862	0.206	0.063
-444.851	-106.242	0.547	0.157
-443.836	87.225	-0.039	0.056
-442.822	-71.847	0.490	-0.234
-441.807	170.901	-0.254	-0.471
-440.792	718.685	-0.026	-0.089
-439.778	196.836	-0.149	0.293
-438.763	332.728	0.190	0.474
-437.749	-64.237	0.099	-0.052
-436.734	-159.782	0.058	-0.004
-435.719	52.347	0.127	-0.156
-434.705	496.871	0.062	0.185
-433.690	-94.927	-0.334	0.116
-432.676	-61.617	-0.537	0.289
-431.661	-140.598	0.358	0.047
-430.646	-147.845	0.223	0.024
-429.632	189.299	-0.129	-0.249
-428.617	-52.986	-0.217	-0.128
-427.603	39.819	-0.337	0.390
-426.588	-143.306	0.323	0.039
-425.573	-200.000	0.037	-0.221
-424.559	712.418	0.109	-0.373
-423.544	-154.702	0.221	0.019
-422.530	-76.966	0.461	0.206
-421.515	60.098	-0.225	0.286
-420.500	-144.412	-0.188	0.022
-419.486	-59.992	0.210	0.115
-418.471	-189.047	-0.355	0.005
-417.457	-73.958	-0.191	-0.089
-416.442	800.000	-0.071	0.394
-415.428	15.340	-0.321	0.324
-414.413	74.351	-0.111	0.150
-413.398	-43.342	-0.116	0.075
-412.384	394.760	0.133	0.359
-411.369	800.000	0.150	-0.585
-410.355	181.561	0.143	0.271
-409.340	-87.200	-0.093	0.036
-408.325	3.876	0.119	-0.112
-407.311	8.026	0.437	-0.422
-406.296	-123.442	0.144	0.029
-405.282	662.737	-0.137	-0.458
-404.267	174.511	-0.057	-0.106
-403.252	26.477	0.191	0.205
-402.238	-173.254	-0.699	0.027
-401.223	118.115	0.166	-0.264
-400.209	-76.825	0.244	0.109
-399.194	-47.027	0.080	-0.050
-398.179	84.936	-0.282	-0.398
-397.165	35.732	-0.276	-0.312
-396.150	93.794	0.137	0.201
-395.136	-200.000	-0.051	-0.361
-394.121	-19.143	0.227	0.181
-393.106	-67.460	-0.292	-0.147
-392.092	96.041	0.106	0.155
-391.077	800.000	0.118	0.541
-390.063	-200.000	0.003	0.484
-389.048	-75.537	-0.638	0.290
-388.033	57.340	-0.215	0.269
-387.019	192.336	-0.284	0.553
-386.004	168.307	0.300	0.551
-384.990	-193.154	0.638	0.007
-383.975	-142.198	0.316	-0.040
-382.960	-43.200	-0.188	0.122
-381.946	15.862	-0.164	-0.166
-380.931	-200.000	-0.015	-0.159
-379.917	78.404	0.169	0.232
-378.902	-41.187	-0.360	-0.238
-377.888	-110.511	-0.191	0.050
-376.873	-90.735	0.435	0.160
-375.858	-26.223	0.041	0.031
-374.844	-45.420	-0.165	0.105
-373.829	149.879	-0.173	-0.302
-372.815	-191.003	0.391	0.005
-371.800	-163.305	-0.162	-0.010
-370.785	-127.156	-0.067	-0.013
-369.771	-110.445	0.458	0.121
-368.756	22.398	0.071	-0.074
-367.742	800.000	-0.078	0.414
-366.727	188.267	-0.073	-0.140
-365.712	416.091	0.169	-0.464
-364.698	-137.275	-0.044	-0.006
-363.683	106.341	-0.305	-0.464
-362.669	-78.962	-0.183	-0.080
-361.654	-174.869	-0.007	0.000
-360.639	-200.000	-0.000	-0.149
-359.625	628.198	-0.115	-0.376
-358.610	-200.000	0.007	-0.530
-357.596	92.152	0.166	-0.240
-356.581	-35.676	0.185	0.128
-355.566	-155.547	0.437	0.036
-354.552	0.859	0.419	-0.385
-353.537	800.000	-0.077	-0.314
-352.523	-78.383	-0.162	-0.071
-351.508	545.417	-0.157	-0.484
-350.493	-200.000	0.017	-0.420
-349.479	-106.001	-0.218	-0.062
-348.464	-26.434	0.254	-0.191
-347.450	328.476	0.128	0.316
-346.435	-84.353	-0.072	0.029
-345.420	129.123	0.133	0.218
-344.406	800.000	0.047	-0.244
-343.391	-166.824	-0.223	0.012
-342.377	-200.000	0.025	0.396
-341.362	391.944	0.072	-0.193
-340.348	-6.001	0.264	-0.232
-339.333	-177.906	-0.084	-0.003
-338.318	19.614	-0.158	-0.163
-337.304	187.048	0.057	-0.109
-336.289	63.366	0.092	0.118
-335.275	800.000	-0.066	0.312
-334.260	382.763	-0.104	-0.277
-333.245	800.000	0.024	0.103
-332.231	-18.679	0.157	-0.125
-331.216	-148.699	-0.202	-0.021
-330.202	-116.830	-0.181	0.042
-329.187	230.276	-0.067	-0.141
-328.172	-123.359	0.253	0.051
-327.158	-125.265	0.379	0.074
-326.143	-200.000	0.000	-0.192
-325.129	53.499	0.103	0.127
-324.114	114.870	-0.280	0.439
-323.099	-146.029	0.154	-0.017
-322.085	79.071	-0.038	-0.053
-321.070	562.817	0.146	0.454
-320.056	800.000	-0.103	0.537
-319.041	-25.147	-0.367	0.278
-318.026	81.494	0.081	-0.113
-317.012	-200.000	0.008	-0.064
-315.997	-200.000	0.025	0.252
-314.983	545.610	0.116	-0.358
-313.968	102.058	-0.360	-0.539
-312.953	800.000	-0.092	0.337
-311.939	17.768	-0.199	0.203
-310.924	-200.000	-0.002	0.222
-309.910	-52.600	0.164	0.097
-308.895	130.869	-0.225	-0.370
-307.880	439.604	0.095	-0.268
-306.866	-55.001	0.479	-0.276
-305.851	-148.128	0.511	0.054
-304.837	-59.541	0.152	-0.083
-303.822	-61.650	0.401	-0.215
-302.807	165.496	0.064	0.116
-301.793	292.309	-0.243	-0.569
-300.778	800.000	0.081	0.381
-299.764	52.575	0.289	0.353
-298.749	-31.933	0.331	-0.237
-297.735	15.388	-0.086	-0.087
-296.720	150.928	0.163	-0.285
-295.705	395.355	0.092	-0.248
-294.691	120.993	-0.223	-0.356
-293.676	-98.624	-0.266	-0.086
-292.662	-150.010	-0.452	-0.045
-291.647	68.873	-0.303	0.399
-290.632	-84.677	-0.444	0.178
-289.618	800.000	-0.110	-0.540
-288.603	-200.000	0.006	-0.869
-287.589	-7.856	0.303	-0.261
-286.574	800.000	-0.134	-0.516
-285.559	-117.505	-0.146	-0.034
-284.545	177.663	-0.071	0.133
-283.530	-200.000	-0.007	-0.236
-282.516	30.182	0.154	0.168
-281.501	-80.170	0.166	0.071
-280.486	165.950	-0.190	0.346
-279.472	-29.636	-0.187	-0.136
-278.457	-200.000	0.098	-0.661
-277.443	800.000	-0.058	-0.235
-276.428	-116.446	-0.099	0.023
-275.413	-30.586	0.266	0.193
-274.399	-200.000	-0.010	-0.285
-273.384	-121.148	0.326	-0.069
-272.370	800.000	-0.018	0.074
-271.355	-100.215	-0.354	-0.112
-270.340	800.000	-0.133	0.494
-269.326	52.084	-0.111	0.136
-268.311	131.636	-0.130	-0.215
-267.297	312.623	0.100	0.242
-266.282	739.375	0.021	-0.074
-265.267	-42.637	-0.164	0.107
-264.253	-180.947	0.179	-0.005
-263.238	-200.000	-0.033	-0.382
-262.224	-200.000	0.052	-0.460
-261.209	108.714	-0.260	0.397
-260.195	47.172	0.183	-0.218
-259.180	-174.717	0.065	0.002
-258.165	-129.084	-0.382	-0.068
-257.151	-114.476	0.185	0.045
-256.136	800.000	0.087	-0.456
-255.122	-182.516	-0.350	-0.008
-254.107	-49.716	-0.417	0.253
-253.092	643.982	-0.124	0.407
-252.078	40.460	0.070	-0.080
-251.063	-86.971	-0.295	-0.114
-250.049	-58.249	0.300	0.166
-249.034	309.939	-0.149	0.357
-248.019	-111.237	-0.192	-0.050
-247.005	64.924	0.128	0.165
-245.990	-110.663	-0.361	0.095
-244.976	-112.743	0.178	0.045
-243.961	-19.801	-0.327	-0.258
-242.946	214.567	-0.192	-0.389
-241.932	-124.396	-0.259	-0.051
-240.917	-89.007	0.130	-0.049
-239.903	-93.528	-0.576	-0.202
-238.888	33.799	0.232	-0.258
-237.873	21.319	0.218	0.227
-236.859	-35.053	0.404	0.281
-235.844	-41.033	-0.415	0.273
-234.830	124.165	0.131	0.211
-233.815	-6.460	0.312	0.272
-232.800	-123.798	-0.320	-0.064
-231.786	-200.000	-0.017	-0.130
-230.771	40.832	0.058	0.067
-229.757	191.428	0.228	0.440
-228.742	800.000	-0.041	-0.163
-227.727	-84.725	-0.098	0.039
-226.713	-12.261	-0.300	-0.250
-225.698	800.000	-0.101	-0.379
-224.684	-33.972	-0.256	-0.179
-223.669	-52.260	0.815	0.481
-222.655	-28.163	0.204	-0.151
-221.640	-33.252	0.282	0.199
-220.625	-90.524	0.206	-0.076
-219.611	-200.000	0.024	0.317
-218.596	127.635	0.096	0.156
-217.582	-164.258	0.335	0.019
-216.567	-200.000	0.065	-0.497
-215.552	-14.244	-0.244	-0.201
-214.538	-16.876	-0.376	0.303
-213.523	-165.356	0.315	-0.017
-212.509	243.033	-0.355	0.762
-211.494	-21.352	0.144	0.112
-210.479	-87.265	0.157	-0.061
-209.465	-10.934	0.283	0.238
-208.450	-200.000	-0.079	-0.539
-207.436	800.000	-0.021	-0.077
-206.421	-200.000	0.012	0.234
-205.406	-200.000	0.007	-0.298
-204.392	-35.373	-0.197	0.136
-203.377	-183.705	0.304	-0.006
-202.363	234.576	-0.226	0.476
-201.348	145.043	-0.129	-0.221
-200.333	149.090	-0.043	-0.074
-199.319	800.000	0.059	0.239
-198.304	6.205	-0.301	-0.284
-197.290	37.314	0.331	-0.375
-196.275	-200.000	-0.004	-0.052
-195.260	544.159	-0.047	0.145
-194.246	-160.102	0.301	0.021
-193.231	-14.658	0.108	-0.088
-192.217	-97.816	0.258	0.085
-191.202	-179.314	0.371	-0.010
-190.187	-100.616	0.414	-0.129
-189.173	-200.000	-0.108	-0.634
-188.158	124.890	-0.290	-0.466
-187.144	-72.368	-0.139	-0.065
-186.129	800.000	-0.059	-0.294
-185.114	86.244	-0.377	-0.530
-184.100	-200.000	0.299	0.001
-183.085	-200.000	0.053	-0.303
-182.071	-200.000	0.028	-0.544
-181.056	-11.562	-0.231	0.194
-180.042	236.294	-0.085	0.180
-179.027	-117.662	-0.350	0.080
-178.012	299.460	-0.145	-0.341
-176.998	-52.373	0.009	-0.005
-175.983	-50.286	0.288	-0.173
-174.969	-200.000	0.036	-0.423
-173.954	39.966	-0.380	-0.435
-172.939	172.080	-0.015	0.027
-171.925	-9.754	-0.465	0.394
-170.910	141.301	-0.333	-0.563
-169.896	-81.191	0.554	-0.232
-168.881	-153.369	-0.355	0.031
-167.866	-29.982	-0.155	0.113
-166.852	270.067	0.179	-0.403
-165.837	800.000	0.106	0.433
-164.823	-135.088	0.163	0.025
-163.808	742.086	-0.083	0.287
-162.793	624.786	0.207	0.668
-161.779	-26.746	0.505	0.375
-160.764	-164.533	-0.496	0.028
-159.750	-200.000	0.025	-0.379
-158.735	-20.380	0.147	0.115
-157.720	800.000	0.093	0.394
-156.706	-89.154	-0.135	-0.051
-155.691	-62.556	0.411	-0.216
-154.677	-6.235	-0.071	0.062
-153.662	-130.209	-0.135	0.023
-152.647	124.781	-0.163	-0.262
-151.633	-36.526	0.476	0.325
-150.618	-143.023	0.270	-0.033
-149.604	37.783	0.477	-0.540
-148.589	-70.929	-0.369	0.176
-147.574	-83.719	0.073	-0.029
-146.560	-200.000	-0.012	-0.172
-145.545	13.442	-0.032	-0.032
-144.531	-200.000	0.017	-0.250
-143.516	68.633	0.276	0.361
-142.502	-200.000	0.016	0.212
-141.487	-152.266	-0.252	0.023
-140.472	22.962	0.373	-0.390
-139.458	-200.000	0.046	0.375
-138.443	-48.485	0.412	-0.252
-137.429	81.920	0.153	-0.211
-136.414	22.321	0.067	0.070
-135.399	-29.991	0.083	0.060
-134.385	140.234	-0.185	0.311
-133.370	-158.728	-0.130	-0.009
-132.356	-200.000	0.255	-0.001
-131.341	437.811	0.246	0.687
-130.326	180.366	0.405	0.759
-129.312	553.034	0.034	0.106
-128.297	-136.701	0.148	-0.021
-127.283	-100.924	0.386	0.120
-126.268	-68.531	-0.209	0.103
-125.253	-67.179	-0.404	-0.201
-124.239	-125.695	0.616	-0.118
-123.224	2.124	0.029	-0.027
-122.210	10.421	-0.546	0.529
-121.195	58.994	-0.210	0.262
-120.180	11.646	-0.400	0.391
-119.166	-200.000	0.003	0.144
-118.151	162.703	-0.257	-0.460
-117.137	-200.000	0.043	0.359
-116.122	75.599	0.323	-0.434
-115.107	-200.000	0.004	-0.496
-114.093	-145.841	0.175	0.020
-113.078	-137.734	-0.247	0.035
-112.064	800.000	0.073	-0.363
-111.049	145.730	0.181	-0.309
-110.034	-193.844	0.307	-0.003
-109.020	-200.000	0.040	0.383
-108.005	88.540	0.128	0.182
-106.991	86.631	-0.273	-0.384
-105.976	286.905	-0.044	0.101
-104.962	-90.337	-0.155	0.057
-103.947	-77.918	0.241	0.105
-102.932	800.000	-0.051	0.194
-101.918	-66.560	-0.489	-0.245
-100.903	97.459	0.049	-0.072
-99.889	46.498	0.175	0.207
-98.874	18.960	-0.176	-0.179
-97.859	-106.817	-0.387	0.108
-96.845	126.834	0.081	-0.130
-95.830	-101.179	-0.291	0.090
-94.816	800.000	-0.055	-0.262
-93.801	-25.656	0.165	0.123
-92.786	-200.000	-0.023	-0.138
-91.772	800.000	-0.030	0.156
-90.757	-69.289	0.659	-0.321
-89.743	-13.829	0.147	0.121
-88.728	235.900	0.145	0.305
-87.713	-135.752	-0.314	-0.047
-86.699	-200.000	0.050	-0.363
-85.684	-80.719	0.274	-0.115
-84.670	59.862	-0.049	0.061
-83.655	-80.494	0.676	-0.285
-82.640	-29.896	0.146	-0.106
-81.626	-180.301	0.509	0.013
-80.611	800.000	0.069	0.287
-79.597	-200.000	0.086	-0.520
-78.582	-200.000	0.001	-0.317
-77.567	516.520	-0.083	-0.248
-76.553	12.795	0.335	-0.329
-75.538	185.013	-0.223	-0.422
-74.524	55.719	0.220	-0.271
-73.509	-75.161	-0.230	-0.104
-72.494	186.260	0.086	-0.163
-71.480	-93.726	-0.264	-0.092
-70.465	800.000	-0.037	-0.148
-69.451	-103.417	-0.557	-0.165
-68.436	-200.000	0.024	-0.491
-67.422	680.564	0.065	0.215
-66.407	-124.092	-0.223	-0.044
-65.392	72.793	0.152	-0.202
-64.378	800.000	-0.149	0.542
-63.363	-106.019	0.407	0.115
-62.349	-200.000	-0.012	0.374
-61.334	13.432	-2.263	-2.226
-60.319	31.956	0.985	1.077
-59.305	263.932	-3.124	-6.920
-58.290	42.474	3.635	4.197
-57.276	460.142	3.659	10.391
-56.261	-200.000	18.435	276.515
-55.246	406.916	1236.078	3327.937
-54.232	59.571	2817.719	3527.630
-53.217	70.583	2681.920	3522.666
-52.203	39.204	2413.906	2740.439
-51.188	34.541	2071.854	2295.786
-50.173	28.368	1952.171	2092.468
-49.159	27.096	1941.615	2066.545
-48.144	26.691	1937.068	2056.997
-47.130	26.488	1934.780	2052.173
-46.115	26.320	1933.347	2048.653
-45.100	26.344	1932.069	2047.500
-44.086	26.510	1930.302	2047.432
-43.071	26.461	1929.291	2045.722
-42.057	26.284	1928.170	2042.442
-41.042	26.450	1926.284	2042.248
-40.027	26.451	1924.934	2040.742
-39.013	26.457	1923.676	2039.394
-37.998	26.394	1921.897	2036.720
-36.984	26.281	1921.174	2034.589
-35.969	26.357	1919.568	2033.668
-34.954	26.331	1918.281	2031.932
-33.940	26.331	1917.787	2031.329
-32.925	26.272	1916.067	2028.754
-31.911	26.330	1914.970	2028.173
-30.896	26.328	1913.723	2026.745
-29.881	26.317	1911.553	2024.244
-28.867	26.368	1910.255	2023.357
-27.852	26.218	1909.220	2020.494
-26.838	26.287	1907.564	2019.441
-25.823	26.277	1905.991	2017.579
-24.809	26.238	1904.494	2015.485
-23.794	26.171	1904.309	2014.453
-22.779	26.165	1902.802	2012.711
-21.765	26.262	1901.184	2012.002
-20.750	26.254	1900.627	2011.246
-19.736	26.229	1898.761	2008.912
-18.721	26.089	1897.614	2006.055
-17.706	26.291	1896.368	2006.916
-16.692	26.029	1896.511	2004.067
-15.677	26.080	1895.210	2003.173
-14.663	26.162	1892.944	2001.618
-13.648	26.170	1892.085	2000.718
-12.633	26.072	1890.177	1997.532
-11.619	26.143	1888.808	1996.796
-10.604	26.130	1888.149	1995.878
-9.590	26.127	1886.641	1994.171
-8.575	26.154	1885.975	1993.681
-7.560	26.159	1884.610	1992.218
-6.546	26.093	1882.938	1989.634
-5.531	26.089	1882.119	1988.647
-4.517	26.095	1880.819	1987.263
-3.502	26.032	1880.365	1986.003
-2.487	26.123	1878.592	1985.059
-1.473	26.259	1875.499	1983.211
-0.458	26.526	1857.957	1967.502
0.556	23.734	2004.216	2077.212
1.571	23.194	2214.746	2288.118
2.586	24.513	2256.532	2348.462
3.600	24.658	2259.395	2353.079
4.615	24.624	2259.411	2352.365
5.629	24.643	2257.136	2349.969
6.644	24.658	2255.469	2348.143
7.659	24.700	2252.793	2345.636
8.673	24.752	2251.420	2344.610
9.688	24.409	2257.871	2346.514
10.702	22.978	2336.541	2408.388
11.717	21.817	2402.532	2459.752
12.731	11.011	2374.551	2279.427
13.746	1.862	2347.527	2125.409
14.761	0.399	2344.353	2101.784
15.775	0.192	2342.633	2097.093
16.790	0.113	2340.273	2093.627
17.804	0.111	2339.614	2092.760
18.819	0.172	2338.705	2092.544
19.834	0.152	2337.293	2090.753
20.848	0.171	2335.709	2089.355
21.863	0.211	2333.932	2088.070
22.877	0.193	2331.205	2085.128
23.892	0.130	2329.188	2082.208
24.907	0.139	2327.006	2080.136
25.921	0.090	2326.222	2078.499
26.936	0.158	2323.881	2077.103
27.950	0.189	2321.112	2074.807
28.965	0.104	2319.287	2071.754
29.980	0.128	2317.270	2070.034
30.994	0.287	2314.882	2069.854
32.009	5.791	2335.072	2164.161
33.023	20.062	2377.891	2403.957
34.038	27.029	2392.307	2515.625
35.053	28.326	2393.966	2535.131
36.067	28.144	2389.899	2527.991
37.082	27.450	2386.467	2514.427
38.096	27.297	2384.214	2509.625
39.111	27.699	2382.025	2512.598
40.126	28.285	2382.907	2521.335
41.140	29.037	2381.918	2530.383
42.155	28.492	2379.648	2520.137
43.169	28.044	2377.496	2511.384
44.184	28.635	2376.655	2518.339
45.199	28.433	2372.898	2511.277
46.213	28.136	2371.321	2505.220
47.228	28.080	2370.221	2502.983
48.242	27.983	2367.480	2498.467
49.257	28.340	2366.364	2501.885
50.271	28.694	2365.490	2505.519
51.286	28.848	2362.740	2504.421
52.301	28.687	2360.596	2499.642
53.315	26.905	2353.106	2467.087
54.330	23.879	2343.722	2415.691
55.344	22.614	2336.358	2390.579
56.359	22.478	2332.465	2384.458
57.374	22.358	2331.045	2381.097
58.388	22.400	2328.722	2379.002
59.403	22.533	2326.656	2378.418
60.417	22.904	2324.566	2381.028
61.432	23.090	2323.474	2382.139
62.447	23.071	2321.503	2379.576
63.461	23.017	2318.724	2375.715
64.476	22.998	2316.861	2373.266
65.490	23.320	2317.268	2377.744
66.505	24.048	2320.484	2390.580
67.520	25.801	2324.843	2418.476
68.534	27.756	2328.148	2448.009
69.549	29.020	2328.532	2465.163
70.563	29.657	2326.768	2471.565
71.578	29.481	2324.655	2466.662
72.593	29.313	2322.640	2461.970
73.607	29.237	2320.541	2458.435
74.622	29.271	2318.592	2456.525
75.636	29.058	2315.529	2450.135
76.651	28.952	2313.143	2445.908
77.666	29.146	2312.058	2447.061
78.680	29.507	2310.039	2449.448
79.695	29.602	2308.726	2449.025
80.709	29.946	2308.364	2452.924
81.724	30.000	2307.971	2452.933
82.739	29.668	2303.070	2443.019
83.753	29.331	2300.772	2435.825
84.768	29.364	2298.742	2433.812
85.782	29.045	2297.147	2427.610
86.797	29.067	2294.819	2425.152
87.812	28.849	2292.176	2419.177
88.826	28.741	2289.965	2415.128
89.841	28.989	2288.461	2416.531
90.855	29.354	2287.842	2420.405
91.870	29.048	2283.978	2411.995
92.884	28.821	2283.200	2407.896
93.899	28.843	2281.879	2406.502
94.914	27.934	2277.929	2390.109
95.928	25.052	2268.219	2341.831
96.943	23.896	2264.332	2322.377
97.957	26.508	2269.850	2362.081
98.972	28.244	2272.088	2386.891
99.987	28.418	2268.216	2384.821
101.001	28.285	2267.088	2381.607
102.016	28.712	2266.180	2385.948
103.030	28.988	2264.351	2387.338
104.045	29.297	2263.294	2389.966
105.060	29.488	2260.702	2389.425
106.074	29.279	2258.566	2384.167
107.089	28.939	2257.320	2378.142
108.103	29.138	2257.443	2380.582
109.118	29.165	2255.855	2378.962
110.133	29.200	2253.165	2376.297
111.147	29.720	2253.132	2382.717
112.162	29.782	2252.133	2382.175
113.176	29.254	2247.796	2370.485
114.191	29.260	2245.591	2367.950
115.206	29.425	2244.144	2368.275
116.220	29.378	2242.182	2365.312
117.235	29.253	2240.497	2361.644
118.249	29.227	2237.564	2357.934
119.264	29.422	2236.081	2358.590
120.279	29.463	2234.458	2357.129
121.293	29.417	2232.213	2353.887
122.308	29.383	2231.795	2352.724
123.322	29.469	2228.945	2350.546
124.337	28.449	2224.823	2332.869
125.352	25.589	2215.498	2286.327
126.366	24.710	2214.461	2273.755
127.381	27.269	2218.150	2309.984
128.395	28.616	2218.287	2327.031
129.410	29.042	2218.679	2332.603
130.424	29.522	2216.975	2336.631
131.439	29.403	2216.337	2334.173
132.454	29.296	2214.067	2330.146
133.468	29.458	2210.812	2328.486
134.483	29.127	2208.560	2321.649
135.497	28.671	2206.926	2313.879
136.512	28.924	2204.877	2314.654
137.527	29.148	2202.695	2314.913
138.541	29.179	2203.758	2316.141
139.556	28.839	2201.814	2309.533
140.570	29.033	2200.557	2310.387
141.585	29.353	2198.699	2312.197
142.600	29.259	2197.013	2308.964
143.614	28.955	2195.427	2303.185
144.629	29.276	2193.979	2305.434
145.643	29.112	2192.172	2301.197
146.658	29.042	2190.616	2298.413
147.673	29.257	2187.157	2297.197
148.687	28.980	2186.270	2292.523
149.702	28.695	2184.246	2286.559
150.716	28.357	2183.331	2281.091
151.731	28.671	2181.889	2283.243
152.746	29.274	2182.209	2290.837
153.760	28.046	2177.288	2270.081
154.775	24.829	2166.203	2218.241
155.789	23.468	2162.270	2197.016
156.804	26.167	2167.814	2236.032
157.819	28.103	2170.484	2262.616
158.833	28.555	2167.996	2265.368
159.848	28.847	2166.499	2267.144
160.862	29.262	2165.754	2271.240
161.877	29.486	2165.811	2273.803
162.892	29.378	2165.283	2271.637
163.906	29.357	2162.922	2268.626
164.921	29.412	2160.263	2266.246
165.935	29.476	2159.513	2265.983
166.950	29.347	2157.807	2262.325
167.964	29.197	2153.741	2255.946
168.979	29.135	2153.191	2254.336
169.994	29.377	2151.899	2255.697
171.008	29.528	2150.541	2255.851
172.023	29.396	2149.089	2252.441
173.037	29.456	2147.566	2251.307
174.052	29.428	2144.798	2247.799
175.067	29.213	2143.034	2243.052
176.081	28.986	2142.310	2239.247
177.096	29.313	2141.209	2241.828
178.110	28.962	2139.653	2235.642
179.125	28.948	2137.477	2232.930
180.140	29.169	2137.222	2235.086
181.154	29.250	2134.959	2233.442
182.169	28.928	2133.796	2228.042
183.183	27.885	2127.681	2208.719
184.198	24.602	2117.725	2158.328
185.213	23.962	2116.753	2149.307
186.227	27.267	2123.255	2195.828
187.242	28.958	2126.125	2219.063
188.256	29.121	2125.659	2220.282
189.271	29.563	2124.784	2224.463
190.286	29.751	2122.037	2223.592
191.300	29.513	2120.159	2218.477
192.315	29.439	2118.523	2215.613
193.329	29.381	2116.771	2212.813
194.344	29.394	2114.205	2210.024
195.359	29.463	2113.674	2210.036
196.373	29.546	2113.080	2210.148
197.388	29.480	2110.299	2206.177
198.402	29.376	2107.108	2201.336
199.417	29.291	2104.866	2197.709
200.432	29.202	2103.457	2194.911
201.446	29.303	2103.039	2195.414
202.461	29.542	2101.070	2195.964
203.475	29.296	2099.293	2190.900
204.490	29.061	2096.898	2185.329
205.504	28.958	2094.440	2181.280
206.519	28.587	2092.079	2174.147
207.534	28.287	2089.880	2168.031
208.548	28.439	2088.911	2168.571
209.563	28.623	2087.125	2168.641
210.577	28.340	2084.716	2162.526
211.592	28.461	2083.660	2162.603
212.607	27.089	2078.574	2140.833
213.621	23.835	2068.953	2092.232
214.636	23.787	2071.074	2093.556
215.650	27.036	2076.866	2137.671
216.665	28.266	2077.327	2152.438
217.680	28.527	2076.298	2154.195
218.694	28.951	2075.218	2157.816
219.709	28.941	2073.786	2155.958
220.723	28.836	2071.770	2152.361
221.738	28.861	2069.686	2150.234
222.753	28.868	2067.519	2147.809
223.767	29.058	2066.748	2148.979
224.782	28.811	2063.974	2142.939
225.796	28.669	2063.502	2140.533
226.811	28.738	2061.912	2139.437
227.826	29.163	2061.157	2143.363
228.840	29.343	2059.809	2143.817
229.855	29.202	2059.166	2141.246
230.869	29.340	2057.649	2141.019
231.884	29.504	2055.503	2140.445
232.899	29.385	2053.732	2136.953
233.913	29.362	2053.219	2135.896
234.928	29.407	2051.952	2134.845
235.942	29.384	2050.827	2133.150
236.957	29.480	2048.835	2131.943
237.972	29.470	2048.276	2130.988
238.986	29.594	2047.217	2131.063
240.001	29.622	2046.008	2129.874
241.015	29.171	2042.412	2120.666
242.030	28.167	2038.229	2104.462
243.045	25.270	2027.747	2060.023
244.059	24.618	2027.697	2052.205
245.074	27.878	2033.022	2094.999
246.088	29.127	2032.991	2109.110
247.103	28.866	2031.729	2104.550
248.117	29.081	2031.215	2106.229
249.132	29.475	2030.836	2110.117
250.147	29.567	2028.553	2108.549
251.161	29.192	2025.754	2101.094
252.176	28.858	2022.967	2094.123
253.190	27.918	2017.808	2077.792
254.205	26.609	2013.904	2058.573
255.220	26.572	2012.149	2056.115
256.234	26.817	2012.455	2058.976
257.249	26.915	2010.963	2058.324
258.263	26.923	2008.953	2056.103
259.278	26.453	2007.379	2048.904
260.293	26.028	2005.418	2041.823
261.307	27.153	2006.901	2055.891
262.322	28.552	2008.182	2072.858
263.336	28.859	2006.004	2073.840
264.351	28.726	2004.547	2070.576
265.366	28.750	2003.857	2069.893
266.380	28.815	2002.501	2068.977
267.395	28.517	2000.496	2063.288
268.409	28.531	1998.978	2061.637
269.424	28.802	1998.142	2063.587
270.439	28.937	1996.770	2063.446
271.453	27.785	1990.491	2043.747
272.468	24.393	1981.404	1996.106
273.482	23.902	1981.830	1990.774
274.497	26.929	1986.659	2029.461
275.512	28.554	1986.088	2046.881
276.526	28.718	1984.008	2046.328
277.541	28.613	1983.270	2044.147
278.555	28.642	1981.572	2042.483
279.570	28.369	1978.621	2036.146
280.585	28.280	1979.009	2035.302
281.599	28.750	1977.444	2038.700
282.614	28.144	1974.203	2028.362
283.628	26.609	1969.652	2006.355
284.643	26.276	1967.959	2000.688
285.657	26.454	1966.385	2000.834
286.672	26.229	1964.283	1995.947
287.687	25.857	1962.858	1990.131
288.701	25.826	1960.224	1986.881
289.716	25.703	1958.692	1983.726
290.730	25.695	1956.503	1981.192
291.745	25.958	1956.127	1983.479
292.760	26.116	1955.628	1984.475
293.774	26.610	1956.981	1991.081
294.789	27.639	1958.316	2003.573
295.803	28.557	1958.025	2013.167
296.818	28.835	1958.285	2016.255
297.833	29.258	1956.977	2019.325
298.847	29.378	1955.260	2018.635
299.862	29.395	1954.057	2017.335
300.876	28.326	1948.212	1999.338
301.891	25.033	1938.471	1953.087
302.906	24.411	1940.338	1947.916
303.920	28.001	1946.337	1993.132
304.935	29.265	1946.127	2006.528
305.949	29.063	1944.466	2002.365
306.964	29.257	1943.573	2003.328
307.979	28.891	1939.557	1994.953
308.993	27.515	1934.990	1975.031
310.008	26.628	1931.450	1961.538
311.022	26.442	1928.644	1956.427
312.037	26.350	1927.131	1953.662
313.052	25.913	1923.905	1945.418
314.066	25.477	1921.096	1937.615
315.081	25.138	1920.702	1933.313
316.095	24.966	1918.403	1928.909
317.110	24.958	1916.513	1926.692
318.125	25.340	1916.889	1930.967
319.139	25.788	1916.769	1935.453
320.154	26.284	1915.943	1939.743
321.168	26.414	1915.173	1940.140
322.183	27.202	1916.104	1949.346
323.197	28.248	1917.162	1961.459
324.212	28.342	1915.846	1960.882
325.227	28.368	1915.107	1960.180
326.241	28.678	1912.390	1960.488
327.256	28.815	1912.994	1962.342
328.270	28.706	1911.282	1959.181
329.285	28.468	1910.657	1955.755
330.300	27.351	1906.646	1939.459
331.314	24.218	1897.042	1896.005
332.329	24.100	1897.453	1894.931
333.343	27.438	1902.940	1935.926
334.358	28.922	1903.162	1951.766
335.373	28.674	1900.929	1946.601
336.387	28.698	1899.815	1945.474
337.402	28.935	1898.717	1946.644
338.416	28.928	1896.346	1943.909
339.431	28.906	1894.899	1941.956
340.446	28.847	1892.932	1939.084
341.460	27.540	1887.416	1919.369
342.475	25.769	1882.285	1895.208
343.489	25.202	1879.907	1886.590
344.504	25.037	1878.410	1883.127
345.519	25.117	1877.334	1882.667
346.533	25.240	1875.203	1881.592
347.548	25.198	1874.732	1880.456
348.562	25.787	1873.821	1885.521
349.577	26.105	1872.699	1887.506
350.592	25.953	1872.640	1885.621
351.606	26.160	1871.463	1886.392
352.621	26.144	1871.374	1885.899
353.635	26.746	1871.041	1891.663
354.650	27.251	1870.191	1895.868
355.665	27.751	1870.327	1901.012
356.679	28.776	1870.404	1911.588
357.694	29.181	1870.697	1915.903
358.708	29.432	1869.064	1916.622
359.723	28.129	1863.874	1897.493
360.738	24.704	1854.991	1852.619
361.752	24.813	1856.469	1855.003
362.767	27.884	1860.749	1891.085
363.781	28.570	1860.430	1897.666
364.796	28.448	1858.835	1894.541
365.810	28.545	1858.376	1894.856
366.825	28.769	1856.750	1895.298
367.840	28.925	1856.297	1896.222
368.854	28.790	1854.686	1892.956
369.869	27.745	1850.766	1877.915
370.883	26.693	1846.785	1862.787
371.898	25.792	1843.086	1849.539
372.913	25.135	1840.390	1839.838
373.927	25.257	1838.239	1838.722
374.942	25.115	1836.495	1835.304
375.956	24.952	1835.067	1831.981
376.971	24.926	1831.880	1828.309
377.986	24.549	1830.842	1823.185
379.000	25.002	1832.243	1829.016
380.015	27.004	1835.298	1852.397
381.029	28.441	1835.031	1866.631
382.044	28.645	1834.275	1867.725
383.059	28.926	1833.429	1869.507
384.073	28.810	1832.135	1866.784
385.088	28.391	1829.783	1859.892
386.102	28.421	1827.918	1858.077
387.117	28.293	1826.750	1855.362
388.132	28.503	1826.273	1856.796
389.146	27.792	1823.032	1846.054
390.161	24.545	1815.168	1804.938
391.175	24.173	1813.716	1799.508
392.190	27.259	1816.821	1833.702
393.205	28.287	1817.518	1844.603
394.219	28.636	1816.735	1847.113
395.234	28.785	1815.977	1847.627
396.248	28.514	1813.554	1842.211
397.263	28.614	1810.936	1840.338
398.278	28.497	1810.209	1838.196
399.292	28.309	1809.006	1834.866
400.307	28.356	1807.355	1833.440
401.321	27.965	1805.616	1827.526
402.336	26.311	1799.641	1804.671
403.350	25.053	1795.342	1787.541
404.365	25.206	1794.395	1787.917
405.380	25.382	1793.255	1788.332
406.394	25.238	1792.959	1786.377
407.409	25.341	1791.784	1786.024
408.423	25.548	1790.011	1786.111
409.438	25.898	1790.483	1789.860
410.453	26.764	1791.912	1799.726
411.467	27.388	1791.210	1805.023
412.482	27.766	1790.778	1808.143
413.496	28.559	1791.686	1816.739
414.511	28.628	1789.929	1815.423
415.526	28.871	1787.322	1814.980
416.540	29.236	1786.186	1817.226
417.555	28.755	1784.377	1810.400
418.569	28.214	1783.415	1803.851
419.584	28.486	1784.636	1807.569
420.599	28.757	1785.016	1810.418
421.613	28.891	1782.857	1809.336
422.628	28.932	1781.318	1807.969
423.642	29.024	1780.645	1807.977
424.657	28.778	1778.621	1803.281
425.672	28.363	1775.646	1795.953
426.686	28.708	1774.858	1798.338
427.701	28.845	1775.070	1799.688
428.715	29.026	1774.065	1800.237
429.730	29.361	1772.248	1801.463
430.745	29.298	1769.720	1798.064
431.759	27.934	1765.341	1780.046
432.774	25.931	1760.823	1755.693
433.788	24.859	1757.640	1741.829
434.803	24.499	1757.075	1737.538
435.818	24.547	1756.375	1737.109
436.832	24.617	1755.897	1737.114
437.847	23.587	1747.079	1718.161
438.861	13.507	1720.379	1594.612
439.876	2.571	1700.020	1470.484
440.890	0.355	1694.711	1444.383
441.905	0.098	1694.217	1441.317
442.920	0.161	1692.487	1440.277
443.934	0.089	1690.998	1438.153
444.949	0.169	1689.698	1437.636
445.963	0.202	1688.592	1436.848
446.978	0.083	1688.368	1435.341
447.993	0.176	1686.310	1434.312
449.007	0.189	1684.575	1432.784
450.022	0.273	1682.368	1431.544
451.036	0.202	1681.168	1429.669
452.051	0.825	1683.829	1437.712
453.066	9.184	1705.261	1536.464
454.080	19.963	1723.463	1656.902
455.095	22.618	1728.037	1686.666
456.109	23.227	1728.880	1693.146
457.124	23.155	1727.291	1690.695
458.139	23.224	1726.968	1690.837
459.153	23.084	1725.504	1687.855
460.168	23.180	1723.237	1686.355
461.182	23.241	1722.524	1686.038
462.197	23.367	1720.833	1685.387
463.212	23.639	1719.452	1686.435
464.226	23.630	1719.077	1685.777
465.241	23.645	1717.377	1684.050
466.255	23.465	1715.658	1680.453
467.270	23.523	1713.944	1679.125
468.285	23.654	1714.405	1680.620
469.299	23.638	1712.725	1678.618
470.314	23.574	1710.776	1675.902
471.328	23.555	1709.361	1674.134
472.343	23.429	1708.142	1671.548
473.358	23.382	1706.048	1668.854
474.372	23.146	1703.920	1664.336
475.387	23.262	1703.603	1664.922
476.401	23.138	1701.776	1661.767
477.416	22.880	1699.821	1657.233
478.430	22.783	1698.938	1655.259
479.445	23.051	1698.016	1656.685
480.460	23.268	1697.237	1657.770
481.474	23.213	1696.010	1655.855
482.489	23.002	1694.302	1652.004
483.503	22.831	1691.858	1647.820
484.518	22.722	1690.399	1645.183
485.533	22.745	1688.237	1643.091
486.547	22.675	1687.001	1641.040
487.562	22.262	1685.376	1635.403
488.576	22.397	1684.548	1635.671
489.591	22.464	1682.846	1634.439
490.606	22.652	1682.576	1635.743
491.620	22.774	1681.421	1635.552
492.635	22.517	1678.631	1630.254
493.649	22.236	1676.570	1625.451
494.664	22.653	1677.846	1630.369
495.679	23.461	1677.111	1636.962
496.693	23.433	1676.182	1635.600
497.708	23.356	1674.367	1632.918
498.722	22.981	1672.975	1627.889
499.737	23.056	1671.378	1626.842
500.752	23.381	1669.928	1628.237
501.766	23.570	1669.370	1629.236
502.781	23.416	1667.112	1625.427
503.795	23.434	1665.979	1624.292
504.810	23.272	1665.508	1622.147
505.825	23.199	1664.208	1620.010
506.839	23.174	1662.989	1618.404
507.854	23.035	1661.700	1615.678
508.868	22.917	1659.288	1612.055
509.883	22.801	1658.080	1609.629
510.898	22.577	1656.956	1606.286
511.912	22.727	1655.402	1605.965
512.927	22.868	1653.928	1605.629
513.941	22.728	1652.758	1603.027
514.956	23.005	1651.266	1603.910
515.971	22.835	1650.587	1601.507
516.985	22.843	1649.384	1600.228
518.000	22.867	1648.017	1598.921
519.014	22.466	1646.629	1593.741
520.029	22.477	1644.416	1591.511
521.043	22.585	1643.009	1590.933
522.058	22.734	1642.864	1591.952
523.073	22.727	1641.690	1590.567
524.087	22.481	1639.653	1586.172
525.102	22.432	1639.215	1585.114
526.116	23.206	1638.877	1591.598
527.131	23.390	1638.209	1592.423
528.146	23.101	1635.827	1587.307
529.160	22.792	1634.890	1583.422
530.175	22.571	1633.902	1580.282
531.189	22.623	1632.476	1579.191
532.204	22.461	1631.033	1576.143
533.219	22.692	1629.873	1576.909
534.233	22.961	1629.138	1578.428
535.248	22.626	1627.188	1573.341
536.262	21.883	1625.683	1565.043
537.277	21.850	1623.859	1562.797
538.292	21.950	1622.943	1562.624
539.306	22.102	1621.222	1562.142
540.321	21.890	1619.405	1558.308
541.335	22.017	1617.814	1557.722
542.350	22.019	1615.987	1555.802
543.365	22.010	1614.308	1553.914
544.379	21.928	1612.751	1551.501
545.394	21.880	1612.244	1550.400
546.408	22.178	1612.665	1553.266
547.423	22.847	1612.022	1558.400
548.438	22.940	1611.040	1558.089
549.452	22.710	1609.340	1554.220
550.467	22.556	1607.918	1551.298
551.481	22.644	1607.203	1551.204
552.496	22.493	1606.214	1548.725
553.511	22.086	1604.778	1543.567
554.525	22.283	1603.187	1543.586
555.540	22.258	1602.443	1542.463
556.554	22.262	1600.286	1540.241
557.569	22.303	1599.499	1539.663
558.583	22.447	1598.285	1539.571
559.598	22.418	1598.289	1539.135
560.613	22.490	1596.076	1537.453
561.627	22.129	1594.768	1532.843
562.642	21.986	1592.779	1529.495
563.656	21.625	1591.273	1524.704
564.671	21.605	1589.991	1523.124
565.686	21.700	1588.482	1522.327
566.700	22.006	1587.663	1524.029
567.715	22.183	1586.213	1523.994
568.729	22.143	1586.147	1523.400
569.744	22.243	1584.238	1522.254
570.759	22.297	1582.643	1521.015
571.773	22.162	1581.744	1518.792
572.788	21.977	1579.993	1515.325
573.802	21.993	1577.948	1513.316
574.817	21.803	1576.192	1509.810
575.832	21.576	1574.963	1506.490
576.846	21.736	1574.452	1507.207
577.861	22.240	1573.225	1510.196
578.875	22.144	1572.789	1508.770
579.890	21.963	1571.277	1505.580
580.905	21.915	1570.536	1504.273
581.919	21.784	1570.267	1502.708
582.934	21.668	1569.296	1500.600
583.948	21.676	1567.040	1498.336
584.963	21.723	1566.356	1497.904
585.978	21.834	1565.819	1498.169
586.992	21.587	1563.682	1493.826
588.007	21.236	1562.465	1489.474
589.021	21.573	1561.792	1491.538
590.036	21.893	1560.253	1492.632
591.051	21.603	1558.777	1488.558
592.065	21.391	1556.044	1483.968
593.080	21.145	1554.736	1480.439
594.094	21.298	1553.821	1480.700
595.109	21.642	1554.135	1483.750
596.123	22.226	1552.727	1487.194
597.138	22.005	1551.510	1483.971
598.153	21.676	1549.570	1479.144
599.167	21.698	1548.324	1477.967
600.182	21.650	1547.194	1476.306
601.196	21.525	1545.932	1473.864
602.211	21.705	1544.715	1474.053
603.226	21.494	1543.440	1470.877
604.240	21.452	1541.767	1468.755
605.255	21.412	1540.680	1467.201
606.269	21.396	1540.912	1467.108
607.284	21.626	1539.517	1467.549
608.299	21.570	1538.169	1465.614
609.313	21.669	1536.935	1465.098
610.328	21.723	1535.483	1463.991
611.342	21.832	1533.839	1463.159
612.357	21.637	1532.767	1460.329
613.372	21.462	1531.497	1457.475
614.386	21.491	1530.652	1456.739
615.401	21.359	1530.286	1455.117
616.415	21.349	1528.910	1453.548
617.430	21.140	1527.591	1450.375
618.445	21.114	1525.737	1448.223
619.459	21.147	1525.011	1447.640
620.474	21.476	1525.362	1450.541
621.488	21.817	1524.248	1452.143
622.503	21.950	1522.711	1451.613
623.518	21.588	1521.145	1446.943
624.532	21.203	1519.306	1441.820
625.547	21.192	1518.032	1440.350
626.561	20.924	1516.980	1436.960
627.576	20.828	1515.769	1434.842
628.591	21.231	1514.876	1437.162
629.605	21.520	1513.765	1438.321
630.620	21.382	1513.194	1436.468
631.634	21.805	1511.973	1438.630
632.649	21.620	1510.879	1435.893
633.663	21.351	1509.057	1431.770
634.678	21.048	1507.112	1427.266
635.693	20.797	1505.355	1423.365
636.707	20.825	1503.493	1421.662
637.722	20.725	1502.610	1419.842
638.736	20.840	1501.333	1419.407
639.751	21.070	1500.825	1420.640
640.766	21.264	1499.498	1420.800
641.780	21.139	1498.504	1418.670
642.795	21.201	1498.254	1418.765
643.809	21.201	1497.547	1417.924
644.824	21.320	1496.168	1417.424
645.839	21.303	1495.883	1416.843
646.853	21.269	1494.343	1414.940
647.868	21.249	1492.503	1412.869
648.882	21.162	1491.396	1410.941
649.897	21.196	1490.044	1409.767
650.912	21.004	1488.879	1406.942
651.926	20.799	1487.668	1403.970
652.941	20.862	1486.609	1403.311
653.955	21.038	1485.213	1403.246
654.970	21.356	1484.234	1404.726
655.985	21.313	1482.598	1402.663
656.999	21.393	1481.235	1401.848
658.014	21.045	1479.554	1397.290
659.028	21.011	1477.855	1395.239
660.043	20.838	1477.497	1393.347
661.058	20.874	1476.008	1392.066
662.072	20.875	1475.036	1390.990
663.087	21.081	1474.194	1391.684
664.101	21.054	1474.049	1391.163
665.116	20.983	1472.189	1388.671
666.131	20.874	1471.583	1387.058
667.145	20.977	1470.205	1386.415
668.160	20.831	1469.079	1384.023
669.174	20.754	1467.255	1381.526
670.189	20.715	1465.874	1379.746
671.204	20.903	1465.981	1381.180
672.218	21.107	1464.989	1381.704
673.233	21.115	1462.855	1379.594
674.247	20.929	1461.091	1376.287
675.262	20.642	1460.528	1373.318
676.276	20.760	1459.973	1373.566
677.291	20.769	1459.935	1373.433
678.306	21.256	1458.833	1376.096
679.320	21.221	1457.533	1374.424
680.335	20.964	1456.458	1371.216
681.349	20.668	1456.265	1368.527
682.364	20.792	1454.707	1367.876
683.379	20.646	1453.344	1365.286
684.393	20.696	1451.498	1363.777
685.408	20.703	1450.310	1362.555
686.422	20.689	1449.217	1361.259
687.437	20.493	1448.862	1359.216
688.452	20.511	1447.361	1357.784
689.466	20.412	1445.401	1355.009
690.481	20.567	1444.268	1355.004
691.495	20.568	1444.919	1355.460
692.510	20.973	1444.259	1357.844
693.525	21.241	1442.807	1358.418
694.539	21.038	1441.343	1355.288
695.554	20.596	1439.555	1349.999
696.568	20.253	1438.155	1345.847
697.583	20.317	1437.433	1345.508
698.598	20.287	1436.004	1343.781
699.612	20.250	1434.996	1342.383
700.627	20.352	1434.022	1342.106
701.641	20.728	1433.310	1344.201
702.656	20.662	1431.918	1342.221
703.671	20.432	1431.253	1339.657
704.685	20.421	1431.066	1339.236
705.700	20.615	1429.789	1339.378
706.714	20.531	1428.173	1337.055
707.729	20.567	1426.940	1336.023
708.744	20.568	1425.804	1334.805
709.758	20.423	1424.575	1332.373
710.773	20.760	1423.548	1333.853
711.787	20.757	1422.784	1332.955
712.802	20.629	1420.482	1329.655
713.816	20.430	1419.457	1327.011
714.831	20.431	1419.057	1326.480
715.846	20.301	1417.941	1324.282
716.860	20.423	1415.939	1323.186
717.875	20.361	1415.425	1322.072
718.889	20.492	1414.331	1321.895
719.904	20.463	1413.299	1320.550
720.919	20.462	1411.785	1318.971
721.933	20.360	1410.956	1317.264
722.948	20.217	1410.471	1315.563
723.962	20.390	1409.125	1315.463
724.977	20.264	1407.511	1312.841
725.992	20.277	1406.573	1311.913
727.006	20.320	1405.853	1311.405
728.021	20.332	1403.841	1309.466
729.035	20.356	1402.442	1308.183
730.050	20.445	1402.061	1308.345
731.065	20.352	1401.348	1306.825
732.079	20.363	1399.682	1305.192
733.094	20.344	1399.190	1304.437
734.108	20.550	1397.783	1304.523
735.123	20.301	1396.449	1301.242
736.138	20.477	1395.014	1301.078
737.152	20.303	1394.440	1299.078
738.167	20.310	1393.207	1297.823
739.181	20.184	1391.936	1295.539
740.196	20.124	1391.518	1294.547
741.211	20.051	1390.971	1293.330
742.225	20.216	1389.948	1293.465
743.240	20.285	1387.481	1291.533
744.254	20.081	1386.501	1288.939
745.269	19.995	1385.577	1287.283
746.284	19.893	1384.933	1285.767
747.298	20.045	1384.278	1286.144
748.313	20.266	1383.323	1286.750
749.327	20.594	1382.907	1288.649
750.342	20.907	1382.470	1290.422
751.356	21.033	1381.845	1290.616
752.371	20.753	1380.333	1286.972
753.386	20.463	1378.545	1282.995
754.400	20.208	1377.131	1279.634
755.415	20.267	1375.980	1278.850
756.429	20.243	1374.500	1277.148
757.444	20.344	1373.436	1276.753
758.459	20.187	1372.887	1274.928
759.473	20.091	1371.849	1273.104
760.488	20.165	1369.777	1271.573
761.502	20.034	1369.181	1269.899
762.517	20.149	1368.191	1269.677
763.532	20.149	1366.967	1268.387
764.546	20.279	1365.350	1267.696
765.561	20.453	1365.820	1269.252
766.575	20.842	1365.481	1271.641
767.590	20.791	1364.264	1269.984
768.605	20.686	1362.081	1267.034
769.619	20.459	1360.142	1263.414
770.634	20.382	1359.247	1261.871
771.648	20.169	1358.208	1259.203
772.663	20.123	1357.298	1257.873
773.678	19.964	1357.049	1256.329
774.692	19.972	1356.155	1255.412
775.707	19.942	1355.659	1254.584
776.721	19.904	1354.148	1252.758
777.736	20.075	1352.756	1252.562
778.751	20.051	1351.991	1251.529
779.765	20.167	1350.497	1250.839
780.780	19.977	1350.826	1249.618
781.794	19.939	1349.925	1248.355
782.809	19.875	1348.528	1246.453
783.824	19.833	1347.298	1244.864
784.838	20.082	1346.369	1245.654
785.853	20.437	1346.095	1247.813
786.867	20.290	1344.868	1245.470
787.882	20.076	1344.077	1243.043
788.897	20.055	1342.964	1241.715
789.911	20.038	1341.339	1239.945
790.926	19.950	1339.810	1237.751
791.940	19.736	1339.105	1235.414
792.955	20.097	1337.168	1236.063
793.969	19.847	1336.324	1233.346
794.984	19.695	1336.092	1231.891
795.999	19.899	1335.017	1232.216
797.013	20.092	1332.986	1231.570
798.028	19.983	1331.876	1229.620
799.042	19.928	1331.320	1228.565
800.057	19.965	1329.669	1227.164
801.072	19.921	1328.756	1225.859
802.086	19.779	1328.001	1224.006
803.101	19.973	1326.613	1223.959
804.115	19.575	1326.281	1220.677
805.130	19.878	1325.167	1221.655
806.145	19.800	1323.833	1219.731
807.159	20.000	1322.325	1219.609
808.174	19.942	1321.061	1217.885
809.188	20.092	1319.713	1217.558
810.203	20.081	1318.511	1216.228
811.218	20.159	1317.083	1215.312
812.232	20.395	1316.451	1216.248
813.247	20.466	1315.567	1215.785
814.261	20.161	1314.823	1212.808
815.276	20.017	1312.926	1209.896
816.291	19.981	1311.729	1208.399
817.305	19.875	1310.894	1206.743
818.320	19.908	1309.549	1205.590
819.334	19.928	1308.258	1204.396
820.349	19.920	1306.740	1202.798
821.364	19.792	1305.714	1200.818
822.378	19.740	1304.397	1199.097
823.393	19.817	1302.410	1197.670
824.407	19.795	1301.974	1196.970
825.422	19.687	1302.000	1196.102
826.437	19.680	1301.072	1195.051
827.451	19.741	1299.040	1193.471
828.466	20.069	1298.372	1194.987
829.480	20.325	1296.659	1195.041
830.495	20.163	1294.072	1191.395
831.509	19.793	1292.494	1187.243
832.524	19.875	1292.202	1187.401
833.539	19.663	1291.021	1184.708
834.553	19.804	1290.078	1184.678
835.568	19.849	1288.896	1183.761
836.582	19.712	1287.836	1181.700
837.597	19.929	1286.440	1181.768
838.612	19.872	1285.491	1180.363
839.626	19.889	1284.552	1179.478
840.641	19.934	1283.848	1178.997
841.655	20.041	1283.712	1179.465
842.670	20.350	1283.452	1181.199
843.685	20.609	1282.616	1182.053
844.699	20.400	1280.395	1178.443
845.714	20.231	1278.382	1175.300
846.728	20.204	1276.934	1173.641
847.743	19.973	1276.546	1171.573
848.758	19.781	1275.368	1169.045
849.772	19.760	1273.522	1167.072
850.787	19.834	1271.909	1165.956
851.801	19.588	1271.575	1163.845
852.816	19.713	1269.965	1163.079
853.831	19.755	1268.351	1161.746
854.845	19.771	1266.448	1159.968
855.860	19.810	1264.765	1158.553
856.874	19.729	1264.071	1157.236
857.889	19.944	1263.305	1157.838
858.904	20.019	1262.792	1157.734
859.918	20.364	1260.947	1158.217
860.933	20.465	1259.873	1157.766
861.947	20.225	1258.637	1154.885
862.962	20.028	1257.072	1152.000
863.977	19.844	1256.022	1149.671
864.991	19.597	1255.905	1147.773
866.006	19.697	1254.869	1147.359
867.020	19.719	1253.287	1145.923
868.035	19.620	1251.893	1143.848
869.049	19.730	1250.981	1143.613
870.064	19.736	1250.188	1142.789
871.079	19.886	1249.703	1143.203
872.093	19.948	1249.399	1143.200
873.108	20.000	1248.139	1142.257
874.122	20.128	1247.259	1142.161
875.137	20.182	1247.515	1142.616
876.152	20.438	1246.189	1142.962
877.166	20.457	1243.706	1140.674
878.181	20.260	1243.004	1138.592
879.195	20.156	1241.756	1136.625
880.210	19.912	1241.151	1134.328
881.225	19.805	1240.674	1133.055
882.239	19.965	1239.263	1132.679
883.254	19.847	1238.410	1130.993
884.268	19.898	1237.406	1130.274
885.283	19.809	1235.797	1128.085
886.298	19.896	1234.066	1126.941
887.312	19.799	1233.438	1125.597
888.327	19.884	1232.672	1125.321
889.341	19.872	1231.772	1124.285
890.356	19.723	1231.260	1122.712
891.371	19.742	1230.423	1121.937
892.385	19.746	1229.703	1121.168
893.400	19.838	1228.076	1120.151
894.414	19.856	1227.302	1119.430
895.429	20.073	1226.120	1119.625
896.444	20.613	1225.373	1122.316
897.458	20.774	1224.911	1122.803
898.473	20.376	1224.076	1119.322
899.487	20.162	1222.087	1115.983
900.502	20.276	1219.737	1114.444
901.517	19.865	1219.219	1111.184
902.531	19.833	1218.588	1110.269
903.546	19.839	1217.822	1109.478
904.560	20.078	1216.678	1109.837
905.575	19.933	1216.271	1108.400
906.589	20.073	1215.510	1108.475
907.604	19.980	1214.750	1107.052
