DTS Sentinel unit serial number:	SN409020Multiplexer serial number:	ORYXHardware model number:	OX4-SRSoftware version number:	ORYX F/W v3.00 Oryx Data Collector v3.7.2.0data status	okinstallation	HaddamTimeLapsedifferential loss correction	single-endedforward channel	channel 3reverse channel	N/Adate	2011/06/22time	00:26:17forward acquisition time	30.00reverse acquisition time	0.00gamma	498.7831k internal	0.1752k external	0.1752temperature offset calibration	1.0074default loss term (dB/km)	0.3790temperature slope calibration	1.3530multiplexer offset coefficient	1.0000multiplexer slope coefficient	1.0000fibre end	0.00T internal ref (°C)	22.69T ext. ref 1 (°C)	17.99T ext. ref 2 (°C)	0.05length (m)	temperature (°C)	Stokes	anti-Stokes-747.200	-3.150	0.184	-0.170
-746.185	238.107	-0.151	0.335
-745.171	-200.000	0.120	-0.755
-744.156	28.559	-0.076	-0.086
-743.142	647.097	0.050	0.171
-742.127	-99.417	0.403	0.134
-741.112	-20.221	-0.160	0.130
-740.098	145.238	-0.160	0.286
-739.083	-65.968	-0.190	0.100
-738.069	-92.624	0.431	0.160
-737.054	-200.000	0.193	-0.001
-736.039	-200.000	-0.516	0.002
-735.025	461.747	-0.129	0.383
-734.010	369.473	0.081	0.220
-732.996	547.948	0.117	-0.373
-731.981	64.579	0.168	-0.225
-730.966	-200.000	0.004	-0.113
-729.952	222.561	-0.195	-0.418
-728.937	-200.000	0.016	-0.128
-727.923	-200.000	-0.011	0.069
-726.908	48.229	0.123	-0.153
-725.894	-92.144	0.166	-0.062
-724.879	-197.429	-0.302	-0.002
-723.864	-77.900	-0.264	0.121
-722.850	81.858	-0.219	0.315
-721.835	16.716	0.347	-0.364
-720.821	-95.139	-0.174	-0.062
-719.806	-200.000	0.017	0.364
-718.791	137.451	0.174	-0.302
-717.777	-91.642	-0.558	-0.209
-716.762	-196.933	-0.257	0.002
-715.748	84.693	0.112	0.163
-714.733	-3.997	0.211	-0.194
-713.718	29.457	0.246	0.278
-712.704	28.061	0.262	0.293
-711.689	367.404	-0.104	0.279
-710.675	-200.000	0.001	0.075
-709.660	-14.646	-0.152	0.130
-708.645	-72.294	0.417	0.204
-707.631	-163.077	0.325	-0.020
-706.616	-128.843	-0.355	0.066
-705.602	0.235	0.254	-0.240
-704.587	174.793	-0.190	-0.365
-703.572	-18.965	-0.285	0.235
-702.558	-93.884	-0.464	-0.168
-701.543	800.000	-0.081	0.400
-700.529	-200.000	-0.025	0.243
-699.514	-107.165	0.431	-0.125
-698.499	-156.903	0.509	0.041
-697.485	-132.914	0.241	0.040
-696.470	-75.280	-0.181	0.085
-695.456	-134.498	-0.325	0.052
-694.441	227.858	0.107	0.232
-693.426	-125.930	-0.541	-0.107
-692.412	-35.741	-0.377	0.270
-691.397	225.011	-0.034	0.073
-690.383	86.673	-0.196	-0.288
-689.368	184.143	-0.153	-0.301
-688.354	7.449	0.168	-0.166
-687.339	-66.307	0.611	-0.321
-686.324	388.057	0.063	0.173
-685.310	-176.468	0.232	-0.008
-684.295	375.700	0.131	0.355
-683.281	-25.794	-0.520	-0.405
-682.266	800.000	-0.054	0.218
-681.251	82.044	0.157	0.226
-680.237	-92.462	0.334	-0.124
-679.222	-36.199	-0.084	0.060
-678.208	410.224	0.073	0.205
-677.193	127.251	0.019	-0.033
-676.178	-200.000	-0.019	0.200
-675.164	26.059	-0.234	-0.258
-674.149	8.275	0.494	-0.492
-673.135	-160.831	-0.505	0.035
-672.120	13.837	-0.236	-0.243
-671.105	25.608	0.243	0.268
-670.091	-66.508	0.253	-0.133
-669.076	5.579	0.367	0.359
-668.062	-200.000	-0.022	-0.347
-667.047	-109.377	-0.354	0.098
-666.032	337.348	0.167	0.433
-665.018	-200.000	-0.014	0.353
-664.003	-200.000	0.022	0.310
-662.989	-103.593	-0.363	0.112
-661.974	43.959	-0.135	-0.164
-660.959	-46.880	0.341	0.220
-659.945	-108.241	0.317	0.090
-658.930	-144.033	-0.092	-0.011
-657.916	-109.552	-0.120	0.033
-656.901	-169.154	-0.152	0.007
-655.886	-15.189	0.554	-0.469
-654.872	66.577	0.302	-0.407
-653.857	-150.631	-0.536	-0.054
-652.843	-67.630	0.446	-0.230
-651.828	217.383	0.127	-0.268
-650.814	289.080	0.031	-0.074
-649.799	-21.083	-0.123	0.099
-648.784	115.743	-0.215	-0.349
-647.770	96.402	-0.187	-0.284
-646.755	-125.586	0.394	0.078
-645.741	402.132	0.075	-0.210
-644.726	-200.000	0.004	-0.301
-643.711	92.320	0.108	0.161
-642.697	-79.389	0.171	-0.076
-641.682	-136.680	-0.356	0.054
-640.668	-200.000	0.077	-0.659
-639.653	-75.598	0.259	0.121
-638.638	-111.276	0.069	-0.019
-637.624	-200.000	-0.058	-0.558
-636.609	-59.721	-0.336	-0.189
-635.595	61.568	-0.144	-0.190
-634.580	420.691	0.143	0.408
-633.565	-42.914	0.268	0.180
-632.551	-157.041	-0.260	0.021
-631.536	795.764	0.071	0.259
-630.522	83.298	-0.162	0.233
-629.507	-42.261	0.540	-0.364
-628.492	475.230	0.070	-0.209
-627.478	-62.042	-0.078	-0.043
-626.463	800.000	0.037	-0.184
-625.449	800.000	-0.104	-0.587
-624.434	132.070	-0.194	0.331
-623.419	-165.197	0.310	0.018
-622.405	-0.065	0.189	-0.177
-621.390	-71.322	0.167	-0.082
-620.376	-161.253	-0.137	-0.009
-619.361	140.309	0.289	0.506
-618.346	-200.000	0.020	0.141
-617.332	-126.575	0.257	0.050
-616.317	-121.671	0.141	0.031
-615.303	-200.000	-0.013	0.084
-614.288	-200.000	0.037	0.245
-613.273	-104.369	-0.359	-0.109
-612.259	20.436	-0.417	0.445
-611.244	-57.183	0.530	-0.307
-610.230	-200.000	-0.040	-0.426
-609.215	-200.000	0.048	-0.519
-608.201	5.653	0.287	-0.280
-607.186	-43.580	-0.238	-0.158
-606.171	-80.825	0.330	-0.144
-605.157	20.905	-0.312	0.334
-604.142	262.679	-0.152	-0.350
-603.128	260.609	0.130	-0.299
-602.113	132.650	-0.285	-0.487
-601.098	-200.000	0.006	-0.205
-600.084	-132.620	0.435	0.073
-599.069	-126.168	-0.316	0.062
-598.055	63.125	0.331	-0.439
-597.040	-200.000	0.006	0.413
-596.025	-27.248	0.116	0.089
-595.011	800.000	0.015	-0.082
-593.996	-200.000	0.025	0.468
-592.982	20.902	0.345	0.369
-591.967	-42.843	0.344	0.230
-590.952	-200.000	0.013	-0.217
-589.938	-28.175	-0.253	0.193
-588.923	153.536	-0.218	-0.395
-587.909	86.434	0.080	-0.116
-586.894	-88.647	-0.289	-0.113
-585.879	-83.159	0.365	-0.154
-584.865	-5.868	0.164	-0.148
-583.850	-75.505	0.295	-0.138
-582.836	800.000	0.051	0.218
-581.821	-83.924	0.415	-0.173
-580.806	800.000	-0.095	0.395
-579.792	-99.027	-0.507	0.169
-578.777	372.442	-0.201	-0.542
-577.763	-11.858	-0.296	-0.256
-576.748	574.095	0.204	-0.660
-575.733	-69.781	0.433	0.217
-574.719	31.797	-0.248	-0.282
-573.704	202.571	-0.038	-0.077
-572.690	233.748	-0.067	-0.146
-571.675	-200.000	0.008	-0.050
-570.661	530.688	0.066	-0.207
-569.646	-112.873	-0.280	0.073
-568.631	-185.686	-0.442	0.009
-567.617	-22.111	0.353	-0.282
-566.602	363.500	0.078	-0.207
-565.588	46.535	0.544	-0.666
-564.573	-89.589	0.390	-0.150
-563.558	105.447	-0.102	-0.159
-562.544	223.324	-0.159	0.339
-561.529	-91.104	0.133	-0.050
-560.515	-82.514	0.133	0.057
-559.500	-46.329	-0.257	0.166
-558.485	-99.910	0.537	0.176
-557.471	92.243	-0.232	0.346
-556.456	77.441	-0.190	-0.266
-555.442	-126.444	-0.711	0.138
-554.427	342.915	-0.068	0.177
-553.412	-108.919	0.317	-0.089
-552.398	-94.919	0.381	-0.135
-551.383	800.000	-0.110	-0.420
-550.369	82.750	0.156	-0.223
-549.354	76.517	-0.053	-0.074
-548.339	46.233	-0.121	0.148
-547.325	41.774	-0.354	-0.423
-546.310	-130.139	0.519	0.092
-545.296	-116.040	-0.268	0.065
-544.281	800.000	0.049	0.281
-543.266	284.799	-0.017	0.041
-542.252	-71.352	0.142	-0.070
-541.237	56.354	-0.240	0.308
-540.223	722.431	-0.058	0.205
-539.208	-136.655	0.613	0.092
-538.193	357.669	-0.113	0.298
-537.179	-99.164	-0.055	-0.018
-536.164	800.000	0.067	0.279
-535.150	-200.000	0.025	-0.311
-534.135	-73.836	-0.259	0.124
-533.121	-91.124	0.584	0.219
-532.106	-48.106	-0.237	-0.151
-531.091	52.545	-0.095	0.119
-530.077	-118.221	-0.747	-0.174
-529.062	1.877	-0.048	-0.046
-528.048	-153.655	0.368	0.033
-527.033	21.255	-0.378	-0.405
-526.018	-200.000	0.032	0.604
-525.004	3.068	0.196	0.188
-523.989	139.427	-0.346	0.601
-522.975	-103.747	-0.418	-0.128
-521.960	800.000	-0.032	-0.127
-520.945	-120.258	0.048	-0.011
-519.931	800.000	-0.173	0.839
-518.916	603.671	-0.048	0.157
-517.902	-90.197	-0.365	-0.139
-516.887	-200.000	-0.000	0.115
-515.872	-32.003	0.274	0.201
-514.858	61.081	0.146	-0.191
-513.843	245.566	-0.108	-0.239
-512.829	800.000	-0.076	0.376
-511.814	22.974	0.187	0.202
-510.799	-200.000	0.012	0.092
-509.785	-90.639	0.282	-0.107
-508.770	-141.114	-0.713	0.095
-507.756	-73.066	-0.185	-0.089
-506.741	5.831	-0.423	0.411
-505.726	-152.603	0.191	-0.018
-504.712	-104.956	0.119	0.036
-503.697	-135.145	0.325	0.051
-502.683	212.538	0.167	0.348
-501.668	416.320	-0.070	-0.199
-500.653	-134.719	0.448	-0.071
-499.639	-75.510	0.176	0.082
-498.624	-145.312	-0.509	-0.060
-497.610	147.461	-0.178	-0.316
-496.595	-170.119	0.293	0.013
-495.581	-144.805	-0.627	-0.075
-494.566	-61.922	-0.323	-0.177
-493.551	-200.000	-0.010	-0.071
-492.537	478.978	-0.067	-0.200
-491.522	-118.068	-0.373	0.087
-490.508	49.449	0.092	-0.114
-489.493	-53.252	0.169	-0.102
-488.478	-200.000	-0.016	-0.606
-487.464	72.290	-0.059	-0.081
-486.449	-117.223	-0.635	-0.151
-485.435	-200.000	0.070	-0.509
-484.420	800.000	0.056	0.281
-483.405	-29.840	0.338	0.253
-482.391	5.817	0.153	0.149
-481.376	751.114	0.064	-0.230
-480.362	155.871	-0.038	-0.069
-479.347	-102.330	-0.412	-0.129
-478.332	47.010	-0.073	0.089
-477.318	-135.454	0.555	-0.086
-476.303	-39.383	-0.357	-0.246
-475.289	-19.551	-0.431	-0.350
-474.274	-147.856	0.440	0.048
-473.259	48.208	-0.017	0.020
-472.245	-121.443	-0.316	0.068
-471.230	800.000	0.117	0.497
-470.216	145.098	-0.107	0.189
-469.201	-200.000	-0.021	0.184
-468.186	87.659	0.244	0.355
-467.172	414.212	0.076	0.214
-466.157	-32.051	0.174	-0.128
-465.143	-11.888	0.171	-0.147
-464.128	-200.000	0.009	-0.102
-463.113	116.249	0.018	-0.029
-462.099	84.650	-0.130	-0.188
-461.084	478.972	0.069	0.205
-460.070	-176.460	-0.140	-0.005
-459.055	197.391	0.150	-0.301
-458.040	800.000	0.076	0.287
-457.026	179.107	0.210	0.404
-456.011	315.742	0.152	0.378
-454.997	800.000	-0.131	0.620
-453.982	-61.854	0.210	0.115
-452.968	65.660	0.149	-0.198
-451.953	-188.466	0.239	-0.004
-450.938	334.262	-0.118	-0.301
-449.924	800.000	0.072	-0.325
-448.909	-170.337	-0.559	-0.025
-447.895	800.000	-0.127	-0.494
-446.880	440.558	-0.146	-0.422
-445.865	-200.000	0.002	-0.186
-444.851	-95.576	-0.275	-0.096
-443.836	30.010	-0.249	0.279
-442.822	800.000	-0.053	0.279
-441.807	-32.858	-0.310	0.226
-440.792	-24.542	-0.275	0.214
-439.778	-157.305	-0.166	0.013
-438.763	-200.000	-0.024	0.213
-437.749	-147.889	0.271	0.029
-436.734	132.287	0.052	0.088
-435.719	93.692	0.205	0.304
-434.705	-86.661	0.428	-0.171
-433.690	-200.000	0.114	0.714
-432.676	-126.713	0.318	0.061
-431.661	800.000	0.018	0.078
-430.646	800.000	-0.010	-0.044
-429.632	-47.040	0.075	0.048
-428.617	153.197	0.163	-0.293
-427.603	-84.096	0.290	-0.120
-426.588	16.090	-0.167	-0.173
-425.573	9.675	0.210	0.209
-424.559	542.985	-0.121	0.382
-423.544	708.943	0.107	0.374
-422.530	363.256	-0.080	-0.212
-421.515	207.478	0.200	0.410
-420.500	-28.129	-0.460	0.348
-419.486	-141.268	0.485	0.064
-418.471	-144.725	0.431	-0.051
-417.457	-81.404	0.252	0.108
-416.442	-86.716	0.339	0.135
-415.428	-185.714	0.023	0.000
-414.413	-200.000	-0.028	-0.320
-413.398	-137.971	-0.107	0.015
-412.384	15.946	-0.032	0.033
-411.369	-182.668	-0.383	-0.009
-410.355	-39.190	-0.359	0.247
-409.340	-77.920	0.356	0.160
-408.325	-101.700	-0.627	-0.198
-407.311	525.342	-0.151	0.469
-406.296	176.878	-0.084	0.160
-405.282	-13.446	0.322	-0.274
-404.267	157.187	-0.272	0.494
-403.252	-200.000	0.048	0.283
-402.238	-69.877	0.295	0.147
-401.223	-36.397	-0.125	-0.088
-400.209	-95.890	-0.703	-0.244
-399.194	240.654	0.313	-0.686
-398.179	194.856	0.067	-0.134
-397.165	-170.658	-0.435	0.019
-396.150	-174.774	-0.212	-0.008
-395.136	712.919	-0.036	-0.127
-394.121	-63.267	-0.136	0.073
-393.106	-40.788	-0.229	0.155
-392.092	-86.441	-0.660	0.264
-391.077	-3.109	0.287	0.262
-390.063	-110.336	-0.142	-0.038
-389.048	800.000	0.104	0.447
-388.033	-200.000	-0.009	-0.169
-387.019	-80.738	-0.249	0.108
-386.004	-82.550	0.147	0.062
-384.990	-29.219	-0.300	0.225
-383.975	579.907	0.100	-0.323
-382.960	-123.486	0.520	0.107
-381.946	-139.383	0.463	0.064
-380.931	-84.303	-0.416	0.172
-379.917	326.726	0.138	0.347
-378.902	-133.341	-0.237	-0.039
-377.888	23.810	-0.174	-0.187
-376.873	-35.626	-0.238	-0.169
-375.858	112.243	0.312	-0.494
-374.844	-109.263	0.383	-0.106
-373.829	-107.579	-0.213	0.060
-372.815	120.482	-0.079	-0.129
-371.800	-38.957	0.278	-0.191
-370.785	-155.063	-0.301	0.025
-369.771	36.619	0.034	0.039
-368.756	-85.691	-0.181	-0.073
-367.742	-20.496	0.175	0.140
-366.727	397.410	0.105	0.287
-365.712	-122.527	-0.511	-0.108
-364.698	143.738	0.335	0.585
-363.683	800.000	0.090	-0.514
-362.669	5.997	-0.316	0.306
-361.654	-112.342	-0.429	-0.112
-360.639	465.471	-0.099	-0.291
-359.625	65.238	-0.212	-0.281
-358.610	40.462	0.309	-0.364
-357.596	-97.816	0.146	-0.049
-356.581	-149.401	-0.518	0.053
-355.566	-141.778	-0.190	-0.025
-354.552	-80.591	-0.137	-0.059
-353.537	-105.059	-0.414	-0.123
-352.523	800.000	-0.063	-0.296
-351.508	167.644	0.212	-0.396
-350.493	-69.611	-0.082	-0.041
-349.479	-200.000	0.016	0.211
-348.464	-44.100	-0.233	-0.153
-347.450	-54.207	0.459	0.272
-346.435	-64.215	-0.108	-0.057
-345.420	-123.300	-0.337	0.070
-344.406	800.000	0.155	0.571
-343.391	800.000	0.126	0.474
-342.377	-200.000	-0.034	-0.231
-341.362	-42.210	0.314	0.210
-340.348	304.579	0.074	0.181
-339.333	-134.082	0.418	0.067
-338.318	-91.799	0.039	0.014
-337.304	16.311	0.317	-0.327
-336.289	188.625	0.094	-0.185
-335.275	16.113	-0.121	-0.125
-334.260	-79.298	0.254	-0.112
-333.245	-200.000	-0.036	-0.462
-332.231	-100.043	0.720	-0.233
-331.216	3.951	0.565	0.539
-330.202	26.918	0.320	-0.351
-329.187	-128.240	-0.214	-0.040
-328.172	112.158	-0.073	-0.116
-327.158	-86.467	0.238	0.095
-326.143	-149.030	0.089	-0.009
-325.129	439.221	0.259	0.743
-324.114	800.000	0.098	0.413
-323.099	-58.422	0.235	0.133
-322.085	10.051	0.227	0.225
-321.070	-30.316	0.409	-0.303
-320.056	-34.528	-0.578	0.412
-319.041	3.638	0.166	-0.158
-318.026	-200.000	0.023	0.374
-317.012	-67.210	0.186	-0.096
-315.997	800.000	-0.112	-0.557
-314.983	-18.478	-0.161	0.131
-313.968	99.550	0.109	0.164
-312.953	186.884	0.112	0.218
-311.939	63.581	-0.321	-0.421
-310.924	-2.558	0.443	0.405
-309.910	203.647	0.084	-0.171
-308.895	78.932	0.118	0.165
-307.880	76.827	0.133	0.185
-306.866	155.402	-0.232	0.418
-305.851	-170.078	-0.384	-0.018
-304.837	407.056	-0.065	0.181
-303.822	-13.343	0.440	0.373
-302.807	-155.181	0.425	0.036
-301.793	-75.267	0.509	0.236
-300.778	371.309	0.024	0.064
-299.764	-78.196	0.224	0.100
-298.749	-3.137	-0.296	0.269
-297.735	-101.388	-0.173	-0.055
-296.720	-69.968	0.128	-0.063
-295.705	800.000	0.057	-0.285
-294.691	-24.334	-0.213	-0.165
-293.676	-200.000	-0.016	0.159
-292.662	161.294	0.198	-0.362
-291.647	-93.689	-0.287	-0.103
-290.632	-121.344	-0.415	-0.090
-289.618	120.801	0.136	-0.220
-288.603	553.882	0.031	-0.097
-287.589	-200.000	-0.058	0.342
-286.574	-126.704	-0.381	0.073
-285.559	507.773	-0.017	-0.053
-284.545	-121.776	-0.484	0.103
-283.530	330.342	0.025	-0.064
-282.516	548.072	-0.173	0.544
-281.501	16.547	0.337	0.347
-280.486	366.635	-0.047	-0.123
-279.472	134.053	0.090	0.152
-278.457	-55.893	-0.240	0.139
-277.443	-154.423	-0.173	0.015
-276.428	218.504	-0.094	-0.196
-275.413	-41.245	-0.516	-0.346
-274.399	227.080	-0.075	0.159
-273.384	221.186	-0.213	-0.446
-272.370	-160.197	0.455	0.032
-271.355	-72.618	-0.135	-0.065
-270.340	-200.000	-0.003	0.226
-269.326	29.688	0.135	0.150
-268.311	-34.937	0.110	0.078
-267.297	-93.100	0.491	0.177
-266.282	726.407	0.118	0.412
-265.267	-42.314	0.255	0.169
-264.253	-92.512	-0.262	0.095
-263.238	-0.471	-0.037	-0.034
-262.224	-200.000	-0.010	0.102
-261.209	-133.539	0.059	-0.010
-260.195	15.068	0.209	-0.213
-259.180	0.129	-0.144	-0.134
-258.165	-45.388	-0.330	-0.213
-257.151	800.000	0.159	-0.682
-256.136	-200.000	-0.009	0.182
-255.122	52.604	-0.118	0.148
-254.107	177.588	0.468	-0.892
-253.092	186.973	0.143	0.279
-252.078	43.421	-0.219	-0.261
-251.063	66.663	-0.313	-0.416
-250.049	167.802	0.110	-0.204
-249.034	-11.244	0.165	0.141
-248.019	-21.601	0.180	-0.142
-247.005	800.000	0.079	-0.391
-245.990	585.701	-0.052	-0.169
-244.976	-20.102	-0.328	0.263
-243.961	291.250	0.118	0.280
-242.946	-200.000	0.050	0.308
-241.932	16.144	0.321	0.330
-240.917	-60.586	0.502	-0.276
-239.903	-111.191	-0.296	0.078
-238.888	195.076	0.274	-0.543
-237.873	221.073	0.122	0.256
-236.859	99.215	0.080	0.120
-235.844	800.000	-0.040	0.194
-234.830	51.282	0.132	0.163
-233.815	-130.948	-0.139	0.024
-232.800	-115.662	0.333	0.081
-231.786	-102.477	0.084	0.026
-230.771	-45.772	-0.371	0.238
-229.757	8.450	-0.216	-0.211
-228.742	25.571	0.313	-0.339
-227.727	-107.607	-0.207	-0.059
-226.713	533.517	-0.236	0.732
-225.698	-112.378	0.242	0.062
-224.684	-200.000	0.014	-0.418
-223.669	169.234	0.153	0.285
-222.655	31.834	-0.321	-0.360
-221.640	123.104	0.140	-0.229
-220.625	44.147	-0.391	-0.467
-219.611	34.494	0.274	-0.311
-218.596	157.018	-0.022	0.039
-217.582	-63.338	0.435	0.232
-216.567	-5.173	0.253	-0.227
-215.552	-19.955	-0.247	0.198
-214.538	-17.923	-0.441	0.359
-213.523	-95.982	0.435	0.150
-212.509	-102.876	0.335	0.103
-211.494	332.944	-0.154	-0.388
-210.479	-91.302	-0.411	0.152
-209.465	-40.891	-0.278	-0.187
-208.450	-37.385	0.171	0.118
-207.436	1.225	0.306	-0.285
-206.421	20.295	0.217	0.228
-205.406	215.487	-0.099	0.204
-204.392	133.903	-0.426	-0.719
-203.377	-9.531	0.172	0.149
-202.363	19.359	-0.311	0.324
-201.348	-62.115	0.318	-0.172
-200.333	800.000	0.026	0.132
-199.319	-171.726	0.150	0.006
-198.304	-172.998	0.232	0.009
-197.290	-3.275	0.206	0.186
-196.275	800.000	0.036	-0.148
-195.260	-125.032	-0.517	-0.102
-194.246	47.580	-0.170	-0.206
-193.231	336.238	0.104	-0.264
-192.217	102.036	0.025	0.038
-191.202	-200.000	0.062	-0.446
-190.187	554.543	-0.162	-0.511
-189.173	-172.883	-0.236	-0.009
-188.158	-91.956	-0.665	0.243
-187.144	-82.136	-0.157	0.066
-186.129	-174.640	0.085	0.003
-185.114	-200.000	-0.017	0.144
-184.100	275.944	-0.109	0.253
-183.085	800.000	-0.204	0.738
-182.071	800.000	-0.051	0.241
-181.056	28.664	0.096	0.106
-180.042	-200.000	-0.016	-0.187
-179.027	-79.117	0.365	0.160
-178.012	-84.577	-0.166	-0.068
-176.998	-158.424	-0.337	0.025
-175.983	83.570	0.110	0.156
-174.969	564.439	0.175	-0.555
-173.954	341.242	-0.272	-0.694
-172.939	-152.934	0.268	0.024
-171.925	-19.577	-0.186	0.149
-170.910	48.556	-0.264	0.321
-169.896	-29.508	-0.256	0.190
-168.881	-89.337	-0.207	-0.079
-167.866	-15.655	0.567	-0.469
-166.852	-78.270	-0.383	-0.170
-165.837	69.319	0.112	0.149
-164.823	41.095	-0.354	-0.415
-163.808	-40.356	0.021	-0.014
-162.793	-200.000	0.030	0.352
-161.779	-71.811	0.263	0.127
-160.764	-200.000	0.007	0.057
-159.750	-200.000	0.005	-0.266
-158.735	800.000	-0.043	-0.169
-157.720	321.844	0.225	0.557
-156.706	-60.273	-0.147	-0.081
-155.691	-129.449	-0.226	0.040
-154.677	113.223	0.247	0.389
-153.662	-72.183	-0.211	0.101
-152.647	29.208	-0.171	-0.189
-151.633	800.000	0.039	0.149
-150.618	-116.728	0.477	-0.113
-149.604	-61.046	-0.126	-0.069
-148.589	-88.026	0.347	0.134
-147.574	20.986	0.301	0.317
-146.560	451.351	-0.088	-0.253
-145.545	800.000	0.039	0.179
-144.531	277.082	0.099	-0.229
-143.516	-86.276	-0.259	-0.103
-142.502	800.000	0.129	0.470
-141.487	-144.729	0.440	0.052
-140.472	325.748	-0.193	-0.482
-139.458	423.723	0.104	0.292
-138.443	8.309	-0.241	0.235
-137.429	-48.821	0.191	0.119
-136.414	226.251	0.223	0.470
-135.399	1.270	0.478	0.445
-134.385	-200.000	-0.046	-0.344
-133.370	-87.204	0.191	-0.075
-132.356	8.047	0.323	-0.314
-131.341	484.708	0.244	-0.724
-130.326	-35.733	0.309	-0.217
-129.312	251.706	0.034	-0.074
-128.297	27.693	0.311	-0.339
-127.283	-200.000	-0.056	-0.415
-126.268	-22.061	0.282	-0.221
-125.253	-90.558	0.173	0.065
-124.239	800.000	-0.057	-0.218
-123.224	264.411	-0.192	-0.435
-122.210	236.638	0.060	-0.129
-121.195	-62.824	0.247	-0.132
-120.180	-175.860	0.330	0.011
-119.166	-200.000	0.004	0.244
-118.151	800.000	-0.110	-0.625
-117.137	659.375	-0.077	-0.260
-116.122	-172.937	-0.387	-0.015
-115.107	-21.881	-0.028	-0.022
-114.093	110.043	-0.032	0.050
-113.078	555.067	0.107	-0.336
-112.064	-46.739	-0.324	-0.205
-111.049	-7.195	-0.217	0.191
-110.034	23.245	0.115	-0.123
-109.020	-187.673	0.200	-0.003
-108.005	-56.712	-0.304	-0.174
-106.991	321.350	-0.175	0.434
-105.976	66.187	-0.297	-0.391
-104.962	203.102	-0.023	0.046
-103.947	-77.122	0.485	0.218
-102.932	-19.064	-0.227	-0.182
-101.918	414.286	0.051	0.141
-100.903	-132.685	0.730	-0.120
-99.889	-200.000	0.033	0.347
-98.874	-32.955	0.296	0.212
-97.859	-200.000	0.104	0.000
-96.845	146.127	0.173	-0.301
-95.830	-81.379	-0.276	0.117
-94.816	-29.017	-0.154	0.114
-93.801	-200.000	0.013	0.085
-92.786	254.995	-0.157	0.350
-91.772	-14.226	0.296	-0.247
-90.757	41.170	0.333	-0.390
-89.743	-200.000	-0.019	0.173
-88.728	46.614	0.278	0.335
-87.713	-50.299	0.194	-0.118
-86.699	-117.085	0.425	0.099
-85.684	-133.049	0.245	0.040
-84.670	-200.000	-0.063	-0.400
-83.655	800.000	0.067	-0.343
-82.640	41.938	-0.425	0.500
-81.626	-200.000	0.054	0.340
-80.611	110.078	0.116	0.181
-79.597	159.245	-0.143	0.258
-78.582	-200.000	0.006	0.270
-77.567	-142.940	0.269	-0.033
-76.553	-163.091	-0.144	0.009
-75.538	-163.551	0.652	-0.039
-74.524	-156.365	-0.044	-0.004
-73.509	-80.553	-0.423	0.181
-72.494	-48.477	-0.268	0.166
-71.480	-148.383	0.405	-0.042
-70.465	-63.594	0.625	0.331
-69.451	52.952	0.171	0.212
-68.436	-95.981	0.253	-0.087
-67.422	-68.727	0.124	0.062
-66.407	-115.892	-0.642	0.154
-65.392	-200.000	-0.238	0.001
-64.378	-134.973	-0.368	-0.057
-63.363	-119.284	0.081	0.018
-62.349	41.216	-0.324	-0.379
-61.334	19.483	-2.557	-2.657
-60.319	106.801	1.494	2.297
-59.305	211.980	-3.591	-7.339
-58.290	95.055	3.600	5.307
-57.276	333.157	4.038	10.135
-56.261	-200.000	22.659	318.928
-55.246	354.209	1303.658	3362.977
-54.232	52.571	2847.063	3517.085
-53.217	51.264	2661.990	3268.106
-52.203	31.670	2392.351	2660.576
-51.188	27.848	2057.832	2241.396
-50.173	24.548	1944.878	2079.732
-49.159	23.443	1933.344	2054.455
-48.144	23.002	1928.714	2044.329
-47.130	22.861	1926.052	2039.789
-46.115	22.830	1924.532	2037.729
-45.100	22.777	1923.867	2036.336
-44.086	22.812	1921.790	2034.460
-43.071	22.919	1919.216	2032.895
-42.057	22.731	1918.812	2030.207
-41.042	22.925	1916.493	2029.917
-40.027	22.839	1915.858	2028.172
-39.013	22.856	1913.566	2025.858
-37.998	22.950	1912.466	2025.700
-36.984	22.945	1911.286	2024.309
-35.969	22.755	1909.920	2020.598
-34.954	22.800	1908.543	2019.576
-33.940	22.899	1906.889	2018.881
-32.925	22.795	1905.680	2016.323
-31.911	22.780	1905.431	2015.818
-30.896	22.702	1903.758	2013.069
-29.881	22.782	1902.160	2012.220
-28.867	22.648	1901.368	2009.761
-27.852	22.648	1899.619	2007.836
-26.838	22.697	1898.199	2006.810
-25.823	22.727	1896.759	2005.551
-24.809	22.731	1895.488	2004.174
-23.794	22.686	1894.787	2002.844
-22.779	22.627	1893.492	2000.717
-21.765	22.624	1892.254	1999.297
-20.750	22.632	1890.711	1997.678
-19.736	22.580	1889.845	1996.092
-18.721	22.847	1887.570	1996.647
-17.706	22.652	1886.856	1993.602
-16.692	22.660	1885.321	1991.991
-15.677	22.599	1884.455	1990.301
-14.663	22.673	1883.376	1989.917
-13.648	22.792	1881.386	1989.087
-12.633	22.643	1880.977	1986.891
-11.619	22.605	1880.354	1985.722
-10.604	22.523	1878.487	1982.745
-9.590	22.621	1876.926	1982.123
-8.575	22.532	1876.025	1980.088
-7.560	22.514	1875.275	1979.022
-6.546	22.434	1874.214	1976.913
-5.531	22.620	1872.806	1977.453
-4.517	22.561	1871.325	1975.144
-3.502	22.623	1870.532	1974.922
-2.487	22.611	1869.104	1973.207
-1.473	22.558	1866.344	1969.618
-0.458	22.413	1846.889	1947.398
0.556	18.940	1994.204	2048.905
1.571	17.459	2197.794	2238.246
2.586	18.342	2236.395	2289.154
3.600	18.275	2239.114	2290.773
4.615	18.270	2238.017	2289.300
5.629	18.222	2236.346	2286.677
6.644	18.237	2234.078	2284.281
7.659	18.196	2231.896	2281.235
8.673	18.250	2230.601	2280.353
9.688	18.024	2239.937	2286.590
10.702	17.179	2319.216	2355.460
11.717	15.411	2383.062	2394.674
12.731	7.136	2363.218	2256.311
13.746	0.954	2347.335	2152.724
14.761	0.191	2344.019	2138.541
15.775	0.069	2342.687	2135.331
16.790	0.110	2340.319	2133.495
17.804	0.020	2338.719	2130.494
18.819	-0.008	2337.943	2129.133
19.834	0.092	2336.469	2128.958
20.848	0.066	2335.922	2127.847
21.863	0.053	2333.450	2125.155
22.877	-0.016	2332.629	2123.168
23.892	0.072	2329.108	2120.950
24.907	0.064	2326.928	2118.608
25.921	0.087	2325.313	2117.206
26.936	0.003	2322.898	2113.566
27.950	-0.046	2320.240	2110.206
28.965	0.016	2317.896	2108.694
29.980	0.019	2316.953	2107.631
30.994	0.131	2314.465	2106.691
32.009	3.829	2325.129	2168.334
33.023	12.811	2351.795	2320.565
34.038	16.494	2357.833	2378.401
35.053	16.435	2354.243	2373.664
36.067	16.378	2350.764	2369.073
37.082	16.361	2349.836	2367.617
38.096	16.358	2349.170	2366.613
39.111	16.801	2346.783	2370.158
40.126	16.891	2343.931	2368.254
41.140	17.037	2343.743	2369.833
42.155	17.165	2341.522	2369.097
43.169	17.013	2339.978	2365.130
44.184	16.909	2336.062	2359.433
45.199	16.858	2333.916	2356.269
46.213	16.915	2333.301	2356.166
47.228	17.051	2333.169	2357.646
48.242	17.100	2330.837	2355.692
49.257	17.192	2329.242	2355.075
50.271	17.307	2325.973	2353.085
51.286	17.021	2322.984	2345.810
52.301	16.638	2321.356	2338.568
53.315	17.453	2324.476	2352.763
54.330	20.473	2332.904	2403.060
55.344	22.350	2333.648	2429.617
56.359	22.464	2330.505	2427.631
57.374	22.563	2330.575	2428.788
58.388	22.808	2327.352	2428.524
59.403	22.441	2323.985	2419.649
60.417	22.296	2318.969	2412.143
61.432	22.201	2318.591	2410.150
62.447	22.461	2317.726	2412.542
63.461	22.655	2316.440	2413.581
64.476	22.753	2313.792	2411.880
65.490	22.368	2311.557	2403.974
66.505	21.605	2307.444	2388.960
67.520	19.421	2299.422	2350.487
68.534	17.174	2291.157	2311.063
69.549	16.665	2285.296	2297.920
70.563	16.582	2282.758	2293.963
71.578	16.534	2281.488	2291.757
72.593	16.689	2278.988	2291.091
73.607	16.626	2279.052	2290.017
74.622	16.697	2276.884	2288.529
75.636	16.625	2273.748	2284.122
76.651	16.532	2272.253	2281.091
77.666	16.537	2269.121	2277.740
78.680	16.475	2266.005	2273.510
79.695	16.206	2265.350	2268.936
80.709	16.294	2262.922	2267.420
81.724	16.207	2261.253	2264.304
82.739	16.214	2258.937	2261.805
83.753	16.265	2256.871	2260.155
84.768	16.195	2255.418	2257.487
85.782	16.147	2254.310	2255.465
86.797	16.121	2251.498	2252.030
87.812	16.167	2250.408	2251.297
88.826	16.379	2248.608	2252.061
89.841	16.391	2246.204	2249.549
90.855	16.473	2243.395	2247.555
91.870	16.552	2241.850	2246.792
92.884	16.517	2240.518	2244.728
93.899	16.573	2239.374	2244.054
94.914	17.204	2243.151	2256.005
95.928	19.885	2250.617	2299.089
96.943	20.719	2248.184	2307.444
97.957	18.044	2239.048	2262.249
98.972	16.487	2231.863	2234.046
99.987	16.466	2227.516	2229.152
101.001	16.426	2225.149	2225.986
102.016	16.525	2223.955	2225.831
103.030	16.361	2222.202	2221.643
104.045	16.394	2218.377	2217.994
105.060	16.408	2216.500	2216.036
106.074	16.331	2214.895	2213.153
107.089	16.318	2213.591	2211.415
108.103	16.254	2212.146	2208.868
109.118	16.389	2210.573	2208.805
110.133	16.473	2209.930	2208.996
111.147	16.433	2206.478	2204.763
112.162	16.388	2205.774	2203.199
113.176	16.630	2203.656	2203.986
114.191	16.678	2202.436	2203.134
115.206	16.539	2200.852	2199.470
116.220	16.436	2198.989	2196.006
117.235	16.580	2196.620	2195.248
118.249	16.596	2194.424	2193.007
119.264	16.396	2193.940	2189.654
120.279	16.465	2191.893	2188.243
121.293	16.508	2189.955	2186.601
122.308	16.555	2188.266	2185.271
123.322	16.502	2187.571	2183.622
124.337	16.999	2189.102	2191.343
125.352	19.854	2197.067	2236.197
126.366	20.507	2194.263	2241.544
127.381	17.716	2183.132	2193.855
128.395	16.456	2178.376	2172.553
129.410	16.475	2175.664	2169.826
130.424	16.409	2174.186	2167.247
131.439	16.443	2173.515	2166.754
132.454	16.531	2171.396	2165.515
133.468	16.710	2169.434	2165.607
134.483	16.818	2167.727	2165.026
135.497	16.837	2166.446	2163.735
136.512	16.693	2163.649	2158.828
137.527	16.593	2161.917	2155.568
138.541	16.402	2160.134	2151.085
139.556	16.334	2159.804	2149.625
140.570	16.386	2157.453	2147.696
141.585	16.308	2154.982	2143.985
142.600	16.192	2154.005	2141.273
143.614	16.227	2152.771	2140.244
144.629	16.204	2150.553	2137.490
145.643	16.234	2148.716	2135.785
146.658	16.121	2147.087	2132.471
147.673	15.995	2145.223	2128.761
148.687	16.184	2143.736	2129.436
149.702	16.468	2144.434	2133.482
150.716	16.516	2142.953	2132.360
151.731	16.455	2141.340	2129.726
152.746	16.453	2141.585	2129.683
153.760	17.269	2143.923	2142.098
154.775	20.118	2151.050	2185.118
155.789	20.920	2148.545	2192.458
156.804	18.466	2137.672	2150.182
157.819	16.600	2130.482	2119.227
158.833	16.422	2127.991	2114.261
159.848	16.421	2126.410	2112.424
160.862	16.495	2125.049	2111.751
161.877	16.482	2125.011	2111.297
162.892	16.568	2123.632	2110.752
163.906	16.641	2121.812	2109.597
164.921	16.652	2119.105	2106.790
165.935	16.527	2117.485	2103.368
166.950	16.808	2115.077	2104.228
167.964	16.693	2113.047	2100.524
168.979	16.386	2110.661	2094.083
169.994	16.395	2109.621	2092.914
171.008	16.382	2107.908	2090.792
172.023	16.253	2106.713	2087.759
173.037	16.398	2106.159	2088.765
174.052	16.553	2104.677	2088.965
175.067	16.411	2102.879	2085.168
176.081	16.232	2101.220	2081.057
177.096	16.334	2100.305	2081.169
178.110	16.496	2098.133	2080.771
179.125	16.671	2097.117	2081.671
180.140	16.607	2095.261	2078.797
181.154	16.450	2095.508	2076.856
182.169	16.661	2094.198	2077.911
183.183	17.480	2096.758	2090.317
184.198	20.657	2103.615	2136.178
185.213	21.040	2101.389	2138.381
186.227	18.022	2091.252	2090.738
187.242	16.719	2087.333	2070.571
188.256	16.673	2084.403	2066.848
189.271	16.482	2083.102	2062.974
190.286	16.510	2080.891	2060.875
191.300	16.440	2078.783	2057.689
192.315	16.589	2077.070	2057.562
193.329	16.847	2075.591	2059.003
194.344	16.889	2076.138	2059.808
195.359	17.028	2074.684	2059.814
196.373	16.690	2072.356	2053.147
197.388	16.494	2068.858	2047.046
198.402	16.379	2066.851	2043.416
199.417	16.374	2064.496	2040.787
200.432	16.420	2064.165	2040.770
201.446	16.480	2062.262	2039.369
202.461	16.496	2060.577	2037.656
203.475	16.373	2058.311	2033.681
204.490	16.374	2055.741	2030.911
205.504	16.431	2054.555	2030.184
206.519	16.369	2053.525	2028.174
207.534	16.547	2051.558	2028.139
208.548	16.632	2050.006	2027.389
209.563	16.616	2049.812	2026.756
210.577	16.688	2048.330	2025.912
211.592	16.791	2047.553	2026.147
212.607	18.132	2052.343	2046.782
213.621	21.287	2060.030	2092.251
214.636	20.769	2053.253	2078.899
215.650	17.550	2044.583	2031.341
216.665	16.706	2040.714	2017.149
217.680	16.632	2038.753	2014.082
218.694	16.512	2037.152	2010.826
219.709	16.438	2034.892	2007.471
220.723	16.568	2033.721	2007.628
221.738	16.783	2032.145	2008.395
222.753	16.750	2030.741	2006.368
223.767	16.708	2029.508	2004.414
224.782	16.663	2027.012	2001.171
225.796	16.588	2026.906	1999.932
226.811	16.582	2024.304	1997.056
227.826	16.496	2023.077	1994.597
228.840	16.467	2020.726	1991.691
229.855	16.555	2019.339	1991.132
230.869	16.531	2018.761	1990.036
231.884	16.618	2015.665	1987.774
232.899	16.405	2015.367	1984.719
233.913	16.469	2014.440	1984.331
234.928	16.492	2011.950	1981.906
235.942	16.427	2010.777	1979.755
236.957	16.562	2008.711	1979.073
237.972	16.495	2008.243	1977.578
238.986	16.480	2006.453	1975.404
240.001	16.486	2004.103	1972.924
241.015	16.596	2003.115	1973.005
242.030	17.418	2006.454	1985.707
243.045	20.209	2012.941	2024.683
244.059	20.467	2009.363	2023.862
245.074	17.855	1998.995	1982.725
246.088	16.834	1995.435	1967.042
247.103	17.006	1994.174	1967.567
248.117	16.900	1993.586	1965.523
249.132	16.739	1991.821	1961.672
250.147	16.589	1989.314	1957.222
251.161	16.690	1987.834	1956.705
252.176	16.952	1986.733	1958.433
253.190	17.016	1986.206	1958.414
254.205	17.098	1984.339	1957.292
255.220	16.997	1982.666	1954.236
256.234	17.040	1980.760	1952.624
257.249	16.831	1979.580	1948.813
258.263	16.700	1978.569	1946.074
259.278	16.734	1977.836	1945.512
260.293	16.701	1974.873	1941.980
261.307	16.325	1973.053	1935.630
262.322	16.514	1970.747	1935.310
263.336	16.537	1968.361	1932.994
264.351	16.328	1966.953	1928.987
265.366	16.251	1966.382	1927.304
266.380	16.359	1964.773	1926.744
267.395	16.378	1963.869	1925.835
268.409	16.452	1962.292	1924.913
269.424	16.465	1960.622	1923.190
270.439	16.387	1960.423	1921.870
271.453	17.554	1963.052	1937.571
272.468	20.550	1968.915	1977.440
273.482	20.683	1964.834	1974.619
274.497	17.791	1955.483	1932.110
275.512	16.609	1951.044	1914.054
276.526	16.495	1948.302	1909.845
277.541	16.448	1946.022	1906.853
278.555	16.232	1944.905	1903.075
279.570	16.274	1942.639	1901.109
280.585	16.242	1942.172	1900.057
281.599	16.380	1940.544	1899.805
282.614	16.631	1939.639	1901.525
283.628	16.889	1939.890	1904.453
284.643	16.954	1939.527	1904.607
285.657	17.189	1937.742	1905.273
286.672	17.146	1936.507	1903.350
287.687	17.149	1934.854	1901.526
288.701	16.979	1933.693	1898.250
289.716	16.952	1932.268	1896.314
290.730	17.013	1930.345	1894.890
291.745	17.126	1928.934	1894.541
292.760	17.075	1928.105	1892.930
293.774	16.859	1926.453	1888.661
294.789	16.868	1925.057	1887.172
295.803	16.552	1922.863	1881.264
296.818	16.620	1921.273	1880.243
297.833	16.790	1920.863	1881.507
298.847	16.707	1919.214	1878.738
299.862	16.774	1918.091	1878.161
300.876	17.506	1919.891	1887.870
301.891	20.447	1926.794	1927.275
302.906	20.858	1923.751	1928.578
303.920	18.001	1914.155	1887.049
304.935	16.861	1911.116	1871.177
305.949	16.688	1908.878	1866.849
306.964	16.646	1906.125	1863.467
307.979	16.844	1904.835	1864.169
308.993	16.922	1904.438	1864.425
310.008	17.328	1903.293	1867.561
311.022	17.316	1902.120	1866.058
312.037	17.216	1899.385	1862.052
313.052	17.045	1898.091	1858.669
314.066	17.170	1896.299	1858.075
315.081	17.201	1896.414	1858.299
316.095	17.174	1894.041	1855.453
317.110	16.887	1892.135	1850.221
318.125	16.758	1890.242	1846.736
319.139	16.680	1890.150	1845.572
320.154	16.971	1888.810	1847.221
321.168	16.969	1886.318	1844.546
322.183	16.741	1885.006	1840.556
323.197	16.505	1884.043	1836.810
324.212	16.493	1881.012	1833.508
325.227	16.374	1879.600	1830.612
326.241	16.402	1877.707	1828.857
327.256	16.360	1876.521	1827.031
328.270	16.365	1875.439	1825.809
329.285	16.497	1875.424	1827.011
330.300	17.455	1880.604	1842.270
331.314	20.742	1886.302	1883.439
332.329	20.769	1880.778	1877.988
333.343	17.556	1871.621	1833.899
334.358	16.505	1867.569	1818.355
335.373	16.320	1865.350	1813.977
336.387	16.119	1863.338	1809.642
337.402	16.113	1862.370	1808.420
338.416	16.227	1861.132	1808.226
339.431	16.476	1859.602	1809.198
340.446	16.455	1857.723	1806.933
341.460	16.686	1857.586	1809.058
342.475	16.905	1856.107	1809.760
343.489	17.075	1854.954	1810.238
344.504	16.976	1854.236	1808.260
345.519	17.073	1853.064	1807.941
346.533	17.255	1850.411	1807.083
347.548	17.208	1850.151	1806.108
348.562	16.946	1849.446	1802.404
349.577	17.113	1847.699	1802.266
350.592	17.356	1847.496	1804.448
351.606	17.424	1846.168	1803.653
352.621	17.407	1843.639	1800.791
353.635	17.075	1842.448	1795.880
354.650	16.913	1840.302	1791.853
355.665	16.853	1837.740	1788.506
356.679	16.603	1837.505	1785.411
357.694	16.668	1835.833	1784.268
358.708	16.645	1834.371	1782.381
359.723	17.766	1839.293	1798.848
360.738	20.948	1843.671	1836.671
361.752	20.143	1838.260	1822.554
362.767	17.588	1830.929	1788.144
363.781	16.838	1827.441	1776.622
364.796	16.641	1826.282	1773.214
365.810	16.447	1824.515	1769.243
366.825	16.594	1823.420	1769.517
367.840	16.875	1823.241	1772.085
368.854	17.004	1822.090	1772.099
369.869	16.871	1820.631	1769.078
370.883	16.709	1819.082	1765.658
371.898	16.657	1816.991	1762.875
372.913	16.662	1816.165	1761.915
373.927	16.800	1815.378	1762.384
374.942	17.053	1813.640	1763.132
375.956	17.021	1813.489	1762.435
376.971	16.991	1811.129	1759.620
377.986	16.958	1809.073	1757.073
379.000	16.836	1808.138	1754.680
380.015	16.932	1805.944	1753.340
381.029	16.771	1803.342	1748.936
382.044	16.525	1802.078	1744.946
383.059	16.450	1800.733	1742.660
384.073	16.524	1799.994	1742.498
385.088	16.555	1799.107	1741.757
386.102	16.602	1797.400	1740.384
387.117	16.480	1794.980	1736.565
388.132	16.490	1795.930	1737.383
389.146	17.569	1800.144	1752.410
390.161	20.648	1804.581	1788.393
391.175	20.561	1797.007	1779.777
392.190	17.460	1788.615	1739.449
393.205	16.669	1785.691	1728.284
394.219	16.564	1784.535	1725.875
395.234	16.474	1783.413	1723.658
396.248	16.630	1780.778	1722.505
397.263	16.374	1778.855	1717.821
398.278	16.506	1776.483	1716.677
399.292	16.406	1776.024	1715.008
400.307	16.297	1776.115	1713.776
401.321	16.625	1774.746	1715.596
402.336	16.794	1773.306	1715.719
403.350	16.725	1772.244	1713.781
404.365	16.836	1770.881	1713.382
405.380	17.099	1770.823	1715.795
406.394	17.151	1769.883	1715.209
407.409	17.088	1767.557	1712.110
408.423	17.204	1766.452	1712.010
409.438	17.281	1764.543	1710.733
410.453	17.075	1764.279	1708.187
411.467	17.169	1764.066	1708.726
412.482	17.015	1761.971	1704.946
413.496	16.900	1759.626	1701.307
414.511	16.717	1757.883	1697.571
415.526	16.720	1754.878	1694.500
416.540	16.662	1752.579	1691.494
417.555	16.690	1753.129	1692.104
418.569	16.921	1754.019	1695.085
419.584	16.990	1754.709	1696.238
420.599	17.137	1754.211	1697.030
421.613	17.111	1751.724	1694.165
422.628	16.994	1750.354	1691.461
423.642	16.777	1748.668	1687.457
424.657	16.783	1747.072	1685.780
425.672	16.899	1744.943	1684.680
426.686	16.716	1743.901	1681.643
427.701	16.603	1743.208	1679.644
428.715	16.784	1740.985	1679.110
429.730	17.073	1740.195	1681.021
430.745	17.087	1738.141	1678.978
431.759	17.076	1738.172	1678.691
432.774	17.370	1738.901	1682.117
433.788	17.853	1739.712	1687.501
434.803	18.254	1738.834	1690.434
435.818	18.162	1738.053	1688.557
436.832	18.026	1736.893	1685.886
437.847	16.899	1729.682	1667.542
438.861	9.146	1709.491	1571.866
439.876	1.571	1694.969	1484.228
440.890	0.330	1692.155	1469.424
441.905	0.141	1691.197	1466.562
442.920	0.232	1689.145	1465.505
443.934	0.154	1687.464	1463.110
444.949	0.066	1686.798	1461.492
445.963	0.078	1686.881	1461.513
446.978	0.182	1685.768	1461.387
447.993	0.079	1684.153	1458.810
449.007	0.089	1681.977	1456.845
450.022	0.181	1679.268	1455.212
451.036	0.253	1678.004	1454.643
452.051	1.126	1682.924	1467.236
453.066	8.627	1699.744	1555.212
454.080	16.197	1711.661	1640.155
455.095	17.915	1713.773	1658.778
456.109	18.323	1713.985	1662.767
457.124	18.580	1713.089	1664.204
458.139	18.567	1713.070	1663.857
459.153	18.713	1711.891	1663.933
460.168	18.764	1709.915	1662.312
461.182	18.813	1708.225	1660.950
462.197	18.627	1706.340	1657.107
463.212	18.536	1704.778	1654.510
464.226	18.510	1704.053	1653.356
465.241	18.673	1702.280	1653.020
466.255	18.771	1701.608	1653.114
467.270	18.866	1700.210	1652.481
468.285	18.666	1698.595	1648.776
469.299	18.515	1698.058	1646.605
470.314	18.638	1696.137	1645.727
471.328	18.616	1694.016	1643.262
472.343	18.719	1693.240	1643.305
473.358	18.670	1693.119	1642.519
474.372	18.843	1690.764	1641.695
475.387	18.608	1688.909	1637.448
476.401	18.505	1687.683	1635.078
477.416	18.541	1686.458	1634.035
478.430	18.565	1685.941	1633.575
479.445	18.477	1683.988	1630.641
480.460	18.400	1682.852	1628.609
481.474	18.448	1682.301	1628.344
482.489	18.678	1681.389	1629.460
483.503	18.851	1680.305	1629.858
484.518	18.741	1679.589	1627.925
485.533	18.807	1677.754	1626.575
486.547	18.664	1676.619	1623.927
487.562	18.878	1675.333	1624.518
488.576	18.909	1673.714	1623.047
489.591	18.890	1672.516	1621.507
490.606	18.810	1670.775	1618.868
491.620	18.876	1668.997	1617.581
492.635	19.037	1667.641	1617.596
493.649	19.136	1667.040	1617.754
494.664	18.942	1665.095	1613.841
495.679	18.581	1663.177	1608.383
496.693	18.618	1662.465	1607.855
497.708	18.808	1661.004	1608.035
498.722	19.100	1660.318	1609.926
499.737	19.012	1659.990	1608.587
500.752	18.982	1657.126	1605.336
501.766	18.752	1655.730	1601.641
502.781	18.935	1653.552	1601.053
503.795	18.961	1652.934	1600.504
504.810	19.014	1651.659	1599.578
505.825	18.969	1651.353	1598.663
506.839	19.075	1649.910	1598.071
507.854	18.986	1649.164	1596.320
508.868	18.999	1646.947	1594.111
509.883	19.031	1646.495	1593.777
510.898	19.171	1645.864	1594.281
511.912	19.023	1643.797	1590.711
512.927	18.840	1642.396	1587.464
513.941	18.943	1640.348	1586.250
514.956	18.832	1638.908	1583.643
515.971	18.815	1638.041	1582.458
516.985	18.788	1637.577	1581.562
518.000	18.861	1636.639	1581.147
519.014	19.150	1635.932	1582.941
520.029	19.317	1633.866	1582.299
521.043	19.143	1632.776	1579.448
522.058	19.114	1631.224	1577.490
523.073	19.122	1631.785	1577.921
524.087	19.278	1630.962	1578.369
525.102	19.216	1629.249	1575.950
526.116	18.988	1626.818	1571.317
527.131	18.946	1625.881	1569.840
528.146	19.315	1624.835	1572.023
529.160	19.345	1623.862	1571.173
530.175	19.344	1623.670	1570.786
531.189	19.354	1621.993	1569.065
532.204	19.405	1620.183	1567.592
533.219	19.251	1618.674	1564.542
534.233	18.992	1618.258	1561.587
535.248	19.270	1617.302	1563.020
536.262	19.453	1616.688	1563.899
537.277	19.330	1615.267	1561.225
538.292	19.147	1613.108	1557.285
539.306	19.153	1611.192	1555.305
540.321	19.121	1610.214	1553.881
541.335	19.210	1608.503	1552.847
542.350	19.146	1607.752	1551.362
543.365	19.360	1606.409	1551.817
544.379	19.404	1604.862	1550.529
545.394	19.453	1603.738	1549.708
546.408	19.267	1602.637	1546.780
547.423	19.009	1600.644	1542.343
548.438	18.978	1599.806	1541.074
549.452	19.168	1598.978	1541.802
550.467	19.205	1597.756	1540.773
551.481	19.179	1596.870	1539.494
552.496	19.375	1597.304	1541.488
553.511	19.546	1595.340	1540.946
554.525	19.395	1595.132	1539.208
555.540	19.438	1594.324	1538.628
556.554	19.708	1592.623	1539.220
557.569	19.519	1590.682	1535.470
558.583	19.395	1588.875	1532.436
559.598	19.488	1588.140	1532.374
560.613	19.528	1586.452	1530.916
561.627	19.426	1585.858	1529.251
562.642	19.627	1584.362	1529.413
563.656	19.676	1583.798	1529.123
564.671	19.585	1582.430	1526.810
565.686	19.650	1580.849	1525.676
566.700	19.430	1578.970	1521.736
567.715	19.368	1577.520	1519.606
568.729	19.051	1576.264	1515.405
569.744	18.967	1574.420	1512.711
570.759	18.913	1573.992	1511.643
571.773	19.212	1572.694	1512.854
572.788	19.417	1571.193	1513.040
573.802	19.521	1570.352	1512.962
574.817	19.557	1569.015	1511.812
575.832	19.814	1568.455	1513.345
576.846	19.816	1566.506	1511.305
577.861	19.607	1565.050	1507.885
578.875	19.674	1565.374	1508.602
579.890	19.894	1564.085	1509.110
580.905	19.787	1563.289	1507.222
581.919	19.887	1563.396	1508.018
582.934	19.870	1561.763	1506.122
583.948	19.950	1559.921	1504.860
584.963	19.969	1558.755	1503.721
585.978	19.510	1557.901	1498.713
586.992	19.550	1557.653	1498.641
588.007	19.886	1556.133	1499.933
589.021	19.512	1553.967	1494.405
590.036	19.082	1553.046	1489.603
591.051	19.468	1551.898	1491.676
592.065	19.649	1549.916	1491.167
593.080	19.750	1548.698	1490.687
594.094	19.748	1547.447	1489.287
595.109	19.547	1545.591	1485.588
596.123	19.238	1544.031	1481.243
597.138	19.622	1543.325	1483.700
598.153	19.823	1542.090	1484.074
599.167	19.644	1541.391	1481.678
600.182	19.833	1540.165	1481.953
601.196	19.885	1539.801	1481.871
602.211	19.833	1538.104	1479.611
603.226	19.997	1536.906	1479.692
604.240	20.148	1535.207	1479.175
605.255	20.107	1534.980	1478.428
606.269	20.072	1533.920	1476.930
607.284	20.002	1532.425	1474.711
608.299	19.997	1531.541	1473.639
609.313	19.735	1530.497	1470.227
610.328	19.872	1529.210	1469.976
611.342	20.027	1527.764	1469.733
612.357	19.986	1527.414	1468.877
613.372	19.939	1526.326	1467.255
614.386	19.921	1525.259	1465.897
615.401	20.242	1523.269	1466.539
616.415	20.175	1523.299	1465.817
617.430	20.103	1523.109	1464.853
618.445	20.196	1521.223	1463.653
619.459	20.118	1519.939	1461.578
620.474	19.908	1518.173	1457.926
621.488	19.438	1516.218	1451.905
622.503	19.289	1514.622	1448.944
623.518	19.797	1514.399	1452.846
624.532	20.099	1513.562	1454.412
625.547	20.084	1513.318	1453.884
626.561	20.268	1512.418	1454.391
627.576	20.398	1511.091	1454.036
628.591	20.075	1509.097	1449.227
629.605	19.537	1507.943	1443.428
630.620	19.616	1506.097	1442.154
631.634	19.478	1504.770	1439.547
632.649	19.424	1504.174	1438.353
633.663	19.701	1503.667	1440.017
634.678	20.026	1502.297	1441.256
635.693	20.206	1501.418	1441.743
636.707	20.273	1500.445	1441.193
637.722	20.486	1499.443	1441.834
638.736	20.532	1498.562	1441.198
639.751	20.441	1497.169	1438.924
640.766	20.431	1495.568	1437.131
641.780	20.434	1494.671	1436.121
642.795	20.291	1493.813	1433.945
643.809	20.340	1493.324	1433.706
644.824	20.291	1492.860	1432.679
645.839	20.160	1491.354	1429.979
646.853	20.334	1489.665	1429.631
647.868	20.407	1487.856	1428.326
648.882	20.366	1487.113	1427.107
649.897	20.269	1485.910	1424.978
650.912	20.276	1484.006	1423.035
651.926	20.184	1483.715	1421.833
652.941	19.986	1481.628	1418.035
653.955	19.734	1479.443	1413.698
654.970	19.565	1477.668	1410.447
655.985	19.592	1476.764	1409.635
656.999	19.571	1475.612	1408.195
658.014	19.876	1475.219	1410.152
659.028	19.948	1473.825	1409.241
660.043	20.088	1473.821	1410.213
661.058	20.254	1472.182	1409.827
662.072	20.426	1471.294	1410.212
663.087	20.255	1470.657	1408.044
664.101	20.374	1469.384	1407.624
665.116	20.508	1468.579	1407.771
666.131	20.380	1467.174	1405.217
667.145	20.311	1466.810	1404.144
668.160	20.575	1465.765	1405.114
669.174	20.694	1463.656	1403.892
670.189	20.590	1463.108	1402.358
671.204	20.477	1462.361	1400.557
672.218	20.395	1461.133	1398.550
673.233	20.705	1459.531	1399.352
674.247	20.671	1459.024	1398.423
675.262	20.742	1458.393	1398.225
676.276	20.615	1458.071	1396.729
677.291	20.587	1456.345	1394.681
678.306	20.466	1454.539	1391.806
679.320	20.387	1453.488	1389.997
680.335	20.532	1452.918	1390.455
681.349	20.651	1452.832	1391.164
682.364	20.652	1450.780	1389.043
683.379	20.642	1449.171	1387.255
684.393	20.655	1448.077	1386.146
685.408	20.655	1447.217	1385.153
686.422	20.536	1446.654	1383.498
687.437	20.562	1446.283	1383.189
688.452	20.694	1446.063	1383.863
689.466	20.651	1443.073	1380.495
690.481	20.414	1442.231	1377.637
691.495	20.240	1440.764	1374.684
692.510	19.790	1438.794	1369.058
693.525	19.633	1436.586	1365.550
694.539	19.961	1435.754	1367.195
695.554	20.327	1436.571	1370.718
696.568	20.597	1436.499	1372.626
697.583	20.755	1435.544	1372.798
698.598	20.702	1435.008	1371.700
699.612	20.843	1434.204	1371.891
700.627	20.868	1432.032	1369.842
701.641	20.963	1430.178	1368.654
702.656	20.755	1429.841	1366.532
703.671	20.917	1429.659	1367.471
704.685	20.994	1429.196	1367.471
705.700	20.906	1427.580	1365.069
706.714	20.723	1425.965	1361.921
707.729	20.503	1424.251	1358.395
708.744	20.489	1422.982	1356.906
709.758	20.484	1421.469	1355.262
710.773	20.280	1420.167	1352.263
711.787	20.128	1418.738	1349.547
712.802	20.193	1416.974	1348.223
713.816	20.466	1416.710	1349.941
714.831	20.574	1416.500	1350.421
715.846	20.734	1415.411	1350.470
716.860	20.740	1414.396	1349.384
717.875	20.790	1413.326	1348.596
718.889	20.567	1412.845	1346.234
719.904	20.739	1411.743	1346.361
720.919	20.886	1410.012	1345.696
721.933	20.956	1409.475	1345.565
722.948	20.917	1408.967	1344.615
723.962	20.921	1408.018	1343.576
724.977	21.162	1406.365	1343.708
725.992	21.056	1405.391	1341.791
727.006	21.069	1403.820	1340.229
728.021	21.022	1402.559	1338.503
729.035	21.086	1401.378	1337.716
730.050	20.987	1401.084	1336.506
731.065	21.041	1399.967	1335.697
732.079	21.177	1398.924	1335.590
733.094	20.907	1397.647	1332.135
734.108	20.726	1396.303	1329.310
735.123	20.920	1394.688	1329.093
736.138	20.979	1393.632	1328.383
737.152	21.105	1392.890	1328.479
738.167	21.138	1391.646	1327.389
739.181	21.166	1390.841	1326.673
740.196	21.156	1390.743	1326.343
741.211	21.080	1389.652	1324.564
742.225	21.080	1388.737	1323.539
743.240	21.080	1387.305	1322.012
744.254	21.054	1385.022	1319.485
745.269	21.019	1384.655	1318.711
746.284	21.100	1384.166	1318.703
747.298	20.879	1382.313	1315.103
748.313	20.515	1381.004	1310.936
749.327	20.062	1379.758	1306.164
750.342	20.026	1378.453	1304.502
751.356	19.601	1377.290	1300.034
752.371	19.911	1376.335	1301.316
753.386	20.485	1376.098	1305.274
754.400	20.956	1375.706	1308.300
755.415	21.097	1374.907	1308.443
756.429	21.291	1373.311	1308.229
757.444	21.068	1372.282	1305.419
758.459	21.036	1371.820	1304.581
759.473	21.289	1370.765	1305.319
760.488	21.327	1369.340	1304.094
761.502	21.263	1368.288	1302.453
762.517	21.154	1366.656	1299.931
763.532	21.121	1365.088	1298.033
764.546	20.919	1363.805	1295.155
765.561	20.456	1363.262	1291.022
766.575	20.107	1361.010	1286.136
767.590	20.086	1359.896	1284.766
768.605	20.407	1359.714	1286.834
769.619	20.714	1359.098	1288.382
770.634	20.987	1358.216	1289.424
771.648	21.136	1357.510	1289.709
772.663	21.345	1356.784	1290.414
773.678	21.137	1356.656	1288.595
774.692	21.160	1356.209	1288.184
775.707	21.308	1355.183	1288.152
776.721	21.259	1354.558	1287.039
777.736	21.446	1352.739	1286.543
778.751	21.322	1351.702	1284.485
779.765	21.310	1350.560	1283.155
780.780	21.310	1349.574	1282.064
781.794	21.198	1348.787	1280.340
782.809	21.092	1348.370	1279.008
783.824	21.082	1346.384	1276.901
784.838	20.765	1344.117	1272.271
785.853	20.064	1343.161	1266.066
786.867	20.309	1342.816	1267.386
787.882	20.512	1343.001	1268.902
788.897	20.834	1341.349	1269.549
789.911	20.906	1340.796	1269.399
790.926	20.962	1340.204	1269.097
791.940	21.117	1339.117	1269.044
792.955	21.064	1337.391	1266.873
793.969	21.208	1336.640	1267.059
794.984	21.164	1336.171	1266.141
795.999	21.305	1335.026	1265.933
797.013	21.496	1333.119	1265.361
798.028	21.426	1331.658	1263.314
799.042	21.442	1331.464	1263.094
800.057	21.488	1330.082	1261.971
801.072	21.511	1329.365	1261.304
802.086	21.152	1328.723	1257.943
803.101	21.248	1327.178	1257.025
804.115	21.465	1325.770	1257.111
805.130	21.534	1324.883	1256.615
806.145	21.366	1324.462	1254.852
807.159	21.439	1322.575	1253.442
808.174	21.421	1320.396	1251.095
809.188	21.192	1319.102	1248.078
810.203	20.839	1318.355	1244.682
811.218	20.830	1315.994	1242.242
812.232	20.475	1313.949	1237.624
813.247	20.357	1314.048	1236.724
814.261	20.609	1314.246	1238.564
815.276	21.081	1313.361	1240.958
816.291	21.160	1312.347	1240.419
817.305	21.478	1311.719	1241.946
818.320	21.461	1310.233	1240.267
819.334	21.430	1308.554	1238.307
820.349	21.472	1307.676	1237.624
821.364	21.647	1305.680	1236.831
822.378	21.454	1304.568	1234.261
823.393	21.548	1303.213	1233.495
824.407	21.340	1302.384	1231.093
825.422	21.407	1302.325	1231.362
826.437	21.455	1300.960	1230.264
827.451	21.149	1298.219	1225.367
828.466	20.556	1296.439	1219.359
829.480	20.353	1294.585	1216.043
830.495	20.628	1293.991	1217.271
831.509	20.939	1293.740	1219.081
832.524	21.127	1293.110	1219.659
833.539	21.342	1291.986	1219.966
834.553	21.436	1291.263	1219.796
835.568	21.459	1290.277	1218.879
836.582	21.606	1289.156	1218.703
837.597	21.628	1287.168	1216.830
838.612	21.461	1286.107	1214.513
839.626	21.420	1284.771	1212.824
840.641	21.147	1283.764	1209.825
841.655	20.897	1282.595	1206.841
842.670	20.479	1281.590	1202.839
843.685	20.056	1280.347	1198.586
844.699	20.847	1279.086	1202.754
845.714	21.216	1277.589	1203.765
846.728	21.395	1277.231	1204.522
847.743	21.464	1276.464	1204.128
848.758	21.471	1276.288	1203.867
849.772	21.459	1274.645	1202.091
850.787	21.641	1272.961	1201.614
851.801	21.545	1272.236	1200.122
852.816	21.461	1270.959	1198.200
853.831	21.344	1269.384	1195.768
854.845	21.423	1267.100	1194.014
855.860	21.187	1265.610	1190.849
856.874	21.154	1264.817	1189.736
857.889	21.008	1263.259	1187.125
858.904	20.669	1261.652	1183.157
859.918	20.468	1258.898	1179.060
860.933	20.183	1258.734	1176.822
861.947	20.629	1258.370	1179.382
862.962	20.940	1257.445	1180.491
863.977	20.890	1256.748	1179.355
864.991	21.127	1255.928	1180.055
866.006	21.235	1255.654	1180.390
867.020	21.349	1254.763	1180.188
868.035	21.414	1253.622	1179.414
869.049	21.619	1252.464	1179.569
870.064	21.497	1251.873	1178.047
871.079	21.488	1251.346	1177.351
872.093	21.501	1250.292	1176.308
873.108	21.494	1249.345	1175.228
874.122	21.337	1247.872	1172.641
875.137	21.003	1246.803	1169.248
876.152	20.743	1245.547	1166.180
877.166	20.999	1244.101	1166.409
878.181	21.410	1243.199	1168.180
879.195	21.352	1243.011	1167.477
880.210	21.407	1242.293	1167.033
881.225	21.669	1241.122	1167.544
882.239	21.595	1240.355	1166.187
883.254	21.471	1239.484	1164.402
884.268	21.604	1238.649	1164.368
885.283	21.581	1237.366	1162.866
886.298	21.587	1235.752	1161.250
887.312	21.605	1235.079	1160.602
888.327	21.608	1234.194	1159.649
889.341	21.549	1232.229	1157.269
890.356	21.527	1231.275	1156.091
891.371	21.533	1231.055	1155.787
892.385	21.406	1230.158	1153.965
893.400	21.269	1229.520	1152.317
894.414	21.166	1227.745	1149.834
895.429	20.837	1226.253	1146.124
896.444	20.311	1223.405	1139.852
897.458	19.845	1222.599	1135.892
898.473	20.221	1222.758	1138.386
899.487	20.869	1222.653	1142.421
900.502	21.026	1221.616	1142.349
901.517	21.200	1220.543	1142.354
902.531	21.522	1219.348	1143.219
903.546	21.563	1218.786	1142.821
904.560	21.516	1218.246	1141.870
905.575	21.589	1217.539	1141.548
906.589	21.474	1216.686	1139.858
907.604	21.610	1215.645	1139.638
