DTS Sentinel unit serial number:	SN409020Multiplexer serial number:	ORYXHardware model number:	OX4-SRSoftware version number:	ORYX F/W v3.00 Oryx Data Collector v3.7.2.0data status	okinstallation	HaddamTimeLapsedifferential loss correction	single-endedforward channel	channel 3reverse channel	N/Adate	2011/06/22time	04:16:17forward acquisition time	30.00reverse acquisition time	0.00gamma	498.7831k internal	0.1752k external	0.1752temperature offset calibration	1.0074default loss term (dB/km)	0.3790temperature slope calibration	1.3530multiplexer offset coefficient	1.0000multiplexer slope coefficient	1.0000fibre end	0.00T internal ref (°C)	22.62T ext. ref 1 (°C)	18.25T ext. ref 2 (°C)	0.11length (m)	temperature (°C)	Stokes	anti-Stokes-747.200	-200.000	-0.025	-0.146
-746.185	-127.817	0.474	0.090
-745.171	-200.000	0.006	0.295
-744.156	125.337	0.170	-0.286
-743.142	-64.710	-0.187	0.100
-742.127	-30.398	-0.503	0.378
-741.112	-57.306	-0.184	0.107
-740.098	101.333	-0.172	-0.267
-739.083	-106.322	-0.161	-0.048
-738.069	800.000	0.128	0.667
-737.054	-84.457	-0.404	0.169
-736.039	161.577	0.008	-0.015
-735.025	94.692	0.175	-0.265
-734.010	-73.100	0.447	0.217
-732.996	616.863	-0.093	0.311
-731.981	-200.000	0.018	-0.272
-730.966	-121.772	-0.357	-0.078
-729.952	-112.083	0.173	0.046
-728.937	-72.069	0.482	0.237
-727.923	-111.649	-0.222	-0.059
-726.908	203.449	-0.283	-0.583
-725.894	-66.617	0.311	-0.163
-724.879	-29.577	-0.106	0.080
-723.864	800.000	0.076	0.335
-722.850	-23.016	-0.324	-0.259
-721.835	-94.634	-0.575	0.206
-720.821	-79.771	0.379	0.169
-719.806	-185.677	0.235	-0.005
-718.791	800.000	-0.051	-0.212
-717.777	-200.000	-0.076	0.635
-716.762	104.911	0.144	-0.225
-715.748	-83.924	-0.288	0.121
-714.733	305.759	-0.087	-0.215
-713.718	-186.940	0.404	0.007
-712.704	-103.921	-0.477	0.147
-711.689	-43.816	-0.686	-0.457
-710.675	-43.810	0.220	0.146
-709.660	-200.000	-0.010	-0.106
-708.645	-200.000	0.065	-0.492
-707.631	-200.000	-0.047	0.443
-706.616	-62.595	-0.373	-0.204
-705.602	-200.000	0.003	-0.409
-704.587	-19.182	0.240	0.197
-703.572	-177.589	0.531	0.017
-702.558	-91.209	0.381	-0.144
-701.543	46.828	-0.177	0.219
-700.529	295.610	-0.175	0.427
-699.514	-116.769	-0.463	0.112
-698.499	119.367	0.132	-0.216
-697.485	252.497	-0.097	0.220
-696.470	284.564	0.118	0.282
-695.456	-200.000	-0.045	0.321
-694.441	157.969	0.094	0.173
-693.426	-11.051	0.420	0.367
-692.412	-200.000	0.003	-0.128
-691.397	800.000	0.131	-0.495
-690.383	-67.105	0.501	0.261
-689.368	-20.972	-0.059	0.047
-688.354	731.651	-0.034	-0.121
-687.339	-164.024	0.468	0.028
-686.324	51.798	0.160	0.202
-685.310	-0.381	-0.181	0.170
-684.295	-69.353	-0.353	-0.179
-683.281	288.740	0.061	-0.147
-682.266	-56.286	-0.441	-0.259
-681.251	-9.176	-0.414	0.366
-680.237	30.205	0.331	-0.374
-679.222	-136.535	0.438	0.067
-678.208	-200.000	-0.001	-0.041
-677.193	247.220	-0.080	-0.180
-676.178	299.958	0.108	-0.264
-675.164	-22.198	-0.141	0.113
-674.149	-40.599	-0.246	0.169
-673.135	272.033	-0.130	0.304
-672.120	-148.888	-0.619	0.065
-671.105	72.250	-0.297	-0.411
-670.091	-72.533	-0.191	-0.093
-669.076	800.000	-0.067	-0.362
-668.062	65.658	0.205	0.275
-667.047	-200.000	0.062	-0.487
-666.032	162.488	-0.167	0.311
-665.018	-145.008	0.113	0.014
-664.003	739.388	-0.163	-0.582
-662.989	-151.783	-0.074	-0.007
-661.974	441.945	0.109	0.316
-660.959	35.505	0.403	0.469
-659.945	654.542	-0.046	0.159
-658.930	63.607	-0.096	0.127
-657.916	261.820	0.244	-0.561
-656.901	-200.000	0.029	-0.306
-655.886	14.308	0.306	-0.315
-654.872	15.905	0.126	-0.131
-653.857	-200.000	0.013	0.506
-652.843	-61.468	0.110	-0.061
-651.828	27.029	-0.298	-0.331
-650.814	-191.020	-0.035	-0.000
-649.799	-127.496	0.316	-0.060
-648.784	-200.000	0.025	-0.348
-647.770	-52.371	0.183	-0.112
-646.755	-110.266	0.228	0.062
-645.741	38.165	0.380	-0.447
-644.726	98.427	0.169	0.259
-643.711	-149.330	0.590	-0.061
-642.697	573.457	0.054	-0.174
-641.682	-181.792	-0.298	0.007
-640.668	-125.645	0.143	0.028
-639.653	259.871	-0.163	0.373
-638.638	-85.073	0.375	-0.154
-637.624	-105.023	-0.318	-0.096
-636.609	249.118	-0.162	-0.365
-635.595	-200.000	-0.009	0.198
-634.580	-60.956	-0.151	0.084
-633.565	99.917	-0.156	-0.240
-632.551	-88.537	0.282	-0.111
-631.536	-23.711	0.461	-0.365
-630.522	-76.097	-0.269	-0.125
-629.507	-18.342	-0.109	0.090
-628.492	-57.321	-0.479	-0.278
-627.478	-200.000	0.016	-0.244
-626.463	361.172	0.208	0.552
-625.449	78.734	0.140	-0.199
-624.434	-159.894	0.034	-0.002
-623.419	800.000	-0.028	-0.105
-622.405	-200.000	0.035	-0.485
-621.390	-134.572	0.449	0.072
-620.376	48.196	-0.021	-0.026
-619.361	-67.552	-0.469	-0.242
-618.346	800.000	0.094	-0.439
-617.332	31.109	-0.343	-0.389
-616.317	-200.000	-0.009	-0.114
-615.303	-129.940	-0.228	0.041
-614.288	767.114	0.116	-0.420
-613.273	363.317	-0.059	0.159
-612.259	38.389	0.127	0.150
-611.244	-15.935	-0.167	-0.140
-610.230	43.239	0.130	0.157
-609.215	-200.000	0.040	0.309
-608.201	800.000	-0.117	-0.608
-607.186	-41.162	0.124	0.084
-606.171	-113.630	0.222	0.057
-605.157	77.275	-0.185	0.260
-604.142	-107.643	-0.156	-0.045
-603.128	-12.589	-0.635	-0.546
-602.113	-200.000	-0.019	-0.400
-601.098	-200.000	0.154	-0.001
-600.084	-140.025	0.105	-0.014
-599.069	-68.416	-0.289	-0.148
-598.055	-134.506	-0.211	0.034
-597.040	84.463	-0.166	0.240
-596.025	-111.272	0.186	-0.050
-595.011	-200.000	0.029	0.268
-593.996	241.898	0.080	0.177
-592.982	15.585	-0.106	-0.110
-591.967	-82.437	-0.107	-0.045
-590.952	-54.712	-0.193	-0.115
-589.938	-200.000	-0.095	-0.648
-588.923	197.352	-0.150	-0.303
-587.909	-200.000	-0.003	-0.705
-586.894	-153.844	0.209	-0.019
-585.879	-89.081	0.404	0.157
-584.865	800.000	0.060	-0.263
-583.850	280.263	-0.077	-0.182
-582.836	-93.366	-0.589	-0.214
-581.821	-200.000	-0.048	-0.429
-580.806	-48.504	0.243	-0.154
-579.792	1.948	-0.188	-0.179
-578.777	800.000	-0.076	-0.307
-577.763	-145.100	0.129	-0.015
-576.748	91.857	0.202	0.300
-575.733	800.000	0.040	0.215
-574.719	-111.758	-0.347	0.092
-573.704	-123.603	-0.459	-0.095
-572.690	116.544	-0.067	-0.109
-571.675	-73.578	0.328	-0.157
-570.661	-152.612	-0.462	-0.043
-569.646	-200.000	0.029	0.177
-568.631	11.909	0.208	0.211
-567.617	-6.453	-0.132	0.118
-566.602	112.567	-0.194	-0.310
-565.588	-35.971	0.406	0.289
-564.573	373.995	-0.183	-0.494
-563.558	-19.507	-0.055	-0.045
-562.544	6.123	0.118	0.115
-561.529	434.866	0.155	0.447
-560.515	-51.299	-0.262	-0.161
-559.500	-102.363	-0.308	0.097
-558.485	-8.053	-0.188	0.167
-557.471	-28.003	0.217	0.165
-556.456	-200.000	0.011	0.189
-555.442	800.000	-0.069	0.359
-554.427	-37.619	0.208	-0.146
-553.412	561.862	-0.150	-0.482
-552.398	800.000	-0.083	-0.456
-551.383	-200.000	-0.006	0.033
-550.369	-173.828	-0.420	-0.016
-549.354	-65.750	-0.196	-0.103
-548.339	-148.950	0.281	-0.029
-547.325	39.749	0.231	-0.274
-546.310	-8.630	-0.341	-0.301
-545.296	-200.000	-0.032	-0.211
-544.281	800.000	-0.147	-0.545
-543.266	170.646	-0.096	0.183
-542.252	-85.968	0.156	-0.063
-541.237	-108.043	-0.425	0.121
-540.223	-5.615	0.473	0.427
-539.208	186.908	0.124	-0.245
-538.193	70.007	0.188	0.256
-537.179	800.000	0.030	0.170
-536.164	-150.802	0.491	0.048
-535.150	-200.000	-0.029	-0.454
-534.135	43.109	-0.285	-0.343
-533.121	-57.651	-0.198	0.114
-532.106	-84.491	-0.166	0.069
-531.091	242.375	0.125	0.277
-530.077	469.865	0.008	0.024
-529.062	-200.000	0.025	0.547
-528.048	-126.356	-0.259	-0.050
-527.033	-67.089	0.251	0.130
-526.018	-200.000	-0.025	0.255
-525.004	2.043	0.079	0.075
-523.989	-200.000	-0.044	-0.463
-522.975	221.278	-0.093	0.198
-521.960	-200.000	0.060	0.419
-520.945	-200.000	-0.008	0.143
-519.931	-90.932	-0.115	0.043
-518.916	105.226	-0.074	-0.115
-517.902	706.235	-0.075	-0.262
-516.887	-83.528	-0.083	-0.035
-515.872	16.705	0.095	0.099
-514.858	612.922	0.017	-0.057
-513.843	224.146	-0.039	-0.083
-512.829	538.174	0.105	-0.330
-511.814	259.021	0.155	-0.353
-510.799	8.109	0.294	0.290
-509.785	-200.000	0.050	0.352
-508.770	42.498	-0.149	0.178
-507.756	-100.050	-0.559	0.182
-506.741	83.483	0.201	-0.289
-505.726	-117.950	0.142	-0.033
-504.712	115.608	0.261	-0.420
-503.697	-103.266	0.186	-0.057
-502.683	374.356	0.081	-0.218
-501.668	-105.130	0.504	0.150
-500.653	-36.041	-0.401	0.284
-499.639	431.703	-0.110	0.314
-498.624	800.000	-0.083	-0.361
-497.610	-147.833	-0.335	0.036
-496.595	-181.536	0.262	-0.007
-495.581	-161.415	0.227	0.015
-494.566	-200.000	-0.033	0.439
-493.551	326.511	-0.065	0.165
-492.537	-80.503	0.270	-0.118
-491.522	113.050	-0.137	-0.219
-490.508	60.120	0.266	0.345
-489.493	-200.000	-0.071	0.503
-488.478	-200.000	0.027	0.208
-487.464	-200.000	0.001	0.402
-486.449	-200.000	0.000	-0.171
-485.435	-113.718	-0.368	-0.094
-484.420	97.706	-0.128	-0.194
-483.405	11.596	-0.211	-0.213
-482.391	345.867	0.115	0.297
-481.376	-55.984	0.314	0.183
-480.362	15.169	-0.114	0.117
-479.347	175.862	-0.089	0.170
-478.332	230.505	-0.190	0.409
-477.318	202.003	0.099	0.201
-476.303	-55.224	0.212	-0.125
-475.289	324.800	-0.185	-0.466
-474.274	50.337	-0.165	-0.205
-473.259	-67.186	-0.214	0.110
-472.245	-36.034	-0.550	0.390
-471.230	231.989	0.086	-0.187
-470.216	-200.000	-0.001	0.027
-469.201	40.309	0.506	-0.598
-468.186	28.428	-0.202	-0.224
-467.172	800.000	0.060	-0.345
-466.157	48.875	-0.157	0.194
-465.143	-111.383	-0.160	-0.042
-464.128	151.749	-0.284	0.509
-463.113	-200.000	0.050	0.537
-462.099	800.000	0.025	0.140
-461.084	2.492	-0.156	0.148
-460.070	-138.738	0.880	-0.125
-459.055	-200.000	0.004	0.194
-458.040	-62.613	-0.311	-0.169
-457.026	800.000	-0.083	-0.355
-456.011	-78.297	0.109	0.049
-454.997	-150.332	0.160	-0.016
-453.982	52.410	-0.335	0.420
-452.968	-200.000	-0.052	0.358
-451.953	311.830	-0.327	0.810
-450.938	286.775	0.074	-0.177
-449.924	184.609	0.251	-0.490
-448.909	701.070	0.136	0.471
-447.895	-150.569	-0.384	-0.038
-446.880	212.003	-0.092	-0.190
-445.865	800.000	-0.056	-0.284
-444.851	-49.822	0.352	-0.219
-443.836	-155.945	0.215	0.018
-442.822	-200.000	-0.024	0.278
-441.807	-112.414	-0.312	0.081
-440.792	95.556	-0.201	0.301
-439.778	58.738	0.250	0.322
-438.763	-126.641	0.132	0.025
-437.749	-200.000	0.053	-0.384
-436.734	257.365	-0.091	0.206
-435.719	-149.264	-0.266	0.028
-434.705	24.409	-0.206	0.224
-433.690	800.000	0.038	-0.196
-432.676	24.179	0.111	-0.121
-431.661	-200.000	-0.077	-0.636
-430.646	-49.412	-0.363	-0.227
-429.632	800.000	0.078	0.304
-428.617	-61.291	0.138	0.076
-427.603	69.994	0.220	-0.299
-426.588	312.100	-0.141	-0.349
-425.573	219.907	-0.138	0.291
-424.559	-120.008	0.058	-0.013
-423.544	-200.000	0.088	0.731
-422.530	800.000	0.134	0.519
-421.515	181.361	-0.033	-0.065
-420.500	-81.672	0.250	-0.107
-419.486	49.818	0.283	0.350
-418.471	11.714	-0.221	-0.222
-417.457	472.268	-0.298	0.884
-416.442	-158.597	-0.213	0.016
-415.428	55.341	-0.105	-0.133
-414.413	338.120	-0.083	0.213
-413.398	-200.000	0.373	0.000
-412.384	-20.097	0.174	0.140
-411.369	-28.345	-0.161	0.122
-410.355	-17.315	-0.235	0.194
-409.340	-200.000	-0.026	-0.194
-408.325	-200.000	-0.003	-0.332
-407.311	-69.177	0.259	-0.130
-406.296	-125.965	-0.169	-0.033
-405.282	508.485	-0.093	0.283
-404.267	-77.879	0.345	0.155
-403.252	-111.230	0.137	0.036
-402.238	-122.222	0.696	0.148
-401.223	800.000	-0.073	0.342
-400.209	27.538	-0.056	-0.062
-399.194	-6.496	-0.127	0.113
-398.179	183.760	-0.016	0.030
-397.165	-23.058	-0.063	-0.049
-396.150	188.932	-0.160	0.316
-395.136	-200.000	0.002	-0.046
-394.121	-154.930	0.480	-0.041
-393.106	-93.907	-0.510	0.183
-392.092	192.286	0.113	0.225
-391.077	-77.690	0.379	-0.171
-390.063	-200.000	-0.007	-0.122
-389.048	-16.227	0.239	-0.199
-388.033	-75.254	-0.445	0.207
-387.019	607.043	0.098	0.323
-386.004	-150.506	0.151	0.015
-384.990	244.352	-0.161	0.355
-383.975	758.297	0.078	0.278
-382.960	3.006	-0.274	0.261
-381.946	343.667	-0.104	0.267
-380.931	-152.326	-0.065	-0.006
-379.917	-154.078	-0.105	0.009
-378.902	37.897	-0.132	-0.154
-377.888	-33.319	0.121	-0.087
-376.873	800.000	0.099	0.514
-375.858	45.291	0.367	0.444
-374.844	-181.538	0.322	-0.008
-373.829	-144.836	0.279	0.033
-372.815	25.231	-0.175	0.191
-371.800	-13.346	-0.191	0.162
-370.785	65.485	0.077	-0.102
-369.771	800.000	0.039	0.155
-368.756	-86.788	-0.152	-0.061
-367.742	-200.000	-0.057	-0.723
-366.727	697.869	0.112	-0.387
-365.712	-69.547	-0.254	0.127
-364.698	104.621	-0.228	0.352
-363.683	93.968	-0.020	0.030
-362.669	800.000	-0.055	-0.248
-361.654	50.910	0.334	-0.414
-360.639	-154.832	0.543	0.046
-359.625	-34.027	0.110	-0.079
-358.610	-57.918	0.229	-0.131
-357.596	-93.768	-0.254	-0.091
-356.581	-45.561	0.080	0.051
-355.566	-100.729	0.076	-0.024
-354.552	-77.900	-0.265	-0.119
-353.537	-116.892	0.344	-0.082
-352.523	-67.221	-0.262	0.135
-351.508	800.000	0.051	-0.261
-350.493	507.626	0.036	0.111
-349.479	68.075	0.108	0.145
-348.464	141.313	-0.063	0.109
-347.450	-176.739	0.071	0.002
-346.435	-59.144	-0.124	-0.070
-345.420	800.000	-0.103	-0.396
-344.406	-155.226	0.296	-0.025
-343.391	-50.236	0.203	-0.125
-342.377	-200.000	0.012	-0.375
-341.362	-200.000	0.027	0.291
-340.348	-73.721	-0.151	0.072
-339.333	-200.000	0.032	-0.214
-338.318	-89.244	0.310	0.119
-337.304	-185.925	-0.190	-0.004
-336.289	38.419	0.344	0.401
-335.275	800.000	0.028	-0.117
-334.260	-127.362	0.170	0.032
-333.245	-65.911	-0.173	-0.090
-332.231	800.000	-0.086	0.364
-331.216	-98.131	0.278	0.093
-330.202	-122.937	-0.478	0.100
-329.187	-200.000	0.001	-0.356
-328.172	-200.000	-0.001	-0.052
-327.158	-116.049	-0.078	-0.019
-326.143	245.076	-0.308	-0.679
-325.129	-63.207	-0.376	-0.202
-324.114	-0.225	-0.155	-0.144
-323.099	-156.095	0.148	-0.012
-322.085	25.843	0.266	-0.289
-321.070	-200.000	-0.026	-0.680
-320.056	-200.000	-0.017	-0.367
-319.041	-33.276	0.124	0.089
-318.026	-138.491	0.160	-0.023
-317.012	800.000	0.075	-0.272
-315.997	-86.090	-0.590	0.237
-314.983	800.000	0.095	0.388
-313.968	84.150	0.077	-0.111
-312.953	103.964	0.290	0.446
-311.939	-86.895	0.129	-0.051
-310.924	-176.349	-0.459	-0.015
-309.910	126.532	0.205	0.340
-308.895	93.564	0.228	-0.338
-307.880	-200.000	-0.035	-0.256
-306.866	144.123	-0.204	-0.356
-305.851	-142.490	0.248	-0.031
-304.837	-79.694	-0.273	0.119
-303.822	-115.562	-0.490	-0.119
-302.807	-21.383	0.368	0.292
-301.793	-121.931	0.101	-0.022
-300.778	-200.000	0.042	0.532
-299.764	-64.151	-0.293	0.156
-298.749	-149.201	0.279	-0.029
-297.735	-78.786	0.090	0.040
-296.720	-128.945	-0.294	0.053
-295.705	-90.915	-0.229	-0.085
-294.691	-200.000	0.004	-0.079
-293.676	39.131	-0.088	-0.103
-292.662	-200.000	-0.057	0.697
-291.647	399.932	-0.193	-0.531
-290.632	800.000	-0.166	0.714
-289.618	-95.924	0.385	-0.133
-288.603	-15.923	0.305	0.253
-287.589	82.993	0.122	0.173
-286.574	-146.778	0.423	-0.047
-285.559	-149.744	-0.468	-0.047
-284.545	150.075	-0.127	-0.225
-283.530	61.833	0.251	-0.326
-282.516	800.000	-0.093	0.445
-281.501	-200.000	0.018	0.437
-280.486	-121.447	0.067	-0.014
-279.472	258.294	-0.190	-0.429
-278.457	-64.940	0.158	-0.083
-277.443	2.764	-0.125	-0.118
-276.428	97.352	-0.050	0.075
-275.413	23.411	-0.194	0.208
-274.399	175.350	0.201	0.380
-273.384	-200.000	-0.024	0.219
-272.370	-99.047	-0.261	0.086
-271.355	-114.201	-0.032	-0.008
-270.340	-132.806	-0.012	0.002
-269.326	227.993	-0.074	0.157
-268.311	-86.750	0.153	0.061
-267.297	-47.244	0.174	0.110
-266.282	800.000	0.001	0.006
-265.267	437.826	0.060	0.172
-264.253	0.500	0.232	0.215
-263.238	800.000	0.027	0.136
-262.224	-106.472	-0.378	0.109
-261.209	-57.976	-0.628	0.356
-260.195	83.962	-0.089	-0.127
-259.180	93.518	-0.225	-0.332
-258.165	193.151	-0.049	0.097
-257.151	62.777	0.062	0.081
-256.136	56.917	0.186	0.236
-255.122	-58.304	0.403	0.227
-254.107	-76.391	-0.288	0.131
-253.092	-200.000	-0.046	-0.356
-252.078	800.000	0.132	-0.643
-251.063	-117.768	0.387	0.090
-250.049	-200.000	0.018	0.198
-249.034	414.742	0.082	-0.229
-248.019	-48.835	0.217	-0.135
-247.005	81.606	-0.324	0.457
-245.990	-68.271	0.059	-0.030
-244.976	-2.003	-0.355	0.324
-243.961	-200.000	-0.029	-0.497
-242.946	-77.766	-0.022	-0.010
-241.932	-84.631	-0.355	-0.145
-240.917	-67.281	0.072	0.037
-239.903	-110.974	0.172	-0.046
-238.888	-200.000	0.006	-0.273
-237.873	-43.635	-0.244	0.160
-236.859	-98.699	0.434	-0.143
-235.844	-30.475	0.307	-0.226
-234.830	4.631	-0.305	0.292
-233.815	10.092	0.415	-0.410
-232.800	-50.633	-0.124	0.076
-231.786	-164.302	0.227	0.013
-230.771	790.930	-0.070	-0.252
-229.757	-73.466	0.066	0.031
-228.742	714.829	0.121	-0.419
-227.727	-80.436	-0.288	0.124
-226.713	-33.627	0.133	0.095
-225.698	295.414	0.161	0.386
-224.684	115.214	0.092	-0.147
-223.669	-111.006	0.232	-0.062
-222.655	-41.016	0.194	0.130
-221.640	-98.447	-0.067	0.022
-220.625	-60.759	-0.063	0.035
-219.611	-88.147	0.350	0.136
-218.596	-119.724	-0.615	0.137
-217.582	-181.477	-0.291	0.007
-216.567	-200.000	-0.026	0.213
-215.552	-77.105	0.601	-0.271
-214.538	-26.919	0.191	-0.145
-213.523	-200.000	-0.058	-0.409
-212.509	-32.748	0.217	-0.157
-211.494	-200.000	0.001	-0.046
-210.479	-90.905	0.228	-0.085
-209.465	124.224	-0.205	0.335
-208.450	141.845	-0.323	-0.559
-207.436	-200.000	0.011	0.379
-206.421	-200.000	0.193	0.001
-205.406	39.838	-0.444	-0.518
-204.392	-99.323	-0.521	0.170
-203.377	-67.431	0.450	0.229
-202.363	-200.000	-0.057	0.349
-201.348	-18.778	0.254	0.206
-200.333	-48.042	0.127	-0.080
-199.319	-19.522	0.366	-0.294
-198.304	8.870	-0.209	-0.205
-197.290	119.249	0.179	-0.288
-196.275	60.740	0.147	0.190
-195.260	-118.703	-0.577	-0.131
-194.246	-105.385	0.299	-0.088
-193.231	221.395	-0.116	0.243
-192.217	33.441	-0.109	-0.123
-191.202	-11.926	-0.224	-0.191
-190.187	161.987	-0.165	-0.301
-189.173	-157.318	0.151	0.012
-188.158	800.000	0.044	0.239
-187.144	-68.644	-0.263	0.132
-186.129	800.000	-0.052	-0.194
-185.114	164.846	0.078	0.143
-184.100	-95.530	0.273	-0.095
-183.085	261.227	-0.271	-0.611
-182.071	216.794	-0.166	-0.345
-181.056	-167.782	0.277	-0.014
-180.042	800.000	-0.042	-0.214
-179.027	-51.673	0.246	-0.149
-178.012	25.062	0.092	-0.100
-176.998	-119.045	0.473	0.107
-175.983	-155.844	-0.345	0.028
-174.969	-30.381	-0.031	-0.023
-173.954	118.773	-0.258	-0.415
-172.939	23.281	-0.180	-0.192
-171.925	-139.098	0.189	0.026
-170.910	195.455	-0.081	0.161
-169.896	800.000	0.167	0.664
-168.881	-200.000	0.008	-0.145
-167.866	23.449	-0.065	0.069
-166.852	609.698	0.118	0.385
-165.837	57.180	-0.377	0.478
-164.823	-98.384	-0.211	0.070
-163.808	90.727	-0.208	-0.303
-162.793	-200.000	-0.012	0.648
-161.779	-66.280	0.149	-0.077
-160.764	-200.000	-0.009	0.191
-159.750	191.017	0.203	0.397
-158.735	-32.606	-0.102	-0.074
-157.720	-62.865	0.378	0.202
-156.706	-200.000	-0.109	0.709
-155.691	-110.643	0.526	0.140
-154.677	73.968	-0.147	0.200
-153.662	-156.943	0.309	-0.024
-152.647	-15.503	-0.269	-0.223
-151.633	-182.207	0.622	-0.015
-150.618	-200.000	0.043	-0.349
-149.604	-166.304	0.138	0.007
-148.589	800.000	0.102	-0.479
-147.574	-200.000	0.003	0.608
-146.560	-200.000	0.002	0.204
-145.545	-155.294	-0.161	0.013
-144.531	800.000	-0.098	0.374
-143.516	-51.674	0.169	-0.102
-142.502	-148.325	-0.111	0.012
-141.487	-28.332	0.151	-0.113
-140.472	-163.480	-0.345	0.021
-139.458	176.585	0.096	-0.181
-138.443	-200.000	-0.037	-0.604
-137.429	-200.000	-0.066	0.601
-136.414	26.389	-0.171	0.185
-135.399	-122.346	-0.320	-0.067
-134.385	-14.282	-0.402	-0.335
-133.370	-25.100	0.202	0.155
-132.356	-179.428	-0.335	-0.009
-131.341	-11.647	-0.117	-0.099
-130.326	-200.000	0.022	0.257
-129.312	-24.684	0.115	-0.089
-128.297	152.783	0.097	0.172
-127.283	-93.328	-0.153	0.055
-126.268	-200.000	0.052	0.658
-125.253	59.323	0.110	-0.141
-124.239	-113.275	-0.359	-0.091
-123.224	-200.000	0.060	0.416
-122.210	237.622	-0.133	0.287
-121.195	-31.937	0.160	0.116
-120.180	172.406	-0.071	0.133
-119.166	220.831	0.200	-0.416
-118.151	45.019	-0.091	-0.108
-117.137	-177.466	0.186	0.006
-116.122	25.451	0.173	-0.186
-115.107	-62.629	-0.340	0.182
-114.093	800.000	-0.024	-0.092
-113.078	90.351	-0.113	0.164
-112.064	-200.000	0.065	-0.524
-111.049	-102.092	0.266	0.082
-110.034	-121.659	0.567	0.121
-109.020	-200.000	-0.025	-0.222
-108.005	6.735	-0.389	0.375
-106.991	-3.675	-0.453	0.407
-105.976	-127.822	-0.310	-0.057
-104.962	-200.000	-0.009	-0.304
-103.947	-200.000	-0.013	-0.488
-102.932	-64.552	0.211	0.111
-101.918	141.748	0.198	-0.340
-100.903	-41.030	-0.118	-0.079
-99.889	-200.000	0.000	-0.326
-98.874	-13.231	0.520	0.436
-97.859	-94.442	0.240	0.084
-96.845	564.337	-0.080	-0.253
-95.830	-200.000	-0.001	0.171
-94.816	-200.000	0.031	0.431
-93.801	215.863	0.064	0.133
-92.786	-33.463	0.329	-0.235
-91.772	-83.668	-0.256	0.105
-90.757	-138.605	0.806	0.113
-89.743	261.951	0.064	-0.143
-88.728	197.420	0.096	-0.190
-87.713	54.230	-0.261	-0.325
-86.699	-24.090	0.078	0.060
-85.684	-30.017	-0.093	-0.069
-84.670	146.263	-0.141	0.245
-83.655	336.446	-0.061	-0.153
-82.640	-12.678	-0.152	-0.128
-81.626	112.541	-0.122	-0.192
-80.611	-66.633	0.277	-0.142
-79.597	-82.209	-0.065	-0.027
-78.582	198.568	-0.075	-0.148
-77.567	7.480	0.275	-0.266
-76.553	-44.278	0.190	0.123
-75.538	49.186	-0.137	0.167
-74.524	-72.646	-0.459	0.218
-73.509	167.804	0.199	-0.368
-72.494	-12.996	0.254	-0.213
-71.480	8.566	-0.196	0.191
-70.465	-200.000	0.033	-0.505
-69.451	-200.000	0.058	0.503
-68.436	-25.696	-0.368	0.280
-67.422	-4.352	-0.047	-0.042
-66.407	496.219	0.139	-0.417
-65.392	800.000	0.025	-0.111
-64.378	-87.826	-0.062	-0.024
-63.363	53.895	-0.250	-0.310
-62.349	218.965	0.234	0.486
-61.334	16.483	-2.079	-2.123
-60.319	71.265	1.384	1.858
-59.305	299.583	-3.380	-8.081
-58.290	85.405	3.552	5.048
-57.276	439.666	3.533	10.025
-56.261	-200.000	25.051	318.552
-55.246	357.764	1298.138	3363.009
-54.232	53.254	2840.451	3519.378
-53.217	51.692	2659.134	3270.471
-52.203	32.023	2389.097	2661.393
-51.188	27.773	2054.493	2236.338
-50.173	24.442	1941.215	2074.106
-49.159	23.380	1929.988	2049.682
-48.144	22.968	1924.683	2039.192
-47.130	22.840	1922.741	2035.568
-46.115	22.787	1921.090	2033.133
-45.100	22.800	1919.316	2031.318
-44.086	22.822	1917.813	2029.910
-43.071	22.800	1916.270	2027.935
-42.057	22.777	1915.179	2026.437
-41.042	22.768	1913.055	2024.000
-40.027	22.855	1911.408	2023.189
-39.013	22.832	1910.216	2021.573
-37.998	22.695	1909.537	2019.208
-36.984	22.804	1907.293	2018.006
-35.969	22.814	1906.582	2017.282
-34.954	22.805	1905.020	2015.445
-33.940	22.701	1903.978	2013.076
-32.925	22.798	1902.574	2012.624
-31.911	22.785	1901.229	2010.972
-30.896	22.773	1899.816	2009.256
-29.881	22.669	1899.797	2007.970
-28.867	22.692	1897.840	2006.086
-27.852	22.721	1895.843	2004.222
-26.838	22.639	1895.235	2002.563
-25.823	22.583	1893.517	2000.028
-24.809	22.648	1892.409	1999.526
-23.794	22.575	1891.230	1997.368
-22.779	22.569	1889.205	1995.076
-21.765	22.635	1888.020	1994.499
-20.750	22.585	1887.425	1993.221
-19.736	22.533	1886.094	1991.148
-18.721	22.539	1885.408	1990.414
-17.706	22.709	1884.037	1990.816
-16.692	22.561	1883.120	1988.088
-15.677	22.593	1880.981	1986.118
-14.663	22.520	1879.875	1984.040
-13.648	22.565	1878.849	1983.394
-12.633	22.494	1877.616	1981.203
-11.619	22.488	1876.639	1980.031
-10.604	22.623	1874.184	1978.883
-9.590	22.599	1873.641	1977.961
-8.575	22.530	1872.374	1975.763
-7.560	22.482	1871.124	1973.829
-6.546	22.458	1870.699	1973.027
-5.531	22.451	1869.423	1971.530
-4.517	22.418	1867.457	1969.004
-3.502	22.540	1866.675	1969.474
-2.487	22.706	1865.048	1969.544
-1.473	22.677	1862.258	1966.189
-0.458	22.396	1843.830	1943.545
0.556	19.241	1990.122	2047.852
1.571	17.845	2193.954	2238.922
2.586	18.648	2233.129	2289.405
3.600	18.651	2235.612	2291.708
4.615	18.683	2235.206	2291.447
5.629	18.756	2231.980	2288.844
6.644	18.640	2230.730	2285.744
7.659	18.660	2229.672	2284.650
8.673	18.776	2226.640	2282.823
9.688	18.422	2236.225	2287.622
10.702	17.538	2314.838	2355.478
11.717	16.069	2380.118	2400.589
12.731	7.966	2361.157	2265.710
13.746	1.174	2342.593	2151.020
14.761	0.278	2338.318	2134.088
15.775	0.114	2337.645	2130.894
16.790	0.106	2335.692	2128.734
17.804	0.030	2334.602	2126.411
18.819	0.031	2333.857	2125.483
19.834	0.125	2331.951	2124.830
20.848	0.112	2329.662	2122.315
21.863	0.107	2327.871	2120.359
22.877	0.079	2326.525	2118.481
23.892	-0.004	2323.807	2114.582
24.907	0.021	2322.229	2113.245
25.921	0.015	2320.089	2110.962
26.936	0.046	2317.835	2109.085
27.950	-0.025	2314.746	2105.031
28.965	0.092	2313.369	2105.174
29.980	0.122	2311.951	2104.041
30.994	0.186	2309.651	2102.601
32.009	4.292	2323.260	2172.620
33.023	13.775	2349.963	2331.853
34.038	17.514	2355.063	2389.477
35.053	17.731	2353.575	2390.731
36.067	17.818	2351.126	2389.179
37.082	17.758	2349.064	2385.955
38.096	17.714	2347.753	2383.721
39.111	17.849	2345.088	2382.634
40.126	18.040	2341.706	2381.581
41.140	17.963	2340.596	2379.086
42.155	18.036	2339.134	2378.344
43.169	18.007	2338.036	2376.538
44.184	18.001	2334.309	2372.380
45.199	17.868	2333.015	2368.927
46.213	17.931	2331.722	2368.211
47.228	18.032	2330.208	2367.791
48.242	17.974	2328.118	2364.576
49.257	18.016	2326.754	2363.492
50.271	18.050	2323.574	2360.457
51.286	17.882	2322.172	2356.413
52.301	17.939	2320.442	2355.166
53.315	18.307	2322.117	2361.685
54.330	20.025	2326.364	2389.570
55.344	21.223	2325.571	2405.066
56.359	21.337	2322.576	2403.246
57.374	21.406	2321.448	2402.744
58.388	21.547	2319.429	2402.314
59.403	21.477	2316.340	2397.864
60.417	21.302	2312.306	2390.996
61.432	21.360	2311.733	2390.921
62.447	21.693	2310.060	2393.478
63.461	21.685	2308.659	2391.631
64.476	21.774	2306.437	2390.257
65.490	21.631	2305.235	2386.766
66.505	20.987	2301.752	2374.061
67.520	19.578	2295.968	2348.560
68.534	18.259	2289.761	2323.951
69.549	17.893	2285.396	2314.243
70.563	17.909	2283.467	2312.239
71.578	17.890	2282.031	2310.244
72.593	18.008	2280.799	2310.334
73.607	18.073	2279.332	2309.454
74.622	18.219	2277.223	2309.012
75.636	17.982	2274.840	2303.116
76.651	17.877	2272.311	2298.850
77.666	18.015	2269.637	2297.737
78.680	17.964	2267.227	2294.333
79.695	17.866	2265.272	2290.757
80.709	17.800	2265.265	2289.585
81.724	17.970	2261.403	2287.701
82.739	17.890	2259.532	2284.454
83.753	17.871	2257.280	2281.649
84.768	17.784	2256.603	2279.523
85.782	17.798	2255.106	2277.925
86.797	17.844	2252.036	2275.177
87.812	17.835	2250.773	2273.500
88.826	17.952	2247.967	2271.957
89.841	17.947	2245.794	2269.426
90.855	17.996	2244.036	2268.038
91.870	17.963	2241.855	2265.122
92.884	17.844	2240.287	2261.677
93.899	17.766	2240.233	2260.314
94.914	18.196	2240.876	2266.412
95.928	19.713	2246.122	2291.679
96.943	20.420	2243.495	2298.141
97.957	18.823	2236.955	2269.965
98.972	17.952	2231.413	2252.528
99.987	17.848	2228.775	2248.221
101.001	17.916	2225.837	2245.888
102.016	17.818	2225.465	2243.952
103.030	17.786	2221.852	2239.620
104.045	17.870	2219.613	2238.201
105.060	17.848	2217.728	2235.739
106.074	17.933	2216.170	2235.015
107.089	17.964	2213.450	2232.416
108.103	17.974	2212.915	2231.739
109.118	17.898	2211.607	2229.157
110.133	17.960	2210.076	2228.156
111.147	17.936	2208.134	2225.616
112.162	18.004	2207.234	2225.336
113.176	18.028	2204.225	2222.355
114.191	18.002	2202.875	2220.390
115.206	18.006	2201.302	2218.587
116.220	17.983	2198.829	2215.526
117.235	17.923	2197.059	2212.692
118.249	17.906	2195.064	2210.206
119.264	18.031	2193.220	2209.700
120.279	17.992	2192.166	2207.867
121.293	17.952	2189.978	2204.885
122.308	18.026	2189.106	2204.701
123.322	17.915	2188.493	2202.383
124.337	18.211	2188.762	2206.233
125.352	19.848	2193.741	2232.225
126.366	20.317	2191.252	2235.504
127.381	18.648	2182.809	2205.077
128.395	17.798	2178.897	2189.903
129.410	17.922	2176.549	2188.878
130.424	17.882	2175.303	2186.846
131.439	17.866	2173.501	2184.572
132.454	17.827	2172.281	2182.579
133.468	17.846	2169.691	2179.958
134.483	18.003	2167.694	2179.702
135.497	18.018	2166.097	2178.030
136.512	17.987	2163.735	2175.006
137.527	18.018	2161.569	2172.963
138.541	17.908	2160.656	2170.370
139.556	17.707	2160.512	2167.406
140.570	17.759	2158.728	2166.011
141.585	17.818	2156.450	2164.222
142.600	17.835	2154.564	2162.289
143.614	17.889	2153.546	2161.693
144.629	17.869	2151.475	2159.109
145.643	17.819	2149.711	2156.448
146.658	17.737	2148.491	2153.914
147.673	17.733	2146.295	2151.410
148.687	17.807	2145.589	2151.380
149.702	17.854	2145.592	2151.718
150.716	17.810	2143.766	2149.075
151.731	17.823	2142.257	2147.471
152.746	18.050	2141.240	2149.070
153.760	18.407	2142.140	2154.219
154.775	20.013	2146.821	2179.001
155.789	20.433	2144.944	2182.142
156.804	18.930	2136.285	2154.154
157.819	17.963	2130.533	2135.949
158.833	17.960	2128.395	2133.501
159.848	17.863	2126.851	2130.489
160.862	17.891	2125.691	2129.416
161.877	18.047	2124.626	2130.049
162.892	18.028	2124.076	2129.004
163.906	18.104	2121.694	2127.315
164.921	18.010	2119.387	2123.572
165.935	17.992	2117.158	2120.860
166.950	17.968	2115.881	2119.025
167.964	17.908	2113.884	2116.031
168.979	17.886	2112.245	2113.857
169.994	17.887	2110.105	2111.475
171.008	17.995	2108.374	2110.839
172.023	17.880	2107.563	2108.339
173.037	17.802	2107.370	2106.936
174.052	17.937	2105.015	2105.997
175.067	17.934	2102.807	2103.502
176.081	17.927	2101.954	2102.304
177.096	17.926	2099.946	2100.039
178.110	17.932	2098.345	2098.252
179.125	17.883	2098.153	2097.212
180.140	17.812	2096.609	2094.544
181.154	17.874	2095.143	2093.588
182.169	17.917	2094.250	2092.980
183.183	18.403	2094.911	2099.372
184.198	20.132	2099.436	2124.977
185.213	20.469	2097.522	2126.939
186.227	18.752	2090.434	2098.426
187.242	17.950	2086.973	2084.860
188.256	17.872	2085.609	2082.287
189.271	18.010	2083.533	2081.655
190.286	17.897	2082.397	2078.891
191.300	17.808	2079.697	2074.855
192.315	17.733	2078.621	2072.626
193.329	17.902	2077.056	2072.879
194.344	18.105	2075.764	2073.817
195.359	17.981	2074.648	2070.933
196.373	18.031	2072.058	2068.708
197.388	17.911	2070.634	2065.583
198.402	17.925	2067.523	2062.404
199.417	17.768	2065.416	2058.149
200.432	17.864	2064.152	2057.811
201.446	17.907	2063.005	2056.937
202.461	17.930	2060.994	2054.971
203.475	17.850	2059.186	2051.947
204.490	17.893	2057.691	2050.730
205.504	18.032	2055.228	2049.708
206.519	17.850	2053.441	2045.493
207.534	17.695	2052.624	2042.569
208.548	17.759	2051.381	2041.850
209.563	17.827	2049.342	2040.402
210.577	17.878	2047.708	2039.140
211.592	17.918	2048.002	2039.672
212.607	18.809	2050.998	2053.120
213.621	20.702	2056.143	2080.794
214.636	20.464	2049.837	2071.310
215.650	18.537	2043.727	2041.853
216.665	18.024	2040.054	2031.805
217.680	18.140	2037.981	2030.875
218.694	18.022	2037.567	2028.819
219.709	17.919	2035.967	2025.755
220.723	17.917	2034.584	2024.110
221.738	17.952	2033.403	2023.113
222.753	17.887	2030.954	2019.663
223.767	18.037	2028.270	2018.528
224.782	17.982	2026.262	2015.639
225.796	17.990	2025.431	2014.665
226.811	18.033	2024.829	2014.331
227.826	18.011	2023.080	2012.094
228.840	18.012	2022.079	2010.863
229.855	17.915	2021.149	2008.558
230.869	17.951	2018.765	2006.366
231.884	17.977	2016.720	2004.401
232.899	17.961	2015.143	2002.411
233.913	17.915	2014.988	2001.467
234.928	17.933	2013.703	2000.171
235.942	17.899	2011.639	1997.474
236.957	17.906	2010.527	1996.218
237.972	17.895	2009.659	1994.987
238.986	17.964	2007.840	1993.752
240.001	17.982	2005.465	1991.367
241.015	17.947	2004.173	1989.433
242.030	18.257	2006.007	1994.648
243.045	19.984	2008.548	2017.178
244.059	20.189	2005.523	2016.293
245.074	18.538	1999.304	1990.553
246.088	17.876	1995.935	1979.239
247.103	18.054	1994.251	1979.411
248.117	17.947	1992.662	1976.355
249.132	17.974	1990.980	1974.762
250.147	17.960	1989.192	1972.584
251.161	17.946	1988.019	1971.026
252.176	18.065	1986.772	1970.928
253.190	18.213	1985.124	1970.774
254.205	18.197	1982.418	1967.665
255.220	18.076	1982.225	1965.844
256.234	18.074	1980.955	1964.325
257.249	18.038	1979.256	1961.993
258.263	17.929	1979.242	1960.487
259.278	17.946	1978.214	1959.426
260.293	18.008	1976.012	1957.722
261.307	17.880	1973.851	1953.882
262.322	17.907	1971.325	1951.452
263.336	17.887	1969.286	1948.970
264.351	17.851	1967.849	1946.899
265.366	17.808	1967.011	1945.344
266.380	17.769	1966.394	1944.062
267.395	17.810	1964.764	1942.685
268.409	17.809	1962.708	1940.410
269.424	17.867	1961.495	1939.642
270.439	17.727	1961.744	1938.047
271.453	18.414	1962.375	1946.285
272.468	20.104	1964.703	1967.672
273.482	20.217	1962.460	1966.479
274.497	18.603	1954.841	1940.270
275.512	17.887	1952.174	1929.265
276.526	17.833	1949.297	1925.573
277.541	17.940	1946.485	1923.779
278.555	17.846	1946.363	1922.364
279.570	17.930	1943.478	1920.232
280.585	17.773	1943.424	1918.171
281.599	17.784	1941.814	1916.482
282.614	18.032	1940.423	1917.677
283.628	18.036	1939.978	1917.051
284.643	18.071	1938.819	1916.074
285.657	18.206	1937.741	1916.293
286.672	18.372	1935.916	1916.127
287.687	18.158	1934.582	1912.176
288.701	18.130	1932.629	1909.706
289.716	18.188	1930.828	1908.347
290.730	18.018	1930.316	1905.702
291.745	18.076	1928.878	1904.703
292.760	18.149	1927.901	1904.330
293.774	18.029	1927.420	1902.288
294.789	17.997	1925.960	1900.253
295.803	17.983	1923.139	1897.085
296.818	17.826	1922.241	1894.226
297.833	17.744	1921.078	1891.941
298.847	17.975	1919.228	1892.464
299.862	18.007	1917.679	1891.064
300.876	18.400	1917.977	1895.499
301.891	20.247	1921.784	1919.601
302.906	20.631	1920.079	1921.937
303.920	18.811	1914.504	1895.949
304.935	18.156	1910.674	1884.678
305.949	18.035	1908.156	1880.627
306.964	17.937	1907.126	1878.311
307.979	17.905	1905.938	1876.555
308.993	17.972	1903.917	1875.087
310.008	18.123	1902.346	1874.972
311.022	18.180	1901.427	1874.474
312.037	18.371	1898.896	1873.857
313.052	18.173	1897.237	1869.825
314.066	18.160	1896.077	1868.312
315.081	18.097	1895.493	1866.817
316.095	18.052	1894.625	1865.246
317.110	18.159	1892.083	1863.690
318.125	18.097	1890.685	1861.419
319.139	18.094	1889.775	1860.264
320.154	18.203	1888.293	1859.772
321.168	18.132	1886.546	1857.050
322.183	18.008	1885.374	1854.325
323.197	17.918	1884.217	1851.988
324.212	17.835	1882.364	1849.033
325.227	17.852	1880.471	1847.142
326.241	17.897	1879.567	1846.526
327.256	17.957	1877.433	1844.851
328.270	17.834	1876.824	1842.701
329.285	17.857	1876.291	1842.206
330.300	18.529	1880.121	1853.053
331.314	20.479	1882.513	1876.372
332.329	20.433	1877.266	1870.420
333.343	18.532	1871.713	1844.128
334.358	17.919	1868.677	1834.306
335.373	17.972	1866.763	1832.779
336.387	17.867	1865.080	1829.772
337.402	17.944	1863.184	1828.517
338.416	17.951	1861.716	1826.932
339.431	17.985	1861.077	1826.462
340.446	17.990	1859.555	1824.793
341.460	18.048	1858.450	1824.117
342.475	18.216	1856.537	1823.827
343.489	18.053	1856.347	1821.674
344.504	18.157	1854.527	1820.777
345.519	18.203	1852.733	1819.296
346.533	18.191	1850.878	1817.127
347.548	18.274	1849.367	1816.305
348.562	18.246	1848.142	1814.595
349.577	18.306	1847.186	1814.074
350.592	18.210	1847.017	1812.667
351.606	18.301	1844.650	1811.092
352.621	18.211	1842.943	1808.245
353.635	17.944	1842.546	1804.801
354.650	17.881	1840.784	1802.195
355.665	17.885	1839.279	1800.543
356.679	17.848	1837.849	1798.544
357.694	17.856	1836.176	1796.773
358.708	17.930	1834.624	1795.823
359.723	18.835	1836.812	1807.321
360.738	20.561	1840.113	1828.613
361.752	20.143	1835.907	1819.812
362.767	18.506	1829.796	1796.301
363.781	18.018	1827.732	1788.932
364.796	17.946	1827.242	1787.479
365.810	17.866	1826.078	1785.282
366.825	18.048	1823.628	1784.588
367.840	17.998	1823.730	1783.949
368.854	18.099	1822.405	1783.497
369.869	17.926	1820.972	1780.072
370.883	17.672	1820.148	1776.394
371.898	17.865	1818.204	1776.298
372.913	17.965	1817.039	1775.989
373.927	17.942	1815.267	1773.807
374.942	17.935	1814.435	1772.716
375.956	18.019	1813.107	1772.075
376.971	18.046	1810.094	1769.207
377.986	18.026	1809.278	1767.988
379.000	17.999	1808.045	1766.290
380.015	18.027	1807.306	1765.642
381.029	18.149	1804.560	1764.013
382.044	18.004	1803.205	1760.981
383.059	17.844	1801.744	1757.679
384.073	17.962	1801.028	1757.996
385.088	17.756	1799.997	1754.653
386.102	17.948	1797.565	1754.052
387.117	17.921	1795.759	1751.804
388.132	17.794	1795.557	1750.084
389.146	18.453	1798.569	1759.616
390.161	20.394	1801.044	1781.861
391.175	20.357	1794.680	1774.969
392.190	18.510	1788.334	1749.558
393.205	17.926	1785.775	1740.858
394.219	17.995	1784.581	1740.198
395.234	17.895	1784.331	1738.716
396.248	17.992	1782.589	1737.802
397.263	17.974	1779.798	1734.696
398.278	17.966	1777.361	1732.029
399.292	18.010	1776.505	1731.435
400.307	17.883	1777.202	1730.614
401.321	18.129	1775.990	1731.728
402.336	18.103	1774.362	1729.674
403.350	18.082	1773.066	1727.991
404.365	18.253	1771.394	1727.881
405.380	18.286	1770.461	1727.099
406.394	18.241	1770.152	1726.138
407.409	18.273	1767.686	1723.848
408.423	18.200	1766.485	1721.736
409.438	18.268	1764.975	1720.745
410.453	18.211	1763.793	1718.813
411.467	18.111	1762.870	1716.694
412.482	18.122	1761.404	1715.175
413.496	18.121	1760.001	1713.592
414.511	18.192	1757.002	1711.184
415.526	18.096	1755.306	1708.361
416.540	18.173	1753.848	1707.510
417.555	17.878	1753.983	1704.479
418.569	17.858	1754.479	1704.555
419.584	18.138	1753.410	1706.121
420.599	17.995	1752.644	1703.733
421.613	18.009	1751.132	1702.203
422.628	17.927	1751.072	1701.117
423.642	18.044	1748.429	1699.516
424.657	17.962	1746.597	1696.714
425.672	17.978	1744.537	1694.675
426.686	17.968	1743.822	1693.671
427.701	18.083	1742.232	1693.076
428.715	17.818	1741.145	1689.177
429.730	18.044	1739.354	1689.478
430.745	18.041	1738.491	1688.407
431.759	18.177	1737.922	1689.007
432.774	18.187	1737.419	1688.412
433.788	18.160	1736.976	1687.513
434.803	18.193	1736.774	1687.448
435.818	18.122	1735.850	1685.643
436.832	18.054	1735.202	1684.139
437.847	17.257	1728.789	1669.847
438.861	9.959	1707.663	1577.813
439.876	1.867	1693.083	1485.132
440.890	0.254	1689.927	1466.416
441.905	0.212	1688.030	1464.184
442.920	0.157	1686.555	1462.195
443.934	0.045	1685.850	1460.314
444.949	0.116	1684.633	1459.773
445.963	0.069	1683.726	1458.355
446.978	0.192	1682.717	1458.502
447.993	0.175	1681.044	1456.713
449.007	0.165	1679.164	1454.816
450.022	0.153	1676.990	1452.645
451.036	0.241	1675.832	1452.315
452.051	1.209	1680.749	1465.807
453.066	9.178	1697.969	1558.611
454.080	16.512	1709.430	1640.718
455.095	17.803	1711.292	1654.906
456.109	18.089	1711.075	1657.288
457.124	18.128	1709.859	1656.286
458.139	18.090	1708.846	1654.735
459.153	18.077	1706.808	1652.442
460.168	18.101	1705.558	1651.267
461.182	18.045	1704.110	1649.125
462.197	18.052	1702.273	1647.213
463.212	18.080	1701.297	1646.347
464.226	18.006	1700.351	1644.516
465.241	18.110	1698.496	1643.530
466.255	18.084	1697.618	1642.238
467.270	18.023	1696.462	1640.329
468.285	18.028	1695.119	1638.880
469.299	17.876	1694.272	1636.399
470.314	18.019	1691.468	1634.876
471.328	18.116	1689.917	1634.111
472.343	18.232	1689.322	1634.458
473.358	18.084	1688.715	1632.252
474.372	18.111	1687.518	1631.156
475.387	18.094	1686.252	1629.573
476.401	18.023	1685.082	1627.566
477.416	18.046	1683.755	1626.316
478.430	18.173	1682.623	1626.240
479.445	17.945	1681.230	1622.520
480.460	17.906	1679.881	1620.655
481.474	18.073	1678.658	1620.869
482.489	18.011	1678.218	1619.665
483.503	18.166	1675.704	1618.517
484.518	18.114	1674.086	1616.270
485.533	18.252	1672.942	1616.282
486.547	18.226	1671.733	1614.666
487.562	18.250	1670.663	1613.673
488.576	18.244	1669.701	1612.488
489.591	18.251	1668.757	1611.454
490.606	18.183	1666.766	1608.695
491.620	18.218	1664.761	1606.896
492.635	18.163	1663.297	1604.778
493.649	18.200	1662.193	1603.869
494.664	18.218	1661.556	1603.228
495.679	17.967	1659.919	1599.094
496.693	18.017	1658.116	1597.637
497.708	17.991	1657.344	1596.458
498.722	18.248	1656.519	1597.887
499.737	18.270	1654.787	1596.232
500.752	18.129	1653.472	1593.450
501.766	18.060	1652.150	1591.339
502.781	18.131	1650.282	1590.007
503.795	18.134	1649.176	1588.787
504.810	18.009	1648.512	1586.783
505.825	18.266	1647.799	1588.304
506.839	18.227	1645.838	1585.862
507.854	18.188	1644.810	1584.322
508.868	18.182	1643.433	1582.753
509.883	18.228	1642.126	1581.732
510.898	18.205	1641.582	1580.805
511.912	18.260	1639.019	1578.655
512.927	17.967	1637.371	1574.168
513.941	18.135	1636.010	1574.218
514.956	18.147	1635.108	1573.280
515.971	18.196	1633.220	1571.724
516.985	18.177	1632.869	1571.024
518.000	18.109	1631.973	1569.345
519.014	18.201	1630.813	1568.890
520.029	18.204	1629.374	1567.348
521.043	18.209	1628.754	1566.610
522.058	18.122	1627.377	1564.291
523.073	18.177	1626.850	1564.112
524.087	18.261	1625.661	1563.544
525.102	18.165	1623.994	1560.877
526.116	18.202	1622.195	1559.299
527.131	18.228	1621.984	1559.151
528.146	18.206	1621.399	1558.198
529.160	18.140	1620.290	1556.339
530.175	18.196	1619.182	1555.601
531.189	18.223	1617.384	1553.933
532.204	18.337	1615.368	1552.854
533.219	18.134	1615.299	1550.753
534.233	18.004	1614.203	1548.325
535.248	18.253	1613.092	1549.344
536.262	18.301	1611.900	1548.446
537.277	18.299	1611.076	1547.459
538.292	18.260	1609.378	1545.285
539.306	18.301	1607.419	1543.591
540.321	18.250	1606.539	1542.101
541.335	18.329	1605.630	1541.753
542.350	18.387	1603.240	1539.799
543.365	18.303	1602.070	1537.734
544.379	18.254	1601.262	1536.334
545.394	18.346	1599.258	1535.054
546.408	18.345	1598.010	1533.664
547.423	18.250	1596.811	1531.479
548.438	18.152	1595.412	1529.072
549.452	18.330	1594.398	1529.516
550.467	18.208	1593.313	1527.191
551.481	18.244	1593.056	1527.086
552.496	18.200	1592.052	1525.553
553.511	18.400	1590.939	1526.087
554.525	18.300	1590.181	1524.287
555.540	18.248	1588.979	1522.491
556.554	18.423	1587.196	1522.159
557.569	18.315	1585.359	1519.255
558.583	18.267	1583.844	1517.187
559.598	18.327	1582.735	1516.484
560.613	18.230	1582.516	1515.225
561.627	18.296	1581.300	1514.465
562.642	18.353	1579.655	1513.217
563.656	18.372	1578.564	1512.158
564.671	18.361	1577.091	1510.470
565.686	18.234	1575.999	1508.114
566.700	18.138	1574.984	1506.119
567.715	18.140	1573.638	1504.668
568.729	18.311	1571.586	1504.034
569.744	18.208	1569.734	1501.172
570.759	18.278	1569.001	1500.906
571.773	18.189	1568.079	1499.060
572.788	18.214	1567.340	1498.401
573.802	18.182	1566.032	1496.683
574.817	18.237	1564.506	1495.530
575.832	18.172	1563.210	1493.545
576.846	18.364	1561.705	1493.615
577.861	18.180	1561.069	1491.210
578.875	18.189	1560.822	1490.874
579.890	18.363	1559.259	1490.726
580.905	18.436	1557.882	1489.869
581.919	18.453	1557.463	1489.438
582.934	18.446	1556.568	1488.348
583.948	18.492	1554.671	1486.757
584.963	18.366	1554.445	1485.263
585.978	18.352	1552.579	1483.181
586.992	18.437	1551.798	1482.995
588.007	18.362	1551.429	1481.807
589.021	18.264	1550.434	1479.837
590.036	18.248	1548.769	1477.930
591.051	18.550	1546.685	1478.377
592.065	18.452	1545.044	1475.784
593.080	18.459	1543.967	1474.639
594.094	18.461	1542.081	1472.679
595.109	18.391	1540.831	1470.704
596.123	18.301	1539.504	1468.485
597.138	18.357	1538.752	1468.079
598.153	18.419	1537.139	1466.900
599.167	18.404	1535.913	1465.420
600.182	18.331	1535.867	1464.574
601.196	18.324	1534.888	1463.402
602.211	18.330	1533.155	1461.631
603.226	18.384	1532.660	1461.446
604.240	18.381	1530.663	1459.340
605.255	18.444	1529.951	1459.027
606.269	18.539	1528.588	1458.369
607.284	18.426	1527.510	1456.196
608.299	18.396	1526.320	1454.633
609.313	18.452	1524.941	1453.621
610.328	18.384	1523.618	1451.609
611.342	18.587	1521.599	1451.233
612.357	18.543	1520.981	1450.101
613.372	18.402	1519.949	1447.745
614.386	18.354	1518.764	1446.033
615.401	18.451	1518.330	1446.269
616.415	18.358	1517.942	1444.943
617.430	18.399	1516.879	1444.099
618.445	18.500	1515.506	1443.478
619.459	18.435	1514.157	1441.468
620.474	18.296	1512.988	1439.009
621.488	18.286	1511.751	1437.576
622.503	18.210	1511.033	1436.082
623.518	18.270	1509.831	1435.271
624.532	18.363	1508.889	1434.987
625.547	18.352	1507.587	1433.485
626.561	18.461	1506.486	1433.184
627.576	18.520	1505.792	1432.848
628.591	18.262	1504.436	1429.216
629.605	18.239	1503.417	1427.884
630.620	18.323	1501.820	1426.905
631.634	18.359	1500.981	1426.235
632.649	18.456	1499.636	1425.600
633.663	18.476	1497.599	1423.661
634.678	18.494	1496.741	1422.820
635.693	18.323	1496.527	1421.020
636.707	18.447	1494.782	1420.228
637.722	18.578	1493.619	1420.042
638.736	18.561	1492.326	1418.506
639.751	18.533	1491.234	1417.068
640.766	18.563	1490.031	1415.998
641.780	18.505	1488.992	1414.365
642.795	18.534	1487.678	1413.184
643.809	18.582	1487.344	1413.097
644.824	18.638	1486.689	1412.764
645.839	18.593	1486.054	1411.626
646.853	18.453	1484.859	1409.162
647.868	18.579	1482.830	1408.106
648.882	18.514	1481.420	1406.063
649.897	18.632	1480.097	1405.611
650.912	18.579	1478.987	1403.955
651.926	18.566	1477.444	1402.216
652.941	18.487	1477.122	1401.094
653.955	18.442	1475.149	1398.681
654.970	18.491	1473.255	1397.122
655.985	18.497	1471.649	1395.478
656.999	18.495	1471.146	1394.822
658.014	18.618	1469.395	1393.995
659.028	18.573	1468.964	1393.057
660.043	18.642	1468.149	1392.678
661.058	18.809	1466.139	1391.967
662.072	18.546	1466.394	1389.896
663.087	18.589	1465.164	1388.919
664.101	18.599	1463.694	1387.434
665.116	18.483	1463.377	1386.031
666.131	18.591	1462.082	1385.512
667.145	18.606	1460.816	1384.269
668.160	18.581	1459.970	1383.101
669.174	18.662	1457.939	1381.663
670.189	18.479	1457.560	1379.660
671.204	18.479	1457.218	1379.168
672.218	18.449	1456.089	1377.690
673.233	18.583	1454.113	1376.741
674.247	18.746	1452.653	1376.506
675.262	18.653	1452.207	1375.168
676.276	18.665	1450.647	1373.623
677.291	18.721	1450.075	1373.371
678.306	18.623	1448.771	1371.183
679.320	18.652	1447.320	1369.878
680.335	18.525	1447.841	1369.191
681.349	18.600	1446.741	1368.586
682.364	18.561	1445.744	1367.168
683.379	18.613	1443.950	1365.721
684.393	18.505	1442.883	1363.683
685.408	18.633	1441.203	1362.953
686.422	18.520	1440.535	1361.262
687.437	18.489	1440.342	1360.666
688.452	18.602	1439.316	1360.433
689.466	18.558	1437.868	1358.557
690.481	18.500	1435.941	1356.108
691.495	18.438	1435.009	1354.572
692.510	18.441	1433.697	1353.198
693.525	18.342	1432.703	1351.314
694.539	18.401	1431.450	1350.434
695.554	18.378	1431.221	1349.876
696.568	18.616	1430.255	1350.690
697.583	18.488	1429.271	1348.584
698.598	18.684	1427.918	1348.695
699.612	18.635	1426.857	1347.144
700.627	18.593	1426.466	1346.280
701.641	18.752	1425.114	1346.098
702.656	18.641	1423.838	1343.860
703.671	18.705	1423.523	1343.903
704.685	18.771	1422.459	1343.258
705.700	18.712	1421.184	1341.432
706.714	18.753	1419.771	1340.253
707.729	18.773	1418.032	1338.607
708.744	18.545	1417.496	1336.161
709.758	18.768	1415.514	1335.875
710.773	18.666	1414.968	1334.406
711.787	18.563	1413.818	1332.355
712.802	18.585	1412.093	1330.742
713.816	18.551	1411.579	1329.834
714.831	18.659	1410.845	1329.821
715.846	18.699	1410.066	1329.241
716.860	18.885	1407.977	1328.554
717.875	18.646	1407.022	1325.643
718.889	18.624	1406.285	1324.621
719.904	18.659	1405.306	1323.805
720.919	18.736	1404.084	1323.093
721.933	18.788	1403.640	1322.924
722.948	18.754	1402.775	1321.681
723.962	18.742	1400.982	1319.747
724.977	18.809	1400.285	1319.446
725.992	18.762	1399.354	1318.046
727.006	18.714	1397.805	1316.062
728.021	18.762	1396.469	1315.020
729.035	18.779	1395.946	1314.500
730.050	18.665	1395.247	1312.808
731.065	18.756	1393.662	1311.853
732.079	18.799	1391.813	1310.288
733.094	18.831	1390.465	1309.106
734.108	18.774	1389.353	1307.467
735.123	18.780	1388.464	1306.519
736.138	18.722	1387.408	1304.930
737.152	18.742	1386.231	1303.819
738.167	18.651	1385.778	1302.536
739.181	18.816	1385.157	1303.060
740.196	18.717	1383.814	1300.885
741.211	18.696	1383.025	1299.827
742.225	18.751	1382.325	1299.434
743.240	18.635	1381.116	1297.259
744.254	18.621	1379.314	1295.301
745.269	18.615	1378.449	1294.292
746.284	18.586	1377.579	1293.103
747.298	18.510	1376.476	1291.335
748.313	18.561	1375.230	1290.394
749.327	18.318	1374.675	1287.882
750.342	18.432	1373.670	1287.651
751.356	18.378	1372.518	1286.006
752.371	18.522	1371.271	1285.770
753.386	18.634	1370.632	1285.863
754.400	18.596	1370.102	1284.924
755.415	18.703	1369.113	1284.649
756.429	18.699	1367.505	1282.954
757.444	18.726	1366.347	1281.919
758.459	18.749	1365.799	1281.423
759.473	18.838	1364.643	1280.854
760.488	19.050	1363.030	1280.770
761.502	19.004	1361.486	1278.821
762.517	18.886	1361.523	1277.821
763.532	18.634	1360.444	1274.774
764.546	18.772	1358.948	1274.248
765.561	18.712	1358.147	1272.898
766.575	18.533	1357.293	1270.618
767.590	18.818	1355.436	1270.844
768.605	18.689	1354.352	1268.716
769.619	18.791	1353.005	1268.062
770.634	18.727	1352.259	1266.732
771.648	18.884	1351.312	1266.859
772.663	18.948	1350.695	1266.606
773.678	18.769	1350.486	1264.931
774.692	18.743	1349.559	1263.717
775.707	18.803	1349.141	1263.623
776.721	18.898	1348.221	1263.306
777.736	18.927	1346.180	1261.460
778.751	18.909	1345.031	1260.100
779.765	18.944	1344.066	1259.300
780.780	18.929	1343.840	1258.830
781.794	18.789	1343.118	1256.971
782.809	18.599	1341.849	1254.236
783.824	18.698	1339.719	1252.825
784.838	18.636	1338.519	1251.093
785.853	18.357	1338.118	1248.530
786.867	18.480	1337.479	1248.679
787.882	18.528	1336.731	1248.185
788.897	18.510	1335.945	1247.167
789.911	18.634	1335.200	1247.232
790.926	18.709	1333.749	1246.278
791.940	18.734	1332.328	1244.980
792.955	18.752	1331.007	1243.730
793.969	18.752	1330.024	1242.660
794.984	18.779	1329.256	1241.989
795.999	18.915	1328.301	1241.939
797.013	18.932	1326.563	1240.290
798.028	18.746	1325.102	1237.427
799.042	18.730	1325.460	1237.494
800.057	18.990	1323.914	1237.786
801.072	19.111	1322.245	1236.947
802.086	18.799	1321.607	1233.949
803.101	18.858	1320.031	1232.755
804.115	19.004	1319.620	1233.278
805.130	18.966	1318.847	1232.134
806.145	18.968	1317.246	1230.504
807.159	19.084	1315.834	1229.877
808.174	18.885	1314.505	1227.059
809.188	18.821	1313.475	1225.489
810.203	18.818	1311.529	1223.504
811.218	18.825	1309.862	1221.852
812.232	18.796	1308.564	1220.292
813.247	18.647	1308.274	1218.809
814.261	18.572	1308.491	1218.327
815.276	18.799	1306.956	1218.373
816.291	18.886	1305.842	1217.811
817.305	18.912	1304.782	1216.859
818.320	18.773	1303.634	1214.657
819.334	18.864	1302.364	1213.977
820.349	18.896	1301.408	1213.165
821.364	18.896	1299.966	1211.675
822.378	18.948	1298.444	1210.481
823.393	18.824	1297.096	1208.202
824.407	18.920	1295.984	1207.696
825.422	18.834	1295.460	1206.461
826.437	18.865	1294.594	1205.725
827.451	18.730	1292.072	1202.286
828.466	18.432	1291.141	1199.179
829.480	18.539	1289.058	1197.847
830.495	18.590	1287.327	1196.455
831.509	18.749	1287.373	1197.467
832.524	18.752	1286.732	1196.755
833.539	18.788	1285.240	1195.469
834.553	18.840	1284.325	1194.843
835.568	19.082	1282.963	1195.120
836.582	18.983	1281.852	1193.253
837.597	19.024	1280.734	1192.354
838.612	18.914	1279.810	1190.585
839.626	18.931	1278.557	1189.399
840.641	18.895	1277.105	1187.652
841.655	18.940	1276.395	1187.165
842.670	18.657	1275.548	1184.268
843.685	18.633	1274.975	1183.429
844.699	18.820	1273.440	1183.157
845.714	18.898	1272.449	1182.637
846.728	19.019	1271.050	1182.032
847.743	19.099	1269.832	1181.308
848.758	18.984	1269.507	1180.071
849.772	18.883	1268.134	1177.957
850.787	19.036	1266.494	1177.343
851.801	18.921	1266.037	1175.989
852.816	18.878	1264.207	1173.852
853.831	18.742	1262.925	1171.592
854.845	18.830	1260.884	1170.159
855.860	18.704	1259.094	1167.493
856.874	18.688	1258.834	1167.007
857.889	18.620	1257.366	1165.039
858.904	18.479	1256.048	1162.718
859.918	18.423	1254.596	1160.851
860.933	18.404	1253.541	1159.610
861.947	18.444	1252.983	1159.225
862.962	18.566	1251.639	1158.674
863.977	18.503	1250.707	1157.242
864.991	18.614	1250.124	1157.321
866.006	18.800	1249.367	1157.742
867.020	19.040	1247.901	1157.868
868.035	18.985	1246.716	1156.259
869.049	18.951	1246.538	1155.723
870.064	19.016	1245.030	1154.628
871.079	18.848	1244.737	1153.082
872.093	18.869	1244.490	1152.859
873.108	19.027	1242.901	1152.313
874.122	19.071	1241.252	1150.938
875.137	19.006	1240.822	1149.964
876.152	18.967	1239.826	1148.641
877.166	19.058	1238.423	1147.815
878.181	19.036	1236.868	1146.091
879.195	19.121	1236.572	1146.246
880.210	18.998	1235.757	1144.534
881.225	19.059	1234.731	1143.855
882.239	18.996	1234.119	1142.732
883.254	19.218	1232.735	1142.791
884.268	19.105	1232.155	1141.367
885.283	18.864	1231.557	1139.068
886.298	18.911	1229.027	1136.902
887.312	18.976	1228.200	1136.435
888.327	19.180	1226.484	1136.063
889.341	19.152	1225.450	1134.782
890.356	18.986	1225.280	1133.391
891.371	18.808	1225.763	1132.523
892.385	18.776	1225.037	1131.507
893.400	18.919	1223.697	1131.080
894.414	19.065	1222.102	1130.435
895.429	18.970	1219.829	1127.571
896.444	18.643	1218.322	1123.890
897.458	18.804	1216.718	1123.335
898.473	18.721	1216.784	1122.715
899.487	18.634	1216.270	1121.531
900.502	18.933	1215.839	1122.963
901.517	18.858	1214.616	1121.212
902.531	19.081	1213.230	1121.258
903.546	19.055	1212.913	1120.658
904.560	18.948	1212.115	1119.088
905.575	19.212	1210.876	1119.535
906.589	19.243	1210.200	1118.974
907.604	19.040	1209.887	1117.228
