DTS Sentinel unit serial number:	SN409020Multiplexer serial number:	ORYXHardware model number:	OX4-SRSoftware version number:	ORYX F/W v3.00 Oryx Data Collector v3.7.2.0data status	okinstallation	HaddamTimeLapsedifferential loss correction	single-endedforward channel	channel 3reverse channel	N/Adate	2011/06/21time	14:11:17forward acquisition time	30.00reverse acquisition time	0.00gamma	498.7831k internal	0.1830k external	0.1830temperature offset calibration	1.0074default loss term (dB/km)	0.3790temperature slope calibration	1.3530multiplexer offset coefficient	1.0000multiplexer slope coefficient	1.0000fibre end	0.00T internal ref (°C)	38.06T ext. ref 1 (°C)	31.44T ext. ref 2 (°C)	0.25length (m)	temperature (°C)	Stokes	anti-Stokes-747.200	-200.000	-0.007	-0.114
-746.185	-110.743	0.241	0.063
-745.171	-28.509	-0.347	-0.253
-744.156	-78.341	0.139	0.060
-743.142	-10.815	-0.473	0.397
-742.127	422.241	0.098	0.268
-741.112	-36.737	0.136	-0.092
-740.098	-95.772	0.438	0.148
-739.083	-200.000	0.035	0.457
-738.069	-200.000	0.053	0.568
-737.054	-129.947	-0.146	-0.025
-736.039	-38.170	0.234	-0.158
-735.025	-104.435	0.489	0.143
-734.010	-183.487	-0.262	0.006
-732.996	-200.000	0.023	-0.165
-731.981	193.947	-0.220	-0.424
-730.966	-77.273	-0.120	0.053
-729.952	675.660	0.044	-0.146
-728.937	-194.506	-0.329	0.003
-727.923	-128.823	-0.284	-0.050
-726.908	118.555	0.060	-0.095
-725.894	800.000	-0.033	0.133
-724.879	195.485	-0.204	-0.395
-723.864	77.631	-0.233	-0.315
-722.850	220.460	-0.058	0.118
-721.835	161.262	-0.289	0.515
-720.821	143.769	0.315	-0.534
-719.806	-114.283	-0.166	0.040
-718.791	-132.860	-0.506	-0.081
-717.777	-144.244	-0.175	-0.021
-716.762	92.303	0.267	-0.383
-715.748	549.660	-0.124	0.380
-714.733	-32.353	-0.343	-0.242
-713.718	143.789	-0.114	-0.193
-712.704	27.584	-0.202	-0.215
-711.689	800.000	0.146	0.574
-710.675	-147.176	-0.334	-0.036
-709.660	19.632	-0.078	-0.080
-708.645	181.964	-0.156	0.293
-707.631	-99.908	-0.105	0.033
-706.616	-111.171	-0.696	0.179
-705.602	204.170	0.250	-0.493
-704.587	492.077	-0.060	-0.174
-703.572	145.609	-0.285	-0.486
-702.558	-30.845	0.079	-0.056
-701.543	262.346	0.112	-0.247
-700.529	72.126	0.305	-0.403
-699.514	-87.857	-0.427	-0.162
-698.499	260.223	-0.119	-0.261
-697.485	-186.371	0.049	0.001
-696.470	101.185	0.079	0.117
-695.456	-135.986	-0.853	0.126
-694.441	-133.065	0.174	-0.028
-693.426	-109.293	0.268	0.072
-692.412	45.170	0.236	-0.276
-691.397	-113.991	-0.491	0.120
-690.383	-104.909	0.299	0.086
-689.368	-35.673	0.140	-0.096
-688.354	800.000	-0.095	0.343
-687.339	-81.222	-0.262	0.109
-686.324	-133.966	-0.324	-0.050
-685.310	-0.951	0.108	0.097
-684.295	-61.026	-0.280	0.150
-683.281	-13.133	0.270	0.222
-682.266	309.831	-0.148	0.352
-681.251	304.960	-0.100	-0.235
-680.237	56.217	-0.200	0.246
-679.222	-159.935	0.054	0.004
-678.208	-130.584	0.326	-0.055
-677.193	-27.650	0.067	-0.049
-676.178	0.714	-0.460	0.417
-675.164	310.493	-0.195	-0.465
-674.149	-112.301	-0.243	-0.061
-673.135	-4.757	-0.200	-0.175
-672.120	285.451	-0.128	0.294
-671.105	-47.595	-0.286	0.175
-670.091	-122.989	0.853	-0.172
-669.076	43.743	0.199	-0.230
-668.062	800.000	-0.017	-0.061
-667.047	-200.000	0.018	-0.150
-666.032	-85.911	-0.147	0.057
-665.018	7.878	-0.246	-0.234
-664.003	-200.000	0.037	-0.248
-662.989	-116.671	-0.247	0.057
-661.974	-58.000	-0.415	0.229
-660.959	-128.490	-0.116	0.021
-659.945	-3.435	0.230	0.203
-658.930	107.522	0.064	0.096
-657.916	800.000	-0.105	-0.550
-656.901	-200.000	0.041	-0.293
-655.886	305.469	-0.167	0.395
-654.872	-151.052	0.232	-0.022
-653.857	-70.634	-0.125	0.060
-652.843	65.880	-0.221	-0.284
-651.828	-200.000	0.009	0.210
-650.814	-23.794	0.213	-0.161
-649.799	-76.525	0.529	-0.234
-648.784	-120.312	-0.187	-0.040
-647.770	-200.000	0.021	0.138
-646.755	-54.420	0.319	0.183
-645.741	53.706	-0.167	0.203
-644.726	69.259	0.124	0.162
-643.711	16.129	-0.344	0.343
-642.697	800.000	0.028	-0.128
-641.682	-11.165	-0.130	-0.108
-640.668	-8.284	-0.210	0.179
-639.653	36.196	0.429	0.478
-638.638	-99.863	0.368	0.116
-637.624	-199.890	0.312	0.002
-636.609	-89.956	0.249	-0.092
-635.595	-67.040	0.328	-0.163
-634.580	365.589	-0.016	-0.041
-633.565	363.571	-0.116	-0.297
-632.551	-72.495	0.112	-0.052
-631.536	-200.000	-0.030	0.220
-630.522	-200.000	-0.033	0.673
-629.507	-200.000	0.025	0.362
-628.492	44.342	-0.189	-0.220
-627.478	21.035	-0.253	0.259
-626.463	67.091	0.079	0.102
-625.449	-157.738	-0.123	-0.009
-624.434	-88.055	-0.295	0.111
-623.419	-144.931	-0.339	-0.039
-622.405	-121.031	-0.046	0.010
-621.390	-15.407	0.410	-0.331
-620.376	800.000	0.057	0.279
-619.361	-200.000	0.001	0.189
-618.346	-93.924	0.243	0.084
-617.332	50.361	0.105	-0.126
-616.317	-93.498	0.450	-0.156
-615.303	244.969	0.146	-0.312
-614.288	186.927	0.057	-0.107
-613.273	60.622	0.066	-0.082
-612.259	-43.094	0.113	-0.072
-611.244	800.000	0.119	0.476
-610.230	-12.654	-0.129	-0.106
-609.215	-174.173	-0.038	-0.001
-608.201	-69.912	-0.422	0.203
-607.186	374.991	-0.043	0.110
-606.171	-115.125	-0.180	-0.043
-605.157	-114.021	0.236	0.057
-604.142	-154.095	-0.440	0.037
-603.128	-130.635	-0.377	-0.064
-602.113	-97.615	-0.378	-0.123
-601.098	70.211	0.392	0.513
-600.084	110.725	0.306	0.466
-599.069	-113.016	0.280	0.069
-598.055	106.380	0.123	0.185
-597.040	-66.632	-0.412	-0.206
-596.025	-200.000	-0.007	-0.365
-595.011	-80.607	0.152	-0.063
-593.996	650.736	0.081	0.262
-592.982	-29.179	0.376	0.272
-591.967	-81.749	-0.138	0.057
-590.952	-200.000	0.020	-0.185
-589.938	-121.034	0.801	-0.168
-588.923	553.606	0.082	-0.250
-587.909	318.499	0.173	-0.415
-586.894	-98.620	0.241	0.077
-585.879	-12.392	-0.351	-0.290
-584.865	-43.790	0.164	-0.104
-583.850	-184.725	0.164	-0.003
-582.836	-61.273	-0.229	0.121
-581.821	284.545	-0.015	-0.034
-580.806	-200.000	0.014	-0.113
-579.792	-200.000	0.047	0.551
-578.777	92.154	0.322	-0.459
-577.763	-51.872	0.250	0.146
-576.748	-156.901	0.325	0.025
-575.733	16.220	-0.448	0.446
-574.719	-200.000	-0.027	-0.244
-573.704	283.299	0.201	-0.458
-572.690	75.288	0.167	0.222
-571.675	800.000	0.045	0.185
-570.661	-67.039	-0.591	-0.293
-569.646	-41.512	0.181	0.117
-568.631	800.000	0.022	0.109
-567.617	23.140	0.393	0.408
-566.602	-200.000	-0.001	-0.324
-565.588	-87.925	-0.313	0.118
-564.573	88.838	0.213	0.300
-563.558	67.461	-0.067	0.087
-562.544	-82.402	-0.203	-0.083
-561.529	181.598	-0.090	0.167
-560.515	-200.000	-0.049	0.310
-559.500	-200.000	-0.281	0.001
-558.485	-97.563	0.375	0.122
-557.471	34.796	0.275	-0.304
-556.456	-70.210	-0.267	-0.127
-555.442	296.471	-0.132	-0.307
-554.427	251.441	0.070	0.150
-553.412	-200.000	0.017	0.171
-552.398	-68.786	0.221	0.107
-551.383	-200.000	0.006	0.357
-550.369	-168.511	-0.404	-0.019
-549.354	-13.494	0.280	-0.228
-548.339	-75.372	0.196	0.088
-547.325	-75.293	-0.179	0.080
-546.310	-75.011	-0.653	-0.293
-545.296	26.380	-0.237	-0.250
-544.281	-10.229	-0.402	0.336
-543.266	-134.976	-0.452	-0.068
-542.252	800.000	-0.090	0.345
-541.237	51.766	-0.340	-0.408
-540.223	-200.000	-0.000	0.344
-539.208	800.000	0.090	-0.469
-538.193	628.095	-0.015	-0.049
-537.179	92.497	-0.145	0.206
-536.164	-43.415	0.338	-0.215
-535.150	-200.000	-0.052	0.405
-534.135	178.687	0.174	0.322
-533.121	59.673	0.044	-0.055
-532.106	83.886	0.165	0.227
-531.091	-200.000	-0.014	0.192
-530.077	120.141	0.132	-0.206
-529.062	-77.580	-0.300	0.130
-528.048	36.586	0.122	0.136
-527.033	-100.760	0.242	0.074
-526.018	133.312	-0.296	0.483
-525.004	-134.436	-0.015	0.002
-523.989	-117.934	-0.627	0.140
-522.975	179.071	-0.154	0.285
-521.960	-23.098	-0.387	-0.293
-520.945	10.664	-0.039	0.037
-519.931	-126.759	0.449	-0.083
-518.916	-53.990	0.430	-0.246
-517.902	-60.967	-0.164	0.087
-516.887	45.911	0.316	0.368
-515.872	49.436	-0.066	0.079
-514.858	-200.000	0.040	0.379
-513.843	26.316	-0.290	-0.306
-512.829	-180.165	-0.179	0.005
-511.814	-183.287	-0.211	0.005
-510.799	800.000	0.008	0.034
-509.785	702.547	0.022	-0.074
-508.770	-113.102	-0.333	0.082
-507.756	-200.000	0.015	-0.182
-506.741	131.298	-0.205	0.332
-505.726	1.984	0.253	0.230
-504.712	-200.000	0.055	0.317
-503.697	-62.288	0.265	-0.138
-502.683	-114.888	0.370	-0.088
-501.668	-87.399	0.035	-0.013
-500.653	13.153	0.075	-0.073
-499.639	18.631	-0.183	-0.184
-498.624	-200.000	0.032	-0.431
-497.610	-142.426	0.166	-0.020
-496.595	322.632	0.167	0.401
-495.581	800.000	0.057	0.303
-494.566	-200.000	-0.643	0.003
-493.551	-78.354	-0.217	-0.093
-492.537	160.345	0.160	-0.282
-491.522	29.561	0.148	0.159
-490.508	189.980	-0.137	0.260
-489.493	800.000	-0.060	0.296
-488.478	-184.951	0.378	-0.007
-487.464	94.562	-0.200	0.287
-486.449	249.223	0.149	0.319
-485.435	-67.575	0.017	0.008
-484.420	-18.302	-0.262	-0.206
-483.405	800.000	0.049	-0.187
-482.391	-20.574	0.086	-0.066
-481.376	-94.868	-0.114	0.038
-480.362	3.614	0.036	0.033
-479.347	130.706	-0.124	0.200
-478.332	-44.255	-0.163	-0.103
-477.318	207.882	-0.224	0.441
-476.303	-53.304	-0.169	-0.097
-475.289	-3.197	-0.279	-0.245
-474.274	40.431	0.401	0.454
-473.259	49.542	-0.056	0.066
-472.245	-103.807	-0.203	0.059
-471.230	-150.559	0.127	-0.012
-470.216	-108.523	0.309	0.083
-469.201	800.000	-0.046	0.231
-468.186	8.817	-0.321	0.304
-467.172	333.637	-0.112	-0.273
-466.157	-8.335	-0.359	-0.303
-465.143	-47.522	-0.204	0.124
-464.128	-105.359	-0.301	-0.085
-463.113	286.398	0.062	0.141
-462.099	271.424	-0.037	-0.083
-461.084	800.000	-0.101	-0.414
-460.070	-113.990	0.056	0.014
-459.055	50.158	-0.150	0.178
-458.040	-200.000	0.005	0.115
-457.026	72.374	-0.306	-0.401
-456.011	-200.000	-0.001	-0.232
-454.997	0.651	-0.506	-0.454
-453.982	39.846	-0.062	0.070
-452.968	-84.092	0.614	0.244
-451.953	-86.002	0.344	-0.133
-450.938	-24.516	0.112	-0.084
-449.924	-12.188	-0.192	-0.157
-448.909	-200.000	0.063	0.383
-447.895	800.000	0.043	0.164
-446.880	-114.110	0.367	0.088
-445.865	-109.318	-0.429	0.113
-444.851	56.749	-0.125	-0.153
-443.836	334.841	-0.169	-0.413
-442.822	-31.345	-0.209	-0.148
-441.807	-38.733	-0.457	0.302
-440.792	680.651	-0.177	-0.581
-439.778	800.000	0.171	-0.809
-438.763	-191.829	-0.277	-0.003
-437.749	491.327	0.220	0.635
-436.734	407.283	-0.065	-0.172
-435.719	389.950	0.084	-0.220
-434.705	74.033	0.085	-0.112
-433.690	-200.000	0.038	-0.473
-432.676	25.356	-0.231	0.241
-431.661	-189.204	-0.117	0.002
-430.646	-80.093	-0.307	0.129
-429.632	-200.000	-0.027	-0.244
-428.617	194.276	-0.017	-0.032
-427.603	1.079	0.385	0.346
-426.588	-200.000	-0.032	0.692
-425.573	41.839	0.214	0.244
-424.559	800.000	0.045	0.204
-423.544	-133.425	-0.154	0.024
-422.530	-86.886	0.294	0.112
-421.515	-63.599	0.313	-0.161
-420.500	-161.461	0.167	0.011
-419.486	-200.000	-0.009	-0.258
-418.471	7.063	-0.283	-0.265
-417.457	-14.824	0.228	-0.184
-416.442	49.294	0.069	0.081
-415.428	-62.502	-0.190	0.099
-414.413	-200.000	-0.021	0.117
-413.398	-8.844	0.155	-0.130
-412.384	-118.517	-0.378	0.083
-411.369	-47.358	0.420	-0.255
-410.355	-37.554	0.200	-0.133
-409.340	-126.016	-0.309	-0.058
-408.325	-115.286	-0.517	0.122
-407.311	140.980	0.176	-0.293
-406.296	119.663	0.062	0.096
-405.282	22.812	-0.359	-0.369
-404.267	-50.845	0.274	0.161
-403.252	-109.453	0.304	0.080
-402.238	-200.000	-0.034	-0.317
-401.223	-200.000	0.020	0.172
-400.209	48.263	0.181	-0.212
-399.194	-135.949	-0.280	-0.041
-398.179	-200.000	0.001	-0.300
-397.165	-54.880	0.394	-0.222
-396.150	-108.610	0.265	0.071
-395.136	-5.286	-0.362	-0.311
-394.121	23.287	-0.264	0.272
-393.106	39.158	0.179	0.200
-392.092	146.805	-0.074	0.124
-391.077	275.458	0.215	-0.479
-390.063	-30.698	0.279	-0.197
-389.048	199.448	-0.189	-0.364
-388.033	301.058	0.077	-0.178
-387.019	66.736	0.200	-0.255
-386.004	338.832	-0.180	-0.442
-384.990	-132.383	-0.592	-0.095
-383.975	-61.759	-0.455	-0.238
-382.960	-59.918	0.316	-0.169
-381.946	-99.198	0.119	0.037
-380.931	19.934	-0.163	0.165
-379.917	800.000	-0.055	0.218
-378.902	-200.000	0.039	-0.513
-377.888	280.711	-0.236	0.531
-376.873	-42.504	0.312	0.199
-375.858	-1.454	0.172	0.152
-374.844	-200.000	-0.017	-0.136
-373.829	-200.000	-0.075	-0.524
-372.815	-86.501	0.316	-0.121
-371.800	800.000	0.127	-0.442
-370.785	5.354	0.212	-0.195
-369.771	-188.062	0.468	0.007
-368.756	-96.315	-0.268	0.088
-367.742	-70.365	-0.269	0.127
-366.727	-17.158	-0.105	0.083
-365.712	573.639	-0.078	0.239
-364.698	310.597	0.046	0.108
-363.683	-1.073	-0.382	-0.338
-362.669	-4.363	-0.571	-0.494
-361.654	-78.702	0.036	-0.015
-360.639	-35.151	-0.321	0.219
-359.625	94.317	0.206	-0.294
-358.610	-72.609	0.267	0.123
-357.596	-200.000	-0.044	-0.270
-356.581	-83.848	-0.227	-0.090
-355.566	-75.723	0.476	0.210
-354.552	-96.691	-0.215	0.071
-353.537	-134.240	0.293	0.045
-352.523	-200.000	-0.072	0.513
-351.508	-152.882	-0.361	0.032
-350.493	800.000	0.049	0.242
-349.479	-200.000	0.061	0.361
-348.464	-200.000	0.026	-0.204
-347.450	-193.839	-0.445	0.005
-346.435	-25.864	-0.187	0.138
-345.420	447.157	-0.022	0.062
-344.406	-32.626	-0.142	-0.099
-343.391	-140.021	-0.026	0.003
-342.377	-76.175	-0.200	-0.088
-341.362	105.704	-0.251	-0.372
-340.348	-32.377	0.166	-0.116
-339.333	216.674	-0.228	-0.455
-338.318	-87.396	0.186	-0.070
-337.304	5.232	0.253	-0.233
-336.289	-73.506	0.222	0.101
-335.275	186.184	-0.186	-0.347
-334.260	-129.746	0.088	0.015
-333.245	-3.851	0.295	-0.256
-332.231	515.305	0.148	0.434
-331.216	-69.393	0.167	0.080
-330.202	739.759	-0.094	0.316
-329.187	-74.395	-0.231	-0.104
-328.172	-44.968	-0.112	0.070
-327.158	108.419	0.171	0.256
-326.143	138.395	-0.102	-0.168
-325.129	649.765	0.115	0.372
-324.114	-5.913	0.251	0.215
-323.099	-159.412	-0.655	0.045
-322.085	-145.266	0.129	-0.014
-321.070	-133.570	-0.033	-0.005
-320.056	-115.187	-0.426	-0.100
-319.041	-5.376	-0.112	-0.096
-318.026	-47.539	-0.261	-0.158
-317.012	800.000	0.134	0.525
-315.997	62.854	0.164	0.205
-314.983	45.917	0.152	-0.176
-313.968	-174.247	-0.302	0.011
-312.953	800.000	0.153	-0.695
-311.939	-35.967	-0.156	0.105
-310.924	-32.341	-0.096	-0.067
-309.910	171.535	-0.099	-0.178
-308.895	143.562	-0.187	0.312
-307.880	92.119	-0.132	-0.187
-306.866	800.000	-0.118	-0.414
-305.851	-200.000	-0.185	0.000
-304.837	-130.003	0.063	0.011
-303.822	800.000	0.074	-0.272
-302.807	347.974	0.071	-0.176
-301.793	-121.590	-0.428	-0.088
-300.778	49.224	0.191	0.224
-299.764	205.566	0.129	0.251
-298.749	-82.915	0.255	0.102
-297.735	-157.153	0.537	0.040
-296.720	-200.000	0.008	0.162
-295.705	-59.430	-0.071	0.038
-294.691	-130.460	-0.339	-0.057
-293.676	-200.000	0.059	-0.385
-292.662	-4.587	-0.227	0.196
-291.647	-66.127	-0.372	-0.184
-290.632	6.204	0.371	-0.343
-289.618	-5.347	0.264	-0.226
-288.603	-70.436	0.367	-0.173
-287.589	-98.673	0.095	0.030
-286.574	157.260	0.054	0.094
-285.559	-154.687	-0.490	-0.040
-284.545	-31.300	-0.221	-0.155
-283.530	72.915	-0.420	-0.548
-282.516	-164.678	0.162	0.009
-281.501	-190.318	0.398	0.005
-280.486	-27.792	0.164	-0.119
-279.472	7.149	0.266	0.247
-278.457	-199.339	0.341	-0.002
-277.443	-58.578	-0.193	-0.104
-276.428	-137.457	-0.109	0.015
-275.413	-102.489	0.186	-0.055
-274.399	-99.596	-0.521	-0.162
-273.384	-51.211	0.328	0.191
-272.370	-43.222	0.137	-0.086
-271.355	800.000	-0.072	-0.305
-270.340	-53.824	-0.292	0.166
-269.326	-158.732	0.427	-0.030
-268.311	-24.244	-0.455	-0.338
-267.297	-3.696	-0.208	0.180
-266.282	165.841	0.101	0.179
-265.267	-77.236	0.504	-0.218
-264.253	-71.000	0.564	0.263
-263.238	-99.131	0.213	0.067
-262.224	-64.215	0.363	0.184
-261.209	260.476	0.059	0.127
-260.195	-200.000	0.043	0.270
-259.180	57.078	0.226	0.274
-258.165	-115.404	0.611	-0.143
-257.151	-135.457	-0.049	-0.007
-256.136	-200.000	-0.044	-0.355
-255.122	710.122	-0.085	0.282
-254.107	-15.768	-0.245	-0.195
-253.092	16.277	0.460	-0.452
-252.078	-103.186	0.290	0.085
-251.063	-48.481	0.416	-0.249
-250.049	-68.318	0.098	0.047
-249.034	-77.432	0.465	-0.200
-248.019	-130.022	0.312	0.053
-247.005	-161.438	-0.155	-0.010
-245.990	236.819	0.255	0.528
-244.976	-140.204	-0.300	-0.039
-243.961	-60.778	0.112	0.059
-242.946	-53.434	-0.084	-0.048
-241.932	-119.819	0.473	-0.101
-240.917	-81.643	0.293	-0.119
-239.903	-107.555	-0.440	-0.119
-238.888	-126.188	0.649	-0.120
-237.873	-78.382	0.391	-0.166
-236.859	472.755	0.080	0.225
-235.844	-23.784	-0.202	0.150
-234.830	-200.000	-0.028	0.340
-233.815	-14.865	0.315	0.252
-232.800	-111.480	-0.110	0.028
-231.786	-200.000	0.011	-0.196
-230.771	5.397	0.294	-0.270
-229.757	321.474	0.135	-0.320
-228.742	2.815	-0.193	0.174
-227.727	-65.731	-0.197	-0.098
-226.713	10.071	-0.248	0.234
-225.698	129.768	0.123	0.197
-224.684	-119.369	-0.585	0.126
-223.669	-100.528	0.736	-0.225
-222.655	-71.201	-0.050	0.023
-221.640	-19.034	-0.053	-0.041
-220.625	-144.968	0.329	0.037
-219.611	-153.269	-0.209	0.018
-218.596	800.000	-0.031	0.162
-217.582	212.152	0.174	-0.342
-216.567	-88.229	0.434	0.161
-215.552	-102.699	-0.248	0.073
-214.538	-136.266	0.208	0.030
-213.523	179.452	0.249	-0.455
-212.509	127.681	-0.297	0.471
-211.494	-97.518	0.134	0.043
-210.479	44.500	-0.224	0.256
-209.465	-142.755	-0.210	0.025
-208.450	28.709	-0.159	-0.168
-207.436	-70.316	-0.267	-0.126
-206.421	14.834	-0.312	-0.304
-205.406	-125.814	-0.367	-0.068
-204.392	163.189	0.184	-0.323
-203.377	7.588	-0.221	-0.206
-202.363	-52.037	-0.361	0.208
-201.348	-84.409	-0.114	0.045
-200.333	-47.235	0.269	-0.163
-199.319	395.318	0.046	0.121
-198.304	206.637	0.159	-0.308
-197.290	800.000	-0.014	0.066
-196.275	-176.212	0.243	0.008
-195.260	-14.748	0.074	0.059
-194.246	-67.099	-0.438	-0.214
-193.231	-200.000	-0.044	-0.380
-192.217	-200.000	0.004	-0.251
-191.202	234.816	-0.175	-0.361
-190.187	-200.000	0.003	0.250
-189.173	-200.000	-0.006	0.357
-188.158	108.460	-0.209	0.311
-187.144	-78.924	-0.189	-0.080
-186.129	10.933	0.481	-0.457
-185.114	-73.585	0.323	-0.146
-184.100	0.227	0.116	0.103
-183.085	287.420	-0.088	0.198
-182.071	77.142	0.133	0.175
-181.056	-200.000	0.062	0.532
-180.042	-41.892	0.150	0.095
-179.027	-200.000	-0.006	0.405
-178.012	-36.213	-0.391	0.262
-176.998	62.971	-0.140	0.175
-175.983	-195.039	-0.208	-0.002
-174.969	-131.777	0.157	0.025
-173.954	-25.481	-0.062	-0.045
-172.939	-8.320	-0.154	-0.129
-171.925	-119.810	-0.304	0.064
-170.910	26.610	-0.117	-0.122
-169.896	-32.743	-0.249	-0.172
-168.881	-113.759	-0.167	-0.040
-167.866	6.322	-0.301	-0.277
-166.852	-134.169	-0.192	0.029
-165.837	11.634	0.321	0.306
-164.823	-167.731	0.290	-0.014
-163.808	-200.000	0.015	0.262
-162.793	800.000	-0.014	0.051
-161.779	-77.326	-0.335	0.144
-160.764	-70.453	0.336	0.157
-159.750	-83.231	-0.298	0.118
-158.735	366.222	-0.151	0.380
-157.720	-144.169	0.319	-0.037
-156.706	316.421	-0.160	-0.376
-155.691	-98.589	0.273	-0.086
-154.677	-138.265	-0.184	-0.025
-153.662	-73.417	0.107	0.048
-152.647	-92.205	0.278	0.097
-151.633	800.000	-0.010	0.048
-150.618	-112.955	-0.065	-0.016
-149.604	-9.179	0.550	-0.456
-148.589	800.000	0.050	-0.237
-147.574	-50.067	-0.153	0.090
-146.560	-87.845	-0.205	0.076
-145.545	-61.442	0.242	-0.126
-144.531	-117.654	-0.553	0.123
-143.516	-151.594	-0.370	-0.034
-142.502	800.000	0.051	-0.215
-141.487	800.000	0.075	0.405
-140.472	-200.000	0.024	0.344
-139.458	-91.695	-0.357	-0.125
-138.443	10.042	-0.351	-0.330
-137.429	-130.982	-0.359	0.059
-136.414	142.229	-0.150	0.247
-135.399	-57.466	-0.326	0.177
-134.385	-173.642	0.466	-0.017
-133.370	79.887	-0.040	-0.053
-132.356	-78.201	-0.416	0.177
-131.341	253.027	0.149	-0.317
-130.326	-40.660	0.369	0.237
-129.312	-200.000	-0.011	0.256
-128.297	59.038	-0.061	-0.074
-127.283	-188.807	-0.219	-0.003
-126.268	237.040	0.201	0.415
-125.253	47.114	-0.197	0.228
-124.239	-77.638	0.445	0.190
-123.224	800.000	-0.094	0.366
-122.210	1.872	-0.459	0.411
-121.195	-161.270	0.507	0.032
-120.180	-78.436	0.308	0.130
-119.166	-125.499	-0.556	-0.104
-118.151	51.171	-0.062	-0.073
-117.137	-152.776	-0.099	0.009
-116.122	800.000	0.104	-0.558
-115.107	-139.589	-0.492	0.064
-114.093	-80.109	0.165	0.068
-113.078	-87.531	-0.059	-0.022
-112.064	-200.000	-0.025	-0.529
-111.049	800.000	-0.040	0.200
-110.034	800.000	-0.098	0.371
-109.020	-185.474	-0.033	-0.001
-108.005	68.673	0.053	0.067
-106.991	-200.000	-0.028	0.645
-105.976	128.443	0.336	0.532
-104.962	-104.891	-0.217	-0.061
-103.947	-50.578	0.136	0.079
-102.932	455.970	-0.056	0.156
-101.918	778.286	-0.079	-0.269
-100.903	503.263	-0.171	-0.492
-99.889	480.243	-0.165	-0.465
-98.874	-195.767	-0.158	0.001
-97.859	423.045	0.023	0.062
-96.845	-166.228	-0.171	-0.009
-95.830	-160.512	-0.294	0.019
-94.816	122.237	0.082	-0.127
-93.801	-200.000	0.001	0.256
-92.786	600.190	-0.036	0.111
-91.772	-60.543	-0.193	-0.101
-90.757	629.220	-0.166	-0.524
-89.743	-84.293	0.105	-0.041
-88.728	-33.580	-0.469	-0.320
-87.713	348.359	0.155	0.380
-86.699	614.859	-0.157	-0.489
-85.684	68.297	0.139	-0.177
-84.670	-200.000	0.065	-0.473
-83.655	-44.858	-0.088	-0.054
-82.640	-3.301	-0.277	-0.239
-81.626	-133.663	-0.413	0.063
-80.611	-166.869	0.277	0.014
-79.597	800.000	-0.023	0.114
-78.582	-200.000	0.001	0.049
-77.567	61.534	0.130	0.160
-76.553	-52.730	0.314	0.179
-75.538	229.319	-0.221	0.448
-74.524	-72.779	0.222	-0.101
-73.509	-155.410	-0.101	0.008
-72.494	-140.364	0.110	0.014
-71.480	-200.000	-0.063	0.527
-70.465	15.624	0.153	-0.149
-69.451	-200.000	0.009	-0.105
-68.436	800.000	0.027	-0.137
-67.422	-39.959	-0.239	-0.154
-66.407	-43.916	-0.045	-0.028
-65.392	58.194	0.298	0.361
-64.378	800.000	-0.035	-0.136
-63.363	24.149	-0.106	0.108
-62.349	715.178	-0.150	0.495
-61.334	800.000	-0.219	-0.796
-60.319	-113.817	0.099	-0.024
-59.305	257.115	-2.439	-5.207
-58.290	7.326	2.302	2.127
-57.276	479.031	3.471	9.778
-56.261	-200.000	9.405	186.371
-55.246	557.718	1069.297	3207.332
-54.232	74.416	2698.378	3512.376
-53.217	78.166	2657.040	3511.807
-52.203	80.093	2394.352	3189.095
-51.188	41.379	2044.900	2289.041
-50.173	41.676	1907.594	2138.461
-49.159	39.254	1896.105	2099.545
-48.144	38.700	1892.027	2089.015
-47.130	38.460	1889.479	2083.551
-46.115	38.309	1888.190	2080.434
-45.100	38.351	1886.803	2079.272
-44.086	38.404	1885.098	2077.871
-43.071	38.285	1884.200	2075.534
-42.057	38.293	1882.421	2073.570
-41.042	38.322	1881.498	2072.781
-40.027	38.095	1880.765	2069.476
-39.013	38.413	1877.776	2069.484
-37.998	38.292	1877.182	2067.460
-36.984	38.211	1876.092	2065.320
-35.969	38.146	1874.805	2063.129
-34.954	38.210	1873.504	2062.292
-33.940	38.252	1872.133	2061.147
-32.925	38.284	1871.321	2060.511
-31.911	38.133	1870.597	2058.032
-30.896	38.279	1867.957	2056.592
-29.881	38.162	1867.077	2054.305
-28.867	38.127	1866.251	2052.943
-27.852	38.147	1864.490	2051.141
-26.838	38.025	1863.155	2048.305
-25.823	37.962	1861.890	2046.161
-24.809	37.918	1861.358	2045.041
-23.794	38.092	1858.666	2043.827
-22.779	38.094	1857.779	2042.790
-21.765	38.138	1856.381	2041.638
-20.750	38.029	1855.373	2039.307
-19.736	37.950	1854.643	2037.591
-18.721	38.034	1852.662	2036.214
-17.706	37.921	1852.176	2034.415
-16.692	37.941	1850.743	2032.969
-15.677	38.003	1849.753	2032.449
-14.663	37.894	1848.811	2030.197
-13.648	37.938	1846.888	2028.464
-12.633	37.912	1845.398	2026.476
-11.619	37.994	1843.938	2025.644
-10.604	37.970	1843.400	2024.724
-9.590	37.918	1842.049	2022.621
-8.575	37.969	1840.315	2021.160
-7.560	38.061	1838.972	2020.568
-6.546	37.896	1839.160	2018.975
-5.531	38.036	1837.213	2018.214
-4.517	37.811	1836.630	2015.157
-3.502	37.869	1835.921	2014.894
-2.487	37.815	1835.100	2013.360
-1.473	38.250	1831.181	2013.487
-0.458	38.502	1814.093	1997.197
0.556	35.139	1939.671	2086.231
1.571	34.732	2154.706	2312.280
2.586	37.018	2205.569	2395.007
3.600	37.126	2209.610	2400.453
4.615	37.607	2209.061	2405.547
5.629	37.404	2208.032	2401.615
6.644	37.519	2206.112	2400.665
7.659	37.622	2204.396	2399.790
8.673	38.156	2203.239	2404.853
9.688	37.295	2206.073	2396.979
10.702	32.318	2265.546	2397.713
11.717	27.435	2324.036	2394.938
12.731	14.067	2289.396	2183.631
13.746	2.352	2259.439	2001.409
14.761	0.626	2254.515	1974.147
15.775	0.423	2251.647	1968.739
16.790	0.324	2249.758	1965.558
17.804	0.278	2248.848	1963.919
18.819	0.315	2247.624	1963.103
19.834	0.327	2245.884	1961.499
20.848	0.246	2245.318	1959.715
21.863	0.298	2243.886	1958.915
22.877	0.244	2242.126	1956.433
23.892	0.242	2238.801	1953.279
24.907	0.273	2237.479	1952.292
25.921	0.205	2236.271	1950.117
26.936	0.244	2233.904	1948.329
27.950	0.345	2230.408	1946.353
28.965	0.286	2228.845	1943.998
29.980	0.294	2227.577	1942.765
30.994	0.397	2226.049	1942.528
32.009	7.090	2249.128	2049.776
33.023	26.250	2307.663	2356.572
34.038	41.233	2346.994	2594.477
35.053	46.136	2356.023	2668.367
36.067	45.518	2350.448	2653.674
37.082	43.462	2342.621	2617.787
38.096	43.245	2342.273	2614.260
39.111	45.379	2344.698	2644.435
40.126	47.266	2348.825	2673.303
41.140	49.396	2354.742	2707.406
42.155	48.985	2351.059	2697.521
43.169	48.009	2346.434	2679.263
44.184	48.110	2342.274	2675.495
45.199	47.824	2340.170	2669.075
46.213	46.594	2335.719	2647.804
47.228	45.770	2332.400	2633.095
48.242	46.370	2332.844	2641.016
49.257	46.424	2330.560	2638.817
50.271	47.097	2329.685	2646.179
51.286	47.357	2328.708	2648.086
52.301	46.858	2325.124	2637.292
53.315	46.275	2321.761	2625.683
54.330	40.473	2300.619	2527.381
55.344	34.305	2281.865	2427.774
56.359	33.637	2275.793	2412.486
57.374	32.923	2272.639	2399.731
58.388	32.439	2269.075	2389.505
59.403	33.206	2268.331	2398.221
60.417	35.009	2271.485	2424.254
61.432	35.549	2269.819	2429.056
62.447	34.283	2264.936	2407.465
63.461	33.761	2261.460	2396.863
64.476	33.270	2258.359	2387.061
65.490	34.792	2261.814	2409.737
66.505	38.739	2275.563	2474.299
67.520	44.066	2288.939	2556.277
68.534	45.206	2287.892	2569.231
69.549	45.849	2287.264	2576.335
70.563	46.354	2286.602	2581.651
71.578	46.865	2286.742	2587.944
72.593	47.469	2286.973	2595.504
73.607	47.844	2285.867	2598.662
74.622	47.295	2282.229	2587.323
75.636	45.858	2276.870	2562.905
76.651	46.592	2275.794	2570.597
77.666	46.832	2273.774	2571.009
78.680	46.636	2273.049	2567.428
79.695	48.232	2276.285	2590.767
80.709	49.657	2278.459	2610.755
81.724	49.764	2275.687	2608.597
82.739	49.108	2271.491	2595.309
83.753	47.669	2264.613	2569.241
84.768	46.795	2261.408	2554.428
85.782	45.938	2257.190	2538.705
86.797	45.576	2256.563	2533.192
87.812	45.730	2253.255	2531.080
88.826	45.596	2252.021	2527.739
89.841	45.991	2249.610	2529.624
90.855	46.139	2247.840	2529.164
91.870	45.675	2244.243	2519.072
92.884	45.444	2244.097	2515.752
93.899	46.976	2246.773	2537.391
94.914	45.874	2240.754	2516.705
95.928	40.226	2223.188	2427.310
96.943	36.896	2215.466	2377.592
97.957	41.470	2228.648	2448.050
98.972	45.719	2234.840	2506.961
99.987	45.673	2232.470	2503.433
101.001	45.953	2230.820	2504.727
102.016	46.261	2229.439	2506.649
103.030	46.455	2229.185	2508.438
104.045	47.409	2228.051	2518.532
105.060	47.896	2227.446	2523.498
106.074	47.272	2224.375	2512.105
107.089	46.978	2221.000	2504.412
108.103	47.024	2221.538	2505.280
109.118	47.239	2220.612	2506.544
110.133	47.329	2219.412	2505.992
111.147	47.152	2215.080	2498.644
112.162	46.742	2213.297	2491.361
113.176	46.730	2210.721	2488.019
114.191	46.851	2210.313	2488.733
115.206	47.085	2207.255	2487.813
116.220	46.470	2205.324	2477.912
117.235	45.964	2202.732	2468.583
118.249	45.938	2200.283	2465.232
119.264	46.506	2199.180	2470.552
120.279	46.832	2199.123	2474.115
121.293	46.741	2196.850	2470.171
122.308	46.354	2193.390	2461.331
123.322	46.084	2191.983	2456.209
124.337	45.506	2187.895	2444.401
125.352	41.838	2177.115	2388.133
126.366	41.277	2177.833	2381.905
127.381	44.478	2182.074	2424.713
128.395	45.635	2182.718	2438.999
129.410	46.486	2182.459	2448.590
130.424	46.647	2181.237	2448.855
131.439	46.199	2179.094	2440.799
132.454	45.789	2176.425	2432.628
133.468	45.963	2174.342	2432.091
134.483	46.270	2172.710	2433.623
135.497	46.302	2171.795	2432.686
136.512	46.673	2171.012	2435.931
137.527	46.543	2169.037	2431.878
138.541	45.994	2166.725	2422.486
139.556	45.768	2163.807	2416.250
140.570	46.033	2163.732	2419.017
141.585	46.575	2163.202	2424.551
142.600	46.971	2162.502	2428.157
143.614	46.689	2160.611	2422.415
144.629	46.919	2159.620	2423.733
145.643	47.288	2159.522	2427.686
146.658	47.161	2157.946	2424.125
147.673	47.395	2155.937	2424.325
148.687	47.994	2155.931	2431.076
149.702	47.695	2153.278	2424.284
150.716	47.018	2150.249	2412.636
151.731	46.830	2148.414	2408.090
152.746	46.737	2146.576	2404.648
153.760	44.593	2137.584	2369.230
154.775	38.257	2118.919	2274.442
155.789	35.057	2112.444	2229.835
156.804	39.923	2125.154	2300.114
157.819	44.573	2132.474	2362.198
158.833	45.933	2133.761	2379.215
159.848	47.227	2134.660	2395.004
160.862	47.945	2133.822	2402.123
161.877	47.956	2133.198	2401.258
162.892	48.080	2132.707	2401.861
163.906	48.292	2132.819	2404.152
164.921	49.007	2132.017	2411.258
165.935	48.933	2130.045	2407.882
166.950	48.426	2126.571	2397.803
167.964	47.349	2121.284	2379.126
168.979	47.067	2119.668	2373.770
169.994	46.991	2118.541	2371.349
171.008	47.281	2116.806	2372.467
172.023	47.176	2115.607	2369.628
173.037	47.047	2114.761	2366.906
174.052	46.932	2111.981	2362.194
175.067	47.039	2110.577	2361.571
176.081	47.095	2108.792	2359.927
177.096	46.638	2106.372	2351.703
178.110	46.110	2103.379	2342.033
179.125	45.998	2103.021	2340.072
180.140	46.756	2104.055	2349.619
181.154	46.811	2101.799	2347.447
182.169	46.363	2100.305	2340.379
183.183	44.903	2090.880	2312.968
184.198	39.482	2074.485	2232.996
185.213	37.131	2071.891	2203.144
186.227	42.759	2086.386	2282.734
187.242	45.610	2089.780	2318.688
188.256	45.644	2088.386	2317.253
189.271	46.246	2088.121	2323.528
190.286	47.069	2088.731	2333.274
191.300	46.704	2084.107	2323.688
192.315	45.796	2081.673	2310.422
193.329	46.158	2081.102	2313.602
194.344	46.855	2080.980	2321.080
195.359	47.518	2081.886	2329.305
196.373	47.859	2080.119	2330.902
197.388	47.605	2077.523	2324.847
198.402	47.276	2073.825	2316.729
199.417	46.734	2070.075	2306.171
200.432	47.101	2070.762	2310.789
201.446	47.861	2071.336	2319.686
202.461	47.323	2068.337	2310.018
203.475	46.535	2063.887	2295.947
204.490	46.174	2062.168	2289.715
205.504	46.736	2060.623	2294.018
206.519	46.731	2057.546	2290.261
207.534	46.731	2056.613	2288.942
208.548	46.938	2056.384	2290.727
209.563	45.627	2051.452	2270.360
210.577	45.161	2050.291	2263.619
211.592	46.830	2053.324	2285.298
212.607	44.681	2041.237	2247.757
213.621	35.590	2019.371	2122.999
214.636	35.197	2022.494	2121.665
215.650	42.062	2036.214	2212.378
216.665	45.293	2041.657	2253.927
217.680	46.371	2043.396	2267.524
218.694	46.847	2043.079	2272.178
219.709	47.086	2041.551	2272.844
220.723	47.398	2041.690	2276.179
221.738	47.922	2040.167	2279.985
222.753	47.572	2037.528	2272.908
223.767	47.044	2034.818	2263.798
224.782	46.762	2031.969	2257.255
225.796	46.787	2031.668	2256.933
226.811	47.438	2031.835	2264.005
227.826	47.485	2029.891	2262.078
228.840	47.630	2028.461	2261.803
229.855	47.550	2026.882	2258.899
230.869	46.781	2022.613	2245.463
231.884	45.503	2017.621	2225.687
232.899	45.361	2017.181	2223.382
233.913	45.951	2018.295	2230.801
234.928	46.189	2018.035	2232.839
235.942	46.545	2018.002	2236.421
236.957	47.097	2016.159	2240.136
237.972	46.755	2013.891	2233.623
238.986	46.747	2012.049	2231.222
240.001	46.324	2009.572	2223.608
241.015	45.779	2006.838	2214.406
242.030	45.002	2003.683	2202.229
243.045	41.863	1991.867	2155.049
244.059	39.696	1989.293	2128.541
245.074	43.047	1994.648	2170.374
246.088	44.874	1995.300	2190.588
247.103	45.106	1995.163	2192.679
248.117	45.191	1994.696	2192.819
249.132	45.896	1992.796	2198.070
250.147	45.765	1991.613	2195.092
251.161	45.709	1990.094	2192.544
252.176	45.820	1988.809	2192.064
253.190	46.049	1987.008	2192.272
254.205	46.237	1986.019	2192.941
255.220	46.817	1986.601	2199.529
256.234	47.616	1987.208	2208.498
257.249	47.114	1985.382	2200.837
258.263	46.928	1985.284	2198.475
259.278	47.573	1985.706	2205.585
260.293	47.778	1984.267	2205.904
261.307	47.559	1981.765	2200.529
262.322	47.499	1979.832	2197.473
263.336	47.024	1975.819	2187.700
264.351	46.387	1973.172	2177.743
265.366	46.712	1972.924	2180.656
266.380	46.908	1972.413	2181.917
267.395	46.191	1969.190	2170.478
268.409	45.937	1966.676	2164.761
269.424	46.685	1966.948	2172.730
270.439	46.980	1967.052	2175.709
271.453	45.250	1957.199	2146.304
272.468	39.365	1940.907	2066.316
273.482	37.003	1938.739	2038.832
274.497	41.669	1947.883	2097.606
275.512	45.369	1952.800	2141.704
276.526	45.830	1952.292	2145.742
277.541	45.767	1950.458	2142.807
278.555	46.156	1949.743	2145.849
279.570	46.017	1946.950	2141.061
280.585	45.702	1944.806	2135.146
281.599	45.468	1943.190	2130.676
282.614	45.583	1942.763	2131.149
283.628	45.955	1943.075	2135.133
284.643	46.638	1943.634	2142.632
285.657	47.028	1941.831	2144.454
286.672	46.832	1939.652	2139.751
287.687	46.875	1938.406	2138.571
288.701	46.504	1937.677	2133.642
289.716	46.590	1936.807	2133.327
290.730	46.929	1934.317	2133.852
291.745	46.563	1931.987	2127.221
292.760	46.356	1930.371	2123.039
293.774	46.072	1929.350	2118.728
294.789	45.979	1928.411	2116.476
295.803	46.041	1926.547	2114.814
296.818	46.225	1925.244	2115.038
297.833	46.189	1923.535	2112.534
298.847	46.695	1923.870	2117.872
299.862	46.891	1921.730	2117.287
300.876	45.740	1916.826	2099.787
301.891	41.079	1901.487	2034.964
302.906	36.901	1896.915	1986.879
303.920	42.227	1908.544	2053.860
304.935	45.386	1910.925	2088.688
305.949	45.804	1911.168	2092.995
306.964	46.914	1911.771	2104.784
307.979	46.985	1910.267	2103.601
308.993	45.744	1905.070	2084.947
310.008	45.648	1904.427	2083.018
311.022	46.501	1905.188	2092.311
312.037	46.696	1904.074	2092.836
313.052	46.593	1900.896	2088.044
314.066	46.508	1898.488	2084.277
315.081	46.065	1897.866	2078.836
316.095	45.777	1896.728	2074.420
317.110	45.971	1896.505	2075.895
318.125	46.525	1894.862	2079.471
319.139	46.791	1894.149	2081.142
320.154	47.056	1893.524	2082.896
321.168	47.206	1893.267	2083.883
322.183	47.642	1891.585	2086.190
323.197	47.524	1889.386	2082.319
324.212	47.073	1887.343	2075.273
325.227	46.733	1884.540	2068.513
326.241	46.401	1882.898	2063.119
327.256	46.386	1881.613	2061.310
328.270	46.426	1881.589	2061.441
329.285	46.404	1880.995	2060.322
330.300	45.123	1873.158	2038.648
331.314	38.602	1855.453	1954.016
332.329	36.495	1856.220	1933.425
333.343	42.848	1868.676	2010.223
334.358	46.889	1873.984	2056.266
335.373	47.606	1874.111	2063.340
336.387	47.580	1872.602	2061.174
337.402	47.462	1869.993	2056.877
338.416	47.103	1867.539	2050.349
339.431	47.069	1866.108	2048.197
340.446	47.872	1867.052	2056.985
341.460	48.151	1865.545	2057.856
342.475	48.245	1863.336	2056.108
343.489	47.278	1861.001	2043.689
344.504	46.958	1859.350	2038.451
345.519	47.110	1857.501	2037.692
346.533	47.072	1855.329	2034.687
347.548	47.115	1853.907	2033.309
348.562	46.710	1851.456	2026.378
349.577	46.881	1851.636	2028.023
350.592	46.992	1851.147	2028.344
351.606	47.256	1850.282	2029.752
352.621	47.852	1849.478	2034.504
353.635	47.457	1848.012	2028.755
354.650	46.713	1845.036	2017.933
355.665	46.687	1843.721	2015.999
356.679	46.650	1842.173	2013.703
357.694	46.488	1839.202	2008.621
358.708	46.368	1837.509	2005.361
359.723	44.942	1831.512	1984.633
360.738	38.392	1814.864	1902.588
361.752	36.625	1814.525	1884.715
362.767	42.395	1824.780	1951.770
363.781	44.800	1827.398	1977.847
364.796	46.025	1828.260	1990.491
365.810	45.636	1825.808	1983.793
366.825	45.160	1822.380	1975.201
367.840	45.334	1822.771	1977.086
368.854	45.526	1822.443	1978.351
369.869	45.534	1821.289	1976.949
370.883	45.464	1819.069	1973.624
371.898	45.616	1819.067	1974.855
372.913	46.077	1819.172	1979.200
373.927	46.445	1817.405	1980.595
374.942	46.780	1816.452	1982.562
375.956	46.835	1816.817	1983.258
376.971	46.373	1813.851	1975.323
377.986	46.558	1812.370	1975.261
379.000	47.174	1812.779	1981.400
380.015	47.690	1813.412	1986.827
381.029	47.536	1810.678	1982.107
382.044	47.317	1809.066	1978.007
383.059	47.710	1806.825	1979.087
384.073	46.735	1803.516	1965.890
385.088	45.952	1801.837	1956.321
386.102	46.300	1802.467	1960.110
387.117	47.129	1802.249	1967.570
388.132	47.410	1800.874	1968.524
389.146	45.714	1793.549	1944.125
390.161	38.585	1775.792	1857.010
391.175	36.547	1775.152	1836.678
392.190	43.143	1786.261	1911.075
393.205	46.011	1789.107	1941.201
394.219	46.468	1787.563	1943.634
395.234	46.019	1785.942	1937.379
396.248	46.032	1784.777	1936.014
397.263	46.380	1782.548	1936.656
398.278	45.792	1779.845	1927.925
399.292	45.485	1778.973	1923.857
400.307	46.992	1782.074	1941.230
401.321	47.509	1779.792	1943.387
402.336	46.486	1777.255	1930.746
403.350	46.276	1774.829	1925.902
404.365	46.936	1775.979	1933.133
405.380	48.175	1777.856	1946.603
406.394	48.505	1776.992	1948.530
407.409	47.722	1773.413	1937.027
408.423	47.167	1770.571	1928.495
409.438	47.244	1770.192	1928.564
410.453	47.111	1769.212	1926.027
411.467	47.006	1767.459	1922.903
412.482	47.603	1767.348	1928.135
413.496	47.565	1765.173	1925.178
414.511	46.812	1761.992	1914.460
415.526	46.671	1761.034	1911.867
416.540	47.829	1762.022	1923.509
417.555	48.030	1759.148	1922.004
418.569	46.497	1756.913	1905.096
419.584	46.890	1758.396	1910.129
420.599	47.451	1757.055	1913.653
421.613	46.182	1753.283	1897.555
422.628	45.290	1751.964	1887.621
423.642	46.587	1754.641	1902.328
424.657	47.685	1752.225	1909.649
425.672	46.272	1748.485	1892.288
426.686	46.587	1748.037	1894.484
427.701	47.024	1748.226	1898.501
428.715	48.232	1749.122	1910.403
429.730	49.584	1750.909	1924.595
430.745	50.597	1750.651	1933.410
431.759	50.154	1748.628	1926.870
432.774	48.423	1741.236	1902.635
433.788	40.623	1718.873	1806.934
434.803	31.870	1703.081	1710.292
435.818	30.120	1700.194	1691.158
436.832	30.111	1699.139	1689.826
437.847	29.541	1692.566	1677.885
438.861	20.026	1664.679	1564.115
439.876	5.207	1637.030	1404.775
440.890	0.745	1629.771	1358.151
441.905	0.356	1628.584	1353.488
442.920	0.285	1627.258	1351.582
443.934	0.308	1624.834	1349.615
444.949	0.355	1624.080	1349.252
445.963	0.313	1623.813	1348.484
446.978	0.343	1623.129	1348.030
447.993	0.287	1621.711	1346.187
449.007	0.262	1619.908	1344.300
450.022	0.264	1618.217	1342.753
451.036	0.279	1616.373	1341.204
452.051	1.106	1621.569	1352.773
453.066	12.094	1648.855	1475.186
454.080	28.402	1677.733	1649.691
455.095	33.852	1684.669	1705.675
456.109	33.658	1685.248	1704.296
457.124	34.280	1683.388	1707.822
458.139	33.418	1681.272	1697.712
459.153	32.741	1680.253	1690.383
460.168	32.746	1678.587	1688.548
461.182	33.132	1678.045	1691.272
462.197	33.807	1676.855	1695.935
463.212	34.212	1676.447	1698.951
464.226	34.492	1675.250	1700.044
465.241	34.365	1674.373	1697.808
466.255	34.369	1672.736	1695.989
467.270	34.166	1671.460	1692.677
468.285	34.479	1671.158	1694.965
469.299	34.992	1671.140	1699.320
470.314	35.303	1670.120	1700.856
471.328	35.514	1668.257	1700.628
472.343	35.503	1668.487	1700.565
473.358	35.731	1667.469	1701.349
474.372	36.036	1666.467	1702.836
475.387	36.657	1666.021	1707.686
476.401	36.518	1664.436	1704.628
477.416	35.763	1661.516	1694.747
478.430	35.266	1660.327	1688.932
479.445	36.189	1661.181	1697.771
480.460	37.005	1661.067	1704.672
481.474	36.876	1659.423	1701.642
482.489	36.316	1656.674	1693.677
483.503	35.442	1653.177	1682.206
484.518	35.029	1651.416	1676.573
485.533	35.326	1651.350	1678.922
486.547	35.415	1648.767	1676.872
487.562	34.081	1645.468	1661.621
488.576	34.419	1646.228	1665.152
489.591	35.519	1646.026	1674.396
490.606	36.129	1646.067	1679.585
491.620	36.418	1644.483	1680.295
492.635	35.682	1640.725	1669.827
493.649	34.501	1638.647	1657.207
494.664	34.569	1639.029	1657.992
495.679	35.521	1638.444	1665.507
496.693	35.534	1637.294	1664.252
497.708	35.042	1634.534	1656.969
498.722	34.671	1632.351	1651.334
499.737	34.592	1631.197	1649.276
500.752	34.837	1630.156	1650.155
501.766	34.960	1628.632	1649.481
502.781	34.738	1626.649	1645.357
503.795	34.695	1625.034	1643.154
504.810	34.645	1624.908	1642.399
505.825	34.240	1623.659	1637.433
506.839	33.957	1621.091	1632.213
507.854	33.966	1620.091	1631.087
508.868	34.007	1617.908	1629.046
509.883	33.694	1616.710	1624.949
510.898	33.123	1614.998	1618.121
511.912	32.964	1612.477	1614.034
512.927	32.776	1610.557	1610.309
513.941	32.661	1609.146	1607.717
514.956	33.044	1609.135	1610.801
515.971	33.780	1608.742	1616.516
516.985	33.426	1606.532	1611.073
518.000	32.844	1604.133	1603.504
519.014	32.546	1602.861	1599.501
520.029	32.464	1601.628	1597.382
521.043	32.472	1600.252	1595.886
522.058	32.589	1599.954	1596.394
523.073	32.839	1598.870	1597.245
524.087	32.536	1596.837	1592.447
525.102	32.515	1597.399	1592.640
526.116	33.683	1597.518	1602.495
527.131	34.202	1597.259	1606.442
528.146	33.606	1596.002	1599.933
529.160	33.402	1593.608	1595.614
530.175	33.633	1592.618	1596.386
531.189	33.723	1591.794	1596.128
532.204	33.655	1591.127	1594.701
533.219	34.134	1591.524	1598.948
534.233	35.107	1592.214	1607.665
535.248	35.032	1589.903	1604.508
536.262	33.976	1587.891	1593.399
537.277	34.166	1587.051	1593.960
538.292	34.853	1586.584	1599.084
539.306	35.110	1584.583	1599.028
540.321	34.362	1581.858	1589.820
541.335	33.792	1580.076	1583.064
542.350	34.145	1579.196	1584.945
543.365	34.470	1577.813	1586.088
544.379	34.807	1576.681	1587.574
545.394	34.438	1575.549	1583.163
546.408	34.505	1574.934	1582.918
547.423	35.107	1575.197	1588.013
548.438	35.383	1574.604	1589.523
549.452	35.012	1572.927	1584.550
550.467	34.791	1570.183	1579.766
551.481	34.282	1568.737	1573.896
552.496	34.114	1566.195	1569.764
553.511	33.458	1565.022	1562.959
554.525	33.243	1563.482	1559.452
555.540	33.023	1562.769	1556.738
556.554	33.118	1561.367	1555.936
557.569	33.090	1559.573	1553.732
558.583	32.853	1558.561	1550.578
559.598	33.001	1556.823	1549.886
560.613	33.075	1555.807	1549.298
561.627	32.961	1554.600	1546.975
562.642	32.608	1551.770	1541.071
563.656	31.996	1549.612	1533.715
564.671	31.742	1547.963	1529.815
565.686	31.594	1546.898	1527.366
566.700	31.695	1546.261	1527.379
567.715	31.990	1544.618	1527.995
568.729	32.154	1544.628	1529.162
569.744	33.022	1543.521	1534.973
570.759	33.163	1542.691	1535.113
571.773	32.616	1540.527	1528.322
572.788	32.267	1538.876	1523.659
573.802	31.866	1538.102	1519.442
574.817	31.774	1535.488	1515.927
575.832	31.467	1533.667	1511.460
576.846	31.870	1533.348	1514.234
577.861	32.514	1533.423	1519.352
578.875	32.533	1533.293	1519.195
579.890	32.437	1532.514	1517.466
580.905	32.527	1531.280	1516.787
581.919	32.593	1530.043	1515.916
582.934	32.361	1529.948	1513.763
583.948	32.479	1528.350	1512.955
584.963	32.586	1527.883	1513.173
585.978	33.291	1527.573	1518.380
586.992	33.503	1525.874	1518.211
588.007	33.044	1525.014	1513.484
589.021	33.008	1524.033	1512.035
590.036	32.633	1521.445	1506.275
591.051	32.486	1520.612	1504.087
592.065	32.719	1519.112	1504.292
593.080	32.829	1517.362	1503.266
594.094	33.185	1516.705	1505.279
595.109	33.623	1516.394	1508.297
596.123	34.446	1516.524	1514.820
597.138	34.099	1514.431	1509.780
598.153	33.496	1512.176	1502.549
599.167	33.275	1510.663	1499.104
600.182	33.330	1509.610	1498.316
601.196	33.241	1508.532	1496.358
602.211	33.237	1507.365	1494.993
603.226	32.856	1504.869	1489.319
604.240	32.713	1503.737	1486.883
605.255	32.780	1501.889	1485.411
606.269	32.482	1500.837	1481.835
607.284	32.305	1500.157	1479.581
608.299	32.251	1498.121	1476.978
609.313	32.319	1496.797	1476.030
610.328	32.048	1495.683	1472.615
611.342	31.996	1493.891	1470.263
612.357	31.974	1492.532	1468.577
613.372	31.650	1492.088	1465.419
614.386	31.595	1491.171	1463.909
615.401	31.438	1490.380	1461.724
616.415	31.294	1489.152	1459.214
617.430	31.188	1487.387	1456.481
618.445	31.141	1485.485	1454.076
619.459	31.107	1484.742	1452.908
620.474	31.437	1484.703	1455.278
621.488	31.899	1485.742	1459.737
622.503	33.170	1485.201	1468.960
623.518	32.361	1482.049	1459.360
624.532	31.264	1478.919	1447.562
625.547	31.061	1477.431	1444.352
626.561	30.740	1476.376	1440.653
627.576	30.649	1475.953	1439.358
628.591	31.090	1476.388	1443.045
629.605	31.808	1475.951	1448.019
630.620	32.258	1475.836	1451.225
631.634	33.245	1476.152	1459.022
632.649	33.356	1474.854	1458.425
633.663	32.550	1471.460	1448.661
634.678	31.520	1468.707	1437.829
635.693	30.743	1466.016	1429.024
636.707	30.744	1464.430	1427.313
637.722	30.459	1463.280	1423.833
638.736	30.758	1462.189	1424.899
639.751	31.003	1461.750	1426.183
640.766	31.324	1460.215	1426.979
641.780	31.244	1459.043	1425.051
642.795	31.448	1459.233	1426.631
643.809	31.753	1458.938	1428.508
644.824	31.672	1458.523	1427.310
645.839	32.099	1458.700	1430.587
646.853	32.085	1456.756	1428.400
647.868	32.035	1455.648	1426.763
648.882	32.363	1454.653	1428.119
649.897	32.485	1453.714	1427.952
650.912	32.353	1452.573	1425.657
651.926	32.166	1450.995	1422.513
652.941	32.216	1449.680	1421.435
653.955	32.030	1448.912	1419.099
654.970	31.683	1446.210	1413.652
655.985	31.380	1444.143	1409.169
656.999	31.029	1442.005	1404.252
658.014	31.020	1440.750	1402.793
659.028	31.218	1440.365	1403.747
660.043	31.854	1441.275	1409.277
661.058	32.074	1440.752	1410.254
662.072	32.085	1439.645	1409.085
663.087	32.121	1439.008	1408.570
664.101	32.342	1437.335	1408.425
665.116	32.200	1436.180	1406.055
666.131	31.964	1434.604	1402.572
667.145	31.922	1433.723	1401.228
668.160	31.752	1431.847	1397.949
669.174	31.515	1429.792	1394.004
670.189	31.483	1428.791	1392.619
671.204	31.624	1428.407	1393.131
672.218	31.590	1427.737	1392.057
673.233	31.516	1426.076	1389.719
674.247	31.274	1424.531	1386.241
675.262	31.031	1423.718	1383.475
676.276	30.960	1422.239	1381.345
677.291	30.994	1421.823	1381.026
678.306	31.440	1421.734	1384.097
679.320	31.491	1419.481	1382.118
680.335	31.078	1418.025	1377.469
681.349	30.870	1417.389	1375.142
682.364	30.891	1416.074	1373.858
683.379	30.831	1415.135	1372.334
684.393	30.572	1414.226	1369.373
685.408	30.416	1412.728	1366.606
686.422	30.662	1410.926	1366.514
687.437	30.472	1410.070	1364.122
688.452	30.175	1409.228	1360.949
689.466	30.174	1407.316	1358.931
690.481	30.287	1405.840	1358.177
691.495	30.663	1406.765	1361.673
692.510	31.671	1407.789	1369.921
693.525	32.979	1407.801	1379.381
694.539	32.333	1405.441	1372.168
695.554	30.983	1402.286	1359.037
696.568	30.216	1400.168	1351.209
697.583	29.950	1399.056	1348.023
698.598	30.053	1398.500	1348.084
699.612	30.147	1397.145	1347.302
700.627	30.129	1396.275	1346.170
701.641	30.498	1395.817	1348.260
702.656	30.845	1394.814	1349.657
703.671	30.610	1394.206	1347.195
704.685	30.691	1394.372	1347.785
705.700	30.935	1393.162	1348.227
706.714	31.113	1391.892	1348.134
707.729	31.502	1390.978	1349.907
708.744	31.638	1389.638	1349.433
709.758	31.507	1387.678	1346.416
710.773	30.764	1386.275	1339.521
711.787	30.561	1385.114	1336.775
712.802	30.994	1383.770	1338.442
713.816	31.313	1384.007	1340.812
714.831	31.381	1383.745	1340.889
715.846	31.253	1381.732	1337.856
716.860	31.270	1379.661	1335.816
717.875	31.148	1379.705	1334.815
718.889	31.330	1378.708	1335.002
719.904	31.221	1377.364	1332.756
720.919	31.122	1376.178	1330.742
721.933	30.908	1374.874	1327.792
722.948	30.965	1373.350	1326.564
723.962	30.759	1373.230	1324.818
724.977	30.550	1371.661	1321.654
725.992	30.430	1371.013	1320.013
727.006	30.690	1369.709	1320.455
728.021	30.815	1367.497	1319.050
729.035	30.481	1366.397	1315.458
730.050	30.616	1365.241	1315.147
731.065	30.476	1364.733	1313.503
732.079	30.280	1363.695	1310.954
733.094	30.334	1362.597	1310.131
734.108	30.747	1361.474	1311.818
735.123	30.530	1359.430	1308.154
736.138	30.460	1358.058	1306.183
737.152	30.418	1357.160	1304.867
738.167	30.136	1356.367	1301.960
739.181	30.018	1355.679	1300.311
740.196	30.184	1354.724	1300.410
741.211	30.070	1353.430	1298.211
742.225	30.042	1352.527	1296.990
743.240	29.980	1351.213	1295.140
744.254	29.937	1349.984	1293.504
745.269	29.735	1348.677	1290.682
746.284	29.745	1347.677	1289.641
747.298	29.813	1347.357	1289.655
748.313	30.061	1346.863	1290.761
749.327	30.707	1347.409	1295.654
750.342	31.686	1348.890	1303.777
751.356	32.667	1348.714	1310.314
752.371	32.405	1346.310	1305.994
753.386	30.998	1342.440	1292.287
754.400	30.082	1340.244	1283.643
755.415	30.182	1339.394	1283.375
756.429	30.252	1338.141	1282.507
757.444	30.519	1336.897	1283.014
758.459	30.360	1336.154	1281.045
759.473	30.202	1335.374	1279.046
760.488	30.261	1334.372	1278.340
761.502	30.116	1333.112	1275.978
762.517	30.435	1332.089	1277.051
763.532	30.683	1331.584	1278.128
764.546	30.749	1330.024	1276.934
765.561	30.457	1328.509	1273.312
766.575	30.037	1328.276	1270.043
767.590	30.014	1327.140	1268.646
768.605	30.357	1326.186	1269.942
769.619	30.702	1325.714	1271.710
770.634	30.618	1324.582	1269.895
771.648	30.401	1323.327	1267.050
772.663	30.265	1321.422	1264.146
773.678	30.137	1321.046	1262.753
774.692	30.210	1320.535	1262.613
775.707	30.019	1319.882	1260.534
776.721	29.941	1318.950	1258.958
777.736	29.733	1317.736	1256.229
778.751	29.834	1316.130	1255.237
779.765	30.071	1315.144	1255.764
780.780	29.800	1314.920	1253.551
781.794	29.902	1313.765	1252.992
782.809	29.767	1312.011	1250.253
783.824	29.469	1311.548	1247.642
784.838	29.778	1311.521	1249.563
785.853	31.125	1311.747	1258.768
786.867	30.889	1311.257	1256.549
787.882	30.218	1309.435	1250.110
788.897	29.905	1307.831	1246.313
789.911	29.815	1305.665	1243.487
790.926	29.506	1304.151	1239.810
791.940	29.410	1302.520	1237.463
792.955	29.338	1301.688	1236.045
793.969	29.317	1300.287	1234.425
794.984	29.356	1299.983	1234.247
795.999	29.393	1299.046	1233.457
797.013	29.562	1297.078	1232.577
798.028	29.493	1296.028	1230.971
799.042	29.550	1295.565	1230.765
800.057	29.620	1294.392	1229.969
801.072	29.493	1293.629	1228.248
802.086	29.664	1292.389	1228.070
803.101	29.678	1291.098	1226.786
804.115	29.681	1290.839	1226.413
805.130	29.698	1289.351	1224.965
806.145	29.769	1288.282	1224.278
807.159	29.669	1287.851	1223.056
808.174	29.879	1286.952	1223.454
809.188	30.125	1285.454	1223.515
810.203	30.142	1284.723	1222.786
811.218	30.140	1282.913	1220.905
812.232	29.851	1281.582	1217.576
813.247	29.749	1280.328	1215.565
814.261	29.674	1280.656	1215.239
815.276	29.858	1279.912	1215.599
816.291	29.875	1278.525	1214.247
817.305	29.741	1277.032	1211.807
818.320	29.559	1275.578	1209.082
819.334	29.527	1274.775	1207.963
820.349	29.528	1273.179	1206.314
821.364	29.532	1271.241	1204.359
822.378	29.415	1270.106	1202.377
823.393	29.384	1268.575	1200.578
824.407	29.446	1267.777	1200.086
825.422	29.139	1268.249	1198.383
826.437	29.225	1267.156	1197.763
827.451	29.465	1264.625	1196.794
828.466	30.009	1265.392	1200.923
829.480	30.938	1264.133	1205.629
830.495	30.296	1261.228	1198.551
831.509	29.616	1259.654	1192.502
832.524	29.361	1258.285	1189.407
833.539	29.263	1257.091	1187.506
834.553	29.111	1256.125	1185.465
835.568	29.160	1255.303	1184.866
836.582	29.183	1254.795	1184.389
837.597	29.332	1253.248	1183.752
838.612	29.439	1251.487	1182.637
839.626	29.459	1251.344	1182.485
840.641	29.695	1250.662	1183.221
841.655	29.641	1249.974	1182.078
842.670	29.595	1249.028	1180.748
843.685	29.588	1247.910	1179.505
844.699	29.727	1246.195	1178.637
845.714	29.598	1244.976	1176.515
846.728	29.461	1244.467	1175.013
847.743	29.373	1243.652	1173.544
848.758	29.351	1242.324	1172.007
849.772	29.395	1240.340	1170.275
850.787	29.251	1239.220	1168.160
851.801	29.117	1238.086	1166.105
852.816	29.074	1236.781	1164.460
853.831	29.181	1235.456	1163.753
854.845	28.967	1234.327	1161.191
855.860	29.119	1232.579	1160.373
856.874	29.160	1231.933	1159.880
857.889	29.613	1231.810	1162.498
858.904	29.995	1231.508	1164.488
859.918	30.580	1231.576	1168.105
860.933	31.198	1230.280	1170.633
861.947	30.754	1228.339	1165.852
862.962	29.921	1226.054	1158.306
863.977	29.589	1224.889	1154.983
864.991	29.232	1223.810	1151.583
866.006	29.010	1222.593	1148.905
867.020	28.975	1221.569	1147.592
868.035	29.005	1220.384	1146.524
869.049	29.175	1219.015	1146.164
870.064	29.211	1218.528	1145.796
871.079	29.128	1217.960	1144.605
872.093	29.121	1217.647	1144.129
873.108	29.319	1216.653	1144.293
874.122	29.314	1215.537	1143.075
875.137	29.451	1215.013	1143.304
876.152	29.427	1213.791	1141.868
877.166	29.493	1211.757	1140.225
878.181	29.316	1210.422	1137.736
879.195	29.200	1209.813	1136.305
880.210	29.148	1209.114	1135.193
881.225	28.947	1208.562	1133.292
882.239	29.180	1207.657	1133.754
883.254	29.031	1206.431	1131.542
884.268	28.961	1205.484	1130.087
885.283	29.116	1203.907	1129.429
886.298	29.133	1202.337	1127.929
887.312	28.990	1201.598	1126.218
888.327	28.935	1200.839	1125.033
889.341	29.065	1199.793	1124.719
890.356	29.021	1198.615	1123.206
891.371	29.083	1198.505	1123.355
892.385	29.007	1198.343	1122.597
893.400	28.923	1197.523	1121.180
894.414	29.244	1196.159	1121.734
895.429	29.613	1195.767	1123.487
896.444	30.719	1196.710	1130.999
897.458	32.086	1196.321	1138.842
898.473	31.405	1194.082	1132.429
899.487	30.235	1191.427	1122.659
900.502	29.439	1189.718	1116.079
901.517	29.315	1187.891	1113.481
902.531	29.210	1186.941	1111.819
903.546	28.942	1186.466	1109.616
904.560	28.925	1186.355	1109.276
905.575	29.000	1185.072	1108.397
906.589	29.055	1184.295	1107.870
907.604	29.232	1183.435	1108.003
