DTS Sentinel unit serial number:	SN409020Multiplexer serial number:	ORYXHardware model number:	OX4-SRSoftware version number:	ORYX F/W v3.00 Oryx Data Collector v3.7.2.0data status	okinstallation	HaddamTimeLapsedifferential loss correction	single-endedforward channel	channel 3reverse channel	N/Adate	2011/06/21time	19:01:16forward acquisition time	30.00reverse acquisition time	0.00gamma	498.7831k internal	0.1807k external	0.1807temperature offset calibration	1.0074default loss term (dB/km)	0.3790temperature slope calibration	1.3530multiplexer offset coefficient	1.0000multiplexer slope coefficient	1.0000fibre end	0.00T internal ref (°C)	35.06T ext. ref 1 (°C)	26.79T ext. ref 2 (°C)	0.23length (m)	temperature (°C)	Stokes	anti-Stokes-747.200	365.687	-0.063	0.165
-746.185	330.369	0.080	0.200
-745.171	-112.612	0.247	-0.063
-744.156	162.867	-0.248	0.449
-743.142	-132.770	-0.533	-0.087
-742.127	343.905	0.013	0.032
-741.112	66.138	0.137	0.179
-740.098	118.979	0.153	0.244
-739.083	-52.842	-0.501	0.296
-738.069	800.000	-0.071	0.254
-737.054	-75.329	-0.198	0.090
-736.039	-26.302	-0.035	-0.027
-735.025	-110.242	0.100	0.027
-734.010	35.942	0.148	-0.167
-732.996	-3.435	-0.512	0.458
-731.981	542.772	0.059	0.183
-730.966	-123.657	-0.067	0.014
-729.952	-24.097	0.424	0.325
-728.937	-175.156	-0.197	-0.007
-727.923	-83.263	0.407	0.167
-726.908	-19.522	-0.344	0.274
-725.894	-27.735	-0.289	-0.215
-724.879	-200.000	-0.326	0.002
-723.864	-31.071	0.035	-0.025
-722.850	-65.016	-0.490	0.254
-721.835	-185.900	-0.380	0.007
-720.821	-200.000	-0.073	-0.440
-719.806	-77.849	-0.492	-0.217
-718.791	-200.000	-0.005	0.163
-717.777	235.952	-0.170	0.364
-716.762	-200.000	0.012	0.181
-715.748	34.752	0.410	-0.461
-714.733	-108.314	0.294	-0.081
-713.718	-200.000	-0.005	-0.310
-712.704	122.323	-0.275	-0.442
-711.689	-200.000	0.013	0.428
-710.675	158.434	-0.224	0.401
-709.660	233.758	-0.100	0.211
-708.645	-200.000	0.041	-0.249
-707.631	-124.210	0.604	-0.121
-706.616	-200.000	0.012	-0.208
-705.602	-105.743	-0.219	-0.063
-704.587	-32.761	0.350	0.250
-703.572	65.772	-0.173	-0.226
-702.558	-180.049	-0.191	0.005
-701.543	273.780	-0.200	-0.456
-700.529	-128.498	-0.409	-0.074
-699.514	638.098	-0.105	0.344
-698.499	800.000	-0.047	-0.188
-697.485	-62.205	0.293	-0.156
-696.470	418.883	-0.047	-0.130
-695.456	346.498	0.078	-0.197
-694.441	-11.613	0.132	0.112
-693.426	71.780	-0.034	0.045
-692.412	233.299	0.206	0.436
-691.397	110.288	0.218	0.337
-690.383	-117.068	0.625	0.145
-689.368	82.659	0.148	-0.206
-688.354	-70.884	0.274	0.132
-687.339	-69.828	-0.421	0.205
-686.324	-37.821	-0.191	0.130
-685.310	-132.223	-0.262	-0.043
-684.295	324.735	-0.023	-0.057
-683.281	-136.439	0.085	0.013
-682.266	-78.373	0.142	-0.062
-681.251	148.997	-0.395	0.688
-680.237	-107.423	0.195	-0.055
-679.222	-200.000	0.045	0.312
-678.208	-117.922	-0.226	0.052
-677.193	-141.467	-0.122	-0.016
-676.178	166.606	-0.175	0.320
-675.164	-113.228	-0.145	0.036
-674.149	295.864	-0.194	0.458
-673.135	-133.659	-0.453	-0.072
-672.120	2.383	-0.370	0.343
-671.105	-23.781	-0.143	-0.110
-670.091	-149.825	0.222	0.022
-669.076	-54.767	-0.199	-0.115
-668.062	800.000	-0.073	-0.302
-667.047	305.828	-0.119	-0.284
-666.032	-19.084	-0.384	-0.306
-665.018	-158.644	0.577	-0.042
-664.003	-200.000	-0.033	0.201
-662.989	800.000	0.129	-0.541
-661.974	800.000	-0.030	0.166
-660.959	-76.694	0.375	0.168
-659.945	-116.851	0.293	-0.068
-658.930	-118.200	-0.356	0.081
-657.916	67.591	-0.420	0.550
-656.901	-6.031	0.084	-0.074
-655.886	-200.000	0.004	0.119
-654.872	187.391	0.208	-0.399
-653.857	36.006	-0.042	-0.048
-652.843	-140.827	0.137	-0.018
-651.828	120.820	0.290	0.464
-650.814	-71.875	0.718	-0.342
-649.799	-11.800	-0.402	-0.338
-648.784	-119.286	0.375	-0.083
-647.770	-90.723	-0.186	0.068
-646.755	745.720	0.025	0.085
-645.741	-127.801	-0.281	0.052
-644.726	-200.000	-0.037	0.218
-643.711	-200.000	0.037	0.356
-642.697	-122.511	-0.322	-0.067
-641.682	190.899	-0.245	0.473
-640.668	-200.000	-0.001	-0.366
-639.653	26.431	-0.255	-0.274
-638.638	295.887	-0.084	0.197
-637.624	-49.193	0.660	-0.403
-636.609	-200.000	0.040	0.234
-635.595	-118.347	-0.077	-0.017
-634.580	-69.732	-0.406	0.198
-633.565	295.756	0.156	-0.368
-632.551	-200.000	0.031	0.238
-631.536	-61.039	0.181	0.097
-630.522	246.892	-0.191	0.413
-629.507	613.858	0.104	-0.336
-628.492	-200.000	0.001	0.094
-627.478	800.000	-0.079	-0.312
-626.463	-75.094	-0.241	-0.110
-625.449	800.000	-0.139	-0.526
-624.434	-21.234	-0.400	-0.313
-623.419	280.188	-0.111	-0.254
-622.405	-32.762	0.102	0.072
-621.390	-146.386	-0.371	-0.041
-620.376	-138.710	0.285	0.040
-619.361	526.436	0.063	0.190
-618.346	74.064	0.255	0.342
-617.332	-32.383	-0.241	0.172
-616.317	429.940	-0.119	-0.332
-615.303	-36.215	0.277	0.191
-614.288	800.000	0.065	0.311
-613.273	-60.773	0.265	0.143
-612.259	48.160	0.184	-0.220
-611.244	185.424	0.177	-0.338
-610.230	-104.888	0.388	-0.113
-609.215	-61.430	0.235	-0.126
-608.201	-200.000	-0.001	-0.265
-607.186	306.355	0.138	-0.330
-606.171	61.341	-0.183	-0.233
-605.157	800.000	-0.096	0.491
-604.142	800.000	0.050	-0.254
-603.128	-200.000	-0.000	0.013
-602.113	-51.777	0.178	0.106
-601.098	-200.000	0.027	-0.444
-600.084	800.000	-0.107	-0.453
-599.069	36.585	-0.169	0.191
-598.055	94.047	-0.189	0.275
-597.040	-196.980	-0.285	0.002
-596.025	800.000	0.103	-0.548
-595.011	-24.465	-0.373	-0.283
-593.996	-168.909	-0.244	0.012
-592.982	-200.000	-0.006	0.139
-591.967	255.880	-0.207	-0.456
-590.952	33.285	0.260	-0.288
-589.938	636.016	0.126	-0.411
-588.923	31.202	-0.403	-0.442
-587.909	38.785	0.213	-0.243
-586.894	800.000	0.127	-0.529
-585.879	-200.000	-0.015	0.323
-584.865	800.000	-0.022	-0.093
-583.850	5.592	-0.076	-0.072
-582.836	-48.824	-0.458	-0.280
-581.821	-200.000	-0.005	0.243
-580.806	800.000	-0.054	0.249
-579.792	56.318	-0.078	-0.097
-578.777	-152.646	-0.126	-0.011
-577.763	412.597	-0.109	0.297
-576.748	-88.365	0.588	0.224
-575.733	212.651	-0.148	-0.300
-574.719	-125.473	-0.564	0.109
-573.704	-200.000	-0.038	-0.436
-572.690	252.113	-0.118	-0.258
-571.675	153.338	-0.080	-0.141
-570.661	-81.681	-0.267	0.112
-569.646	800.000	-0.022	0.120
-568.631	141.137	0.119	0.201
-567.617	-49.925	-0.363	-0.219
-566.602	110.864	0.122	0.188
-565.588	24.940	0.190	0.201
-564.573	-22.129	-0.233	0.181
-563.558	-4.738	-0.156	-0.137
-562.544	270.736	0.143	-0.322
-561.529	48.105	0.270	0.322
-560.515	-200.000	-0.016	0.119
-559.500	-88.182	-0.582	-0.222
-558.485	-200.000	0.023	0.200
-557.471	718.048	0.059	0.202
-556.456	-135.134	-0.104	-0.016
-555.442	-51.955	-0.304	0.180
-554.427	-61.372	-0.146	0.078
-553.412	-12.634	0.078	-0.065
-552.398	-69.656	0.019	0.009
-551.383	-89.899	0.226	-0.084
-550.369	-200.000	0.025	-0.355
-549.354	81.661	0.480	-0.664
-548.339	800.000	-0.025	-0.125
-547.325	-161.423	-0.436	-0.028
-546.310	-55.345	0.418	0.239
-545.296	-193.088	0.236	-0.003
-544.281	87.968	-0.147	-0.209
-543.266	-85.211	0.237	0.094
-542.252	-26.790	0.328	0.245
-541.237	197.726	0.179	-0.350
-540.223	-94.875	0.360	0.124
-539.208	-66.837	0.171	0.086
-538.193	-10.719	-0.073	-0.062
-537.179	-129.689	-0.306	0.053
-536.164	-200.000	0.023	-0.464
-535.150	-44.905	-0.141	0.090
-534.135	-72.671	0.428	0.201
-533.121	-43.241	-0.513	0.330
-532.106	-119.696	-0.497	-0.109
-531.091	36.410	-0.153	-0.172
-530.077	-64.980	0.131	-0.067
-529.062	-21.734	0.172	-0.133
-528.048	-73.240	0.337	-0.157
-527.033	153.567	-0.206	0.360
-526.018	-76.603	0.398	-0.177
-525.004	-123.823	-0.486	-0.097
-523.989	103.085	-0.189	0.284
-522.975	-72.335	0.278	0.131
-521.960	293.870	0.125	-0.293
-520.945	-65.124	0.258	-0.132
-519.931	800.000	-0.126	-0.538
-518.916	330.044	0.085	-0.209
-517.902	28.087	0.338	0.364
-516.887	-171.292	0.047	0.002
-515.872	483.044	0.028	0.081
-514.858	-76.071	-0.348	-0.156
-513.843	29.528	-0.136	-0.148
-512.829	-183.433	-0.244	0.005
-511.814	-33.493	-0.096	-0.068
-510.799	-108.231	0.130	0.036
-509.785	-122.449	0.235	-0.048
-508.770	-120.521	-0.446	-0.096
-507.756	-196.406	0.078	0.001
-506.741	-169.644	-0.021	-0.001
-505.726	121.149	-0.147	0.234
-504.712	-81.881	0.307	0.127
-503.697	-94.074	0.161	0.056
-502.683	-122.608	-0.447	0.092
-501.668	-151.699	0.259	-0.024
-500.653	631.471	0.098	0.317
-499.639	9.997	-0.228	0.221
-498.624	65.976	0.102	-0.132
-497.610	-126.521	0.190	0.036
-496.595	-200.000	0.005	-0.357
-495.581	665.035	0.078	-0.260
-494.566	57.181	0.138	-0.172
-493.551	221.814	-0.042	-0.087
-492.537	-52.802	0.153	-0.089
-491.522	-51.148	-0.456	-0.271
-490.508	-50.157	0.206	0.124
-489.493	-200.000	-0.011	0.345
-488.478	-27.807	0.354	0.261
-487.464	-177.095	-0.653	-0.020
-486.449	-146.875	-0.488	0.053
-485.435	129.929	-0.018	0.030
-484.420	-90.583	0.130	-0.048
-483.405	-23.474	0.113	-0.086
-482.391	-8.641	0.385	-0.329
-481.376	85.886	-0.188	-0.264
-480.362	87.090	-0.188	0.265
-479.347	-86.016	0.112	-0.044
-478.332	-7.048	0.103	0.089
-477.318	-200.000	-0.009	-0.090
-476.303	-200.000	-0.027	-0.332
-475.289	151.486	0.308	0.535
-474.274	-156.004	0.585	0.047
-473.259	-129.763	0.742	-0.129
-472.245	-22.755	0.177	0.136
-471.230	-45.108	0.321	-0.202
-470.216	-200.000	-0.009	0.068
-469.201	-177.352	0.363	-0.011
-468.186	-179.315	0.309	-0.009
-467.172	-94.400	0.090	-0.031
-466.157	-8.804	0.316	0.270
-465.143	-79.020	-0.412	0.177
-464.128	-49.870	0.129	0.077
-463.113	83.167	-0.109	0.151
-462.099	-92.198	0.028	0.010
-461.084	-150.001	0.321	-0.031
-460.070	-72.416	0.332	0.156
-459.055	62.148	-0.141	-0.180
-458.040	-104.749	-0.400	-0.116
-457.026	248.837	-0.041	0.088
-456.011	-57.828	-0.208	-0.115
-454.997	800.000	0.043	-0.159
-453.982	-102.453	0.479	0.145
-452.968	-75.034	0.119	0.054
-451.953	270.139	0.101	-0.226
-450.938	800.000	0.066	0.320
-449.924	-78.998	0.330	0.142
-448.909	-62.340	0.614	0.324
-447.895	-5.101	0.062	0.054
-446.880	117.129	0.216	-0.338
-445.865	89.517	0.286	0.407
-444.851	-200.000	-0.046	-0.484
-443.836	439.507	-0.108	0.301
-442.822	-45.058	-0.253	-0.159
-441.807	55.947	-0.275	-0.339
-440.792	-27.694	0.348	0.257
-439.778	-162.216	0.573	-0.036
-438.763	148.343	-0.159	0.273
-437.749	-84.247	0.472	0.189
-436.734	-200.000	-0.008	-0.315
-435.719	-73.061	-0.418	-0.194
-434.705	-200.000	-0.057	0.396
-433.690	-2.363	-0.201	0.179
-432.676	-200.000	0.005	0.366
-431.661	256.578	0.263	0.575
-430.646	-63.898	-0.343	0.178
-429.632	230.994	0.155	-0.324
-428.617	468.712	0.121	0.348
-427.603	-118.682	0.042	0.009
-426.588	-200.000	-0.056	0.359
-425.573	26.130	0.170	0.180
-424.559	-107.363	0.311	0.086
-423.544	254.295	-0.111	0.242
-422.530	14.467	-0.306	0.303
-421.515	-117.108	0.143	-0.033
-420.500	-90.511	0.403	0.147
-419.486	-126.966	-0.503	0.093
-418.471	-124.870	-0.085	0.016
-417.457	25.988	-0.147	0.156
-416.442	-1.782	-0.498	-0.445
-415.428	-200.000	0.003	-0.140
-414.413	135.522	-0.365	-0.605
-413.398	448.786	0.041	-0.116
-412.384	64.466	-0.097	0.125
-411.369	513.690	0.133	-0.397
-410.355	8.665	0.121	-0.116
-409.340	-172.409	0.345	0.014
-408.325	-9.091	-0.103	-0.088
-407.311	-96.501	0.161	0.054
-406.296	5.138	0.177	0.166
-405.282	-163.339	0.493	-0.029
-404.267	61.599	-0.113	-0.143
-403.252	82.773	-0.006	0.008
-402.238	-104.305	0.491	0.144
-401.223	-92.863	0.206	0.073
-400.209	198.109	-0.120	0.234
-399.194	44.551	0.041	-0.048
-398.179	195.147	0.078	0.151
-397.165	-65.250	-0.397	0.202
-396.150	252.094	-0.137	0.296
-395.136	-21.012	0.205	-0.159
-394.121	-149.493	-0.267	0.027
-393.106	-109.842	-0.438	0.116
-392.092	-153.995	0.518	0.044
-391.077	-200.000	-0.040	-0.748
-390.063	18.108	0.316	0.320
-389.048	-87.356	0.748	0.286
-388.033	-16.396	-0.050	0.040
-387.019	-200.000	-0.025	0.377
-386.004	264.137	0.154	0.340
-384.990	-162.262	-0.779	0.049
-383.975	-93.851	-0.443	0.154
-382.960	88.687	-0.266	-0.376
-381.946	63.014	0.054	0.069
-380.931	-200.000	-0.010	-0.077
-379.917	20.320	-0.355	-0.363
-378.902	104.452	0.099	0.148
-377.888	-148.681	-0.498	0.051
-376.873	-10.937	-0.162	0.136
-375.858	-163.829	-0.073	-0.004
-374.844	655.913	-0.086	-0.282
-373.829	-200.000	0.050	-0.526
-372.815	-200.000	0.097	-0.617
-371.800	-85.047	0.256	0.101
-370.785	125.131	0.177	-0.283
-369.771	692.104	-0.085	0.283
-368.756	-146.021	-0.224	-0.025
-367.742	257.024	0.298	-0.651
-366.727	-114.532	-0.376	-0.091
-365.712	-55.949	0.224	0.126
-364.698	-76.110	0.240	0.107
-363.683	-110.752	-0.212	0.055
-362.669	40.481	0.257	-0.293
-361.654	-63.795	0.147	-0.076
-360.639	-98.828	0.370	0.119
-359.625	49.391	0.321	0.383
-358.610	-40.080	0.236	-0.156
-357.596	86.860	-0.263	-0.369
-356.581	-48.127	-0.258	0.158
-355.566	800.000	-0.092	-0.336
-354.552	123.854	0.141	0.224
-353.537	-146.774	-0.498	0.054
-352.523	-20.664	-0.231	-0.179
-351.508	-61.933	-0.509	0.269
-350.493	-123.418	-0.265	-0.053
-349.479	25.486	-0.321	0.338
-348.464	296.834	0.058	0.134
-347.450	800.000	0.093	0.362
-346.435	800.000	-0.068	-0.304
-345.420	-82.195	0.396	0.163
-344.406	364.556	0.070	0.180
-343.391	800.000	-0.095	-0.387
-342.377	-106.892	0.158	-0.044
-341.362	178.124	0.253	0.468
-340.348	-3.961	-0.456	0.400
-339.333	-132.101	-0.370	-0.060
-338.318	369.208	-0.047	0.122
-337.304	-121.356	-0.393	-0.082
-336.289	800.000	-0.060	-0.276
-335.275	133.611	0.248	0.407
-334.260	-159.882	0.111	0.008
-333.245	800.000	-0.060	0.310
-332.231	49.958	-0.255	0.305
-331.216	161.334	-0.152	0.270
-330.202	37.797	0.161	-0.182
-329.187	-200.000	-0.032	-0.270
-328.172	-99.414	0.352	0.112
-327.158	-101.234	0.724	-0.223
-326.143	-28.489	-0.082	-0.060
-325.129	667.525	-0.054	0.177
-324.114	-69.342	-0.556	0.269
-323.099	111.261	-0.166	-0.254
-322.085	173.967	0.189	-0.347
-321.070	-114.648	0.472	-0.113
-320.056	251.180	0.086	-0.185
-319.041	-200.000	0.003	0.298
-318.026	-103.807	-0.238	-0.070
-317.012	-5.208	-0.110	-0.095
-315.997	-46.445	-0.121	-0.075
-314.983	-200.000	0.082	-0.483
-313.968	800.000	0.042	0.204
-312.953	200.296	0.159	0.310
-311.939	-19.310	-0.227	0.178
-310.924	40.794	-0.270	0.308
-309.910	48.757	-0.506	0.600
-308.895	-129.393	-0.208	-0.036
-307.880	-135.153	-0.441	-0.066
-306.866	800.000	-0.080	0.367
-305.851	-36.535	-0.219	0.148
-304.837	-140.247	0.204	0.027
-303.822	-175.972	-0.110	0.004
-302.807	154.343	0.113	0.197
-301.793	382.321	0.094	-0.244
-300.778	-47.479	-0.522	-0.320
-299.764	280.906	-0.172	-0.391
-298.749	-94.478	0.251	0.086
-297.735	-136.170	0.193	-0.028
-296.720	69.748	-0.107	0.139
-295.705	270.440	-0.199	-0.443
-294.691	-29.509	0.028	0.020
-293.676	800.000	-0.104	0.410
-292.662	-142.137	-0.350	-0.043
-291.647	800.000	-0.073	-0.299
-290.632	-119.422	0.526	-0.115
-289.618	-161.500	-0.467	-0.030
-288.603	-200.000	0.002	-0.182
-287.589	-88.815	0.098	-0.037
-286.574	137.676	-0.067	-0.110
-285.559	-31.024	-0.368	0.262
-284.545	-119.065	-0.227	-0.050
-283.530	2.597	0.113	-0.104
-282.516	10.420	0.087	0.084
-281.501	800.000	-0.098	-0.445
-280.486	-117.549	-0.197	-0.045
-279.472	271.691	0.125	-0.279
-278.457	-43.424	0.310	0.197
-277.443	-117.519	-0.237	-0.054
-276.428	54.278	0.118	-0.144
-275.413	-31.490	0.163	-0.116
-274.399	54.816	0.478	-0.583
-273.384	-67.223	-0.144	-0.071
-272.370	31.458	-0.300	0.326
-271.355	80.770	0.254	-0.347
-270.340	12.755	-0.160	-0.156
-269.326	12.226	-0.479	0.465
-268.311	686.168	-0.101	-0.337
-267.297	29.833	0.370	0.398
-266.282	726.537	-0.016	-0.055
-265.267	93.096	0.171	0.244
-264.253	-102.331	0.014	0.004
-263.238	136.812	-0.130	0.215
-262.224	-86.910	0.484	-0.185
-261.209	-95.689	0.079	-0.027
-260.195	567.305	-0.079	0.243
-259.180	-200.000	-0.009	-0.180
-258.165	800.000	-0.057	-0.306
-257.151	12.723	0.380	-0.370
-256.136	20.947	-0.303	-0.310
-255.122	163.428	-0.141	0.251
-254.107	-33.689	0.339	-0.235
-253.092	-175.493	-0.444	-0.015
-252.078	-29.151	-0.232	-0.167
-251.063	732.929	0.141	0.477
-250.049	380.194	-0.157	0.409
-249.034	-200.000	-0.073	-0.470
-248.019	-108.142	-0.542	0.147
-247.005	222.842	0.170	0.347
-245.990	-200.000	0.095	0.592
-244.976	-134.608	0.065	-0.010
-243.961	-19.223	-0.295	0.231
-242.946	-128.963	-0.408	0.071
-241.932	-76.269	0.273	-0.121
-240.917	-102.876	0.306	0.091
-239.903	-200.000	-0.049	0.416
-238.888	-200.000	-0.011	0.522
-237.873	168.248	0.109	0.196
-236.859	-125.608	-0.331	-0.063
-235.844	43.842	0.132	0.153
-234.830	800.000	0.027	0.106
-233.815	-179.823	-0.643	-0.017
-232.800	145.908	0.191	0.324
-231.786	-109.347	0.422	0.112
-230.771	97.481	0.334	-0.484
-229.757	-116.652	-0.444	-0.102
-228.742	-130.877	0.381	-0.064
-227.727	-65.653	0.377	0.190
-226.713	-174.022	0.602	-0.022
-225.698	-96.066	0.447	-0.149
-224.684	177.096	-0.244	0.450
-223.669	166.156	0.177	0.317
-222.655	337.934	0.216	0.533
-221.640	-40.919	-0.040	-0.026
-220.625	-23.598	0.161	0.122
-219.611	666.534	0.131	-0.430
-218.596	-106.409	0.194	0.054
-217.582	-30.708	-0.239	-0.170
-216.567	-194.377	-0.547	-0.005
-215.552	116.522	0.095	-0.147
-214.538	-138.026	-0.194	-0.027
-213.523	92.703	-0.323	0.460
-212.509	-112.380	0.154	0.039
-211.494	-22.101	-0.234	0.179
-210.479	143.796	-0.107	0.179
-209.465	-165.558	0.512	0.028
-208.450	140.150	0.060	0.100
-207.436	-200.000	-0.022	-0.353
-206.421	-106.069	0.275	0.077
-205.406	138.514	0.166	0.276
-204.392	22.132	-0.258	0.265
-203.377	745.401	-0.154	0.524
-202.363	-200.000	0.038	-0.332
-201.348	-114.892	-0.055	0.013
-200.333	-200.000	0.024	0.374
-199.319	-100.707	0.276	-0.085
-198.304	34.614	0.114	0.126
-197.290	-184.625	-0.149	0.003
-196.275	83.226	0.224	-0.308
-195.260	455.545	0.109	-0.306
-194.246	-177.501	-0.206	-0.006
-193.231	-168.359	0.601	-0.029
-192.217	800.000	-0.036	0.136
-191.202	610.890	-0.104	0.329
-190.187	43.189	0.180	0.207
-189.173	55.058	0.333	-0.405
-188.158	233.673	0.088	0.183
-187.144	86.121	0.114	-0.158
-186.129	-8.247	-0.146	0.123
-185.114	254.481	-0.150	0.324
-184.100	-200.000	0.049	0.384
-183.085	-162.721	-0.474	0.029
-182.071	104.839	-0.154	-0.229
-181.056	29.160	-0.284	0.304
-180.042	-9.117	-0.344	-0.290
-179.027	-113.641	-0.196	-0.048
-178.012	-200.000	0.028	-0.295
-176.998	-150.021	-0.151	-0.015
-175.983	-18.142	-0.106	0.083
-174.969	72.284	-0.354	-0.464
-173.954	-133.721	0.401	0.062
-172.939	-111.602	0.577	-0.146
-171.925	-72.795	0.199	-0.092
-170.910	-19.347	0.170	-0.132
-169.896	47.257	-0.475	-0.557
-168.881	658.211	0.056	-0.182
-167.866	-39.061	-0.301	-0.198
-166.852	-28.144	0.251	0.182
-165.837	-103.986	0.353	-0.103
-164.823	-80.341	0.359	-0.150
-163.808	-57.858	0.224	-0.123
-162.793	176.474	-0.167	0.306
-161.779	-200.000	0.031	0.593
-160.764	-146.612	-0.261	0.028
-159.750	-200.000	0.055	-0.314
-158.735	-127.927	0.096	-0.017
-157.720	-200.000	0.021	0.217
-156.706	-96.130	-0.300	-0.100
-155.691	-132.163	0.134	0.022
-154.677	4.286	-0.159	0.147
-153.662	-200.000	0.017	0.112
-152.647	-74.439	-0.104	-0.047
-151.633	-21.688	0.325	0.249
-150.618	-200.000	-0.029	-0.201
-149.604	-7.446	-0.157	0.133
-148.589	-62.841	-0.480	-0.249
-147.574	249.707	0.240	-0.514
-146.560	-112.381	0.248	0.062
-145.545	800.000	-0.041	0.225
-144.531	-31.363	-0.538	-0.380
-143.516	216.757	-0.388	-0.779
-142.502	224.244	0.029	0.059
-141.487	800.000	-0.041	0.170
-140.472	32.359	-0.064	-0.069
-139.458	137.152	0.310	-0.510
-138.443	722.416	0.040	-0.134
-137.429	-200.000	0.541	-0.003
-136.414	364.935	0.084	-0.212
-135.399	800.000	-0.042	-0.167
-134.385	326.145	0.097	-0.234
-133.370	-200.000	-0.022	-0.189
-132.356	3.242	0.078	0.072
-131.341	263.672	0.021	0.046
-130.326	-146.714	0.029	0.003
-129.312	-105.287	-0.148	0.042
-128.297	204.481	-0.252	0.493
-127.283	192.838	0.184	-0.349
-126.268	65.045	-0.229	-0.291
-125.253	-79.090	0.061	0.026
-124.239	-60.279	0.109	-0.058
-123.224	-77.203	-0.174	0.076
-122.210	53.627	-0.106	0.128
-121.195	-188.488	0.108	0.002
-120.180	-36.825	-0.259	0.174
-119.166	-85.923	-0.178	0.069
-118.151	-17.413	0.118	0.093
-117.137	-40.503	0.352	-0.229
-116.122	-85.580	0.696	-0.270
-115.107	-143.626	-0.117	0.014
-114.093	-88.063	0.266	0.100
-113.078	510.478	-0.158	-0.464
-112.064	21.694	-0.061	-0.062
-111.049	-62.670	0.112	-0.058
-110.034	-35.056	-0.282	-0.193
-109.020	31.370	0.239	-0.258
-108.005	-113.535	-0.330	-0.080
-106.991	-70.862	-0.548	0.258
-105.976	-125.151	0.303	-0.058
-104.962	13.376	0.486	-0.473
-103.947	-57.517	-0.289	0.158
-102.932	124.454	0.168	-0.266
-101.918	800.000	-0.015	0.059
-100.903	55.811	0.016	-0.019
-99.889	800.000	-0.061	-0.273
-98.874	-135.375	0.344	-0.051
-97.859	17.758	0.114	0.113
-96.845	-200.000	0.001	-0.111
-95.830	58.504	0.310	-0.382
-94.816	189.112	-0.048	0.090
-93.801	-200.000	0.050	-0.431
-92.786	-78.140	-0.149	0.064
-91.772	29.494	-0.176	0.187
-90.757	-133.885	0.221	0.034
-89.743	38.339	-0.237	0.265
-88.728	800.000	-0.111	-0.565
-87.713	-68.373	-0.227	0.110
-86.699	24.945	0.473	0.491
-85.684	800.000	0.118	0.413
-84.670	-127.294	-0.181	0.033
-83.655	-172.940	-0.574	0.022
-82.640	69.259	0.213	-0.275
-81.626	-40.096	-0.321	0.209
-80.611	-9.738	-0.301	-0.251
-79.597	-102.851	-0.223	0.066
-78.582	-160.344	0.670	-0.045
-77.567	-200.000	-0.176	0.001
-76.553	-53.812	0.380	-0.217
-75.538	100.172	-0.145	-0.211
-74.524	-93.161	-0.090	-0.031
-73.509	315.552	-0.161	-0.382
-72.494	-24.653	-0.238	-0.177
-71.480	131.637	-0.272	0.439
-70.465	179.244	-0.130	-0.239
-69.451	-200.000	-0.012	-0.318
-68.436	-200.000	-0.009	-0.334
-67.422	-30.415	-0.289	0.205
-66.407	125.316	0.319	-0.505
-65.392	-87.066	0.141	-0.054
-64.378	800.000	-0.109	0.570
-63.363	196.031	-0.088	0.168
-62.349	98.626	0.307	0.445
-61.334	4.806	-1.264	-1.163
-60.319	6.691	0.804	0.749
-59.305	262.296	-2.672	-5.828
-58.290	68.461	2.869	3.688
-57.276	532.496	3.432	10.232
-56.261	-200.000	14.988	232.523
-55.246	459.450	1177.962	3300.954
-54.232	62.493	2823.376	3536.392
-53.217	71.154	2718.973	3535.189
-52.203	57.408	2446.133	2994.387
-51.188	43.853	2094.570	2403.723
-50.173	37.929	1965.297	2188.706
-49.159	35.885	1954.564	2153.710
-48.144	35.518	1950.093	2144.583
-47.130	35.366	1948.733	2141.290
-46.115	35.552	1945.984	2140.267
-45.100	35.409	1945.232	2137.759
-44.086	35.386	1944.304	2136.400
-43.071	35.349	1942.707	2134.145
-42.057	35.324	1941.741	2132.711
-41.042	35.327	1940.019	2130.773
-40.027	35.297	1938.988	2129.218
-39.013	35.390	1937.057	2128.049
-37.998	35.282	1935.457	2125.003
-36.984	35.255	1934.829	2123.930
-35.969	35.264	1933.697	2122.705
-34.954	35.241	1931.951	2120.445
-33.940	35.196	1931.538	2119.410
-32.925	35.183	1930.305	2117.829
-31.911	35.237	1928.718	2116.608
-30.896	35.166	1927.096	2113.954
-29.881	35.239	1925.375	2112.789
-28.867	35.234	1923.865	2110.990
-27.852	35.152	1922.552	2108.560
-26.838	35.046	1921.751	2106.431
-25.823	35.218	1919.675	2105.968
-24.809	35.087	1918.731	2103.404
-23.794	35.088	1917.680	2102.183
-22.779	35.064	1916.035	2100.031
-21.765	34.924	1915.620	2097.950
-20.750	34.951	1913.802	2096.168
-19.736	35.046	1912.595	2095.807
-18.721	34.934	1911.687	2093.505
-17.706	34.923	1909.915	2091.351
-16.692	34.942	1909.399	2090.915
-15.677	35.028	1907.143	2089.301
-14.663	34.879	1906.516	2086.899
-13.648	35.054	1903.897	2085.865
-12.633	34.943	1903.692	2084.346
-11.619	35.021	1902.155	2083.437
-10.604	34.908	1901.690	2081.607
-9.590	35.022	1900.098	2081.029
-8.575	34.892	1899.406	2078.762
-7.560	34.953	1897.349	2077.095
-6.546	34.717	1897.258	2074.343
-5.531	34.865	1894.983	2073.384
-4.517	34.891	1894.046	2072.557
-3.502	34.936	1892.966	2071.787
-2.487	34.871	1892.121	2070.076
-1.473	35.010	1888.298	2067.314
-0.458	34.685	1868.838	2042.435
0.556	30.196	2001.271	2122.870
1.571	28.425	2216.557	2328.359
2.586	29.778	2262.971	2394.460
3.600	29.727	2266.297	2397.028
4.615	29.941	2265.586	2398.776
5.629	29.810	2262.965	2394.004
6.644	29.900	2261.215	2393.036
7.659	29.980	2260.809	2393.359
8.673	30.245	2258.414	2393.977
9.688	29.580	2262.107	2388.966
10.702	26.220	2330.888	2416.210
11.717	22.739	2392.164	2431.298
12.731	11.640	2363.570	2249.222
13.746	1.835	2337.494	2089.492
14.761	0.394	2333.070	2065.464
15.775	0.282	2330.472	2061.382
16.790	0.201	2329.602	2059.247
17.804	0.089	2327.990	2056.037
18.819	0.127	2327.475	2055.855
19.834	0.122	2325.451	2053.761
20.848	0.021	2324.900	2051.641
21.863	0.101	2321.543	2049.517
22.877	0.115	2320.108	2048.197
23.892	0.077	2317.980	2045.566
24.907	0.040	2316.495	2043.499
25.921	0.088	2314.246	2041.926
26.936	0.037	2312.653	2039.586
27.950	0.047	2309.430	2036.627
28.965	0.216	2306.312	2035.939
29.980	0.166	2305.883	2034.638
30.994	0.214	2303.817	2033.220
32.009	5.996	2323.981	2129.750
33.023	19.534	2363.808	2352.619
34.038	25.595	2375.702	2447.342
35.053	26.010	2373.711	2450.672
36.067	25.857	2369.914	2444.370
37.082	25.748	2367.633	2440.234
38.096	25.710	2367.023	2438.801
39.111	26.078	2364.871	2441.300
40.126	25.924	2362.886	2436.856
41.140	26.161	2361.381	2438.240
42.155	26.186	2358.730	2435.545
43.169	25.908	2356.351	2429.035
44.184	25.781	2354.619	2425.233
45.199	25.751	2352.089	2421.928
46.213	25.671	2349.736	2418.140
47.228	25.508	2349.868	2415.791
48.242	25.636	2348.332	2415.650
49.257	25.959	2346.058	2417.372
50.271	26.139	2344.208	2417.605
51.286	25.980	2341.735	2412.616
52.301	25.770	2338.475	2406.152
53.315	25.801	2339.341	2407.167
54.330	26.761	2340.446	2420.912
55.344	27.386	2339.505	2428.042
56.359	27.534	2336.473	2426.575
57.374	27.474	2334.220	2423.154
58.388	27.344	2331.929	2418.745
59.403	27.245	2327.625	2412.672
60.417	26.943	2324.778	2405.409
61.432	27.173	2322.914	2406.253
62.447	27.207	2321.093	2404.534
63.461	27.139	2319.890	2402.084
64.476	27.234	2317.462	2400.549
65.490	27.383	2315.855	2400.577
66.505	26.724	2314.109	2389.738
67.520	26.133	2310.505	2377.909
68.534	26.053	2308.817	2374.829
69.549	26.165	2304.017	2371.093
70.563	25.797	2302.182	2364.061
71.578	25.832	2299.691	2361.685
72.593	25.960	2299.323	2362.708
73.607	25.791	2296.480	2357.282
74.622	25.715	2294.615	2354.087
75.636	26.024	2292.931	2356.141
76.651	26.095	2289.876	2353.639
77.666	25.969	2289.116	2350.931
78.680	25.992	2286.154	2347.914
79.695	25.710	2282.833	2340.527
80.709	25.080	2280.632	2329.773
81.724	24.898	2277.656	2324.077
82.739	25.245	2277.031	2327.678
83.753	26.071	2277.117	2338.255
84.768	26.188	2275.549	2337.890
85.782	26.041	2274.551	2334.675
86.797	26.182	2271.682	2333.274
87.812	25.919	2269.883	2327.737
88.826	26.217	2268.136	2329.537
89.841	26.295	2266.274	2328.354
90.855	26.313	2264.028	2325.994
91.870	26.061	2261.525	2319.892
92.884	26.036	2260.198	2317.927
93.899	26.047	2258.460	2316.010
94.914	25.748	2258.017	2311.422
95.928	26.017	2258.450	2315.065
96.943	26.352	2257.018	2317.629
97.957	26.346	2255.073	2315.280
98.972	26.341	2252.032	2311.816
99.987	26.180	2248.078	2305.416
101.001	26.072	2245.574	2301.189
102.016	26.164	2243.474	2299.935
103.030	26.017	2241.269	2295.521
104.045	25.655	2238.421	2287.708
105.060	25.793	2236.359	2287.081
106.074	26.080	2235.341	2289.438
107.089	25.867	2232.837	2283.884
108.103	25.564	2231.794	2278.675
109.118	25.697	2230.194	2278.473
110.133	25.832	2228.264	2277.945
111.147	25.920	2226.890	2277.382
112.162	25.942	2225.591	2276.059
113.176	26.061	2223.064	2274.709
114.191	25.806	2220.710	2268.797
115.206	25.582	2218.873	2263.820
116.220	25.944	2217.699	2266.924
117.235	25.923	2215.831	2264.482
118.249	25.931	2213.386	2261.814
119.264	25.890	2211.751	2259.351
120.279	25.576	2209.201	2252.531
121.293	25.596	2208.025	2251.306
122.308	25.916	2206.936	2253.954
123.322	25.845	2204.791	2250.602
124.337	25.358	2201.796	2241.160
125.352	25.749	2204.108	2248.156
126.366	26.483	2205.104	2258.117
127.381	26.565	2201.918	2255.614
128.395	26.610	2198.975	2252.884
129.410	26.175	2195.340	2243.465
130.424	25.929	2193.746	2238.492
131.439	26.368	2192.970	2242.915
132.454	26.283	2190.961	2239.526
133.468	26.309	2188.280	2236.840
134.483	26.186	2186.075	2232.793
135.497	26.182	2185.376	2231.768
136.512	26.472	2183.246	2232.914
137.527	26.430	2182.068	2230.930
138.541	26.586	2181.005	2231.509
139.556	26.506	2181.087	2230.327
140.570	26.560	2178.601	2228.186
141.585	26.192	2175.333	2220.034
142.600	25.909	2174.520	2215.438
143.614	25.879	2172.669	2212.926
144.629	25.891	2170.483	2210.580
145.643	25.639	2169.043	2205.741
146.658	25.716	2166.560	2203.900
147.673	25.476	2163.974	2198.051
148.687	25.398	2161.780	2194.604
149.702	25.368	2161.664	2193.853
150.716	25.750	2161.685	2198.304
151.731	26.141	2161.792	2202.950
152.746	26.193	2159.574	2201.059
153.760	26.000	2158.162	2196.990
154.775	26.026	2158.746	2197.651
155.789	26.405	2157.473	2200.722
156.804	26.313	2152.347	2194.114
157.819	25.919	2148.797	2185.427
158.833	25.926	2144.900	2181.283
159.848	25.825	2144.784	2179.679
160.862	25.796	2142.936	2177.190
161.877	26.027	2142.452	2179.237
162.892	26.068	2141.559	2178.570
163.906	26.164	2141.848	2179.767
164.921	26.139	2139.524	2176.836
165.935	26.095	2135.828	2172.289
166.950	25.899	2133.318	2167.101
167.964	25.962	2132.617	2166.896
168.979	25.936	2129.928	2163.591
169.994	25.958	2128.260	2161.901
171.008	25.783	2126.227	2157.473
172.023	25.607	2126.107	2154.975
173.037	25.808	2125.343	2156.360
174.052	25.849	2122.633	2153.843
175.067	25.781	2121.059	2151.170
176.081	25.705	2120.372	2149.305
177.096	25.853	2119.745	2150.188
178.110	26.167	2118.192	2152.113
179.125	26.145	2116.440	2149.821
180.140	26.175	2114.842	2148.296
181.154	26.262	2115.090	2149.329
182.169	26.489	2114.678	2151.370
183.183	26.451	2113.406	2149.367
184.198	26.777	2111.752	2151.309
185.213	26.743	2109.606	2148.458
186.227	26.482	2106.991	2142.435
187.242	26.226	2104.961	2137.077
188.256	26.003	2103.726	2132.905
189.271	26.040	2102.059	2131.409
190.286	25.840	2099.971	2126.665
191.300	25.938	2097.026	2124.586
192.315	26.085	2095.331	2124.352
193.329	26.218	2094.023	2124.346
194.344	26.182	2092.575	2122.201
195.359	25.917	2091.993	2118.226
196.373	26.197	2089.669	2118.916
197.388	25.981	2087.366	2113.779
198.402	26.053	2084.633	2111.616
199.417	26.153	2083.882	2111.775
200.432	26.072	2081.364	2108.014
201.446	25.744	2080.474	2103.019
202.461	25.716	2078.381	2100.319
203.475	25.699	2077.193	2098.672
204.490	25.885	2075.219	2098.596
205.504	25.979	2072.479	2096.681
206.519	26.084	2070.339	2095.484
207.534	26.081	2070.129	2094.981
208.548	26.362	2068.856	2096.719
209.563	25.907	2066.533	2088.824
210.577	26.166	2067.135	2092.192
211.592	26.487	2065.422	2093.941
212.607	26.056	2064.663	2087.911
213.621	26.108	2064.408	2088.015
214.636	26.206	2061.705	2086.162
215.650	26.506	2059.976	2087.644
216.665	26.612	2058.919	2087.548
217.680	26.234	2055.997	2079.963
218.694	26.094	2053.690	2075.767
219.709	25.895	2052.131	2071.645
220.723	25.817	2050.972	2069.327
221.738	26.134	2050.139	2071.894
222.753	26.389	2047.814	2072.235
223.767	26.263	2046.350	2069.046
224.782	26.195	2044.473	2066.123
225.796	26.217	2042.705	2064.340
226.811	26.315	2041.521	2064.025
227.826	26.158	2039.638	2060.071
228.840	25.689	2037.530	2052.321
229.855	25.903	2036.712	2053.700
230.869	26.046	2035.703	2054.074
231.884	26.244	2034.564	2054.943
232.899	26.298	2033.563	2054.304
233.913	26.335	2032.207	2053.112
234.928	26.210	2030.965	2050.189
235.942	25.724	2027.823	2041.232
236.957	25.585	2026.367	2037.934
237.972	25.888	2025.253	2040.020
238.986	25.820	2024.650	2038.400
240.001	25.772	2021.690	2034.634
241.015	25.630	2021.027	2032.103
242.030	26.277	2021.576	2039.756
243.045	26.551	2021.921	2042.977
244.059	26.823	2021.143	2045.020
245.074	26.917	2017.751	2042.414
246.088	26.480	2014.250	2033.688
247.103	26.394	2012.943	2031.153
248.117	26.847	2012.344	2035.420
249.132	26.680	2009.780	2030.700
250.147	26.416	2005.983	2023.652
251.161	25.987	2004.436	2017.021
252.176	26.102	2003.572	2017.212
253.190	25.929	2001.295	2012.737
254.205	25.985	1999.059	2010.871
255.220	25.852	1997.022	2007.090
256.234	25.544	1995.348	2001.728
257.249	25.534	1994.846	2000.867
258.263	25.920	1993.362	2003.458
259.278	25.892	1993.082	2002.615
260.293	25.938	1991.617	2001.419
261.307	26.025	1989.302	1999.829
262.322	26.052	1988.617	1999.199
263.336	25.660	1986.172	1992.139
264.351	25.684	1985.111	1991.106
265.366	26.032	1984.572	1994.192
266.380	26.264	1983.790	1995.741
267.395	26.158	1982.395	1992.929
268.409	26.412	1980.438	1993.536
269.424	26.421	1979.237	1992.183
270.439	26.253	1979.004	1989.855
271.453	26.496	1978.181	1991.477
272.468	26.623	1976.455	1990.904
273.482	26.435	1974.400	1986.524
274.497	26.175	1970.590	1979.580
275.512	26.090	1968.212	1976.022
276.526	26.150	1966.499	1974.728
277.541	26.030	1963.179	1969.838
278.555	25.641	1961.690	1963.846
279.570	25.869	1960.540	1964.951
280.585	25.966	1959.966	1965.205
281.599	25.981	1957.856	1963.018
282.614	25.977	1956.808	1961.686
283.628	25.970	1954.851	1959.422
284.643	25.619	1952.883	1953.382
285.657	25.247	1950.548	1946.752
286.672	25.156	1948.295	1943.282
287.687	25.035	1947.710	1941.152
288.701	25.171	1946.409	1941.094
289.716	24.804	1943.888	1934.366
290.730	23.959	1940.076	1921.174
291.745	24.864	1940.542	1931.218
292.760	25.636	1940.935	1939.752
293.774	25.697	1941.823	1941.069
294.789	26.019	1942.009	1944.513
295.803	26.437	1940.414	1947.207
296.818	26.272	1939.527	1944.295
297.833	26.637	1938.859	1947.341
298.847	26.302	1936.471	1941.098
299.862	25.946	1934.841	1935.384
300.876	26.155	1933.643	1936.206
301.891	26.788	1933.547	1942.703
302.906	26.969	1932.464	1943.333
303.920	26.420	1929.717	1934.440
304.935	26.588	1927.953	1934.238
305.949	26.494	1926.052	1931.093
306.964	26.474	1923.495	1928.082
307.979	25.890	1920.262	1918.370
308.993	24.570	1915.362	1899.147
310.008	23.399	1910.047	1881.165
311.022	22.934	1907.997	1873.961
312.037	22.786	1906.698	1870.890
313.052	22.754	1904.367	1868.034
314.066	22.535	1903.292	1864.420
315.081	22.715	1903.080	1865.910
316.095	22.767	1901.397	1864.588
317.110	22.471	1900.089	1859.938
318.125	22.502	1897.233	1857.246
319.139	22.524	1896.281	1856.334
320.154	22.550	1895.716	1855.828
321.168	22.725	1894.208	1855.985
322.183	23.935	1896.902	1871.200
323.197	25.582	1900.237	1891.694
324.212	26.138	1898.498	1895.612
325.227	25.942	1897.005	1891.823
326.241	26.153	1895.154	1891.971
327.256	26.414	1893.908	1893.251
328.270	25.934	1893.159	1887.230
329.285	26.024	1892.109	1886.899
330.300	26.011	1891.749	1886.177
331.314	26.392	1891.147	1889.353
332.329	26.519	1889.727	1889.038
333.343	26.126	1886.098	1881.077
334.358	25.707	1883.708	1874.083
335.373	25.799	1882.976	1874.088
336.387	26.435	1881.499	1879.041
337.402	26.454	1880.409	1877.926
338.416	26.311	1878.572	1874.376
339.431	26.381	1876.875	1873.190
340.446	26.204	1875.222	1869.475
341.460	25.652	1870.831	1859.140
342.475	24.394	1865.958	1841.039
343.489	23.106	1862.497	1824.055
344.504	22.706	1861.169	1818.395
345.519	22.730	1859.964	1817.247
346.533	22.620	1857.004	1812.998
347.548	22.651	1856.182	1812.303
348.562	22.691	1854.864	1811.208
349.577	22.873	1854.008	1812.035
350.592	23.072	1853.591	1813.465
351.606	22.967	1852.741	1811.335
352.621	22.733	1850.409	1806.427
353.635	22.799	1848.815	1805.336
354.650	23.484	1851.209	1814.508
355.665	25.098	1852.977	1832.623
356.679	25.938	1853.269	1841.315
357.694	26.378	1852.043	1844.394
358.708	26.403	1851.868	1844.250
359.723	26.312	1852.014	1843.247
360.738	26.583	1851.789	1845.576
361.752	26.708	1849.721	1844.574
362.767	26.869	1846.649	1842.930
363.781	26.458	1843.788	1835.670
364.796	26.210	1841.524	1830.664
365.810	26.155	1840.903	1829.273
366.825	25.440	1836.680	1817.591
367.840	23.628	1830.992	1793.357
368.854	22.739	1828.644	1781.824
369.869	22.795	1827.159	1780.731
370.883	23.022	1825.448	1781.150
371.898	23.006	1824.511	1779.864
372.913	22.805	1822.761	1775.906
373.927	22.720	1821.794	1773.890
374.942	22.821	1821.328	1774.244
375.956	23.690	1822.537	1783.989
376.971	24.717	1821.259	1792.883
377.986	24.801	1820.782	1793.046
379.000	24.640	1820.126	1790.563
380.015	24.816	1818.114	1790.144
381.029	25.577	1819.017	1798.472
382.044	26.301	1817.407	1803.930
383.059	26.087	1817.292	1801.450
384.073	26.239	1816.581	1802.060
385.088	26.259	1816.155	1801.613
386.102	26.320	1814.141	1800.015
387.117	26.025	1811.236	1793.968
388.132	25.986	1811.196	1793.326
389.146	26.114	1811.862	1795.048
390.161	26.501	1810.759	1797.607
391.175	26.528	1806.397	1793.328
392.190	26.076	1802.511	1784.770
393.205	26.345	1801.545	1786.269
394.219	26.355	1799.986	1784.605
395.234	26.054	1798.540	1779.976
396.248	25.878	1796.762	1776.257
397.263	25.865	1794.388	1773.566
398.278	26.074	1793.542	1774.592
399.292	25.964	1792.471	1772.226
400.307	25.634	1789.944	1766.268
401.321	25.241	1788.652	1760.899
402.336	25.414	1787.818	1761.574
403.350	25.201	1784.991	1756.484
404.365	24.796	1782.870	1750.202
405.380	24.232	1779.728	1741.374
406.394	23.092	1776.244	1726.570
407.409	22.878	1774.337	1722.418
408.423	22.898	1772.809	1720.926
409.438	22.982	1770.629	1719.422
410.453	22.936	1771.194	1719.311
411.467	23.034	1769.442	1718.365
412.482	23.099	1769.710	1719.055
413.496	25.006	1772.721	1740.416
414.511	26.155	1773.296	1751.987
415.526	26.153	1771.400	1749.886
416.540	26.327	1769.516	1749.511
417.555	26.372	1769.094	1749.320
418.569	26.275	1769.437	1748.509
419.584	26.237	1768.350	1746.852
420.599	26.456	1768.920	1749.331
421.613	26.857	1768.190	1752.300
422.628	26.580	1766.108	1747.334
423.642	26.139	1762.653	1739.443
424.657	25.789	1760.615	1733.834
425.672	26.407	1760.200	1739.197
426.686	26.251	1758.546	1735.847
427.701	25.769	1756.654	1729.123
428.715	26.001	1755.849	1730.358
429.730	26.317	1755.370	1732.722
430.745	26.638	1755.166	1735.406
431.759	26.796	1755.108	1736.668
432.774	27.153	1754.370	1739.160
433.788	25.968	1749.620	1722.868
434.803	24.450	1746.383	1704.912
435.818	24.251	1745.947	1702.374
436.832	24.153	1744.893	1700.197
437.847	23.610	1737.966	1688.058
438.861	14.877	1712.579	1580.568
439.876	3.224	1690.490	1450.144
440.890	0.420	1685.707	1419.377
441.905	0.214	1684.096	1415.902
442.920	0.223	1681.911	1413.980
443.934	0.078	1681.193	1411.832
444.949	0.066	1680.442	1410.926
445.963	0.234	1678.724	1410.894
446.978	0.071	1679.306	1409.684
447.993	0.038	1678.009	1408.111
449.007	0.075	1675.810	1406.448
450.022	0.303	1673.027	1406.081
451.036	0.105	1672.212	1403.373
452.051	1.589	1678.889	1422.761
453.066	12.418	1704.442	1547.174
454.080	22.856	1720.631	1660.896
455.095	25.234	1724.846	1687.275
456.109	27.200	1728.809	1709.549
457.124	27.964	1728.289	1716.043
458.139	27.595	1726.833	1710.917
459.153	27.338	1725.145	1706.614
460.168	27.101	1723.505	1702.557
461.182	27.547	1722.642	1705.693
462.197	28.240	1721.820	1711.189
463.212	28.083	1720.496	1708.199
464.226	28.185	1719.600	1708.058
465.241	28.646	1718.962	1711.550
466.255	28.818	1718.084	1712.077
467.270	28.838	1716.584	1710.560
468.285	28.731	1714.999	1707.775
469.299	28.894	1714.407	1708.506
470.314	29.135	1713.397	1709.546
471.328	29.098	1711.823	1707.425
472.343	29.066	1710.982	1706.087
473.358	29.052	1710.022	1704.797
474.372	29.350	1708.535	1705.882
475.387	29.402	1707.934	1705.556
476.401	29.193	1705.879	1701.364
477.416	28.839	1704.109	1696.109
478.430	28.866	1703.473	1695.521
479.445	28.821	1701.997	1693.431
480.460	28.578	1700.093	1689.086
481.474	28.761	1699.819	1690.303
482.489	29.210	1699.580	1694.020
483.503	29.235	1697.584	1692.060
484.518	29.005	1696.410	1688.562
485.533	29.279	1694.623	1689.102
486.547	29.224	1693.324	1687.103
487.562	29.014	1692.270	1683.918
488.576	29.281	1691.460	1685.366
489.591	29.585	1689.898	1686.394
490.606	29.409	1688.287	1682.979
491.620	29.306	1686.996	1680.541
492.635	29.669	1684.660	1681.336
493.649	29.294	1683.251	1676.301
494.664	28.706	1681.947	1669.428
495.679	28.488	1679.777	1665.085
496.693	28.748	1678.466	1665.957
497.708	29.053	1678.773	1668.845
498.722	29.449	1678.193	1671.675
499.737	29.555	1676.737	1670.992
500.752	29.379	1675.802	1668.258
501.766	29.300	1673.916	1665.464
502.781	29.572	1672.425	1666.246
503.795	29.686	1670.589	1665.254
504.810	29.469	1669.958	1662.461
505.825	29.568	1669.086	1662.286
506.839	29.205	1666.916	1656.647
507.854	29.080	1665.707	1654.118
508.868	29.088	1664.478	1652.774
509.883	28.746	1661.999	1647.028
510.898	28.611	1660.735	1644.363
511.912	28.027	1657.930	1636.141
512.927	27.517	1655.363	1628.828
513.941	27.382	1653.474	1625.561
514.956	27.747	1652.740	1627.917
515.971	28.314	1652.401	1632.471
516.985	28.124	1651.422	1629.611
518.000	27.835	1650.162	1625.585
519.014	27.808	1649.208	1624.210
520.029	27.720	1647.454	1621.503
521.043	27.752	1645.482	1619.646
522.058	27.774	1644.756	1618.940
523.073	28.160	1644.343	1621.777
524.087	28.519	1644.209	1624.652
525.102	28.810	1644.202	1627.040
526.116	28.855	1642.552	1625.606
527.131	29.021	1641.800	1626.142
528.146	29.365	1642.206	1629.407
529.160	29.711	1640.878	1630.966
530.175	29.864	1639.642	1630.894
531.189	30.018	1638.696	1631.120
532.204	30.092	1637.528	1630.420
533.219	29.658	1635.570	1624.443
534.233	29.283	1634.065	1619.443
535.248	29.193	1633.361	1617.757
536.262	29.508	1632.992	1619.971
537.277	29.784	1632.263	1621.495
538.292	29.835	1630.255	1619.748
539.306	29.857	1628.468	1617.978
540.321	29.578	1626.063	1612.941
541.335	29.249	1624.792	1608.606
542.350	29.629	1623.839	1610.802
543.365	30.010	1622.817	1612.931
544.379	30.225	1622.153	1613.953
545.394	30.158	1620.688	1611.715
546.408	29.512	1618.544	1603.756
547.423	29.097	1616.997	1598.409
548.438	29.380	1616.274	1599.973
549.452	29.485	1615.548	1599.976
550.467	29.489	1613.473	1597.768
551.481	29.523	1613.051	1597.450
552.496	29.667	1612.871	1598.331
553.511	30.113	1611.982	1601.132
554.525	30.204	1610.682	1600.446
555.540	29.910	1610.230	1597.251
556.554	30.114	1608.279	1596.895
557.569	29.772	1606.923	1592.394
558.583	29.360	1605.059	1586.797
559.598	29.378	1603.885	1585.597
560.613	29.451	1602.511	1584.680
561.627	29.333	1601.195	1582.173
562.642	29.235	1598.847	1578.820
563.656	28.875	1597.018	1573.729
564.671	28.548	1594.873	1568.617
565.686	28.486	1593.762	1566.806
566.700	28.172	1592.197	1562.380
567.715	27.888	1590.741	1558.326
568.729	28.304	1589.256	1560.252
569.744	28.517	1588.373	1561.018
570.759	28.723	1587.226	1561.469
571.773	28.658	1585.663	1559.188
572.788	28.512	1585.311	1557.406
573.802	28.248	1583.366	1553.062
574.817	28.133	1582.275	1550.826
575.832	28.533	1580.758	1552.555
576.846	29.090	1581.253	1557.598
577.861	29.456	1580.099	1559.380
578.875	29.491	1580.915	1560.302
579.890	29.934	1580.251	1563.214
580.905	29.964	1579.881	1562.923
581.919	30.262	1578.769	1564.158
582.934	30.369	1577.798	1563.916
583.948	30.260	1576.645	1561.659
584.963	29.964	1574.796	1557.145
585.978	29.731	1572.120	1552.346
586.992	29.559	1571.817	1550.405
588.007	29.933	1571.307	1552.870
589.021	29.397	1568.889	1545.785
590.036	28.412	1566.677	1535.130
591.051	29.170	1566.414	1541.063
592.065	29.738	1565.828	1545.075
593.080	30.148	1564.567	1547.088
594.094	30.370	1562.804	1547.020
595.109	29.942	1560.514	1540.988
596.123	29.801	1559.418	1538.544
597.138	30.088	1559.914	1541.248
598.153	30.069	1557.795	1538.808
599.167	29.833	1556.551	1535.429
600.182	29.678	1555.687	1533.097
601.196	29.840	1554.819	1533.414
602.211	30.001	1553.960	1533.720
603.226	30.055	1553.221	1533.261
604.240	30.294	1551.987	1533.846
605.255	30.486	1550.746	1534.025
606.269	30.310	1549.863	1531.505
607.284	30.218	1547.706	1528.432
608.299	30.193	1545.842	1526.204
609.313	29.792	1544.734	1521.611
610.328	29.626	1543.615	1518.956
611.342	29.787	1542.208	1518.714
612.357	29.893	1540.888	1518.111
613.372	29.807	1539.332	1515.684
614.386	29.543	1538.322	1512.335
615.401	29.571	1537.783	1511.859
616.415	29.475	1536.244	1509.371
617.430	29.071	1534.540	1504.202
618.445	28.878	1533.441	1501.362
619.459	28.708	1532.104	1498.473
620.474	28.543	1530.586	1495.459
621.488	28.539	1530.568	1495.233
622.503	28.951	1528.947	1496.836
623.518	28.896	1527.615	1494.907
624.532	28.764	1526.291	1492.354
625.547	28.700	1525.171	1490.554
626.561	28.822	1524.778	1490.990
627.576	28.909	1523.368	1490.141
628.591	28.888	1522.241	1488.689
629.605	29.153	1521.708	1490.145
630.620	29.374	1520.121	1490.209
631.634	29.596	1519.718	1491.434
632.649	29.632	1519.042	1490.892
633.663	29.488	1517.502	1488.028
634.678	29.289	1515.228	1484.015
635.693	29.144	1513.420	1480.893
636.707	28.772	1512.681	1476.987
637.722	28.921	1512.485	1477.822
638.736	29.490	1511.269	1481.050
639.751	29.917	1510.624	1483.679
640.766	29.899	1509.865	1482.613
641.780	29.873	1509.034	1481.405
642.795	30.125	1507.740	1481.987
643.809	30.286	1507.501	1482.867
644.824	30.447	1506.670	1483.168
645.839	30.426	1506.193	1482.347
646.853	30.567	1504.431	1481.571
647.868	30.294	1502.634	1477.435
648.882	30.053	1500.987	1473.714
649.897	30.077	1500.092	1472.850
650.912	29.994	1498.552	1470.496
651.926	30.148	1497.165	1470.193
652.941	30.150	1495.785	1468.676
653.955	29.684	1492.922	1461.980
654.970	28.928	1489.890	1452.840
655.985	28.573	1488.447	1448.441
656.999	28.554	1488.025	1447.710
658.014	28.765	1487.977	1449.160
659.028	29.542	1487.915	1455.085
660.043	29.894	1488.247	1458.023
661.058	30.042	1486.411	1457.220
662.072	30.174	1485.238	1456.939
663.087	30.060	1483.653	1454.312
664.101	29.832	1482.913	1451.609
665.116	29.991	1482.755	1452.539
666.131	30.223	1481.065	1452.532
667.145	30.394	1479.768	1452.431
668.160	30.317	1478.786	1450.685
669.174	30.236	1477.176	1448.300
670.189	30.184	1477.087	1447.629
671.204	30.442	1476.442	1448.847
672.218	30.278	1475.620	1446.586
673.233	30.461	1474.899	1447.140
674.247	30.593	1473.014	1446.144
675.262	30.471	1471.923	1443.947
676.276	30.283	1470.998	1441.398
677.291	30.256	1469.782	1439.824
678.306	30.317	1468.314	1438.690
679.320	30.161	1467.109	1436.127
680.335	30.003	1465.904	1433.542
681.349	30.116	1466.009	1434.352
682.364	30.147	1464.743	1433.185
683.379	29.937	1462.631	1429.319
684.393	29.746	1460.845	1425.918
685.408	29.825	1459.347	1424.900
686.422	29.666	1458.252	1422.432
687.437	29.303	1457.402	1418.623
688.452	29.139	1456.452	1416.258
689.466	29.065	1455.220	1414.320
690.481	28.901	1453.740	1411.451
691.495	29.197	1452.951	1412.794
692.510	29.536	1452.309	1414.617
693.525	29.929	1450.666	1415.865
694.539	29.677	1449.774	1412.889
695.554	29.193	1448.987	1408.237
696.568	29.101	1447.163	1405.585
697.583	29.089	1446.207	1404.398
698.598	29.329	1445.896	1405.766
699.612	29.514	1445.364	1406.504
700.627	29.658	1444.528	1406.619
701.641	30.232	1443.437	1409.779
702.656	30.299	1442.527	1409.232
703.671	30.291	1442.280	1408.762
704.685	30.325	1442.661	1409.221
705.700	30.268	1440.810	1406.808
706.714	29.975	1438.284	1401.949
707.729	29.905	1436.562	1399.567
708.744	29.877	1435.559	1398.207
709.758	29.638	1433.762	1394.481
710.773	29.053	1431.800	1387.974
711.787	28.921	1430.494	1385.544
712.802	29.528	1430.305	1389.787
713.816	29.902	1429.420	1391.587
714.831	30.169	1428.760	1392.791
715.846	30.008	1427.671	1390.348
716.860	30.096	1426.550	1389.758
717.875	30.065	1425.274	1388.116
718.889	29.864	1423.983	1385.174
719.904	29.875	1422.713	1383.856
720.919	29.859	1422.309	1383.177
721.933	29.734	1421.560	1381.346
722.948	29.772	1419.883	1379.838
723.962	29.889	1419.071	1379.758
724.977	30.062	1417.903	1379.756
725.992	30.184	1417.356	1379.971
727.006	30.215	1417.020	1379.708
728.021	30.264	1415.437	1378.371
729.035	30.321	1414.324	1377.543
730.050	30.373	1412.970	1376.451
731.065	30.235	1412.026	1374.334
732.079	29.968	1411.495	1371.665
733.094	30.144	1410.217	1371.570
734.108	30.441	1408.133	1371.581
735.123	30.159	1407.064	1368.290
736.138	30.039	1405.555	1365.765
737.152	30.133	1404.637	1365.411
738.167	30.227	1403.166	1364.511
739.181	30.256	1402.438	1363.854
740.196	30.301	1402.063	1363.659
741.211	30.117	1401.148	1361.244
742.225	29.900	1400.397	1358.754
743.240	29.741	1398.580	1355.655
744.254	29.710	1396.427	1353.177
745.269	29.397	1394.813	1349.151
746.284	29.186	1394.569	1347.206
747.298	29.018	1393.783	1345.049
748.313	29.073	1392.673	1344.220
749.327	29.449	1392.020	1346.183
750.342	29.631	1391.973	1347.310
751.356	29.916	1391.131	1348.427
752.371	29.887	1389.194	1346.173
753.386	29.646	1387.733	1342.837
754.400	29.504	1387.355	1341.273
755.415	29.886	1387.137	1343.692
756.429	30.204	1385.782	1344.536
757.444	30.324	1384.602	1344.101
758.459	30.293	1383.084	1342.245
759.473	30.243	1381.467	1340.148
760.488	29.878	1380.040	1335.953
761.502	29.678	1378.973	1333.310
762.517	29.780	1377.839	1332.797
763.532	30.075	1376.925	1333.886
764.546	29.860	1374.762	1330.080
765.561	29.103	1373.675	1323.402
766.575	28.479	1372.055	1317.175
767.590	28.524	1370.957	1316.294
768.605	29.310	1370.730	1321.581
769.619	29.662	1370.260	1323.503
770.634	29.837	1369.407	1323.783
771.648	29.835	1367.548	1321.813
772.663	29.619	1367.412	1319.973
773.678	29.819	1366.995	1320.848
774.692	29.994	1366.542	1321.503
775.707	30.091	1365.823	1321.348
776.721	30.238	1365.076	1321.520
777.736	30.049	1363.790	1318.760
778.751	30.085	1362.548	1317.662
779.765	30.080	1361.680	1316.627
780.780	29.971	1361.549	1315.564
781.794	30.166	1360.296	1315.593
782.809	29.686	1358.259	1310.044
783.824	29.152	1356.667	1304.549
784.838	29.168	1355.188	1303.083
785.853	29.489	1354.707	1304.749
786.867	29.549	1353.989	1304.324
787.882	29.459	1353.059	1302.633
788.897	29.261	1352.263	1300.312
789.911	28.938	1351.296	1296.934
790.926	28.991	1349.739	1295.661
791.940	29.244	1347.895	1295.525
792.955	29.524	1347.314	1296.787
793.969	29.378	1346.578	1294.891
794.984	29.449	1346.139	1294.819
795.999	29.888	1344.964	1296.623
797.013	30.080	1343.445	1296.351
798.028	30.078	1341.847	1294.647
799.042	29.925	1341.424	1293.008
800.057	29.921	1341.095	1292.508
801.072	30.067	1339.382	1291.722
802.086	29.937	1338.528	1289.835
803.101	29.982	1337.180	1288.698
804.115	29.886	1336.537	1287.253
805.130	29.848	1335.398	1285.733
806.145	29.800	1333.837	1283.746
807.159	29.686	1331.828	1280.866
808.174	29.808	1331.060	1280.821
809.188	29.760	1330.338	1279.641
810.203	29.700	1328.291	1277.096
811.218	29.485	1326.275	1273.515
812.232	28.928	1324.498	1267.797
813.247	28.585	1323.063	1263.901
814.261	28.996	1324.363	1267.839
815.276	29.542	1323.593	1270.725
816.291	29.516	1322.327	1269.182
817.305	29.533	1321.352	1268.212
818.320	29.509	1320.635	1267.202
819.334	29.636	1320.068	1267.384
820.349	29.637	1319.289	1266.490
821.364	30.035	1317.124	1266.999
822.378	29.998	1315.026	1264.578
823.393	29.940	1314.230	1263.258
824.407	29.814	1312.911	1260.981
825.422	29.782	1312.437	1260.155
826.437	29.462	1311.861	1257.255
827.451	29.200	1309.981	1253.516
828.466	29.173	1308.563	1251.820
829.480	29.590	1306.487	1252.530
830.495	29.495	1304.030	1249.379
831.509	29.310	1303.017	1247.002
832.524	29.248	1303.403	1246.802
833.539	29.653	1302.630	1248.663
834.553	29.713	1300.974	1247.335
835.568	29.848	1299.863	1247.034
836.582	29.851	1299.318	1246.382
837.597	29.810	1298.012	1244.699
838.612	29.690	1295.751	1241.574
839.626	29.458	1294.656	1238.812
840.641	29.206	1293.946	1236.282
841.655	29.231	1292.602	1235.021
842.670	28.695	1291.084	1229.816
843.685	28.226	1289.738	1225.231
844.699	28.637	1289.032	1227.173
845.714	29.202	1288.037	1229.873
846.728	29.140	1287.492	1228.792
847.743	29.243	1286.973	1228.838
848.758	29.361	1286.114	1228.659
849.772	29.614	1285.208	1229.342
850.787	29.511	1284.275	1227.616
851.801	29.570	1283.081	1226.718
852.816	29.574	1281.287	1224.882
853.831	29.463	1279.765	1222.543
854.845	29.393	1278.342	1220.575
855.860	29.044	1276.852	1216.682
856.874	29.163	1274.964	1215.526
857.889	29.142	1273.973	1214.303
858.904	29.540	1273.590	1216.425
859.918	29.650	1272.510	1215.975
860.933	29.731	1271.372	1215.280
861.947	29.294	1270.229	1211.157
862.962	29.224	1267.928	1208.358
863.977	29.179	1266.831	1206.867
864.991	29.219	1266.196	1206.382
866.006	29.009	1266.164	1204.826
867.020	29.246	1264.660	1204.810
868.035	29.588	1263.622	1205.917
869.049	29.583	1263.092	1205.234
870.064	29.632	1262.688	1205.025
871.079	29.648	1261.680	1204.027
872.093	29.448	1259.828	1200.804
873.108	29.295	1258.658	1198.550
874.122	29.139	1257.454	1196.239
875.137	28.779	1256.629	1192.965
876.152	28.780	1255.294	1191.559
877.166	28.854	1253.756	1190.438
878.181	28.782	1252.754	1188.877
879.195	28.968	1252.600	1189.798
880.210	29.282	1251.899	1191.031
881.225	29.454	1250.781	1190.936
882.239	29.257	1250.413	1189.167
883.254	29.339	1249.619	1188.804
884.268	29.601	1248.488	1189.279
885.283	29.558	1247.036	1187.477
886.298	29.427	1246.020	1185.519
887.312	29.311	1245.063	1183.717
888.327	29.406	1243.607	1182.804
889.341	29.436	1242.477	1181.786
890.356	29.060	1241.848	1178.623
891.371	29.230	1241.076	1178.846
892.385	29.154	1240.001	1177.191
893.400	29.023	1239.313	1175.559
894.414	29.110	1237.850	1174.584
895.429	29.114	1236.607	1173.293
896.444	29.423	1235.396	1173.981
897.458	29.574	1234.378	1173.835
898.473	29.526	1233.573	1172.623
899.487	29.361	1232.123	1170.056
900.502	29.089	1230.744	1166.872
901.517	29.034	1229.330	1165.039
902.531	29.001	1228.766	1164.154
903.546	29.230	1228.742	1165.452
904.560	29.225	1228.219	1164.782
905.575	29.208	1227.108	1163.483
906.589	29.405	1225.116	1162.703
907.604	29.127	1224.534	1160.250
