DTS Sentinel unit serial number:	SN409020Multiplexer serial number:	ORYXHardware model number:	OX4-SRSoftware version number:	ORYX F/W v3.00 Oryx Data Collector v3.7.2.0data status	okinstallation	HaddamTimeLapsedifferential loss correction	single-endedforward channel	channel 3reverse channel	N/Adate	2011/06/22time	02:46:17forward acquisition time	30.00reverse acquisition time	0.00gamma	498.7831k internal	0.1750k external	0.1750temperature offset calibration	1.0074default loss term (dB/km)	0.3790temperature slope calibration	1.3530multiplexer offset coefficient	1.0000multiplexer slope coefficient	1.0000fibre end	0.00T internal ref (°C)	22.31T ext. ref 1 (°C)	17.53T ext. ref 2 (°C)	0.03length (m)	temperature (°C)	Stokes	anti-Stokes-747.200	39.010	0.206	0.245
-746.185	-151.559	0.289	-0.028
-745.171	800.000	0.060	0.267
-744.156	179.903	0.272	0.532
-743.142	50.028	-0.092	0.116
-742.127	409.115	0.113	0.319
-741.112	27.861	0.257	-0.288
-740.098	229.244	0.115	0.249
-739.083	229.902	0.097	0.212
-738.069	-98.812	0.188	0.063
-737.054	177.803	-0.134	0.261
-736.039	-14.106	-0.355	0.304
-735.025	-12.895	0.124	0.107
-734.010	-123.816	0.055	0.012
-732.996	-139.364	-0.206	0.029
-731.981	122.205	-0.077	0.128
-730.966	462.253	0.131	0.391
-729.952	32.118	-0.208	-0.239
-728.937	-56.242	-0.202	-0.119
-727.923	-143.397	-0.620	0.078
-726.908	-195.238	0.247	0.002
-725.894	-32.609	-0.446	-0.329
-724.879	-74.556	0.474	-0.226
-723.864	-103.781	0.097	-0.030
-722.850	-200.000	0.014	-0.304
-721.835	-195.424	0.243	-0.002
-720.821	508.459	0.148	0.457
-719.806	581.982	-0.116	0.379
-718.791	147.565	-0.199	0.356
-717.777	-35.189	0.537	-0.388
-716.762	-200.000	0.028	-0.347
-715.748	641.315	0.022	0.073
-714.733	81.253	-0.194	-0.279
-713.718	543.736	-0.158	-0.504
-712.704	-50.043	0.185	-0.116
-711.689	-200.000	0.016	-0.356
-710.675	-65.279	0.474	0.252
-709.660	-40.664	0.202	0.138
-708.645	-200.000	0.007	-0.087
-707.631	-117.762	0.177	0.042
-706.616	-175.064	0.111	-0.004
-705.602	413.399	-0.177	-0.501
-704.587	176.811	-0.062	-0.119
-703.572	13.101	0.254	0.261
-702.558	-198.979	-0.131	0.001
-701.543	-200.000	-0.051	-0.337
-700.529	33.797	-0.161	0.186
-699.514	-95.021	-0.013	-0.004
-698.499	182.127	-0.083	-0.163
-697.485	-200.000	-0.027	0.229
-696.470	552.508	-0.163	-0.523
-695.456	-134.384	0.298	-0.048
-694.441	242.074	-0.030	-0.068
-693.426	-64.396	-0.269	-0.145
-692.412	-124.823	-0.320	0.065
-691.397	-115.941	-0.343	0.084
-690.383	-87.752	-0.388	-0.154
-689.368	-193.778	0.314	0.003
-688.354	-134.384	0.270	-0.044
-687.339	4.347	0.358	0.348
-686.324	-85.004	-0.050	-0.020
-685.310	705.606	0.100	0.352
-684.295	41.706	0.169	-0.203
-683.281	157.651	-0.101	0.185
-682.266	-108.545	-0.327	-0.092
-681.251	-171.796	0.242	0.010
-680.237	-74.501	0.316	-0.150
-679.222	-84.952	-0.580	-0.240
-678.208	45.422	-0.064	-0.078
-677.193	477.065	0.113	-0.340
-676.178	97.670	0.135	-0.206
-675.164	-54.353	0.207	-0.124
-674.149	232.808	-0.107	-0.233
-673.135	-81.792	0.595	0.257
-672.120	184.336	-0.218	0.429
-671.105	133.961	0.182	-0.313
-670.091	199.370	-0.087	-0.176
-669.076	-71.781	-0.145	0.071
-668.062	-170.851	0.294	0.013
-667.047	784.547	-0.067	-0.246
-666.032	-115.332	0.133	-0.033
-665.018	-13.475	0.157	-0.135
-664.003	32.249	0.378	0.432
-662.989	-46.311	-0.066	-0.043
-661.974	197.061	0.044	-0.089
-660.959	509.938	-0.123	-0.381
-659.945	334.698	-0.153	-0.394
-658.930	629.939	0.137	0.462
-657.916	4.034	-0.105	-0.102
-656.901	-103.942	-0.179	-0.055
-655.886	-39.794	-0.147	0.101
-654.872	468.311	0.077	-0.231
-653.857	-65.800	0.426	-0.225
-652.843	-124.527	0.226	-0.046
-651.828	-200.000	-0.008	-0.072
-650.814	800.000	0.138	0.706
-649.799	-34.713	0.330	0.238
-648.784	-104.961	-0.215	0.065
-647.770	-200.000	-0.012	0.328
-646.755	409.438	0.082	-0.232
-645.741	533.132	0.047	-0.147
-644.726	169.062	0.205	-0.388
-643.711	-138.950	-0.277	0.039
-642.697	373.744	-0.121	0.328
-641.682	613.619	-0.157	-0.523
-640.668	-24.296	0.155	0.123
-639.653	-200.000	0.018	-0.389
-638.638	32.339	-0.312	0.357
-637.624	-200.000	0.001	0.135
-636.609	-34.511	0.163	0.118
-635.595	-119.703	0.197	-0.045
-634.580	8.766	0.136	-0.135
-633.565	800.000	-0.108	0.403
-632.551	-36.674	-0.441	-0.313
-631.536	-36.254	-0.268	0.191
-630.522	629.723	-0.063	0.212
-629.507	-113.686	-0.341	0.087
-628.492	768.047	-0.137	-0.494
-627.478	51.530	-0.278	0.349
-626.463	-76.406	-0.294	0.136
-625.449	-128.101	-0.210	0.039
-624.434	30.008	-0.064	-0.073
-623.419	-200.000	0.014	0.276
-622.405	-138.635	-0.283	-0.041
-621.390	-200.000	-0.021	0.145
-620.376	-200.000	-0.002	0.137
-619.361	-159.437	0.508	-0.037
-618.346	-121.694	0.133	0.029
-617.332	-124.423	0.478	-0.098
-616.317	20.559	-0.164	-0.175
-615.303	-22.417	0.210	-0.168
-614.288	-62.426	-0.302	0.166
-613.273	119.710	-0.217	0.357
-612.259	-200.000	0.007	0.172
-611.244	-106.429	0.459	-0.135
-610.230	328.846	0.144	-0.367
-609.215	46.990	-0.058	-0.072
-608.201	277.080	-0.102	-0.240
-607.186	-104.273	-0.283	0.086
-606.171	-200.000	0.048	0.552
-605.157	370.105	0.127	0.343
-604.142	-147.332	-0.243	0.027
-603.128	27.566	0.150	-0.167
-602.113	61.654	-0.218	-0.287
-601.098	-200.000	-0.023	0.309
-600.084	-82.360	-0.287	0.123
-599.069	147.151	-0.247	-0.440
-598.055	-45.922	0.270	0.175
-597.040	50.127	-0.632	0.789
-596.025	800.000	-0.109	0.568
-595.011	422.597	0.034	0.097
-593.996	-128.186	0.457	0.085
-592.982	-200.000	0.036	-0.222
-591.967	-200.000	-0.003	0.163
-590.952	-200.000	0.027	0.247
-589.938	130.546	-0.283	0.480
-588.923	66.363	0.189	0.254
-587.909	18.528	-0.227	0.240
-586.894	-18.793	-0.562	0.462
-585.879	245.403	0.158	0.353
-584.865	724.302	-0.078	-0.274
-583.850	-200.000	-0.034	-0.440
-582.836	83.573	0.088	0.127
-581.821	800.000	0.066	-0.356
-580.806	128.056	-0.267	-0.450
-579.792	409.102	-0.191	-0.535
-578.777	-146.496	0.337	0.038
-577.763	-175.359	-0.441	-0.016
-576.748	120.133	0.115	0.188
-575.733	-153.561	-0.173	0.016
-574.719	-27.823	-0.416	0.318
-573.704	198.933	0.138	-0.280
-572.690	-200.000	-0.011	0.250
-571.675	-200.000	0.013	-0.160
-570.661	6.339	0.305	-0.299
-569.646	-103.315	-0.328	0.101
-568.631	19.748	-0.235	0.249
-567.617	-132.801	-0.532	0.089
-566.602	6.926	0.112	-0.110
-565.588	1.176	0.110	-0.104
-564.573	-123.946	0.764	-0.157
-563.558	-1.673	-0.274	-0.255
-562.544	-65.845	-0.327	0.172
-561.529	-44.115	-0.197	-0.130
-560.515	-154.536	0.152	-0.013
-559.500	-41.268	0.345	0.234
-558.485	251.961	-0.085	0.191
-557.471	234.746	0.142	-0.311
-556.456	-113.983	-0.650	0.165
-555.442	-39.589	-0.577	0.397
-554.427	800.000	0.014	-0.081
-553.412	-117.501	-0.197	-0.047
-552.398	-66.439	-0.465	-0.243
-551.383	800.000	0.073	-0.360
-550.369	112.002	0.206	-0.328
-549.354	-193.570	0.683	0.008
-548.339	-105.760	0.521	-0.154
-547.325	115.816	0.173	0.280
-546.310	11.572	-0.254	-0.257
-545.296	-200.000	0.017	-0.329
-544.281	-55.248	0.177	0.105
-543.266	-200.000	-0.007	0.437
-542.252	-82.993	0.430	-0.182
-541.237	404.855	0.112	-0.312
-540.223	-110.494	-0.358	-0.097
-539.208	35.219	-0.224	-0.259
-538.193	-200.000	0.022	-0.300
-537.179	-98.703	-0.152	0.051
-536.164	-7.539	-0.153	-0.136
-535.150	-2.841	-0.101	-0.093
-534.135	-54.736	0.504	0.299
-533.121	374.042	-0.108	0.292
-532.106	-200.000	-0.015	-0.206
-531.091	-117.920	0.655	-0.154
-530.077	-61.588	0.422	0.232
-529.062	98.644	0.199	0.303
-528.048	-60.868	0.403	0.224
-527.033	-200.000	0.048	0.404
-526.018	-200.000	-0.002	0.052
-525.004	239.916	-0.179	0.394
-523.989	-142.370	-0.443	0.057
-522.975	-21.401	-0.103	0.083
-521.960	191.455	0.112	-0.223
-520.945	-38.327	0.110	-0.077
-519.931	4.592	-0.202	-0.195
-518.916	245.601	0.129	-0.287
-517.902	800.000	-0.090	-0.413
-516.887	-200.000	0.004	-0.182
-515.872	-51.034	0.458	0.282
-514.858	-36.572	0.048	0.034
-513.843	-154.488	0.253	0.022
-512.829	-114.659	-0.553	-0.138
-511.814	207.956	-0.150	0.310
-510.799	-137.861	0.106	0.015
-509.785	-82.046	-0.057	-0.024
-508.770	-200.000	0.012	-0.125
-507.756	-146.779	0.615	0.069
-506.741	-98.683	0.140	-0.047
-505.726	207.506	0.057	-0.117
-504.712	-56.599	-0.122	0.071
-503.697	-123.722	0.395	0.082
-502.683	470.436	0.024	0.070
-501.668	-145.110	-0.449	-0.053
-500.653	350.057	0.033	-0.086
-499.639	393.626	0.065	-0.178
-498.624	-98.760	0.419	0.140
-497.610	689.796	0.077	0.268
-496.595	-78.415	0.411	-0.184
-495.581	-133.558	-0.129	0.021
-494.566	211.692	0.187	-0.389
-493.551	-43.657	-0.269	-0.178
-492.537	22.826	-0.367	-0.396
-491.522	-200.000	0.067	-0.527
-490.508	-11.502	-0.158	-0.136
-489.493	-99.457	0.408	0.134
-488.478	68.349	0.201	-0.272
-487.464	-132.054	0.339	-0.058
-486.449	-106.992	-0.375	-0.108
-485.435	55.327	0.181	-0.230
-484.420	43.235	0.558	-0.671
-483.405	-200.000	-0.025	0.766
-482.391	-72.169	-0.084	0.041
-481.376	-80.150	0.241	0.106
-480.362	29.378	-0.294	-0.329
-479.347	-200.000	0.011	0.309
-478.332	-53.438	0.188	0.113
-477.318	-145.255	-0.313	0.037
-476.303	800.000	-0.046	-0.185
-475.289	-128.139	-0.426	0.079
-474.274	800.000	-0.031	-0.119
-473.259	-30.119	-0.328	-0.245
-472.245	76.704	0.172	0.241
-471.230	-155.710	0.116	0.010
-470.216	-123.529	-0.158	-0.033
-469.201	-115.333	0.424	-0.104
-468.186	-176.159	-0.339	0.012
-467.172	13.065	-0.252	0.256
-466.157	800.000	-0.191	0.808
-465.143	150.857	-0.100	-0.180
-464.128	-83.982	0.419	0.174
-463.113	276.937	0.124	0.290
-462.099	-32.620	-0.542	0.396
-461.084	-142.504	-0.261	-0.033
-460.070	-130.475	0.549	0.097
-459.055	-65.201	-0.197	-0.104
-458.040	-45.637	-0.447	0.290
-457.026	159.082	-0.141	0.258
-456.011	178.683	0.217	-0.418
-454.997	-1.470	0.062	-0.057
-453.982	681.551	-0.117	0.402
-452.968	526.461	-0.052	0.162
-451.953	-34.229	0.136	0.098
-450.938	220.854	0.142	-0.300
-449.924	-200.000	0.085	-0.984
-448.909	446.666	-0.095	0.275
-447.895	24.818	-0.337	0.366
-446.880	-51.113	-0.449	0.276
-445.865	800.000	0.046	-0.242
-444.851	-200.000	-0.021	0.218
-443.836	95.244	0.138	-0.206
-442.822	-84.622	0.071	-0.029
-441.807	124.974	-0.128	-0.212
-440.792	-29.286	-0.464	-0.348
-439.778	23.963	0.361	-0.390
-438.763	22.372	-0.177	-0.190
-437.749	800.000	0.127	0.618
-436.734	53.729	0.016	0.020
-435.719	-103.983	0.307	0.093
-434.705	-200.000	0.009	-0.100
-433.690	-14.237	-0.171	-0.145
-432.676	-91.305	0.188	0.070
-431.661	76.515	0.059	-0.082
-430.646	800.000	-0.068	0.322
-429.632	-22.110	0.269	-0.214
-428.617	-97.009	-0.400	0.137
-427.603	13.557	-0.150	0.153
-426.588	1.742	0.014	0.013
-425.573	-125.439	-0.668	-0.132
-424.559	-72.540	-0.022	0.010
-423.544	-155.883	-0.406	-0.033
-422.530	-90.677	-0.377	-0.142
-421.515	607.946	-0.086	0.285
-420.500	-0.987	-0.183	0.169
-419.486	-50.271	-0.482	0.298
-418.471	69.511	-0.109	-0.148
-417.457	800.000	-0.058	0.258
-416.442	-200.000	-0.062	-0.506
-415.428	122.407	-0.252	0.413
-414.413	-200.000	0.000	0.558
-413.398	47.445	-0.127	0.155
-412.384	101.150	0.254	0.388
-411.369	-58.346	0.369	-0.210
-410.355	-98.943	0.210	0.070
-409.340	288.527	0.031	-0.075
-408.325	-29.775	-0.223	-0.167
-407.311	800.000	0.087	0.405
-406.296	215.333	0.272	0.567
-405.282	-0.199	-0.238	-0.221
-404.267	-10.364	0.263	-0.228
-403.252	-49.015	-0.114	-0.072
-402.238	-73.241	-0.099	0.048
-401.223	405.108	-0.079	-0.218
-400.209	-151.913	0.050	0.005
-399.194	26.582	0.231	-0.254
-398.179	-14.108	0.252	-0.213
-397.165	20.727	0.159	0.168
-396.150	68.194	0.165	0.222
-395.136	-200.000	-0.023	0.215
-394.121	31.991	0.234	-0.264
-393.106	-47.519	-0.317	-0.201
-392.092	-125.919	0.292	-0.057
-391.077	800.000	0.054	0.309
-390.063	174.708	0.328	0.623
-389.048	67.932	0.293	-0.393
-388.033	375.812	0.148	-0.396
-387.019	329.160	0.199	-0.503
-386.004	-56.157	-0.114	0.066
-384.990	-33.931	-0.109	-0.078
-383.975	-122.577	-0.221	0.047
-382.960	-66.876	0.758	0.391
-381.946	-200.000	-0.013	0.410
-380.931	-32.232	0.207	-0.151
-379.917	-141.427	-0.205	-0.027
-378.902	-94.826	-0.585	-0.207
-377.888	-55.300	0.247	-0.145
-376.873	256.574	-0.289	0.652
-375.858	27.950	0.227	-0.251
-374.844	297.345	-0.106	-0.257
-373.829	115.103	-0.086	-0.138
-372.815	720.358	-0.109	-0.381
-371.800	491.483	0.102	-0.306
-370.785	42.154	-0.366	-0.436
-369.771	-70.909	-0.645	-0.317
-368.756	-40.994	0.175	0.118
-367.742	-119.920	0.830	-0.185
-366.727	-163.007	0.599	-0.037
-365.712	181.593	-0.049	-0.095
-364.698	-200.000	-0.010	0.100
-363.683	-162.340	0.484	0.031
-362.669	800.000	0.019	0.081
-361.654	-6.718	-0.335	-0.298
-360.639	283.134	-0.069	-0.163
-359.625	10.591	-0.197	0.197
-358.610	132.541	-0.362	0.613
-357.596	-193.281	0.329	-0.004
-356.581	-111.525	0.656	-0.173
-355.566	647.179	0.017	-0.056
-354.552	800.000	-0.097	-0.356
-353.537	-156.097	0.233	0.019
-352.523	-26.397	0.627	-0.480
-351.508	-7.597	0.309	-0.273
-350.493	76.174	-0.280	-0.389
-349.479	385.914	0.072	0.194
-348.464	-93.837	-0.373	0.134
-347.450	-69.873	-0.215	0.107
-346.435	-146.424	0.372	-0.042
-345.420	739.250	-0.127	-0.450
-344.406	281.001	0.106	0.249
-343.391	-200.000	-0.022	-0.188
-342.377	-200.000	-0.004	0.303
-341.362	-24.243	-0.391	0.305
-340.348	405.593	-0.033	-0.093
-339.333	10.168	0.103	-0.102
-338.318	338.626	0.074	0.188
-337.304	-9.161	0.171	-0.149
-336.289	5.773	0.409	0.396
-335.275	304.808	-0.161	0.392
-334.260	42.769	-0.330	-0.393
-333.245	-155.056	0.097	0.008
-332.231	74.964	-0.064	0.088
-331.216	-148.612	0.008	-0.001
-330.202	-200.000	-0.017	-0.149
-329.187	-200.000	-0.037	-0.379
-328.172	-51.505	-0.177	0.108
-327.158	-8.510	0.518	0.454
-326.143	264.552	0.142	-0.324
-325.129	-13.996	-0.123	-0.104
-324.114	148.427	-0.257	0.454
-323.099	-200.000	0.221	-0.000
-322.085	188.913	0.214	-0.420
-321.070	-200.000	-0.014	0.487
-320.056	-41.482	0.254	0.170
-319.041	-200.000	-0.071	-0.451
-318.026	-182.000	0.223	0.005
-317.012	-200.000	-0.041	0.322
-315.997	-138.829	0.390	0.055
-314.983	57.173	0.080	-0.102
-313.968	-200.000	-0.055	-0.410
-312.953	-120.626	-0.969	-0.213
-311.939	800.000	0.048	0.200
-310.924	-93.631	0.312	0.112
-309.910	132.878	0.204	-0.345
-308.895	-7.911	-0.272	-0.240
-307.880	-200.000	-0.068	0.678
-306.866	-35.189	-0.181	-0.128
-305.851	800.000	0.079	-0.452
-304.837	61.532	-0.221	0.288
-303.822	800.000	-0.138	0.598
-302.807	97.420	0.275	0.413
-301.793	-19.268	0.193	0.156
-300.778	197.508	-0.135	0.270
-299.764	94.640	0.244	0.363
-298.749	-200.000	0.012	-0.440
-297.735	-145.326	-0.542	0.063
-296.720	-200.000	-0.031	0.298
-295.705	-62.742	0.294	-0.158
-294.691	749.445	0.169	0.600
-293.676	-15.681	0.263	-0.218
-292.662	-89.374	0.265	0.101
-291.647	-120.219	0.169	0.037
-290.632	-7.758	0.303	0.267
-289.618	0.726	0.459	0.428
-288.603	247.529	0.146	-0.323
-287.589	-124.705	0.321	0.064
-286.574	-93.572	0.285	-0.102
-285.559	-167.609	0.261	0.013
-284.545	-34.730	-0.323	-0.230
-283.530	-200.000	0.006	0.201
-282.516	398.426	0.097	0.265
-281.501	51.390	0.418	-0.518
-280.486	-32.698	-0.126	-0.091
-279.472	-200.000	-0.003	0.063
-278.457	506.424	-0.112	-0.341
-277.443	-1.912	-0.115	0.106
-276.428	-200.000	-0.027	-0.325
-275.413	119.520	-0.148	-0.240
-274.399	-119.229	-0.397	0.090
-273.384	-17.614	0.148	0.121
-272.370	-57.934	0.337	0.191
-271.355	-167.320	-0.442	0.023
-270.340	757.934	0.174	-0.619
-269.326	-200.000	0.028	-0.163
-268.311	-49.680	-0.182	-0.113
-267.297	-92.277	-0.111	-0.041
-266.282	194.882	0.136	-0.270
-265.267	11.624	0.270	0.270
-264.253	-2.302	0.231	-0.211
-263.238	-95.654	0.322	0.112
-262.224	-103.042	-0.062	-0.019
-261.209	-177.728	0.122	0.004
-260.195	531.856	-0.049	-0.152
-259.180	-25.017	0.144	0.111
-258.165	269.960	0.152	0.349
-257.151	800.000	0.022	0.119
-256.136	17.776	0.244	0.253
-255.122	114.543	0.108	0.172
-254.107	-38.482	-0.523	0.359
-253.092	630.418	0.063	0.209
-252.078	464.730	0.099	-0.291
-251.063	735.144	0.065	0.230
-250.049	-159.378	-0.407	-0.029
-249.034	-200.000	0.026	-0.400
-248.019	-17.103	-0.299	-0.245
-247.005	470.908	0.105	-0.309
-245.990	-200.000	-0.005	-0.253
-244.976	800.000	-0.018	-0.069
-243.961	-81.310	0.159	-0.068
-242.946	-166.454	-0.181	-0.010
-241.932	176.099	-0.362	0.686
-240.917	33.385	0.293	0.332
-239.903	800.000	0.059	-0.309
-238.888	-200.000	-0.016	0.284
-237.873	76.409	-0.120	0.166
-236.859	-200.000	-0.000	0.163
-235.844	70.233	-0.116	0.156
-234.830	317.121	-0.033	0.082
-233.815	-92.926	0.262	0.095
-232.800	-200.000	0.011	-0.239
-231.786	-159.963	-0.336	-0.024
-230.771	-200.000	-0.024	0.175
-229.757	-200.000	0.368	-0.002
-228.742	800.000	0.025	0.115
-227.727	-31.090	-0.041	-0.030
-226.713	-5.071	0.124	-0.111
-225.698	-71.502	-0.278	0.135
-224.684	-79.849	-0.405	0.177
-223.669	-115.387	-0.205	-0.050
-222.655	64.310	0.248	-0.325
-221.640	-110.200	-0.396	-0.107
-220.625	-47.203	-0.693	0.438
-219.611	295.429	0.171	0.410
-218.596	-103.055	-0.161	-0.049
-217.582	-132.127	0.163	0.027
-216.567	239.426	0.141	0.307
-215.552	-119.887	0.512	-0.114
-214.538	18.136	0.265	0.275
-213.523	95.450	-0.106	-0.158
-212.509	287.459	0.116	0.274
-211.494	19.927	0.116	0.122
-210.479	120.757	-0.264	-0.429
-209.465	179.597	-0.095	-0.181
-208.450	-91.510	0.288	0.106
-207.436	161.276	0.088	0.160
-206.421	800.000	0.039	0.182
-205.406	-25.919	0.033	0.025
-204.392	-200.000	0.023	-0.296
-203.377	15.087	0.028	-0.029
-202.363	134.853	0.200	-0.338
-201.348	-26.725	0.190	-0.145
-200.333	-200.000	-0.030	0.222
-199.319	-19.518	0.143	-0.115
-198.304	-162.740	0.078	0.005
-197.290	21.352	0.117	0.124
-196.275	-193.178	-0.193	-0.002
-195.260	-200.000	0.029	0.461
-194.246	-182.730	-0.365	-0.008
-193.231	153.044	-0.163	-0.290
-192.217	16.036	0.143	0.147
-191.202	-200.000	0.049	-0.284
-190.187	-139.257	-0.343	0.048
-189.173	800.000	0.033	0.125
-188.158	-131.709	0.098	0.017
-187.144	476.752	0.105	0.310
-186.129	800.000	-0.106	0.395
-185.114	178.950	0.019	-0.037
-184.100	112.980	0.132	0.208
-183.085	-54.249	-0.414	-0.244
-182.071	72.635	0.061	0.083
-181.056	-56.256	0.115	-0.066
-180.042	800.000	0.117	-0.565
-179.027	-52.777	-0.281	-0.168
-178.012	345.382	0.143	-0.368
-176.998	-101.105	-0.131	-0.041
-175.983	-200.000	0.055	0.327
-174.969	67.211	0.405	-0.537
-173.954	239.316	0.042	-0.091
-172.939	-51.113	-0.105	0.064
-171.925	-177.068	-0.133	0.004
-170.910	-54.106	-0.371	-0.218
-169.896	800.000	0.019	0.101
-168.881	-41.548	0.434	-0.289
-167.866	-93.356	0.145	0.052
-166.852	-80.564	-0.227	0.098
-165.837	-133.064	-0.377	0.062
-164.823	-20.154	0.253	-0.202
-163.808	127.566	-0.100	-0.166
-162.793	152.117	-0.076	-0.135
-161.779	57.422	-0.367	-0.466
-160.764	-200.000	-0.059	-0.419
-159.750	20.004	0.204	-0.214
-158.735	202.997	-0.330	-0.665
-157.720	51.323	0.131	-0.162
-156.706	10.966	-0.243	0.241
-155.691	-56.572	0.093	0.053
-154.677	340.813	-0.045	-0.116
-153.662	-66.907	-0.068	-0.035
-152.647	141.424	0.089	-0.154
-151.633	-85.768	-0.164	0.066
-150.618	-59.822	0.475	-0.263
-149.604	-17.556	-0.240	0.195
-148.589	-163.466	0.457	0.028
-147.574	762.576	-0.079	0.281
-146.560	-70.552	-0.038	-0.019
-145.545	-121.333	0.163	0.035
-144.531	-140.596	0.362	0.048
-143.516	800.000	0.066	-0.356
-142.502	800.000	0.063	0.248
-141.487	536.660	-0.050	-0.155
-140.472	-39.564	0.246	0.167
-139.458	-123.198	-0.639	0.132
-138.443	-200.000	-0.002	-0.149
-137.429	-67.629	0.198	-0.100
-136.414	253.187	-0.089	-0.198
-135.399	61.525	-0.217	-0.281
-134.385	251.167	-0.187	0.415
-133.370	-34.587	-0.427	0.303
-132.356	-61.875	0.278	0.150
-131.341	800.000	-0.058	0.236
-130.326	540.709	-0.070	-0.217
-129.312	-200.000	0.028	-0.172
-128.297	51.521	0.234	0.288
-127.283	346.747	0.099	-0.255
-126.268	19.625	-0.291	-0.304
-125.253	-200.000	-0.026	0.219
-124.239	-58.451	0.422	0.237
-123.224	24.040	0.366	-0.391
-122.210	93.379	0.217	-0.319
-121.195	-22.210	0.223	0.175
-120.180	-108.941	0.195	0.053
-119.166	-192.331	0.301	0.004
-118.151	-200.000	-0.076	0.620
-117.137	295.643	-0.143	0.342
-116.122	3.971	-0.332	0.314
-115.107	800.000	-0.082	0.420
-114.093	46.318	-0.114	0.137
-113.078	199.770	-0.016	0.032
-112.064	176.235	0.212	0.400
-111.049	-140.850	-0.531	0.070
-110.034	350.488	0.115	0.297
-109.020	-53.243	0.496	0.294
-108.005	-79.173	-0.467	-0.205
-106.991	-132.494	0.232	0.038
-105.976	-150.074	-0.335	0.033
-104.962	-18.441	-0.134	-0.108
-103.947	-200.000	-0.014	-0.096
-102.932	182.678	-0.212	0.406
-101.918	185.042	-0.318	0.614
-100.903	-21.562	0.484	0.382
-99.889	-70.511	0.122	0.059
-98.874	-200.000	-0.070	-0.431
-97.859	-111.633	0.427	0.111
-96.845	-45.341	0.406	-0.261
-95.830	111.843	0.171	-0.267
-94.816	-121.771	0.495	-0.105
-93.801	45.402	-0.124	-0.148
-92.786	329.867	-0.063	-0.158
-91.772	-132.181	-0.511	-0.085
-90.757	140.922	0.184	0.317
-89.743	19.649	-0.344	0.359
-88.728	-200.000	-0.065	0.417
-87.713	480.514	0.038	0.113
-86.699	215.155	-0.159	0.327
-85.684	-139.113	-0.445	-0.062
-84.670	217.079	-0.184	-0.380
-83.655	154.139	-0.069	0.123
-82.640	-104.895	-0.212	0.063
-81.626	-200.000	-0.041	-0.321
-80.611	543.226	-0.077	-0.240
-79.597	-116.850	0.217	-0.051
-78.582	-188.702	0.400	0.006
-77.567	368.419	-0.111	-0.291
-76.553	404.068	-0.128	0.352
-75.538	118.435	-0.291	0.467
-74.524	-200.000	-0.016	0.201
-73.509	734.325	-0.196	-0.682
-72.494	41.606	-0.350	-0.410
-71.480	-79.425	-0.069	0.030
-70.465	-200.000	0.038	-0.220
-69.451	-122.515	-0.192	-0.040
-68.436	-97.202	-0.287	-0.096
-67.422	-31.221	-0.304	-0.221
-66.407	92.217	0.151	0.220
-65.392	194.165	0.009	0.017
-64.378	54.768	0.343	0.428
-63.363	-100.282	-0.386	0.123
-62.349	-200.000	0.047	0.385
-61.334	35.244	-2.265	-2.570
-60.319	69.508	1.463	1.950
-59.305	217.049	-3.626	-7.494
-58.290	55.732	3.987	5.002
-57.276	375.198	3.859	10.221
-56.261	-200.000	24.447	321.670
-55.246	351.340	1309.656	3368.098
-54.232	52.630	2850.184	3523.969
-53.217	51.166	2660.932	3267.201
-52.203	31.239	2390.696	2654.130
-51.188	27.380	2057.979	2237.095
-50.173	24.212	1943.623	2075.664
-49.159	23.094	1932.662	2050.855
-48.144	22.751	1927.560	2041.373
-47.130	22.598	1924.447	2036.220
-46.115	22.538	1923.733	2034.683
-45.100	22.643	1922.396	2034.412
-44.086	22.601	1920.248	2031.566
-43.071	22.608	1918.185	2029.383
-42.057	22.611	1916.340	2027.385
-41.042	22.401	1916.625	2025.182
-40.027	22.537	1914.901	2024.858
-39.013	22.570	1912.835	2022.971
-37.998	22.480	1912.109	2021.083
-36.984	22.439	1910.529	2018.864
-35.969	22.387	1909.638	2017.236
-34.954	22.532	1907.145	2016.188
-33.940	22.450	1906.308	2014.281
-32.925	22.416	1905.510	2012.976
-31.911	22.345	1904.442	2010.953
-30.896	22.478	1902.348	2010.181
-29.881	22.386	1901.753	2008.422
-28.867	22.358	1900.260	2006.439
-27.852	22.329	1898.017	2003.665
-26.838	22.318	1896.808	2002.182
-25.823	22.472	1895.004	2001.955
-24.809	22.381	1895.475	2001.334
-23.794	22.331	1893.175	1998.252
-22.779	22.281	1891.929	1996.288
-21.765	22.225	1891.073	1994.670
-20.750	22.389	1889.589	1994.896
-19.736	22.394	1887.949	1993.138
-18.721	22.199	1887.386	1990.249
-17.706	22.105	1886.964	1988.655
-16.692	22.244	1885.355	1988.461
-15.677	22.288	1884.061	1987.519
-14.663	22.200	1883.094	1985.423
-13.648	22.195	1881.105	1983.185
-12.633	22.243	1880.047	1982.538
-11.619	22.244	1878.710	1981.056
-10.604	22.239	1877.229	1979.362
-9.590	22.170	1876.454	1977.686
-8.575	22.167	1874.835	1975.868
-7.560	22.220	1873.462	1974.943
-6.546	22.096	1873.225	1973.207
-5.531	22.254	1871.781	1973.395
-4.517	22.073	1871.166	1970.627
-3.502	22.158	1870.158	1970.445
-2.487	22.250	1868.238	1969.376
-1.473	22.365	1864.143	1966.280
-0.458	22.138	1846.884	1945.470
0.556	18.693	1993.253	2046.168
1.571	17.283	2196.137	2235.537
2.586	18.135	2234.818	2286.101
3.600	17.950	2238.693	2287.294
4.615	18.079	2236.232	2286.242
5.629	17.969	2236.090	2284.341
6.644	17.969	2232.966	2280.888
7.659	18.073	2231.360	2280.356
8.673	18.088	2230.259	2279.164
9.688	17.750	2239.786	2284.075
10.702	16.804	2318.566	2350.944
11.717	15.136	2382.132	2391.190
12.731	7.075	2364.353	2257.839
13.746	0.976	2347.380	2154.335
14.761	0.090	2345.029	2139.265
15.775	0.104	2342.801	2137.180
16.790	0.056	2340.942	2134.546
17.804	0.070	2338.773	2132.508
18.819	0.023	2338.192	2131.053
19.834	0.037	2336.811	2129.743
20.848	0.041	2334.400	2127.335
21.863	-0.014	2333.207	2125.212
22.877	-0.025	2331.201	2122.984
23.892	0.063	2329.144	2122.098
24.907	0.000	2327.015	2119.020
25.921	-0.010	2324.833	2116.637
26.936	-0.012	2323.854	2115.462
27.950	0.016	2320.419	2112.478
28.965	0.076	2318.032	2110.891
29.980	0.099	2316.190	2109.283
30.994	0.075	2315.220	2107.822
32.009	3.748	2325.662	2168.958
33.023	12.652	2351.434	2319.308
34.038	16.488	2357.085	2378.952
35.053	16.612	2354.495	2377.807
36.067	16.542	2352.402	2374.426
37.082	16.602	2350.119	2372.675
38.096	16.745	2348.782	2373.060
39.111	16.775	2346.309	2370.707
40.126	16.900	2344.660	2370.512
41.140	16.910	2342.628	2368.307
42.155	16.898	2341.833	2367.051
43.169	16.873	2338.945	2363.497
44.184	16.685	2336.339	2357.957
45.199	16.844	2333.546	2357.070
46.213	16.849	2332.506	2355.815
47.228	17.010	2331.089	2356.341
48.242	16.955	2329.458	2353.643
49.257	17.130	2327.840	2354.177
50.271	17.136	2326.327	2352.448
51.286	16.946	2323.165	2346.327
52.301	16.846	2321.573	2343.047
53.315	17.451	2324.129	2353.760
54.330	19.782	2330.554	2392.432
55.344	21.408	2330.106	2414.272
56.359	21.602	2326.819	2413.268
57.374	21.571	2327.263	2413.010
58.388	21.799	2324.487	2412.993
59.403	21.623	2320.338	2405.977
60.417	21.352	2316.889	2398.371
61.432	21.439	2315.106	2397.433
62.447	21.636	2315.692	2400.473
63.461	21.736	2313.243	2399.015
64.476	21.936	2310.542	2398.676
65.490	21.620	2307.911	2391.326
66.505	20.893	2305.021	2378.071
67.520	19.006	2298.781	2345.509
68.534	17.231	2290.441	2312.468
69.549	16.861	2286.845	2303.503
70.563	16.757	2284.945	2299.894
71.578	16.763	2282.662	2297.407
72.593	16.818	2281.240	2296.452
73.607	16.969	2279.159	2296.127
74.622	17.019	2277.021	2294.386
75.636	16.864	2273.890	2288.847
76.651	16.755	2272.336	2285.532
77.666	16.787	2269.334	2282.680
78.680	16.643	2267.695	2278.797
79.695	16.649	2266.026	2276.929
80.709	16.614	2264.174	2274.329
81.724	16.645	2262.034	2272.324
82.739	16.689	2259.515	2270.121
83.753	16.474	2258.211	2265.633
84.768	16.484	2255.622	2262.899
85.782	16.524	2254.653	2262.197
86.797	16.517	2253.317	2260.491
87.812	16.610	2250.518	2258.659
88.826	16.531	2249.989	2256.806
89.841	16.594	2247.472	2254.851
90.855	16.609	2244.466	2251.769
91.870	16.704	2243.818	2252.114
92.884	16.756	2241.253	2249.970
93.899	16.740	2241.125	2249.356
94.914	17.253	2243.638	2258.456
95.928	19.371	2249.116	2292.031
96.943	20.080	2246.861	2298.912
97.957	17.988	2237.219	2260.969
98.972	16.699	2231.920	2238.235
99.987	16.590	2228.478	2233.061
101.001	16.496	2227.063	2230.134
102.016	16.664	2224.467	2229.489
103.030	16.507	2222.843	2225.519
104.045	16.638	2220.088	2224.228
105.060	16.583	2217.892	2221.040
106.074	16.548	2216.211	2218.627
107.089	16.551	2214.860	2217.048
108.103	16.757	2212.354	2216.983
109.118	16.680	2212.485	2215.837
110.133	16.851	2210.333	2215.667
111.147	16.654	2207.783	2210.250
112.162	16.706	2206.624	2209.509
113.176	16.784	2204.754	2208.401
114.191	16.854	2202.821	2207.106
115.206	16.866	2201.276	2205.462
116.220	16.759	2199.304	2201.813
117.235	16.730	2197.577	2199.450
118.249	16.839	2195.203	2198.230
119.264	16.784	2194.130	2196.176
120.279	16.648	2192.732	2192.749
121.293	16.770	2190.102	2191.431
122.308	16.707	2189.358	2189.607
123.322	16.773	2187.405	2188.255
124.337	17.238	2188.783	2195.410
125.352	19.425	2195.295	2230.122
126.366	20.003	2193.433	2235.463
127.381	17.659	2184.190	2195.470
128.395	16.829	2179.055	2179.314
129.410	16.717	2176.608	2175.163
130.424	16.639	2175.557	2172.841
131.439	16.720	2173.930	2172.007
132.454	16.736	2173.057	2171.074
133.468	16.787	2171.509	2169.930
134.483	16.897	2168.900	2168.476
135.497	16.966	2167.644	2167.850
136.512	16.916	2164.430	2163.738
137.527	16.815	2162.997	2160.749
138.541	16.721	2161.600	2157.894
139.556	16.624	2160.680	2155.477
140.570	16.645	2158.888	2153.697
141.585	16.633	2156.519	2150.917
142.600	16.497	2156.153	2148.560
143.614	16.651	2153.990	2148.111
144.629	16.505	2152.330	2144.342
145.643	16.315	2151.521	2140.860
146.658	16.509	2148.523	2140.078
147.673	16.256	2147.381	2135.472
148.687	16.590	2145.769	2137.863
149.702	16.598	2145.641	2137.579
150.716	16.685	2143.269	2136.055
151.731	16.631	2142.302	2134.158
152.746	16.562	2141.780	2132.499
153.760	17.230	2143.813	2142.741
154.775	19.456	2150.123	2177.060
155.789	20.144	2147.889	2183.251
156.804	18.077	2137.953	2146.815
157.819	16.869	2131.141	2124.517
158.833	16.473	2129.632	2117.768
159.848	16.656	2127.097	2117.292
160.862	16.718	2125.070	2115.800
161.877	16.633	2124.385	2113.803
162.892	16.705	2123.836	2113.908
163.906	16.784	2122.858	2113.661
164.921	16.767	2120.628	2110.975
165.935	16.836	2117.494	2108.467
166.950	16.813	2116.414	2106.861
167.964	16.878	2114.530	2105.542
168.979	16.643	2113.878	2101.711
169.994	16.528	2111.293	2097.450
171.008	16.627	2109.339	2096.490
172.023	16.637	2108.069	2095.096
173.037	16.653	2107.813	2094.797
174.052	16.771	2105.416	2093.632
175.067	16.656	2103.798	2090.346
176.081	16.714	2100.823	2087.851
177.096	16.675	2100.469	2086.773
178.110	16.581	2100.068	2084.953
179.125	16.577	2099.272	2083.870
180.140	16.792	2096.711	2083.738
181.154	16.758	2095.550	2081.911
182.169	16.860	2094.498	2081.877
183.183	17.493	2096.492	2091.433
184.198	19.901	2102.378	2126.834
185.213	20.375	2100.698	2130.725
186.227	17.943	2091.314	2091.055
187.242	17.016	2087.128	2075.221
188.256	16.723	2086.200	2070.454
189.271	16.633	2083.733	2066.649
190.286	16.760	2081.311	2065.561
191.300	16.679	2080.125	2063.145
192.315	16.769	2077.513	2061.408
193.329	16.792	2077.659	2061.593
194.344	16.900	2076.616	2061.629
195.359	16.972	2075.019	2060.673
196.373	16.911	2071.906	2056.592
197.388	16.727	2069.869	2052.083
198.402	16.695	2067.496	2049.090
199.417	16.622	2066.364	2046.843
200.432	16.668	2064.800	2045.598
201.446	16.693	2063.614	2044.489
202.461	16.585	2062.643	2041.971
203.475	16.536	2059.862	2038.379
204.490	16.712	2057.176	2037.605
205.504	16.682	2055.576	2035.409
206.519	16.811	2053.346	2034.522
207.534	16.581	2052.866	2031.022
208.548	16.608	2051.191	2029.456
209.563	16.626	2049.870	2028.114
210.577	16.762	2048.902	2028.556
211.592	16.708	2048.228	2026.992
212.607	17.918	2052.600	2045.657
213.621	20.740	2058.694	2085.522
214.636	20.165	2052.613	2072.204
215.650	17.553	2043.749	2031.728
216.665	16.903	2040.702	2020.675
217.680	16.883	2038.853	2018.368
218.694	16.592	2037.538	2013.334
219.709	16.586	2035.840	2011.351
220.723	16.712	2033.778	2010.571
221.738	16.818	2032.471	2010.306
222.753	16.926	2030.696	2009.598
223.767	16.750	2030.001	2006.576
224.782	16.785	2028.180	2004.954
225.796	16.857	2026.059	2003.463
226.811	16.834	2025.119	2002.027
227.826	16.753	2023.595	1999.319
228.840	16.762	2021.642	1997.260
229.855	16.737	2020.508	1995.595
230.869	16.785	2018.366	1993.813
231.884	16.620	2017.669	1990.931
232.899	16.702	2015.022	1989.051
233.913	16.759	2014.024	1988.500
234.928	16.771	2013.048	1987.441
235.942	16.604	2011.548	1983.750
236.957	16.676	2009.816	1982.657
237.972	16.756	2008.592	1982.156
238.986	16.642	2007.743	1979.738
240.001	16.616	2005.835	1977.312
241.015	16.698	2004.826	1977.044
242.030	17.431	2006.732	1987.300
243.045	19.661	2011.360	2017.841
244.059	19.821	2008.827	2016.940
245.074	17.704	2000.324	1983.435
246.088	16.884	1996.179	1969.515
247.103	16.960	1994.796	1968.801
248.117	16.967	1994.292	1968.145
249.132	16.857	1991.146	1963.531
250.147	16.763	1989.316	1960.397
251.161	16.787	1987.816	1958.958
252.176	16.945	1987.372	1960.128
253.190	17.093	1985.608	1959.865
254.205	17.075	1983.558	1957.395
255.220	17.033	1982.645	1955.778
256.234	16.889	1982.251	1953.489
257.249	16.765	1981.220	1950.806
258.263	16.864	1978.757	1949.287
259.278	16.833	1977.821	1947.777
260.293	16.759	1975.254	1944.154
261.307	16.621	1973.056	1940.174
262.322	16.631	1972.424	1939.428
263.336	16.573	1970.153	1936.300
264.351	16.557	1968.244	1934.006
265.366	16.534	1966.770	1932.068
266.380	16.662	1966.356	1932.898
267.395	16.527	1964.909	1929.690
268.409	16.689	1963.016	1929.458
269.424	16.714	1961.865	1928.387
270.439	16.785	1960.449	1927.574
271.453	17.485	1962.932	1937.802
272.468	19.918	1968.276	1970.719
273.482	19.938	1964.542	1966.972
274.497	17.666	1955.868	1932.195
275.512	16.634	1951.865	1916.266
276.526	16.661	1949.302	1913.831
277.541	16.570	1948.113	1911.402
278.555	16.632	1946.495	1910.280
279.570	16.491	1944.277	1906.282
280.585	16.536	1943.138	1905.441
281.599	16.714	1941.835	1905.952
282.614	16.774	1941.371	1905.946
283.628	16.931	1940.778	1906.918
284.643	17.053	1940.037	1907.331
285.657	17.107	1939.382	1907.073
286.672	17.108	1936.860	1904.378
287.687	17.136	1934.855	1902.488
288.701	17.051	1933.461	1899.938
289.716	16.978	1931.961	1897.411
290.730	16.965	1931.003	1896.103
291.745	17.121	1929.198	1895.848
292.760	17.094	1928.563	1894.701
293.774	16.975	1927.350	1891.947
294.789	16.804	1926.522	1888.988
295.803	16.767	1923.979	1885.857
296.818	16.703	1921.846	1882.826
297.833	16.853	1921.694	1884.129
298.847	16.722	1920.192	1880.969
299.862	16.849	1918.381	1880.387
300.876	17.542	1919.371	1888.862
301.891	19.959	1925.143	1921.309
302.906	20.320	1922.120	1922.077
303.920	17.851	1914.603	1886.918
304.935	17.031	1910.732	1873.785
305.949	16.929	1908.354	1870.099
306.964	16.821	1907.239	1867.588
307.979	17.030	1905.542	1868.017
308.993	17.211	1904.217	1868.496
310.008	17.183	1903.742	1867.493
311.022	17.362	1901.670	1867.211
312.037	17.060	1900.259	1862.276
313.052	17.098	1898.855	1861.090
314.066	17.069	1897.237	1858.961
315.081	16.980	1897.209	1857.739
316.095	17.119	1895.254	1857.131
317.110	16.889	1893.745	1852.899
318.125	16.971	1890.624	1850.528
319.139	16.885	1889.862	1848.617
320.154	16.919	1888.679	1847.609
321.168	17.016	1886.553	1846.362
322.183	16.861	1885.681	1843.602
323.197	16.680	1884.408	1840.156
324.212	16.536	1881.920	1835.932
325.227	16.364	1880.946	1832.882
326.241	16.462	1878.856	1831.704
327.256	16.509	1877.782	1830.942
328.270	16.589	1876.557	1830.397
329.285	16.596	1876.472	1830.179
330.300	17.393	1880.858	1842.914
331.314	20.156	1885.234	1877.093
332.329	20.066	1880.429	1871.108
333.343	17.466	1872.219	1834.582
334.358	16.606	1868.194	1821.120
335.373	16.555	1866.292	1818.497
336.387	16.393	1864.029	1814.319
337.402	16.395	1862.804	1812.936
338.416	16.367	1861.921	1811.556
339.431	16.518	1860.800	1811.878
340.446	16.574	1859.761	1811.254
341.460	16.690	1858.291	1810.855
342.475	16.962	1857.509	1812.789
343.489	16.981	1856.657	1811.949
344.504	17.099	1854.748	1811.131
345.519	17.110	1853.343	1809.666
346.533	17.124	1851.932	1808.224
347.548	17.250	1851.226	1808.656
348.562	16.941	1850.801	1804.724
349.577	17.154	1848.678	1804.717
350.592	17.309	1847.388	1804.897
351.606	17.204	1846.820	1802.997
352.621	17.282	1844.591	1801.438
353.635	17.040	1842.823	1796.919
354.650	16.977	1840.778	1794.045
355.665	16.961	1838.866	1791.800
356.679	16.986	1837.496	1790.511
357.694	16.961	1836.032	1788.609
358.708	16.968	1835.014	1787.470
359.723	17.916	1838.555	1800.765
360.738	20.461	1842.188	1831.101
361.752	19.725	1837.066	1818.014
362.767	17.526	1830.916	1788.525
363.781	16.858	1828.198	1778.604
364.796	16.717	1827.220	1775.963
365.810	16.697	1825.537	1773.899
366.825	16.777	1824.572	1773.591
367.840	16.978	1823.838	1774.782
368.854	16.993	1822.710	1773.631
369.869	16.779	1821.329	1769.821
370.883	16.650	1819.634	1766.606
371.898	16.695	1817.787	1765.082
372.913	16.712	1816.102	1763.412
373.927	16.857	1815.365	1763.996
374.942	16.831	1814.897	1763.059
375.956	16.907	1813.435	1762.221
376.971	16.870	1811.267	1759.519
377.986	16.764	1809.274	1756.266
379.000	16.804	1807.362	1754.624
380.015	16.818	1806.625	1753.837
381.029	16.739	1804.494	1750.738
382.044	16.673	1802.512	1747.919
383.059	16.711	1800.409	1746.063
384.073	16.445	1800.650	1743.332
385.088	16.563	1799.444	1743.180
386.102	16.557	1797.796	1741.309
387.117	16.592	1795.754	1739.491
388.132	16.467	1795.787	1738.019
389.146	17.484	1799.302	1751.740
390.161	20.235	1802.714	1783.318
391.175	20.008	1796.445	1774.565
392.190	17.381	1788.402	1739.446
393.205	16.567	1786.678	1729.197
394.219	16.738	1784.578	1728.715
395.234	16.667	1782.886	1726.139
396.248	16.721	1781.071	1724.730
397.263	16.598	1779.659	1721.898
398.278	16.638	1777.874	1720.368
399.292	16.631	1776.677	1718.936
400.307	16.759	1776.043	1719.418
401.321	16.822	1775.080	1718.931
402.336	16.869	1773.670	1717.830
403.350	16.789	1772.623	1715.804
404.365	16.916	1771.693	1715.988
405.380	17.174	1770.446	1717.190
406.394	17.162	1770.222	1716.648
407.409	17.131	1768.191	1714.159
408.423	17.294	1767.151	1714.603
409.438	17.138	1765.621	1711.329
410.453	17.072	1764.689	1709.554
411.467	17.166	1763.292	1708.949
412.482	17.171	1761.320	1706.881
413.496	16.862	1759.627	1701.915
414.511	16.925	1757.910	1700.687
415.526	16.930	1755.635	1698.331
416.540	16.774	1754.230	1695.202
417.555	16.793	1753.882	1694.853
418.569	17.043	1753.844	1697.125
419.584	17.091	1753.684	1697.254
420.599	17.070	1752.992	1696.172
421.613	17.007	1751.719	1694.104
422.628	16.746	1750.958	1690.542
423.642	16.885	1748.458	1689.323
424.657	16.825	1747.168	1687.269
425.672	16.957	1745.885	1687.148
426.686	16.876	1744.436	1684.739
427.701	16.783	1743.063	1682.286
428.715	16.804	1741.794	1681.072
429.730	16.940	1740.443	1680.913
430.745	16.896	1739.432	1679.305
431.759	16.986	1739.120	1679.699
432.774	17.238	1739.225	1682.105
433.788	17.460	1738.668	1683.572
434.803	17.742	1737.930	1685.455
435.818	17.563	1737.838	1683.384
436.832	17.684	1735.648	1682.261
437.847	16.724	1729.036	1666.165
438.861	9.230	1709.365	1573.495
439.876	1.713	1695.235	1486.722
440.890	0.391	1691.768	1470.546
441.905	0.196	1691.102	1467.876
442.920	0.185	1689.486	1466.191
443.934	0.178	1688.324	1464.945
444.949	0.169	1686.885	1463.425
445.963	0.042	1686.454	1461.638
446.978	0.068	1685.989	1461.318
447.993	0.089	1684.266	1459.850
449.007	0.127	1682.196	1458.258
450.022	0.184	1679.842	1456.598
451.036	0.107	1679.135	1455.054
452.051	1.119	1683.022	1468.106
453.066	8.364	1698.930	1552.803
454.080	15.778	1710.270	1635.686
455.095	17.254	1713.219	1652.746
456.109	17.575	1712.558	1655.046
457.124	17.606	1711.902	1654.520
458.139	17.773	1711.178	1655.247
459.153	17.879	1708.998	1653.977
460.168	17.767	1707.785	1651.508
461.182	17.791	1706.289	1650.100
462.197	17.643	1704.445	1646.684
463.212	17.648	1702.463	1644.615
464.226	17.674	1701.993	1644.217
465.241	17.706	1700.881	1643.255
466.255	17.736	1700.009	1642.507
467.270	17.841	1698.505	1641.875
468.285	17.676	1696.886	1638.521
469.299	17.660	1695.519	1636.846
470.314	17.733	1694.018	1635.910
471.328	17.669	1692.630	1633.752
472.343	17.785	1691.698	1633.775
473.358	17.874	1690.056	1632.851
474.372	17.840	1688.861	1631.177
475.387	17.690	1687.732	1628.450
476.401	17.691	1686.152	1626.740
477.416	17.700	1685.791	1626.283
478.430	17.846	1683.929	1625.688
479.445	17.644	1683.420	1623.072
480.460	17.462	1682.669	1620.410
481.474	17.658	1680.605	1620.106
482.489	17.641	1680.038	1619.199
483.503	17.763	1678.178	1618.373
484.518	17.817	1676.691	1617.264
485.533	17.879	1675.294	1616.311
486.547	17.829	1674.146	1614.541
487.562	18.024	1672.901	1614.997
488.576	18.055	1671.581	1613.823
489.591	17.891	1670.615	1611.144
490.606	17.858	1668.838	1608.923
491.620	17.811	1667.230	1606.735
492.635	17.975	1665.721	1606.637
493.649	18.000	1665.095	1606.082
494.664	17.805	1663.483	1602.486
495.679	17.715	1661.722	1599.751
496.693	17.627	1660.310	1597.372
497.708	17.828	1658.760	1597.585
498.722	18.014	1658.425	1598.817
499.737	17.945	1657.427	1597.013
500.752	17.896	1655.753	1594.756
501.766	17.764	1654.380	1592.002
502.781	17.757	1652.565	1589.997
503.795	17.741	1651.100	1588.252
504.810	17.850	1650.153	1588.171
505.825	17.974	1649.823	1588.818
506.839	17.909	1648.200	1586.460
507.854	18.002	1646.967	1585.949
508.868	17.934	1646.042	1584.239
509.883	18.008	1644.889	1583.626
510.898	18.135	1643.293	1583.082
511.912	17.907	1641.563	1579.109
512.927	17.748	1640.613	1576.526
513.941	17.838	1638.679	1575.314
514.956	17.764	1636.847	1572.676
515.971	17.773	1635.817	1571.580
516.985	17.840	1635.211	1571.433
518.000	17.831	1634.830	1570.793
519.014	17.969	1633.573	1570.679
520.029	18.070	1631.724	1569.646
521.043	18.074	1630.951	1568.747
522.058	17.928	1630.118	1566.409
523.073	18.024	1628.547	1565.596
524.087	18.215	1627.763	1566.412
525.102	18.108	1626.474	1564.003
526.116	17.977	1624.431	1560.653
527.131	17.939	1623.522	1559.243
528.146	18.180	1622.660	1560.435
529.160	18.081	1622.255	1558.955
530.175	18.244	1620.404	1558.481
531.189	18.156	1620.626	1557.697
532.204	18.153	1619.107	1556.028
533.219	17.940	1617.856	1552.689
534.233	17.889	1616.154	1550.409
535.248	18.086	1615.845	1551.721
536.262	18.216	1614.867	1551.786
537.277	18.285	1612.548	1549.996
538.292	18.089	1611.437	1546.961
539.306	17.937	1609.837	1543.862
540.321	18.110	1608.372	1543.836
541.335	18.103	1606.765	1542.044
542.350	18.165	1605.418	1541.130
543.365	18.100	1604.197	1539.185
544.379	18.232	1603.100	1539.148
545.394	18.218	1601.538	1537.330
546.408	18.101	1600.602	1535.199
547.423	18.043	1598.892	1532.851
548.438	17.845	1598.073	1530.098
549.452	18.162	1596.122	1530.896
550.467	18.173	1595.773	1530.477
551.481	18.115	1594.804	1528.846
552.496	18.183	1593.959	1528.462
553.511	18.219	1593.661	1528.313
554.525	18.221	1591.946	1526.507
555.540	18.208	1591.379	1525.666
556.554	18.129	1590.408	1523.845
557.569	18.220	1588.198	1522.353
558.583	18.136	1586.389	1519.691
559.598	18.237	1585.624	1519.678
560.613	18.154	1584.895	1518.057
561.627	18.259	1583.283	1517.268
562.642	18.259	1582.845	1516.664
563.656	18.336	1581.339	1515.725
564.671	18.394	1579.661	1514.453
565.686	18.168	1578.439	1511.095
566.700	18.194	1577.316	1510.065
567.715	17.974	1575.890	1506.573
568.729	18.065	1573.853	1505.244
569.744	17.989	1572.167	1502.779
570.759	18.017	1571.180	1501.903
571.773	18.081	1570.883	1502.007
572.788	18.142	1569.603	1501.139
573.802	18.226	1567.822	1499.997
574.817	18.308	1566.500	1499.276
575.832	18.270	1566.151	1498.435
576.846	18.338	1564.791	1497.543
577.861	18.285	1563.273	1495.447
578.875	18.369	1563.196	1495.931
579.890	18.441	1561.480	1494.749
580.905	18.385	1560.504	1493.144
581.919	18.388	1560.590	1493.070
582.934	18.440	1559.779	1492.569
583.948	18.394	1558.593	1490.853
584.963	18.343	1556.695	1488.418
585.978	18.273	1555.389	1486.377
586.992	18.332	1554.481	1485.844
588.007	18.444	1552.873	1485.108
589.021	18.330	1551.791	1482.902
590.036	17.960	1551.105	1478.848
591.051	18.167	1550.008	1479.432
592.065	18.338	1548.628	1479.417
593.080	18.387	1546.923	1478.038
594.094	18.451	1544.830	1476.416
595.109	18.281	1542.493	1472.534
596.123	18.036	1541.854	1469.635
597.138	18.193	1541.060	1470.053
598.153	18.484	1539.431	1470.835
599.167	18.392	1537.946	1468.447
600.182	18.464	1537.523	1468.491
601.196	18.450	1536.512	1467.222
602.211	18.476	1535.447	1466.254
603.226	18.517	1534.355	1465.389
604.240	18.466	1533.294	1463.763
605.255	18.637	1532.118	1463.931
606.269	18.530	1530.917	1461.691
607.284	18.596	1529.822	1461.041
608.299	18.354	1528.407	1457.439
609.313	18.417	1527.154	1456.614
610.328	18.466	1526.133	1455.881
611.342	18.661	1524.438	1455.751
612.357	18.831	1523.287	1455.930
613.372	18.660	1522.542	1453.584
614.386	18.524	1521.539	1451.297
615.401	18.571	1521.614	1451.598
616.415	18.572	1520.733	1450.585
617.430	18.478	1520.519	1449.411
618.445	18.565	1519.289	1448.803
619.459	18.427	1517.516	1445.773
620.474	18.280	1515.383	1442.319
621.488	18.156	1514.436	1440.196
622.503	18.062	1513.046	1437.910
623.518	18.191	1512.589	1438.393
624.532	18.472	1510.810	1438.897
625.547	18.607	1509.897	1438.996
626.561	18.751	1509.881	1440.024
627.576	18.762	1508.422	1438.548
628.591	18.445	1507.044	1434.396
629.605	18.337	1505.699	1432.034
630.620	18.251	1503.716	1429.261
631.634	18.219	1502.951	1428.090
632.649	18.139	1501.463	1425.840
633.663	18.298	1500.854	1426.421
634.678	18.460	1499.711	1426.517
635.693	18.591	1498.990	1426.757
636.707	18.572	1498.086	1425.565
637.722	18.752	1497.087	1425.946
638.736	18.742	1495.648	1424.320
639.751	18.809	1494.140	1423.277
640.766	18.792	1492.901	1421.782
641.780	18.800	1491.523	1420.363
642.795	18.715	1490.603	1418.616
643.809	18.824	1490.064	1418.835
644.824	18.695	1489.237	1416.809
645.839	18.626	1488.430	1415.299
646.853	18.811	1487.447	1415.731
647.868	18.726	1485.168	1412.683
648.882	18.635	1484.707	1411.327
649.897	18.706	1483.056	1410.178
650.912	18.649	1481.173	1407.742
651.926	18.688	1479.877	1406.669
652.941	18.623	1479.098	1405.225
653.955	18.501	1477.233	1402.278
654.970	18.417	1475.310	1399.600
655.985	18.317	1474.311	1397.661
656.999	18.445	1472.821	1397.128
658.014	18.601	1471.677	1397.156
659.028	18.474	1471.904	1396.162
660.043	18.698	1470.754	1396.742
661.058	18.697	1469.673	1395.535
662.072	18.757	1469.220	1395.428
663.087	18.711	1467.465	1393.223
664.101	18.736	1465.993	1391.855
665.116	18.621	1465.928	1390.691
666.131	18.718	1464.984	1390.423
667.145	18.678	1463.204	1388.244
668.160	18.785	1462.199	1387.993
669.174	19.016	1460.632	1388.214
670.189	18.825	1460.153	1386.042
671.204	18.722	1458.921	1383.867
672.218	18.724	1458.274	1383.107
673.233	18.849	1456.861	1382.615
674.247	18.979	1455.716	1382.410
675.262	19.075	1455.538	1382.856
676.276	19.102	1453.722	1381.179
677.291	18.915	1452.650	1378.487
678.306	18.761	1451.337	1375.839
679.320	18.874	1449.828	1375.147
680.335	18.910	1449.990	1375.433
681.349	19.066	1448.873	1375.459
682.364	18.949	1447.537	1373.082
683.379	18.953	1446.773	1372.228
684.393	18.840	1445.771	1370.209
685.408	18.871	1444.964	1369.530
686.422	18.894	1444.134	1368.765
687.437	18.870	1443.065	1367.395
688.452	19.042	1441.841	1367.440
689.466	18.880	1439.880	1364.129
690.481	18.815	1438.421	1362.066
691.495	18.666	1437.999	1360.312
692.510	18.408	1436.710	1356.876
693.525	18.309	1435.037	1354.350
694.539	18.320	1434.443	1353.716
695.554	18.726	1434.411	1356.749
696.568	18.827	1433.245	1356.284
697.583	18.924	1432.393	1356.083
698.598	18.915	1431.897	1355.381
699.612	19.028	1430.248	1354.553
700.627	19.102	1429.109	1353.892
701.641	19.007	1427.807	1351.748
702.656	18.832	1426.667	1349.130
703.671	19.030	1426.689	1350.552
704.685	18.999	1426.155	1349.635
705.700	18.973	1424.099	1347.326
706.714	18.969	1422.779	1345.886
707.729	18.956	1421.032	1343.967
708.744	18.862	1419.790	1341.894
709.758	18.888	1418.414	1340.637
710.773	18.680	1417.793	1338.264
711.787	18.692	1415.914	1336.421
712.802	18.782	1414.902	1336.013
713.816	18.900	1414.394	1336.288
714.831	18.855	1414.111	1335.516
715.846	18.924	1412.539	1334.409
716.860	18.956	1411.494	1333.513
717.875	19.120	1410.620	1333.805
718.889	19.055	1409.408	1331.987
719.904	18.984	1408.307	1330.240
720.919	19.117	1407.225	1330.089
721.933	19.105	1406.735	1329.373
722.948	19.192	1405.171	1328.409
723.962	19.335	1404.094	1328.340
724.977	19.240	1402.925	1326.341
725.992	19.161	1402.376	1325.057
727.006	19.015	1400.954	1322.422
728.021	19.155	1400.035	1322.478
729.035	19.186	1398.413	1321.023
730.050	19.163	1397.795	1320.109
731.065	19.015	1396.840	1317.910
732.079	19.182	1395.302	1317.582
733.094	18.962	1394.482	1314.964
734.108	19.174	1392.566	1314.627
735.123	19.179	1391.133	1313.149
736.138	19.204	1390.420	1312.511
737.152	19.162	1389.934	1311.576
738.167	19.182	1388.952	1310.646
739.181	19.219	1387.941	1309.818
740.196	19.288	1386.733	1309.047
741.211	19.260	1386.468	1308.426
742.225	18.968	1385.513	1305.144
743.240	18.993	1384.132	1303.872
744.254	19.265	1382.600	1304.346
745.269	19.104	1381.780	1302.189
746.284	19.092	1380.764	1300.988
747.298	18.950	1379.753	1298.800
748.313	18.844	1378.034	1296.225
749.327	18.591	1376.745	1292.936
750.342	18.600	1375.547	1291.730
751.356	18.331	1374.323	1288.387
752.371	18.387	1374.081	1288.430
753.386	18.847	1373.649	1291.350
754.400	19.084	1372.701	1292.091
755.415	19.251	1371.760	1292.313
756.429	19.354	1370.426	1291.674
757.444	19.055	1369.413	1288.316
758.459	19.201	1368.668	1288.555
759.473	19.251	1367.952	1288.102
760.488	19.355	1366.460	1287.326
761.502	19.433	1365.288	1286.648
762.517	19.390	1363.617	1284.600
763.532	19.205	1362.464	1281.980
764.546	19.014	1361.383	1279.383
765.561	18.925	1360.615	1277.842
766.575	18.659	1359.495	1274.650
767.590	18.711	1358.417	1273.870
768.605	18.876	1357.236	1273.846
769.619	18.997	1356.309	1273.719
770.634	19.150	1355.320	1273.781
771.648	19.244	1354.780	1273.817
772.663	19.267	1354.434	1273.510
773.678	19.229	1353.923	1272.590
774.692	19.116	1353.066	1270.795
775.707	19.189	1352.509	1270.665
776.721	19.352	1350.707	1270.029
777.736	19.487	1349.218	1269.475
778.751	19.337	1348.668	1267.698
779.765	19.250	1347.776	1266.064
780.780	19.311	1347.531	1266.127
781.794	19.211	1346.593	1264.358
782.809	19.107	1345.241	1262.172
783.824	19.032	1344.221	1260.508
784.838	18.871	1341.913	1257.013
785.853	18.437	1340.427	1252.283
786.867	18.765	1339.594	1253.763
787.882	18.849	1339.655	1254.285
788.897	18.896	1339.262	1254.114
789.911	19.118	1338.188	1254.579
790.926	19.244	1336.843	1254.090
791.940	19.262	1335.496	1252.812
792.955	19.311	1334.304	1251.898
793.969	19.211	1333.841	1250.587
794.984	19.105	1332.662	1248.561
795.999	19.217	1331.942	1248.553
797.013	19.383	1329.603	1247.413
798.028	19.441	1328.246	1246.417
799.042	19.477	1327.593	1245.917
800.057	19.506	1327.657	1246.038
801.072	19.476	1325.653	1243.790
802.086	19.562	1324.420	1243.107
803.101	19.470	1323.932	1241.832
804.115	19.495	1323.379	1241.345
805.130	19.504	1322.118	1240.076
806.145	19.424	1320.639	1237.970
807.159	19.368	1319.586	1236.429
808.174	19.276	1317.841	1233.983
809.188	19.339	1316.043	1232.602
810.203	19.237	1315.045	1230.793
811.218	19.015	1312.739	1226.895
812.232	18.976	1311.272	1225.097
813.247	18.960	1310.637	1224.243
814.261	18.960	1311.434	1224.838
815.276	19.085	1310.364	1224.587
816.291	19.335	1309.036	1224.984
817.305	19.410	1308.090	1224.486
818.320	19.381	1306.842	1222.969
819.334	19.469	1306.266	1222.910
820.349	19.485	1304.664	1221.380
821.364	19.410	1303.472	1219.583
822.378	19.361	1302.003	1217.710
823.393	19.505	1299.968	1216.682
824.407	19.452	1298.925	1215.186
825.422	19.369	1298.490	1214.046
826.437	19.322	1297.596	1212.734
827.451	19.393	1295.679	1211.299
828.466	18.848	1294.110	1205.844
829.480	18.708	1292.214	1202.948
830.495	18.937	1290.755	1203.056
831.509	19.050	1290.800	1203.748
832.524	19.197	1290.061	1203.945
833.539	19.271	1288.996	1203.331
834.553	19.343	1287.628	1202.413
835.568	19.430	1286.549	1201.870
836.582	19.629	1285.136	1201.798
837.597	19.537	1284.199	1200.138
838.612	19.432	1282.600	1197.767
839.626	19.472	1281.302	1196.687
840.641	19.150	1281.090	1194.104
841.655	19.083	1279.855	1192.339
842.670	19.083	1278.312	1190.765
843.685	18.806	1277.359	1187.804
844.699	19.052	1276.440	1188.521
845.714	19.240	1275.364	1188.677
846.728	19.419	1274.780	1189.229
847.743	19.445	1273.839	1188.394
848.758	19.494	1272.456	1187.297
849.772	19.549	1271.416	1186.567
850.787	19.544	1270.101	1185.164
851.801	19.622	1268.338	1183.916
852.816	19.396	1267.407	1181.346
853.831	19.313	1266.156	1179.466
854.845	19.462	1264.097	1178.433
855.860	19.312	1261.867	1175.184
856.874	19.325	1260.894	1174.228
857.889	19.142	1259.666	1171.692
858.904	18.896	1258.310	1168.607
859.918	18.779	1256.168	1165.683
860.933	18.825	1254.989	1164.763
861.947	18.940	1254.827	1165.252
862.962	19.061	1254.193	1165.352
863.977	19.112	1253.030	1164.473
864.991	19.210	1252.442	1164.457
866.006	19.235	1252.470	1164.511
867.020	19.363	1251.314	1164.167
868.035	19.335	1250.319	1162.915
869.049	19.416	1249.287	1162.358
870.064	19.518	1248.510	1162.193
871.079	19.535	1247.977	1161.671
872.093	19.505	1247.159	1160.566
873.108	19.673	1245.512	1160.027
874.122	19.463	1244.417	1157.454
875.137	19.149	1243.705	1154.540
876.152	19.219	1242.499	1153.750
877.166	19.394	1241.478	1153.845
878.181	19.230	1240.824	1151.993
879.195	19.435	1239.845	1152.324
880.210	19.455	1238.979	1151.512
881.225	19.617	1237.481	1151.072
882.239	19.697	1236.333	1150.401
883.254	19.634	1236.365	1149.870
884.268	19.669	1234.906	1148.607
885.283	19.604	1233.294	1146.537
886.298	19.492	1232.079	1144.524
887.312	19.587	1231.168	1144.177
888.327	19.477	1230.229	1142.433
889.341	19.478	1229.260	1141.401
890.356	19.472	1228.729	1140.735
891.371	19.463	1228.146	1139.994
892.385	19.409	1227.198	1138.625
893.400	19.436	1226.114	1137.657
894.414	19.408	1224.594	1135.925
895.429	19.307	1222.540	1133.216
896.444	18.964	1220.147	1128.599
897.458	18.448	1220.018	1124.942
898.473	18.693	1219.759	1126.185
899.487	19.091	1219.461	1128.400
900.502	19.397	1218.437	1129.332
901.517	19.342	1217.282	1127.765
902.531	19.504	1216.283	1127.766
903.546	19.466	1215.660	1126.807
904.560	19.572	1215.202	1126.942
905.575	19.689	1214.035	1126.494
906.589	19.797	1212.958	1126.066
907.604	19.714	1212.080	1124.573
