DTS Sentinel unit serial number:	SN409020Multiplexer serial number:	ORYXHardware model number:	OX4-SRSoftware version number:	ORYX F/W v3.00 Oryx Data Collector v3.7.2.0data status	okinstallation	HaddamTimeLapsedifferential loss correction	single-endedforward channel	channel 3reverse channel	N/Adate	2011/06/22time	02:11:17forward acquisition time	30.00reverse acquisition time	0.00gamma	498.7831k internal	0.1751k external	0.1751temperature offset calibration	1.0074default loss term (dB/km)	0.3790temperature slope calibration	1.3530multiplexer offset coefficient	1.0000multiplexer slope coefficient	1.0000fibre end	0.00T internal ref (°C)	22.44T ext. ref 1 (°C)	17.61T ext. ref 2 (°C)	0.02length (m)	temperature (°C)	Stokes	anti-Stokes-747.200	440.896	0.144	-0.421
-746.185	-140.899	0.047	0.006
-745.171	28.174	-0.451	-0.505
-744.156	-77.644	0.671	0.307
-743.142	27.096	-0.357	0.398
-742.127	62.343	-0.237	0.314
-741.112	-65.870	-0.221	0.117
-740.098	280.642	-0.260	0.619
-739.083	800.000	-0.033	0.194
-738.069	800.000	0.073	0.335
-737.054	-85.178	-0.511	-0.211
-736.039	-200.000	0.067	0.526
-735.025	-1.375	-0.342	0.320
-734.010	-31.263	-0.327	0.244
-732.996	74.683	-0.267	-0.373
-731.981	-86.426	0.267	-0.108
-730.966	335.503	0.148	0.384
-729.952	-84.766	-0.254	0.105
-728.937	-4.976	-0.538	-0.491
-727.923	34.669	0.185	-0.214
-726.908	-101.454	0.119	0.038
-725.894	-104.742	-0.214	-0.065
-724.879	-102.883	-0.263	-0.082
-723.864	-65.971	0.781	0.412
-722.850	-86.104	-0.593	0.242
-721.835	196.249	0.213	0.432
-720.821	176.180	0.098	-0.190
-719.806	161.717	-0.125	-0.233
-718.791	-146.363	-0.472	-0.054
-717.777	408.177	-0.082	0.232
-716.762	-89.641	0.319	-0.123
-715.748	66.784	0.115	-0.156
-714.733	436.048	-0.113	-0.327
-713.718	-102.824	0.299	-0.094
-712.704	636.651	0.146	-0.496
-711.689	-91.949	-0.496	0.185
-710.675	-121.672	-0.348	-0.076
-709.660	-14.594	0.174	-0.149
-708.645	-28.232	-0.443	0.339
-707.631	5.467	-0.144	0.141
-706.616	-118.975	-0.490	-0.113
-705.602	27.255	-0.217	0.242
-704.587	800.000	-0.063	0.234
-703.572	-39.569	-0.382	-0.264
-702.558	-169.514	-0.416	0.020
-701.543	-24.821	-0.337	0.265
-700.529	21.722	0.090	-0.097
-699.514	-10.010	0.067	0.059
-698.499	-200.000	-0.011	0.205
-697.485	-200.000	-0.025	-0.179
-696.470	-90.117	-0.316	0.121
-695.456	-72.098	0.482	-0.236
-694.441	49.197	-0.232	-0.290
-693.426	-163.074	-0.207	0.013
-692.412	143.564	0.007	0.013
-691.397	-73.451	-0.281	-0.135
-690.383	46.770	0.312	-0.384
-689.368	332.881	-0.087	-0.224
-688.354	-176.262	0.258	0.009
-687.339	-100.597	0.261	0.085
-686.324	-21.659	-0.154	-0.124
-685.310	-144.741	0.390	-0.047
-684.295	-191.659	-0.542	0.007
-683.281	-24.462	-0.265	0.209
-682.266	-5.833	-0.581	-0.527
-681.251	26.210	0.099	0.110
-680.237	800.000	0.006	0.034
-679.222	-43.854	-0.158	-0.105
-678.208	-93.191	-0.167	0.061
-677.193	417.590	0.122	-0.347
-676.178	6.271	0.137	-0.135
-675.164	-70.389	-0.233	-0.117
-674.149	53.491	-0.437	-0.556
-673.135	-200.000	0.016	-0.405
-672.120	-200.000	-0.079	0.613
-671.105	-200.000	0.019	0.160
-670.091	-70.411	-0.336	-0.168
-669.076	-94.208	-0.120	-0.043
-668.062	60.592	0.180	-0.236
-667.047	-55.665	-0.152	-0.090
-666.032	-6.652	0.534	-0.481
-665.018	30.542	0.290	-0.328
-664.003	-29.926	-0.162	-0.122
-662.989	43.400	-0.194	-0.235
-661.974	-38.813	-0.194	-0.135
-660.959	-141.070	-0.036	0.005
-659.945	185.685	0.100	0.197
-658.930	198.260	-0.118	0.240
-657.916	465.950	0.067	-0.200
-656.901	800.000	0.051	0.217
-655.886	637.465	0.110	-0.373
-654.872	-200.000	0.053	-0.487
-653.857	-157.545	-0.420	0.033
-652.843	93.604	0.188	0.282
-651.828	543.209	0.144	0.458
-650.814	17.671	0.441	0.464
-649.799	-90.712	0.074	0.028
-648.784	-135.427	-0.346	0.054
-647.770	-102.024	0.163	-0.052
-646.755	-102.553	-0.213	0.067
-645.741	-98.426	-0.288	-0.097
-644.726	59.876	0.238	-0.311
-643.711	-125.575	-0.323	0.064
-642.697	-82.323	-0.058	0.025
-641.682	-40.937	-0.149	0.102
-640.668	326.842	0.039	0.100
-639.653	-8.491	0.429	0.381
-638.638	-11.555	0.172	0.150
-637.624	309.892	-0.090	-0.224
-636.609	138.845	0.316	-0.550
-635.595	800.000	-0.090	-0.399
-634.580	193.318	0.157	-0.315
-633.565	34.083	0.189	-0.218
-632.551	527.125	-0.080	0.251
-631.536	33.329	-0.091	0.104
-630.522	-95.878	-0.503	0.176
-629.507	-129.976	-0.178	0.032
-628.492	-200.000	0.051	0.372
-627.478	325.986	-0.103	0.261
-626.463	323.265	0.114	0.288
-625.449	62.092	-0.134	-0.177
-624.434	94.579	-0.255	-0.383
-623.419	-194.703	-0.580	-0.006
-622.405	223.724	-0.071	-0.152
-621.390	-83.956	0.097	0.040
-620.376	-110.416	-0.057	-0.015
-619.361	292.327	-0.134	0.323
-618.346	8.517	0.131	0.130
-617.332	-54.435	-0.474	-0.283
-616.317	-77.544	0.108	-0.049
-615.303	-24.501	-0.279	-0.219
-614.288	4.584	0.167	-0.162
-613.273	-139.081	0.187	0.026
-612.259	-132.494	-0.374	-0.063
-611.244	-125.319	-0.367	0.073
-610.230	111.456	0.076	-0.121
-609.215	705.692	-0.043	-0.152
-608.201	8.672	0.251	-0.250
-607.186	-200.000	0.001	0.087
-606.171	-66.669	0.567	0.296
-605.157	-200.000	-0.030	-0.343
-604.142	-72.554	-0.159	-0.077
-603.128	5.170	-0.440	0.428
-602.113	-118.176	-0.138	0.032
-601.098	-76.869	0.271	-0.124
-600.084	183.961	0.029	-0.057
-599.069	141.825	-0.084	0.147
-598.055	-81.625	0.404	-0.174
-597.040	-104.885	-0.446	0.134
-596.025	-52.061	0.316	0.193
-595.011	-138.956	0.422	-0.060
-593.996	193.145	0.248	0.497
-592.982	800.000	0.087	0.453
-591.967	315.768	0.047	0.118
-590.952	-50.141	-0.212	-0.132
-589.938	-127.609	-0.094	0.018
-588.923	523.572	-0.089	0.277
-587.909	800.000	-0.053	-0.211
-586.894	-120.137	0.393	0.088
-585.879	189.927	-0.142	-0.283
-584.865	372.324	-0.160	0.431
-583.850	177.423	0.076	-0.146
-582.836	119.109	-0.028	-0.046
-581.821	-16.417	-0.242	0.202
-580.806	149.880	0.117	0.210
-579.792	-34.307	-0.103	0.074
-578.777	5.185	-0.101	0.098
-577.763	0.492	-0.108	0.102
-576.748	62.269	0.299	-0.394
-575.733	800.000	-0.075	0.395
-574.719	800.000	0.029	-0.130
-573.704	-87.003	-0.399	-0.160
-572.690	127.998	-0.026	-0.043
-571.675	256.637	0.147	-0.333
-570.661	-200.000	0.010	0.377
-569.646	-200.000	0.004	0.645
-568.631	-49.217	-0.160	-0.101
-567.617	-49.731	-0.107	0.067
-566.602	800.000	0.130	0.516
-565.588	-94.056	-0.320	-0.115
-564.573	198.109	0.232	-0.469
-563.558	110.683	-0.088	0.140
-562.544	-47.883	0.501	0.319
-561.529	800.000	0.077	-0.335
-560.515	315.305	-0.227	-0.566
-559.500	4.312	-0.193	-0.186
-558.485	-20.495	-0.436	-0.353
-557.471	-85.447	-0.476	-0.194
-556.456	-118.714	-0.390	0.090
-555.442	800.000	-0.055	0.251
-554.427	-78.743	0.099	0.044
-553.412	182.023	-0.185	0.360
-552.398	-91.794	-0.293	0.109
-551.383	-28.240	0.438	-0.333
-550.369	800.000	0.073	-0.416
-549.354	-15.683	0.249	-0.209
-548.339	147.956	0.218	-0.388
-547.325	800.000	0.100	-0.483
-546.310	-200.000	0.040	-0.391
-545.296	4.165	-0.238	0.229
-544.281	118.532	-0.033	0.054
-543.266	-200.000	-0.008	-0.208
-542.252	-90.406	-0.394	-0.150
-541.237	-200.000	-0.042	-0.519
-540.223	-200.000	0.119	0.760
-539.208	0.027	0.152	-0.142
-538.193	-104.461	0.621	0.188
-537.179	-30.221	0.197	-0.148
-536.164	-47.577	-0.138	0.088
-535.150	241.396	-0.196	0.433
-534.135	-62.978	0.204	0.111
-533.121	-99.209	-0.175	-0.058
-532.106	-200.000	-0.016	0.329
-531.091	-200.000	-0.007	0.169
-530.077	-200.000	-0.010	-0.671
-529.062	-200.000	0.074	0.459
-528.048	-18.906	-0.209	0.171
-527.033	-88.626	0.291	-0.114
-526.018	81.000	0.077	0.109
-525.004	-144.296	0.139	0.017
-523.989	-200.000	0.042	0.310
-522.975	104.308	0.343	-0.532
-521.960	-90.403	-0.236	-0.090
-520.945	133.378	0.115	0.196
-519.931	238.771	0.212	0.466
-518.916	-157.729	0.402	-0.031
-517.902	-200.000	-0.028	-0.465
-516.887	-110.938	0.072	0.019
-515.872	20.017	-0.193	0.204
-514.858	242.452	-0.080	-0.177
-513.843	800.000	0.066	0.330
-512.829	165.644	0.128	0.239
-511.814	-41.904	-0.379	0.255
-510.799	-70.779	-0.544	0.269
-509.785	-114.117	-0.325	-0.082
-508.770	193.267	0.154	0.307
-507.756	198.155	-0.103	-0.208
-506.741	50.974	0.216	0.269
-505.726	-155.438	0.359	0.030
-504.712	593.176	-0.179	0.585
-503.697	22.911	-0.157	-0.170
-502.683	-21.372	-0.378	0.303
-501.668	-139.551	0.117	0.016
-500.653	-200.000	-0.046	-0.414
-499.639	-200.000	0.110	-0.736
-498.624	800.000	0.075	-0.362
-497.610	800.000	-0.016	-0.081
-496.595	-200.000	-0.008	-0.180
-495.581	800.000	-0.110	-0.418
-494.566	-2.902	-0.134	0.123
-493.551	252.037	-0.231	0.519
-492.537	413.766	0.045	-0.125
-491.522	800.000	-0.029	0.120
-490.508	800.000	-0.075	-0.312
-489.493	46.556	0.309	-0.378
-488.478	276.759	-0.127	-0.298
-487.464	800.000	0.015	0.076
-486.449	330.712	-0.148	0.376
-485.435	-39.066	-0.294	-0.203
-484.420	-99.358	-0.180	-0.059
-483.405	125.687	-0.201	0.335
-482.391	-28.569	0.181	0.137
-481.376	164.210	-0.123	0.229
-480.362	-200.000	0.007	-0.106
-479.347	166.773	-0.078	-0.145
-478.332	-200.000	0.004	0.236
-477.318	-29.344	0.273	0.205
-476.303	800.000	-0.050	-0.235
-475.289	133.682	-0.176	0.299
-474.274	270.764	0.066	-0.152
-473.259	-90.532	0.244	-0.092
-472.245	-52.923	-0.123	-0.074
-471.230	81.105	-0.071	0.101
-470.216	800.000	-0.064	-0.314
-469.201	-48.391	-0.245	0.155
-468.186	-47.373	0.453	-0.289
-467.172	800.000	0.074	-0.282
-466.157	-71.278	-0.103	-0.050
-465.143	243.857	-0.184	0.407
-464.128	-127.793	-0.285	0.054
-463.113	201.623	-0.179	0.364
-462.099	96.268	0.030	0.045
-461.084	215.145	0.215	-0.450
-460.070	-139.734	-0.259	0.036
-459.055	-130.837	-0.185	-0.032
-458.040	800.000	0.104	0.391
-457.026	-78.737	-0.423	-0.189
-456.011	-1.096	-0.274	0.254
-454.997	560.349	0.073	0.232
-453.982	-139.541	-0.067	0.009
-452.968	-200.000	-0.058	-0.489
-451.953	800.000	0.090	-0.466
-450.938	175.285	0.045	-0.086
-449.924	-149.412	0.598	0.062
-448.909	-153.119	0.095	0.009
-447.895	-76.924	-0.247	-0.113
-446.880	-46.677	-0.172	-0.110
-445.865	138.221	-0.071	0.122
-444.851	240.816	0.021	-0.045
-443.836	14.188	0.039	0.040
-442.822	-45.164	0.219	-0.143
-441.807	800.000	0.086	-0.422
-440.792	121.587	-0.198	0.324
-439.778	-200.000	0.790	0.005
-438.763	-104.990	0.291	-0.087
-437.749	-4.560	-0.120	0.109
-436.734	-83.134	0.091	0.038
-435.719	55.829	-0.383	-0.488
-434.705	201.551	-0.085	-0.173
-433.690	-106.036	0.404	0.118
-432.676	5.860	0.434	0.421
-431.661	-104.725	0.248	0.074
-430.646	-122.146	0.194	-0.041
-429.632	-147.126	-0.109	0.012
-428.617	-61.517	-0.164	-0.090
-427.603	114.158	-0.205	-0.328
-426.588	800.000	-0.034	-0.137
-425.573	639.572	-0.133	0.445
-424.559	-71.943	-0.776	-0.377
-423.544	202.051	-0.214	0.435
-422.530	-200.000	0.005	0.136
-421.515	747.187	0.139	-0.496
-420.500	69.767	0.310	-0.420
-419.486	39.175	-0.208	-0.245
-418.471	264.698	0.183	0.420
-417.457	14.883	0.217	-0.223
-416.442	130.861	-0.079	0.133
-415.428	28.796	-0.216	0.240
-414.413	-132.209	0.585	0.098
-413.398	393.060	0.207	0.568
-412.384	46.535	-0.162	-0.197
-411.369	-108.940	0.043	-0.012
-410.355	305.996	0.146	0.358
-409.340	-200.000	0.009	-0.177
-408.325	-130.951	0.343	0.060
-407.311	342.750	0.207	-0.534
-406.296	-48.237	0.467	-0.295
-405.282	344.550	-0.105	0.271
-404.267	203.061	0.146	0.297
-403.252	10.791	-0.332	-0.332
-402.238	-156.939	-0.298	0.024
-401.223	71.756	0.087	0.118
-400.209	-133.399	-0.410	-0.067
-399.194	-140.791	-0.452	-0.060
-398.179	-46.970	0.288	0.184
-397.165	-200.000	0.023	-0.413
-396.150	399.178	0.231	-0.638
-395.136	77.200	0.175	-0.244
-394.121	-200.000	-0.005	0.438
-393.106	-41.511	-0.223	0.150
-392.092	-89.123	0.042	0.016
-391.077	-200.000	-0.016	0.542
-390.063	-137.445	0.161	-0.024
-389.048	239.500	0.206	-0.450
-388.033	-132.133	-0.376	-0.063
-387.019	434.356	0.035	0.099
-386.004	800.000	-0.036	0.168
-384.990	-200.000	0.010	0.485
-383.975	385.580	-0.123	-0.335
-382.960	16.296	-0.031	0.032
-381.946	-30.446	-0.085	-0.063
-380.931	-1.641	-0.184	-0.169
-379.917	-127.947	-0.342	-0.064
-378.902	61.494	-0.215	-0.281
-377.888	-119.252	0.494	0.112
-376.873	-142.241	-0.379	0.049
-375.858	5.473	-0.344	0.332
-374.844	75.869	0.297	0.412
-373.829	20.507	0.138	0.146
-372.815	-167.299	-0.193	-0.010
-371.800	-181.275	0.424	0.011
-370.785	-49.331	-0.193	-0.120
-369.771	-74.090	-0.576	0.272
-368.756	-200.000	-0.013	-0.436
-367.742	-54.864	-0.134	0.079
-366.727	343.717	-0.023	0.058
-365.712	-49.579	0.201	0.125
-364.698	-3.183	-0.349	-0.318
-363.683	19.018	-0.255	0.268
-362.669	13.858	0.214	0.218
-361.654	800.000	-0.029	-0.141
-360.639	35.587	-0.276	0.317
-359.625	266.518	0.262	-0.600
-358.610	-26.202	-0.177	-0.136
-357.596	-200.000	0.065	-0.385
-356.581	93.132	0.049	-0.073
-355.566	-102.499	-0.212	-0.066
-354.552	-63.405	-0.302	0.162
-353.537	-84.415	0.252	0.103
-352.523	-200.000	-0.034	0.302
-351.508	800.000	0.037	0.155
-350.493	132.806	-0.222	0.375
-349.479	-139.313	0.188	-0.026
-348.464	800.000	0.165	-0.605
-347.450	239.394	-0.186	-0.406
-346.435	150.802	-0.054	0.097
-345.420	800.000	0.060	0.327
-344.406	-6.342	-0.165	-0.147
-343.391	-12.716	-0.092	-0.078
-342.377	-104.544	-0.264	0.079
-341.362	32.736	0.141	-0.159
-340.348	-31.479	-0.085	-0.063
-339.333	-95.771	0.237	-0.082
-338.318	496.582	-0.116	-0.349
-337.304	800.000	-0.092	-0.380
-336.289	-31.613	-0.138	-0.101
-335.275	201.899	0.149	0.302
-334.260	-118.251	0.169	0.039
-333.245	-71.021	0.471	0.230
-332.231	800.000	0.153	0.592
-331.216	-40.890	0.319	-0.215
-330.202	429.859	0.137	0.390
-329.187	-162.051	-0.220	-0.014
-328.172	-200.000	-0.037	0.361
-327.158	800.000	-0.011	0.041
-326.143	800.000	0.055	0.257
-325.129	15.044	-0.043	-0.044
-324.114	-68.066	0.550	0.279
-323.099	-18.970	-0.240	0.195
-322.085	-104.400	0.108	-0.032
-321.070	-152.912	0.481	0.044
-320.056	202.379	0.076	0.154
-319.041	-92.200	0.259	-0.095
-318.026	-29.686	-0.099	-0.074
-317.012	-125.624	-0.188	0.037
-315.997	-88.937	-0.158	0.061
-314.983	-7.305	-0.327	0.289
-313.968	-163.193	-0.054	0.003
-312.953	26.792	0.221	-0.242
-311.939	-88.006	-0.572	-0.223
-310.924	-98.212	0.367	0.122
-309.910	393.176	0.058	0.157
-308.895	-200.000	-0.026	-0.224
-307.880	-31.610	-0.324	0.237
-306.866	181.626	-0.112	0.217
-305.851	122.214	-0.054	0.087
-304.837	253.727	0.225	-0.503
-303.822	800.000	-0.047	0.218
-302.807	-89.973	-0.144	-0.054
-301.793	-200.000	-0.005	0.072
-300.778	-186.098	0.407	0.008
-299.764	401.159	-0.078	0.215
-298.749	-200.000	0.108	-0.747
-297.735	-118.622	0.295	0.068
-296.720	800.000	-0.035	0.141
-295.705	54.632	0.250	-0.314
-294.691	-200.000	0.015	0.286
-293.676	-27.656	-0.181	-0.137
-292.662	-86.005	-0.472	0.189
-291.647	-180.626	-0.400	-0.011
-290.632	-200.000	0.001	-0.057
-289.618	-122.348	0.327	-0.069
-288.603	212.068	0.099	0.203
-287.589	-47.772	0.142	0.089
-286.574	679.483	-0.070	-0.239
-285.559	106.079	-0.193	-0.299
-284.545	-5.645	0.503	-0.450
-283.530	631.575	0.018	-0.060
-282.516	-1.498	0.100	0.092
-281.501	219.718	-0.143	0.301
-280.486	137.769	-0.034	0.058
-279.472	800.000	-0.048	-0.230
-278.457	800.000	-0.113	-0.432
-277.443	-200.000	0.039	-0.323
-276.428	800.000	-0.015	-0.073
-275.413	21.539	-0.480	-0.509
-274.399	800.000	0.063	0.341
-273.384	-200.000	-0.078	0.546
-272.370	168.773	0.098	-0.183
-271.355	-89.681	0.465	-0.177
-270.340	-75.455	0.244	0.113
-269.326	-80.103	0.084	0.037
-268.311	52.952	0.148	0.185
-267.297	100.877	-0.149	0.226
-266.282	-2.529	-0.285	0.260
-265.267	383.913	0.302	0.815
-264.253	-72.623	0.242	-0.116
-263.238	325.765	0.312	-0.781
-262.224	-155.583	0.329	0.027
-261.209	-153.907	0.169	0.015
-260.195	-140.192	0.365	-0.049
-259.180	102.665	-0.150	0.229
-258.165	31.308	-0.517	0.578
-257.151	109.400	0.061	0.095
-256.136	800.000	-0.071	0.338
-255.122	9.735	-0.163	-0.161
-254.107	-45.059	0.300	-0.194
-253.092	-200.000	-0.024	0.137
-252.078	-71.785	-0.286	0.138
-251.063	-95.861	-0.301	0.104
-250.049	54.662	-0.150	0.188
-249.034	132.607	0.434	0.731
-248.019	-200.000	0.037	0.386
-247.005	-56.706	0.072	-0.042
-245.990	43.838	0.176	-0.210
-244.976	800.000	-0.013	0.051
-243.961	90.006	-0.515	-0.751
-242.946	121.270	-0.126	-0.205
-241.932	800.000	-0.099	0.501
-240.917	-3.773	0.248	-0.224
-239.903	-144.471	-0.778	-0.093
-238.888	-200.000	-0.013	0.102
-237.873	-19.061	0.177	-0.143
-236.859	758.608	0.126	0.446
-235.844	47.544	-0.249	0.302
-234.830	-48.199	0.346	0.217
-233.815	-121.772	0.559	0.119
-232.800	-71.927	0.156	-0.075
-231.786	-110.107	-0.546	-0.148
-230.771	-126.630	0.105	-0.020
-229.757	98.478	0.241	-0.363
-228.742	-123.864	0.535	-0.109
-227.727	227.211	0.005	-0.011
-226.713	-133.755	0.198	0.032
-225.698	-129.892	-0.047	0.008
-224.684	46.100	0.207	-0.250
-223.669	-117.063	0.610	0.144
-222.655	119.683	-0.068	-0.110
-221.640	2.098	0.187	0.176
-220.625	-46.622	0.212	0.135
-219.611	-116.411	-0.420	0.100
-218.596	-200.000	-0.022	-0.301
-217.582	-139.913	0.222	-0.030
-216.567	230.246	0.159	0.340
-215.552	-33.443	0.127	-0.091
-214.538	-33.135	0.313	-0.225
-213.523	-125.370	0.684	0.134
-212.509	-49.063	0.302	-0.187
-211.494	206.801	0.131	0.266
-210.479	491.861	0.262	-0.785
-209.465	257.734	0.143	0.321
-208.450	-2.292	0.070	0.064
-207.436	109.294	-0.243	0.379
-206.421	800.000	-0.026	0.108
-205.406	118.560	0.240	-0.387
-204.392	4.441	0.362	-0.345
-203.377	481.695	-0.042	-0.124
-202.363	38.896	-0.054	-0.062
-201.348	-64.583	0.356	0.187
-200.333	800.000	0.044	0.245
-199.319	-166.161	-0.308	-0.017
-198.304	6.500	0.273	-0.263
-197.290	-3.424	-0.057	-0.051
-196.275	800.000	0.064	0.316
-195.260	-200.000	-0.050	-0.316
-194.246	54.517	0.127	0.160
-193.231	136.457	0.164	0.278
-192.217	-200.000	0.359	-0.002
-191.202	560.688	-0.150	0.475
-190.187	-200.000	0.027	0.275
-189.173	-122.490	0.234	0.049
-188.158	-80.450	-0.175	0.076
-187.144	-117.590	-0.258	-0.060
-186.129	-152.115	-0.061	-0.006
-185.114	-46.029	0.037	0.024
-184.100	-117.570	-0.619	0.144
-183.085	-115.867	-0.167	-0.040
-182.071	-200.000	0.005	-0.241
-181.056	282.853	-0.102	0.240
-180.042	533.904	-0.044	-0.137
-179.027	169.701	0.254	-0.472
-178.012	21.756	-0.172	-0.182
-176.998	-200.000	-0.034	0.602
-175.983	800.000	-0.108	-0.545
-174.969	800.000	0.150	-0.663
-173.954	60.233	0.112	0.144
-172.939	108.028	-0.112	-0.174
-171.925	15.126	0.160	-0.163
-170.910	-183.270	0.076	0.002
-169.896	577.508	0.026	0.083
-168.881	54.891	0.175	-0.220
-167.866	-69.052	-0.513	0.256
-166.852	800.000	0.063	-0.288
-165.837	-76.144	-0.146	-0.067
-164.823	-63.477	-0.177	0.094
-163.808	62.065	0.157	0.203
-162.793	64.055	-0.316	0.413
-161.779	-200.000	0.026	-0.235
-160.764	-200.000	0.002	0.174
-159.750	-93.298	-0.244	-0.088
-158.735	411.124	-0.245	-0.679
-157.720	-110.498	0.419	-0.112
-156.706	-88.896	0.327	-0.125
-155.691	609.403	-0.088	0.287
-154.677	-200.000	-0.039	-0.457
-153.662	-56.882	-0.218	-0.125
-152.647	-38.035	-0.028	-0.020
-151.633	361.407	-0.204	0.532
-150.618	-200.000	-0.023	-0.202
-149.604	444.100	-0.073	0.210
-148.589	292.720	0.079	-0.188
-147.574	-179.309	-0.162	-0.005
-146.560	-100.967	0.648	-0.205
-145.545	-25.394	0.037	-0.029
-144.531	800.000	0.155	0.659
-143.516	-200.000	-0.008	0.325
-142.502	175.746	0.065	0.123
-141.487	-200.000	-0.051	0.320
-140.472	-57.632	-0.339	-0.192
-139.458	-200.000	-0.002	0.028
-138.443	17.777	0.140	-0.144
-137.429	-112.947	-0.362	-0.092
-136.414	200.240	0.235	-0.471
-135.399	-125.120	-0.153	0.030
-134.385	800.000	-0.035	-0.185
-133.370	-179.857	0.324	-0.009
-132.356	-63.676	-0.115	-0.061
-131.341	484.729	-0.220	-0.654
-130.326	-134.886	0.264	0.041
-129.312	-62.529	-0.455	0.244
-128.297	289.771	0.154	-0.363
-127.283	-0.083	0.282	-0.260
-126.268	474.785	-0.132	-0.387
-125.253	62.877	0.092	-0.120
-124.239	-114.334	0.373	-0.092
-123.224	-9.320	-0.084	0.073
-122.210	-110.815	-0.445	0.118
-121.195	-102.590	-0.187	-0.058
-120.180	73.164	0.122	-0.166
-119.166	54.494	-0.154	0.192
-118.151	-48.554	0.188	0.117
-117.137	-145.189	-0.422	-0.049
-116.122	-200.000	-0.053	0.463
-115.107	-96.656	-0.085	-0.029
-114.093	-129.005	0.508	-0.091
-113.078	261.274	0.077	0.173
-112.064	22.115	-0.435	0.460
-111.049	374.868	0.053	-0.139
-110.034	-52.191	-0.380	-0.227
-109.020	-60.338	-0.299	0.164
-108.005	72.629	0.367	-0.496
-106.991	434.582	0.117	0.332
-105.976	-122.942	-0.196	-0.040
-104.962	-30.279	0.146	0.107
-103.947	249.792	0.056	0.123
-102.932	328.078	0.169	-0.423
-101.918	8.467	-0.157	-0.153
-100.903	177.239	0.076	-0.143
-99.889	221.621	-0.013	0.028
-98.874	-160.561	0.460	0.031
-97.859	21.120	0.214	0.225
-96.845	-200.000	0.028	0.530
-95.830	153.906	-0.166	-0.296
-94.816	18.520	-0.220	-0.228
-93.801	583.633	-0.076	0.242
-92.786	800.000	0.048	0.263
-91.772	-154.067	-0.485	-0.042
-90.757	-70.480	0.369	0.180
-89.743	800.000	0.067	-0.307
-88.728	-91.021	-0.217	0.080
-87.713	68.155	0.138	0.183
-86.699	-200.000	0.041	0.321
-85.684	12.362	0.228	0.228
-84.670	87.845	-0.144	-0.207
-83.655	-6.297	0.183	-0.162
-82.640	-200.000	0.135	-0.833
-81.626	287.942	0.034	0.081
-80.611	11.056	-0.043	0.042
-79.597	-42.222	0.116	-0.076
-78.582	-200.000	0.002	0.313
-77.567	533.773	-0.023	0.071
-76.553	-115.136	0.231	-0.056
-75.538	7.661	-0.212	0.205
-74.524	-72.118	-0.640	0.306
-73.509	-146.049	0.453	0.051
-72.494	-108.650	0.729	-0.201
-71.480	-200.000	-0.053	-0.570
-70.465	181.803	0.150	-0.287
-69.451	275.170	-0.191	-0.440
-68.436	504.258	-0.043	-0.130
-67.422	-64.889	-0.337	-0.176
-66.407	-65.089	-0.451	0.235
-65.392	-104.021	-0.354	-0.106
-64.378	202.575	-0.082	-0.164
-63.363	-11.058	-0.106	0.090
-62.349	-2.356	-0.177	-0.161
-61.334	-21.591	-2.679	-2.108
-60.319	53.443	1.395	1.731
-59.305	229.805	-3.415	-7.239
-58.290	36.942	4.432	5.070
-57.276	384.836	3.825	10.240
-56.261	-200.000	24.479	322.609
-55.246	350.870	1309.464	3364.144
-54.232	52.492	2849.150	3518.915
-53.217	51.077	2660.693	3264.133
-52.203	31.322	2390.428	2653.880
-51.188	27.649	2056.528	2237.880
-50.173	24.279	1944.539	2076.543
-49.159	23.284	1932.531	2052.055
-48.144	22.748	1927.942	2040.874
-47.130	22.692	1925.437	2037.489
-46.115	22.611	1923.914	2034.860
-45.100	22.561	1922.025	2032.203
-44.086	22.671	1920.294	2031.567
-43.071	22.640	1918.776	2029.521
-42.057	22.611	1917.403	2027.654
-41.042	22.602	1916.241	2026.238
-40.027	22.651	1914.082	2024.435
-39.013	22.619	1912.993	2022.833
-37.998	22.554	1911.754	2020.696
-36.984	22.596	1910.954	2020.257
-35.969	22.569	1909.937	2018.785
-34.954	22.489	1908.458	2016.222
-33.940	22.545	1906.914	2015.159
-32.925	22.528	1905.435	2013.315
-31.911	22.543	1904.255	2012.159
-30.896	22.490	1902.994	2010.142
-29.881	22.550	1901.347	2009.012
-28.867	22.435	1900.384	2006.601
-27.852	22.437	1898.593	2004.647
-26.838	22.486	1897.031	2003.482
-25.823	22.549	1895.759	2002.784
-24.809	22.467	1894.328	2000.249
-23.794	22.486	1893.753	1999.782
-22.779	22.398	1892.407	1997.271
-21.765	22.331	1891.648	1995.634
-20.750	22.487	1890.477	1996.098
-19.736	22.394	1889.434	1993.858
-18.721	22.318	1887.904	1991.301
-17.706	22.436	1886.476	1991.051
-16.692	22.364	1885.495	1989.126
-15.677	22.515	1883.371	1988.521
-14.663	22.365	1882.550	1985.864
-13.648	22.312	1881.164	1983.727
-12.633	22.355	1880.220	1983.133
-11.619	22.409	1878.595	1981.961
-10.604	22.319	1877.409	1979.604
-9.590	22.290	1876.529	1978.275
-8.575	22.406	1875.016	1977.912
-7.560	22.282	1874.603	1976.003
-6.546	22.440	1872.554	1975.541
-5.531	22.315	1871.740	1973.191
-4.517	22.262	1871.460	1972.222
-3.502	22.337	1870.332	1971.808
-2.487	22.353	1868.430	1969.905
-1.473	22.449	1865.180	1967.467
-0.458	22.196	1847.003	1945.405
0.556	18.671	1994.778	2046.592
1.571	17.322	2196.496	2235.463
2.586	18.157	2235.652	2286.273
3.600	18.124	2237.250	2287.184
4.615	18.097	2236.961	2286.253
5.629	18.142	2235.090	2284.676
6.644	17.913	2234.445	2280.669
7.659	17.978	2232.211	2278.987
8.673	18.072	2229.027	2276.726
9.688	17.872	2238.001	2282.923
10.702	16.872	2319.311	2351.638
11.717	15.184	2382.741	2391.475
12.731	7.046	2364.077	2256.200
13.746	1.021	2347.780	2154.424
14.761	0.208	2344.943	2139.953
15.775	0.208	2343.337	2138.233
16.790	0.012	2341.511	2133.523
17.804	0.089	2340.036	2133.022
18.819	0.147	2337.889	2131.626
19.834	0.018	2336.823	2128.560
20.848	0.044	2335.804	2127.759
21.863	0.093	2333.944	2126.505
22.877	0.030	2332.117	2123.693
23.892	0.025	2329.797	2121.249
24.907	0.044	2327.071	2118.789
25.921	0.075	2325.809	2117.815
26.936	0.042	2324.205	2115.635
27.950	0.007	2321.263	2112.214
28.965	0.048	2319.396	2110.838
29.980	-0.019	2318.076	2108.444
30.994	0.136	2315.664	2108.181
32.009	3.820	2326.063	2169.416
33.023	12.497	2351.432	2316.119
34.038	16.092	2357.204	2372.455
35.053	16.136	2353.214	2368.781
36.067	15.891	2351.036	2362.851
37.082	15.870	2349.775	2361.000
38.096	16.074	2347.977	2361.787
39.111	16.310	2345.206	2362.032
40.126	16.455	2343.102	2361.667
41.140	16.522	2342.434	2361.653
42.155	16.508	2340.479	2359.203
43.169	16.474	2338.935	2356.895
44.184	16.296	2335.391	2350.543
45.199	16.319	2333.278	2348.467
46.213	16.352	2332.948	2348.309
47.228	16.513	2330.598	2347.907
48.242	16.562	2329.701	2347.411
49.257	16.673	2327.853	2346.809
50.271	16.692	2325.163	2344.082
51.286	16.481	2322.125	2337.808
52.301	16.146	2320.489	2331.230
53.315	17.062	2323.231	2346.439
54.330	19.891	2330.705	2393.083
55.344	21.431	2332.541	2416.084
56.359	21.799	2327.531	2415.706
57.374	21.815	2328.277	2416.408
58.388	21.987	2325.536	2415.657
59.403	21.814	2321.059	2408.321
60.417	21.513	2317.593	2400.294
61.432	21.510	2317.334	2399.701
62.447	21.828	2315.490	2401.879
63.461	21.941	2314.371	2401.980
64.476	22.158	2311.521	2401.725
65.490	21.756	2310.226	2394.563
66.505	20.910	2305.799	2378.096
67.520	18.795	2298.061	2340.882
68.534	16.733	2288.901	2303.110
69.549	16.177	2285.271	2291.603
70.563	16.131	2283.017	2288.441
71.578	16.193	2280.942	2286.928
72.593	16.224	2279.724	2285.850
73.607	16.337	2277.640	2285.035
74.622	16.415	2275.901	2284.074
75.636	16.141	2273.732	2277.907
76.651	16.179	2271.008	2275.419
77.666	16.156	2268.946	2272.769
78.680	16.014	2267.195	2268.812
79.695	15.882	2264.854	2264.420
80.709	15.793	2263.235	2261.332
81.724	15.748	2261.070	2258.287
82.739	15.790	2258.109	2255.624
83.753	15.809	2255.763	2253.260
84.768	15.732	2254.463	2250.663
85.782	15.677	2253.076	2248.270
86.797	15.493	2251.664	2244.113
87.812	15.588	2249.328	2242.803
88.826	15.698	2248.538	2243.220
89.841	15.798	2244.986	2240.742
90.855	15.789	2242.566	2237.939
91.870	15.898	2241.752	2238.318
92.884	15.825	2239.569	2234.895
93.899	15.873	2238.233	2233.933
94.914	16.633	2242.440	2248.019
95.928	19.200	2248.792	2288.434
96.943	20.063	2246.419	2297.255
97.957	17.317	2236.171	2250.033
98.972	15.905	2229.627	2224.435
99.987	15.668	2227.007	2218.412
101.001	15.734	2224.223	2216.247
102.016	15.684	2222.439	2213.540
103.030	15.739	2219.994	2211.564
104.045	15.835	2217.513	2210.104
105.060	15.757	2216.259	2207.559
106.074	15.713	2214.555	2205.020
107.089	15.778	2213.125	2204.178
108.103	15.725	2212.284	2202.386
109.118	15.910	2210.919	2203.199
110.133	15.984	2208.937	2201.933
111.147	15.868	2206.543	2197.752
112.162	15.904	2205.650	2197.083
113.176	16.103	2203.482	2197.262
114.191	16.173	2201.827	2196.266
115.206	16.194	2199.978	2194.436
116.220	15.970	2198.624	2189.896
117.235	15.940	2196.740	2187.356
118.249	16.036	2194.651	2186.270
119.264	16.024	2193.170	2184.383
120.279	16.042	2190.804	2181.988
121.293	16.119	2188.543	2180.481
122.308	16.084	2187.682	2178.905
123.322	16.039	2186.219	2176.604
124.337	16.486	2187.287	2183.211
125.352	19.249	2195.262	2226.857
126.366	19.942	2192.767	2233.040
127.381	17.187	2182.498	2186.717
128.395	15.937	2178.644	2166.447
129.410	15.958	2175.023	2162.855
130.424	15.871	2173.581	2160.046
131.439	15.993	2171.890	2159.682
132.454	15.921	2171.949	2158.552
133.468	16.153	2168.461	2157.802
134.483	16.363	2167.145	2158.939
135.497	16.387	2166.383	2158.228
136.512	16.295	2163.026	2153.448
137.527	16.183	2161.140	2149.873
138.541	15.904	2159.949	2144.866
139.556	15.877	2159.572	2143.881
140.570	15.916	2157.495	2142.067
141.585	15.836	2154.375	2137.686
142.600	15.823	2154.089	2136.989
143.614	15.762	2152.392	2134.264
144.629	15.780	2150.123	2131.998
145.643	15.589	2148.510	2127.703
146.658	15.515	2146.589	2124.603
147.673	15.455	2144.836	2121.855
148.687	15.640	2143.591	2122.719
149.702	15.769	2143.204	2123.715
150.716	15.847	2141.871	2123.139
151.731	15.861	2140.461	2121.660
152.746	15.871	2140.419	2121.485
153.760	16.682	2142.851	2133.931
154.775	19.457	2150.109	2176.126
155.789	20.253	2148.400	2184.210
156.804	17.658	2136.088	2138.739
157.819	15.862	2129.482	2109.276
158.833	15.720	2127.092	2104.867
159.848	15.771	2124.887	2103.069
160.862	15.931	2123.964	2103.912
161.877	15.972	2123.014	2103.242
162.892	16.054	2121.571	2102.582
163.906	16.059	2120.661	2101.489
164.921	16.059	2118.263	2098.863
165.935	15.993	2116.514	2096.061
166.950	16.151	2114.939	2096.219
167.964	16.052	2112.714	2092.532
168.979	15.833	2111.010	2087.855
169.994	15.740	2109.924	2085.373
171.008	15.866	2107.014	2083.816
172.023	15.822	2106.328	2082.347
173.037	15.853	2104.967	2081.139
174.052	15.983	2102.999	2080.559
175.067	16.052	2101.866	2080.046
176.081	15.817	2100.271	2075.299
177.096	15.876	2099.551	2075.067
178.110	15.995	2097.740	2074.503
179.125	16.098	2096.516	2074.324
180.140	15.905	2095.665	2070.849
181.154	15.975	2094.312	2070.118
182.169	16.110	2094.071	2071.301
183.183	17.021	2095.370	2083.588
184.198	19.812	2104.026	2126.492
185.213	20.385	2100.451	2129.689
186.227	17.466	2091.001	2083.980
187.242	16.259	2086.434	2064.341
188.256	16.071	2085.294	2060.661
189.271	15.898	2082.800	2055.826
190.286	15.937	2080.759	2054.041
191.300	15.866	2078.158	2050.363
192.315	15.923	2076.691	2049.368
193.329	16.101	2075.603	2050.222
194.344	16.436	2075.413	2053.884
195.359	16.590	2073.767	2053.889
196.373	16.185	2071.771	2046.732
197.388	15.973	2068.418	2040.590
198.402	15.890	2066.205	2037.152
199.417	15.806	2064.148	2033.859
200.432	15.897	2063.217	2033.806
201.446	15.867	2062.258	2032.252
202.461	15.759	2060.297	2028.770
203.475	15.830	2057.218	2026.357
204.490	15.690	2055.917	2023.134
205.504	15.737	2054.444	2022.014
206.519	15.788	2051.753	2019.740
207.534	15.880	2049.842	2018.724
208.548	15.830	2048.977	2017.029
209.563	15.808	2048.887	2016.432
210.577	15.897	2048.277	2016.656
211.592	15.977	2046.531	2015.665
212.607	17.355	2051.991	2037.396
213.621	20.694	2059.519	2084.917
214.636	19.996	2053.071	2069.760
215.650	17.005	2042.726	2023.275
216.665	16.133	2039.107	2009.011
217.680	16.049	2037.660	2006.350
218.694	15.882	2035.448	2001.928
219.709	15.831	2034.253	1999.904
220.723	15.816	2033.479	1998.729
221.738	16.094	2031.458	1999.813
222.753	16.257	2028.785	1998.880
223.767	16.130	2027.505	1995.876
224.782	16.052	2026.590	1993.802
225.796	15.969	2025.417	1991.430
226.811	16.011	2023.404	1989.706
227.826	15.919	2023.000	1987.983
228.840	15.902	2021.482	1986.057
229.855	15.925	2019.205	1983.852
230.869	16.004	2016.998	1982.373
231.884	15.962	2015.853	1980.517
232.899	15.863	2014.497	1977.777
233.913	15.956	2013.157	1977.320
234.928	15.924	2012.005	1975.574
235.942	15.901	2010.336	1973.437
236.957	15.912	2009.067	1972.082
237.972	15.856	2007.415	1969.567
238.986	15.905	2006.507	1969.013
240.001	15.788	2004.883	1965.809
241.015	15.953	2003.706	1966.357
242.030	16.882	2006.086	1979.369
243.045	19.524	2011.576	2015.592
244.059	19.797	2008.840	2015.810
245.074	17.046	1999.693	1974.268
246.088	16.115	1996.204	1959.717
247.103	16.410	1993.901	1960.656
248.117	16.314	1992.513	1957.943
249.132	16.109	1991.002	1953.837
250.147	15.974	1987.929	1949.018
251.161	16.009	1986.633	1947.917
252.176	16.222	1986.443	1949.975
253.190	16.462	1984.448	1950.566
254.205	16.587	1982.767	1950.131
255.220	16.574	1981.556	1948.550
256.234	16.452	1980.047	1945.427
257.249	16.225	1979.042	1941.575
258.263	16.177	1976.942	1938.737
259.278	16.220	1976.591	1938.648
260.293	16.082	1974.402	1934.677
261.307	15.850	1971.889	1929.315
262.322	15.814	1970.749	1927.555
263.336	15.845	1968.715	1925.689
264.351	15.778	1966.565	1922.591
265.366	15.615	1964.911	1918.865
266.380	15.561	1965.166	1918.268
267.395	15.664	1964.073	1918.157
268.409	15.708	1961.455	1915.878
269.424	15.856	1960.497	1916.398
270.439	15.880	1960.426	1916.372
271.453	16.949	1962.774	1930.678
272.468	19.949	1968.327	1970.275
273.482	19.950	1964.285	1966.008
274.497	17.079	1955.140	1923.966
275.512	15.986	1950.303	1906.542
276.526	15.983	1947.378	1903.425
277.541	15.775	1945.822	1899.320
278.555	15.711	1944.328	1896.901
279.570	15.645	1942.166	1893.818
280.585	15.705	1940.904	1893.042
281.599	15.855	1940.209	1893.833
282.614	16.106	1940.030	1896.264
283.628	16.347	1939.976	1898.710
284.643	16.624	1938.361	1900.029
285.657	16.752	1937.531	1900.434
286.672	16.690	1935.631	1897.649
287.687	16.617	1934.360	1895.346
288.701	16.472	1933.166	1892.317
289.716	16.301	1931.836	1888.868
290.730	16.488	1929.458	1888.422
291.745	16.507	1928.820	1887.781
292.760	16.452	1927.996	1886.135
293.774	16.241	1926.315	1881.894
294.789	16.304	1924.977	1881.074
295.803	15.986	1922.039	1874.423
296.818	16.046	1920.778	1873.634
297.833	16.198	1919.706	1874.058
298.847	16.199	1917.935	1872.117
299.862	16.130	1916.764	1869.985
300.876	16.865	1918.803	1879.945
301.891	19.924	1925.139	1920.089
302.906	20.221	1923.141	1921.169
303.920	17.294	1914.533	1879.857
304.935	16.356	1910.149	1864.919
305.949	16.187	1907.205	1859.950
306.964	16.129	1905.808	1857.723
307.979	16.143	1904.735	1856.616
308.993	16.456	1903.869	1859.012
310.008	16.769	1903.032	1861.426
311.022	16.882	1902.184	1861.622
312.037	16.647	1899.112	1855.796
313.052	16.553	1898.324	1853.771
314.066	16.630	1896.225	1852.349
315.081	16.701	1895.265	1851.972
316.095	16.544	1894.739	1849.511
317.110	16.385	1892.507	1845.365
318.125	16.358	1890.468	1842.858
319.139	16.293	1889.425	1840.911
320.154	16.370	1887.539	1839.689
321.168	16.423	1885.842	1838.398
322.183	16.191	1883.982	1833.834
323.197	15.975	1882.529	1829.836
324.212	15.831	1880.704	1826.278
325.227	15.617	1879.354	1822.410
326.241	15.735	1876.818	1821.019
327.256	15.605	1876.406	1818.990
328.270	15.743	1875.767	1819.654
329.285	15.785	1874.978	1819.124
330.300	16.840	1880.109	1835.375
331.314	20.168	1885.507	1876.691
332.329	20.020	1879.560	1868.944
333.343	17.008	1870.382	1827.047
334.358	15.931	1866.603	1811.498
335.373	15.715	1865.460	1807.835
336.387	15.605	1863.503	1804.537
337.402	15.601	1861.534	1802.371
338.416	15.696	1860.808	1802.476
339.431	15.906	1859.965	1803.705
340.446	15.987	1857.939	1802.393
341.460	16.240	1856.877	1803.871
342.475	16.384	1856.474	1804.808
343.489	16.519	1854.877	1804.489
344.504	16.541	1853.441	1803.106
345.519	16.597	1851.777	1801.868
346.533	16.773	1851.115	1802.893
347.548	16.839	1850.295	1802.582
348.562	16.546	1848.515	1797.505
349.577	16.817	1847.636	1799.328
350.592	16.899	1846.732	1799.113
351.606	16.993	1845.221	1798.427
352.621	16.823	1844.197	1795.400
353.635	16.540	1842.211	1790.239
354.650	16.415	1839.930	1786.484
355.665	16.337	1838.300	1783.861
356.679	16.275	1836.212	1780.964
357.694	16.093	1834.940	1777.585
358.708	16.113	1833.820	1776.496
359.723	17.437	1837.892	1794.274
360.738	20.373	1842.571	1829.766
361.752	19.529	1837.859	1815.953
362.767	16.865	1831.154	1781.016
363.781	16.156	1826.836	1769.122
364.796	16.047	1825.618	1766.585
365.810	15.950	1823.870	1763.657
366.825	16.111	1823.568	1764.858
367.840	16.352	1823.216	1766.832
368.854	16.503	1822.013	1767.046
369.869	16.196	1819.880	1761.544
370.883	16.125	1817.606	1758.386
371.898	16.045	1817.594	1757.324
372.913	16.058	1815.879	1755.589
373.927	16.185	1814.952	1755.822
374.942	16.244	1814.318	1755.611
375.956	16.330	1812.900	1754.927
376.971	16.406	1810.343	1753.035
377.986	16.103	1808.341	1747.732
379.000	16.073	1806.895	1745.804
380.015	16.205	1805.264	1745.395
381.029	16.000	1803.475	1741.326
382.044	15.699	1801.821	1736.405
383.059	15.755	1799.909	1734.928
384.073	15.869	1799.163	1735.181
385.088	15.716	1798.812	1733.055
386.102	15.799	1795.989	1730.986
387.117	15.732	1793.900	1728.069
388.132	15.726	1794.371	1728.256
389.146	16.890	1798.816	1744.371
390.161	20.175	1802.984	1782.206
391.175	19.919	1796.115	1772.565
392.190	16.747	1787.779	1731.580
393.205	16.055	1784.489	1721.090
394.219	16.015	1782.624	1718.670
395.234	15.792	1781.572	1715.171
396.248	15.944	1779.940	1714.951
397.263	15.781	1777.566	1710.788
398.278	15.885	1775.879	1710.025
399.292	15.953	1775.471	1710.120
400.307	15.979	1775.785	1710.478
401.321	16.109	1774.175	1710.052
402.336	16.178	1773.306	1709.709
403.350	16.300	1771.486	1708.991
404.365	16.385	1770.919	1709.108
405.380	16.582	1770.419	1710.418
406.394	16.747	1769.095	1710.616
407.409	16.560	1767.595	1707.063
408.423	16.684	1766.483	1707.038
409.438	16.735	1764.076	1705.020
410.453	16.586	1763.044	1702.312
411.467	16.775	1762.689	1703.682
412.482	16.376	1761.613	1698.404
413.496	16.229	1759.060	1694.258
414.511	16.149	1756.797	1691.065
415.526	16.228	1754.329	1689.285
416.540	16.156	1753.023	1687.100
417.555	16.015	1753.411	1685.853
418.569	16.295	1753.545	1688.602
419.584	16.354	1753.806	1689.237
420.599	16.244	1752.447	1686.621
421.613	16.164	1750.383	1683.637
422.628	16.159	1749.410	1682.442
423.642	16.081	1747.897	1680.011
424.657	16.112	1746.536	1678.809
425.672	16.272	1744.593	1678.335
426.686	16.317	1743.004	1677.056
427.701	16.225	1741.876	1674.851
428.715	16.354	1740.883	1674.989
429.730	16.542	1739.479	1675.302
430.745	16.453	1738.666	1673.438
431.759	16.553	1738.078	1673.665
432.774	17.054	1738.346	1678.709
433.788	17.527	1739.123	1683.958
434.803	17.682	1738.604	1684.792
435.818	17.777	1737.509	1684.473
436.832	17.559	1736.266	1680.901
437.847	16.534	1729.797	1664.303
438.861	9.004	1710.063	1571.243
439.876	1.584	1696.614	1486.021
440.890	0.347	1692.871	1470.441
441.905	0.290	1690.944	1468.034
442.920	0.295	1690.112	1467.186
443.934	0.099	1689.647	1464.687
444.949	0.069	1688.391	1463.138
445.963	0.058	1687.470	1462.053
446.978	0.113	1686.944	1461.961
447.993	0.248	1684.437	1460.924
449.007	0.127	1682.339	1457.755
450.022	0.168	1680.515	1456.399
451.036	0.146	1679.550	1455.174
452.051	1.082	1684.017	1467.982
453.066	8.480	1700.499	1554.708
454.080	15.795	1712.015	1636.824
455.095	17.298	1713.620	1652.855
456.109	17.617	1713.587	1655.739
457.124	17.767	1712.479	1655.942
458.139	17.758	1711.295	1654.511
459.153	18.054	1710.182	1656.116
460.168	17.906	1708.955	1653.294
461.182	17.871	1707.268	1651.121
462.197	17.827	1705.746	1649.023
463.212	17.783	1703.483	1646.213
464.226	17.780	1702.308	1644.853
465.241	17.774	1702.327	1644.615
466.255	17.897	1701.054	1644.378
467.270	17.995	1699.319	1643.455
468.285	17.901	1697.646	1640.732
469.299	17.682	1697.023	1637.818
470.314	17.920	1694.410	1637.389
471.328	17.864	1693.403	1635.686
472.343	17.909	1692.647	1635.193
473.358	17.850	1691.732	1633.545
474.372	17.842	1690.465	1632.050
475.387	17.804	1688.995	1630.067
476.401	17.760	1687.305	1627.818
477.416	17.912	1685.768	1627.596
478.430	17.842	1685.299	1626.284
479.445	17.680	1683.658	1622.948
480.460	17.814	1682.184	1622.623
481.474	17.859	1680.935	1621.646
482.489	17.872	1680.009	1620.687
483.503	18.016	1678.568	1620.471
484.518	17.985	1677.670	1619.121
485.533	18.048	1676.343	1618.243
486.547	18.019	1674.476	1615.967
487.562	18.226	1673.612	1616.906
488.576	18.024	1672.616	1613.840
489.591	17.995	1671.408	1612.207
490.606	17.944	1670.113	1610.273
491.620	18.097	1668.476	1609.951
492.635	18.199	1666.675	1608.993
493.649	18.268	1665.929	1608.732
494.664	17.903	1664.290	1603.505
495.679	17.664	1663.030	1599.848
496.693	17.784	1661.557	1599.370
497.708	17.970	1660.249	1599.669
498.722	18.061	1659.966	1600.061
499.737	18.165	1657.771	1598.731
500.752	18.001	1655.784	1595.084
501.766	18.070	1654.552	1594.355
502.781	17.969	1653.011	1591.734
503.795	17.909	1652.391	1590.383
504.810	17.979	1651.089	1589.591
505.825	18.070	1650.916	1590.093
506.839	18.164	1648.972	1588.907
507.854	18.137	1647.479	1587.024
508.868	18.088	1646.758	1585.679
509.883	18.189	1644.771	1584.521
510.898	18.308	1644.488	1585.162
511.912	18.049	1642.639	1580.790
512.927	17.936	1640.759	1577.736
513.941	18.175	1639.216	1578.282
514.956	18.035	1637.745	1575.381
515.971	17.998	1636.621	1573.771
516.985	17.996	1635.907	1572.870
518.000	18.071	1636.022	1573.491
519.014	18.332	1634.541	1574.290
520.029	18.205	1633.241	1571.677
521.043	18.243	1631.562	1570.224
522.058	18.306	1630.383	1569.477
523.073	18.225	1629.757	1567.949
524.087	18.245	1629.390	1567.588
525.102	18.243	1627.972	1566.018
526.116	18.102	1626.273	1562.899
527.131	18.143	1624.731	1561.611
528.146	18.273	1624.117	1562.020
529.160	18.285	1622.988	1560.856
530.175	18.385	1621.696	1560.350
531.189	18.370	1621.399	1559.733
532.204	18.328	1619.496	1557.335
533.219	18.216	1618.133	1554.816
534.233	18.085	1617.023	1552.369
535.248	18.248	1616.535	1553.200
536.262	18.418	1616.207	1554.250
537.277	18.441	1613.670	1551.835
538.292	18.368	1611.424	1548.828
539.306	18.260	1610.369	1546.646
540.321	18.261	1609.793	1545.918
541.335	18.251	1608.350	1544.252
542.350	18.352	1606.045	1542.770
543.365	18.544	1603.934	1542.296
544.379	18.528	1603.669	1541.706
545.394	18.516	1602.698	1540.479
546.408	18.326	1601.285	1537.224
547.423	17.917	1600.413	1532.515
548.438	18.057	1599.240	1532.475
549.452	18.272	1597.808	1532.847
550.467	18.305	1596.944	1532.135
551.481	18.394	1595.694	1531.554
552.496	18.446	1594.837	1531.014
553.511	18.606	1594.204	1531.656
554.525	18.575	1592.767	1529.819
555.540	18.532	1593.192	1529.655
556.554	18.620	1591.386	1528.529
557.569	18.461	1588.930	1524.564
558.583	18.510	1587.354	1523.308
559.598	18.388	1586.522	1521.241
560.613	18.273	1585.935	1519.462
561.627	18.298	1585.173	1518.779
562.642	18.407	1583.798	1518.248
563.656	18.640	1582.289	1518.693
564.671	18.645	1580.801	1517.126
565.686	18.597	1579.564	1515.336
566.700	18.548	1578.098	1513.307
567.715	18.477	1576.399	1510.871
568.729	18.290	1574.683	1507.393
569.744	18.201	1573.485	1505.273
570.759	18.157	1572.468	1503.736
571.773	18.249	1571.505	1503.446
572.788	18.422	1570.722	1504.040
573.802	18.415	1569.568	1502.695
574.817	18.458	1567.497	1500.914
575.832	18.729	1566.465	1502.128
576.846	18.644	1566.118	1500.865
577.861	18.522	1564.369	1497.937
578.875	18.532	1563.759	1497.264
579.890	18.698	1563.414	1498.212
580.905	18.573	1562.339	1495.903
581.919	18.747	1561.906	1496.834
582.934	18.693	1560.906	1495.227
583.948	18.754	1558.691	1493.460
584.963	18.760	1557.279	1491.979
585.978	18.473	1556.453	1488.510
586.992	18.497	1556.513	1488.593
588.007	18.726	1554.966	1488.931
589.021	18.437	1553.372	1484.710
590.036	18.397	1551.659	1482.545
591.051	18.335	1551.052	1481.250
592.065	18.504	1549.436	1481.001
593.080	18.668	1547.275	1480.177
594.094	18.626	1545.798	1478.222
595.109	18.678	1543.516	1476.316
596.123	18.341	1542.535	1472.291
597.138	18.475	1542.609	1473.342
598.153	18.758	1540.339	1473.434
599.167	18.591	1539.925	1471.430
600.182	18.594	1539.173	1470.555
601.196	18.765	1537.879	1470.614
602.211	18.641	1537.058	1468.586
603.226	18.709	1535.437	1467.447
604.240	18.755	1534.224	1466.509
605.255	18.941	1533.601	1467.335
606.269	18.839	1532.746	1465.463
607.284	18.748	1531.067	1462.907
608.299	18.842	1529.893	1462.411
609.313	18.740	1528.837	1460.356
610.328	18.850	1526.817	1459.191
611.342	18.802	1525.944	1457.767
612.357	18.981	1525.166	1458.381
613.372	18.918	1523.746	1456.310
614.386	18.786	1523.626	1454.898
615.401	18.889	1522.755	1454.767
616.415	18.964	1521.137	1453.686
617.430	18.950	1520.599	1452.878
618.445	18.880	1519.655	1451.208
619.459	18.866	1518.483	1449.798
620.474	18.618	1516.943	1446.052
621.488	18.394	1515.866	1442.959
622.503	18.226	1514.529	1440.088
623.518	18.466	1514.157	1441.589
624.532	18.834	1512.744	1443.180
625.547	18.828	1511.854	1442.111
626.561	19.030	1511.225	1443.037
627.576	19.051	1509.941	1441.815
628.591	18.764	1507.900	1437.283
629.605	18.511	1506.850	1433.987
630.620	18.491	1504.955	1431.844
631.634	18.408	1503.927	1429.994
632.649	18.406	1503.465	1429.368
633.663	18.624	1502.512	1430.120
634.678	18.667	1501.424	1429.267
635.693	18.965	1500.023	1430.256
636.707	18.996	1498.906	1429.277
637.722	19.127	1497.699	1429.050
638.736	19.305	1496.277	1429.010
639.751	19.206	1494.976	1426.767
640.766	19.164	1493.600	1424.932
641.780	19.168	1492.473	1423.721
642.795	19.053	1491.959	1422.104
643.809	18.986	1492.015	1421.432
644.824	19.123	1490.325	1420.790
645.839	19.041	1489.337	1419.000
646.853	19.120	1488.314	1418.507
647.868	19.092	1486.510	1416.386
648.882	18.963	1485.036	1413.750
649.897	19.126	1483.840	1413.784
650.912	19.047	1482.491	1411.680
651.926	19.031	1481.019	1409.981
652.941	18.764	1480.147	1406.778
653.955	18.694	1478.372	1404.351
654.970	18.668	1476.466	1402.156
655.985	18.617	1474.539	1399.740
656.999	18.532	1474.242	1398.596
658.014	18.680	1473.592	1399.022
659.028	18.905	1472.093	1399.273
660.043	18.971	1471.729	1399.300
661.058	19.022	1470.638	1398.510
662.072	19.157	1469.337	1398.207
663.087	19.137	1467.750	1396.370
664.101	18.951	1467.776	1394.707
665.116	19.088	1467.057	1394.973
666.131	19.068	1466.116	1393.749
667.145	19.094	1465.034	1392.766
668.160	19.124	1463.715	1391.589
669.174	19.116	1463.256	1390.924
670.189	19.215	1461.291	1389.691
671.204	19.124	1460.407	1387.948
672.218	19.149	1459.096	1386.736
673.233	19.295	1457.882	1386.597
674.247	19.390	1456.524	1385.906
675.262	19.310	1456.291	1384.873
676.276	19.336	1455.196	1383.873
677.291	19.318	1454.059	1382.486
678.306	19.188	1452.307	1379.606
679.320	19.236	1451.090	1378.674
680.335	19.105	1451.372	1377.717
681.349	19.263	1450.477	1377.974
682.364	19.196	1449.376	1376.229
683.379	19.269	1447.761	1375.111
684.393	19.232	1446.432	1373.390
685.408	19.242	1445.348	1372.280
686.422	19.079	1444.815	1370.302
687.437	19.415	1444.141	1372.186
688.452	19.297	1443.147	1370.132
689.466	19.280	1441.164	1367.953
690.481	19.116	1440.390	1365.748
691.495	19.032	1438.920	1363.522
692.510	18.748	1437.213	1359.481
693.525	18.572	1435.886	1356.659
694.539	18.700	1435.348	1357.008
695.554	19.008	1434.996	1358.958
696.568	19.206	1434.304	1359.714
697.583	19.276	1433.980	1359.798
698.598	19.314	1433.107	1359.109
699.612	19.377	1431.615	1358.031
700.627	19.328	1429.991	1355.943
701.641	19.276	1429.042	1354.465
702.656	19.417	1428.091	1354.518
703.671	19.340	1428.310	1353.957
704.685	19.480	1427.343	1353.977
705.700	19.506	1425.551	1352.321
706.714	19.316	1424.386	1349.558
707.729	19.211	1422.903	1347.168
708.744	19.182	1420.798	1344.789
709.758	19.165	1419.458	1343.221
710.773	19.067	1418.513	1341.401
711.787	18.909	1417.171	1338.733
712.802	19.171	1415.409	1338.960
713.816	19.153	1415.056	1338.324
714.831	19.166	1414.705	1337.932
715.846	19.318	1414.357	1338.632
716.860	19.425	1412.055	1337.121
717.875	19.411	1411.570	1336.399
718.889	19.171	1410.488	1333.341
719.904	19.372	1409.609	1333.918
720.919	19.544	1408.158	1333.722
721.933	19.565	1407.938	1333.517
722.948	19.549	1407.092	1332.430
723.962	19.545	1405.198	1330.447
724.977	19.604	1404.431	1330.019
725.992	19.536	1403.714	1328.654
727.006	19.519	1401.844	1326.593
728.021	19.459	1400.921	1325.101
729.035	19.625	1399.379	1324.761
730.050	19.394	1399.064	1322.523
731.065	19.320	1398.101	1320.881
732.079	19.581	1396.960	1321.652
733.094	19.444	1395.411	1318.981
734.108	19.299	1394.502	1316.851
735.123	19.424	1392.840	1316.081
736.138	19.457	1391.492	1314.901
737.152	19.526	1391.077	1314.882
738.167	19.644	1389.832	1314.451
739.181	19.685	1389.532	1314.321
740.196	19.684	1388.041	1312.749
741.211	19.572	1387.345	1311.078
742.225	19.557	1386.237	1309.756
743.240	19.596	1384.826	1308.568
744.254	19.628	1383.262	1307.177
745.269	19.618	1382.407	1306.129
746.284	19.602	1381.597	1305.087
747.298	19.477	1380.253	1302.714
748.313	19.201	1379.135	1299.414
749.327	18.913	1378.086	1296.089
750.342	18.817	1376.781	1293.974
751.356	18.681	1375.197	1291.302
752.371	18.879	1374.267	1291.771
753.386	19.333	1374.118	1294.904
754.400	19.546	1373.948	1296.197
755.415	19.545	1373.101	1295.236
756.429	19.524	1371.875	1293.767
757.444	19.550	1370.707	1292.704
758.459	19.604	1370.339	1292.609
759.473	19.891	1368.655	1293.025
760.488	19.695	1367.640	1290.437
761.502	19.858	1366.423	1290.359
762.517	19.722	1364.922	1287.771
763.532	19.709	1363.103	1285.798
764.546	19.524	1362.031	1283.252
765.561	19.316	1361.002	1280.576
766.575	19.150	1360.097	1278.334
767.590	18.908	1359.450	1275.769
768.605	19.179	1358.043	1276.315
769.619	19.380	1357.344	1277.002
770.634	19.465	1356.413	1276.602
771.648	19.704	1355.841	1277.689
772.663	19.687	1355.425	1277.015
773.678	19.798	1354.325	1276.652
774.692	19.735	1353.532	1275.283
775.707	19.714	1353.239	1274.696
776.721	19.837	1352.059	1274.349
777.736	19.752	1350.936	1272.506
778.751	19.863	1349.721	1272.028
779.765	19.784	1349.151	1270.755
780.780	19.788	1348.127	1269.669
781.794	19.566	1347.176	1266.988
782.809	19.749	1345.542	1266.642
783.824	19.578	1344.645	1264.390
784.838	19.262	1342.776	1260.157
785.853	18.832	1341.615	1255.760
786.867	19.097	1340.972	1256.953
787.882	19.241	1341.140	1258.015
788.897	19.317	1340.482	1257.805
789.911	19.609	1338.907	1258.314
790.926	19.593	1337.672	1256.886
791.940	19.604	1336.126	1255.366
792.955	19.628	1335.651	1254.945
793.969	19.648	1334.452	1253.813
794.984	19.771	1333.276	1253.458
795.999	19.690	1332.103	1251.613
797.013	19.956	1330.961	1252.321
798.028	19.811	1329.393	1249.648
799.042	19.789	1329.222	1249.176
800.057	19.783	1328.363	1248.178
801.072	19.931	1326.882	1247.710
802.086	19.843	1325.317	1245.446
803.101	19.889	1324.491	1244.858
804.115	19.886	1323.702	1243.942
805.130	19.944	1322.769	1243.340
806.145	20.007	1321.848	1242.775
807.159	19.799	1320.402	1239.771
808.174	19.746	1319.065	1237.984
809.188	19.817	1317.145	1236.549
810.203	19.520	1316.356	1233.526
811.218	19.452	1314.550	1231.196
812.232	19.224	1312.810	1227.785
813.247	19.127	1311.758	1225.958
814.261	19.293	1312.227	1227.443
815.276	19.441	1312.028	1228.167
816.291	19.567	1310.935	1227.895
817.305	19.734	1309.903	1227.979
818.320	20.006	1308.118	1228.093
819.334	19.943	1306.778	1226.243
820.349	19.929	1305.224	1224.537
821.364	19.790	1304.804	1223.007
822.378	19.726	1303.318	1221.018
823.393	19.884	1301.351	1220.145
824.407	19.811	1300.310	1218.506
825.422	19.781	1300.144	1217.990
826.437	19.722	1298.541	1215.930
827.451	19.680	1296.604	1213.671
828.466	19.222	1294.848	1208.654
829.480	19.121	1293.029	1206.100
830.495	19.195	1292.128	1205.635
831.509	19.349	1291.609	1206.090
832.524	19.510	1291.871	1207.321
833.539	19.733	1290.433	1207.397
834.553	20.056	1288.404	1207.619
835.568	19.927	1287.593	1205.815
836.582	20.016	1287.108	1205.834
837.597	20.017	1285.637	1204.321
838.612	19.920	1283.754	1201.734
839.626	19.900	1282.473	1200.256
840.641	19.696	1281.370	1197.659
841.655	19.531	1280.782	1195.819
842.670	19.299	1280.063	1193.386
843.685	19.077	1278.853	1190.575
844.699	19.296	1277.916	1191.078
845.714	19.670	1276.132	1191.864
846.728	19.838	1275.294	1192.105
847.743	19.935	1275.027	1192.385
848.758	20.047	1273.875	1191.937
849.772	19.937	1272.528	1189.778
850.787	19.947	1271.412	1188.662
851.801	20.180	1269.415	1188.259
852.816	20.040	1268.072	1185.895
853.831	19.807	1266.948	1183.097
854.845	19.651	1266.209	1181.195
855.860	19.642	1264.177	1179.095
856.874	19.625	1262.986	1177.725
857.889	19.406	1261.897	1175.075
858.904	19.206	1260.014	1171.809
859.918	19.054	1258.190	1168.935
860.933	18.946	1256.636	1166.613
861.947	19.178	1256.747	1168.163
862.962	19.362	1255.643	1168.248
863.977	19.589	1254.326	1168.429
864.991	19.648	1254.527	1168.877
866.006	19.628	1254.659	1168.722
867.020	19.879	1252.576	1168.344
868.035	19.831	1251.567	1166.943
869.049	20.001	1250.651	1167.095
870.064	19.943	1249.911	1165.877
871.079	20.010	1248.964	1165.306
872.093	20.034	1248.365	1164.769
873.108	20.066	1247.011	1163.583
874.122	20.005	1245.181	1161.324
875.137	19.497	1245.181	1157.759
876.152	19.693	1243.780	1157.641
877.166	19.563	1242.829	1155.743
878.181	19.861	1241.718	1156.576
879.195	19.825	1241.414	1155.906
880.210	20.094	1240.406	1156.639
881.225	19.951	1239.118	1154.337
882.239	19.970	1238.034	1153.320
883.254	20.141	1236.874	1153.240
884.268	20.078	1236.377	1152.222
885.283	20.089	1235.257	1151.110
886.298	19.977	1233.858	1148.927
887.312	19.956	1232.621	1147.496
888.327	20.184	1231.495	1147.828
889.341	20.045	1229.946	1145.321
890.356	19.826	1229.910	1143.693
891.371	19.857	1229.742	1143.611
892.385	19.798	1228.348	1141.784
893.400	19.796	1227.213	1140.580
894.414	19.771	1226.033	1139.181
895.429	19.549	1223.817	1135.519
896.444	19.216	1221.800	1131.312
897.458	18.781	1220.839	1127.417
898.473	19.042	1221.107	1129.254
899.487	19.469	1220.579	1131.444
900.502	19.969	1219.081	1133.208
901.517	19.802	1218.068	1131.031
902.531	19.869	1217.442	1130.755
903.546	19.994	1216.982	1131.013
904.560	20.062	1215.912	1130.333
905.575	20.179	1215.073	1130.180
906.589	20.256	1214.341	1129.869
907.604	19.940	1213.763	1127.131
