DTS Sentinel unit serial number:	SN409020Multiplexer serial number:	ORYXHardware model number:	OX4-SRSoftware version number:	ORYX F/W v3.00 Oryx Data Collector v3.7.2.0data status	okinstallation	HaddamTimeLapsedifferential loss correction	single-endedforward channel	channel 3reverse channel	N/Adate	2011/06/21time	18:46:17forward acquisition time	30.00reverse acquisition time	0.00gamma	498.7831k internal	0.1814k external	0.1814temperature offset calibration	1.0074default loss term (dB/km)	0.3790temperature slope calibration	1.3530multiplexer offset coefficient	1.0000multiplexer slope coefficient	1.0000fibre end	0.00T internal ref (°C)	35.69T ext. ref 1 (°C)	27.05T ext. ref 2 (°C)	0.24length (m)	temperature (°C)	Stokes	anti-Stokes-747.200	252.442	0.045	0.099
-746.185	1.054	0.595	0.547
-745.171	176.961	0.279	-0.522
-744.156	-200.000	-0.009	0.461
-743.142	2.992	0.281	-0.262
-742.127	-200.000	0.078	0.697
-741.112	36.065	0.100	-0.112
-740.098	175.019	-0.288	0.535
-739.083	-122.576	-0.168	0.035
-738.069	-13.646	0.066	-0.055
-737.054	-83.363	-0.375	0.153
-736.039	18.623	0.034	0.035
-735.025	-127.339	-0.083	0.015
-734.010	195.994	0.199	0.389
-732.996	181.480	0.085	0.160
-731.981	136.875	-0.201	-0.337
-730.966	-55.346	-0.483	-0.277
-729.952	-145.263	0.060	0.007
-728.937	-129.975	0.389	0.068
-727.923	-43.669	-0.274	-0.177
-726.908	-56.439	0.195	-0.111
-725.894	43.456	0.302	-0.354
-724.879	24.259	0.034	-0.036
-723.864	394.937	-0.158	-0.424
-722.850	-164.940	-0.360	-0.020
-721.835	-48.514	-0.401	0.246
-720.821	-200.000	-0.004	0.480
-719.806	122.696	0.209	0.335
-718.791	800.000	-0.069	-0.259
-717.777	-123.102	-0.277	0.057
-716.762	-100.313	0.578	-0.183
-715.748	144.007	0.125	0.213
-714.733	-46.630	0.527	-0.330
-713.718	800.000	-0.058	0.296
-712.704	109.773	-0.118	0.181
-711.689	-57.103	-0.413	-0.232
-710.675	-136.537	-0.569	-0.084
-709.660	49.155	0.211	-0.254
-708.645	26.370	-0.084	0.090
-707.631	248.158	0.093	0.203
-706.616	-92.033	0.540	0.195
-705.602	105.827	0.417	-0.632
-704.587	-72.749	-0.199	0.093
-703.572	-16.056	-0.208	-0.169
-702.558	112.499	0.290	-0.450
-701.543	-97.242	0.386	-0.128
-700.529	-25.684	0.221	-0.167
-699.514	-200.000	-0.026	-0.217
-698.499	800.000	-0.055	-0.226
-697.485	326.110	-0.166	-0.408
-696.470	-56.369	0.047	-0.027
-695.456	247.303	0.077	-0.167
-694.441	-135.753	0.682	0.102
-693.426	-200.000	-0.033	-0.298
-692.412	44.456	0.277	-0.326
-691.397	105.402	0.163	0.247
-690.383	180.771	-0.048	0.091
-689.368	257.555	-0.109	0.241
-688.354	-27.922	-0.384	-0.284
-687.339	624.479	0.091	-0.296
-686.324	644.344	0.046	0.150
-685.310	-56.556	0.289	-0.163
-684.295	-3.756	0.061	-0.055
-683.281	-113.482	0.346	-0.086
-682.266	-3.667	-0.251	-0.223
-681.251	751.385	-0.185	-0.644
-680.237	170.480	0.165	-0.304
-679.222	4.228	0.214	-0.200
-678.208	-200.000	-0.064	0.369
-677.193	1.126	0.264	0.242
-676.178	-200.000	0.035	-0.550
-675.164	43.527	0.183	-0.214
-674.149	-57.084	0.308	-0.173
-673.135	800.000	-0.051	0.255
-672.120	-200.000	-0.038	0.271
-671.105	800.000	0.022	-0.084
-670.091	-32.941	0.399	0.282
-669.076	800.000	0.051	-0.216
-668.062	432.720	0.079	-0.219
-667.047	-93.242	-0.210	0.074
-666.032	48.296	0.080	-0.096
-665.018	-200.000	0.035	-0.506
-664.003	-140.380	-0.322	-0.043
-662.989	346.710	0.070	-0.177
-661.974	437.545	0.171	0.478
-660.959	-147.780	0.726	0.077
-659.945	-200.000	0.061	-0.684
-658.930	-200.000	0.061	-0.472
-657.916	-73.194	0.283	0.132
-656.901	126.187	0.069	0.112
-655.886	-19.316	0.208	-0.164
-654.872	800.000	0.053	0.253
-653.857	-66.204	-0.244	-0.124
-652.843	-185.654	0.287	-0.005
-651.828	-110.595	0.279	-0.073
-650.814	-118.752	-0.130	-0.029
-649.799	-104.151	-0.591	0.175
-648.784	800.000	0.018	-0.096
-647.770	-129.454	-0.875	0.154
-646.755	103.670	-0.206	-0.310
-645.741	39.347	0.443	-0.507
-644.726	-46.629	-0.460	-0.287
-643.711	120.655	-0.118	0.188
-642.697	-47.067	0.192	0.119
-641.682	800.000	0.060	-0.249
-640.668	-108.092	0.713	-0.196
-639.653	113.192	0.236	-0.366
-638.638	376.442	-0.169	-0.442
-637.624	-43.814	-0.294	0.189
-636.609	171.565	0.082	-0.151
-635.595	21.168	0.051	0.053
-634.580	-165.517	0.159	-0.009
-633.565	-200.000	0.038	-0.350
-632.551	289.700	0.118	0.275
-631.536	-5.938	-0.207	0.180
-630.522	-45.467	0.561	0.354
-629.507	-98.414	0.502	0.163
-628.492	-200.000	-0.016	-0.238
-627.478	-7.610	-0.336	-0.290
-626.463	38.832	-0.374	-0.427
-625.449	-200.000	-0.057	-0.778
-624.434	6.047	0.258	-0.243
-623.419	31.734	0.276	-0.303
-622.405	-38.602	0.281	-0.189
-621.390	-75.437	-0.191	-0.086
-620.376	88.340	-0.412	-0.584
-619.361	-200.000	0.083	-0.636
-618.346	-200.000	-0.012	-0.225
-617.332	-74.762	-0.442	0.202
-616.317	101.193	-0.270	0.402
-615.303	-57.886	-0.352	-0.195
-614.288	255.623	-0.116	-0.255
-613.273	-143.910	0.075	-0.009
-612.259	116.568	-0.212	0.333
-611.244	-2.320	0.081	-0.072
-610.230	-84.089	-0.541	-0.218
-609.215	-200.000	-0.076	0.498
-608.201	-93.874	0.179	-0.063
-607.186	-113.562	0.113	0.028
-606.171	36.266	0.183	-0.206
-605.157	46.651	-0.382	-0.453
-604.142	800.000	-0.106	-0.433
-603.128	12.985	-0.631	-0.622
-602.113	555.089	-0.055	0.169
-601.098	-48.323	0.287	-0.176
-600.084	-92.593	0.040	0.014
-599.069	-122.458	0.553	0.114
-598.055	1.793	0.441	0.405
-597.040	-85.990	-0.374	0.147
-596.025	800.000	0.067	0.245
-595.011	-107.424	0.402	-0.112
-593.996	-158.199	0.242	0.018
-592.982	24.391	-0.183	-0.192
-591.967	479.119	-0.116	-0.337
-590.952	77.216	-0.230	0.313
-589.938	-7.759	0.148	0.127
-588.923	501.783	-0.060	-0.177
-587.909	-200.000	0.222	-0.001
-586.894	-54.828	-0.254	0.146
-585.879	207.316	0.256	0.511
-584.865	-119.530	-0.096	0.021
-583.850	-114.646	0.162	-0.039
-582.836	39.543	0.126	0.144
-581.821	-200.000	-0.024	0.373
-580.806	86.863	0.289	0.407
-579.792	189.544	0.137	-0.262
-578.777	45.727	-0.281	-0.331
-577.763	-151.617	-0.151	-0.014
-576.748	560.855	0.109	-0.338
-575.733	170.487	-0.182	-0.334
-574.719	-194.906	0.109	-0.001
-573.704	-200.000	-0.008	0.314
-572.690	-76.233	-0.162	-0.072
-571.675	-57.491	-0.284	0.158
-570.661	-184.622	-0.161	0.003
-569.646	91.116	0.236	-0.337
-568.631	-13.361	-0.171	0.141
-567.617	-122.682	0.061	0.013
-566.602	-124.585	0.128	-0.025
-565.588	299.177	0.179	-0.421
-564.573	30.344	0.090	-0.098
-563.558	34.766	-0.424	-0.472
-562.544	-15.456	-0.262	-0.213
-561.529	65.807	-0.180	0.233
-560.515	74.536	-0.221	0.296
-559.500	153.714	-0.025	0.044
-558.485	35.238	-0.232	0.259
-557.471	-200.000	-0.315	-0.000
-556.456	-81.550	0.123	0.051
-555.442	-137.091	0.508	0.073
-554.427	26.848	0.074	-0.079
-553.412	-200.000	0.025	-0.290
-552.398	-31.253	0.611	0.437
-551.383	322.739	-0.168	0.408
-550.369	-123.255	-0.147	-0.030
-549.354	-200.000	0.008	0.348
-548.339	793.067	-0.207	-0.729
-547.325	-32.390	-0.048	-0.034
-546.310	682.091	0.103	0.345
-545.296	177.512	0.096	0.178
-544.281	-78.486	0.504	0.219
-543.266	766.133	-0.032	-0.112
-542.252	800.000	0.129	-0.458
-541.237	-200.000	-0.509	0.001
-540.223	-117.413	-0.616	-0.141
-539.208	374.339	-0.072	0.188
-538.193	7.966	0.191	-0.182
-537.179	800.000	0.060	0.281
-536.164	-175.575	-0.499	0.017
-535.150	-200.000	0.013	0.238
-534.135	-72.725	0.240	0.112
-533.121	-152.486	0.521	-0.047
-532.106	-108.231	-0.132	0.036
-531.091	-138.049	0.146	-0.020
-530.077	86.020	-0.048	0.068
-529.062	93.547	-0.123	0.177
-528.048	-45.718	0.533	-0.334
-527.033	297.048	0.109	0.255
-526.018	800.000	0.079	-0.279
-525.004	211.851	0.203	-0.409
-523.989	-96.784	0.256	0.085
-522.975	-80.791	0.178	-0.075
-521.960	-119.309	0.459	-0.101
-520.945	-132.883	0.229	-0.037
-519.931	-200.000	-0.006	0.241
-518.916	-95.393	0.347	0.118
-517.902	-126.493	0.100	-0.019
-516.887	264.354	0.271	-0.602
-515.872	146.498	0.165	-0.282
-514.858	336.419	-0.089	-0.220
-513.843	-3.830	-0.255	0.225
-512.829	-113.282	-0.389	0.096
-511.814	-200.000	-0.025	0.168
-510.799	295.084	0.106	0.246
-509.785	19.358	-0.134	-0.136
-508.770	268.017	-0.050	-0.111
-507.756	-200.000	0.088	-0.500
-506.741	315.853	0.112	-0.271
-505.726	800.000	0.007	-0.033
-504.712	-200.000	-0.042	0.312
-503.697	-77.007	0.226	-0.100
-502.683	-13.784	-0.146	0.120
-501.668	193.809	-0.246	0.474
-500.653	206.560	-0.151	0.300
-499.639	800.000	-0.059	0.253
-498.624	-92.325	0.264	0.094
-497.610	-39.837	0.525	0.348
-496.595	-151.148	0.537	0.051
-495.581	-70.099	0.131	0.063
-494.566	41.017	-0.178	0.204
-493.551	-81.427	-0.153	0.064
-492.537	-60.818	0.062	-0.033
-491.522	23.057	0.127	-0.132
-490.508	-61.721	0.169	0.090
-489.493	77.926	0.022	-0.030
-488.478	42.098	0.301	0.348
-487.464	-131.582	-0.541	-0.089
-486.449	261.197	-0.097	-0.213
-485.435	-200.000	0.037	-0.249
-484.420	-20.032	0.430	-0.336
-483.405	20.834	0.066	0.068
-482.391	10.857	0.231	-0.224
-481.376	298.772	0.037	0.087
-480.362	35.548	-0.047	-0.053
-479.347	-91.276	0.184	-0.067
-478.332	-144.995	-0.453	0.052
-477.318	800.000	-0.030	-0.134
-476.303	-105.850	-0.161	-0.046
-475.289	112.446	-0.120	-0.184
-474.274	-32.232	-0.062	0.044
-473.259	-171.763	0.055	0.002
-472.245	53.448	-0.086	0.104
-471.230	132.819	-0.095	-0.157
-470.216	-130.436	-0.772	0.131
-469.201	-200.000	-0.039	0.322
-468.186	800.000	0.166	0.596
-467.172	-105.237	-0.270	0.078
-466.157	-75.292	0.240	-0.108
-465.143	75.854	-0.114	-0.153
-464.128	-89.745	0.423	-0.156
-463.113	280.215	0.097	-0.221
-462.099	-143.948	0.288	0.034
-461.084	21.756	0.419	0.432
-460.070	637.184	0.133	-0.430
-459.055	-37.785	-0.391	-0.263
-458.040	-98.000	-0.216	-0.070
-457.026	-91.484	-0.160	-0.058
-456.011	-200.000	-0.036	-0.883
-454.997	-69.249	0.453	-0.220
-453.982	59.677	-0.204	0.255
-452.968	6.810	0.304	0.287
-451.953	-118.378	-0.718	-0.160
-450.938	107.030	-0.101	-0.152
-449.924	52.208	-0.377	0.456
-448.909	800.000	-0.034	0.163
-447.895	800.000	-0.044	-0.204
-446.880	800.000	-0.090	-0.340
-445.865	-60.049	0.380	-0.205
-444.851	-200.000	-0.024	0.134
-443.836	-8.103	-0.363	0.310
-442.822	-3.694	0.067	0.059
-441.807	15.272	0.176	-0.174
-440.792	498.402	-0.051	0.150
-439.778	35.960	0.090	0.101
-438.763	-162.824	0.179	-0.011
-437.749	517.548	-0.068	0.203
-436.734	16.600	0.320	0.320
-435.719	800.000	0.027	-0.120
-434.705	-44.996	-0.073	-0.046
-433.690	646.076	-0.133	-0.432
-432.676	8.693	-0.358	-0.342
-431.661	-200.000	-0.023	-0.343
-430.646	-108.200	0.355	-0.097
-429.632	490.196	0.110	-0.321
-428.617	-107.458	0.257	0.071
-427.603	-9.647	0.101	0.085
-426.588	-200.000	0.014	-0.110
-425.573	-200.000	-0.046	-0.331
-424.559	-200.000	0.007	-0.173
-423.544	800.000	-0.115	0.554
-422.530	-10.470	0.391	0.328
-421.515	19.896	-0.130	0.133
-420.500	-133.556	-0.228	0.036
-419.486	-200.000	0.002	0.485
-418.471	136.071	-0.058	0.096
-417.457	-200.000	0.370	-0.000
-416.442	-58.350	-0.305	0.168
-415.428	52.827	0.204	0.248
-414.413	421.736	-0.137	-0.373
-413.398	-6.332	0.195	-0.169
-412.384	-200.000	0.031	0.506
-411.369	-112.484	-0.457	-0.115
-410.355	305.663	-0.158	0.373
-409.340	344.512	-0.227	0.566
-408.325	-133.541	0.217	-0.034
-407.311	-46.788	-0.177	-0.109
-406.296	11.423	-0.216	-0.209
-405.282	-119.155	-0.429	-0.094
-404.267	800.000	-0.127	0.649
-403.252	22.014	0.439	0.453
-402.238	-161.792	0.277	0.018
-401.223	-24.359	0.096	-0.072
-400.209	35.963	-0.191	-0.213
-399.194	279.335	0.101	0.230
-398.179	-59.581	0.127	0.068
-397.165	267.697	-0.161	-0.357
-396.150	-200.000	-0.040	-0.311
-395.136	195.800	0.028	-0.053
-394.121	-173.223	0.207	0.008
-393.106	-102.852	-0.329	0.098
-392.092	92.510	-0.050	0.071
-391.077	464.341	-0.155	0.440
-390.063	-31.071	-0.095	0.068
-389.048	199.742	0.138	-0.268
-388.033	-3.059	0.324	0.285
-387.019	-112.760	-0.228	0.057
-386.004	-165.785	-0.151	-0.008
-384.990	655.109	-0.072	0.237
-383.975	-200.000	-0.061	0.404
-382.960	45.188	-0.239	0.279
-381.946	-66.248	0.248	-0.125
-380.931	-200.000	-0.025	0.225
-379.917	-200.000	-0.022	0.139
-378.902	-81.346	0.938	0.389
-377.888	-200.000	-0.020	0.590
-376.873	101.151	-0.211	-0.310
-375.858	196.524	0.257	0.496
-374.844	45.387	0.139	0.163
-373.829	-86.352	-0.173	-0.067
-372.815	-136.247	-0.412	-0.060
-371.800	-98.739	0.161	0.051
-370.785	297.779	0.052	0.121
-369.771	22.556	0.250	0.259
-368.756	306.852	-0.157	0.371
-367.742	-162.784	0.161	0.010
-366.727	-131.780	0.423	-0.069
-365.712	569.015	-0.062	-0.192
-364.698	54.290	-0.181	0.221
-363.683	-83.960	-0.523	0.209
-362.669	-144.913	0.128	-0.015
-361.654	-45.380	-0.524	0.327
-360.639	54.597	0.048	0.058
-359.625	-74.268	0.147	0.067
-358.610	-132.130	-0.454	0.074
-357.596	-200.000	-0.063	0.418
-356.581	22.287	-0.046	-0.047
-355.566	-200.000	-0.065	-0.394
-354.552	-200.000	0.003	0.203
-353.537	747.475	-0.030	-0.104
-352.523	-84.940	0.315	-0.124
-351.508	42.702	0.119	0.136
-350.493	-65.018	-0.400	0.203
-349.479	387.967	0.149	0.391
-348.464	76.393	-0.232	0.311
-347.450	177.260	-0.099	0.182
-346.435	49.852	-0.326	-0.389
-345.420	-159.682	0.121	0.008
-344.406	-200.000	0.084	0.492
-343.391	-200.000	0.005	-0.167
-342.377	-7.888	-0.446	-0.379
-341.362	41.476	-0.317	-0.362
-340.348	-200.000	0.026	0.185
-339.333	-128.171	0.072	0.013
-338.318	-171.166	-0.071	-0.003
-337.304	30.169	0.283	0.304
-336.289	89.180	0.151	0.212
-335.275	748.660	-0.023	0.079
-334.260	-59.806	-0.141	-0.076
-333.245	-6.974	0.390	-0.334
-332.231	-126.733	0.380	0.070
-331.216	-194.206	-0.170	-0.002
-330.202	78.178	-0.084	0.113
-329.187	-94.210	-0.353	-0.121
-328.172	-34.040	0.456	0.315
-327.158	11.810	-0.460	0.446
-326.143	-200.000	0.017	0.128
-325.129	227.750	-0.160	-0.330
-324.114	247.662	0.037	-0.079
-323.099	424.001	-0.126	0.343
-322.085	629.669	-0.050	0.159
-321.070	109.936	-0.176	0.266
-320.056	52.602	-0.135	0.162
-319.041	226.321	-0.174	0.357
-318.026	-10.575	0.286	-0.238
-317.012	-77.029	-0.250	-0.110
-315.997	-176.153	-0.551	0.018
-314.983	-6.372	0.345	0.296
-313.968	255.985	0.126	0.275
-312.953	-75.328	-0.348	-0.156
-311.939	-93.826	0.293	0.101
-310.924	-52.677	0.066	-0.038
-309.910	800.000	-0.052	0.194
-308.895	96.646	0.161	0.233
-307.880	69.681	-0.068	-0.088
-306.866	-94.429	0.062	0.021
-305.851	3.881	-0.257	-0.237
-304.837	-200.000	-0.071	-0.632
-303.822	800.000	-0.062	-0.304
-302.807	-92.853	-0.030	0.010
-301.793	-184.277	-0.081	0.002
-300.778	-43.439	0.057	0.036
-299.764	-125.539	-0.449	0.085
-298.749	74.933	0.161	0.214
-297.735	-155.939	0.029	0.002
-296.720	-200.000	0.067	0.444
-295.705	-200.000	0.033	0.186
-294.691	455.663	-0.118	-0.331
-293.676	-130.674	0.161	-0.027
-292.662	-200.000	-0.016	-0.621
-291.647	800.000	-0.029	0.153
-290.632	-170.261	-0.371	-0.016
-289.618	88.343	0.329	-0.461
-288.603	34.613	0.198	-0.217
-287.589	438.367	-0.076	-0.211
-286.574	227.746	-0.064	-0.132
-285.559	287.448	-0.077	0.176
-284.545	715.387	0.014	-0.048
-283.530	183.053	-0.144	0.269
-282.516	800.000	0.036	0.167
-281.501	-168.664	0.382	-0.018
-280.486	800.000	-0.048	0.198
-279.472	-150.120	0.365	-0.035
-278.457	-49.496	-0.083	-0.050
-277.443	-52.191	-0.341	0.198
-276.428	-49.214	-0.311	0.187
-275.413	-166.902	0.262	0.013
-274.399	698.482	-0.127	-0.424
-273.384	-27.869	0.165	-0.120
-272.370	-91.638	-0.227	0.081
-271.355	115.935	0.198	-0.306
-270.340	88.478	0.292	-0.410
-269.326	114.986	-0.076	0.117
-268.311	-112.821	0.204	0.051
-267.297	-129.143	0.479	0.084
-266.282	10.763	0.200	0.192
-265.267	800.000	-0.056	-0.256
-264.253	-200.000	0.021	0.162
-263.238	800.000	0.094	-0.444
-262.224	-93.782	0.581	0.200
-261.209	-200.000	0.011	-0.067
-260.195	-30.478	-0.187	0.133
-259.180	671.414	-0.056	-0.185
-258.165	195.447	0.173	-0.332
-257.151	-200.000	-0.040	0.535
-256.136	42.273	-0.137	-0.157
-255.122	-130.644	0.475	-0.080
-254.107	50.656	0.063	0.075
-253.092	-94.732	-0.477	0.162
-252.078	108.499	-0.021	0.032
-251.063	-47.292	-0.369	0.226
-250.049	800.000	0.055	-0.210
-249.034	-185.950	0.190	0.003
-248.019	86.511	-0.324	-0.450
-247.005	29.514	0.152	0.163
-245.990	-110.163	-0.270	0.070
-244.976	135.785	0.033	-0.055
-243.961	-200.000	0.095	0.536
-242.946	-200.000	0.008	0.058
-241.932	366.374	-0.132	0.335
-240.917	-44.977	-0.301	0.188
-239.903	-17.300	0.287	-0.227
-238.888	674.124	-0.176	-0.577
-237.873	-100.077	0.217	-0.068
-236.859	-51.830	0.226	-0.132
-235.844	-94.542	0.123	0.042
-234.830	176.170	0.113	0.208
-233.815	42.408	0.162	-0.185
-232.800	-182.138	0.370	-0.009
-231.786	300.238	-0.173	-0.403
-230.771	-49.286	-0.488	-0.292
-229.757	106.503	-0.138	0.206
-228.742	-46.819	-0.157	-0.096
-227.727	-28.057	0.297	0.216
-226.713	-140.722	-0.287	-0.037
-225.698	245.949	-0.157	-0.334
-224.684	-200.000	-0.023	-0.225
-223.669	-16.851	-0.163	-0.129
-222.655	-3.227	-0.092	-0.081
-221.640	670.267	0.062	0.203
-220.625	-85.916	0.178	-0.069
-219.611	298.232	0.182	0.423
-218.596	-200.000	0.001	-0.066
-217.582	19.258	0.199	-0.201
-216.567	-200.000	0.023	-0.432
-215.552	96.841	0.204	-0.294
-214.538	503.462	0.094	-0.276
-213.523	-155.297	-0.338	-0.027
-212.509	46.462	-0.246	-0.287
-211.494	-52.204	-0.135	-0.078
-210.479	-132.511	-0.044	0.007
-209.465	-63.288	0.323	0.166
-208.450	-116.843	0.145	0.033
-207.436	-75.715	0.104	0.046
-206.421	110.062	-0.196	-0.295
-205.406	40.372	-0.201	0.227
-204.392	1.075	-0.382	0.344
-203.377	-156.077	-0.350	0.027
-202.363	191.251	-0.096	0.183
-201.348	-155.544	0.323	-0.026
-200.333	14.521	0.250	0.245
-199.319	-63.663	0.372	-0.191
-198.304	594.851	0.131	-0.408
-197.290	-2.130	0.153	-0.135
-196.275	-200.000	-0.032	0.211
-195.260	-200.000	-0.022	0.451
-194.246	266.503	-0.153	-0.337
-193.231	-144.885	0.195	-0.022
-192.217	800.000	0.076	0.336
-191.202	429.729	0.135	0.368
-190.187	372.098	0.162	-0.414
-189.173	192.708	-0.106	-0.202
-188.158	-2.143	0.274	-0.241
-187.144	86.768	0.035	0.048
-186.129	201.582	-0.165	0.320
-185.114	374.359	0.211	-0.542
-184.100	-54.188	-0.467	0.265
-183.085	-89.461	-0.570	0.209
-182.071	23.989	-0.361	0.374
-181.056	-43.752	0.097	0.061
-180.042	-23.524	-0.098	0.073
-179.027	-83.890	0.205	0.081
-178.012	-59.447	0.216	0.116
-176.998	-23.864	0.352	-0.264
-175.983	-60.355	-0.119	-0.063
-174.969	11.796	-0.375	0.361
-173.954	800.000	-0.063	0.324
-172.939	-149.350	0.505	-0.050
-171.925	800.000	0.061	-0.243
-170.910	-200.000	-0.002	-0.131
-169.896	-41.682	0.579	-0.372
-168.881	-128.164	0.470	0.083
-167.866	-186.389	0.373	-0.007
-166.852	87.454	0.157	-0.217
-165.837	-86.671	-0.096	0.037
-164.823	-3.935	-0.255	0.221
-163.808	-200.000	0.026	0.264
-162.793	270.495	-0.150	-0.332
-161.779	-158.487	-0.539	-0.039
-160.764	391.712	0.055	0.143
-159.750	-55.928	0.128	-0.071
-158.735	-168.046	0.723	-0.035
-157.720	-0.959	0.259	-0.230
-156.706	-17.716	-0.216	-0.170
-155.691	238.392	0.171	0.358
-154.677	79.591	-0.348	0.469
-153.662	-77.266	-0.288	-0.125
-152.647	113.615	-0.083	0.127
-151.633	549.489	0.086	-0.261
-150.618	52.195	0.073	0.087
-149.604	-126.641	-0.478	0.088
-148.589	-152.646	-0.261	0.023
-147.574	39.008	0.145	-0.163
-146.560	-200.000	-0.048	-0.705
-145.545	-49.877	0.224	0.133
-144.531	760.020	0.123	0.420
-143.516	-182.539	-0.103	0.002
-142.502	-178.818	0.497	-0.014
-141.487	-83.494	-0.322	0.128
-140.472	-84.550	-0.245	0.096
-139.458	800.000	-0.110	-0.488
-138.443	-175.968	-0.437	0.014
-137.429	-100.238	-0.613	0.189
-136.414	173.074	-0.077	-0.139
-135.399	631.792	0.104	-0.332
-134.385	26.299	0.362	0.378
-133.370	-119.738	-0.142	-0.030
-132.356	137.427	-0.239	-0.392
-131.341	82.860	0.248	0.338
-130.326	-134.895	0.228	-0.034
-129.312	-200.000	0.066	-0.499
-128.297	-150.532	0.355	-0.034
-127.283	255.135	0.053	-0.115
-126.268	-84.897	0.419	0.164
-125.253	-154.931	-0.405	-0.033
-124.239	-200.000	0.041	-0.704
-123.224	-45.036	-0.472	0.293
-122.210	800.000	0.044	-0.215
-121.195	78.270	0.222	0.298
-120.180	-200.000	-0.066	-0.393
-119.166	41.855	0.143	0.162
-118.151	135.334	0.113	-0.184
-117.137	210.374	0.078	0.154
-116.122	270.905	-0.091	0.201
-115.107	86.118	-0.229	0.316
-114.093	-121.821	0.212	-0.043
-113.078	-26.302	0.195	-0.143
-112.064	-42.780	-0.169	-0.107
-111.049	-200.000	-0.019	-0.151
-110.034	-200.000	-0.041	0.232
-109.020	774.962	0.061	-0.209
-108.005	-90.490	0.197	-0.071
-106.991	-78.337	0.339	0.145
-105.976	800.000	0.067	0.303
-104.962	51.363	-0.074	-0.088
-103.947	25.915	0.283	0.295
-102.932	800.000	0.038	0.186
-101.918	273.067	-0.085	-0.188
-100.903	-169.394	0.025	-0.001
-99.889	360.190	0.163	0.409
-98.874	21.803	0.331	0.337
-97.859	-41.092	-0.229	0.148
-96.845	6.576	-0.350	0.325
-95.830	-134.069	-0.447	0.068
-94.816	800.000	-0.038	0.150
-93.801	-73.250	0.455	0.207
-92.786	-30.391	-0.085	-0.060
-91.772	340.955	-0.102	0.249
-90.757	-200.000	0.002	0.038
-89.743	5.029	-0.182	0.167
-88.728	-162.438	0.437	0.027
-87.713	38.073	0.118	0.131
-86.699	-104.223	-0.210	0.060
-85.684	-8.583	0.213	0.178
-84.670	154.427	0.132	0.226
-83.655	37.217	-0.401	-0.444
-82.640	-70.612	0.335	-0.158
-81.626	-200.000	-0.054	0.320
-80.611	123.365	0.198	-0.311
-79.597	-109.121	-0.311	0.082
-78.582	458.993	-0.122	0.342
-77.567	236.078	0.137	0.285
-76.553	-200.000	-0.054	0.360
-75.538	96.193	-0.138	0.198
-74.524	388.536	-0.124	0.323
-73.509	-71.871	-0.350	0.162
-72.494	48.329	0.254	0.297
-71.480	-72.087	0.721	-0.333
-70.465	-113.432	-0.285	-0.069
-69.451	-60.793	-0.308	-0.162
-68.436	-24.309	-0.282	-0.210
-67.422	5.439	0.361	-0.332
-66.407	-79.502	-0.112	0.047
-65.392	72.761	0.265	0.346
-64.378	-169.143	0.300	0.014
-63.363	-7.918	0.397	0.334
-62.349	-156.968	0.348	0.026
-61.334	17.850	-1.312	-1.304
-60.319	123.757	0.339	0.533
-59.305	366.291	-2.540	-6.424
-58.290	-14.413	3.213	2.579
-57.276	563.869	3.502	10.645
-56.261	-200.000	14.581	224.858
-55.246	471.485	1164.007	3286.217
-54.232	63.794	2811.996	3529.814
-53.217	72.178	2712.214	3528.997
-52.203	70.051	2439.489	3145.734
-51.188	40.097	2087.661	2342.671
-50.173	39.226	1955.912	2185.010
-49.159	36.702	1944.860	2144.511
-48.144	36.286	1940.320	2134.793
-47.130	36.076	1938.876	2130.780
-46.115	36.059	1936.968	2128.417
-45.100	36.033	1935.394	2126.310
-44.086	35.932	1934.472	2124.088
-43.071	35.932	1933.006	2122.393
-42.057	36.017	1931.244	2121.321
-41.042	35.832	1930.528	2118.399
-40.027	35.937	1929.281	2118.110
-39.013	36.026	1926.654	2116.127
-37.998	35.965	1925.168	2113.734
-36.984	35.961	1924.397	2112.759
-35.969	35.906	1922.647	2110.152
-34.954	35.946	1922.174	2109.985
-33.940	35.887	1921.239	2108.231
-32.925	35.859	1920.030	2106.514
-31.911	35.909	1917.594	2104.306
-30.896	35.866	1916.657	2102.717
-29.881	35.657	1916.287	2099.933
-28.867	35.760	1914.402	2098.912
-27.852	35.730	1912.907	2096.864
-26.838	35.501	1911.632	2092.875
-25.823	35.732	1909.517	2093.008
-24.809	35.567	1908.415	2089.913
-23.794	35.744	1906.913	2090.115
-22.779	35.794	1905.707	2089.257
-21.765	35.798	1903.954	2087.300
-20.750	35.649	1903.414	2085.000
-19.736	35.657	1902.434	2083.926
-18.721	35.736	1900.843	2082.967
-17.706	35.593	1900.124	2080.540
-16.692	35.615	1898.643	2079.066
-15.677	35.573	1897.402	2077.175
-14.663	35.468	1897.379	2075.923
-13.648	35.572	1895.312	2074.703
-12.633	35.566	1893.712	2072.810
-11.619	35.592	1892.893	2072.107
-10.604	35.525	1891.074	2069.313
-9.590	35.440	1890.772	2067.977
-8.575	35.478	1889.321	2066.721
-7.560	35.600	1887.560	2066.033
-6.546	35.400	1886.789	2062.949
-5.531	35.519	1885.559	2062.808
-4.517	35.421	1884.985	2061.038
-3.502	35.470	1884.195	2060.617
-2.487	35.518	1882.975	2059.718
-1.473	35.606	1879.807	2057.126
-0.458	35.503	1859.763	2034.004
0.556	31.036	1990.463	2113.472
1.571	29.285	2204.919	2318.790
2.586	30.829	2251.745	2387.668
3.600	30.773	2255.060	2390.168
4.615	30.899	2255.665	2392.149
5.629	30.696	2252.585	2385.979
6.644	30.888	2251.081	2386.572
7.659	31.027	2249.547	2386.454
8.673	31.315	2248.051	2388.279
9.688	30.429	2251.650	2380.405
10.702	26.887	2318.860	2404.086
11.717	23.188	2381.775	2418.315
12.731	12.007	2352.540	2235.810
13.746	1.958	2324.490	2072.166
14.761	0.434	2319.018	2046.275
15.775	0.245	2317.616	2042.210
16.790	0.167	2315.522	2039.058
17.804	0.180	2313.830	2037.509
18.819	0.110	2312.741	2035.355
19.834	-0.003	2312.835	2033.649
20.848	0.004	2310.300	2031.271
21.863	0.059	2307.811	2029.592
22.877	0.174	2305.625	2028.987
23.892	0.052	2304.998	2026.532
24.907	0.091	2302.567	2024.684
25.921	0.017	2300.654	2021.753
26.936	0.034	2298.634	2019.964
27.950	0.046	2296.309	2017.847
28.965	0.132	2293.210	2016.035
29.980	0.054	2292.829	2014.420
30.994	0.249	2290.847	2015.048
32.009	6.277	2310.157	2113.350
33.023	20.322	2352.044	2343.283
34.038	26.682	2366.343	2443.786
35.053	27.400	2363.949	2450.735
36.067	27.141	2360.237	2443.099
37.082	26.932	2358.123	2437.797
38.096	27.046	2356.894	2437.769
39.111	27.322	2355.781	2440.042
40.126	27.212	2352.793	2435.182
41.140	27.275	2351.950	2434.869
42.155	27.416	2349.992	2434.442
43.169	27.175	2346.826	2427.640
44.184	27.295	2345.066	2427.128
45.199	27.308	2342.681	2424.551
46.213	27.171	2340.809	2420.481
47.228	27.118	2340.036	2418.694
48.242	27.378	2338.976	2420.775
49.257	27.549	2338.517	2422.298
50.271	27.823	2336.004	2423.060
51.286	27.823	2333.472	2420.153
52.301	27.344	2330.560	2410.456
53.315	27.310	2329.918	2409.056
54.330	27.497	2329.932	2411.273
55.344	27.720	2327.022	2410.931
56.359	27.994	2322.975	2410.084
57.374	27.828	2321.588	2406.156
58.388	27.681	2318.848	2401.085
59.403	27.560	2315.236	2395.461
60.417	27.285	2312.269	2388.472
61.432	27.560	2311.104	2390.615
62.447	27.493	2309.096	2387.366
63.461	27.528	2306.816	2385.181
64.476	27.566	2304.861	2383.376
65.490	27.740	2304.238	2384.727
66.505	27.540	2301.363	2378.852
67.520	27.043	2299.496	2370.113
68.534	27.203	2298.227	2370.615
69.549	27.085	2294.735	2365.190
70.563	27.132	2291.498	2362.189
71.578	27.110	2290.476	2360.566
72.593	27.468	2289.595	2364.037
73.607	27.367	2287.621	2360.409
74.622	27.332	2286.680	2358.696
75.636	27.470	2283.028	2356.447
76.651	27.368	2281.937	2353.708
77.666	27.626	2280.407	2355.196
78.680	27.631	2278.057	2352.548
79.695	27.387	2274.559	2345.500
80.709	26.589	2270.563	2330.778
81.724	26.250	2268.041	2323.526
82.739	26.924	2268.324	2332.248
83.753	27.820	2268.872	2344.106
84.768	27.775	2266.978	2341.293
85.782	27.697	2264.935	2337.897
86.797	27.561	2263.109	2333.979
87.812	27.367	2259.499	2327.476
88.826	27.377	2258.163	2325.961
89.841	27.599	2257.460	2327.805
90.855	27.812	2256.045	2328.795
91.870	27.340	2253.144	2319.481
92.884	27.278	2250.280	2315.455
93.899	27.168	2249.479	2312.946
94.914	26.901	2247.817	2307.553
95.928	26.544	2247.340	2302.226
96.943	26.871	2244.785	2303.510
97.957	27.201	2243.992	2306.624
98.972	27.495	2241.296	2307.320
99.987	27.327	2237.852	2301.360
101.001	27.246	2235.655	2297.795
102.016	27.428	2234.397	2298.542
103.030	27.282	2231.708	2293.647
104.045	27.125	2228.633	2288.234
105.060	27.374	2226.904	2289.327
106.074	27.632	2226.302	2291.697
107.089	27.264	2223.726	2284.130
108.103	26.978	2222.569	2279.051
109.118	27.365	2222.785	2283.891
110.133	27.513	2220.757	2283.388
111.147	27.866	2217.970	2284.689
112.162	27.852	2216.701	2282.940
113.176	27.717	2215.344	2279.567
114.191	27.277	2212.349	2270.703
115.206	27.126	2209.994	2266.111
116.220	27.471	2208.257	2268.387
117.235	27.435	2205.702	2265.034
118.249	27.321	2203.532	2261.118
119.264	27.329	2202.764	2260.160
120.279	27.015	2201.579	2254.747
121.293	27.055	2198.709	2252.035
122.308	27.164	2197.254	2251.637
123.322	26.949	2195.203	2246.589
124.337	26.383	2193.185	2237.223
125.352	26.415	2193.760	2237.936
126.366	27.154	2194.772	2247.892
127.381	27.692	2192.072	2251.539
128.395	27.699	2189.614	2248.825
129.410	27.338	2186.731	2241.129
130.424	27.179	2184.722	2236.835
131.439	27.538	2183.820	2240.085
132.454	27.412	2182.081	2236.479
133.468	27.603	2180.937	2237.386
134.483	27.650	2177.373	2234.040
135.497	27.505	2176.411	2231.010
136.512	27.774	2175.295	2232.899
137.527	27.963	2174.016	2233.646
138.541	27.919	2172.612	2231.402
139.556	28.085	2171.845	2232.383
140.570	28.088	2170.108	2230.357
141.585	27.642	2167.070	2221.519
142.600	27.524	2164.438	2217.105
143.614	27.473	2163.784	2215.542
144.629	27.575	2161.183	2213.863
145.643	27.230	2160.499	2208.691
146.658	27.227	2157.523	2205.345
147.673	26.883	2155.122	2198.438
148.687	26.746	2153.216	2194.560
149.702	26.862	2151.911	2194.384
150.716	27.091	2152.484	2197.486
151.731	27.678	2152.773	2204.646
152.746	27.773	2151.639	2204.377
153.760	27.239	2148.956	2194.896
154.775	26.753	2147.403	2187.150
155.789	26.754	2145.829	2185.295
156.804	26.990	2143.649	2185.669
157.819	27.170	2139.183	2183.030
158.833	27.114	2137.222	2180.090
159.848	27.429	2135.909	2182.287
160.862	27.588	2134.752	2182.760
161.877	27.918	2134.794	2186.512
162.892	27.843	2134.593	2185.138
163.906	28.085	2132.783	2185.934
164.921	27.880	2131.671	2182.076
165.935	27.666	2128.438	2175.931
166.950	27.368	2125.601	2169.199
167.964	27.426	2123.472	2167.460
168.979	27.342	2122.075	2164.772
169.994	27.355	2121.396	2163.978
171.008	27.214	2118.621	2159.211
172.023	27.007	2117.100	2154.930
173.037	27.355	2116.556	2158.262
174.052	27.402	2114.457	2156.424
175.067	27.338	2112.020	2152.925
176.081	27.090	2110.959	2148.638
177.096	27.290	2110.327	2150.113
178.110	27.548	2108.093	2150.635
179.125	27.287	2107.188	2146.368
180.140	27.434	2105.860	2146.500
181.154	27.548	2105.273	2146.992
182.169	27.713	2104.695	2148.100
183.183	27.631	2103.012	2145.157
184.198	27.551	2100.961	2141.862
185.213	27.341	2099.935	2138.074
186.227	27.512	2099.129	2139.020
187.242	27.471	2095.971	2135.067
188.256	27.300	2094.683	2131.485
189.271	27.635	2093.240	2133.695
190.286	27.381	2091.009	2128.189
191.300	26.983	2087.540	2119.726
192.315	27.228	2086.542	2121.332
193.329	27.549	2085.747	2124.033
194.344	27.738	2085.123	2125.359
195.359	27.600	2083.725	2122.065
196.373	27.625	2082.348	2120.696
197.388	27.535	2079.761	2116.756
198.402	27.393	2078.141	2113.205
199.417	27.687	2075.156	2113.332
200.432	27.656	2073.421	2110.961
201.446	27.452	2072.136	2107.023
202.461	27.359	2069.758	2103.269
203.475	27.260	2068.593	2100.687
204.490	27.372	2066.260	2099.367
205.504	27.404	2064.538	2097.736
206.519	27.402	2062.578	2095.467
207.534	27.578	2061.421	2096.079
208.548	27.926	2060.894	2099.317
209.563	27.398	2058.588	2090.619
210.577	27.514	2058.201	2091.311
211.592	27.882	2056.907	2093.990
212.607	27.347	2055.600	2086.244
213.621	26.660	2053.729	2076.185
214.636	26.698	2051.970	2074.600
215.650	27.669	2052.103	2085.657
216.665	28.074	2051.105	2089.043
217.680	27.877	2048.796	2084.174
218.694	27.839	2046.279	2080.933
219.709	27.356	2043.789	2072.628
220.723	27.307	2042.988	2071.004
221.738	27.899	2041.723	2076.243
222.753	28.121	2039.835	2076.604
223.767	27.733	2037.944	2070.006
224.782	27.514	2035.605	2064.887
225.796	27.477	2035.461	2064.074
226.811	27.784	2033.530	2065.363
227.826	27.627	2031.390	2061.152
228.840	27.456	2028.925	2056.467
229.855	27.420	2028.075	2054.947
230.869	27.376	2026.888	2053.009
231.884	27.527	2025.814	2053.386
232.899	27.738	2024.729	2054.424
233.913	27.662	2023.939	2052.520
234.928	27.727	2022.341	2051.383
235.942	27.197	2019.898	2042.676
236.957	27.109	2018.175	2039.700
237.972	27.278	2017.700	2040.877
238.986	27.305	2017.020	2040.252
240.001	27.039	2014.547	2034.511
241.015	26.947	2013.057	2031.733
242.030	27.481	2013.210	2037.650
243.045	27.546	2011.103	2036.001
244.059	27.648	2010.602	2036.390
245.074	27.977	2008.441	2037.645
246.088	27.692	2005.333	2031.059
247.103	27.719	2003.667	2029.430
248.117	28.132	2002.946	2033.080
249.132	28.180	2000.701	2031.087
250.147	27.710	1997.370	2022.234
251.161	27.110	1996.399	2014.317
252.176	27.247	1994.642	2013.829
253.190	27.287	1992.369	2011.744
254.205	27.118	1991.037	2008.274
255.220	27.098	1988.968	2005.728
256.234	26.752	1987.263	1999.936
257.249	26.765	1986.711	1999.282
258.263	27.100	1986.534	2002.576
259.278	27.287	1986.003	2003.876
260.293	27.369	1984.644	2003.167
261.307	27.460	1981.388	2000.649
262.322	27.423	1980.467	1999.073
263.336	26.935	1977.942	1990.901
264.351	27.097	1976.685	1991.177
265.366	27.444	1976.527	1994.607
266.380	27.604	1975.531	1995.119
267.395	27.406	1974.388	1991.548
268.409	27.599	1972.337	1991.360
269.424	27.701	1971.228	1991.128
270.439	27.543	1970.526	1988.442
271.453	27.895	1968.933	1990.458
272.468	27.418	1965.718	1981.756
273.482	26.938	1964.472	1975.006
274.497	27.355	1961.894	1976.729
275.512	27.735	1959.957	1978.684
276.526	27.661	1959.376	1977.064
277.541	27.549	1955.194	1971.389
278.555	27.164	1953.836	1965.594
279.570	27.212	1952.466	1964.506
280.585	26.991	1951.444	1960.846
281.599	27.191	1950.216	1961.546
282.614	27.514	1949.276	1963.866
283.628	27.310	1947.599	1959.728
284.643	26.872	1945.535	1952.682
285.657	26.501	1943.054	1945.950
286.672	26.385	1940.751	1942.153
287.687	26.082	1938.951	1936.857
288.701	26.076	1937.492	1935.099
289.716	25.688	1934.923	1928.118
290.730	24.770	1931.062	1914.179
291.745	25.573	1931.798	1923.313
292.760	26.209	1932.477	1930.594
293.774	26.533	1933.020	1934.382
294.789	27.397	1934.405	1944.821
295.803	27.554	1932.764	1944.630
296.818	27.506	1930.760	1941.863
297.833	27.846	1930.230	1944.737
298.847	27.643	1927.963	1940.052
299.862	27.233	1926.298	1933.762
300.876	27.322	1924.934	1933.111
301.891	27.483	1924.658	1934.319
302.906	27.501	1923.395	1933.012
303.920	27.498	1921.952	1931.293
304.935	27.873	1920.339	1933.437
305.949	27.735	1918.381	1929.767
306.964	27.667	1916.729	1927.157
307.979	27.308	1912.201	1918.566
308.993	25.710	1907.038	1896.250
310.008	24.112	1901.028	1873.160
311.022	23.765	1900.109	1868.368
312.037	24.017	1898.897	1869.617
313.052	23.909	1896.085	1865.482
314.066	23.590	1893.843	1859.691
315.081	23.640	1893.052	1859.223
316.095	23.757	1891.699	1858.896
317.110	23.504	1890.159	1854.503
318.125	23.518	1889.556	1853.834
319.139	23.498	1888.252	1852.133
320.154	23.716	1886.970	1852.936
321.168	23.572	1886.364	1850.611
322.183	25.013	1889.503	1868.590
323.197	27.078	1891.569	1892.046
324.212	27.598	1890.849	1896.548
325.227	27.375	1888.716	1891.849
326.241	27.522	1887.382	1891.818
327.256	27.716	1886.728	1892.964
328.270	27.281	1885.495	1886.966
329.285	27.294	1884.693	1886.066
330.300	27.435	1884.256	1886.875
331.314	27.112	1882.431	1881.459
332.329	26.987	1880.506	1878.011
333.343	27.227	1878.323	1878.097
334.358	27.315	1877.070	1877.533
335.373	27.453	1876.208	1877.877
336.387	27.986	1874.986	1881.944
337.402	27.899	1872.923	1878.748
338.416	27.780	1871.662	1876.037
339.431	27.853	1870.264	1875.158
340.446	27.754	1867.743	1871.389
341.460	27.071	1864.359	1860.745
342.475	26.845	1862.441	1856.283
343.489	25.556	1857.329	1837.729
344.504	24.117	1852.947	1818.419
345.519	23.717	1851.103	1812.295
346.533	23.613	1848.670	1808.621
347.548	23.577	1847.499	1806.899
348.562	23.719	1846.860	1807.507
349.577	23.755	1846.263	1807.070
350.592	24.013	1845.749	1808.994
351.606	24.033	1843.965	1807.226
352.621	23.672	1842.340	1801.745
353.635	23.687	1840.585	1799.959
354.650	24.647	1842.860	1811.759
355.665	26.336	1845.072	1830.931
356.679	26.848	1844.657	1835.505
357.694	27.313	1845.028	1840.385
358.708	27.676	1844.394	1843.218
359.723	27.442	1843.084	1839.320
360.738	27.331	1841.082	1835.972
361.752	27.264	1840.718	1834.711
362.767	27.713	1838.756	1837.085
363.781	27.792	1836.648	1835.549
364.796	27.780	1834.901	1833.470
365.810	27.631	1833.645	1830.486
366.825	27.507	1830.445	1825.828
367.840	25.858	1824.784	1803.385
368.854	23.945	1820.189	1779.412
369.869	23.589	1818.840	1774.306
370.883	23.763	1817.834	1774.859
371.898	24.056	1816.667	1776.442
372.913	23.963	1815.226	1773.895
373.927	23.567	1812.919	1767.459
374.942	23.663	1812.835	1768.133
375.956	24.639	1814.154	1778.975
376.971	25.247	1814.641	1785.320
377.986	25.501	1812.358	1785.394
379.000	25.625	1810.421	1784.517
380.015	25.545	1810.146	1783.229
381.029	26.675	1810.656	1794.776
382.044	27.380	1811.254	1802.179
383.059	27.546	1809.735	1802.097
384.073	27.507	1809.499	1801.264
385.088	27.612	1808.620	1801.213
386.102	27.537	1807.159	1798.795
387.117	27.297	1804.738	1793.798
388.132	27.372	1804.233	1793.823
389.146	27.439	1804.051	1794.090
390.161	27.061	1801.761	1787.860
391.175	26.992	1797.637	1782.871
392.190	27.067	1794.576	1780.357
393.205	27.323	1794.967	1783.054
394.219	27.436	1792.713	1781.719
395.234	27.230	1791.370	1778.143
396.248	27.209	1788.985	1775.355
397.263	27.115	1786.925	1772.183
398.278	27.234	1786.030	1772.249
399.292	27.193	1784.160	1769.777
400.307	26.722	1783.213	1764.020
401.321	26.279	1781.814	1758.096
402.336	26.477	1779.023	1757.060
403.350	26.112	1776.646	1750.945
404.365	25.869	1775.641	1747.375
405.380	25.797	1771.960	1742.847
406.394	24.183	1767.868	1722.934
407.409	23.603	1766.106	1715.383
408.423	23.767	1764.855	1715.550
409.438	23.757	1762.912	1713.357
410.453	23.653	1762.075	1711.331
411.467	23.686	1762.077	1711.452
412.482	24.490	1762.809	1719.746
413.496	26.601	1766.306	1743.405
414.511	27.623	1765.186	1751.962
415.526	27.340	1763.025	1746.886
416.540	27.399	1761.841	1746.071
417.555	27.259	1761.057	1743.729
418.569	27.208	1760.924	1742.898
419.584	27.027	1760.233	1740.265
420.599	27.218	1759.954	1741.616
421.613	27.418	1759.563	1742.952
422.628	27.335	1756.912	1739.318
423.642	27.049	1754.546	1734.022
424.657	26.452	1752.120	1725.690
425.672	26.613	1750.400	1725.332
426.686	26.735	1749.986	1725.888
427.701	26.390	1748.276	1720.693
428.715	26.437	1746.965	1719.650
429.730	26.695	1746.192	1721.146
430.745	27.255	1745.921	1726.019
431.759	27.461	1746.985	1728.826
432.774	27.962	1746.824	1733.241
433.788	26.779	1739.986	1715.006
434.803	24.953	1737.330	1694.830
435.818	24.625	1735.973	1690.191
436.832	24.537	1735.588	1688.770
437.847	23.897	1729.113	1676.208
438.861	15.403	1703.805	1571.830
439.876	3.324	1681.244	1438.028
440.890	0.461	1674.898	1405.646
441.905	0.249	1674.304	1402.986
442.920	0.145	1673.388	1401.077
443.934	0.184	1671.265	1399.501
444.949	0.144	1669.800	1397.734
445.963	0.158	1668.976	1397.003
446.978	0.124	1669.079	1396.613
447.993	0.064	1667.840	1394.847
449.007	0.018	1665.127	1391.982
450.022	0.105	1663.605	1391.351
451.036	0.239	1661.743	1390.867
452.051	1.456	1669.525	1408.565
453.066	12.727	1695.263	1536.272
454.080	23.267	1711.067	1649.639
455.095	25.691	1715.880	1676.818
456.109	27.842	1720.515	1701.314
457.124	28.749	1720.075	1709.163
458.139	28.109	1717.908	1700.828
459.153	27.723	1716.196	1695.327
460.168	27.817	1713.926	1693.756
461.182	28.203	1713.825	1697.052
462.197	28.776	1713.845	1702.207
463.212	28.935	1711.676	1701.330
464.226	29.144	1711.418	1702.809
465.241	29.545	1711.578	1706.489
466.255	29.686	1709.531	1705.553
467.270	29.651	1708.221	1703.720
468.285	29.552	1708.610	1702.982
469.299	29.982	1707.668	1705.820
470.314	30.239	1705.734	1706.064
471.328	30.244	1704.957	1705.130
472.343	30.302	1703.593	1704.092
473.358	30.283	1702.774	1702.893
474.372	30.525	1701.583	1703.735
475.387	30.673	1700.880	1704.191
476.401	30.622	1698.619	1701.248
477.416	30.049	1696.673	1693.831
478.430	30.150	1695.746	1693.631
479.445	30.255	1695.175	1693.824
480.460	30.200	1693.305	1691.251
481.474	30.181	1692.739	1690.309
482.489	30.629	1692.364	1693.827
483.503	30.380	1690.159	1689.142
484.518	30.138	1688.637	1685.214
485.533	30.459	1687.477	1686.785
486.547	30.334	1685.966	1683.931
487.562	30.052	1683.565	1678.765
488.576	30.514	1683.076	1682.278
489.591	30.744	1682.456	1683.551
490.606	30.829	1681.406	1683.072
491.620	30.776	1679.885	1680.868
492.635	30.804	1677.835	1678.867
493.649	30.321	1675.600	1672.059
494.664	29.912	1674.649	1667.201
495.679	29.896	1673.405	1665.624
496.693	30.050	1671.815	1665.230
497.708	30.216	1671.194	1665.909
498.722	30.428	1670.714	1667.148
499.737	30.603	1669.568	1667.382
500.752	30.605	1667.644	1665.279
501.766	30.489	1666.504	1662.900
502.781	30.693	1664.676	1662.709
503.795	30.558	1663.372	1659.999
504.810	30.480	1662.113	1657.844
505.825	30.416	1661.145	1656.103
506.839	30.084	1659.468	1651.261
507.854	29.998	1658.088	1648.917
508.868	29.962	1655.352	1645.680
509.883	29.532	1653.715	1640.017
510.898	29.090	1651.787	1633.965
511.912	28.574	1648.506	1625.933
512.927	27.933	1646.959	1618.498
513.941	27.967	1644.530	1616.225
514.956	28.319	1644.500	1619.132
515.971	29.103	1644.409	1625.812
516.985	28.773	1643.303	1621.591
518.000	28.371	1641.976	1616.526
519.014	28.225	1640.768	1613.848
520.029	28.211	1638.920	1611.714
521.043	28.100	1637.357	1609.004
522.058	28.237	1636.059	1608.747
523.073	28.330	1635.754	1609.072
524.087	28.799	1635.486	1612.753
525.102	29.287	1634.889	1616.277
526.116	29.696	1634.816	1619.610
527.131	29.705	1634.877	1619.557
528.146	30.296	1634.071	1623.770
529.160	30.531	1633.184	1624.758
530.175	30.704	1632.552	1625.451
531.189	30.830	1631.832	1625.643
532.204	30.787	1630.370	1623.619
533.219	30.549	1629.116	1620.093
534.233	30.323	1628.083	1616.895
535.248	30.289	1625.673	1614.006
536.262	30.388	1624.627	1613.638
537.277	30.911	1624.568	1617.958
538.292	30.938	1623.036	1616.467
539.306	30.910	1621.302	1614.307
540.321	30.472	1619.603	1608.606
541.335	30.082	1617.962	1603.395
542.350	30.609	1616.370	1606.208
543.365	30.783	1616.456	1607.608
544.379	31.122	1615.733	1609.634
545.394	31.143	1613.576	1607.474
546.408	30.692	1611.130	1600.948
547.423	30.375	1610.234	1597.123
548.438	30.517	1609.536	1597.467
549.452	30.773	1608.129	1598.095
550.467	30.622	1606.112	1594.597
551.481	30.487	1605.786	1592.913
552.496	30.490	1604.892	1591.862
553.511	30.776	1604.094	1593.342
554.525	30.786	1602.985	1592.138
555.540	30.836	1602.585	1591.983
556.554	30.855	1601.411	1590.784
557.569	30.610	1598.864	1585.968
558.583	30.131	1596.737	1579.563
559.598	30.082	1595.540	1577.773
560.613	30.173	1594.113	1576.949
561.627	29.973	1592.810	1573.766
562.642	29.629	1591.129	1568.977
563.656	29.209	1588.639	1562.757
564.671	28.881	1586.791	1557.958
565.686	28.683	1585.795	1555.103
566.700	28.524	1583.736	1551.548
567.715	28.516	1581.993	1549.590
568.729	28.771	1581.084	1550.678
569.744	29.135	1580.453	1552.954
570.759	29.353	1579.548	1553.727
571.773	29.173	1578.074	1550.566
572.788	28.968	1577.027	1547.625
573.802	28.719	1574.884	1543.230
574.817	28.688	1572.959	1540.896
575.832	28.827	1572.351	1541.292
576.846	29.429	1572.408	1546.236
577.861	29.843	1573.300	1550.415
578.875	30.212	1572.531	1552.581
579.890	30.557	1571.965	1554.736
580.905	30.775	1571.391	1555.814
581.919	30.909	1570.808	1556.169
582.934	31.187	1569.984	1557.498
583.948	30.898	1568.644	1553.563
584.963	30.706	1566.640	1549.789
585.978	30.498	1565.748	1546.980
586.992	30.158	1564.713	1542.929
588.007	30.532	1563.750	1544.917
589.021	30.211	1560.619	1538.962
590.036	29.053	1558.902	1527.430
591.051	29.625	1559.144	1532.256
592.065	30.389	1558.572	1537.872
593.080	30.626	1557.189	1538.296
594.094	30.913	1555.311	1538.643
595.109	30.678	1553.292	1534.512
596.123	30.711	1552.652	1533.969
597.138	30.961	1551.523	1534.741
598.153	30.814	1550.475	1532.300
599.167	30.590	1548.060	1527.885
600.182	30.378	1547.559	1525.452
601.196	30.405	1547.110	1525.053
602.211	30.850	1546.186	1527.624
603.226	30.673	1544.836	1524.657
604.240	30.917	1543.720	1525.377
605.255	30.954	1542.877	1524.666
606.269	30.921	1541.127	1522.487
607.284	30.699	1539.442	1518.816
608.299	30.737	1538.037	1517.555
609.313	30.196	1536.724	1511.646
610.328	30.211	1535.566	1510.450
611.342	30.134	1534.360	1508.459
612.357	30.289	1533.472	1508.670
613.372	30.095	1531.705	1505.163
614.386	29.996	1529.783	1502.291
615.401	29.823	1529.298	1500.228
616.415	29.855	1527.193	1498.238
617.430	29.283	1526.722	1492.945
618.445	29.079	1524.741	1489.173
619.459	29.006	1523.066	1486.762
620.474	28.937	1522.028	1485.014
621.488	29.170	1521.630	1486.335
622.503	29.534	1521.216	1488.704
623.518	29.383	1519.708	1485.828
624.532	29.150	1517.776	1481.872
625.547	28.987	1516.413	1479.054
626.561	29.151	1515.511	1479.319
627.576	29.284	1514.991	1479.709
628.591	29.376	1514.109	1479.410
629.605	29.461	1513.948	1479.761
630.620	29.796	1513.243	1481.589
631.634	30.177	1512.946	1484.190
632.649	30.280	1511.605	1483.528
633.663	29.860	1509.505	1477.914
634.678	29.560	1508.268	1474.117
635.693	29.420	1505.603	1470.215
636.707	29.281	1503.628	1466.999
637.722	29.244	1503.071	1465.985
638.736	29.729	1502.706	1469.333
639.751	30.049	1503.003	1472.004
640.766	30.183	1501.776	1471.694
641.780	30.323	1499.891	1470.785
642.795	30.698	1499.657	1473.368
643.809	30.728	1499.335	1473.113
644.824	30.848	1498.631	1473.200
645.839	30.981	1498.208	1473.658
646.853	31.067	1496.328	1472.316
647.868	30.767	1494.645	1468.108
648.882	30.598	1493.188	1465.165
649.897	30.520	1492.077	1463.281
650.912	30.212	1490.745	1459.365
651.926	30.402	1489.561	1459.532
652.941	30.429	1488.292	1458.322
653.955	30.101	1485.768	1453.095
654.970	29.296	1482.857	1443.737
655.985	29.128	1480.667	1440.115
656.999	29.052	1480.160	1438.848
658.014	29.211	1479.479	1439.265
659.028	29.766	1479.963	1443.917
660.043	30.165	1480.414	1447.320
661.058	30.343	1479.435	1447.587
662.072	30.683	1477.593	1448.270
663.087	30.567	1476.032	1445.658
664.101	30.312	1475.802	1443.270
665.116	30.402	1474.486	1442.511
666.131	30.616	1472.900	1442.452
667.145	30.613	1472.101	1441.478
668.160	30.631	1470.747	1440.120
669.174	30.536	1468.858	1437.362
670.189	30.749	1468.525	1438.517
671.204	30.878	1468.266	1439.092
672.218	30.749	1466.972	1436.652
673.233	30.907	1466.227	1436.974
674.247	30.944	1464.700	1435.589
675.262	30.797	1464.310	1433.896
676.276	30.584	1463.117	1430.913
677.291	30.546	1462.363	1429.706
678.306	30.755	1460.650	1429.477
679.320	30.669	1458.694	1426.730
680.335	30.279	1457.895	1422.769
681.349	30.430	1458.164	1424.031
682.364	30.504	1456.754	1423.049
683.379	30.358	1454.390	1419.452
684.393	30.121	1452.772	1415.881
685.408	29.948	1452.112	1413.740
686.422	29.900	1450.673	1411.804
687.437	29.453	1449.249	1406.825
688.452	29.366	1448.308	1405.075
689.466	29.277	1445.917	1401.908
690.481	29.193	1445.056	1400.263
691.495	29.415	1444.912	1401.649
692.510	30.069	1444.804	1406.367
693.525	30.622	1443.472	1409.116
694.539	30.178	1442.206	1404.334
695.554	29.695	1440.266	1398.603
696.568	29.384	1439.387	1395.216
697.583	29.204	1438.472	1392.794
698.598	29.564	1437.789	1394.702
699.612	29.757	1437.372	1395.597
700.627	29.802	1436.645	1395.066
701.641	30.317	1435.989	1398.161
702.656	30.604	1434.232	1398.455
703.671	30.505	1434.041	1397.348
704.685	30.707	1433.823	1398.499
705.700	30.637	1432.331	1396.349
706.714	30.166	1430.335	1390.684
707.729	30.229	1428.447	1389.155
708.744	30.209	1428.008	1388.411
709.758	29.861	1426.205	1383.873
710.773	29.446	1423.707	1378.173
711.787	29.169	1422.735	1374.988
712.802	29.810	1422.254	1379.167
713.816	30.070	1421.498	1380.212
714.831	30.314	1420.976	1381.366
715.846	30.216	1419.936	1379.458
716.860	30.301	1418.843	1378.865
717.875	30.138	1418.065	1376.727
718.889	29.859	1416.731	1373.185
719.904	30.018	1415.751	1373.256
720.919	30.090	1414.256	1372.179
721.933	29.998	1412.622	1369.745
722.948	29.891	1412.377	1368.547
723.962	30.058	1411.282	1368.564
724.977	30.132	1409.993	1367.702
725.992	30.179	1409.591	1367.497
727.006	30.633	1408.098	1369.241
728.021	30.513	1406.521	1366.660
729.035	30.530	1406.171	1366.278
730.050	30.514	1405.476	1365.326
731.065	30.459	1403.864	1363.186
732.079	30.446	1402.201	1361.317
733.094	30.483	1401.327	1360.572
734.108	30.591	1400.353	1360.264
735.123	30.483	1398.707	1357.703
736.138	30.277	1397.607	1354.963
737.152	30.343	1396.358	1354.077
738.167	30.308	1395.112	1352.451
739.181	30.488	1394.792	1353.296
740.196	30.496	1393.917	1352.343
741.211	30.366	1392.611	1349.962
742.225	30.130	1391.321	1346.828
743.240	30.029	1390.184	1344.825
744.254	29.821	1388.156	1341.193
745.269	29.654	1386.768	1338.472
746.284	29.337	1386.010	1335.278
747.298	29.286	1385.176	1333.937
748.313	29.394	1384.476	1333.890
749.327	29.755	1384.135	1336.029
750.342	30.253	1384.384	1339.721
751.356	30.659	1383.396	1341.549
752.371	30.430	1381.648	1338.039
753.386	29.897	1379.380	1331.827
754.400	29.921	1379.227	1331.688
755.415	30.200	1379.089	1333.414
756.429	30.587	1377.734	1334.740
757.444	30.593	1376.550	1333.473
758.459	30.471	1375.405	1331.324
759.473	30.262	1373.796	1328.107
760.488	29.974	1372.217	1324.355
761.502	29.705	1371.236	1321.317
762.517	29.913	1370.395	1321.836
763.532	30.191	1369.169	1322.491
764.546	29.864	1368.115	1318.969
765.561	29.269	1366.499	1313.001
766.575	28.804	1364.160	1307.267
767.590	28.768	1363.395	1306.124
768.605	29.492	1362.703	1310.468
769.619	29.905	1362.263	1312.839
770.634	29.981	1361.551	1312.532
771.648	29.816	1360.496	1310.188
772.663	29.646	1359.484	1307.848
773.678	30.053	1358.965	1310.081
774.692	30.232	1358.751	1310.992
775.707	30.211	1358.325	1310.272
776.721	30.389	1356.897	1309.999
777.736	30.349	1355.375	1308.096
778.751	30.187	1355.274	1306.688
779.765	30.416	1353.451	1306.401
780.780	30.185	1353.507	1304.663
781.794	30.210	1352.998	1304.192
782.809	29.853	1350.900	1299.490
783.824	29.210	1349.702	1293.652
784.838	29.351	1348.200	1293.046
785.853	29.989	1347.553	1296.766
786.867	29.921	1346.753	1295.362
787.882	29.562	1345.749	1291.720
788.897	29.649	1344.201	1290.685
789.911	29.303	1343.300	1287.241
790.926	29.236	1341.920	1285.294
791.940	29.386	1340.634	1284.961
792.955	29.576	1339.930	1285.462
793.969	29.348	1339.350	1283.154
794.984	29.663	1338.582	1284.466
795.999	29.968	1337.694	1285.591
797.013	30.104	1335.914	1284.674
798.028	30.202	1334.534	1283.875
799.042	30.172	1333.963	1282.964
800.057	30.041	1332.785	1280.763
801.072	30.006	1331.853	1279.472
802.086	29.999	1330.721	1278.188
803.101	30.203	1328.901	1277.696
804.115	29.958	1328.453	1275.413
805.130	29.911	1328.410	1274.895
806.145	29.835	1326.317	1272.208
807.159	29.834	1324.444	1270.257
808.174	29.736	1323.913	1268.917
809.188	29.866	1322.740	1268.539
810.203	29.790	1320.975	1266.169
811.218	29.479	1319.316	1262.288
812.232	29.026	1317.024	1256.840
813.247	28.732	1316.318	1253.996
814.261	29.170	1316.842	1257.350
815.276	29.735	1316.503	1260.750
816.291	29.558	1315.338	1258.274
817.305	29.480	1313.664	1255.986
818.320	29.594	1312.657	1255.649
819.334	29.996	1312.043	1257.662
820.349	29.986	1310.728	1256.184
821.364	29.839	1310.063	1254.389
822.378	30.159	1308.711	1255.125
823.393	29.953	1306.815	1251.756
824.407	29.937	1305.590	1250.322
825.422	29.736	1305.486	1248.713
826.437	29.580	1304.114	1246.192
827.451	29.393	1301.688	1242.454
828.466	29.577	1301.527	1243.398
829.480	29.971	1299.675	1244.146
830.495	29.654	1297.365	1239.649
831.509	29.220	1296.537	1235.778
832.524	29.341	1296.215	1236.142
833.539	29.666	1294.793	1236.825
834.553	29.883	1293.805	1237.194
835.568	29.956	1292.476	1236.262
836.582	29.831	1291.647	1234.481
837.597	29.970	1290.111	1233.799
838.612	29.816	1288.262	1230.852
839.626	29.679	1287.120	1228.697
840.641	29.447	1286.074	1226.004
841.655	29.220	1285.486	1223.779
842.670	28.898	1283.562	1219.655
843.685	28.320	1282.903	1215.029
844.699	28.725	1282.239	1216.956
845.714	29.192	1280.998	1218.738
846.728	29.323	1279.826	1218.345
847.743	29.448	1278.482	1217.751
848.758	29.702	1277.845	1218.682
849.772	29.677	1277.644	1218.177
850.787	29.637	1276.600	1216.774
851.801	29.659	1275.173	1215.417
852.816	29.629	1273.847	1213.803
853.831	29.557	1272.038	1211.465
854.845	29.543	1270.478	1209.741
855.860	29.303	1269.194	1206.795
856.874	29.253	1267.996	1205.179
857.889	29.371	1267.266	1205.120
858.904	29.656	1266.447	1206.065
859.918	29.904	1265.979	1207.101
860.933	30.059	1264.627	1206.682
861.947	29.753	1263.753	1203.699
862.962	29.375	1261.844	1199.266
863.977	29.300	1259.662	1196.563
864.991	29.215	1259.505	1195.713
866.006	29.261	1259.389	1195.763
867.020	29.295	1258.276	1194.784
868.035	29.458	1256.837	1194.337
869.049	29.642	1256.229	1194.811
870.064	29.843	1255.335	1195.123
871.079	29.613	1254.596	1192.783
872.093	29.411	1253.608	1190.389
873.108	29.225	1252.218	1187.722
874.122	29.147	1250.162	1185.127
875.137	28.937	1249.530	1183.028
876.152	28.643	1248.773	1180.270
877.166	28.869	1246.679	1179.605
878.181	28.968	1246.091	1179.547
879.195	29.095	1245.417	1179.586
880.210	29.255	1244.930	1180.012
881.225	29.388	1244.523	1180.343
882.239	29.566	1243.474	1180.350
883.254	29.492	1242.122	1178.451
884.268	29.652	1241.309	1178.566
885.283	29.660	1239.926	1177.163
886.298	29.715	1238.448	1175.970
887.312	29.523	1237.858	1174.045
888.327	29.542	1236.992	1173.201
889.341	29.559	1235.512	1171.763
890.356	29.381	1235.381	1170.368
891.371	29.384	1234.526	1169.436
892.385	29.334	1233.741	1168.230
893.400	29.293	1232.350	1166.513
894.414	29.220	1231.011	1164.644
895.429	29.311	1230.174	1164.287
896.444	30.043	1228.843	1167.533
897.458	30.496	1228.055	1169.507
898.473	30.239	1227.125	1166.861
899.487	29.589	1225.800	1161.353
900.502	29.442	1224.409	1158.970
901.517	29.250	1223.084	1156.362
902.531	29.266	1222.628	1155.894
903.546	29.376	1222.105	1155.955
904.560	29.479	1221.524	1155.914
905.575	29.298	1220.569	1153.733
906.589	29.304	1219.445	1152.574
907.604	29.169	1218.260	1150.469
