DTS Sentinel unit serial number:	SN409020Multiplexer serial number:	ORYXHardware model number:	OX4-SRSoftware version number:	ORYX F/W v3.00 Oryx Data Collector v3.7.2.0data status	okinstallation	HaddamTimeLapsedifferential loss correction	single-endedforward channel	channel 3reverse channel	N/Adate	2011/06/21time	20:36:17forward acquisition time	30.00reverse acquisition time	0.00gamma	498.7831k internal	0.1774k external	0.1774temperature offset calibration	1.0074default loss term (dB/km)	0.3790temperature slope calibration	1.3530multiplexer offset coefficient	1.0000multiplexer slope coefficient	1.0000fibre end	0.00T internal ref (°C)	29.59T ext. ref 1 (°C)	21.78T ext. ref 2 (°C)	0.02length (m)	temperature (°C)	Stokes	anti-Stokes-747.200	60.798	0.193	0.252
-746.185	-10.742	0.074	0.064
-745.171	-116.469	0.210	0.050
-744.156	-111.334	-0.709	0.188
-743.142	-57.581	-0.219	0.125
-742.127	46.618	0.076	0.092
-741.112	498.282	-0.032	-0.097
-740.098	-200.000	-0.006	0.051
-739.083	-9.653	-0.209	-0.182
-738.069	217.750	0.227	0.476
-737.054	130.360	-0.275	-0.462
-736.039	-52.916	0.209	-0.126
-735.025	63.134	-0.198	0.260
-734.010	-14.126	-0.376	0.318
-732.996	-86.265	0.298	0.120
-731.981	-113.216	-0.573	0.147
-730.966	-17.648	0.130	0.107
-729.952	19.471	-0.258	-0.272
-728.937	-134.048	-0.380	0.061
-727.923	142.086	-0.235	0.410
-726.908	327.541	0.056	-0.141
-725.894	361.313	-0.117	0.310
-724.879	128.579	0.088	0.147
-723.864	-145.625	-0.036	-0.004
-722.850	-136.682	-0.063	-0.009
-721.835	-200.000	0.032	-0.488
-720.821	-59.743	0.250	-0.140
-719.806	232.768	-0.139	-0.300
-718.791	800.000	-0.100	-0.566
-717.777	-115.196	-0.711	-0.175
-716.762	-135.307	-0.581	-0.090
-715.748	-64.355	-0.199	-0.105
-714.733	-14.709	0.326	0.274
-713.718	12.243	0.269	-0.271
-712.704	-155.410	0.364	0.030
-711.689	-14.414	-0.307	-0.258
-710.675	800.000	-0.040	-0.199
-709.660	270.441	0.132	-0.305
-708.645	-200.000	0.065	-0.576
-707.631	-51.959	-0.446	-0.271
-706.616	-105.190	-0.203	-0.060
-705.602	-168.589	0.441	-0.022
-704.587	39.159	0.193	0.226
-703.572	-150.960	0.510	-0.050
-702.558	-200.000	-0.039	0.325
-701.543	112.320	-0.188	0.298
-700.529	-47.218	-0.262	-0.167
-699.514	-91.933	-0.138	0.051
-698.499	-200.000	-0.419	0.001
-697.485	-124.290	0.558	-0.113
-696.470	-50.799	-0.365	-0.224
-695.456	8.082	-0.175	0.172
-694.441	-200.000	-0.017	0.280
-693.426	800.000	-0.108	0.603
-692.412	-200.000	-0.019	-0.468
-691.397	132.383	-0.172	0.290
-690.383	61.649	-0.483	0.630
-689.368	-38.133	0.443	0.306
-688.354	3.415	0.168	-0.160
-687.339	-171.339	-0.763	0.033
-686.324	-65.114	-0.307	0.161
-685.310	17.227	0.374	-0.388
-684.295	224.487	0.042	-0.089
-683.281	-200.000	-0.017	0.133
-682.266	-67.563	0.517	-0.264
-681.251	-47.285	0.213	0.135
-680.237	-120.340	-0.498	-0.110
-679.222	741.043	-0.071	-0.251
-678.208	-28.395	-0.372	-0.280
-677.193	-200.000	-0.015	0.198
-676.178	800.000	-0.063	0.302
-675.164	800.000	0.042	0.212
-674.149	-200.000	0.009	0.153
-673.135	44.826	-0.310	-0.373
-672.120	238.578	-0.132	-0.287
-671.105	-200.000	-0.007	0.167
-670.091	-65.556	-0.384	0.201
-669.076	-65.327	-0.329	0.172
-668.062	411.231	-0.112	-0.313
-667.047	-200.000	0.015	-0.129
-666.032	-135.097	-0.715	0.111
-665.018	-98.372	-0.379	0.126
-664.003	-146.090	-0.381	-0.043
-662.989	-53.496	-0.054	0.032
-661.974	-200.000	0.036	-0.283
-660.959	382.648	0.153	-0.414
-659.945	-200.000	-0.021	-0.331
-658.930	-74.728	-0.181	-0.085
-657.916	-200.000	0.078	0.606
-656.901	145.226	0.174	0.305
-655.886	9.596	-0.141	0.139
-654.872	-60.417	-0.119	-0.066
-653.857	86.895	0.174	0.251
-652.843	-200.000	-0.003	-0.051
-651.828	-164.888	0.587	-0.034
-650.814	25.557	0.288	-0.313
-649.799	130.285	0.306	0.513
-648.784	51.919	-0.403	0.501
-647.770	-141.805	0.400	0.052
-646.755	-2.517	0.292	0.267
-645.741	43.114	-0.258	-0.308
-644.726	-200.000	-0.029	-0.589
-643.711	57.277	-0.163	0.207
-642.697	-200.000	-0.033	-0.395
-641.682	-9.173	-0.127	-0.111
-640.668	-100.518	-0.274	-0.088
-639.653	19.632	-0.549	-0.577
-638.638	800.000	-0.092	-0.408
-637.624	185.795	-0.070	0.137
-636.609	192.094	-0.229	0.452
-635.595	327.653	0.131	0.329
-634.580	455.766	-0.021	-0.062
-633.565	622.519	-0.097	0.321
-632.551	-49.601	-0.109	0.068
-631.536	77.173	-0.272	-0.378
-630.522	-44.821	0.301	0.195
-629.507	21.540	0.159	-0.168
-628.492	-137.641	-0.308	-0.045
-627.478	340.994	-0.149	-0.381
-626.463	800.000	0.106	-0.430
-625.449	800.000	-0.081	-0.369
-624.434	-123.819	-0.563	-0.115
-623.419	250.560	0.142	-0.317
-622.405	-41.610	0.129	-0.086
-621.390	-48.249	-0.407	0.255
-620.376	-116.099	0.195	-0.047
-619.361	800.000	0.045	-0.204
-618.346	-114.085	-0.160	-0.040
-617.332	220.773	0.064	-0.135
-616.317	28.267	0.116	-0.128
-615.303	-32.336	0.359	-0.261
-614.288	800.000	0.076	0.298
-613.273	-158.273	0.638	-0.048
-612.259	-34.437	-0.250	-0.179
-611.244	-200.000	-0.012	0.513
-610.230	186.951	-0.257	0.500
-609.215	-152.713	-0.366	0.034
-608.201	-159.583	-0.271	-0.019
-607.186	25.171	0.204	-0.221
-606.171	-62.200	-0.251	0.136
-605.157	318.316	0.168	0.416
-604.142	-107.617	0.156	-0.044
-603.128	308.449	0.150	-0.366
-602.113	-122.508	-0.294	0.062
-601.098	525.002	0.171	0.529
-600.084	-96.160	-0.061	-0.021
-599.069	-149.078	-0.045	-0.005
-598.055	800.000	-0.079	0.352
-597.040	-123.246	0.511	0.106
-596.025	39.926	0.191	0.223
-595.011	-7.734	-0.102	-0.090
-593.996	800.000	0.085	-0.382
-592.982	-114.910	0.098	-0.024
-591.967	-200.000	0.008	0.441
-590.952	-4.352	-0.285	-0.257
-589.938	-95.607	-0.442	0.153
-588.923	505.752	0.011	0.033
-587.909	-200.000	0.040	-0.356
-586.894	75.314	-0.142	-0.196
-585.879	-80.181	-0.477	0.207
-584.865	46.722	0.173	-0.209
-583.850	-35.543	-0.447	0.316
-582.836	142.499	-0.261	-0.452
-581.821	-13.998	0.350	-0.294
-580.806	277.486	-0.152	-0.355
-579.792	218.848	0.101	0.211
-578.777	53.247	0.183	0.229
-577.763	-75.891	-0.392	0.180
-576.748	-105.586	-0.518	-0.152
-575.733	-130.710	-0.141	0.024
-574.719	-92.869	0.337	-0.122
-573.704	-44.830	-0.032	0.021
-572.690	57.998	-0.401	-0.512
-571.675	800.000	0.110	-0.446
-570.661	-188.649	0.496	-0.008
-569.646	-90.577	0.370	-0.139
-568.631	6.980	0.269	0.261
-567.617	-71.385	0.744	-0.361
-566.602	-200.000	-0.086	-0.551
-565.588	-135.089	-0.091	-0.014
-564.573	-63.463	0.088	0.047
-563.558	2.314	-0.478	0.449
-562.544	543.427	-0.065	-0.204
-561.529	284.724	-0.119	-0.280
-560.515	-50.708	-0.434	-0.265
-559.500	-164.123	0.488	0.029
-558.485	35.804	-0.301	0.344
-557.471	25.281	-0.236	0.255
-556.456	-108.493	0.328	0.091
-555.442	-11.991	-0.169	0.144
-554.427	-155.066	-0.758	0.064
-553.412	-45.057	0.196	-0.126
-552.398	-200.000	-0.040	0.290
-551.383	-71.711	-0.142	-0.068
-550.369	450.028	0.078	0.225
-549.354	-5.884	0.227	-0.202
-548.339	-139.285	0.172	-0.024
-547.325	29.855	0.322	-0.357
-546.310	129.487	-0.174	-0.290
-545.296	-200.000	-0.033	-0.418
-544.281	-150.320	-0.599	-0.059
-543.266	79.123	0.163	0.227
-542.252	-173.430	0.570	0.022
-541.237	-111.896	-0.328	-0.086
-540.223	25.707	-0.103	0.111
-539.208	-125.501	-0.211	0.041
-538.193	-56.986	0.063	0.036
-537.179	-47.812	-0.261	0.164
-536.164	-6.404	-0.391	0.346
-535.150	122.959	-0.092	0.149
-534.135	228.522	-0.050	0.105
-533.121	-141.946	-0.445	-0.057
-532.106	38.659	-0.089	-0.103
-531.091	-45.397	-0.140	-0.090
-530.077	-112.278	-0.303	0.078
-529.062	177.959	0.075	-0.142
-528.048	39.620	-0.197	-0.230
-527.033	439.045	-0.104	0.296
-526.018	-15.799	-0.248	0.205
-525.004	-107.398	-0.484	0.137
-523.989	178.932	-0.171	0.326
-522.975	-133.379	0.024	-0.004
-521.960	-109.608	-0.427	-0.116
-520.945	-20.783	-0.144	-0.114
-519.931	-188.141	-0.432	0.007
-518.916	-44.085	-0.257	-0.168
-517.902	-134.844	-0.204	0.032
-516.887	-77.000	0.334	0.151
-515.872	97.611	-0.152	0.228
-514.858	-100.701	-0.457	0.145
-513.843	41.768	0.162	-0.191
-512.829	-102.427	0.443	-0.137
-511.814	-124.986	0.348	0.069
-510.799	84.489	0.190	-0.270
-509.785	-114.290	-0.422	0.105
-508.770	-200.000	0.175	0.001
-507.756	95.269	0.152	-0.226
-506.741	-77.691	0.236	-0.105
-505.726	-130.544	0.120	-0.021
-504.712	188.032	-0.107	0.209
-503.697	-39.616	0.341	0.231
-502.683	-50.104	-0.253	-0.155
-501.668	723.950	-0.187	0.651
-500.653	800.000	0.043	0.168
-499.639	-200.000	0.007	0.079
-498.624	-86.850	0.425	0.168
-497.610	800.000	0.178	-0.793
-496.595	-172.905	0.273	0.011
-495.581	-200.000	-0.009	-0.272
-494.566	-200.000	0.023	-0.214
-493.551	71.530	0.302	0.408
-492.537	727.067	-0.085	0.297
-491.522	-114.554	0.173	0.043
-490.508	-107.087	0.679	0.193
-489.493	684.350	0.101	0.345
-488.478	-178.796	0.218	-0.006
-487.464	-39.043	-0.621	0.423
-486.449	-103.562	-0.191	-0.058
-485.435	-27.243	0.382	0.288
-484.420	-200.000	0.028	-0.291
-483.405	568.342	0.023	0.072
-482.391	-158.415	-0.196	-0.015
-481.376	-64.999	-0.341	-0.178
-480.362	-200.000	-0.011	0.139
-479.347	800.000	0.009	0.039
-478.332	-82.284	0.220	-0.092
-477.318	-141.395	-0.131	0.017
-476.303	131.329	-0.210	-0.350
-475.289	-164.167	0.143	-0.008
-474.274	-105.106	-0.339	0.100
-473.259	147.761	-0.183	0.321
-472.245	222.383	-0.168	-0.351
-471.230	-133.857	0.083	-0.013
-470.216	-132.672	-0.359	-0.059
-469.201	-135.409	-0.409	0.063
-468.186	-117.789	0.422	-0.098
-467.172	425.360	0.144	0.404
-466.157	-3.090	0.164	0.149
-465.143	-36.864	0.232	0.161
-464.128	800.000	-0.021	0.119
-463.113	286.594	-0.089	0.210
-462.099	-86.194	0.030	-0.012
-461.084	17.068	-0.256	-0.263
-460.070	-200.000	0.010	-0.135
-459.055	-175.766	-0.103	-0.004
-458.040	115.803	0.075	0.120
-457.026	107.854	-0.194	0.300
-456.011	-200.000	0.011	-0.287
-454.997	5.591	-0.209	-0.200
-453.982	-190.094	-0.182	0.003
-452.968	-78.259	0.100	0.044
-451.953	-162.172	-0.465	0.030
-450.938	171.173	-0.086	-0.161
-449.924	164.924	0.275	0.504
-448.909	341.297	-0.040	0.102
-447.895	-107.046	0.121	-0.034
-446.880	7.796	-0.045	0.044
-445.865	-115.570	0.194	0.047
-444.851	-24.951	-0.073	0.056
-443.836	800.000	-0.043	-0.212
-442.822	-81.939	0.275	-0.116
-441.807	800.000	-0.051	0.200
-440.792	-69.879	0.481	0.237
-439.778	184.284	0.043	-0.083
-438.763	-200.000	-0.037	0.444
-437.749	-17.358	-0.357	-0.291
-436.734	-38.905	0.277	-0.188
-435.719	-108.552	0.115	-0.032
-434.705	-200.000	-0.003	-0.053
-433.690	71.074	0.265	-0.356
-432.676	36.763	0.037	0.042
-431.661	179.095	-0.231	0.439
-430.646	-47.040	-0.328	0.206
-429.632	41.071	-0.177	0.208
-428.617	-72.825	-0.441	0.209
-427.603	14.861	-0.448	0.453
-426.588	-200.000	-0.023	0.135
-425.573	-200.000	-0.025	-0.530
-424.559	-137.992	-0.082	0.012
-423.544	224.472	0.190	-0.399
-422.530	452.930	0.101	0.291
-421.515	-16.805	-0.278	0.227
-420.500	-49.305	-0.219	0.135
-419.486	-84.777	0.565	-0.229
-418.471	591.506	-0.118	-0.380
-417.457	303.679	-0.148	-0.356
-416.442	-62.762	0.360	-0.192
-415.428	19.536	0.251	-0.262
-414.413	18.456	0.095	0.098
-413.398	800.000	-0.062	0.238
-412.384	52.233	0.095	-0.117
-411.369	-200.000	0.005	-0.038
-410.355	-143.494	-0.220	0.027
-409.340	99.411	0.391	0.587
-408.325	-30.948	0.492	0.359
-407.311	120.922	-0.150	-0.242
-406.296	-142.398	-0.254	-0.032
-405.282	-119.326	-0.057	0.013
-404.267	-90.901	0.433	-0.160
-403.252	-101.181	-0.153	0.048
-402.238	-200.000	-0.015	0.267
-401.223	-122.875	0.494	-0.102
-400.209	2.613	0.378	0.354
-399.194	-114.979	-0.265	0.065
-398.179	-195.056	-0.142	-0.001
-397.165	404.393	0.063	0.172
-396.150	-12.837	-0.396	0.333
-395.136	-52.852	0.721	0.428
-394.121	-200.000	-0.021	-0.171
-393.106	150.599	0.035	-0.062
-392.092	-117.586	0.396	0.092
-391.077	-200.000	0.045	0.619
-390.063	241.820	0.134	0.290
-389.048	800.000	-0.046	-0.167
-388.033	50.811	-0.487	-0.597
-387.019	149.454	-0.189	-0.332
-386.004	110.323	-0.057	0.089
-384.990	800.000	0.099	0.544
-383.975	-144.760	-0.639	-0.075
-382.960	171.481	-0.210	-0.391
-381.946	372.505	-0.130	-0.344
-380.931	383.769	0.085	0.227
-379.917	220.793	-0.135	0.280
-378.902	33.707	0.358	-0.403
-377.888	275.159	-0.085	0.195
-376.873	39.880	0.130	0.151
-375.858	185.133	0.117	0.225
-374.844	-86.606	0.290	0.114
-373.829	-87.531	-0.258	0.100
-372.815	-50.379	-0.299	-0.182
-371.800	-135.450	0.080	-0.012
-370.785	-174.208	-0.288	0.011
-369.771	264.510	0.150	-0.339
-368.756	381.267	0.086	0.230
-367.742	-156.956	-0.286	0.022
-366.727	-120.472	-0.291	-0.063
-365.712	-93.575	-0.087	0.031
-364.698	248.947	0.145	0.318
-363.683	260.105	0.125	0.279
-362.669	800.000	-0.021	-0.113
-361.654	152.114	0.100	-0.177
-360.639	143.364	-0.033	0.057
-359.625	-200.000	-0.015	-0.165
-358.610	68.611	0.110	0.146
-357.596	-165.203	-0.288	-0.016
-356.581	-47.563	-0.312	0.195
-355.566	-52.529	0.526	0.313
-354.552	-193.794	0.316	-0.003
-353.537	36.052	0.117	-0.133
-352.523	-200.000	-0.023	-0.240
-351.508	50.049	-0.276	-0.336
-350.493	-145.283	-0.124	0.014
-349.479	129.320	-0.154	0.255
-348.464	800.000	0.133	0.521
-347.450	-70.831	-0.213	0.103
-346.435	-100.769	0.275	-0.087
-345.420	-64.929	0.135	-0.070
-344.406	89.393	-0.384	-0.553
-343.391	12.511	0.255	-0.254
-342.377	-152.211	0.121	0.011
-341.362	-108.542	0.071	-0.020
-340.348	-99.498	0.689	0.222
-339.333	-137.148	0.238	-0.035
-338.318	-73.264	-0.527	-0.248
-337.304	-34.893	0.364	0.256
-336.289	-159.214	0.602	0.043
-335.275	-81.799	0.238	-0.100
-334.260	-109.532	0.163	-0.044
-333.245	-155.255	0.315	0.026
-332.231	300.241	0.120	0.286
-331.216	2.838	-0.343	-0.321
-330.202	-116.949	0.402	-0.094
-329.187	-72.259	0.503	0.239
-328.172	-43.198	-0.257	-0.167
-327.158	-34.025	0.354	-0.251
-326.143	50.054	-0.248	0.302
-325.129	140.799	-0.159	0.271
-324.114	-42.375	-0.192	0.126
-323.099	73.185	0.194	0.261
-322.085	-136.042	-0.146	0.022
-321.070	100.852	-0.105	-0.158
-320.056	10.003	-0.124	-0.121
-319.041	-60.047	0.111	0.061
-318.026	-89.024	0.245	-0.093
-317.012	6.865	0.280	-0.269
-315.997	16.188	0.152	0.155
-314.983	-56.636	0.600	0.342
-313.968	800.000	-0.049	-0.243
-312.953	-200.000	-0.075	0.527
-311.939	66.389	-0.264	-0.346
-310.924	76.496	0.200	-0.273
-309.910	-200.000	-0.018	0.226
-308.895	-78.394	0.117	-0.051
-307.880	-82.881	-0.228	0.094
-306.866	54.160	-0.354	0.440
-305.851	152.220	-0.121	-0.214
-304.837	51.488	0.357	-0.438
-303.822	-129.741	-0.401	-0.071
-302.807	456.037	0.070	0.200
-301.793	70.362	0.165	-0.220
-300.778	109.582	0.184	-0.284
-299.764	800.000	-0.090	0.382
-298.749	-1.676	-0.080	-0.073
-297.735	785.907	-0.087	0.308
-296.720	23.303	0.346	0.366
-295.705	4.453	0.177	0.167
-294.691	100.378	-0.304	0.456
-293.676	-92.287	0.080	-0.029
-292.662	273.313	0.254	-0.581
-291.647	-153.981	-0.343	0.030
-290.632	-52.199	-0.074	0.044
-289.618	551.392	-0.072	-0.224
-288.603	542.118	0.058	0.178
-287.589	-41.120	0.216	-0.143
-286.574	-7.886	0.045	0.039
-285.559	53.654	0.353	-0.437
-284.545	467.311	0.112	-0.324
-283.530	-56.968	-0.502	-0.284
-282.516	23.387	-0.225	-0.238
-281.501	800.000	-0.086	-0.455
-280.486	-128.693	-0.480	-0.087
-279.472	-129.172	-0.068	-0.012
-278.457	-75.915	0.187	-0.085
-277.443	-172.962	0.276	0.011
-276.428	-72.565	0.195	-0.092
-275.413	800.000	-0.084	-0.437
-274.399	-90.541	-0.415	0.154
-273.384	148.261	0.328	-0.571
-272.370	-137.449	0.540	-0.078
-271.355	47.578	0.237	0.285
-270.340	3.873	0.182	-0.171
-269.326	18.907	0.396	0.408
-268.311	91.415	0.159	0.230
-267.297	-77.690	-0.241	-0.107
-266.282	-200.000	0.026	0.266
-265.267	-200.000	-0.019	0.416
-264.253	-4.321	-0.133	0.118
-263.238	33.272	0.310	-0.346
-262.224	-36.629	0.119	0.082
-261.209	-113.378	-0.748	-0.187
-260.195	171.384	-0.104	-0.193
-259.180	4.187	-0.089	-0.084
-258.165	-105.621	0.296	0.086
-257.151	-121.585	-0.147	0.031
-256.136	2.830	0.195	-0.182
-255.122	-56.726	0.151	0.086
-254.107	-95.433	-0.386	0.132
-253.092	-47.906	0.309	-0.192
-252.078	800.000	-0.070	-0.278
-251.063	-141.227	0.403	-0.052
-250.049	150.980	-0.110	-0.192
-249.034	-167.918	0.635	0.032
-248.019	19.152	0.318	0.328
-247.005	-141.028	-0.572	0.075
-245.990	769.902	-0.137	-0.482
-244.976	-61.470	0.427	-0.230
-243.961	-15.117	0.300	-0.246
-242.946	318.087	-0.079	-0.193
-241.932	-117.175	-0.239	0.055
-240.917	-200.000	-0.011	-0.066
-239.903	-200.000	-0.013	-0.416
-238.888	70.103	-0.067	-0.089
-237.873	-179.685	0.303	-0.008
-236.859	-101.713	-0.371	0.115
-235.844	16.640	-0.235	-0.238
-234.830	-53.402	0.667	-0.391
-233.815	159.222	0.120	-0.215
-232.800	-3.707	-0.196	-0.175
-231.786	21.075	0.098	-0.102
-230.771	99.262	0.182	-0.271
-229.757	-200.000	-0.010	-0.215
-228.742	104.306	0.062	-0.094
-227.727	179.831	0.337	-0.637
-226.713	285.172	0.082	0.190
-225.698	-86.454	-0.274	0.107
-224.684	117.886	0.169	-0.268
-223.669	115.077	0.162	0.254
-222.655	48.897	0.212	0.256
-221.640	7.199	-0.226	-0.216
-220.625	-62.854	-0.113	0.060
-219.611	-68.717	-0.398	-0.197
-218.596	-52.078	0.316	0.188
-217.582	46.699	0.391	0.466
-216.567	-200.000	0.050	0.288
-215.552	-138.048	0.429	-0.061
-214.538	-100.511	0.303	0.096
-213.523	-6.727	-0.393	0.343
-212.509	-150.577	0.281	0.027
-211.494	29.200	0.211	-0.230
-210.479	-200.000	-0.020	0.270
-209.465	-175.852	-0.319	-0.011
-208.450	-66.076	0.312	0.159
-207.436	-86.299	0.346	-0.136
-206.421	800.000	0.245	-0.977
-205.406	-128.656	-0.639	-0.115
-204.392	-17.723	-0.449	0.361
-203.377	219.179	0.053	-0.109
-202.363	-120.630	-0.377	0.081
-201.348	-167.545	0.313	0.016
-200.333	-61.233	0.034	-0.019
-199.319	154.306	-0.083	0.147
-198.304	225.913	0.138	0.289
-197.290	604.013	0.125	-0.400
-196.275	-29.544	-0.206	0.150
-195.260	228.562	0.155	-0.324
-194.246	-89.985	0.411	0.153
-193.231	-10.307	0.363	0.308
-192.217	-92.325	0.533	0.191
-191.202	467.390	0.115	-0.331
-190.187	68.411	0.154	-0.203
-189.173	800.000	0.107	-0.384
-188.158	-200.000	0.026	-0.345
-187.144	-200.000	0.030	-0.252
-186.129	-188.451	0.141	-0.002
-185.114	-200.000	-0.024	0.359
-184.100	118.559	-0.121	0.192
-183.085	-48.752	-0.254	-0.156
-182.071	365.888	0.058	0.151
-181.056	-200.000	0.086	0.545
-180.042	-4.082	0.049	-0.043
-179.027	-42.029	-0.289	0.189
-178.012	-200.000	-0.037	0.392
-176.998	23.623	-0.106	-0.111
-175.983	-200.000	-0.025	0.152
-174.969	-142.869	0.076	0.009
-173.954	510.343	-0.103	0.310
-172.939	-70.106	-0.387	-0.188
-171.925	-116.634	0.168	0.039
-170.910	10.626	0.124	0.121
-169.896	-156.043	-0.190	0.015
-168.881	-200.000	-0.007	0.408
-167.866	26.362	-0.409	-0.438
-166.852	-55.524	-0.211	0.121
-165.837	-200.000	-0.017	0.426
-164.823	97.119	0.248	0.366
-163.808	149.875	-0.227	0.396
-162.793	565.928	-0.130	-0.406
-161.779	-200.000	-0.013	0.341
-160.764	-79.956	-0.264	0.113
-159.750	-66.036	-0.291	-0.148
-158.735	241.197	0.126	0.271
-157.720	189.916	0.144	-0.278
-156.706	-112.367	0.070	0.018
-155.691	-92.737	0.285	0.102
-154.677	-19.875	0.148	-0.117
-153.662	180.866	-0.247	0.465
-152.647	-200.000	0.011	-0.306
-151.633	-200.000	-0.296	-0.000
-150.618	12.131	-0.169	0.167
-149.604	219.278	-0.246	0.505
-148.589	-107.369	0.242	0.068
-147.574	-109.026	-0.666	-0.180
-146.560	-60.561	-0.210	-0.114
-145.545	-200.000	-0.059	-0.331
-144.531	-9.910	0.395	0.336
-143.516	-114.310	-0.274	0.067
-142.502	4.183	-0.019	0.018
-141.487	549.909	-0.031	0.096
-140.472	-78.955	-0.175	0.076
-139.458	492.022	-0.069	-0.204
-138.443	-43.469	0.248	0.160
-137.429	800.000	-0.109	0.426
-136.414	175.399	-0.176	0.328
-135.399	158.968	-0.113	-0.201
-134.385	-108.478	-0.465	-0.127
-133.370	800.000	-0.109	0.428
-132.356	-25.641	-0.168	0.127
-131.341	184.535	0.090	0.172
-130.326	800.000	0.107	0.490
-129.312	-153.416	-0.389	-0.034
-128.297	27.038	-0.200	-0.215
-127.283	-44.212	0.724	0.464
-126.268	-85.910	0.251	-0.099
-125.253	-46.387	0.199	0.125
-124.239	13.235	-0.147	0.146
-123.224	-53.784	0.314	-0.183
-122.210	367.682	0.085	-0.220
-121.195	299.379	0.093	-0.220
-120.180	-79.502	-0.200	0.086
-119.166	-200.000	0.067	-0.533
-118.151	-162.549	-0.358	-0.022
-117.137	800.000	0.034	0.167
-116.122	488.285	-0.154	0.454
-115.107	136.902	-0.232	-0.388
-114.093	-200.000	-0.005	0.585
-113.078	-30.011	0.391	0.284
-112.064	-114.377	-0.245	0.060
-111.049	-200.000	-0.050	0.422
-110.034	19.934	0.266	-0.274
-109.020	218.524	-0.100	0.205
-108.005	-164.399	-0.445	0.026
-106.991	-48.210	-0.105	-0.065
-105.976	224.278	-0.081	0.168
-104.962	13.372	-0.304	0.302
-103.947	75.826	0.291	-0.393
-102.932	800.000	0.145	0.515
-101.918	-152.011	0.617	0.057
-100.903	-92.973	-0.361	-0.128
-99.889	800.000	0.081	-0.420
-98.874	-153.784	-0.144	0.012
-97.859	279.714	0.136	0.313
-96.845	-69.586	0.178	0.087
-95.830	-200.000	-0.111	-0.000
-94.816	-7.150	0.298	0.258
-93.801	140.659	0.151	0.255
-92.786	800.000	0.103	0.419
-91.772	130.278	0.076	0.124
-90.757	92.666	0.128	0.185
-89.743	-132.879	-0.217	0.035
-88.728	245.955	-0.219	0.473
-87.713	-58.731	-0.287	0.158
-86.699	233.706	0.233	0.492
-85.684	211.831	0.188	0.380
-84.670	272.508	0.260	0.590
-83.655	71.063	0.263	0.348
-82.640	-117.719	-0.468	-0.107
-81.626	-11.571	-0.166	0.139
-80.611	50.944	0.372	0.451
-79.597	-72.253	0.276	0.130
-78.582	41.166	0.412	-0.476
-77.567	-200.000	-0.085	0.640
-76.553	-31.999	-0.128	-0.091
-75.538	-64.481	-0.188	-0.097
-74.524	-95.665	-0.384	0.131
-73.509	-25.837	-0.375	0.281
-72.494	-49.427	-0.365	0.222
-71.480	-5.786	-0.037	-0.032
-70.465	-85.066	0.224	0.089
-69.451	800.000	0.084	0.301
-68.436	-87.384	0.277	-0.107
-67.422	-162.751	0.338	-0.021
-66.407	99.019	-0.144	-0.213
-65.392	-79.684	0.203	0.087
-64.378	-200.000	-0.018	0.444
-63.363	11.473	0.274	-0.268
-62.349	-149.581	-0.264	-0.026
-61.334	2.805	-1.781	-1.649
-60.319	160.975	0.800	1.430
-59.305	224.655	-3.228	-6.684
-58.290	26.166	4.038	4.302
-57.276	341.613	4.220	10.574
-56.261	-200.000	20.025	280.921
-55.246	393.529	1253.555	3345.329
-54.232	54.948	2861.257	3528.019
-53.217	53.570	2718.766	3330.770
-52.203	38.966	2445.853	2789.733
-51.188	35.841	2104.246	2361.528
-50.173	31.630	1982.618	2175.866
-49.159	30.402	1971.702	2149.526
-48.144	29.972	1968.080	2140.496
-47.130	29.959	1965.453	2137.403
-46.115	30.068	1963.689	2136.668
-45.100	29.919	1962.704	2133.784
-44.086	29.993	1961.404	2133.144
-43.071	29.927	1959.096	2129.775
-42.057	29.811	1957.687	2126.818
-41.042	29.868	1956.266	2125.848
-40.027	29.885	1954.778	2124.350
-39.013	29.770	1953.831	2121.911
-37.998	29.804	1952.884	2121.186
-36.984	29.830	1951.529	2119.933
-35.969	29.649	1950.599	2116.753
-34.954	29.782	1948.201	2115.602
-33.940	29.690	1947.575	2113.770
-32.925	29.646	1946.659	2112.195
-31.911	29.816	1944.841	2112.090
-30.896	29.768	1943.465	2109.961
-29.881	29.756	1942.314	2108.485
-28.867	29.737	1940.743	2106.477
-27.852	29.709	1938.808	2103.979
-26.838	29.799	1936.947	2102.907
-25.823	29.679	1936.091	2100.517
-24.809	29.597	1935.096	2098.422
-23.794	29.484	1934.113	2095.984
-22.779	29.573	1931.819	2094.431
-21.765	29.617	1930.435	2093.338
-20.750	29.591	1930.441	2092.971
-19.736	29.577	1928.801	2090.955
-18.721	29.522	1927.673	2089.017
-17.706	29.444	1926.543	2086.826
-16.692	29.496	1925.084	2085.753
-15.677	29.641	1923.893	2086.024
-14.663	29.527	1922.660	2083.309
-13.648	29.594	1920.595	2081.755
-12.633	29.436	1920.034	2079.265
-11.619	29.573	1917.769	2078.284
-10.604	29.443	1917.265	2076.183
-9.590	29.395	1916.278	2074.486
-8.575	29.446	1914.116	2072.649
-7.560	29.362	1913.841	2071.315
-6.546	29.316	1912.606	2069.380
-5.531	29.332	1911.724	2068.528
-4.517	29.427	1909.947	2067.591
-3.502	29.455	1909.154	2066.967
-2.487	29.507	1908.592	2066.860
-1.473	29.520	1904.582	2062.579
-0.458	28.809	1884.357	2032.698
0.556	24.118	2023.081	2113.750
1.571	21.960	2234.720	2306.135
2.586	22.868	2277.636	2362.358
3.600	22.933	2280.166	2365.574
4.615	23.128	2278.856	2366.546
5.629	22.930	2277.488	2362.188
6.644	22.927	2275.809	2360.124
7.659	22.884	2274.098	2357.489
8.673	23.190	2271.347	2358.447
9.688	22.790	2279.013	2360.746
10.702	20.884	2357.103	2414.823
11.717	18.533	2421.562	2446.878
12.731	9.128	2398.596	2289.167
13.746	1.389	2377.632	2158.648
14.761	0.323	2374.013	2139.894
15.775	0.167	2372.677	2136.212
16.790	0.186	2370.366	2134.139
17.804	0.177	2368.978	2132.506
18.819	0.041	2368.592	2129.966
19.834	0.095	2366.602	2128.691
20.848	0.009	2365.024	2125.800
21.863	0.173	2362.348	2125.468
22.877	0.070	2361.363	2122.857
23.892	0.101	2358.185	2120.192
24.907	0.097	2356.076	2117.982
25.921	0.114	2354.583	2116.623
26.936	0.169	2351.762	2114.609
27.950	0.170	2349.602	2112.442
28.965	0.145	2347.366	2109.821
29.980	0.174	2346.585	2109.273
30.994	0.198	2344.711	2107.681
32.009	4.383	2356.654	2177.252
33.023	14.758	2388.869	2354.399
34.038	18.997	2396.299	2421.539
35.053	19.135	2393.473	2420.349
36.067	19.138	2390.390	2416.983
37.082	19.039	2388.728	2413.625
38.096	19.190	2385.890	2412.587
39.111	19.265	2385.102	2412.553
40.126	19.513	2382.691	2413.311
41.140	19.563	2381.773	2412.798
42.155	19.701	2379.155	2411.792
43.169	19.585	2377.303	2408.008
44.184	19.446	2374.825	2403.258
45.199	19.364	2371.677	2398.641
46.213	19.417	2371.773	2399.195
47.228	19.564	2371.436	2400.618
48.242	19.535	2369.092	2397.555
49.257	19.545	2367.482	2395.777
50.271	19.703	2364.504	2394.671
51.286	19.449	2361.553	2387.873
52.301	19.231	2360.126	2383.113
53.315	20.173	2363.458	2399.296
54.330	23.366	2371.827	2451.989
55.344	25.300	2373.828	2480.661
56.359	25.625	2370.448	2481.339
57.374	25.660	2370.408	2481.489
58.388	25.681	2366.846	2477.752
59.403	25.517	2361.946	2470.062
60.417	25.065	2358.680	2460.119
61.432	25.156	2357.053	2459.371
62.447	25.346	2355.845	2460.446
63.461	25.566	2353.944	2461.182
64.476	25.678	2351.399	2459.773
65.490	25.489	2349.846	2455.262
66.505	24.598	2346.415	2439.162
67.520	22.321	2337.207	2398.138
68.534	19.952	2328.456	2356.501
69.549	19.196	2323.672	2341.046
70.563	19.049	2321.104	2336.174
71.578	19.184	2318.728	2335.336
72.593	19.376	2317.579	2336.526
73.607	19.410	2317.010	2336.129
74.622	19.414	2314.626	2333.499
75.636	19.237	2311.422	2327.587
76.651	19.123	2307.954	2322.275
77.666	19.206	2306.108	2321.260
78.680	19.044	2304.008	2316.679
79.695	18.772	2301.829	2310.533
80.709	18.868	2299.537	2309.251
81.724	18.727	2298.086	2305.618
82.739	18.576	2295.690	2300.900
83.753	18.669	2292.476	2298.650
84.768	18.716	2290.990	2297.517
85.782	18.601	2289.940	2294.645
86.797	18.406	2288.812	2290.623
87.812	18.516	2286.576	2289.580
88.826	18.595	2285.313	2289.110
89.841	18.805	2281.885	2288.213
90.855	18.659	2280.597	2284.686
91.870	18.719	2278.434	2283.055
92.884	18.885	2276.343	2282.907
93.899	18.950	2275.072	2282.221
94.914	19.499	2279.007	2293.234
95.928	22.317	2286.835	2338.531
96.943	23.367	2285.401	2350.802
97.957	20.719	2274.571	2304.190
98.972	19.049	2267.145	2274.222
99.987	18.745	2264.442	2267.209
101.001	18.783	2261.369	2264.365
102.016	18.722	2259.963	2261.880
103.030	18.628	2256.830	2257.224
104.045	18.596	2254.704	2254.413
105.060	18.645	2252.497	2252.581
106.074	18.651	2250.737	2250.624
107.089	18.616	2249.310	2248.474
108.103	18.711	2247.782	2247.929
109.118	18.759	2246.506	2247.008
110.133	18.920	2245.957	2248.308
111.147	18.837	2243.287	2244.271
112.162	18.784	2242.266	2242.288
113.176	19.015	2239.386	2242.171
114.191	19.087	2238.505	2241.959
115.206	19.110	2238.162	2241.650
116.220	19.124	2235.488	2238.885
117.235	19.264	2233.104	2238.059
118.249	19.287	2230.978	2235.955
119.264	19.281	2230.138	2234.765
120.279	19.255	2228.342	2232.365
121.293	19.231	2225.976	2229.417
122.308	19.135	2224.923	2226.853
123.322	19.098	2223.419	2224.601
124.337	19.303	2225.219	2228.800
125.352	22.312	2234.119	2276.644
126.366	23.169	2232.509	2285.865
127.381	20.320	2220.088	2236.027
128.395	19.102	2213.832	2213.726
129.410	19.022	2211.596	2210.194
130.424	18.928	2210.845	2207.970
131.439	19.059	2210.077	2208.624
132.454	19.226	2207.540	2207.981
133.468	19.394	2205.383	2207.721
134.483	19.334	2204.223	2205.522
135.497	19.499	2202.033	2205.183
136.512	19.298	2200.174	2200.476
137.527	19.043	2198.410	2195.178
138.541	18.774	2196.146	2189.217
139.556	18.796	2194.490	2187.576
140.570	18.733	2192.559	2184.588
141.585	18.660	2190.528	2181.370
142.600	18.507	2189.564	2178.199
143.614	18.652	2186.893	2177.127
144.629	18.507	2184.850	2172.982
145.643	18.552	2183.196	2171.654
146.658	18.417	2181.829	2168.316
147.673	18.377	2179.836	2165.567
148.687	18.408	2179.150	2165.025
149.702	18.648	2177.922	2166.591
150.716	18.559	2177.809	2165.082
151.731	18.752	2175.937	2165.411
152.746	18.857	2174.777	2165.331
153.760	19.512	2179.095	2177.672
154.775	22.556	2186.134	2223.107
155.789	23.720	2184.959	2236.391
156.804	20.733	2173.649	2186.885
157.819	18.949	2165.578	2156.037
158.833	18.552	2162.545	2147.762
159.848	18.604	2160.402	2146.038
160.862	18.682	2158.857	2145.221
161.877	18.863	2157.954	2146.332
162.892	18.855	2157.493	2145.518
163.906	18.883	2156.142	2144.279
164.921	18.865	2153.139	2140.805
165.935	18.884	2151.249	2138.913
166.950	19.008	2149.837	2138.792
167.964	18.951	2147.801	2135.804
168.979	18.703	2146.136	2130.797
169.994	18.692	2144.174	2128.458
171.008	18.579	2141.955	2124.596
172.023	18.681	2140.949	2124.615
173.037	18.992	2139.924	2127.202
174.052	19.272	2138.580	2129.098
175.067	19.149	2138.068	2126.804
176.081	19.094	2136.517	2124.319
177.096	19.168	2135.237	2123.708
178.110	19.223	2132.767	2121.682
179.125	19.277	2131.865	2121.203
180.140	19.136	2130.947	2118.283
181.154	19.165	2129.275	2116.737
182.169	19.164	2129.439	2116.632
183.183	20.029	2131.643	2129.261
184.198	23.150	2139.290	2175.273
185.213	23.832	2136.112	2180.189
186.227	20.733	2126.024	2131.553
187.242	19.328	2121.393	2109.382
188.256	19.099	2119.635	2104.576
189.271	19.154	2117.143	2102.519
190.286	18.956	2115.601	2098.305
191.300	19.060	2112.980	2096.733
192.315	19.063	2111.676	2095.229
193.329	19.179	2111.174	2095.894
194.344	19.533	2110.393	2099.198
195.359	19.550	2108.824	2097.588
196.373	19.242	2106.166	2090.940
197.388	19.092	2102.965	2085.688
198.402	18.913	2100.755	2081.063
199.417	18.779	2098.253	2076.709
200.432	18.802	2096.515	2075.025
201.446	18.787	2096.158	2074.237
202.461	18.642	2094.395	2070.484
203.475	18.555	2092.235	2067.049
204.490	18.595	2089.785	2064.862
205.504	18.662	2087.160	2062.837
206.519	18.671	2085.329	2060.882
207.534	18.609	2084.208	2058.775
208.548	18.640	2082.465	2057.181
209.563	18.737	2082.344	2057.984
210.577	18.828	2081.681	2058.187
211.592	18.890	2081.180	2058.191
212.607	20.267	2085.698	2079.002
213.621	23.656	2093.091	2127.011
214.636	23.323	2087.292	2116.865
215.650	20.047	2077.938	2067.889
216.665	19.049	2073.268	2051.042
217.680	18.917	2070.897	2046.865
218.694	18.781	2068.533	2042.657
219.709	18.578	2067.510	2038.986
220.723	18.686	2067.048	2039.578
221.738	18.953	2064.444	2039.950
222.753	19.010	2062.002	2037.970
223.767	18.950	2060.950	2035.967
224.782	18.851	2059.593	2033.210
225.796	18.844	2057.663	2030.972
226.811	18.855	2056.905	2030.112
227.826	18.912	2055.583	2029.242
228.840	18.925	2053.642	2027.235
229.855	18.980	2052.570	2026.583
230.869	18.985	2050.622	2024.475
231.884	18.929	2049.674	2022.638
232.899	19.230	2048.032	2024.339
233.913	19.189	2047.656	2023.232
234.928	19.078	2046.156	2020.198
235.942	19.209	2044.370	2019.738
236.957	19.161	2043.582	2018.150
237.972	19.075	2042.150	2015.490
238.986	19.182	2040.194	2014.579
240.001	19.108	2038.619	2011.909
241.015	19.096	2037.874	2010.790
242.030	19.850	2040.149	2021.656
243.045	22.719	2046.474	2061.428
244.059	23.412	2043.682	2066.495
245.074	20.387	2033.585	2020.704
246.088	19.287	2028.288	2002.361
247.103	19.443	2028.066	2003.726
248.117	19.369	2026.149	2000.736
249.132	19.263	2023.300	1996.448
250.147	19.195	2020.774	1992.920
251.161	19.301	2019.821	1992.972
252.176	19.425	2019.921	1994.271
253.190	19.802	2018.702	1997.212
254.205	19.901	2016.470	1995.911
255.220	19.888	2015.677	1994.735
256.234	19.754	2014.678	1991.962
257.249	19.517	2011.835	1986.166
258.263	19.065	2010.049	1978.946
259.278	18.865	2008.969	1975.334
260.293	18.868	2006.315	1972.524
261.307	18.738	2004.805	1969.304
262.322	18.624	2003.139	1966.110
263.336	18.483	2001.567	1962.716
264.351	18.486	1998.492	1959.503
265.366	18.366	1997.889	1957.290
266.380	18.535	1996.387	1957.526
267.395	18.541	1994.864	1955.868
268.409	18.556	1993.338	1954.310
269.424	18.669	1993.015	1955.050
270.439	18.609	1992.069	1953.206
271.453	19.789	1994.904	1969.266
272.468	23.092	2001.784	2013.688
273.482	23.382	1997.693	2012.648
274.497	20.365	1987.002	1967.322
275.512	18.774	1982.156	1944.204
276.526	18.552	1979.739	1939.070
277.541	18.604	1977.851	1937.586
278.555	18.391	1977.397	1934.490
279.570	18.437	1974.474	1931.919
280.585	18.566	1973.629	1932.323
281.599	18.594	1972.320	1931.121
282.614	18.951	1971.558	1934.183
283.628	19.206	1971.738	1937.013
284.643	19.201	1970.837	1935.837
285.657	19.641	1969.654	1939.415
286.672	19.762	1968.251	1939.165
287.687	19.536	1966.090	1934.253
288.701	19.437	1964.754	1931.596
289.716	19.500	1963.423	1930.771
290.730	19.667	1961.991	1931.005
291.745	19.654	1960.668	1929.322
292.760	19.694	1959.339	1928.232
293.774	19.301	1959.631	1923.880
294.789	19.504	1958.166	1924.490
295.803	19.403	1955.668	1920.675
296.818	19.194	1953.535	1916.015
297.833	19.246	1951.790	1914.654
298.847	19.086	1950.663	1911.524
299.862	19.151	1949.183	1910.572
300.876	19.878	1950.756	1919.999
301.891	23.134	1958.636	1963.915
302.906	23.687	1956.021	1967.220
303.920	20.425	1946.525	1921.232
304.935	19.289	1941.264	1903.204
305.949	19.129	1939.992	1899.954
306.964	19.031	1938.427	1897.113
307.979	19.336	1937.303	1899.160
308.993	19.435	1936.550	1899.290
310.008	19.737	1934.342	1900.232
311.022	19.864	1933.230	1900.315
312.037	19.652	1932.451	1896.987
313.052	19.892	1930.459	1897.451
314.066	19.989	1928.538	1896.402
315.081	19.906	1927.111	1893.859
316.095	19.672	1926.165	1890.132
317.110	19.302	1923.935	1883.646
318.125	19.220	1921.675	1880.312
319.139	19.289	1920.505	1879.699
320.154	19.220	1918.914	1877.161
321.168	19.038	1916.903	1872.974
322.183	18.845	1915.454	1869.228
323.197	18.733	1913.645	1866.020
324.212	18.548	1911.431	1861.615
325.227	18.555	1909.694	1859.776
326.241	18.530	1908.135	1857.761
327.256	18.687	1906.327	1857.492
328.270	18.617	1905.016	1855.232
329.285	18.722	1904.486	1855.634
330.300	19.647	1910.965	1871.796
331.314	23.101	1917.494	1915.644
332.329	23.415	1911.313	1912.637
333.343	19.956	1902.063	1865.756
334.358	18.688	1897.480	1847.328
335.373	18.539	1896.508	1844.553
336.387	18.383	1893.955	1840.163
337.402	18.414	1892.435	1838.804
338.416	18.621	1890.773	1839.194
339.431	18.610	1890.383	1838.481
340.446	18.841	1888.306	1838.725
341.460	18.888	1887.601	1838.324
342.475	19.151	1885.969	1839.331
343.489	19.496	1885.498	1842.362
344.504	19.378	1885.551	1840.921
345.519	19.556	1883.430	1840.545
346.533	19.699	1881.587	1840.053
347.548	19.837	1880.665	1840.399
348.562	20.164	1882.088	1845.070
349.577	20.986	1882.885	1854.426
350.592	20.938	1879.220	1850.079
351.606	20.206	1877.339	1840.206
352.621	19.962	1874.373	1834.476
353.635	19.388	1873.304	1827.097
354.650	19.342	1871.286	1824.422
355.665	19.254	1869.304	1821.344
356.679	19.053	1867.701	1817.424
357.694	19.058	1865.619	1815.234
358.708	18.927	1865.349	1813.366
359.723	20.220	1868.963	1830.390
360.738	23.704	1874.733	1872.822
361.752	23.200	1870.387	1862.925
362.767	20.388	1861.117	1823.821
363.781	19.197	1856.882	1806.898
364.796	19.021	1856.052	1804.024
365.810	18.881	1854.418	1800.741
366.825	19.091	1852.839	1801.207
367.840	19.338	1852.357	1803.115
368.854	19.388	1851.087	1802.192
369.869	19.378	1850.040	1800.853
370.883	19.581	1848.555	1801.321
371.898	19.645	1847.983	1801.216
372.913	19.466	1847.022	1798.195
373.927	19.816	1846.582	1801.211
374.942	19.915	1844.360	1799.865
375.956	19.776	1842.293	1796.181
376.971	19.492	1840.362	1791.120
377.986	19.254	1838.162	1786.289
379.000	19.017	1837.413	1782.876
380.015	19.085	1834.840	1780.874
381.029	19.114	1833.079	1779.246
382.044	18.851	1830.860	1774.155
383.059	18.681	1829.877	1771.229
384.073	18.646	1828.401	1769.217
385.088	18.675	1827.529	1768.462
386.102	18.572	1826.663	1766.351
387.117	18.698	1824.005	1764.870
388.132	18.615	1824.259	1764.043
389.146	19.619	1829.131	1778.950
390.161	23.129	1833.884	1819.717
391.175	23.170	1827.572	1813.658
392.190	19.915	1818.256	1770.783
393.205	19.005	1814.516	1757.579
394.219	18.861	1812.418	1753.862
395.234	18.750	1811.124	1751.266
396.248	18.816	1809.273	1749.936
397.263	18.817	1806.960	1747.507
398.278	18.685	1806.032	1745.043
399.292	18.823	1805.786	1746.012
400.307	18.911	1805.049	1745.984
401.321	19.209	1803.571	1747.387
402.336	19.079	1802.220	1744.541
403.350	19.092	1801.517	1743.790
404.365	19.404	1801.423	1746.667
405.380	20.013	1799.993	1751.256
406.394	19.796	1799.202	1748.074
407.409	19.478	1797.654	1743.137
408.423	19.736	1796.214	1744.148
409.438	19.661	1794.159	1741.179
410.453	19.544	1793.408	1739.058
411.467	19.798	1793.254	1741.274
412.482	19.419	1790.920	1734.967
413.496	19.102	1788.293	1729.021
414.511	19.041	1786.405	1726.364
415.526	18.969	1783.697	1722.821
416.540	18.822	1782.697	1720.166
417.555	18.853	1782.426	1720.009
418.569	19.145	1782.674	1722.981
419.584	19.510	1781.228	1725.045
420.599	19.164	1780.758	1720.911
421.613	19.149	1779.588	1719.427
422.628	19.018	1778.360	1716.720
423.642	19.087	1775.751	1714.685
424.657	18.962	1775.057	1712.558
425.672	19.191	1773.521	1713.158
426.686	19.178	1771.998	1711.359
427.701	19.152	1770.610	1709.552
428.715	19.195	1769.997	1709.184
429.730	19.552	1768.562	1711.145
430.745	19.359	1767.082	1707.591
431.759	19.446	1767.263	1708.429
432.774	19.744	1767.271	1711.199
433.788	20.180	1767.634	1715.680
434.803	20.447	1766.288	1716.820
435.818	20.493	1765.571	1716.371
436.832	20.308	1765.586	1714.345
437.847	19.639	1758.682	1700.825
438.861	11.424	1735.790	1597.933
439.876	2.196	1718.577	1491.648
440.890	0.446	1713.831	1470.215
441.905	0.212	1712.618	1466.718
442.920	0.260	1711.714	1466.233
443.934	0.301	1709.911	1464.912
444.949	0.219	1708.192	1462.464
445.963	0.216	1708.343	1462.390
446.978	0.154	1708.296	1461.565
447.993	0.148	1706.490	1459.794
449.007	0.238	1704.057	1458.408
450.022	0.227	1702.356	1456.677
451.036	0.078	1701.271	1454.127
452.051	1.215	1705.500	1468.629
453.066	9.651	1725.620	1568.576
454.080	18.621	1740.338	1669.907
455.095	21.437	1744.612	1701.375
456.109	22.891	1746.466	1717.205
457.124	23.411	1746.022	1721.639
458.139	23.350	1745.696	1720.514
459.153	23.281	1744.639	1718.600
460.168	23.403	1742.316	1717.294
461.182	23.226	1740.654	1713.730
462.197	23.158	1739.635	1711.854
463.212	22.863	1737.290	1706.482
464.226	22.924	1736.425	1706.012
465.241	23.300	1736.306	1709.343
466.255	23.555	1735.323	1710.646
467.270	23.667	1733.527	1709.756
468.285	23.236	1731.663	1703.542
469.299	23.062	1730.013	1700.036
470.314	23.308	1728.558	1700.779
471.328	23.421	1727.226	1700.353
472.343	23.377	1726.717	1699.222
473.358	23.478	1725.196	1698.493
474.372	23.600	1723.558	1697.853
475.387	23.346	1722.200	1693.868
476.401	23.259	1720.431	1691.096
477.416	23.186	1718.929	1688.716
478.430	23.324	1718.605	1689.519
479.445	23.138	1717.119	1686.069
480.460	22.818	1715.877	1681.587
481.474	22.953	1715.408	1682.221
482.489	23.418	1714.971	1686.034
483.503	23.837	1713.126	1688.018
484.518	23.825	1711.969	1686.567
485.533	23.758	1710.491	1684.266
486.547	23.704	1709.175	1682.254
487.562	24.121	1709.385	1686.225
488.576	24.210	1707.985	1685.495
489.591	24.130	1705.818	1682.392
490.606	23.916	1703.663	1678.040
491.620	23.804	1702.974	1676.093
492.635	24.184	1701.593	1678.130
493.649	24.586	1699.894	1680.061
494.664	23.900	1696.994	1670.512
495.679	23.056	1695.249	1660.633
496.693	23.225	1694.589	1661.383
497.708	23.587	1694.508	1664.517
498.722	24.060	1694.203	1668.482
499.737	24.197	1692.626	1668.017
500.752	23.889	1690.362	1662.686
501.766	23.729	1688.382	1659.039
502.781	23.914	1686.764	1658.986
503.795	23.899	1685.238	1657.143
504.810	23.801	1685.166	1655.964
505.825	24.171	1685.342	1659.398
506.839	24.033	1683.358	1655.956
507.854	24.017	1681.816	1654.095
508.868	23.962	1680.690	1652.268
509.883	23.884	1679.400	1650.082
510.898	24.070	1678.678	1650.909
511.912	23.974	1676.310	1647.488
512.927	23.596	1674.079	1641.584
513.941	23.459	1673.124	1639.173
514.956	23.666	1671.385	1639.199
515.971	23.732	1670.804	1639.048
516.985	23.723	1669.924	1637.900
518.000	23.826	1669.441	1638.181
519.014	24.167	1669.076	1640.786
520.029	24.262	1667.219	1639.645
521.043	24.074	1665.851	1636.369
522.058	23.998	1664.250	1633.895
523.073	24.074	1664.538	1634.687
524.087	24.659	1663.578	1638.939
525.102	24.614	1661.076	1635.870
526.116	24.103	1658.618	1628.557
527.131	23.860	1658.249	1625.766
528.146	24.378	1658.866	1630.937
529.160	24.625	1658.099	1632.253
530.175	24.614	1657.189	1631.058
531.189	24.730	1656.437	1631.190
532.204	24.879	1654.538	1630.486
533.219	24.353	1651.490	1622.478
534.233	23.889	1649.937	1616.524
535.248	24.302	1649.861	1620.023
536.262	24.907	1649.614	1625.117
537.277	24.941	1648.676	1624.300
538.292	24.534	1646.780	1618.532
539.306	24.449	1645.206	1616.017
540.321	24.497	1643.440	1614.526
541.335	24.269	1641.663	1610.520
542.350	24.674	1641.153	1613.499
543.365	24.943	1639.113	1613.738
544.379	24.985	1638.815	1613.632
545.394	25.066	1637.640	1613.013
546.408	24.463	1634.830	1604.608
547.423	23.966	1632.255	1597.402
548.438	23.750	1631.413	1594.439
549.452	24.278	1631.076	1598.681
550.467	24.279	1630.944	1598.368
551.481	24.476	1629.775	1598.806
552.496	24.744	1629.799	1601.047
553.511	25.184	1628.807	1603.842
554.525	25.096	1627.684	1601.754
555.540	25.290	1626.903	1602.531
556.554	25.254	1625.840	1600.974
557.569	25.158	1623.490	1597.608
558.583	24.856	1621.235	1592.491
559.598	24.965	1620.134	1592.201
560.613	24.760	1620.219	1590.261
561.627	24.766	1619.070	1588.989
562.642	24.973	1617.903	1589.503
563.656	25.296	1616.457	1590.770
564.671	25.316	1615.085	1589.409
565.686	25.278	1613.564	1587.383
566.700	24.919	1612.099	1582.564
567.715	24.666	1610.679	1578.733
568.729	24.456	1608.577	1574.622
569.744	24.304	1606.358	1570.915
570.759	24.466	1605.699	1571.516
571.773	24.561	1605.523	1571.998
572.788	24.786	1604.244	1572.542
573.802	24.911	1602.410	1571.663
574.817	25.132	1601.231	1572.263
575.832	25.435	1600.212	1573.750
576.846	25.290	1599.290	1571.374
577.861	25.138	1597.970	1568.552
578.875	25.272	1598.145	1569.718
579.890	25.717	1597.205	1572.512
580.905	25.558	1596.422	1570.156
581.919	25.586	1596.710	1570.504
582.934	25.908	1595.260	1571.708
583.948	26.035	1593.584	1570.982
584.963	25.705	1591.528	1565.878
585.978	25.438	1589.218	1561.092
586.992	25.471	1589.566	1561.530
588.007	25.819	1589.062	1563.884
589.021	25.043	1585.926	1553.849
590.036	24.381	1584.876	1546.869
591.051	24.968	1584.242	1551.176
592.065	25.490	1583.802	1555.108
593.080	25.781	1582.072	1555.744
594.094	25.690	1580.010	1552.743
595.109	25.080	1576.944	1544.266
596.123	24.700	1575.573	1539.450
597.138	25.078	1575.736	1542.697
598.153	25.544	1574.115	1544.950
599.167	25.375	1573.197	1542.401
600.182	25.553	1572.604	1543.170
601.196	25.573	1572.359	1542.922
602.211	25.532	1571.624	1541.661
603.226	25.788	1570.563	1542.636
604.240	26.072	1568.511	1542.881
605.255	26.223	1567.549	1543.044
606.269	26.050	1566.868	1540.704
607.284	25.976	1565.377	1538.418
608.299	26.062	1563.732	1537.355
609.313	25.662	1562.549	1532.586
610.328	25.687	1561.335	1531.428
611.342	25.854	1559.936	1531.301
612.357	26.072	1559.136	1532.190
613.372	25.936	1558.529	1530.254
614.386	25.727	1556.965	1526.747
615.401	26.013	1556.077	1528.135
616.415	26.032	1555.763	1527.807
617.430	25.948	1554.616	1525.780
618.445	26.230	1553.138	1526.541
619.459	25.883	1551.548	1521.852
620.474	25.511	1550.343	1517.331
621.488	25.087	1547.383	1510.666
622.503	24.691	1546.048	1505.827
623.518	25.270	1547.080	1511.556
624.532	25.937	1546.064	1516.023
625.547	25.860	1545.610	1514.742
626.561	26.265	1545.018	1517.401
627.576	26.334	1543.817	1516.623
628.591	25.964	1540.334	1509.902
629.605	25.690	1539.171	1506.279
630.620	25.331	1537.842	1501.784
631.634	25.020	1536.619	1497.790
632.649	25.022	1536.191	1497.219
633.663	25.656	1535.822	1501.998
634.678	26.059	1535.474	1504.857
635.693	26.432	1533.618	1505.980
636.707	26.402	1532.815	1504.762
637.722	26.769	1531.396	1506.254
638.736	26.706	1530.339	1504.505
639.751	26.766	1529.631	1504.130
640.766	26.710	1527.866	1501.752
641.780	26.672	1526.709	1500.115
642.795	26.440	1525.678	1496.996
643.809	26.551	1525.648	1497.710
644.824	26.617	1524.479	1496.927
645.839	26.601	1523.291	1495.448
646.853	26.712	1521.112	1494.052
647.868	26.548	1519.439	1490.871
648.882	26.404	1519.315	1489.378
649.897	26.266	1517.284	1486.070
650.912	26.545	1515.464	1486.418
651.926	26.560	1514.772	1485.679
652.941	26.280	1512.893	1481.356
653.955	25.673	1510.452	1473.793
654.970	24.958	1508.185	1465.522
655.985	25.026	1506.377	1464.148
656.999	25.079	1505.218	1463.284
658.014	25.571	1505.293	1467.217
659.028	26.026	1505.575	1471.052
660.043	26.415	1505.124	1473.616
661.058	26.550	1504.088	1473.532
662.072	26.569	1503.325	1472.767
663.087	26.425	1502.372	1470.475
664.101	26.170	1501.419	1467.289
665.116	26.483	1500.001	1468.274
666.131	26.662	1498.979	1468.562
667.145	26.598	1498.639	1467.527
668.160	26.832	1497.307	1467.958
669.174	26.965	1496.359	1467.928
670.189	26.929	1494.463	1465.600
671.204	26.816	1493.018	1463.091
672.218	26.794	1492.345	1462.077
673.233	26.966	1491.852	1462.814
674.247	27.311	1491.192	1464.784
675.262	27.253	1490.522	1463.484
676.276	27.042	1489.781	1460.871
677.291	27.004	1487.843	1458.489
678.306	26.760	1485.605	1454.156
679.320	26.643	1484.830	1452.277
680.335	26.965	1484.064	1453.953
681.349	26.956	1484.399	1454.034
682.364	26.964	1483.405	1452.950
683.379	26.947	1481.617	1450.887
684.393	27.004	1479.769	1449.363
685.408	26.945	1478.914	1447.882
686.422	26.640	1477.856	1444.224
687.437	26.856	1476.976	1444.917
688.452	27.048	1476.870	1446.181
689.466	26.879	1474.422	1442.261
690.481	26.864	1472.932	1440.515
691.495	26.445	1471.689	1435.784
692.510	25.825	1469.538	1428.568
693.525	25.584	1467.660	1424.652
694.539	25.925	1467.204	1426.754
695.554	26.505	1468.645	1432.599
696.568	26.884	1467.444	1434.269
697.583	26.987	1466.395	1433.891
698.598	27.096	1465.382	1433.595
699.612	27.278	1464.635	1434.132
700.627	27.339	1463.293	1433.136
701.641	27.402	1461.927	1432.119
702.656	27.253	1461.363	1430.221
703.671	27.535	1461.866	1432.769
704.685	27.523	1460.643	1431.302
705.700	27.452	1458.890	1428.859
706.714	27.188	1456.766	1424.524
707.729	26.940	1454.878	1420.557
708.744	27.058	1453.128	1419.609
709.758	26.825	1452.167	1416.669
710.773	26.183	1450.402	1409.741
711.787	25.883	1448.555	1405.424
712.802	26.344	1448.239	1408.564
713.816	26.910	1447.481	1412.087
714.831	27.040	1447.411	1412.863
715.846	27.231	1446.370	1413.170
716.860	27.371	1444.947	1412.703
717.875	27.243	1443.936	1410.551
718.889	27.144	1442.388	1408.093
719.904	27.015	1442.711	1407.243
720.919	27.356	1440.782	1407.841
721.933	27.417	1439.995	1407.376
722.948	27.434	1439.235	1406.595
723.962	27.488	1438.020	1405.661
724.977	27.523	1437.259	1405.024
725.992	27.538	1436.087	1403.819
727.006	27.550	1434.534	1402.231
728.021	27.602	1433.089	1401.051
729.035	27.714	1432.371	1401.047
730.050	27.663	1431.582	1399.711
731.065	27.491	1430.516	1397.175
732.079	27.652	1429.197	1396.958
733.094	27.656	1427.728	1395.387
734.108	27.566	1425.887	1392.730
735.123	27.591	1424.604	1391.506
736.138	27.402	1423.530	1388.841
737.152	27.419	1422.676	1387.971
738.167	27.623	1422.635	1389.323
739.181	27.920	1421.016	1389.851
740.196	27.939	1420.217	1389.046
741.211	27.723	1419.315	1386.346
742.225	27.629	1419.047	1385.208
743.240	27.500	1417.700	1382.739
744.254	27.440	1416.327	1380.776
745.269	27.441	1415.018	1379.340
746.284	27.223	1414.096	1376.621
747.298	27.179	1412.353	1374.423
748.313	26.888	1410.691	1370.437
749.327	26.545	1408.993	1366.019
750.342	26.182	1407.498	1361.653
751.356	25.715	1406.179	1356.680
752.371	26.005	1405.920	1358.466
753.386	26.759	1406.449	1364.516
754.400	27.317	1406.049	1368.185
755.415	27.780	1405.303	1370.791
756.429	27.952	1403.567	1370.234
757.444	27.814	1402.427	1367.917
758.459	27.856	1401.557	1367.223
759.473	27.971	1400.467	1366.861
760.488	27.826	1398.869	1364.048
761.502	27.829	1397.579	1362.644
762.517	27.726	1396.888	1361.036
763.532	27.637	1395.574	1358.925
764.546	27.308	1393.644	1354.426
765.561	26.746	1391.520	1347.997
766.575	25.681	1390.229	1338.630
767.590	25.769	1389.297	1338.231
768.605	26.529	1389.078	1343.532
769.619	27.175	1388.570	1347.698
770.634	27.409	1387.743	1348.475
771.648	27.586	1386.935	1348.845
772.663	27.810	1386.396	1349.821
773.678	27.760	1386.339	1349.237
774.692	27.775	1385.788	1348.644
775.707	27.879	1385.054	1348.540
776.721	27.899	1384.477	1347.965
777.736	27.842	1382.920	1345.868
778.751	27.880	1381.881	1344.979
779.765	27.913	1380.690	1343.901
780.780	27.777	1380.006	1342.066
781.794	27.822	1378.654	1340.927
782.809	27.734	1377.250	1338.749
783.824	27.466	1375.641	1335.056
784.838	27.134	1372.256	1329.170
785.853	26.417	1371.394	1322.905
786.867	26.711	1371.569	1325.078
787.882	26.934	1371.380	1326.370
788.897	27.113	1370.842	1327.010
789.911	27.180	1370.379	1326.897
790.926	27.557	1368.653	1327.825
791.940	27.605	1367.696	1327.087
792.955	27.743	1366.602	1326.876
793.969	27.761	1365.571	1325.846
794.984	27.841	1365.288	1326.001
795.999	27.956	1364.368	1325.786
797.013	28.081	1362.216	1324.443
798.028	27.962	1361.166	1322.401
799.042	28.064	1360.848	1322.674
800.057	28.219	1359.310	1322.147
801.072	28.129	1358.006	1320.068
802.086	28.069	1357.125	1318.616
803.101	28.025	1356.319	1317.362
804.115	28.055	1355.001	1316.138
805.130	28.145	1353.494	1315.170
806.145	27.964	1352.659	1312.894
807.159	27.957	1350.598	1310.683
808.174	27.828	1349.492	1308.523
809.188	27.594	1348.486	1305.711
810.203	27.629	1346.177	1303.569
811.218	27.131	1344.461	1298.175
812.232	26.636	1342.265	1292.352
813.247	26.301	1341.839	1289.382
814.261	26.872	1342.322	1293.789
815.276	27.567	1341.972	1298.272
816.291	27.761	1341.134	1298.696
817.305	27.780	1340.359	1297.927
818.320	27.867	1339.520	1297.577
819.334	27.949	1338.562	1297.083
820.349	28.050	1336.930	1296.062
821.364	28.168	1335.603	1295.464
822.378	28.186	1334.435	1294.299
823.393	28.258	1332.438	1292.720
824.407	28.282	1331.383	1291.716
825.422	28.103	1331.415	1290.323
826.437	27.856	1330.051	1287.095
827.451	27.508	1327.540	1282.048
828.466	27.044	1325.023	1276.186
829.480	26.694	1323.509	1272.105
830.495	27.055	1321.879	1272.933
831.509	27.356	1321.726	1274.751
832.524	27.491	1321.897	1275.713
833.539	27.938	1320.703	1277.556
834.553	28.211	1319.505	1278.161
835.568	28.154	1318.963	1277.083
836.582	28.071	1318.194	1275.604
837.597	27.983	1316.899	1273.581
838.612	28.049	1314.245	1271.320
839.626	27.887	1312.889	1268.725
840.641	27.660	1311.704	1265.846
841.655	27.257	1310.523	1261.743
842.670	26.441	1308.871	1254.320
843.685	25.800	1307.312	1248.212
844.699	26.763	1306.958	1254.425
845.714	27.334	1306.453	1257.760
846.728	27.521	1305.358	1257.852
847.743	27.718	1304.529	1258.268
848.758	27.796	1304.365	1258.500
849.772	28.149	1303.393	1259.857
850.787	28.052	1302.238	1257.918
851.801	28.025	1301.273	1256.646
852.816	27.939	1299.561	1254.249
853.831	28.104	1297.804	1253.540
854.845	27.989	1295.570	1250.440
855.860	27.825	1293.955	1247.611
856.874	27.490	1293.109	1244.345
857.889	27.332	1291.515	1241.577
858.904	27.009	1289.570	1237.348
859.918	26.759	1287.103	1233.124
860.933	26.503	1286.027	1230.192
861.947	27.017	1286.349	1233.865
862.962	27.250	1285.223	1234.232
863.977	27.205	1284.454	1233.035
864.991	27.529	1284.729	1235.364
866.006	27.566	1284.629	1235.367
867.020	27.846	1283.274	1235.824
868.035	27.947	1282.094	1235.228
869.049	28.060	1281.930	1235.687
870.064	28.164	1280.034	1234.420
871.079	28.075	1279.328	1232.987
872.093	27.566	1278.939	1229.012
873.108	27.873	1276.973	1229.052
874.122	27.448	1275.022	1224.160
875.137	27.115	1273.620	1220.415
876.152	26.969	1272.519	1218.230
877.166	27.015	1271.691	1217.604
878.181	27.324	1270.868	1218.750
879.195	27.550	1270.816	1220.079
880.210	27.949	1269.786	1221.622
881.225	28.076	1268.952	1221.526
882.239	27.975	1268.162	1219.946
883.254	28.058	1267.410	1219.629
884.268	28.106	1266.788	1219.208
885.283	28.093	1265.281	1217.526
886.298	28.170	1263.283	1215.974
887.312	28.077	1262.257	1214.218
888.327	28.084	1261.626	1213.508
889.341	28.026	1260.221	1211.628
890.356	27.806	1259.601	1209.421
891.371	27.951	1258.730	1209.406
892.385	27.886	1257.900	1208.029
893.400	27.628	1256.780	1205.097
894.414	27.573	1255.220	1203.092
895.429	27.280	1252.884	1198.770
896.444	26.647	1250.370	1192.038
897.458	25.943	1249.611	1186.515
898.473	26.361	1249.784	1189.298
899.487	27.094	1249.962	1194.170
900.502	27.351	1249.097	1194.898
901.517	27.699	1247.294	1195.321
902.531	27.799	1247.088	1195.640
903.546	27.856	1246.992	1195.779
904.560	27.883	1245.604	1194.486
905.575	27.904	1244.970	1193.875
906.589	27.907	1243.793	1192.623
907.604	27.849	1242.120	1190.490
