DTS Sentinel unit serial number:	SN409020Multiplexer serial number:	ORYXHardware model number:	OX4-SRSoftware version number:	ORYX F/W v3.00 Oryx Data Collector v3.7.2.0data status	okinstallation	HaddamTimeLapsedifferential loss correction	single-endedforward channel	channel 3reverse channel	N/Adate	2011/06/22time	09:16:16forward acquisition time	30.00reverse acquisition time	0.00gamma	498.7831k internal	0.1795k external	0.1795temperature offset calibration	1.0074default loss term (dB/km)	0.3790temperature slope calibration	1.3530multiplexer offset coefficient	1.0000multiplexer slope coefficient	1.0000fibre end	0.00T internal ref (°C)	27.78T ext. ref 1 (°C)	23.30T ext. ref 2 (°C)	0.17length (m)	temperature (°C)	Stokes	anti-Stokes-747.200	-60.560	-0.330	-0.181
-746.185	800.000	-0.037	0.150
-745.171	7.038	-0.210	0.203
-744.156	-200.000	-0.035	0.249
-743.142	-0.355	-0.076	-0.070
-742.127	800.000	-0.115	0.421
-741.112	-200.000	-0.009	-0.136
-740.098	-152.169	0.547	0.051
-739.083	49.689	-0.281	-0.343
-738.069	599.122	0.074	0.238
-737.054	-12.480	-0.290	0.245
-736.039	-190.956	-0.595	-0.008
-735.025	-103.735	0.462	0.139
-734.010	294.826	0.182	-0.432
-732.996	-109.281	-0.158	-0.043
-731.981	-200.000	0.040	0.260
-730.966	-38.894	0.545	0.371
-729.952	-83.512	0.338	0.139
-728.937	-193.652	-0.312	-0.003
-727.923	43.563	0.080	-0.094
-726.908	58.123	-0.139	-0.177
-725.894	-100.351	-0.496	-0.158
-724.879	800.000	-0.045	-0.256
-723.864	162.564	-0.285	0.519
-722.850	135.472	-0.229	0.386
-721.835	-118.533	-0.666	0.151
-720.821	19.938	0.110	0.115
-719.806	-106.741	0.436	-0.124
-718.791	65.876	-0.188	0.247
-717.777	114.934	-0.315	0.498
-716.762	213.882	-0.209	0.428
-715.748	132.479	0.280	0.468
-714.733	4.306	0.205	0.194
-713.718	-93.192	-0.459	0.164
-712.704	-200.000	-0.026	0.232
-711.689	-83.433	-0.186	-0.077
-710.675	62.587	0.123	-0.160
-709.660	540.404	-0.086	-0.267
-708.645	64.740	-0.147	0.192
-707.631	146.234	-0.177	0.308
-706.616	-12.318	0.068	-0.058
-705.602	-200.000	-0.023	-0.590
-704.587	160.455	-0.185	-0.335
-703.572	-116.681	0.254	0.060
-702.558	36.195	-0.199	0.227
-701.543	-94.804	0.476	0.166
-700.529	-200.000	0.079	0.783
-699.514	50.204	0.336	0.411
-698.499	-200.000	0.074	0.540
-697.485	-76.833	-0.366	0.165
-696.470	-21.380	-0.138	0.108
-695.456	-97.766	0.467	0.155
-694.441	-31.137	0.485	-0.353
-693.426	-104.757	0.304	0.090
-692.412	-200.000	-0.017	-0.378
-691.397	-124.307	-0.073	-0.015
-690.383	-169.664	-0.231	0.011
-689.368	260.366	-0.170	0.381
-688.354	-109.884	-0.453	0.122
-687.339	-110.531	0.170	0.045
-686.324	164.295	-0.189	-0.345
-685.310	413.785	-0.039	-0.108
-684.295	-5.659	-0.158	-0.140
-683.281	154.944	-0.040	0.071
-682.266	-11.580	-0.244	0.207
-681.251	-91.055	0.438	-0.162
-680.237	-58.080	-0.291	0.164
-679.222	-20.051	-0.450	-0.358
-678.208	113.091	-0.081	-0.127
-677.193	121.996	-0.079	0.128
-676.178	-54.649	-0.370	0.215
-675.164	-74.281	0.314	0.146
-674.149	-20.865	-0.224	-0.177
-673.135	-29.268	-0.070	-0.052
-672.120	-31.309	-0.154	-0.112
-671.105	-133.300	-0.147	-0.024
-670.091	-29.694	-0.317	0.234
-669.076	-7.374	-0.328	0.286
-668.062	702.753	-0.073	0.250
-667.047	-101.294	-0.243	-0.076
-666.032	85.771	0.039	0.055
-665.018	-170.924	-0.274	0.012
-664.003	-84.007	-0.161	0.066
-662.989	701.473	-0.133	0.456
-661.974	54.567	-0.301	-0.375
-660.959	-66.352	-0.600	-0.307
-659.945	14.303	-0.198	-0.199
-658.930	800.000	-0.036	-0.173
-657.916	723.415	-0.132	-0.455
-656.901	28.540	-0.104	-0.113
-655.886	-200.000	0.035	-0.314
-654.872	-63.309	-0.428	0.227
-653.857	-200.000	-0.011	0.087
-652.843	800.000	0.097	0.393
-651.828	-94.530	-0.178	-0.062
-650.814	128.737	-0.213	0.352
-649.799	-99.493	-0.071	0.023
-648.784	800.000	0.058	-0.299
-647.770	47.575	0.405	0.488
-646.755	52.682	-0.132	-0.163
-645.741	-65.018	0.147	0.076
-644.726	-65.800	0.044	0.023
-643.711	103.617	-0.145	-0.221
-642.697	413.062	-0.102	-0.280
-641.682	622.660	0.064	-0.210
-640.668	-132.770	0.406	-0.066
-639.653	254.335	-0.306	0.677
-638.638	182.690	0.050	0.096
-637.624	800.000	0.110	-0.484
-636.609	-39.542	-0.476	-0.321
-635.595	748.738	-0.079	-0.278
-634.580	-200.000	-0.029	-0.355
-633.565	-200.000	0.001	-0.127
-632.551	800.000	0.027	0.118
-631.536	-200.000	0.025	-0.524
-630.522	561.412	-0.240	-0.751
-629.507	800.000	0.141	0.576
-628.492	-85.567	0.359	0.143
-627.478	800.000	0.120	-0.459
-626.463	371.305	-0.102	-0.267
-625.449	48.841	-0.227	-0.275
-624.434	-70.459	-0.472	-0.230
-623.419	54.970	-0.142	-0.177
-622.405	800.000	-0.043	-0.202
-621.390	800.000	-0.070	-0.348
-620.376	324.218	-0.077	0.190
-619.361	662.176	0.080	0.267
-618.346	69.008	0.208	0.276
-617.332	0.626	0.215	-0.198
-616.317	-200.000	-0.024	0.211
-615.303	-113.448	-0.224	-0.056
-614.288	291.788	-0.139	-0.329
-613.273	-81.726	0.396	0.166
-612.259	48.735	-0.094	-0.114
-611.244	2.167	-0.138	0.128
-610.230	-96.021	0.483	-0.165
-609.215	58.181	0.275	0.348
-608.201	-1.715	0.248	0.225
-607.186	-200.000	0.007	0.086
-606.171	51.304	0.148	-0.181
-605.157	81.245	0.180	-0.252
-604.142	286.355	-0.098	0.228
-603.128	-89.424	-0.344	0.130
-602.113	635.252	-0.091	0.299
-601.098	-179.707	-0.190	0.005
-600.084	-84.768	0.101	0.041
-599.069	-115.249	0.108	0.026
-598.055	-147.002	-0.279	0.030
-597.040	-200.000	-0.061	0.443
-596.025	-81.580	-0.233	0.098
-595.011	800.000	0.070	-0.350
-593.996	-56.446	-0.637	-0.363
-592.982	30.283	-0.263	-0.290
-591.967	-151.281	0.205	0.019
-590.952	-98.897	-0.492	0.160
-589.938	-85.384	0.303	-0.121
-588.923	30.247	0.187	0.205
-587.909	-108.681	-0.372	0.102
-586.894	45.242	0.055	0.065
-585.879	22.878	0.397	0.419
-584.865	52.353	0.135	-0.166
-583.850	330.100	-0.109	-0.271
-582.836	72.769	0.257	-0.345
-581.821	-17.225	-0.205	-0.166
-580.806	252.110	-0.039	-0.086
-579.792	-97.036	0.892	-0.299
-578.777	-23.902	-0.582	-0.448
-577.763	-101.138	-0.201	-0.063
-576.748	180.810	-0.083	-0.158
-575.733	-138.416	-0.158	-0.022
-574.719	-200.000	-0.012	-0.067
-573.704	-10.215	0.250	0.213
-572.690	-39.846	0.117	0.078
-571.675	-19.044	-0.464	0.371
-570.661	-62.456	-0.034	0.018
-569.646	-94.401	-0.093	-0.033
-568.631	-41.129	-0.255	-0.169
-567.617	-128.688	-0.173	0.031
-566.602	-105.373	-0.521	-0.151
-565.588	105.687	-0.132	-0.202
-564.573	137.401	0.161	0.271
-563.558	79.029	0.516	0.712
-562.544	28.024	-0.222	0.241
-561.529	95.193	0.080	0.117
-560.515	-72.235	-0.149	0.071
-559.500	70.690	0.246	0.328
-558.485	26.127	0.140	0.151
-557.471	-44.429	0.227	-0.146
-556.456	194.022	-0.208	-0.406
-555.442	104.538	-0.092	0.140
-554.427	-76.598	0.230	0.103
-553.412	-154.702	0.289	0.024
-552.398	-112.661	-0.019	0.005
-551.383	-60.525	0.452	-0.246
-550.369	4.508	-0.242	-0.228
-549.354	615.709	0.007	0.024
-548.339	693.139	0.131	0.443
-547.325	-69.499	-0.288	0.141
-546.310	163.515	-0.140	0.253
-545.296	-200.000	0.023	-0.151
-544.281	-185.887	-0.445	0.008
-543.266	-83.475	0.338	-0.138
-542.252	-55.605	0.167	0.096
-541.237	-29.989	-0.596	-0.435
-540.223	235.073	0.203	-0.432
-539.208	93.523	-0.242	0.352
-538.193	-156.762	0.176	0.014
-537.179	-1.098	-0.180	0.163
-536.164	-127.927	-0.471	-0.086
-535.150	-41.789	-0.158	-0.104
-534.135	140.335	0.185	-0.314
-533.121	-63.273	-0.359	0.189
-532.106	-173.486	-0.447	-0.017
-531.091	709.025	-0.145	-0.496
-530.077	-89.363	-0.333	0.125
-529.062	237.136	0.084	-0.180
-528.048	-64.180	-0.596	0.311
-527.033	-168.421	0.466	0.023
-526.018	645.194	-0.125	0.412
-525.004	-1.643	-0.233	0.211
-523.989	441.151	-0.185	0.523
-522.975	-110.894	0.208	0.055
-521.960	226.457	0.149	0.312
-520.945	5.853	-0.131	-0.124
-519.931	800.000	0.047	0.210
-518.916	112.558	-0.017	0.026
-517.902	183.763	0.194	-0.370
-516.887	67.329	0.199	0.260
-515.872	-124.362	-0.551	-0.109
-514.858	-137.536	-0.451	-0.065
-513.843	-70.327	-0.355	-0.172
-512.829	-77.309	0.209	-0.093
-511.814	-115.018	0.104	-0.025
-510.799	166.547	-0.093	0.170
-509.785	-78.536	0.177	0.077
-508.770	679.811	0.105	-0.354
-507.756	800.000	0.055	0.216
-506.741	-34.394	0.256	0.180
-505.726	-81.078	0.329	-0.139
-504.712	-7.399	-0.150	-0.130
-503.697	-11.963	0.240	0.202
-502.683	-200.000	-0.013	0.547
-501.668	-83.393	0.569	0.233
-500.653	-62.783	0.177	0.094
-499.639	368.702	-0.127	0.331
-498.624	216.896	-0.027	0.055
-497.610	53.344	0.254	-0.312
-496.595	411.470	0.069	-0.190
-495.581	800.000	0.053	-0.236
-494.566	-200.000	0.275	-0.001
-493.551	-93.836	0.114	0.040
-492.537	-84.699	-0.591	0.237
-491.522	189.151	0.170	-0.328
-490.508	-22.259	0.228	-0.177
-489.493	-85.970	-0.231	0.091
-488.478	321.120	-0.040	0.097
-487.464	800.000	0.132	-0.472
-486.449	192.028	0.035	0.068
-485.435	-200.000	-0.010	0.077
-484.420	60.923	-0.161	-0.205
-483.405	-49.886	0.187	0.113
-482.391	-195.430	0.264	-0.002
-481.376	-7.409	-0.169	0.147
-480.362	-81.687	-0.511	0.214
-479.347	-104.152	-0.213	-0.063
-478.332	-58.472	0.296	0.164
-477.318	422.460	0.136	-0.376
-476.303	-25.001	-0.124	0.094
-475.289	342.822	0.107	0.271
-474.274	220.310	0.069	-0.141
-473.259	-96.337	0.378	0.127
-472.245	-155.891	0.163	-0.013
-471.230	-95.429	0.035	-0.012
-470.216	-96.419	0.427	-0.144
-469.201	-87.500	0.242	-0.093
-468.186	-126.784	0.331	0.062
-467.172	-78.860	0.581	-0.252
-466.157	681.365	0.072	0.241
-465.143	-138.061	-0.156	0.022
-464.128	-200.000	0.023	-0.154
-463.113	-141.752	-0.252	0.032
-462.099	325.072	-0.013	0.033
-461.084	79.500	0.354	0.487
-460.070	98.054	-0.169	0.250
-459.055	-108.223	0.282	0.078
-458.040	-27.257	-0.252	-0.188
-457.026	10.147	-0.150	-0.146
-456.011	-36.878	-0.412	-0.282
-454.997	64.186	-0.165	-0.214
-453.982	-23.898	-0.181	-0.138
-452.968	-49.395	0.210	-0.128
-451.953	-159.272	0.406	-0.029
-450.938	-142.531	-0.329	-0.041
-449.924	800.000	0.094	0.359
-448.909	243.898	0.073	0.157
-447.895	-71.800	0.107	0.051
-446.880	-152.733	0.307	-0.028
-445.865	-95.816	0.236	0.080
-444.851	120.856	-0.184	0.293
-443.836	4.376	-0.215	-0.202
-442.822	-79.437	-0.537	-0.231
-441.807	30.633	-0.186	-0.204
-440.792	28.484	0.169	0.183
-439.778	800.000	-0.136	-0.552
-438.763	3.763	-0.333	-0.311
-437.749	-200.000	-0.005	-0.582
-436.734	170.514	0.169	-0.311
-435.719	-174.219	-0.235	0.009
-434.705	-62.826	0.185	-0.098
-433.690	-47.103	0.408	0.254
-432.676	-87.475	0.544	0.210
-431.661	800.000	-0.032	-0.132
-430.646	-71.498	-0.585	-0.279
-429.632	-8.339	-0.246	0.212
-428.617	-48.658	-0.156	0.096
-427.603	800.000	-0.078	-0.389
-426.588	111.866	-0.216	0.334
-425.573	-200.000	-0.030	0.305
-424.559	-200.000	0.001	-0.071
-423.544	4.887	0.219	0.206
-422.530	-39.013	-0.361	0.242
-421.515	63.722	0.185	-0.238
-420.500	-32.905	0.432	-0.306
-419.486	62.365	0.304	0.388
-418.471	-133.202	0.169	0.027
-417.457	-95.368	0.237	-0.081
-416.442	-100.519	0.369	0.116
-415.428	10.920	-0.441	0.431
-414.413	96.404	-0.405	-0.594
-413.398	-150.145	-0.115	0.011
-412.384	71.420	-0.151	-0.201
-411.369	800.000	0.016	0.081
-410.355	-122.618	-0.454	0.093
-409.340	53.341	-0.146	-0.179
-408.325	15.809	0.247	-0.249
-407.311	14.886	-0.172	-0.172
-406.296	-67.595	0.198	-0.099
-405.282	366.456	0.091	-0.235
-404.267	342.705	0.047	0.119
-403.252	-77.850	-0.309	0.136
-402.238	-54.253	0.226	0.131
-401.223	136.438	0.202	-0.338
-400.209	-98.398	-0.367	0.119
-399.194	-107.816	0.274	-0.076
-398.179	-200.000	-0.032	0.535
-397.165	295.289	-0.068	0.160
-396.150	11.326	0.268	-0.263
-395.136	-190.423	-0.325	-0.004
-394.121	74.392	-0.354	0.476
-393.106	-200.000	0.066	-0.611
-392.092	-131.985	0.081	-0.013
-391.077	37.083	-0.148	-0.168
-390.063	317.157	-0.007	-0.017
-389.048	269.079	0.135	-0.304
-388.033	-54.744	0.288	0.165
-387.019	182.517	-0.129	-0.244
-386.004	800.000	-0.152	0.794
-384.990	108.691	0.126	0.193
-383.975	-69.063	0.231	0.113
-382.960	-72.334	-0.039	-0.019
-381.946	147.097	-0.057	0.099
-380.931	226.955	-0.073	-0.153
-379.917	-107.944	-0.273	0.075
-378.902	16.609	0.549	0.554
-377.888	-26.611	0.278	0.208
-376.873	-157.246	0.356	-0.027
-375.858	800.000	0.033	0.161
-374.844	-200.000	-0.041	0.390
-373.829	366.519	0.107	-0.276
-372.815	-200.000	0.120	-0.700
-371.800	456.194	-0.005	0.014
-370.785	174.233	-0.279	0.517
-369.771	13.215	0.294	0.291
-368.756	-135.651	-0.185	-0.028
-367.742	-200.000	0.016	0.382
-366.727	-104.398	0.306	0.090
-365.712	800.000	-0.152	-0.543
-364.698	269.435	0.046	-0.104
-363.683	94.554	-0.229	-0.333
-362.669	48.800	-0.129	0.155
-361.654	360.993	-0.132	-0.339
-360.639	-17.467	0.171	-0.137
-359.625	-41.990	0.422	0.275
-358.610	-107.534	0.112	0.031
-357.596	286.408	-0.187	-0.431
-356.581	-200.000	0.005	-0.087
-355.566	-123.890	-0.510	-0.102
-354.552	-4.061	-0.216	0.191
-353.537	-165.253	-0.105	-0.006
-352.523	800.000	-0.082	-0.341
-351.508	-189.577	-0.646	0.009
-350.493	-200.000	-0.065	-0.422
-349.479	-122.971	-0.190	-0.039
-348.464	-127.315	0.220	-0.041
-347.450	-48.006	0.333	0.205
-346.435	-163.998	0.609	-0.036
-345.420	-200.000	-0.001	-0.091
-344.406	131.805	0.104	0.171
-343.391	64.486	0.118	0.151
-342.377	-200.000	-0.051	-0.306
-341.362	-53.282	-0.332	-0.194
-340.348	-71.389	0.339	-0.161
-339.333	25.551	0.161	-0.171
-338.318	-106.363	0.292	-0.083
-337.304	283.293	-0.141	0.324
-336.289	4.699	-0.545	0.510
-335.275	29.043	-0.178	0.192
-334.260	-200.000	0.050	0.525
-333.245	255.229	0.331	0.726
-332.231	330.318	0.231	0.569
-331.216	-36.743	0.028	0.019
-330.202	800.000	0.046	0.257
-329.187	-125.543	0.459	-0.088
-328.172	800.000	0.175	0.648
-327.158	-69.274	-0.255	-0.124
-326.143	172.538	-0.055	0.102
-325.129	-134.279	0.465	0.072
-324.114	184.882	-0.215	0.408
-323.099	800.000	0.126	0.471
-322.085	-200.000	0.023	-0.157
-321.070	342.012	-0.176	-0.441
-320.056	-33.454	0.164	-0.115
-319.041	-140.833	0.455	-0.059
-318.026	386.162	-0.095	-0.251
-317.012	4.103	0.199	-0.185
-315.997	-200.000	-0.022	0.160
-314.983	-154.723	0.492	-0.041
-313.968	-57.641	0.103	0.058
-312.953	360.390	-0.016	0.041
-311.939	-141.495	-0.351	-0.045
-310.924	467.075	0.192	0.551
-309.910	-134.069	-0.384	0.060
-308.895	91.296	-0.029	0.042
-307.880	-117.267	0.346	-0.080
-306.866	277.819	0.088	-0.201
-305.851	-200.000	-0.280	0.000
-304.837	448.177	0.227	-0.641
-303.822	-200.000	0.007	0.686
-302.807	70.277	-0.232	-0.306
-301.793	-131.481	-0.079	0.013
-300.778	-6.823	0.337	-0.291
-299.764	800.000	0.055	-0.217
-298.749	-88.047	0.312	-0.119
-297.735	-103.889	0.142	-0.042
-296.720	308.601	0.179	-0.428
-295.705	800.000	-0.052	-0.253
-294.691	-50.081	-0.200	0.120
-293.676	113.798	0.159	0.246
-292.662	-126.634	-0.176	0.033
-291.647	-200.000	-0.006	0.115
-290.632	104.432	-0.174	0.261
-289.618	-193.518	0.556	0.006
-288.603	344.610	0.062	-0.156
-287.589	-200.000	-0.038	-0.339
-286.574	-200.000	-0.008	0.409
-285.559	-54.097	0.515	0.297
-284.545	-70.156	0.122	-0.059
-283.530	417.406	-0.176	0.480
-282.516	31.816	-0.241	0.264
-281.501	87.765	-0.099	0.139
-280.486	178.363	-0.310	0.577
-279.472	-78.489	-0.569	0.247
-278.457	500.394	0.125	0.369
-277.443	-115.810	0.321	0.076
-276.428	18.017	0.332	0.336
-275.413	-16.043	-0.241	0.195
-274.399	-47.741	0.409	0.252
-273.384	-130.356	0.304	0.052
-272.370	553.611	0.155	0.476
-271.355	144.877	0.136	-0.231
-270.340	-200.000	-0.008	0.295
-269.326	75.511	0.216	0.290
-268.311	-29.493	-0.269	-0.195
-267.297	-62.277	0.346	-0.183
-266.282	-2.794	-0.060	0.053
-265.267	800.000	-0.036	-0.162
-264.253	-36.583	0.217	0.148
-263.238	530.562	-0.079	-0.238
-262.224	-200.000	0.039	0.425
-261.209	16.039	-0.145	-0.145
-260.195	-200.000	0.016	-0.228
-259.180	-200.000	0.015	0.192
-258.165	-78.913	0.211	-0.091
-257.151	73.365	0.134	0.178
-256.136	102.252	-0.207	-0.307
-255.122	691.712	-0.162	0.543
-254.107	-95.521	0.297	0.101
-253.092	-91.726	0.207	-0.074
-252.078	800.000	-0.018	-0.073
-251.063	209.653	-0.050	-0.099
-250.049	-15.488	0.466	-0.378
-249.034	800.000	0.068	-0.262
-248.019	-200.000	0.006	-0.384
-247.005	-42.807	-0.163	-0.105
-245.990	-96.935	-0.371	-0.123
-244.976	-24.662	0.209	-0.158
-243.961	-62.701	0.252	-0.132
-242.946	-134.813	-0.533	-0.081
-241.932	-174.904	-0.238	0.008
-240.917	-72.793	-0.366	-0.170
-239.903	-116.331	0.254	-0.059
-238.888	16.764	-0.054	0.055
-237.873	-138.160	0.166	0.023
-236.859	131.424	0.186	-0.304
-235.844	800.000	0.104	-0.520
-234.830	-200.000	0.019	0.194
-233.815	-0.064	-0.345	-0.312
-232.800	-39.864	-0.249	0.165
-231.786	-97.440	-0.174	0.057
-230.771	551.051	-0.147	0.451
-229.757	110.253	-0.254	0.388
-228.742	-108.362	-0.425	0.115
-227.727	-112.495	-0.661	-0.166
-226.713	-119.420	-0.392	-0.086
-225.698	-14.560	-0.331	0.270
-224.684	379.184	-0.014	-0.036
-223.669	-28.006	0.158	-0.116
-222.655	-94.623	0.254	-0.087
-221.640	-72.589	0.577	-0.269
-220.625	180.158	-0.114	-0.213
-219.611	7.072	-0.238	0.225
-218.596	-134.690	0.358	-0.055
-217.582	800.000	-0.118	-0.476
-216.567	1.586	0.270	-0.247
-215.552	22.189	0.559	0.579
-214.538	800.000	-0.172	0.633
-213.523	72.438	0.211	0.280
-212.509	306.579	-0.025	0.059
-211.494	-40.855	0.195	-0.128
-210.479	-102.978	0.345	0.103
-209.465	-107.702	-0.344	0.095
-208.450	-10.462	-0.141	0.119
-207.436	-200.000	-0.207	-0.001
-206.421	202.672	0.039	-0.076
-205.406	-62.079	-0.606	-0.320
-204.392	51.027	-0.165	0.199
-203.377	9.063	-0.329	-0.315
-202.363	96.699	-0.157	-0.229
-201.348	-144.113	0.367	0.043
-200.333	-144.687	-0.307	0.035
-199.319	-120.116	-0.273	0.059
-198.304	-16.588	-0.088	-0.071
-197.290	-83.344	-0.305	-0.124
-196.275	-51.069	0.127	-0.075
-195.260	354.202	-0.099	0.250
-194.246	-86.885	0.346	0.133
-193.231	-170.768	0.294	0.013
-192.217	112.659	0.035	-0.054
-191.202	153.262	-0.065	-0.113
-190.187	448.479	-0.180	-0.506
-189.173	-10.703	-0.174	-0.145
-188.158	-190.611	-0.208	-0.003
-187.144	-200.000	0.008	0.079
-186.129	46.156	-0.127	0.149
-185.114	-61.816	0.295	0.156
-184.100	-55.874	-0.244	-0.138
-183.085	363.337	-0.097	0.248
-182.071	800.000	0.016	0.067
-181.056	20.877	-0.292	-0.300
-180.042	800.000	-0.033	0.123
-179.027	46.619	0.257	-0.303
-178.012	-115.803	-0.305	0.072
-176.998	-200.000	0.045	0.593
-175.983	-128.478	-0.068	0.012
-174.969	615.257	0.196	0.627
-173.954	-36.659	-0.159	0.108
-172.939	-73.127	0.105	-0.049
-171.925	-37.973	0.320	0.215
-170.910	612.852	0.032	-0.102
-169.896	221.804	0.149	-0.305
-168.881	-123.271	-0.228	-0.046
-167.866	423.770	-0.069	-0.188
-166.852	332.165	-0.103	-0.253
-165.837	-17.628	0.127	-0.101
-164.823	112.560	0.305	-0.469
-163.808	800.000	-0.053	0.202
-162.793	-66.861	-0.158	0.079
-161.779	-67.508	-0.594	-0.294
-160.764	800.000	-0.048	0.212
-159.750	124.684	0.276	0.441
-158.735	-130.013	0.409	-0.070
-157.720	19.811	0.161	-0.164
-156.706	616.732	-0.051	0.163
-155.691	82.627	-0.341	-0.470
-154.677	-200.000	-0.040	-0.574
-153.662	62.248	0.140	0.178
-152.647	-200.000	0.041	-0.455
-151.633	18.055	0.204	-0.206
-150.618	-21.286	0.120	-0.093
-149.604	-87.340	-0.495	0.189
-148.589	-200.000	-0.025	-0.183
-147.574	-78.875	-0.138	-0.059
-146.560	-200.000	0.015	-0.135
-145.545	-200.000	-0.126	-0.711
-144.531	-10.874	0.199	-0.166
-143.516	365.662	-0.201	0.515
-142.502	133.434	0.262	0.430
-141.487	54.144	-0.041	-0.050
-140.472	525.289	-0.049	0.148
-139.458	-105.503	0.412	0.117
-138.443	-200.000	-0.075	0.564
-137.429	382.720	0.138	0.361
-136.414	-99.541	-0.405	-0.128
-135.399	3.944	-0.215	-0.198
-134.385	-137.768	0.122	-0.017
-133.370	-45.720	-0.216	0.135
-132.356	-107.458	-0.537	0.148
-131.341	-200.000	-0.013	0.164
-130.326	800.000	0.125	-0.524
-129.312	610.616	-0.032	0.101
-128.297	800.000	0.088	0.489
-127.283	800.000	-0.134	0.476
-126.268	-119.990	-0.158	0.034
-125.253	-200.000	0.016	-0.207
-124.239	84.122	-0.370	0.513
-123.224	35.669	0.141	-0.157
-122.210	-62.918	0.325	0.170
-121.195	-123.728	-0.301	-0.060
-120.180	-12.588	0.176	0.145
-119.166	-200.000	-0.012	0.161
-118.151	-16.250	0.229	0.183
-117.137	-72.766	0.461	0.214
-116.122	44.256	-0.208	0.242
-115.107	-115.310	-0.350	-0.083
-114.093	106.854	-0.262	-0.394
-113.078	-200.000	0.002	-0.238
-112.064	-95.819	0.290	0.097
-111.049	254.731	-0.127	0.275
-110.034	-71.266	0.396	-0.187
-109.020	-6.101	-0.068	-0.059
-108.005	-148.342	-0.344	-0.035
-106.991	-120.959	0.456	-0.096
-105.976	-113.900	0.077	-0.019
-104.962	16.459	-0.183	0.183
-103.947	-175.793	0.225	-0.007
-102.932	-159.580	-0.303	0.021
-101.918	-94.830	-0.177	0.060
-100.903	403.715	0.072	-0.193
-99.889	26.976	0.383	0.406
-98.874	-200.000	-0.019	-0.235
-97.859	34.657	-0.369	-0.407
-96.845	800.000	-0.018	-0.075
-95.830	800.000	-0.061	-0.288
-94.816	31.961	-0.072	0.078
-93.801	-63.623	-0.375	0.194
-92.786	-32.152	-0.308	-0.217
-91.772	-200.000	-0.080	1.058
-90.757	-200.000	0.005	0.480
-89.743	-25.481	-0.205	0.152
-88.728	265.535	0.213	0.471
-87.713	240.441	0.111	0.234
-86.699	-20.122	-0.545	0.423
-85.684	46.677	-0.268	-0.314
-84.670	-200.000	-0.032	-0.348
-83.655	-39.615	-0.139	-0.091
-82.640	-46.290	0.111	-0.069
-81.626	-111.326	-0.181	0.046
-80.611	-98.679	-0.111	0.035
-79.597	-87.631	-0.548	-0.208
-78.582	-200.000	-0.016	-0.177
-77.567	32.417	0.320	-0.349
-76.553	-81.964	0.434	0.178
-75.538	800.000	-0.051	0.235
-74.524	-200.000	-0.010	0.096
-73.509	-200.000	-0.017	-0.197
-72.494	-159.481	0.682	-0.047
-71.480	7.810	-0.114	-0.108
-70.465	-178.447	-0.400	-0.012
-69.451	-179.531	-0.313	-0.008
-68.436	-200.000	-0.350	-0.001
-67.422	800.000	-0.064	0.316
-66.407	36.665	0.044	0.049
-65.392	67.110	-0.299	0.385
-64.378	108.554	-0.187	0.283
-63.363	42.638	0.109	0.126
-62.349	-101.381	-0.432	0.132
-61.334	15.382	-1.964	-1.944
-60.319	161.187	0.790	1.397
-59.305	191.813	-3.718	-7.090
-58.290	96.267	3.199	4.623
-57.276	354.092	4.141	10.422
-56.261	-200.000	18.030	273.366
-55.246	420.740	1225.955	3330.336
-54.232	59.992	2827.920	3527.065
-53.217	70.385	2700.711	3524.348
-52.203	46.407	2434.416	2848.815
-51.188	37.405	2095.360	2343.492
-50.173	30.024	1976.184	2125.361
-49.159	28.717	1964.841	2098.072
-48.144	28.262	1960.161	2087.786
-47.130	28.171	1958.447	2084.836
-46.115	28.192	1956.792	2083.229
-45.100	28.237	1954.653	2081.381
-44.086	28.078	1953.920	2078.696
-43.071	27.973	1953.609	2077.088
-42.057	27.989	1951.247	2074.676
-41.042	28.037	1949.748	2073.549
-40.027	28.026	1947.873	2071.342
-39.013	28.054	1946.448	2070.073
-37.998	27.941	1945.690	2067.890
-36.984	27.953	1943.973	2066.123
-35.969	27.991	1942.559	2064.967
-34.954	27.919	1941.690	2063.146
-33.940	27.900	1940.585	2061.679
-32.925	27.935	1939.084	2060.401
-31.911	27.855	1937.802	2058.047
-30.896	27.916	1936.594	2057.372
-29.881	27.944	1934.918	2055.825
-28.867	27.801	1933.914	2053.061
-27.852	27.724	1932.631	2050.748
-26.838	27.743	1930.988	2049.140
-25.823	27.772	1929.833	2048.159
-24.809	27.783	1928.089	2046.353
-23.794	27.783	1927.188	2045.313
-22.779	27.677	1926.373	2043.169
-21.765	27.593	1924.937	2040.624
-20.750	27.803	1922.502	2040.315
-19.736	27.749	1922.144	2039.254
-18.721	27.763	1920.589	2037.679
-17.706	27.747	1919.040	2035.775
-16.692	27.726	1918.238	2034.614
-15.677	27.644	1918.195	2033.568
-14.663	27.681	1916.210	2031.787
-13.648	27.713	1914.217	2029.959
-12.633	27.722	1912.347	2027.990
-11.619	27.798	1910.767	2027.084
-10.604	27.670	1910.405	2025.197
-9.590	27.671	1909.109	2023.745
-8.575	27.817	1908.169	2024.301
-7.560	27.707	1907.198	2021.965
-6.546	27.572	1905.820	2018.921
-5.531	27.714	1904.383	2018.900
-4.517	27.543	1903.614	2016.102
-3.502	27.580	1902.948	2015.727
-2.487	27.737	1901.042	2015.375
-1.473	27.711	1897.869	2011.640
-0.458	27.593	1879.529	1990.821
0.556	24.126	2022.428	2088.863
1.571	23.082	2234.691	2294.225
2.586	24.337	2277.053	2354.094
3.600	24.405	2280.303	2358.078
4.615	24.541	2279.579	2358.854
5.629	24.362	2277.169	2353.698
6.644	24.510	2274.883	2353.015
7.659	24.462	2273.785	2350.963
8.673	24.549	2272.261	2350.258
9.688	24.058	2278.403	2349.805
10.702	21.987	2355.185	2400.282
11.717	19.594	2419.256	2431.461
12.731	9.775	2394.472	2268.098
13.746	1.438	2371.520	2129.024
14.761	0.330	2367.826	2109.869
15.775	0.254	2364.987	2106.017
16.790	0.005	2364.630	2101.954
17.804	0.110	2362.973	2101.695
18.819	0.105	2361.719	2100.255
19.834	0.120	2359.711	2098.428
20.848	0.110	2358.530	2096.999
21.863	-0.013	2356.745	2093.430
22.877	0.004	2355.392	2092.224
23.892	-0.012	2353.419	2089.994
24.907	0.053	2350.727	2088.264
25.921	0.090	2348.299	2086.373
26.936	0.091	2346.952	2084.929
27.950	0.065	2343.326	2081.097
28.965	0.130	2341.739	2080.353
29.980	0.154	2340.061	2078.939
30.994	0.205	2337.856	2077.442
32.009	4.749	2353.106	2154.062
33.023	16.653	2389.335	2354.285
34.038	22.692	2401.175	2450.257
35.053	23.461	2400.965	2460.488
36.067	23.475	2399.507	2458.888
37.082	23.372	2395.896	2453.458
38.096	23.286	2393.224	2449.234
39.111	23.406	2391.672	2449.027
40.126	23.663	2389.987	2450.577
41.140	23.920	2389.497	2453.338
42.155	23.719	2387.087	2447.781
43.169	23.591	2385.275	2443.864
44.184	23.652	2383.437	2442.531
45.199	23.483	2380.989	2437.398
46.213	23.469	2379.555	2435.445
47.228	23.555	2378.767	2435.535
48.242	23.643	2377.018	2434.667
49.257	23.792	2374.012	2433.342
50.271	23.785	2372.677	2431.591
51.286	23.833	2370.700	2429.929
52.301	23.702	2368.800	2425.890
53.315	23.450	2367.087	2420.385
54.330	23.202	2365.403	2414.976
55.344	23.083	2361.439	2409.012
56.359	23.150	2358.090	2406.231
57.374	22.949	2356.131	2401.192
58.388	23.035	2353.792	2399.698
59.403	23.138	2350.623	2397.575
60.417	23.370	2348.757	2398.550
61.432	23.465	2347.444	2398.209
62.447	23.505	2345.870	2396.855
63.461	23.429	2343.443	2393.057
64.476	23.454	2340.798	2390.411
65.490	23.716	2341.775	2394.676
66.505	23.956	2340.815	2396.663
67.520	23.842	2338.921	2392.884
68.534	23.430	2335.282	2383.314
69.549	23.319	2332.551	2378.742
70.563	23.377	2330.179	2376.823
71.578	23.270	2328.877	2373.763
72.593	23.421	2326.957	2373.552
73.607	23.575	2326.890	2375.274
74.622	23.803	2323.764	2374.867
75.636	23.547	2320.698	2368.011
76.651	23.215	2318.536	2361.075
77.666	23.366	2317.199	2361.454
78.680	23.356	2314.416	2358.206
79.695	23.349	2312.396	2355.770
80.709	23.323	2311.337	2354.054
81.724	23.476	2309.302	2353.750
82.739	23.450	2306.826	2350.597
83.753	23.293	2305.265	2346.628
84.768	23.262	2303.231	2343.872
85.782	23.300	2301.284	2342.111
86.797	23.340	2299.496	2340.537
87.812	23.186	2297.683	2336.368
88.826	22.870	2295.458	2329.639
89.841	23.247	2293.669	2332.540
90.855	23.485	2291.770	2333.480
91.870	23.135	2289.889	2326.660
92.884	23.148	2287.063	2323.681
93.899	23.190	2286.357	2323.244
94.914	23.014	2285.808	2320.083
95.928	23.117	2285.947	2321.308
96.943	23.235	2282.637	2319.216
97.957	22.998	2280.308	2313.456
98.972	22.914	2278.422	2310.161
99.987	22.784	2275.399	2305.117
101.001	22.827	2272.334	2302.293
102.016	22.925	2270.856	2301.808
103.030	23.016	2267.980	2299.804
104.045	23.159	2266.482	2299.880
105.060	23.449	2265.640	2302.538
106.074	23.404	2263.941	2299.946
107.089	23.091	2261.158	2292.770
108.103	23.205	2259.999	2292.807
109.118	23.316	2259.740	2293.707
110.133	23.262	2257.745	2290.710
111.147	23.472	2255.345	2290.723
112.162	23.541	2253.935	2289.911
113.176	23.368	2251.286	2284.713
114.191	23.238	2249.313	2280.745
115.206	23.309	2248.020	2280.085
116.220	23.268	2245.838	2277.071
117.235	23.273	2243.904	2274.904
118.249	23.313	2241.862	2273.076
119.264	23.437	2240.337	2272.856
120.279	23.529	2239.224	2272.630
121.293	23.484	2237.206	2269.737
122.308	23.428	2236.065	2267.590
123.322	23.441	2233.782	2265.168
124.337	23.124	2232.066	2259.090
125.352	23.257	2233.392	2261.866
126.366	23.428	2232.819	2263.209
127.381	23.259	2228.095	2255.992
128.395	23.154	2224.697	2250.936
129.410	23.301	2223.320	2251.152
130.424	23.397	2221.490	2250.258
131.439	23.248	2219.708	2246.281
132.454	23.213	2217.758	2243.593
133.468	23.313	2216.794	2243.622
134.483	23.392	2214.587	2242.121
135.497	23.219	2212.642	2237.685
136.512	23.181	2210.275	2234.547
137.527	23.117	2208.880	2232.050
138.541	23.117	2207.026	2229.916
139.556	23.032	2205.991	2227.529
140.570	23.032	2204.161	2225.411
141.585	23.029	2201.865	2222.781
142.600	23.141	2201.525	2223.592
143.614	23.208	2198.872	2221.498
144.629	23.300	2198.240	2221.748
145.643	23.020	2196.235	2215.926
146.658	22.915	2195.050	2213.144
147.673	22.873	2192.216	2209.490
148.687	23.083	2190.637	2210.275
149.702	22.952	2189.306	2207.029
150.716	23.059	2187.372	2206.148
151.731	23.257	2188.343	2209.357
152.746	23.580	2187.067	2211.852
153.760	23.200	2186.240	2205.979
154.775	23.087	2184.824	2202.872
155.789	22.814	2182.449	2196.799
156.804	22.731	2178.312	2191.347
157.819	22.796	2175.384	2188.945
158.833	22.960	2172.848	2188.178
159.848	23.145	2171.621	2188.973
160.862	23.343	2171.478	2191.029
161.877	23.412	2170.720	2190.860
162.892	23.294	2169.594	2187.992
163.906	23.395	2167.518	2186.891
164.921	23.505	2164.457	2184.905
165.935	23.370	2162.710	2181.216
166.950	23.340	2161.090	2178.951
167.964	23.127	2158.671	2173.611
168.979	23.033	2157.505	2171.025
169.994	23.277	2155.463	2171.719
171.008	23.247	2153.613	2169.219
172.023	23.187	2151.949	2166.550
173.037	23.228	2152.297	2167.145
174.052	23.248	2150.079	2164.894
175.067	23.178	2147.373	2161.049
176.081	23.290	2146.400	2161.184
177.096	23.241	2145.876	2159.796
178.110	23.158	2143.116	2155.750
179.125	23.038	2142.386	2153.291
180.140	23.195	2141.254	2153.811
181.154	23.326	2139.832	2153.731
182.169	23.119	2138.554	2149.649
183.183	23.062	2137.131	2147.271
184.198	23.110	2135.444	2145.900
185.213	23.078	2134.123	2143.930
186.227	23.235	2132.429	2143.887
187.242	23.275	2130.453	2142.125
188.256	23.317	2129.019	2140.935
189.271	23.661	2128.714	2144.551
190.286	23.630	2126.814	2142.005
191.300	23.146	2124.083	2133.130
192.315	23.194	2122.239	2131.614
193.329	23.330	2121.956	2132.711
194.344	23.599	2120.116	2133.865
195.359	23.582	2119.154	2132.428
196.373	23.811	2116.887	2132.656
197.388	23.543	2114.215	2126.479
198.402	23.248	2111.228	2119.669
199.417	23.179	2109.299	2116.649
200.432	23.334	2108.126	2117.089
201.446	23.303	2107.583	2115.912
202.461	23.393	2105.675	2114.823
203.475	23.269	2102.882	2110.283
204.490	23.138	2101.286	2106.862
205.504	23.166	2098.589	2104.245
206.519	23.053	2096.696	2100.734
207.534	22.930	2094.532	2096.857
208.548	22.929	2093.787	2095.841
209.563	22.917	2092.760	2094.416
210.577	22.882	2090.341	2091.337
211.592	23.121	2089.920	2093.507
212.607	22.996	2089.778	2091.625
213.621	22.815	2087.911	2087.354
214.636	22.787	2086.189	2085.049
215.650	22.975	2084.737	2085.582
216.665	23.204	2083.257	2086.564
217.680	23.135	2082.011	2084.255
218.694	23.349	2080.370	2084.891
219.709	23.119	2078.582	2080.131
220.723	23.259	2076.706	2079.657
221.738	23.391	2075.308	2079.561
222.753	23.147	2073.579	2074.712
223.767	23.349	2071.577	2074.828
224.782	23.210	2069.036	2070.408
225.796	22.983	2068.517	2066.969
226.811	23.295	2066.726	2068.599
227.826	23.435	2065.687	2068.956
228.840	23.433	2065.381	2068.373
229.855	23.283	2062.906	2063.894
230.869	23.317	2061.693	2062.825
231.884	23.327	2059.850	2060.859
232.899	23.259	2058.117	2058.077
233.913	23.297	2057.351	2057.507
234.928	23.332	2055.613	2055.934
235.942	23.562	2054.361	2057.120
236.957	23.345	2053.196	2053.177
237.972	23.462	2052.074	2053.170
238.986	23.564	2051.488	2053.531
240.001	23.391	2049.845	2049.626
241.015	23.209	2047.274	2044.701
242.030	23.257	2046.291	2044.032
243.045	23.383	2045.388	2044.339
244.059	23.258	2043.857	2041.115
245.074	23.272	2040.951	2038.128
246.088	23.208	2037.703	2033.901
247.103	23.254	2036.192	2032.691
248.117	23.416	2034.656	2032.773
249.132	23.484	2033.737	2032.402
250.147	23.350	2031.686	2028.561
251.161	23.171	2029.821	2024.405
252.176	23.341	2027.735	2024.029
253.190	23.110	2026.318	2019.721
254.205	22.524	2022.706	2009.164
255.220	22.227	2021.243	2004.065
256.234	22.359	2020.357	2004.464
257.249	22.433	2019.809	2004.525
258.263	22.305	2018.013	2001.038
259.278	22.111	2016.449	1997.030
260.293	22.265	2014.489	1996.608
261.307	22.645	2013.663	1999.888
262.322	23.032	2013.064	2003.459
263.336	22.766	2012.062	1999.194
264.351	22.879	2009.443	1997.640
265.366	22.933	2008.299	1996.874
266.380	23.063	2007.351	1997.171
267.395	22.775	2006.013	1992.338
268.409	22.664	2005.396	1990.217
269.424	23.074	2003.922	1993.165
270.439	23.199	2002.581	1993.012
271.453	23.146	2001.151	1990.746
272.468	23.132	1998.738	1987.956
273.482	22.858	1997.544	1983.433
274.497	22.973	1994.757	1981.728
275.512	23.185	1991.697	1980.837
276.526	23.164	1990.988	1979.660
277.541	23.074	1988.998	1976.434
278.555	23.139	1987.182	1975.111
279.570	22.858	1984.858	1969.426
280.585	22.791	1983.094	1966.686
281.599	23.129	1982.455	1969.604
282.614	23.279	1980.731	1969.331
283.628	22.665	1979.010	1960.517
284.643	22.538	1978.466	1958.332
285.657	22.677	1977.223	1958.413
286.672	22.698	1974.666	1955.883
287.687	22.411	1971.915	1949.729
288.701	22.338	1970.830	1947.611
289.716	22.241	1969.367	1944.850
290.730	22.143	1967.771	1941.952
291.745	22.418	1966.045	1943.077
292.760	22.323	1965.451	1941.193
293.774	22.471	1965.991	1943.138
294.789	23.219	1965.981	1951.191
295.803	23.156	1963.785	1948.083
296.818	23.011	1962.965	1945.427
297.833	23.265	1961.154	1946.205
298.847	23.365	1960.189	1946.126
299.862	23.395	1958.511	1944.556
300.876	23.282	1956.691	1941.272
301.891	23.200	1954.700	1938.160
302.906	23.288	1955.040	1939.226
303.920	23.488	1954.356	1940.518
304.935	23.486	1951.730	1937.655
305.949	23.211	1949.425	1932.123
306.964	23.307	1947.946	1931.473
307.979	23.277	1944.987	1927.982
308.993	22.853	1942.369	1920.528
310.008	22.566	1940.487	1915.293
311.022	22.624	1939.145	1914.383
312.037	22.724	1937.652	1913.767
313.052	22.369	1935.667	1907.713
314.066	22.064	1932.630	1901.171
315.081	22.043	1931.268	1899.368
316.095	21.964	1930.207	1897.243
317.110	21.841	1928.117	1893.627
318.125	21.879	1927.110	1892.819
319.139	21.997	1926.705	1893.478
320.154	22.352	1926.073	1896.482
321.168	22.381	1925.050	1895.553
322.183	22.837	1923.782	1899.008
323.197	23.047	1922.704	1899.990
324.212	22.852	1921.413	1896.380
325.227	22.903	1920.562	1895.869
326.241	23.073	1919.617	1896.538
327.256	23.184	1918.417	1896.323
328.270	23.177	1916.285	1893.914
329.285	23.112	1916.144	1892.845
330.300	23.341	1916.444	1895.378
331.314	23.121	1914.400	1890.770
332.329	23.002	1911.226	1886.132
333.343	23.224	1909.909	1886.982
334.358	23.408	1908.415	1887.254
335.373	23.466	1906.170	1885.428
336.387	23.307	1904.467	1881.817
337.402	23.401	1903.289	1881.427
338.416	23.232	1901.956	1878.091
339.431	23.278	1900.825	1877.232
340.446	23.492	1899.484	1877.964
341.460	23.251	1896.679	1872.404
342.475	22.623	1894.358	1863.216
343.489	22.166	1891.360	1855.198
344.504	22.071	1890.183	1852.818
345.519	22.113	1888.635	1851.520
346.533	22.168	1886.338	1849.631
347.548	22.329	1886.347	1851.122
348.562	22.304	1885.062	1849.373
349.577	22.102	1883.507	1845.498
350.592	22.199	1882.788	1845.593
351.606	22.409	1881.997	1846.814
352.621	22.577	1878.764	1845.184
353.635	22.514	1878.684	1844.223
354.650	22.619	1877.460	1843.905
355.665	22.732	1876.001	1843.436
356.679	22.902	1875.681	1844.689
357.694	23.208	1874.874	1846.882
358.708	23.348	1874.888	1848.149
359.723	23.492	1873.951	1848.504
360.738	23.368	1871.665	1844.733
361.752	23.183	1869.690	1840.635
362.767	23.314	1867.498	1839.626
363.781	23.457	1866.096	1839.515
364.796	23.451	1864.897	1838.048
365.810	23.278	1864.036	1835.177
366.825	23.168	1862.675	1832.474
367.840	23.305	1862.443	1833.446
368.854	23.238	1861.164	1831.277
369.869	23.142	1857.782	1826.738
370.883	22.392	1855.578	1816.573
371.898	21.733	1852.895	1806.900
372.913	21.696	1851.829	1805.259
373.927	21.981	1850.709	1806.898
374.942	22.103	1847.717	1805.019
375.956	21.806	1845.541	1799.617
376.971	21.564	1843.957	1795.358
377.986	21.530	1842.254	1793.137
379.000	21.746	1842.292	1795.184
380.015	22.701	1842.043	1804.551
381.029	23.376	1841.260	1810.502
382.044	23.322	1839.970	1808.469
383.059	23.254	1838.940	1806.541
384.073	23.149	1837.030	1803.370
385.088	22.956	1835.635	1799.807
386.102	22.912	1833.912	1797.455
387.117	22.820	1831.504	1793.940
388.132	22.739	1831.598	1792.989
389.146	22.790	1832.842	1794.517
390.161	22.949	1831.844	1794.943
391.175	22.959	1827.606	1790.686
392.190	22.879	1823.811	1785.934
393.205	22.759	1822.784	1783.502
394.219	22.879	1821.866	1783.603
395.234	23.124	1821.042	1785.071
396.248	23.257	1818.781	1783.988
397.263	23.016	1817.610	1780.188
398.278	22.990	1815.084	1777.233
399.292	23.029	1814.184	1776.532
400.307	23.278	1814.074	1778.725
401.321	23.176	1811.671	1775.130
402.336	22.191	1809.066	1762.442
403.350	21.694	1806.694	1754.918
404.365	21.985	1804.908	1755.899
405.380	22.262	1804.213	1757.804
406.394	22.079	1803.931	1755.478
407.409	21.996	1802.211	1752.758
408.423	21.879	1799.368	1748.616
409.438	21.939	1797.036	1746.737
410.453	22.299	1798.855	1751.896
411.467	22.680	1798.681	1755.332
412.482	22.819	1796.951	1754.828
413.496	23.024	1795.771	1755.504
414.511	23.094	1794.820	1755.066
415.526	23.071	1792.428	1752.288
416.540	23.265	1790.526	1752.144
417.555	23.106	1790.433	1750.266
418.569	23.010	1790.185	1748.863
419.584	23.161	1789.640	1749.623
420.599	23.126	1788.924	1748.358
421.613	23.092	1788.810	1747.702
422.628	23.000	1787.960	1745.753
423.642	23.375	1785.379	1746.737
424.657	23.313	1783.383	1743.965
425.672	23.130	1781.401	1740.003
426.686	23.343	1781.066	1741.574
427.701	23.150	1780.311	1738.728
428.715	23.242	1778.490	1737.647
429.730	23.607	1776.229	1738.825
430.745	23.592	1776.048	1738.284
431.759	23.479	1775.306	1736.248
432.774	23.077	1773.591	1730.408
433.788	22.421	1770.622	1720.856
434.803	22.135	1768.969	1716.235
435.818	22.014	1768.938	1714.818
436.832	21.869	1768.453	1712.714
437.847	20.869	1759.264	1693.843
438.861	11.628	1734.978	1580.800
439.876	2.052	1717.241	1471.955
440.890	0.403	1711.946	1451.296
441.905	0.223	1710.925	1448.515
442.920	0.248	1709.804	1447.637
443.934	0.171	1708.151	1445.317
444.949	0.178	1707.210	1444.422
445.963	0.104	1706.302	1442.767
446.978	0.123	1706.342	1442.803
447.993	0.121	1704.248	1440.843
449.007	0.195	1701.276	1438.867
450.022	0.197	1699.786	1437.460
451.036	0.190	1698.467	1436.108
452.051	0.608	1701.921	1442.870
453.066	8.557	1721.358	1536.154
454.080	18.816	1738.792	1651.114
455.095	21.804	1744.045	1684.815
456.109	22.787	1745.801	1695.807
457.124	23.125	1744.224	1697.326
458.139	22.789	1743.464	1693.149
459.153	22.812	1742.445	1692.180
460.168	22.696	1740.670	1689.136
461.182	22.693	1738.650	1686.943
462.197	22.639	1737.029	1684.647
463.212	22.788	1735.294	1684.195
464.226	22.808	1734.704	1683.610
465.241	22.944	1733.025	1683.082
466.255	22.892	1732.334	1681.712
467.270	22.909	1731.208	1680.583
468.285	22.771	1730.261	1678.140
469.299	22.929	1728.532	1677.774
470.314	22.820	1726.668	1674.725
471.328	22.852	1725.441	1673.635
472.343	22.815	1723.588	1671.290
473.358	22.829	1722.568	1670.235
474.372	22.759	1721.572	1668.404
475.387	22.666	1721.227	1666.981
476.401	22.916	1718.920	1666.923
477.416	23.042	1717.560	1666.597
478.430	22.997	1716.158	1664.615
479.445	22.877	1715.078	1662.224
480.460	22.822	1714.200	1660.655
481.474	22.807	1714.004	1660.128
482.489	22.788	1711.583	1657.401
483.503	22.717	1709.620	1654.636
484.518	22.767	1707.639	1652.995
485.533	22.810	1707.092	1652.668
486.547	22.938	1704.452	1651.123
487.562	22.681	1704.691	1648.741
488.576	22.738	1703.539	1647.966
489.591	22.843	1701.518	1646.796
490.606	22.840	1700.235	1645.326
491.620	22.958	1698.251	1644.312
492.635	22.852	1696.361	1641.294
493.649	22.614	1695.140	1637.692
494.664	22.635	1695.374	1637.920
495.679	22.674	1694.522	1637.270
496.693	22.731	1692.671	1635.816
497.708	22.855	1690.484	1634.658
498.722	22.694	1689.955	1632.457
499.737	22.839	1688.447	1632.153
500.752	22.884	1687.116	1631.090
501.766	22.992	1685.614	1630.444
502.781	22.933	1683.791	1627.935
503.795	22.863	1682.627	1625.964
504.810	23.120	1681.073	1626.643
505.825	22.990	1680.892	1625.076
506.839	23.011	1679.634	1623.856
507.854	22.903	1678.155	1621.239
508.868	22.746	1676.048	1617.561
509.883	22.789	1675.515	1617.245
510.898	22.664	1674.050	1614.491
511.912	22.715	1672.452	1613.225
512.927	22.662	1670.977	1611.124
513.941	22.712	1669.016	1609.498
514.956	22.865	1668.098	1609.821
515.971	22.915	1667.555	1609.561
516.985	22.883	1666.469	1608.026
518.000	22.772	1665.256	1605.654
519.014	22.656	1663.592	1602.793
520.029	22.513	1662.165	1599.923
521.043	22.613	1660.504	1599.043
522.058	22.570	1659.655	1597.641
523.073	22.687	1658.557	1597.458
524.087	22.581	1657.312	1595.104
525.102	22.617	1656.666	1594.619
526.116	22.866	1655.310	1595.390
527.131	22.962	1654.170	1594.968
528.146	22.878	1652.899	1592.786
529.160	22.778	1651.859	1590.694
530.175	22.757	1650.656	1589.155
531.189	22.738	1649.964	1588.124
532.204	22.591	1648.901	1585.577
533.219	22.686	1647.347	1584.753
534.233	22.744	1646.442	1584.217
535.248	22.605	1644.794	1581.192
536.262	22.426	1643.552	1578.195
537.277	22.543	1642.582	1578.130
538.292	22.618	1640.739	1576.843
539.306	22.591	1639.350	1575.078
540.321	22.629	1638.012	1573.944
541.335	22.656	1637.095	1573.116
542.350	22.793	1634.548	1571.705
543.365	22.692	1632.888	1569.020
544.379	22.652	1631.980	1567.599
545.394	22.527	1630.400	1564.778
546.408	22.576	1629.634	1564.296
547.423	22.743	1628.944	1564.930
548.438	22.583	1628.342	1562.744
549.452	22.719	1626.605	1562.101
550.467	22.639	1625.758	1560.384
551.481	22.649	1624.042	1558.638
552.496	22.667	1622.875	1557.497
553.511	22.594	1621.931	1555.755
554.525	22.710	1620.535	1555.256
555.540	22.557	1620.021	1553.225
556.554	22.513	1618.681	1551.359
557.569	22.632	1617.482	1551.084
558.583	22.682	1615.982	1549.896
559.598	22.789	1614.688	1549.418
560.613	22.706	1613.662	1547.518
561.627	22.511	1612.298	1544.304
562.642	22.515	1610.224	1542.162
563.656	22.372	1608.989	1539.542
564.671	22.215	1607.892	1536.931
565.686	22.387	1606.206	1536.640
566.700	22.348	1605.275	1535.224
567.715	22.556	1603.658	1535.321
568.729	22.731	1601.984	1535.060
569.744	22.829	1601.798	1535.554
570.759	22.874	1599.684	1533.738
571.773	22.729	1599.111	1531.739
572.788	22.564	1598.139	1529.186
573.802	22.480	1595.917	1526.148
574.817	22.414	1594.110	1523.660
575.832	22.178	1593.562	1520.902
576.846	22.214	1592.790	1520.293
577.861	22.585	1591.219	1521.840
578.875	22.735	1590.184	1521.962
579.890	22.522	1588.779	1518.589
580.905	22.480	1588.343	1517.626
581.919	22.401	1588.598	1517.009
582.934	22.397	1586.867	1515.137
583.948	22.237	1585.239	1512.021
584.963	22.245	1583.482	1510.235
585.978	22.520	1581.958	1510.971
586.992	22.273	1581.245	1507.977
588.007	22.389	1579.912	1507.525
589.021	22.516	1579.560	1508.105
590.036	22.633	1578.057	1507.497
591.051	22.581	1576.893	1505.754
592.065	22.379	1575.100	1502.131
593.080	22.345	1573.284	1499.929
594.094	22.372	1571.558	1498.335
595.109	22.397	1570.733	1497.577
596.123	22.475	1569.706	1497.084
597.138	22.420	1568.298	1495.099
598.153	22.386	1566.311	1492.736
599.167	22.417	1565.313	1491.868
600.182	22.349	1564.675	1490.502
601.196	22.297	1563.364	1488.629
602.211	22.277	1562.422	1487.385
603.226	22.180	1561.073	1485.104
604.240	22.230	1559.383	1483.744
605.255	22.131	1558.983	1482.344
606.269	22.225	1557.942	1481.967
607.284	22.378	1556.918	1482.112
608.299	22.435	1555.650	1481.214
609.313	22.526	1554.224	1480.443
610.328	22.525	1552.485	1478.606
611.342	22.467	1551.587	1477.079
612.357	22.275	1550.562	1474.315
613.372	22.266	1549.383	1472.944
614.386	22.318	1547.539	1471.446
615.401	22.316	1546.878	1470.625
616.415	22.170	1546.807	1469.157
617.430	22.228	1545.260	1468.000
618.445	21.999	1543.300	1464.043
619.459	22.071	1542.990	1464.174
620.474	22.329	1542.027	1465.241
621.488	22.466	1541.629	1465.839
622.503	22.734	1540.515	1466.842
623.518	22.359	1539.318	1462.394
624.532	22.018	1537.525	1457.671
625.547	22.005	1535.831	1455.786
626.561	21.862	1534.404	1453.063
627.576	21.920	1533.475	1452.492
628.591	22.155	1532.591	1453.440
629.605	22.366	1532.193	1454.639
630.620	22.691	1530.701	1455.742
631.634	22.611	1529.954	1454.200
632.649	22.661	1528.997	1453.531
633.663	22.411	1526.907	1449.300
634.678	22.183	1524.963	1445.397
635.693	21.851	1523.168	1440.777
636.707	21.833	1521.782	1439.145
637.722	21.683	1520.681	1436.699
638.736	21.876	1519.945	1437.417
639.751	22.045	1519.189	1437.926
640.766	22.058	1517.979	1436.712
641.780	22.172	1516.214	1435.809
642.795	22.223	1515.422	1435.303
643.809	22.196	1515.607	1435.085
644.824	22.132	1514.297	1433.150
645.839	22.174	1513.371	1432.449
646.853	22.199	1511.977	1431.158
647.868	22.204	1510.272	1429.418
648.882	22.021	1508.896	1426.450
649.897	22.093	1507.838	1425.864
650.912	22.026	1506.685	1424.059
651.926	21.991	1505.263	1422.256
652.941	22.135	1504.415	1422.461
653.955	22.441	1503.284	1423.708
654.970	22.449	1501.305	1421.723
655.985	22.509	1500.058	1420.861
656.999	22.374	1499.291	1418.871
658.014	22.244	1498.085	1416.506
659.028	22.133	1496.599	1414.033
660.043	22.187	1495.258	1413.034
661.058	21.979	1493.989	1409.989
662.072	21.797	1493.213	1407.621
663.087	22.159	1492.125	1409.341
664.101	22.075	1490.910	1407.352
665.116	21.980	1489.861	1405.424
666.131	21.960	1488.886	1404.180
667.145	21.920	1487.660	1402.534
668.160	21.969	1486.250	1401.430
669.174	21.809	1484.232	1398.079
670.189	21.863	1484.078	1398.195
671.204	22.031	1483.761	1399.071
672.218	22.061	1482.092	1397.571
673.233	22.105	1480.833	1396.568
674.247	21.869	1479.115	1392.898
675.262	21.699	1478.246	1390.556
676.276	21.781	1476.783	1389.672
677.291	21.971	1476.924	1391.150
678.306	22.163	1476.191	1391.819
679.320	22.068	1474.099	1388.929
680.335	21.939	1473.255	1386.941
681.349	21.719	1472.920	1384.714
682.364	21.709	1472.054	1383.648
683.379	21.796	1470.495	1382.709
684.393	21.782	1468.940	1380.974
685.408	21.750	1467.130	1378.852
686.422	21.715	1466.750	1378.051
687.437	21.624	1466.033	1376.500
688.452	21.474	1464.787	1373.978
689.466	21.376	1463.488	1371.819
690.481	21.467	1461.688	1370.683
691.495	21.658	1461.906	1372.233
692.510	22.169	1461.350	1375.568
693.525	22.286	1460.483	1375.507
694.539	22.091	1458.675	1372.107
695.554	21.747	1457.139	1367.804
696.568	21.509	1455.218	1363.971
697.583	21.457	1454.325	1362.562
698.598	21.420	1453.830	1361.648
699.612	21.528	1452.224	1360.824
700.627	21.555	1451.332	1360.036
701.641	21.639	1450.537	1359.782
702.656	21.747	1449.317	1359.314
703.671	21.530	1448.643	1356.832
704.685	21.466	1448.619	1356.148
705.700	21.690	1446.809	1356.037
706.714	21.801	1445.182	1355.208
707.729	21.886	1443.323	1353.966
708.744	21.744	1442.392	1351.830
709.758	21.599	1441.861	1350.043
710.773	21.856	1441.359	1351.402
711.787	21.933	1439.856	1350.430
712.802	21.964	1438.170	1348.926
713.816	21.765	1437.417	1346.520
714.831	21.752	1435.608	1344.563
715.846	21.681	1434.193	1342.529
716.860	21.515	1432.859	1339.842
717.875	21.584	1432.382	1339.768
718.889	21.654	1431.650	1339.459
719.904	21.662	1430.202	1338.010
720.919	21.489	1428.813	1335.225
721.933	21.438	1427.968	1333.883
722.948	21.412	1426.912	1332.533
723.962	21.322	1426.105	1330.933
724.977	21.190	1424.770	1328.517
725.992	21.271	1423.658	1327.942
727.006	21.392	1423.088	1328.179
728.021	21.387	1421.002	1326.033
729.035	21.369	1419.816	1324.632
730.050	21.404	1418.746	1323.737
731.065	21.529	1417.894	1323.731
732.079	21.423	1416.741	1321.692
733.094	21.526	1416.002	1321.628
734.108	21.629	1414.510	1320.861
735.123	21.575	1412.941	1318.831
736.138	21.488	1412.624	1317.719
737.152	21.569	1411.012	1316.663
738.167	21.409	1409.348	1313.744
739.181	21.402	1408.340	1312.600
740.196	21.327	1407.950	1311.511
741.211	21.378	1406.992	1310.849
742.225	21.403	1405.996	1309.946
743.240	21.365	1404.820	1308.410
744.254	21.347	1402.462	1305.926
745.269	21.094	1402.241	1303.660
746.284	21.184	1401.968	1303.930
747.298	21.204	1400.914	1302.939
748.313	21.552	1399.924	1304.475
749.327	21.730	1399.768	1305.505
750.342	22.052	1399.771	1307.762
751.356	22.358	1398.192	1308.416
752.371	22.147	1396.052	1304.679
753.386	21.455	1395.040	1298.416
754.400	21.361	1393.137	1295.794
755.415	21.441	1392.320	1295.475
756.429	21.379	1391.120	1293.739
757.444	21.397	1389.941	1292.621
758.459	21.398	1388.652	1291.277
759.473	21.155	1387.764	1288.493
760.488	21.090	1386.436	1286.626
761.502	21.137	1385.520	1285.967
762.517	21.156	1384.916	1285.397
763.532	21.296	1383.019	1284.515
764.546	21.476	1382.493	1285.205
765.561	21.644	1382.281	1286.093
766.575	21.916	1381.954	1287.635
767.590	21.916	1380.843	1286.450
768.605	21.738	1377.997	1282.338
769.619	21.485	1376.610	1279.035
770.634	21.353	1375.849	1277.206
771.648	21.235	1374.284	1274.729
772.663	21.035	1373.957	1272.810
773.678	21.195	1373.139	1273.068
774.692	21.268	1371.993	1272.388
775.707	21.104	1371.725	1270.788
776.721	21.042	1370.849	1269.369
777.736	21.161	1369.143	1268.507
778.751	21.061	1368.119	1266.679
779.765	21.228	1367.091	1266.792
780.780	21.154	1366.539	1265.594
781.794	21.166	1366.073	1265.097
782.809	21.234	1363.953	1263.475
783.824	20.991	1363.525	1261.157
784.838	21.096	1362.749	1261.055
785.853	21.562	1362.547	1264.101
786.867	21.587	1361.800	1263.440
787.882	21.333	1360.382	1260.130
788.897	21.088	1359.406	1257.299
789.911	20.974	1358.079	1255.098
790.926	20.817	1356.537	1252.391
791.940	20.863	1355.386	1251.508
792.955	20.780	1353.998	1249.478
793.969	20.923	1352.211	1248.709
794.984	20.899	1351.504	1247.733
795.999	21.041	1350.462	1247.647
797.013	20.993	1348.878	1245.688
798.028	20.873	1347.755	1243.641
799.042	20.923	1347.422	1243.539
800.057	20.765	1346.609	1241.513
801.072	20.970	1344.329	1240.727
802.086	20.957	1343.218	1239.458
803.101	20.907	1342.514	1238.305
804.115	20.939	1341.850	1237.771
805.130	20.976	1340.656	1236.790
806.145	20.978	1339.154	1235.268
807.159	21.045	1337.637	1234.195
808.174	21.072	1336.774	1233.442
809.188	21.036	1335.652	1232.007
810.203	21.210	1334.522	1232.053
811.218	21.202	1333.919	1231.286
812.232	21.450	1332.802	1231.864
813.247	21.491	1331.555	1230.856
814.261	21.369	1330.467	1228.842
815.276	21.153	1329.384	1226.171
816.291	21.019	1327.753	1223.575
817.305	20.805	1326.985	1221.213
818.320	20.870	1325.176	1219.860
819.334	20.834	1324.315	1218.667
820.349	20.908	1322.498	1217.366
821.364	20.919	1321.349	1216.240
822.378	20.998	1319.797	1215.217
823.393	20.915	1317.925	1212.768
824.407	20.764	1317.636	1211.302
825.422	20.814	1317.148	1211.062
826.437	20.751	1316.586	1209.956
827.451	20.974	1314.209	1209.187
828.466	21.263	1313.677	1210.566
829.480	21.482	1311.968	1210.363
830.495	21.227	1309.629	1206.297
831.509	20.882	1308.926	1203.106
832.524	20.815	1307.648	1201.327
833.539	20.857	1306.773	1200.669
834.553	20.703	1305.336	1198.140
835.568	20.743	1304.390	1197.400
836.582	20.659	1303.924	1196.252
837.597	20.822	1301.739	1195.225
838.612	20.880	1300.784	1194.609
839.626	20.972	1299.944	1194.329
840.641	20.994	1299.616	1194.033
841.655	21.275	1298.484	1194.779
842.670	21.498	1298.253	1195.962
843.685	21.660	1297.585	1196.314
844.699	21.399	1295.900	1192.827
845.714	21.067	1294.235	1188.879
846.728	20.980	1293.241	1187.226
847.743	20.934	1291.636	1185.296
848.758	20.758	1290.651	1183.052
849.772	20.617	1289.398	1180.796
850.787	20.825	1287.230	1180.084
851.801	20.614	1286.477	1177.821
852.816	20.588	1285.095	1176.239
853.831	20.650	1283.652	1175.195
854.845	20.651	1281.849	1173.412
855.860	20.703	1280.084	1172.005
856.874	20.851	1279.310	1172.162
857.889	21.004	1279.131	1172.889
858.904	21.259	1277.695	1173.155
859.918	21.509	1276.673	1173.763
860.933	21.583	1275.870	1173.380
861.947	21.196	1274.561	1169.429
862.962	21.191	1272.519	1167.386
863.977	20.914	1271.397	1164.356
864.991	20.724	1270.945	1162.527
866.006	20.615	1270.713	1161.442
867.020	20.805	1268.250	1160.327
868.035	20.745	1267.332	1158.943
869.049	20.729	1266.564	1157.998
870.064	20.774	1265.646	1157.323
871.079	20.684	1265.242	1156.211
872.093	20.776	1264.841	1156.321
873.108	20.886	1263.101	1155.325
874.122	21.073	1261.618	1155.077
875.137	21.343	1261.576	1156.694
876.152	21.498	1260.909	1156.978
877.166	21.286	1258.751	1153.449
878.181	21.106	1257.575	1151.038
879.195	20.988	1256.783	1149.397
880.210	20.710	1255.848	1146.565
881.225	20.727	1255.190	1145.938
882.239	20.974	1253.433	1145.830
883.254	20.855	1252.610	1144.153
884.268	20.565	1252.737	1142.216
885.283	20.605	1251.348	1141.077
886.298	20.664	1249.310	1139.471
887.312	20.966	1247.669	1139.826
888.327	20.985	1246.461	1138.707
889.341	20.839	1245.636	1136.858
890.356	20.642	1245.320	1135.145
891.371	20.704	1245.386	1135.478
892.385	20.537	1244.893	1133.795
893.400	20.709	1243.700	1133.696
894.414	20.662	1242.838	1132.467
895.429	20.977	1241.452	1133.130
896.444	21.584	1240.263	1135.867
897.458	21.949	1239.117	1137.062
898.473	21.554	1238.396	1133.694
899.487	21.146	1236.766	1129.409
900.502	20.852	1235.302	1126.026
901.517	20.942	1233.310	1124.664
902.531	20.824	1232.779	1123.276
903.546	20.706	1232.563	1122.179
904.560	20.788	1231.521	1121.632
905.575	20.865	1230.634	1121.187
906.589	20.890	1229.875	1120.521
907.604	20.832	1229.374	1119.558
