DTS Sentinel unit serial number:	SN409020Multiplexer serial number:	ORYXHardware model number:	OX4-SRSoftware version number:	ORYX F/W v3.00 Oryx Data Collector v3.7.2.0data status	okinstallation	HaddamTimeLapsedifferential loss correction	single-endedforward channel	channel 3reverse channel	N/Adate	2011/06/22time	07:26:17forward acquisition time	30.00reverse acquisition time	0.00gamma	498.7831k internal	0.1756k external	0.1756temperature offset calibration	1.0074default loss term (dB/km)	0.3790temperature slope calibration	1.3530multiplexer offset coefficient	1.0000multiplexer slope coefficient	1.0000fibre end	0.00T internal ref (°C)	23.31T ext. ref 1 (°C)	20.56T ext. ref 2 (°C)	0.12length (m)	temperature (°C)	Stokes	anti-Stokes-747.200	800.000	0.044	0.247
-746.185	46.908	0.245	0.302
-745.171	-124.679	0.747	-0.152
-744.156	-55.564	-0.181	0.107
-743.142	-100.465	-0.273	0.089
-742.127	-33.772	0.229	0.167
-741.112	-142.682	-0.248	-0.032
-740.098	-22.966	-0.425	0.338
-739.083	251.122	-0.099	-0.225
-738.069	-200.000	0.088	0.579
-737.054	-200.000	0.024	-0.324
-736.039	275.874	-0.094	0.221
-735.025	-75.538	0.289	0.136
-734.010	129.248	0.194	-0.328
-732.996	-200.000	-0.018	-0.194
-731.981	-148.948	-0.638	0.067
-730.966	-93.710	0.679	0.247
-729.952	-62.816	0.325	-0.177
-728.937	-61.681	-0.407	-0.225
-727.923	38.717	0.283	0.334
-726.908	-74.842	-0.299	-0.141
-725.894	-148.587	-0.293	0.031
-724.879	-157.015	0.167	-0.013
-723.864	800.000	0.087	-0.365
-722.850	85.166	0.305	-0.443
-721.835	-76.968	-0.321	-0.148
-720.821	98.750	0.069	0.105
-719.806	106.481	0.258	0.405
-718.791	-24.643	-0.208	0.163
-717.777	2.910	-0.092	-0.088
-716.762	55.722	-0.095	0.122
-715.748	-33.836	-0.222	0.161
-714.733	-170.102	-0.232	-0.011
-713.718	20.741	0.242	0.259
-712.704	-112.447	-0.388	0.102
-711.689	-200.000	-0.039	-0.479
-710.675	-86.876	0.310	0.125
-709.660	-200.000	-0.003	-0.148
-708.645	-152.776	0.234	0.022
-707.631	-32.209	0.251	-0.185
-706.616	417.525	0.073	-0.207
-705.602	-14.867	-0.344	-0.292
-704.587	-54.102	-0.446	-0.268
-703.572	25.797	-0.289	-0.319
-702.558	-67.628	-0.141	0.073
-701.543	-6.713	-0.220	-0.198
-700.529	217.363	0.133	-0.282
-699.514	64.087	-0.288	-0.383
-698.499	800.000	0.131	-0.516
-697.485	-72.937	0.530	-0.256
-696.470	174.947	0.202	-0.388
-695.456	51.310	0.097	0.122
-694.441	6.694	-0.235	0.231
-693.426	-169.960	-0.420	0.020
-692.412	37.272	-0.278	0.326
-691.397	70.466	-0.112	-0.153
-690.383	3.191	-0.308	-0.296
-689.368	-14.825	0.526	-0.446
-688.354	-135.214	-0.631	-0.099
-687.339	-200.000	0.014	0.263
-686.324	-53.548	0.190	0.114
-685.310	-57.686	-0.170	0.098
-684.295	-40.436	-0.313	-0.214
-683.281	-185.505	-0.321	-0.006
-682.266	667.948	0.209	-0.717
-681.251	638.757	0.122	-0.411
-680.237	-166.921	-0.127	0.007
-679.222	96.170	0.041	0.061
-678.208	1.631	-0.072	-0.068
-677.193	304.518	0.031	-0.076
-676.178	-25.604	-0.245	0.191
-675.164	206.128	-0.104	-0.215
-674.149	800.000	-0.023	-0.123
-673.135	162.406	0.067	-0.124
-672.120	-89.870	-0.031	0.012
-671.105	57.083	0.345	-0.444
-670.091	-45.422	0.212	0.139
-669.076	171.504	-0.106	0.202
-668.062	-72.265	0.300	0.146
-667.047	-159.867	0.481	0.034
-666.032	81.147	0.132	-0.188
-665.018	-56.114	0.381	0.224
-664.003	-120.574	-0.352	0.078
-662.989	-8.656	0.289	0.256
-661.974	267.057	0.097	-0.225
-660.959	23.337	0.191	-0.207
-659.945	-132.107	-0.115	0.020
-658.930	721.566	0.060	-0.211
-657.916	-107.982	-0.520	-0.148
-656.901	-150.142	0.450	0.046
-655.886	63.536	-0.265	-0.351
-654.872	191.290	0.114	0.227
-653.857	-150.636	-0.207	0.021
-652.843	-106.043	-0.520	0.153
-651.828	800.000	-0.077	0.348
-650.814	-140.692	-0.199	-0.027
-649.799	185.017	0.354	-0.695
-648.784	-200.000	0.038	0.451
-647.770	-85.251	0.352	0.144
-646.755	-155.951	-0.826	-0.068
-645.741	-188.585	0.093	0.001
-644.726	-200.000	-0.086	0.502
-643.711	-86.868	0.144	-0.058
-642.697	37.916	0.157	-0.185
-641.682	35.448	-0.037	0.043
-640.668	257.198	0.246	0.561
-639.653	-170.523	0.171	0.008
-638.638	3.728	-0.179	-0.173
-637.624	-42.321	0.222	0.149
-636.609	579.951	-0.075	0.244
-635.595	-106.037	-0.303	-0.089
-634.580	-119.411	0.301	-0.068
-633.565	65.105	-0.208	-0.278
-632.551	17.980	-0.429	0.451
-631.536	157.639	-0.083	-0.152
-630.522	800.000	-0.085	-0.364
-629.507	-93.344	0.081	-0.029
-628.492	123.801	0.153	-0.254
-627.478	-68.762	-0.177	-0.090
-626.463	-200.000	0.039	0.402
-625.449	39.230	-0.129	0.153
-624.434	-129.250	0.314	0.057
-623.419	486.299	-0.099	-0.299
-622.405	-10.641	-0.176	-0.153
-621.390	-43.429	0.203	-0.135
-620.376	-153.323	-0.290	-0.026
-619.361	241.077	0.184	-0.406
-618.346	429.685	0.026	-0.074
-617.332	28.128	0.112	0.125
-616.317	32.677	-0.382	-0.436
-615.303	-0.320	-0.114	0.107
-614.288	472.440	-0.132	0.393
-613.273	-68.736	0.236	-0.120
-612.259	-200.000	-0.026	0.567
-611.244	65.137	-0.127	0.169
-610.230	-91.553	-0.299	-0.112
-609.215	-112.336	0.269	-0.070
-608.201	334.238	-0.191	0.488
-607.186	-79.849	0.375	0.165
-606.171	-151.204	0.353	0.034
-605.157	-64.797	-0.180	-0.096
-604.142	-10.452	-0.059	-0.052
-603.128	-91.104	-0.722	-0.271
-602.113	-9.871	0.388	-0.340
-601.098	-66.113	0.233	0.122
-600.084	26.136	-0.286	0.315
-599.069	184.706	0.172	-0.337
-598.055	-58.672	0.103	-0.058
-597.040	-8.210	-0.115	-0.101
-596.025	800.000	-0.061	-0.304
-595.011	33.524	-0.013	0.015
-593.996	-113.057	-0.439	-0.113
-592.982	-136.459	-0.664	0.100
-591.967	554.548	0.186	-0.592
-590.952	202.641	-0.125	-0.255
-589.938	138.818	0.100	-0.174
-588.923	11.154	-0.215	0.216
-587.909	-200.000	-0.047	0.328
-586.894	800.000	0.112	0.438
-585.879	-116.704	-0.032	-0.008
-584.865	-27.380	-0.208	0.159
-583.850	-101.078	-0.261	0.084
-582.836	-174.706	0.121	0.004
-581.821	287.200	0.013	0.030
-580.806	-143.037	0.164	-0.021
-579.792	-42.902	0.307	-0.204
-578.777	-158.433	-0.537	0.040
-577.763	22.441	-0.432	0.465
-576.748	-39.616	0.194	-0.134
-575.733	-109.838	0.309	0.085
-574.719	509.089	-0.071	-0.217
-573.704	14.968	-0.294	-0.303
-572.690	-56.899	0.150	-0.087
-571.675	4.559	-0.118	0.114
-570.661	29.478	-0.044	0.049
-569.646	2.518	-0.292	0.278
-568.631	-42.393	-0.222	-0.149
-567.617	226.352	-0.094	-0.202
-566.602	-200.000	-0.027	0.490
-565.588	-103.271	-0.307	0.095
-564.573	-123.871	-0.176	-0.036
-563.558	207.726	-0.039	0.080
-562.544	678.327	0.119	0.411
-561.529	-30.134	-0.169	-0.126
-560.515	-186.686	-0.372	0.007
-559.500	24.536	-0.315	-0.342
-558.485	-137.700	0.390	-0.057
-557.471	-135.597	-0.258	-0.040
-556.456	-100.241	-0.319	-0.104
-555.442	-157.534	-0.071	-0.006
-554.427	2.801	0.037	-0.035
-553.412	-52.975	-0.483	0.291
-552.398	-200.000	-0.015	-0.130
-551.383	-136.295	0.488	0.074
-550.369	-118.104	-0.391	0.091
-549.354	-48.610	-0.302	0.190
-548.339	-179.952	0.174	-0.005
-547.325	-94.614	-0.457	0.162
-546.310	22.872	0.418	0.450
-545.296	-200.000	0.018	0.582
-544.281	9.732	0.503	-0.501
-543.266	296.652	-0.211	0.512
-542.252	800.000	-0.124	-0.558
-541.237	-25.815	-0.187	-0.144
-540.223	31.913	-0.323	-0.365
-539.208	-67.351	0.170	-0.087
-538.193	-165.796	0.133	0.007
-537.179	-200.000	-0.018	0.158
-536.164	-122.364	-0.221	-0.047
-535.150	-200.000	0.023	-0.330
-534.135	14.860	0.384	0.394
-533.121	-186.200	0.286	-0.005
-532.106	307.117	0.157	-0.386
-531.091	-96.565	-0.521	0.179
-530.077	0.235	-0.260	0.243
-529.062	-111.292	0.383	0.102
-528.048	314.854	0.155	-0.384
-527.033	486.279	0.067	0.200
-526.018	386.884	-0.152	0.415
-525.004	182.402	0.161	0.312
-523.989	800.000	-0.112	0.549
-522.975	-45.599	0.101	-0.065
-521.960	-94.982	-0.236	0.083
-520.945	135.776	0.095	0.163
-519.931	-88.663	0.152	0.059
-518.916	-81.164	-0.269	0.116
-517.902	370.748	0.064	-0.172
-516.887	800.000	0.074	-0.290
-515.872	-42.173	-0.243	0.163
-514.858	-200.000	-0.018	-0.203
-513.843	800.000	0.136	0.571
-512.829	71.252	0.307	0.418
-511.814	73.767	0.325	0.448
-510.799	-60.383	0.302	0.168
-509.785	800.000	-0.020	0.076
-508.770	482.008	-0.067	0.201
-507.756	800.000	-0.027	0.131
-506.741	-17.616	0.542	0.446
-505.726	-200.000	-0.011	-0.424
-504.712	107.398	0.208	-0.325
-503.697	-41.764	0.435	-0.292
-502.683	88.764	0.202	-0.295
-501.668	-83.370	-0.288	0.121
-500.653	534.108	-0.104	0.326
-499.639	-47.953	0.378	0.239
-498.624	75.816	0.116	0.160
-497.610	-50.247	-0.031	-0.019
-496.595	-200.000	0.026	0.287
-495.581	2.167	0.107	0.101
-494.566	38.667	-0.062	0.072
-493.551	100.064	-0.288	-0.438
-492.537	-74.645	0.159	-0.075
-491.522	-141.104	0.107	0.014
-490.508	126.676	0.147	0.244
-489.493	111.511	-0.212	-0.336
-488.478	-121.270	-0.430	0.093
-487.464	800.000	-0.049	-0.244
-486.449	-176.070	0.196	0.007
-485.435	-188.929	-0.414	0.006
-484.420	-200.000	-0.036	-0.265
-483.405	-158.492	0.531	-0.040
-482.391	292.200	-0.043	0.103
-481.376	-124.532	-0.238	0.048
-480.362	-144.408	0.424	-0.051
-479.347	-200.000	0.009	0.168
-478.332	-192.023	-0.313	0.004
-477.318	-65.255	-0.282	0.148
-476.303	-193.012	-0.193	-0.002
-475.289	184.827	0.265	-0.516
-474.274	800.000	-0.088	0.416
-473.259	-88.464	0.381	-0.148
-472.245	58.045	-0.113	-0.145
-471.230	800.000	-0.025	0.126
-470.216	-105.408	-0.184	-0.055
-469.201	71.466	-0.150	0.204
-468.186	164.305	-0.244	-0.452
-467.172	-64.156	-0.269	0.143
-466.157	391.345	0.012	0.033
-465.143	-92.455	-0.439	-0.161
-464.128	-14.217	-0.287	0.242
-463.113	-200.000	0.032	0.351
-462.099	533.276	-0.080	-0.248
-461.084	157.613	0.284	-0.516
-460.070	-117.321	-0.112	-0.026
-459.055	207.166	0.051	-0.104
-458.040	422.874	0.077	0.218
-457.026	-181.484	0.427	0.011
-456.011	145.156	0.059	0.103
-454.997	-148.501	0.092	0.010
-453.982	-141.307	0.166	-0.022
-452.968	800.000	0.089	0.345
-451.953	800.000	0.136	0.553
-450.938	800.000	-0.039	-0.175
-449.924	125.286	-0.119	0.197
-448.909	15.775	-0.092	-0.095
-447.895	-200.000	-0.016	0.392
-446.880	-200.000	0.023	0.364
-445.865	800.000	0.027	0.136
-444.851	-102.688	-0.235	-0.073
-443.836	-165.074	-0.600	0.034
-442.822	127.501	-0.313	-0.521
-441.807	-133.367	-0.443	-0.072
-440.792	121.363	-0.187	-0.306
-439.778	-71.505	0.061	0.030
-438.763	-2.508	-0.156	0.142
-437.749	-124.621	0.345	-0.069
-436.734	800.000	0.110	0.446
-435.719	77.559	-0.251	0.350
-434.705	-200.000	-0.009	-0.108
-433.690	-188.990	-0.219	-0.003
-432.676	49.766	-0.277	-0.342
-431.661	-89.117	0.338	0.130
-430.646	800.000	-0.073	0.311
-429.632	-52.882	-0.276	-0.166
-428.617	57.731	0.218	-0.279
-427.603	-200.000	0.061	-0.519
-426.588	-15.513	0.334	-0.279
-425.573	-128.837	-0.215	-0.039
-424.559	284.700	-0.155	0.366
-423.544	800.000	0.068	0.381
-422.530	172.446	-0.139	0.262
-421.515	-66.380	0.109	0.057
-420.500	152.061	0.161	0.288
-419.486	-55.337	-0.508	0.298
-418.471	422.822	-0.141	0.399
-417.457	-200.000	0.055	0.320
-416.442	281.743	0.046	0.109
-415.428	-86.680	-0.130	-0.052
-414.413	-179.515	-0.299	0.008
-413.398	-112.810	0.465	-0.120
-412.384	-160.058	-0.493	-0.035
-411.369	-162.735	-0.249	-0.016
-410.355	-107.026	0.355	-0.102
-409.340	142.480	0.065	-0.112
-408.325	455.615	0.073	-0.213
-407.311	-43.893	0.167	-0.110
-406.296	36.592	0.210	-0.242
-405.282	-89.894	-0.573	-0.217
-404.267	-84.898	0.072	0.029
-403.252	-36.471	0.123	-0.086
-402.238	30.245	-0.644	0.718
-401.223	-200.000	-0.057	0.357
-400.209	83.301	0.204	0.290
-399.194	-110.954	0.172	-0.046
-398.179	-200.000	0.042	-0.388
-397.165	-158.766	0.484	0.036
-396.150	323.739	-0.172	0.430
-395.136	-99.166	0.253	0.083
-394.121	-154.883	-0.397	0.034
-393.106	-52.667	-0.164	0.099
-392.092	-94.765	-0.246	-0.087
-391.077	772.559	-0.048	-0.170
-390.063	-200.000	0.014	0.260
-389.048	325.430	0.091	-0.227
-388.033	-200.000	-0.020	-0.517
-387.019	-57.959	0.437	-0.248
-386.004	-44.465	0.202	0.131
-384.990	-200.000	-0.022	0.190
-383.975	-17.553	0.156	0.128
-382.960	5.331	-0.277	-0.267
-381.946	-200.000	0.402	-0.002
-380.931	-148.236	-0.303	-0.032
-379.917	200.608	0.147	-0.296
-378.902	-200.000	0.001	-0.125
-377.888	-130.172	-0.360	0.063
-376.873	-78.609	0.571	0.254
-375.858	-126.191	-0.217	0.042
-374.844	-129.220	0.355	-0.064
-373.829	178.269	0.251	0.480
-372.815	-41.319	0.243	-0.163
-371.800	800.000	-0.111	0.567
-370.785	-104.741	-0.294	0.088
-369.771	-155.584	-0.415	-0.034
-368.756	-160.034	-0.421	-0.030
-367.742	-0.460	0.137	0.127
-366.727	680.913	0.082	-0.282
-365.712	-75.850	0.445	0.205
-364.698	-200.000	-0.066	-0.858
-363.683	-130.928	0.653	0.113
-362.669	19.859	-0.141	-0.148
-361.654	92.709	0.163	0.240
-360.639	-25.025	-0.222	0.172
-359.625	-180.522	0.368	0.010
-358.610	-184.307	0.458	-0.010
-357.596	-143.753	-0.595	-0.073
-356.581	-65.584	0.241	-0.126
-355.566	-39.726	0.356	-0.242
-354.552	123.863	0.144	-0.236
-353.537	117.031	0.286	-0.459
-352.523	-200.000	0.008	-0.082
-351.508	-194.244	-0.048	0.000
-350.493	-200.000	0.004	0.223
-349.479	-101.887	0.517	0.162
-348.464	269.509	0.061	0.139
-347.450	79.940	-0.476	0.669
-346.435	-200.000	0.009	0.155
-345.420	101.116	0.056	-0.085
-344.406	502.597	-0.215	-0.651
-343.391	-200.000	0.031	0.213
-342.377	-39.295	0.362	-0.247
-341.362	-127.485	-0.638	0.120
-340.348	159.051	-0.160	-0.291
-339.333	-101.354	0.200	-0.063
-338.318	1.958	-0.234	-0.220
-337.304	-19.614	-0.047	-0.038
-336.289	17.205	-0.277	0.287
-335.275	-177.878	0.129	-0.004
-334.260	279.219	-0.087	-0.203
-333.245	122.667	-0.203	-0.332
-332.231	-61.232	-0.483	0.264
-331.216	-1.442	0.100	0.092
-330.202	4.100	-0.448	-0.427
-329.187	545.433	-0.060	-0.186
-328.172	-12.486	0.277	-0.235
-327.158	-69.825	0.168	0.083
-326.143	-113.952	-0.318	0.080
-325.129	800.000	-0.121	0.579
-324.114	-82.737	-0.384	-0.161
-323.099	155.608	-0.110	0.197
-322.085	-79.700	-0.595	-0.260
-321.070	130.224	-0.101	-0.169
-320.056	-92.590	-0.643	0.234
-319.041	-81.929	0.426	0.181
-318.026	-68.554	0.318	-0.160
-317.012	66.233	0.156	0.206
-315.997	0.381	-0.175	-0.163
-314.983	80.678	-0.107	0.150
-313.968	-173.669	0.110	0.004
-312.953	-200.000	0.054	0.344
-311.939	-33.461	-0.164	-0.118
-310.924	-121.981	-0.332	0.070
-309.910	148.925	0.166	-0.293
-308.895	-200.000	-0.085	-0.490
-307.880	800.000	0.104	-0.475
-306.866	20.995	-0.241	0.255
-305.851	-11.668	-0.246	-0.210
-304.837	-31.397	-0.416	-0.304
-303.822	-58.713	0.388	-0.218
-302.807	658.449	-0.047	0.159
-301.793	-63.423	-0.260	0.139
-300.778	800.000	0.096	-0.459
-299.764	90.561	0.153	-0.223
-298.749	-70.606	0.146	0.071
-297.735	-152.119	0.322	-0.030
-296.720	36.841	0.320	-0.368
-295.705	-109.564	-0.290	-0.079
-294.691	105.952	0.076	-0.117
-293.676	-62.239	0.087	0.047
-292.662	98.966	-0.231	-0.347
-291.647	-200.000	-0.016	0.298
-290.632	494.227	-0.036	0.109
-289.618	-126.901	0.504	-0.096
-288.603	-67.528	-0.390	-0.198
-287.589	-30.952	0.159	-0.117
-286.574	-86.681	0.216	-0.086
-285.559	800.000	-0.090	-0.468
-284.545	56.082	0.147	-0.186
-283.530	681.693	-0.094	-0.320
-282.516	-187.451	-0.039	-0.001
-281.501	-156.330	0.292	-0.023
-280.486	-132.812	-0.104	0.017
-279.472	-200.000	0.002	0.214
-278.457	362.735	-0.023	0.060
-277.443	-113.027	0.341	0.087
-276.428	-90.247	0.261	-0.098
-275.413	800.000	-0.052	0.282
-274.399	-36.173	-0.215	-0.151
-273.384	-185.585	0.354	0.007
-272.370	-200.000	0.060	-0.670
-271.355	13.091	0.117	-0.118
-270.340	-114.005	-0.137	0.034
-269.326	92.512	-0.221	-0.325
-268.311	84.032	0.116	0.165
-267.297	-89.932	-0.145	0.055
-266.282	-125.928	0.340	0.066
-265.267	65.047	-0.164	-0.215
-264.253	-94.002	-0.422	-0.150
-263.238	184.025	0.186	-0.359
-262.224	33.276	0.184	0.207
-261.209	13.898	-0.248	-0.250
-260.195	-127.825	0.500	-0.093
-259.180	-54.135	-0.210	0.124
-258.165	-78.120	-0.203	0.090
-257.151	-157.806	0.304	-0.023
-256.136	-43.074	-0.302	-0.198
-255.122	-71.515	-0.208	0.101
-254.107	163.072	0.237	-0.434
-253.092	647.164	0.080	-0.269
-252.078	62.777	-0.286	-0.372
-251.063	-61.956	0.470	-0.254
-250.049	-45.095	-0.104	-0.067
-249.034	119.139	-0.143	-0.230
-248.019	-133.807	-0.771	-0.123
-247.005	246.090	-0.091	0.199
-245.990	12.364	0.178	0.178
-244.976	301.855	0.180	0.435
-243.961	439.870	0.085	0.242
-242.946	33.222	0.189	0.213
-241.932	153.012	-0.091	-0.162
-240.917	306.144	0.090	0.219
-239.903	-23.268	0.131	0.102
-238.888	25.791	0.049	0.053
-237.873	-125.661	0.459	-0.089
-236.859	-83.285	0.178	0.074
-235.844	-140.070	-0.263	-0.036
-234.830	72.668	0.130	-0.177
-233.815	-147.811	-0.369	0.040
-232.800	-44.015	-0.472	-0.307
-231.786	-69.104	-0.132	0.066
-230.771	50.897	0.087	-0.106
-229.757	-4.474	-0.042	0.038
-228.742	450.812	0.134	0.385
-227.727	1.626	0.245	0.229
-226.713	105.937	0.211	0.325
-225.698	-200.000	0.083	0.544
-224.684	800.000	0.105	0.396
-223.669	66.329	0.055	-0.073
-222.655	7.229	0.293	-0.284
-221.640	-6.358	-0.115	-0.101
-220.625	-72.301	-0.345	-0.165
-219.611	31.663	-0.128	0.143
-218.596	16.152	0.082	-0.084
-217.582	-200.000	-0.006	0.056
-216.567	800.000	0.031	0.125
-215.552	681.489	0.074	0.250
-214.538	287.796	-0.116	-0.273
-213.523	-37.822	0.285	0.196
-212.509	-16.594	0.386	0.316
-211.494	800.000	-0.075	-0.424
-210.479	128.468	0.078	0.129
-209.465	119.582	0.138	0.222
-208.450	487.503	-0.077	0.229
-207.436	800.000	-0.030	0.117
-206.421	-166.634	0.399	0.021
-205.406	87.566	0.182	-0.262
-204.392	-200.000	-0.439	0.001
-203.377	207.683	-0.192	-0.390
-202.363	-186.135	0.750	0.014
-201.348	800.000	-0.047	0.234
-200.333	40.798	0.129	0.151
-199.319	-99.176	0.552	0.180
-198.304	5.012	-0.175	0.166
-197.290	-23.405	-0.286	-0.223
-196.275	200.626	-0.185	0.371
-195.260	-155.019	0.335	-0.028
-194.246	-58.541	0.419	-0.235
-193.231	37.368	0.256	-0.294
-192.217	-200.000	0.046	0.391
-191.202	111.306	-0.063	0.098
-190.187	-162.740	0.209	-0.013
-189.173	800.000	-0.094	0.350
-188.158	162.504	-0.093	-0.169
-187.144	303.877	-0.175	0.423
-186.129	97.824	-0.364	-0.543
-185.114	329.757	-0.140	-0.351
-184.100	800.000	0.108	-0.546
-183.085	643.833	0.060	-0.201
-182.071	31.150	-0.186	0.206
-181.056	-81.010	0.479	0.204
-180.042	-95.353	0.229	-0.079
-179.027	50.264	0.520	0.637
-178.012	-188.957	0.533	0.008
-176.998	775.087	-0.161	-0.572
-175.983	-54.620	-0.438	-0.256
-174.969	-16.006	0.251	-0.207
-173.954	-200.000	0.018	0.431
-172.939	-3.336	-0.234	-0.211
-171.925	-84.953	0.232	-0.094
-170.910	-139.972	-0.276	-0.037
-169.896	-18.828	0.297	-0.239
-168.881	-17.286	-0.294	0.239
-167.866	151.869	0.230	0.406
-166.852	-151.989	0.131	-0.012
-165.837	-131.167	0.744	-0.127
-164.823	86.267	0.182	-0.260
-163.808	43.922	0.290	-0.344
-162.793	-42.629	-0.378	-0.249
-161.779	-184.875	0.610	0.012
-160.764	-49.734	0.190	-0.117
-159.750	-200.000	-0.003	0.034
-158.735	-67.137	0.260	0.132
-157.720	-76.561	0.175	-0.079
-156.706	-128.024	0.361	0.066
-155.691	65.111	0.242	-0.317
-154.677	145.710	0.232	0.403
-153.662	349.429	0.075	-0.192
-152.647	-145.058	-0.189	-0.022
-151.633	-70.771	0.213	0.103
-150.618	-7.734	-0.245	-0.214
-149.604	331.403	-0.046	-0.116
-148.589	-51.621	0.180	0.108
-147.574	800.000	0.109	0.422
-146.560	191.071	-0.011	-0.021
-145.545	83.549	-0.205	-0.289
-144.531	-200.000	0.002	-0.048
-143.516	-54.033	-0.449	0.264
-142.502	342.002	0.106	0.268
-141.487	-131.233	0.482	-0.082
-140.472	102.630	-0.220	0.333
-139.458	-22.792	0.146	-0.114
-138.443	-116.062	-0.338	0.081
-137.429	301.593	-0.054	-0.130
-136.414	800.000	0.061	-0.311
-135.399	85.975	-0.061	-0.087
-134.385	108.638	0.160	0.248
-133.370	-119.513	-0.558	0.124
-132.356	-159.892	-0.346	-0.024
-131.341	-11.873	0.019	-0.016
-130.326	-200.000	0.129	-0.810
-129.312	207.814	0.090	0.183
-128.297	-200.000	-0.003	0.226
-127.283	-9.187	-0.413	0.357
-126.268	-200.000	-0.017	-0.169
-125.253	-110.666	-0.481	0.128
-124.239	-64.569	-0.269	-0.141
-123.224	-200.000	-0.032	-0.228
-122.210	149.065	-0.232	-0.407
-121.195	-88.741	0.263	-0.100
-120.180	-95.496	-0.331	0.114
-119.166	19.049	0.152	0.157
-118.151	-111.186	0.113	-0.030
-117.137	-200.000	-0.020	0.156
-116.122	-160.837	0.514	0.035
-115.107	217.728	0.125	-0.258
-114.093	-128.441	0.357	-0.065
-113.078	-66.867	0.409	-0.208
-112.064	-200.000	-0.025	-0.372
-111.049	110.404	0.152	0.236
-110.034	-200.000	0.039	-0.313
-109.020	-26.273	-0.464	0.351
-108.005	-112.339	0.125	0.032
-106.991	-94.725	0.339	-0.118
-105.976	-95.954	-0.351	0.120
-104.962	-66.984	-0.179	0.091
-103.947	-84.320	-0.195	0.079
-102.932	241.091	-0.203	0.439
-101.918	-108.303	-0.239	-0.066
-100.903	-145.534	0.247	0.028
-99.889	-200.000	0.062	-0.599
-98.874	17.598	0.405	-0.416
-97.859	381.383	0.182	-0.485
-96.845	-154.221	-0.236	0.020
-95.830	-62.663	0.403	0.215
-94.816	-101.877	-0.567	-0.176
-93.801	-200.000	-0.040	-0.307
-92.786	-52.383	0.339	0.202
-91.772	49.628	-0.205	-0.249
-90.757	-65.556	-0.282	0.145
-89.743	48.043	-0.178	-0.215
-88.728	-116.843	0.333	-0.078
-87.713	-28.428	-0.147	-0.109
-86.699	-71.520	0.257	0.123
-85.684	-152.238	0.500	-0.046
-84.670	-81.128	0.292	0.124
-83.655	-17.746	-0.592	0.479
-82.640	-42.642	-0.566	-0.371
-81.626	-200.000	-0.074	-0.575
-80.611	309.975	0.115	0.278
-79.597	-132.650	-0.350	0.057
-78.582	720.549	-0.024	0.083
-77.567	499.396	0.072	-0.214
-76.553	-200.000	0.006	0.104
-75.538	-139.349	0.157	0.022
-74.524	-200.000	0.004	0.048
-73.509	59.361	-0.174	0.221
-72.494	-78.364	-0.507	0.223
-71.480	358.997	-0.009	0.025
-70.465	800.000	-0.119	-0.475
-69.451	176.662	-0.147	0.276
-68.436	-200.000	0.057	0.393
-67.422	-62.528	-0.500	0.267
-66.407	-106.157	0.205	-0.059
-65.392	-129.479	0.559	0.099
-64.378	-108.451	0.088	0.024
-63.363	207.690	0.250	0.505
-62.349	-31.422	0.189	-0.137
-61.334	48.724	-2.332	-2.822
-60.319	155.074	1.036	1.842
-59.305	290.034	-3.314	-7.789
-58.290	59.074	4.159	5.280
-57.276	353.769	3.961	10.186
-56.261	-200.000	22.824	307.891
-55.246	368.366	1282.414	3357.605
-54.232	54.134	2838.120	3522.196
-53.217	52.993	2661.489	3285.307
-52.203	33.496	2394.261	2681.490
-51.188	28.786	2061.848	2251.254
-50.173	25.135	1948.042	2084.325
-49.159	24.156	1935.715	2059.681
-48.144	23.693	1932.242	2050.540
-47.130	23.534	1929.243	2045.425
-46.115	23.514	1927.451	2043.221
-45.100	23.498	1926.630	2042.075
-44.086	23.512	1925.142	2040.581
-43.071	23.533	1924.184	2039.735
-42.057	23.395	1922.840	2036.635
-41.042	23.479	1920.884	2035.441
-40.027	23.460	1919.415	2033.589
-39.013	23.554	1917.604	2032.671
-37.998	23.571	1915.968	2031.059
-36.984	23.475	1915.095	2028.949
-35.969	23.531	1913.362	2027.675
-34.954	23.416	1912.379	2025.230
-33.940	23.503	1911.258	2024.964
-32.925	23.347	1910.384	2022.161
-31.911	23.475	1908.943	2022.030
-30.896	23.513	1907.215	2020.546
-29.881	23.385	1906.183	2017.912
-28.867	23.452	1904.173	2016.470
-27.852	23.328	1903.345	2014.092
-26.838	23.362	1901.717	2012.677
-25.823	23.342	1900.723	2011.321
-24.809	23.322	1900.148	2010.399
-23.794	23.343	1898.162	2008.466
-22.779	23.296	1896.989	2006.608
-21.765	23.311	1894.940	2004.534
-20.750	23.275	1893.694	2002.725
-19.736	23.282	1893.754	2002.783
-18.721	23.195	1892.468	2000.361
-17.706	23.232	1890.311	1998.423
-16.692	23.184	1889.640	1997.086
-15.677	23.189	1888.586	1995.955
-14.663	23.175	1886.627	1993.637
-13.648	23.267	1884.876	1992.758
-12.633	23.215	1883.528	1990.657
-11.619	23.287	1882.841	1990.665
-10.604	23.162	1882.120	1988.419
-9.590	23.149	1881.274	1987.295
-8.575	23.144	1879.877	1985.690
-7.560	23.165	1878.292	1984.164
-6.546	23.209	1877.684	1983.939
-5.531	23.168	1876.127	1981.758
-4.517	23.196	1873.778	1979.515
-3.502	23.223	1873.329	1979.267
-2.487	23.215	1872.318	1978.029
-1.473	23.379	1868.495	1975.748
-0.458	23.482	1852.378	1959.775
0.556	20.650	2000.185	2069.950
1.571	19.727	2206.393	2270.907
2.586	20.481	2246.700	2322.238
3.600	20.521	2249.060	2324.937
4.615	20.527	2248.468	2324.135
5.629	20.488	2247.217	2322.033
6.644	20.499	2244.595	2319.196
7.659	20.625	2242.256	2318.185
8.673	20.647	2239.996	2315.873
9.688	20.308	2249.047	2320.392
10.702	19.257	2329.603	2388.585
11.717	17.529	2393.657	2429.206
12.731	8.487	2370.408	2276.395
13.746	1.146	2351.645	2153.579
14.761	0.352	2348.297	2138.932
15.775	0.162	2346.050	2133.923
16.790	0.107	2344.797	2131.748
17.804	0.224	2343.240	2131.734
18.819	0.114	2342.349	2129.104
19.834	0.097	2340.581	2127.005
20.848	0.010	2340.233	2125.192
21.863	0.115	2337.415	2123.877
22.877	0.108	2334.811	2121.149
23.892	0.095	2332.941	2119.015
24.907	0.125	2330.064	2116.569
25.921	0.062	2329.257	2114.698
26.936	0.080	2326.261	2111.983
27.950	0.068	2324.587	2110.033
28.965	0.075	2322.695	2108.171
29.980	0.245	2320.398	2108.214
30.994	0.078	2318.326	2103.740
32.009	4.168	2332.031	2173.663
33.023	14.918	2363.097	2355.252
34.038	19.809	2372.976	2434.171
35.053	20.253	2371.058	2438.185
36.067	20.488	2369.159	2439.250
37.082	20.403	2366.452	2434.972
38.096	20.403	2364.846	2433.035
39.111	20.639	2362.635	2433.783
40.126	20.868	2361.636	2435.689
41.140	21.102	2359.637	2436.619
42.155	20.706	2357.990	2429.075
43.169	20.582	2355.854	2424.839
44.184	20.808	2352.278	2424.036
45.199	20.758	2350.973	2421.697
46.213	20.629	2349.472	2418.066
47.228	20.536	2348.939	2415.925
48.242	20.456	2346.230	2411.738
49.257	20.599	2345.438	2412.629
50.271	20.658	2341.200	2408.795
51.286	20.521	2339.015	2404.359
52.301	20.527	2338.383	2403.505
53.315	20.532	2337.905	2402.790
54.330	20.998	2338.256	2409.336
55.344	21.262	2336.082	2410.475
56.359	21.369	2332.023	2407.472
57.374	21.319	2330.953	2405.390
58.388	21.478	2328.308	2404.571
59.403	21.528	2324.640	2401.182
60.417	21.572	2322.380	2399.170
61.432	21.661	2321.437	2399.132
62.447	21.839	2320.044	2399.850
63.461	21.816	2317.607	2396.730
64.476	21.879	2315.805	2395.445
65.490	21.786	2316.023	2394.103
66.505	21.800	2314.297	2392.233
67.520	21.396	2311.236	2383.251
68.534	20.677	2307.448	2369.209
69.549	20.733	2303.430	2365.573
70.563	20.833	2302.229	2365.426
71.578	20.816	2300.189	2362.807
72.593	20.891	2298.086	2361.390
73.607	20.857	2298.534	2361.099
74.622	21.029	2295.219	2359.760
75.636	20.763	2291.917	2352.462
76.651	20.837	2289.789	2351.003
77.666	20.974	2288.305	2351.050
78.680	20.943	2286.800	2348.815
79.695	21.035	2285.092	2348.015
80.709	21.165	2284.112	2348.488
81.724	21.221	2282.035	2346.826
82.739	21.050	2279.477	2341.613
83.753	21.027	2277.666	2339.157
84.768	20.984	2275.672	2336.251
85.782	20.921	2273.984	2333.396
86.797	20.945	2271.816	2331.209
87.812	20.917	2269.075	2327.746
88.826	20.789	2267.010	2323.626
89.841	20.878	2265.186	2322.674
90.855	21.193	2263.061	2324.429
91.870	20.853	2262.277	2318.801
92.884	20.817	2259.903	2315.605
93.899	20.952	2258.445	2315.643
94.914	20.674	2259.152	2312.375
95.928	21.142	2259.189	2318.390
96.943	21.269	2256.301	2316.833
97.957	20.827	2253.474	2307.766
98.972	20.722	2250.032	2302.580
99.987	20.709	2247.078	2299.105
101.001	20.600	2246.345	2296.636
102.016	20.752	2243.597	2295.560
103.030	20.832	2240.709	2293.390
104.045	20.864	2238.828	2291.610
105.060	21.026	2236.850	2291.453
106.074	20.831	2236.085	2287.820
107.089	20.750	2232.963	2283.285
108.103	20.881	2233.390	2285.175
109.118	20.958	2231.384	2283.871
110.133	21.129	2230.010	2284.440
111.147	21.403	2227.414	2285.099
112.162	21.383	2226.803	2283.944
113.176	21.121	2223.311	2276.656
114.191	20.882	2222.295	2272.197
115.206	20.969	2220.169	2270.898
116.220	21.035	2217.880	2269.147
117.235	20.835	2215.484	2263.811
118.249	20.710	2213.585	2259.973
119.264	20.850	2213.507	2261.451
120.279	20.928	2211.388	2260.025
121.293	20.832	2209.110	2256.184
122.308	20.728	2207.287	2252.690
123.322	20.749	2205.973	2251.359
124.337	20.661	2205.078	2249.024
125.352	21.318	2205.819	2258.048
126.366	21.508	2204.199	2258.591
127.381	20.755	2198.906	2243.143
128.395	20.484	2196.193	2236.601
129.410	20.679	2194.779	2237.424
130.424	20.823	2193.025	2237.222
131.439	20.525	2191.109	2231.157
132.454	20.471	2189.071	2228.117
133.468	20.656	2187.339	2228.469
134.483	20.652	2185.590	2226.363
135.497	20.631	2184.073	2224.281
136.512	20.716	2181.322	2222.304
137.527	20.790	2179.686	2221.331
138.541	20.792	2179.920	2221.324
139.556	20.733	2178.746	2219.112
140.570	20.651	2177.182	2216.191
141.585	20.779	2175.022	2215.368
142.600	20.836	2173.678	2214.472
143.614	20.756	2171.787	2211.253
144.629	20.737	2170.527	2209.460
145.643	20.690	2168.080	2206.108
146.658	20.543	2166.409	2202.269
147.673	20.723	2165.578	2203.452
148.687	21.014	2164.361	2205.646
149.702	21.133	2163.499	2206.021
150.716	20.942	2162.032	2201.836
151.731	20.961	2162.133	2201.917
152.746	21.012	2160.127	2200.260
153.760	20.894	2158.038	2196.366
154.775	21.220	2159.155	2201.372
155.789	21.121	2156.725	2197.383
156.804	20.702	2151.856	2186.871
157.819	20.648	2149.657	2183.685
158.833	20.852	2147.093	2183.388
159.848	20.986	2145.111	2182.802
160.862	20.888	2144.264	2180.450
161.877	21.072	2142.058	2180.252
162.892	20.987	2141.005	2177.855
163.906	20.891	2140.513	2175.885
164.921	21.111	2138.030	2175.860
165.935	21.019	2136.236	2172.619
166.950	20.907	2134.170	2168.859
167.964	20.902	2131.017	2165.330
168.979	20.733	2129.453	2161.378
169.994	20.899	2129.417	2163.150
171.008	20.947	2127.861	2161.908
172.023	21.053	2125.960	2161.049
173.037	20.978	2125.214	2159.094
174.052	20.793	2123.236	2154.522
175.067	20.809	2120.687	2151.884
176.081	20.959	2119.657	2152.440
177.096	20.838	2117.856	2148.845
178.110	20.675	2115.800	2144.483
179.125	20.779	2115.200	2144.910
180.140	20.933	2114.589	2145.945
181.154	20.771	2112.757	2141.827
182.169	20.675	2110.005	2137.592
183.183	20.375	2109.362	2132.981
184.198	20.970	2110.386	2141.102
185.213	21.342	2108.889	2143.920
186.227	20.980	2106.020	2136.292
187.242	20.890	2104.501	2133.387
188.256	20.887	2102.610	2131.174
189.271	20.983	2101.021	2130.494
190.286	21.014	2099.992	2129.566
191.300	20.891	2096.891	2124.660
192.315	20.738	2095.121	2120.742
193.329	20.960	2092.950	2121.009
194.344	21.059	2093.594	2122.610
195.359	21.041	2092.009	2120.534
196.373	21.015	2088.473	2116.374
197.388	20.962	2086.924	2113.911
198.402	20.960	2084.916	2111.600
199.417	20.787	2081.948	2106.232
200.432	20.783	2080.768	2104.746
201.446	20.882	2080.747	2105.669
202.461	20.795	2079.111	2102.710
203.475	20.793	2077.105	2100.407
204.490	20.950	2075.248	2100.172
205.504	20.813	2072.520	2095.510
206.519	20.755	2070.010	2092.017
207.534	20.604	2068.945	2088.869
208.548	20.763	2067.669	2089.246
209.563	20.940	2067.222	2090.676
210.577	20.696	2065.067	2085.311
211.592	20.657	2064.996	2084.517
212.607	20.947	2066.022	2088.794
213.621	21.370	2065.840	2093.463
214.636	21.218	2062.043	2087.529
215.650	20.574	2059.085	2076.562
216.665	20.748	2056.420	2075.706
217.680	21.046	2054.962	2077.558
218.694	21.152	2053.941	2077.551
219.709	21.166	2053.113	2076.622
220.723	21.244	2052.498	2076.690
221.738	21.091	2049.756	2071.843
222.753	20.842	2048.194	2067.047
223.767	20.848	2045.289	2063.938
224.782	20.778	2043.319	2060.865
225.796	20.911	2042.186	2061.064
226.811	21.003	2041.271	2060.987
227.826	21.044	2039.472	2059.409
228.840	21.027	2038.683	2058.165
229.855	21.037	2037.532	2056.871
230.869	21.177	2037.141	2057.885
231.884	21.162	2034.773	2055.071
232.899	20.809	2032.706	2048.565
233.913	20.807	2031.169	2046.755
234.928	20.809	2030.379	2045.728
235.942	20.995	2028.357	2045.638
236.957	20.891	2026.968	2042.775
237.972	20.896	2024.986	2040.593
238.986	20.928	2024.910	2040.647
240.001	21.075	2022.711	2039.914
241.015	20.795	2021.401	2035.062
242.030	20.790	2021.319	2034.675
243.045	21.110	2021.207	2038.071
244.059	21.193	2018.210	2035.781
245.074	20.900	2014.228	2028.092
246.088	20.797	2012.189	2024.599
247.103	20.754	2010.506	2022.154
248.117	20.961	2009.523	2023.339
249.132	21.082	2008.531	2023.508
250.147	21.001	2006.218	2019.994
251.161	20.850	2004.475	2016.247
252.176	20.927	2003.819	2016.240
253.190	21.146	2001.386	2016.094
254.205	21.178	2000.016	2014.838
255.220	21.192	1998.961	2013.697
256.234	21.258	1998.129	2013.381
257.249	21.015	1996.665	2008.852
258.263	21.033	1995.819	2007.972
259.278	21.176	1993.494	2007.049
260.293	21.009	1992.054	2003.426
261.307	20.889	1989.508	1999.238
262.322	20.752	1987.724	1995.626
263.336	20.730	1986.976	1994.388
264.351	20.949	1984.388	1994.065
265.366	20.888	1984.242	1992.983
266.380	21.030	1983.018	1993.145
267.395	20.966	1981.900	1991.050
268.409	20.899	1979.449	1987.576
269.424	20.995	1979.059	1988.051
270.439	21.042	1977.629	1986.912
271.453	21.058	1976.001	1985.225
272.468	21.287	1975.020	1986.622
273.482	21.227	1973.328	1983.991
274.497	20.979	1970.797	1978.386
275.512	20.930	1968.773	1975.552
276.526	20.931	1966.968	1973.515
277.541	20.876	1964.663	1970.342
278.555	20.858	1963.935	1969.177
279.570	20.827	1960.847	1965.487
280.585	20.662	1959.827	1962.365
281.599	20.764	1957.903	1961.360
282.614	20.859	1957.013	1961.311
283.628	20.817	1955.517	1959.097
284.643	20.687	1954.896	1956.774
285.657	20.931	1953.829	1958.224
286.672	21.028	1951.555	1956.810
287.687	20.757	1949.558	1951.518
288.701	20.678	1948.425	1949.262
289.716	20.694	1947.489	1948.273
290.730	20.731	1944.962	1945.920
291.745	20.734	1943.605	1944.370
292.760	20.871	1943.668	1945.739
293.774	20.905	1943.625	1945.841
294.789	20.851	1941.213	1942.587
295.803	20.784	1938.277	1938.670
296.818	20.778	1938.147	1938.242
297.833	21.011	1936.252	1938.716
298.847	20.847	1934.875	1935.269
299.862	20.886	1934.026	1934.628
300.876	20.955	1932.799	1933.940
301.891	21.369	1932.373	1937.890
302.906	21.540	1931.758	1938.945
303.920	21.274	1929.000	1932.986
304.935	20.863	1925.454	1924.648
305.949	20.636	1923.204	1919.650
306.964	20.728	1922.351	1919.584
307.979	20.938	1921.369	1920.698
308.993	20.914	1919.401	1918.241
310.008	21.036	1918.232	1918.189
311.022	21.136	1917.125	1917.958
312.037	21.057	1915.057	1914.789
313.052	20.899	1913.671	1911.435
314.066	20.883	1912.014	1909.365
315.081	20.872	1911.130	1908.137
316.095	20.840	1909.399	1905.824
317.110	20.996	1907.926	1905.848
318.125	21.062	1907.271	1905.691
319.139	20.997	1906.596	1904.069
320.154	21.056	1904.429	1902.331
321.168	21.183	1902.364	1901.421
322.183	21.208	1900.989	1900.098
323.197	20.951	1900.167	1896.244
324.212	20.720	1898.417	1891.741
325.227	20.793	1896.911	1890.807
326.241	21.062	1894.565	1891.177
327.256	21.127	1893.579	1890.680
328.270	21.052	1893.044	1889.101
329.285	20.875	1892.699	1886.604
330.300	21.110	1892.515	1888.744
331.314	21.572	1891.080	1892.108
332.329	21.287	1888.754	1886.470
333.343	20.936	1886.471	1880.159
334.358	21.094	1884.430	1879.605
335.373	21.157	1883.392	1879.029
336.387	21.011	1881.743	1875.578
337.402	21.124	1879.635	1874.478
338.416	21.112	1877.664	1872.157
339.431	21.119	1876.710	1871.052
340.446	21.311	1874.761	1870.951
341.460	21.353	1873.020	1869.446
342.475	21.133	1872.038	1865.875
343.489	21.184	1870.403	1864.567
344.504	21.215	1869.517	1863.801
345.519	21.158	1867.126	1860.584
346.533	21.066	1865.652	1857.904
347.548	21.031	1864.951	1856.606
348.562	21.159	1864.416	1857.226
349.577	21.148	1863.243	1855.716
350.592	21.017	1861.002	1851.859
351.606	21.025	1859.303	1850.032
352.621	20.992	1857.268	1847.434
353.635	20.715	1857.031	1844.028
354.650	20.661	1855.734	1841.945
355.665	20.850	1853.629	1841.646
356.679	20.835	1852.754	1840.401
357.694	20.696	1851.504	1837.461
358.708	20.874	1850.505	1838.133
359.723	21.185	1850.017	1840.727
360.738	21.539	1849.970	1844.207
361.752	21.360	1847.193	1839.328
362.767	20.570	1843.615	1827.200
363.781	20.376	1841.235	1822.582
364.796	20.608	1841.129	1824.708
365.810	20.773	1841.184	1826.275
366.825	20.805	1838.900	1824.129
367.840	20.783	1837.872	1822.666
368.854	20.572	1837.383	1819.740
369.869	20.525	1835.047	1816.718
370.883	20.801	1833.377	1817.741
371.898	20.811	1831.757	1816.021
372.913	20.850	1832.093	1816.542
373.927	21.209	1830.981	1818.984
374.942	21.160	1829.699	1816.985
375.956	21.003	1828.443	1813.871
376.971	20.821	1825.158	1808.500
377.986	20.586	1823.241	1803.933
379.000	20.936	1822.559	1806.695
380.015	21.198	1822.086	1808.730
381.029	21.410	1819.715	1808.371
382.044	21.262	1818.779	1805.679
383.059	21.357	1816.653	1804.338
384.073	21.225	1815.925	1802.030
385.088	20.834	1814.828	1796.672
386.102	20.839	1811.929	1793.648
387.117	20.511	1810.007	1788.136
388.132	20.678	1810.774	1790.409
389.146	20.875	1811.379	1792.828
390.161	21.393	1810.764	1797.361
391.175	21.387	1806.492	1792.839
392.190	20.817	1801.682	1781.992
393.205	20.543	1799.487	1776.793
394.219	20.538	1798.609	1775.657
395.234	20.829	1797.319	1777.158
396.248	20.963	1795.837	1776.856
397.263	20.672	1794.308	1772.154
398.278	20.517	1792.320	1768.390
399.292	20.766	1790.889	1769.307
400.307	20.905	1790.965	1770.595
401.321	21.033	1789.728	1770.467
402.336	20.875	1787.935	1766.872
403.350	20.797	1787.438	1765.373
404.365	21.253	1786.963	1769.338
405.380	21.583	1785.425	1770.961
406.394	21.694	1784.903	1771.356
407.409	21.647	1782.858	1768.633
408.423	21.459	1780.572	1764.250
409.438	21.121	1778.295	1758.365
410.453	21.198	1776.731	1757.388
411.467	21.179	1776.695	1756.941
412.482	21.073	1776.537	1755.508
413.496	21.197	1774.000	1754.042
414.511	21.019	1772.147	1750.201
415.526	20.934	1769.606	1746.626
416.540	21.070	1768.667	1746.867
417.555	20.998	1768.218	1745.483
418.569	20.916	1766.831	1743.083
419.584	20.984	1766.726	1743.451
420.599	21.163	1767.385	1745.699
421.613	21.066	1766.762	1743.897
422.628	21.118	1765.190	1742.656
423.642	21.462	1763.279	1744.009
424.657	21.255	1761.839	1740.306
425.672	21.101	1759.896	1736.633
426.686	21.040	1758.767	1734.705
427.701	20.971	1757.036	1732.098
428.715	20.910	1755.348	1729.619
429.730	20.927	1753.517	1727.780
430.745	20.708	1752.337	1724.226
431.759	20.643	1751.536	1722.591
432.774	20.471	1750.389	1719.543
433.788	20.355	1748.522	1716.349
434.803	20.279	1747.659	1714.545
435.818	20.225	1746.775	1712.932
436.832	20.168	1746.990	1712.372
437.847	19.025	1738.228	1692.290
438.861	10.214	1715.372	1583.503
439.876	1.671	1700.680	1486.175
440.890	0.293	1697.068	1469.336
441.905	0.263	1694.709	1466.821
442.920	0.158	1694.323	1465.283
443.934	0.269	1691.580	1463.824
444.949	0.212	1691.545	1463.065
445.963	0.059	1691.146	1461.045
446.978	0.130	1690.820	1461.279
447.993	0.151	1688.964	1459.707
449.007	0.162	1687.026	1457.964
450.022	0.196	1684.275	1455.747
451.036	0.220	1682.571	1454.334
452.051	0.757	1686.018	1462.361
453.066	7.848	1703.748	1547.042
454.080	17.127	1718.780	1651.612
455.095	19.314	1721.835	1675.741
456.109	19.632	1721.675	1678.489
457.124	19.784	1719.730	1677.871
458.139	19.668	1718.927	1675.759
459.153	19.642	1718.228	1674.623
460.168	19.629	1717.050	1673.154
461.182	19.632	1715.713	1671.680
462.197	19.765	1713.462	1670.577
463.212	19.787	1712.405	1669.556
464.226	19.915	1711.576	1669.790
465.241	19.807	1709.765	1666.779
466.255	19.815	1708.126	1665.059
467.270	19.775	1706.724	1663.104
468.285	19.845	1705.472	1662.363
469.299	19.893	1704.199	1661.384
470.314	19.827	1702.805	1659.192
471.328	19.674	1702.083	1656.817
472.343	19.671	1701.167	1655.693
473.358	19.820	1699.426	1655.240
474.372	19.764	1698.379	1653.485
475.387	19.922	1696.126	1652.608
476.401	19.792	1694.243	1649.323
477.416	19.661	1693.413	1647.072
478.430	19.633	1693.187	1646.383
479.445	19.698	1691.725	1645.381
480.460	19.820	1690.368	1645.033
481.474	19.798	1689.332	1643.623
482.489	19.880	1687.265	1642.198
483.503	19.669	1685.909	1638.665
484.518	19.623	1685.531	1637.664
485.533	19.730	1683.469	1636.481
486.547	19.540	1681.821	1632.879
487.562	19.438	1680.084	1630.031
488.576	19.513	1679.575	1630.051
489.591	19.501	1678.321	1628.530
490.606	19.595	1677.311	1628.241
491.620	19.680	1675.453	1627.049
492.635	19.637	1672.903	1623.968
493.649	19.426	1672.835	1621.712
494.664	19.697	1672.016	1623.289
495.679	19.834	1670.670	1623.078
496.693	19.924	1668.194	1621.326
497.708	19.723	1667.539	1618.599
498.722	19.480	1666.927	1615.530
499.737	19.598	1665.305	1614.877
500.752	19.676	1663.742	1613.899
501.766	19.722	1662.731	1613.154
502.781	19.653	1661.050	1610.679
503.795	19.669	1660.226	1609.837
504.810	19.750	1658.817	1609.038
505.825	19.772	1658.106	1608.360
506.839	19.727	1656.240	1605.936
507.854	19.636	1654.768	1603.473
508.868	19.639	1652.904	1601.507
509.883	19.549	1652.002	1599.604
510.898	19.547	1650.907	1598.330
511.912	19.469	1649.105	1595.663
512.927	19.431	1647.719	1593.778
513.941	19.449	1646.763	1592.830
514.956	19.538	1645.310	1592.064
515.971	19.605	1643.689	1590.920
516.985	19.539	1642.549	1589.017
518.000	19.487	1641.825	1587.653
519.014	19.205	1641.123	1584.169
520.029	19.339	1638.534	1582.721
521.043	19.275	1638.204	1581.623
522.058	19.416	1637.583	1582.130
523.073	19.421	1636.099	1580.560
524.087	19.296	1634.610	1577.781
525.102	19.355	1634.121	1577.662
526.116	19.479	1632.933	1577.462
527.131	19.786	1630.975	1578.199
528.146	19.484	1630.640	1574.920
529.160	19.539	1628.968	1573.614
530.175	19.534	1627.224	1571.696
531.189	19.378	1626.865	1569.737
532.204	19.402	1625.512	1568.460
533.219	19.400	1625.028	1567.785
534.233	19.653	1624.383	1569.290
535.248	19.547	1622.434	1566.255
536.262	19.251	1621.580	1562.538
537.277	19.315	1619.811	1561.234
538.292	19.555	1617.714	1561.207
539.306	19.531	1615.985	1559.136
540.321	19.489	1614.343	1556.983
541.335	19.264	1613.770	1554.208
542.350	19.295	1612.637	1553.204
543.365	19.329	1610.714	1551.475
544.379	19.302	1609.140	1549.533
545.394	19.308	1608.314	1548.601
546.408	19.457	1607.406	1548.889
547.423	19.572	1607.274	1549.617
548.438	19.756	1605.706	1549.572
549.452	19.622	1603.992	1546.529
550.467	19.416	1603.622	1544.131
551.481	19.480	1602.275	1543.230
552.496	19.395	1600.802	1540.865
553.511	19.273	1599.517	1538.347
554.525	19.184	1598.803	1536.672
555.540	19.395	1597.270	1536.909
556.554	19.440	1596.119	1536.018
557.569	19.402	1594.500	1533.935
558.583	19.424	1593.557	1533.043
559.598	19.433	1592.137	1531.574
560.613	19.469	1590.820	1530.443
561.627	19.239	1589.797	1527.231
562.642	19.287	1587.677	1525.441
563.656	19.212	1586.751	1523.702
564.671	19.064	1585.269	1520.779
565.686	19.099	1584.494	1520.159
566.700	19.102	1583.414	1518.970
567.715	19.057	1582.159	1517.189
568.729	19.109	1581.079	1516.429
569.744	19.227	1579.366	1515.650
570.759	19.327	1577.798	1514.848
571.773	19.283	1576.276	1512.818
572.788	19.088	1575.485	1510.157
573.802	19.104	1574.602	1509.271
574.817	18.945	1572.457	1505.631
575.832	19.011	1571.558	1505.174
576.846	19.219	1570.060	1505.387
577.861	19.230	1569.528	1504.792
578.875	19.213	1569.183	1504.134
579.890	19.240	1567.659	1502.732
580.905	19.115	1566.921	1500.741
581.919	19.052	1566.324	1499.444
582.934	19.094	1564.781	1498.156
583.948	19.070	1563.220	1496.269
584.963	19.138	1561.711	1495.236
585.978	19.295	1560.804	1495.557
586.992	19.236	1560.496	1494.575
588.007	19.138	1559.529	1492.609
589.021	19.286	1557.492	1491.773
590.036	19.305	1556.277	1490.600
591.051	19.318	1554.908	1489.221
592.065	19.154	1553.138	1485.925
593.080	19.113	1551.380	1483.707
594.094	19.128	1550.562	1482.878
595.109	19.446	1548.917	1483.878
596.123	19.478	1547.771	1482.881
597.138	19.432	1546.393	1480.987
598.153	19.263	1545.348	1478.352
599.167	19.196	1544.125	1476.424
600.182	19.312	1543.418	1476.567
601.196	19.271	1542.440	1475.106
602.211	19.303	1541.095	1473.920
603.226	19.099	1539.422	1470.392
604.240	19.220	1538.626	1470.490
605.255	18.980	1537.302	1466.992
606.269	19.061	1536.521	1466.763
607.284	19.154	1535.257	1466.183
608.299	19.043	1533.724	1463.590
609.313	19.248	1532.266	1463.773
610.328	19.182	1530.900	1461.729
611.342	19.104	1529.866	1459.906
612.357	19.079	1529.433	1459.104
613.372	19.115	1528.022	1457.889
614.386	19.036	1526.906	1455.979
615.401	19.066	1526.083	1455.272
616.415	19.001	1524.852	1453.371
617.430	19.084	1523.343	1452.463
618.445	18.924	1522.929	1450.536
619.459	18.917	1521.893	1449.323
620.474	19.142	1520.493	1449.714
621.488	19.184	1520.265	1449.685
622.503	19.239	1519.196	1448.950
623.518	19.061	1517.161	1445.336
624.532	18.918	1516.009	1442.859
625.547	18.733	1514.738	1439.922
626.561	18.728	1514.123	1439.122
627.576	18.737	1513.018	1437.971
628.591	19.016	1511.343	1438.555
629.605	19.160	1510.321	1438.620
630.620	19.090	1509.180	1436.770
631.634	19.178	1508.282	1436.487
632.649	19.031	1507.453	1434.287
633.663	18.832	1506.142	1431.205
634.678	18.908	1503.861	1429.502
635.693	18.914	1502.715	1428.291
636.707	18.674	1501.534	1424.993
637.722	18.735	1500.629	1424.474
638.736	18.866	1499.408	1424.238
639.751	18.850	1498.638	1423.203
640.766	19.001	1497.361	1423.074
641.780	19.061	1495.495	1421.631
642.795	19.170	1494.858	1421.760
643.809	19.059	1494.536	1420.360
644.824	19.106	1493.919	1419.990
645.839	19.154	1492.599	1418.965
646.853	19.071	1490.842	1416.437
647.868	19.109	1489.303	1415.124
648.882	19.038	1488.815	1413.899
649.897	18.989	1487.752	1412.321
650.912	19.105	1485.843	1411.293
651.926	18.946	1485.174	1409.181
652.941	18.913	1484.450	1408.055
653.955	18.976	1482.665	1406.705
654.970	19.251	1480.715	1406.951
655.985	19.180	1479.411	1404.955
656.999	19.057	1477.871	1402.320
658.014	19.065	1476.583	1400.998
659.028	18.954	1476.274	1399.630
660.043	18.976	1475.061	1398.492
661.058	19.005	1474.038	1397.584
662.072	19.130	1472.532	1397.010
663.087	19.103	1471.875	1396.000
664.101	19.150	1471.266	1395.643
665.116	19.019	1469.369	1392.607
666.131	18.984	1468.552	1391.384
667.145	19.003	1467.342	1390.223
668.160	19.027	1466.325	1389.291
669.174	18.870	1464.562	1386.182
670.189	18.876	1463.539	1385.090
671.204	19.125	1462.755	1386.205
672.218	18.915	1462.164	1383.779
673.233	18.951	1461.033	1382.831
674.247	18.870	1459.900	1380.943
675.262	18.824	1458.699	1379.271
676.276	18.879	1457.554	1378.460
677.291	19.125	1456.522	1379.302
678.306	19.082	1455.283	1377.617
679.320	19.085	1454.298	1376.547
680.335	18.996	1453.440	1374.850
681.349	18.896	1452.994	1373.464
682.364	18.942	1451.899	1372.637
683.379	18.740	1450.300	1369.336
684.393	18.845	1449.195	1368.976
685.408	18.841	1447.560	1367.235
686.422	18.878	1446.842	1366.688
687.437	18.823	1446.591	1365.845
688.452	18.813	1445.982	1365.029
689.466	18.651	1443.958	1361.664
690.481	18.704	1442.232	1360.295
691.495	18.820	1441.905	1360.749
692.510	18.892	1441.077	1360.378
693.525	19.209	1438.948	1360.722
694.539	18.910	1438.064	1357.344
695.554	18.712	1437.419	1355.003
696.568	18.699	1436.205	1353.594
697.583	18.711	1435.691	1353.044
698.598	18.747	1434.930	1352.448
699.612	18.798	1433.143	1351.007
700.627	18.885	1432.097	1350.545
701.641	18.858	1430.980	1349.118
702.656	18.989	1429.376	1348.475
703.671	18.895	1429.253	1347.461
704.685	18.874	1428.863	1346.763
705.700	18.902	1427.420	1345.466
706.714	18.894	1425.863	1343.770
707.729	19.033	1424.307	1343.234
708.744	19.012	1423.163	1341.830
709.758	18.907	1422.583	1340.301
710.773	19.039	1421.281	1339.945
711.787	18.925	1419.692	1337.401
712.802	18.941	1418.845	1336.562
713.816	18.905	1417.770	1335.108
714.831	18.911	1416.700	1333.989
715.846	19.026	1415.347	1333.455
716.860	18.935	1414.400	1331.689
717.875	18.895	1413.484	1330.361
718.889	18.956	1412.450	1329.701
719.904	18.921	1411.693	1328.557
720.919	19.100	1410.522	1328.683
721.933	18.891	1409.893	1326.312
722.948	18.850	1408.594	1324.614
723.962	18.764	1407.207	1322.487
724.977	18.878	1405.894	1321.972
725.992	18.901	1405.088	1321.237
727.006	18.845	1403.772	1319.408
728.021	18.912	1402.179	1318.272
729.035	18.897	1401.200	1317.077
730.050	18.883	1400.504	1316.154
731.065	18.848	1399.535	1314.823
732.079	18.839	1398.467	1313.592
733.094	18.796	1397.636	1312.322
734.108	18.994	1395.659	1311.828
735.123	18.925	1393.947	1309.534
736.138	18.868	1393.227	1308.262
737.152	18.892	1392.219	1307.347
738.167	18.877	1390.916	1305.845
739.181	18.910	1390.533	1305.582
740.196	18.868	1389.748	1304.371
741.211	18.696	1389.281	1302.464
742.225	18.851	1387.904	1302.199
743.240	18.728	1386.476	1299.765
744.254	18.925	1384.445	1299.202
745.269	18.839	1383.707	1297.706
746.284	18.628	1383.541	1295.790
747.298	18.773	1382.362	1295.633
748.313	18.771	1381.061	1294.238
749.327	18.731	1380.846	1293.580
750.342	18.852	1380.016	1293.568
751.356	18.993	1379.222	1293.731
752.371	19.002	1377.977	1292.474
753.386	18.768	1376.641	1289.302
754.400	18.798	1375.510	1288.315
755.415	18.897	1374.158	1287.642
756.429	18.766	1372.965	1285.384
757.444	18.844	1371.648	1284.585
758.459	18.995	1371.197	1285.138
759.473	18.910	1370.003	1283.234
760.488	19.031	1368.393	1282.474
761.502	18.939	1367.922	1281.190
762.517	19.041	1366.468	1280.441
763.532	19.021	1364.994	1278.753
764.546	19.060	1363.550	1277.537
765.561	19.034	1363.684	1277.321
766.575	18.967	1362.867	1275.902
767.590	19.007	1361.575	1274.835
768.605	18.950	1360.176	1272.948
769.619	18.737	1359.079	1270.190
770.634	18.812	1358.447	1270.001
771.648	18.886	1357.468	1269.481
772.663	18.935	1355.976	1268.304
773.678	18.899	1355.359	1267.304
774.692	18.745	1354.560	1265.268
775.707	18.780	1354.836	1265.629
776.721	18.770	1353.493	1264.147
777.736	18.860	1352.245	1263.497
778.751	18.866	1351.455	1262.656
779.765	18.842	1349.967	1260.938
780.780	18.881	1349.987	1261.093
781.794	18.719	1348.813	1258.651
782.809	18.706	1346.964	1256.676
783.824	18.702	1345.848	1255.455
784.838	18.793	1344.486	1254.704
785.853	18.729	1344.037	1253.669
786.867	18.684	1342.910	1252.136
787.882	18.538	1342.780	1250.795
788.897	18.546	1342.150	1250.115
789.911	18.672	1340.425	1249.277
790.926	18.800	1339.289	1249.008
791.940	18.787	1337.813	1247.384
792.955	18.564	1337.028	1244.882
793.969	18.637	1336.150	1244.441
794.984	18.741	1334.692	1243.692
795.999	18.747	1333.496	1242.475
797.013	18.778	1331.783	1240.955
798.028	18.792	1330.435	1239.656
799.042	18.833	1330.661	1240.012
800.057	18.743	1329.930	1238.527
801.072	18.918	1327.779	1237.647
802.086	18.889	1326.512	1236.106
803.101	18.687	1325.671	1233.716
804.115	18.867	1324.494	1233.774
805.130	18.959	1323.904	1233.735
806.145	18.789	1322.617	1231.168
807.159	18.805	1321.491	1230.088
808.174	18.916	1320.366	1229.688
809.188	18.922	1319.001	1228.316
810.203	18.933	1317.796	1227.120
811.218	18.808	1316.252	1224.642
812.232	18.892	1314.863	1223.805
813.247	18.964	1314.090	1223.453
814.261	18.753	1313.827	1221.551
815.276	18.812	1312.905	1220.972
816.291	18.884	1311.671	1220.194
817.305	18.824	1310.181	1218.236
818.320	18.905	1308.814	1217.392
819.334	18.860	1307.268	1215.488
820.349	18.892	1305.834	1214.235
821.364	18.700	1304.587	1211.573
822.378	18.808	1303.617	1211.289
823.393	18.786	1301.662	1209.174
824.407	18.674	1301.024	1207.643
825.422	18.734	1300.529	1207.463
826.437	18.654	1299.432	1205.734
827.451	18.678	1297.537	1204.004
828.466	18.691	1296.788	1203.257
829.480	18.873	1295.213	1202.931
830.495	18.586	1294.044	1199.684
831.509	18.610	1293.055	1198.791
832.524	18.749	1291.225	1197.924
833.539	18.720	1290.039	1196.477
834.553	18.703	1289.734	1195.931
835.568	18.817	1288.065	1195.043
836.582	18.817	1287.457	1194.336
837.597	19.021	1285.780	1194.055
838.612	18.965	1284.475	1192.312
839.626	18.781	1283.908	1190.366
840.641	18.803	1283.156	1189.677
841.655	18.896	1282.335	1189.421
842.670	18.837	1281.739	1188.312
843.685	19.045	1280.227	1188.211
844.699	18.912	1278.824	1185.849
845.714	18.895	1277.628	1184.481
846.728	18.735	1277.436	1183.048
847.743	18.884	1275.610	1182.249
848.758	18.897	1273.914	1180.622
849.772	18.769	1272.820	1178.587
850.787	18.789	1271.281	1177.161
851.801	18.725	1270.261	1175.630
852.816	18.788	1268.975	1174.737
853.831	18.788	1268.100	1173.782
854.845	18.784	1265.742	1171.436
855.860	18.607	1264.776	1169.184
856.874	18.657	1263.903	1168.581
857.889	18.841	1262.650	1168.541
858.904	18.888	1260.935	1167.137
859.918	18.970	1259.009	1165.775
860.933	18.715	1259.042	1163.927
861.947	18.785	1258.127	1163.417
862.962	18.673	1256.978	1161.453
863.977	18.705	1255.491	1160.155
864.991	18.732	1255.004	1159.751
866.006	18.703	1254.396	1158.852
867.020	18.703	1252.992	1157.418
868.035	18.796	1251.392	1156.429
869.049	18.691	1250.902	1155.129
870.064	19.035	1249.904	1156.398
871.079	18.938	1249.170	1154.923
872.093	18.890	1248.187	1153.555
873.108	19.068	1247.276	1153.771
874.122	18.966	1245.658	1151.449
875.137	19.107	1245.214	1151.847
876.152	19.150	1244.625	1151.456
877.166	19.113	1243.182	1149.733
878.181	19.014	1242.028	1147.864
879.195	19.069	1241.117	1147.259
880.210	19.013	1240.020	1145.729
881.225	18.895	1238.962	1143.829
882.239	18.933	1238.477	1143.496
883.254	18.866	1237.169	1141.703
884.268	18.962	1236.502	1141.594
885.283	18.900	1235.545	1140.160
886.298	18.866	1233.380	1137.795
887.312	18.941	1232.810	1137.631
888.327	18.918	1231.972	1136.574
889.341	18.862	1230.356	1134.571
890.356	18.923	1229.903	1134.424
891.371	18.815	1230.045	1133.705
892.385	18.976	1228.956	1133.632
893.400	18.758	1228.104	1131.268
894.414	18.818	1227.028	1130.538
895.429	18.833	1225.450	1129.043
896.444	19.038	1224.140	1129.053
897.458	18.926	1223.185	1127.304
898.473	18.956	1222.134	1126.393
899.487	18.884	1221.222	1124.948
900.502	18.945	1220.020	1124.105
901.517	18.919	1218.891	1122.763
902.531	18.950	1218.053	1122.058
903.546	18.832	1217.800	1120.914
904.560	19.059	1216.831	1121.378
905.575	19.137	1215.422	1120.453
906.589	19.188	1214.277	1119.600
907.604	19.120	1213.665	1118.454
