DTS Sentinel unit serial number:	SN409020Multiplexer serial number:	ORYXHardware model number:	OX4-SRSoftware version number:	ORYX F/W v3.00 Oryx Data Collector v3.7.2.0data status	okinstallation	HaddamTimeLapsedifferential loss correction	single-endedforward channel	channel 3reverse channel	N/Adate	2011/06/22time	07:36:17forward acquisition time	30.00reverse acquisition time	0.00gamma	498.7831k internal	0.1758k external	0.1758temperature offset calibration	1.0074default loss term (dB/km)	0.3790temperature slope calibration	1.3530multiplexer offset coefficient	1.0000multiplexer slope coefficient	1.0000fibre end	0.00T internal ref (°C)	23.62T ext. ref 1 (°C)	21.06T ext. ref 2 (°C)	0.14length (m)	temperature (°C)	Stokes	anti-Stokes-747.200	159.105	0.066	-0.122
-746.185	-200.000	-0.023	0.266
-745.171	78.309	0.040	0.056
-744.156	144.658	-0.046	-0.081
-743.142	-92.616	-0.662	0.244
-742.127	91.448	-0.247	0.368
-741.112	-52.371	-0.617	0.376
-740.098	-200.000	0.067	0.514
-739.083	550.312	0.141	-0.449
-738.069	800.000	-0.116	0.468
-737.054	-55.422	-0.150	0.089
-736.039	800.000	0.040	0.230
-735.025	255.594	-0.187	0.425
-734.010	-38.261	0.346	0.242
-732.996	287.135	0.184	0.440
-731.981	-29.355	0.333	0.252
-730.966	-60.370	-0.329	0.185
-729.952	-156.119	-0.155	0.013
-728.937	-119.648	0.414	-0.094
-727.923	622.752	0.053	0.179
-726.908	611.649	-0.069	0.228
-725.894	76.558	0.171	-0.240
-724.879	-13.265	-0.271	0.232
-723.864	-84.182	-0.257	0.107
-722.850	680.882	0.024	0.082
-721.835	-121.343	-0.204	0.045
-720.821	800.000	-0.078	-0.299
-719.806	-176.463	0.163	0.005
-718.791	-4.190	0.242	0.221
-717.777	137.909	-0.258	-0.447
-716.762	-200.000	-0.507	-0.002
-715.748	45.217	0.091	-0.111
-714.733	152.173	0.200	0.361
-713.718	-118.512	0.205	0.048
-712.704	-200.000	-0.046	0.370
-711.689	-164.528	-0.322	-0.019
-710.675	-200.000	0.021	-0.299
-709.660	385.365	0.110	0.302
-708.645	-5.323	-0.091	0.082
-707.631	-200.000	0.063	0.395
-706.616	-2.020	-0.097	-0.090
-705.602	223.173	0.215	-0.459
-704.587	-43.223	-0.116	0.078
-703.572	4.557	-0.236	0.228
-702.558	-200.000	-0.019	0.313
-701.543	-112.273	-0.620	0.163
-700.529	9.788	0.423	0.424
-699.514	266.328	-0.258	0.596
-698.499	4.241	-0.110	0.106
-697.485	-1.085	0.377	0.352
-696.470	4.357	-0.185	-0.179
-695.456	-180.074	-0.140	0.004
-694.441	-148.260	-0.118	0.013
-693.426	-200.000	-0.035	-0.232
-692.412	196.539	0.115	-0.232
-691.397	18.345	-0.151	-0.159
-690.383	-200.000	0.030	0.361
-689.368	-200.000	-0.032	-0.217
-688.354	190.765	-0.046	-0.091
-687.339	-200.000	0.038	-0.253
-686.324	-22.610	-0.062	0.049
-685.310	213.462	-0.142	0.297
-684.295	-142.519	-0.335	0.043
-683.281	-29.116	-0.286	-0.216
-682.266	-161.527	-0.200	0.013
-681.251	-159.263	-0.433	0.032
-680.237	139.625	0.264	0.459
-679.222	-162.966	0.338	0.021
-678.208	101.368	-0.087	0.134
-677.193	291.417	-0.087	0.209
-676.178	85.623	-0.039	-0.056
-675.164	-200.000	-0.040	0.500
-674.149	-61.375	0.452	-0.250
-673.135	-4.859	0.322	0.293
-672.120	-95.383	0.096	0.034
-671.105	-77.526	-0.438	0.199
-670.091	-102.729	-0.671	-0.209
-669.076	-123.801	-0.195	0.040
-668.062	-92.270	-0.294	-0.109
-667.047	-105.746	0.507	0.150
-666.032	-6.008	0.196	0.177
-665.018	800.000	0.120	0.587
-664.003	479.881	-0.193	-0.579
-662.989	-0.859	0.441	-0.411
-661.974	-191.241	-0.203	0.003
-660.959	-133.572	-0.428	0.070
-659.945	119.913	0.151	0.247
-658.930	171.981	0.056	-0.106
-657.916	800.000	0.095	-0.391
-656.901	-56.945	-0.322	0.187
-655.886	255.794	0.098	-0.222
-654.872	-145.093	-0.394	-0.047
-653.857	-27.570	-0.340	-0.260
-652.843	3.414	-0.153	-0.146
-651.828	-32.251	-0.121	-0.089
-650.814	171.975	-0.218	0.414
-649.799	-200.000	-0.056	0.398
-648.784	800.000	-0.055	0.261
-647.770	90.503	-0.240	-0.355
-646.755	337.877	-0.124	-0.320
-645.741	-71.354	0.257	-0.127
-644.726	300.808	0.216	-0.528
-643.711	35.683	-0.016	0.019
-642.697	185.762	0.081	-0.159
-641.682	-200.000	0.009	0.138
-640.668	-29.876	-0.395	0.296
-639.653	12.454	0.316	-0.320
-638.638	-0.603	-0.128	-0.120
-637.624	-25.890	-0.380	-0.294
-636.609	-79.571	-0.200	-0.089
-635.595	-200.000	-0.037	0.309
-634.580	-156.316	-0.471	-0.038
-633.565	-200.000	0.032	0.197
-632.551	93.993	-0.088	-0.132
-631.536	-21.406	0.304	-0.244
-630.522	-102.547	0.061	0.019
-629.507	-53.812	0.406	0.243
-628.492	-155.765	0.489	-0.041
-627.478	-200.000	-0.031	0.182
-626.463	29.545	-0.173	0.194
-625.449	-64.915	-0.171	0.090
-624.434	-200.000	0.022	0.140
-623.419	-200.000	-0.009	0.366
-622.405	-99.377	-0.078	-0.026
-621.390	-36.971	0.185	-0.130
-620.376	800.000	0.033	0.140
-619.361	207.933	0.150	-0.309
-618.346	-87.302	0.441	-0.175
-617.332	-40.333	0.178	0.122
-616.317	-79.156	0.438	-0.195
-615.303	-76.183	-0.186	0.086
-614.288	-49.834	0.283	0.176
-613.273	800.000	-0.026	-0.146
-612.259	-69.294	0.229	-0.115
-611.244	-200.000	0.052	-0.424
-610.230	8.701	0.126	-0.125
-609.215	75.919	-0.202	-0.282
-608.201	-30.446	-0.407	-0.303
-607.186	-200.000	0.003	0.222
-606.171	-105.657	-0.257	-0.076
-605.157	-121.669	0.416	-0.090
-604.142	-144.879	-0.229	0.027
-603.128	-108.675	-0.167	0.047
-602.113	-69.759	-0.037	-0.019
-601.098	-43.047	-0.330	-0.219
-600.084	188.335	-0.124	-0.245
-599.069	197.897	0.211	0.425
-598.055	-85.460	0.372	0.152
-597.040	-43.735	0.102	0.068
-596.025	129.772	0.199	0.336
-595.011	-120.005	-0.246	-0.055
-593.996	128.045	-0.151	0.253
-592.982	-52.062	0.334	0.203
-591.967	-183.435	-0.282	0.006
-590.952	-77.660	0.259	-0.118
-589.938	-149.781	0.135	0.014
-588.923	-200.000	-0.025	-0.169
-587.909	-90.938	-0.239	0.090
-586.894	-200.000	0.027	0.237
-585.879	-200.000	0.023	-0.435
-584.865	-200.000	0.071	0.606
-583.850	-200.000	-0.014	0.084
-582.836	163.785	-0.085	-0.157
-581.821	-39.541	0.264	-0.181
-580.806	637.746	-0.104	-0.349
-579.792	-67.642	-0.104	-0.053
-578.777	69.620	-0.265	-0.359
-577.763	164.519	0.148	-0.276
-576.748	-200.000	0.029	0.301
-575.733	-76.850	-0.240	-0.110
-574.719	175.454	-0.313	-0.598
-573.704	-156.840	0.226	0.018
-572.690	379.219	0.126	-0.339
-571.675	-200.000	0.006	0.188
-570.661	-159.946	0.292	-0.021
-569.646	24.430	-0.088	0.095
-568.631	-172.352	-0.383	-0.016
-567.617	-55.031	0.456	0.269
-566.602	72.634	0.177	0.242
-565.588	330.464	-0.043	-0.109
-564.573	107.904	0.210	-0.330
-563.558	-77.439	-0.162	-0.074
-562.544	-60.893	-0.425	-0.235
-561.529	-60.644	-0.322	-0.178
-560.515	-168.598	0.058	0.003
-559.500	84.790	0.245	-0.353
-558.485	-200.000	-0.002	0.296
-557.471	-47.218	-0.149	-0.095
-556.456	-111.689	0.126	-0.033
-555.442	800.000	0.106	0.457
-554.427	293.368	-0.059	-0.143
-553.412	-75.231	-0.543	-0.253
-552.398	-8.866	-0.079	-0.069
-551.383	-200.000	-0.055	-0.623
-550.369	84.443	-0.102	-0.147
-549.354	-17.112	0.079	0.065
-548.339	-13.849	-0.095	-0.080
-547.325	211.487	0.014	-0.029
-546.310	527.408	0.065	-0.202
-545.296	77.262	0.060	0.084
-544.281	-28.271	-0.087	-0.066
-543.266	-151.471	0.349	-0.034
-542.252	-166.267	0.805	-0.044
-541.237	-165.153	0.481	0.028
-540.223	800.000	0.065	-0.261
-539.208	-149.102	-0.247	0.026
-538.193	-79.704	0.282	-0.124
-537.179	-122.447	-0.690	-0.146
-536.164	-76.478	-0.471	0.216
-535.150	-200.000	-0.426	0.001
-534.135	326.448	-0.085	0.214
-533.121	-12.173	-0.426	0.366
-532.106	359.761	0.254	0.669
-531.091	-1.918	0.241	0.222
-530.077	356.179	-0.096	-0.252
-529.062	-179.254	-0.143	-0.004
-528.048	43.698	-0.238	-0.286
-527.033	-151.426	-0.367	0.035
-526.018	45.981	0.470	0.571
-525.004	37.890	-0.283	0.330
-523.989	-53.870	-0.349	-0.208
-522.975	406.765	-0.203	-0.566
-521.960	-102.009	-0.155	0.049
-520.945	-42.697	0.230	-0.153
-519.931	17.897	0.138	0.144
-518.916	-144.798	0.434	-0.052
-517.902	800.000	-0.091	-0.349
-516.887	-97.570	-0.300	-0.102
-515.872	291.285	-0.120	-0.287
-514.858	-200.000	0.033	0.441
-513.843	-200.000	0.032	0.237
-512.829	155.523	-0.145	-0.263
-511.814	-104.557	-0.124	0.037
-510.799	-107.513	0.284	0.081
-509.785	-200.000	0.020	0.137
-508.770	130.344	-0.148	-0.249
-507.756	400.448	0.025	-0.069
-506.741	-75.081	-0.479	0.223
-505.726	-100.409	0.787	0.254
-504.712	128.234	-0.212	0.355
-503.697	-122.614	-0.380	-0.080
-502.683	-56.499	-0.161	0.093
-501.668	-164.137	0.285	0.017
-500.653	-158.665	-0.522	0.039
-499.639	-80.151	0.057	0.025
-498.624	-93.849	-0.176	-0.063
-497.610	-200.000	-0.028	0.177
-496.595	-117.685	0.335	-0.078
-495.581	64.476	0.069	-0.092
-494.566	-118.775	-0.332	0.076
-493.551	-121.431	-0.284	0.061
-492.537	800.000	0.127	-0.530
-491.522	-100.844	-0.411	-0.132
-490.508	413.736	-0.074	-0.208
-489.493	-185.566	0.218	-0.004
-488.478	677.895	-0.056	0.190
-487.464	-104.569	-0.182	-0.055
-486.449	-200.000	0.004	-0.104
-485.435	-200.000	-0.011	0.393
-484.420	23.735	0.151	-0.163
-483.405	-17.312	0.125	-0.103
-482.391	-108.985	0.366	0.102
-481.376	102.867	0.256	0.392
-480.362	148.374	0.132	0.235
-479.347	30.619	-0.429	0.480
-478.332	51.270	-0.171	-0.212
-477.318	447.198	0.125	0.361
-476.303	206.955	-0.231	0.472
-475.289	-139.122	-0.234	0.033
-474.274	-125.907	0.156	0.031
-473.259	-64.139	-0.111	0.059
-472.245	-13.062	0.076	-0.064
-471.230	357.872	0.232	-0.609
-470.216	25.756	0.117	-0.127
-469.201	-26.641	0.365	0.279
-468.186	-112.195	-0.189	-0.049
-467.172	-139.658	-0.304	-0.042
-466.157	-45.948	0.282	0.181
-465.143	800.000	0.058	-0.280
-464.128	328.071	0.118	0.297
-463.113	80.333	0.176	0.249
-462.099	41.654	0.268	0.318
-461.084	-80.002	-0.206	-0.090
-460.070	217.234	-0.162	-0.339
-459.055	-200.000	0.019	-0.360
-458.040	368.544	-0.050	-0.134
-457.026	-124.983	-0.292	0.058
-456.011	-80.076	0.204	-0.089
-454.997	299.058	-0.159	0.383
-453.982	-98.098	0.291	-0.097
-452.968	3.472	-0.538	0.512
-451.953	-81.719	-0.147	-0.063
-450.938	-151.532	-0.669	-0.064
-449.924	800.000	-0.170	0.632
-448.909	79.916	0.247	-0.347
-447.895	99.166	-0.108	0.164
-446.880	-34.593	-0.181	0.129
-445.865	-200.000	-0.079	0.686
-444.851	-184.462	-0.116	-0.002
-443.836	-17.656	0.207	-0.170
-442.822	201.593	0.154	-0.311
-441.807	64.638	-0.037	0.048
-440.792	-79.884	0.580	-0.254
-439.778	224.853	0.095	-0.202
-438.763	-200.000	-0.109	-0.735
-437.749	-153.495	0.213	-0.019
-436.734	-37.554	0.338	0.235
-435.719	44.519	0.064	0.077
-434.705	-77.957	-0.537	-0.241
-433.690	45.937	-0.121	0.146
-432.676	800.000	-0.011	-0.059
-431.661	-24.183	0.403	0.314
-430.646	-53.104	0.283	0.169
-429.632	119.747	-0.360	0.585
-428.617	17.244	-0.136	-0.141
-427.603	50.832	0.169	0.209
-426.588	-200.000	0.022	-0.452
-425.573	-7.122	0.321	-0.284
-424.559	-136.574	0.587	0.088
-423.544	-127.144	-0.169	-0.032
-422.530	538.486	0.017	-0.054
-421.515	134.919	-0.233	-0.397
-420.500	81.521	0.332	-0.469
-419.486	-200.000	0.020	0.224
-418.471	-162.647	-0.510	-0.032
-417.457	9.067	-0.282	-0.278
-416.442	-106.070	-0.298	0.087
-415.428	-146.063	-0.266	-0.030
-414.413	-200.000	0.006	-0.126
-413.398	-134.548	-0.712	-0.112
-412.384	142.783	0.261	0.454
-411.369	-61.429	-0.499	0.273
-410.355	152.557	0.183	0.327
-409.340	6.717	0.136	-0.132
-408.325	-135.509	-0.273	-0.042
-407.311	430.773	0.014	-0.040
-406.296	378.648	-0.111	-0.297
-405.282	-145.265	-0.086	-0.010
-404.267	280.374	0.157	-0.368
-403.252	-4.647	0.445	-0.401
-402.238	800.000	0.031	-0.136
-401.223	-155.230	0.232	0.019
-400.209	71.235	0.168	-0.228
-399.194	-136.875	-0.253	0.038
-398.179	-18.101	-0.041	-0.034
-397.165	800.000	-0.062	0.263
-396.150	800.000	-0.065	-0.274
-395.136	800.000	-0.133	-0.604
-394.121	-200.000	-0.054	0.425
-393.106	36.394	-0.216	0.249
-392.092	-53.132	0.033	0.020
-391.077	569.175	-0.108	0.346
-390.063	-28.831	0.107	0.080
-389.048	428.203	-0.156	-0.442
-388.033	83.777	0.122	-0.174
-387.019	-144.521	0.764	0.091
-386.004	142.987	0.212	-0.368
-384.990	-104.259	-0.293	-0.088
-383.975	-108.737	0.392	-0.109
-382.960	-78.808	0.151	0.067
-381.946	-200.000	0.178	0.000
-380.931	7.995	0.206	-0.202
-379.917	33.516	-0.207	0.235
-378.902	-22.538	-0.048	-0.038
-377.888	-200.000	-0.011	0.178
-376.873	2.314	0.359	0.338
-375.858	-65.035	-0.218	-0.114
-374.844	-13.148	-0.359	-0.304
-373.829	800.000	-0.084	0.402
-372.815	-188.510	-0.256	-0.004
-371.800	-69.262	0.230	-0.115
-370.785	97.844	-0.264	0.397
-369.771	313.919	-0.195	-0.479
-368.756	800.000	0.063	0.312
-367.742	800.000	-0.153	0.648
-366.727	4.933	0.091	-0.087
-365.712	-26.306	0.191	-0.146
-364.698	106.682	0.191	-0.296
-363.683	328.249	0.051	0.127
-362.669	-61.708	0.222	-0.121
-361.654	378.528	0.214	0.572
-360.639	0.766	-0.062	-0.058
-359.625	-23.423	-0.229	-0.179
-358.610	-143.092	0.589	-0.073
-357.596	-200.000	-0.032	-0.352
-356.581	344.277	0.196	-0.504
-355.566	-41.580	-0.390	-0.261
-354.552	35.830	0.586	0.672
-353.537	-150.568	0.376	-0.037
-352.523	-200.000	0.061	-0.540
-351.508	46.413	0.158	-0.191
-350.493	-93.725	-0.310	0.111
-349.479	-200.000	-0.036	-0.352
-348.464	-55.248	0.209	0.122
-347.450	-96.655	0.097	0.033
-346.435	-82.722	0.266	0.111
-345.420	-88.381	0.423	0.164
-344.406	-72.051	0.409	-0.197
-343.391	800.000	-0.018	-0.081
-342.377	-99.845	-0.233	-0.075
-341.362	285.137	0.164	0.385
-340.348	298.640	-0.146	-0.350
-339.333	101.656	0.250	-0.380
-338.318	205.691	-0.115	-0.234
-337.304	145.740	0.191	-0.334
-336.289	-78.437	0.205	0.091
-335.275	-154.495	-0.256	-0.022
-334.260	-39.100	-0.160	0.109
-333.245	5.803	-0.070	-0.067
-332.231	-61.397	0.265	0.145
-331.216	800.000	-0.096	0.450
-330.202	295.224	-0.152	0.363
-329.187	-182.277	0.251	0.006
-328.172	687.183	-0.086	0.295
-327.158	800.000	-0.032	-0.138
-326.143	-18.647	0.411	0.333
-325.129	-200.000	0.024	-0.285
-324.114	313.296	0.109	-0.267
-323.099	148.524	-0.073	-0.129
-322.085	-20.547	-0.247	-0.197
-321.070	47.640	-0.213	-0.258
-320.056	800.000	0.027	-0.131
-319.041	346.188	-0.041	-0.107
-318.026	-2.718	-0.266	0.242
-317.012	800.000	-0.052	-0.229
-315.997	-116.543	-0.368	0.088
-314.983	-200.000	0.051	0.530
-313.968	-147.751	0.491	0.053
-312.953	415.023	0.193	-0.537
-311.939	312.005	0.161	-0.395
-310.924	-200.000	-0.022	-0.176
-309.910	245.984	0.132	-0.290
-308.895	-94.519	0.054	0.019
-307.880	-119.580	0.254	0.057
-306.866	352.774	-0.126	0.327
-305.851	800.000	-0.090	0.362
-304.837	55.377	0.217	-0.273
-303.822	-74.783	-0.567	0.264
-302.807	538.501	0.030	-0.094
-301.793	-77.291	-0.353	-0.159
-300.778	-86.517	0.444	0.176
-299.764	92.142	0.127	0.187
-298.749	376.792	0.155	0.413
-297.735	-139.595	-0.395	-0.054
-296.720	80.308	-0.184	0.258
-295.705	-111.868	0.845	0.220
-294.691	186.891	0.117	-0.227
-293.676	800.000	0.055	0.240
-292.662	554.532	-0.048	0.152
-291.647	800.000	0.086	0.491
-290.632	-75.013	-0.290	-0.134
-289.618	-168.992	0.075	-0.004
-288.603	51.121	0.278	0.343
-287.589	-68.598	0.303	0.152
-286.574	147.519	-0.104	-0.182
-285.559	-93.517	0.135	0.048
-284.545	120.051	-0.060	0.097
-283.530	285.197	-0.139	0.327
-282.516	255.931	0.060	0.135
-281.501	-107.991	-0.117	0.033
-280.486	-76.294	-0.167	0.076
-279.472	800.000	0.019	-0.073
-278.457	-105.396	-0.351	0.103
-277.443	800.000	0.071	0.354
-276.428	-151.860	-0.291	0.027
-275.413	89.971	0.103	0.150
-274.399	186.878	-0.148	0.287
-273.384	201.183	0.087	0.174
-272.370	-200.000	-0.021	-0.187
-271.355	205.029	0.069	-0.139
-270.340	-200.000	-0.044	-0.309
-269.326	236.587	-0.058	-0.125
-268.311	-127.989	-0.190	0.035
-267.297	319.337	0.138	0.342
-266.282	20.480	0.319	0.335
-265.267	-138.359	0.189	-0.027
-264.253	-63.920	0.260	-0.137
-263.238	-198.744	0.638	0.004
-262.224	444.143	0.180	0.514
-261.209	-58.782	0.199	0.111
-260.195	264.564	-0.099	0.225
-259.180	-14.648	-0.498	0.415
-258.165	125.160	-0.239	0.391
-257.151	67.451	0.252	0.335
-256.136	190.995	-0.126	0.247
-255.122	-124.913	0.141	0.028
-254.107	60.791	0.172	0.221
-253.092	-33.401	-0.232	-0.166
-252.078	289.486	-0.122	0.288
-251.063	-48.762	0.313	-0.194
-250.049	-141.377	-0.276	0.036
-249.034	-85.164	0.089	-0.036
-248.019	-14.228	0.499	0.417
-247.005	146.526	0.183	-0.320
-245.990	800.000	0.066	-0.339
-244.976	-95.048	0.473	0.165
-243.961	191.346	0.208	-0.407
-242.946	-165.096	0.431	0.024
-241.932	-80.310	-0.191	-0.083
-240.917	68.593	-0.098	-0.130
-239.903	-145.609	-0.254	-0.029
-238.888	-85.062	0.646	0.261
-237.873	800.000	0.121	0.579
-236.859	20.210	-0.118	-0.124
-235.844	40.554	-0.123	0.143
-234.830	-61.073	-0.330	0.180
-233.815	-174.234	-0.413	-0.015
-232.800	285.262	-0.235	0.551
-231.786	-183.791	0.624	-0.013
-230.771	173.962	0.245	-0.460
-229.757	-200.000	0.037	0.361
-228.742	-103.708	-0.270	0.082
-227.727	800.000	-0.169	0.655
-226.713	92.460	-0.138	0.202
-225.698	800.000	-0.049	-0.271
-224.684	-66.960	-0.153	0.078
-223.669	-200.000	0.023	0.419
-222.655	57.200	-0.127	-0.161
-221.640	-97.364	-0.438	0.147
-220.625	-40.644	-0.252	-0.169
-219.611	735.287	-0.242	-0.845
-218.596	800.000	0.036	-0.173
-217.582	-200.000	0.007	-0.144
-216.567	-113.506	-0.159	0.040
-215.552	-55.961	-0.491	0.283
-214.538	-5.912	0.145	0.128
-213.523	-23.674	0.493	-0.382
-212.509	75.999	0.367	-0.503
-211.494	-3.826	-0.157	-0.141
-210.479	-100.166	0.319	0.102
-209.465	613.814	-0.150	-0.489
-208.450	285.868	-0.092	-0.216
-207.436	64.148	-0.232	0.302
-206.421	573.706	-0.083	0.263
-205.406	-41.273	0.239	0.159
-204.392	430.323	0.086	0.243
-203.377	-111.410	0.454	-0.119
-202.363	-34.518	0.385	0.273
-201.348	41.858	0.147	0.173
-200.333	-58.184	-0.302	0.170
-199.319	-16.615	0.410	0.336
-198.304	-68.387	-0.329	-0.165
-197.290	56.755	-0.070	0.088
-196.275	-102.777	-0.465	-0.142
-195.260	73.337	-0.346	0.469
-194.246	-200.000	0.019	-0.328
-193.231	37.132	-0.247	-0.284
-192.217	129.444	-0.126	0.209
-191.202	11.281	-0.181	0.179
-190.187	800.000	0.069	-0.295
-189.173	41.502	-0.320	-0.375
-188.158	514.100	0.081	-0.246
-187.144	-200.000	0.064	0.658
-186.129	-143.995	-0.332	-0.040
-185.114	-200.000	0.015	-0.227
-184.100	-130.286	-0.100	0.017
-183.085	-78.379	-0.129	-0.057
-182.071	-47.572	-0.287	-0.180
-181.056	0.360	-0.169	-0.156
-180.042	-200.000	-0.027	-0.245
-179.027	800.000	0.045	-0.220
-178.012	-91.867	0.359	0.131
-176.998	-157.776	0.346	0.026
-175.983	800.000	0.056	-0.298
-174.969	265.934	-0.165	-0.373
-173.954	-137.342	-0.094	0.014
-172.939	51.409	-0.099	0.121
-171.925	173.605	-0.175	0.327
-170.910	-103.510	0.256	0.077
-169.896	-41.757	0.462	-0.306
-168.881	477.917	-0.055	-0.162
-167.866	-141.588	0.244	-0.031
-166.852	-200.000	0.017	0.432
-165.837	173.132	-0.190	0.356
-164.823	63.085	0.147	-0.191
-163.808	-98.984	-0.416	0.136
-162.793	79.383	-0.292	0.406
-161.779	800.000	-0.045	0.241
-160.764	-73.645	0.302	-0.142
-159.750	246.530	-0.201	-0.439
-158.735	800.000	-0.108	-0.417
-157.720	800.000	-0.120	-0.531
-156.706	691.560	-0.135	-0.460
-155.691	-200.000	-0.023	-0.136
-154.677	-172.373	-0.206	-0.008
-153.662	185.255	-0.123	-0.237
-152.647	-200.000	-0.060	0.640
-151.633	800.000	0.068	-0.382
-150.618	-104.562	-0.347	0.103
-149.604	-200.000	0.020	-0.133
-148.589	-163.458	0.552	-0.033
-147.574	-200.000	0.003	-0.425
-146.560	-15.814	0.062	-0.051
-145.545	-200.000	-0.008	-0.077
-144.531	326.392	-0.005	0.012
-143.516	175.605	-0.079	0.149
-142.502	608.912	-0.059	-0.190
-141.487	-200.000	-0.056	-0.425
-140.472	92.050	0.335	0.488
-139.458	16.661	0.287	-0.293
-138.443	-65.001	0.234	0.121
-137.429	-15.106	0.242	0.200
-136.414	-96.742	0.310	-0.105
-135.399	-200.000	-0.001	0.205
-134.385	388.502	0.207	-0.557
-133.370	11.685	-0.320	0.317
-132.356	800.000	0.109	0.455
-131.341	-200.000	-0.008	0.454
-130.326	800.000	-0.109	0.395
-129.312	-200.000	-0.048	-0.450
-128.297	254.159	-0.187	-0.415
-127.283	-185.987	-0.571	-0.011
-126.268	33.879	-0.370	0.416
-125.253	-56.161	-0.181	0.104
-124.239	-103.760	-0.240	0.072
-123.224	-104.288	-0.158	0.047
-122.210	-200.000	0.189	-0.000
-121.195	-87.404	-0.479	-0.187
-120.180	125.394	0.163	0.265
-119.166	-129.851	-0.298	0.052
-118.151	800.000	-0.103	0.461
-117.137	325.801	-0.159	-0.394
-116.122	30.121	-0.159	0.175
-115.107	-200.000	-0.019	-0.189
-114.093	-200.000	-0.059	0.391
-113.078	164.573	-0.278	0.507
-112.064	-41.353	0.243	0.161
-111.049	-102.484	0.506	-0.155
-110.034	-147.898	-0.142	-0.015
-109.020	80.734	0.306	-0.426
-108.005	-154.112	-0.295	-0.025
-106.991	18.304	0.198	-0.204
-105.976	-155.114	-0.209	-0.017
-104.962	-200.000	-0.037	-0.297
-103.947	429.840	0.147	-0.411
-102.932	13.879	-0.426	-0.428
-101.918	-153.531	0.285	-0.025
-100.903	800.000	0.104	0.426
-99.889	-200.000	0.035	-0.742
-98.874	-31.163	-0.272	-0.197
-97.859	-200.000	-0.019	-0.266
-96.845	14.966	-0.276	-0.278
-95.830	223.963	0.144	0.302
-94.816	104.156	0.183	0.278
-93.801	3.705	-0.141	-0.133
-92.786	204.015	-0.174	0.349
-91.772	-134.139	0.673	-0.106
-90.757	91.747	-0.056	-0.081
-89.743	-94.027	0.571	-0.201
-88.728	-121.259	0.250	-0.053
-87.713	-177.716	0.348	-0.011
-86.699	-200.000	0.008	-0.578
-85.684	-115.401	0.364	-0.088
-84.670	-59.252	0.136	-0.075
-83.655	-8.834	-0.070	0.061
-82.640	-164.803	0.149	-0.009
-81.626	-15.734	-0.148	-0.121
-80.611	657.699	0.101	-0.335
-79.597	-106.319	-0.319	0.091
-78.582	29.168	0.234	0.256
-77.567	-133.540	-0.240	0.038
-76.553	-71.936	0.253	0.121
-75.538	-20.919	0.196	0.155
-74.524	-45.491	0.146	0.093
-73.509	-49.666	-0.358	0.219
-72.494	-200.000	0.040	-0.366
-71.480	13.613	-0.137	-0.137
-70.465	-13.229	-0.223	0.187
-69.451	126.288	-0.241	0.394
-68.436	5.906	-0.079	-0.075
-67.422	-9.294	0.137	-0.118
-66.407	-50.405	-0.197	-0.120
-65.392	21.528	-0.232	-0.243
-64.378	121.752	0.083	-0.134
-63.363	26.510	0.276	0.298
-62.349	-147.098	0.140	0.015
-61.334	44.448	-2.591	-3.066
-60.319	14.134	1.519	1.523
-59.305	231.876	-3.378	-7.160
-58.290	33.195	3.965	4.430
-57.276	369.166	3.910	10.236
-56.261	-200.000	22.827	309.403
-55.246	368.205	1284.325	3357.837
-54.232	54.012	2845.409	3524.918
-53.217	52.466	2665.061	3277.565
-52.203	33.677	2396.700	2683.506
-51.188	29.430	2064.513	2259.326
-50.173	25.569	1950.500	2089.469
-49.159	24.361	1940.022	2064.121
-48.144	23.904	1935.806	2054.255
-47.130	23.812	1932.862	2049.978
-46.115	23.762	1931.520	2047.901
-45.100	23.860	1929.395	2046.693
-44.086	23.870	1928.206	2045.471
-43.071	23.832	1926.864	2043.522
-42.057	23.840	1924.959	2041.515
-41.042	23.831	1923.811	2040.117
-40.027	23.817	1922.658	2038.653
-39.013	23.763	1920.759	2035.936
-37.998	23.856	1918.740	2034.780
-36.984	23.715	1918.323	2032.633
-35.969	23.815	1916.626	2031.907
-34.954	23.611	1916.054	2028.879
-33.940	23.739	1915.302	2029.474
-32.925	23.770	1913.701	2028.050
-31.911	23.815	1911.817	2026.489
-30.896	23.811	1910.331	2024.783
-29.881	23.733	1908.984	2022.380
-28.867	23.681	1908.165	2020.840
-27.852	23.752	1905.963	2019.240
-26.838	23.663	1905.081	2017.214
-25.823	23.612	1904.074	2015.484
-24.809	23.638	1902.327	2013.843
-23.794	23.599	1902.136	2013.117
-22.779	23.626	1900.354	2011.469
-21.765	23.628	1898.996	2009.972
-20.750	23.665	1896.636	2007.810
-19.736	23.565	1896.348	2006.287
-18.721	23.549	1894.412	2003.981
-17.706	23.611	1893.313	2003.447
-16.692	23.587	1891.870	2001.569
-15.677	23.562	1891.076	2000.361
-14.663	23.480	1889.460	1997.640
-13.648	23.534	1888.336	1996.987
-12.633	23.564	1887.283	1996.135
-11.619	23.575	1886.099	1994.923
-10.604	23.468	1885.433	1992.940
-9.590	23.518	1883.245	1991.109
-8.575	23.402	1883.012	1989.467
-7.560	23.554	1880.811	1988.777
-6.546	23.419	1880.638	1987.003
-5.531	23.589	1878.241	1986.305
-4.517	23.434	1877.366	1983.549
-3.502	23.449	1876.566	1982.794
-2.487	23.542	1875.655	1982.805
-1.473	23.596	1872.559	1980.050
-0.458	23.736	1855.511	1963.508
0.556	21.072	2003.729	2076.132
1.571	20.052	2210.499	2276.631
2.586	20.988	2250.787	2330.433
3.600	20.971	2254.572	2333.842
4.615	20.945	2253.205	2331.795
5.629	20.952	2251.676	2330.031
6.644	21.074	2248.635	2328.247
7.659	20.969	2246.976	2324.841
8.673	21.107	2244.783	2324.132
9.688	20.803	2253.478	2328.778
10.702	19.789	2333.239	2396.794
11.717	18.237	2398.070	2440.852
12.731	8.989	2375.777	2285.945
13.746	1.368	2354.457	2156.673
14.761	0.310	2350.335	2137.568
15.775	0.126	2348.650	2133.158
16.790	0.122	2346.857	2131.218
17.804	0.178	2345.971	2130.945
18.819	0.187	2344.419	2129.414
19.834	0.146	2342.945	2127.238
20.848	0.125	2341.121	2125.032
21.863	0.137	2340.006	2123.940
22.877	0.149	2337.717	2121.770
23.892	0.138	2335.724	2119.558
24.907	0.097	2332.447	2115.753
25.921	0.130	2332.120	2115.663
26.936	0.056	2329.155	2111.681
27.950	0.065	2326.748	2109.365
28.965	0.033	2325.118	2107.193
29.980	0.105	2322.878	2105.911
30.994	0.143	2321.059	2104.558
32.009	4.364	2335.250	2176.756
33.023	15.489	2367.042	2364.380
34.038	20.455	2376.760	2444.207
35.053	21.054	2375.555	2451.130
36.067	21.014	2372.393	2447.008
37.082	20.812	2370.661	2442.087
38.096	20.956	2368.613	2441.719
39.111	21.106	2366.559	2441.407
40.126	21.347	2364.200	2442.069
41.140	21.436	2363.905	2442.723
42.155	21.264	2362.843	2438.919
43.169	21.350	2361.325	2438.262
44.184	21.380	2357.886	2434.848
45.199	21.567	2355.273	2434.479
46.213	21.227	2355.207	2429.353
47.228	21.140	2353.121	2425.697
48.242	21.194	2351.406	2424.389
49.257	21.199	2349.316	2422.022
50.271	21.067	2345.787	2416.257
51.286	21.069	2342.939	2413.060
52.301	21.078	2342.259	2412.192
53.315	20.910	2341.098	2408.378
54.330	21.249	2340.767	2412.450
55.344	21.531	2337.523	2412.726
56.359	21.445	2333.810	2407.417
57.374	21.296	2333.498	2404.745
58.388	21.576	2330.544	2405.287
59.403	21.622	2327.167	2402.152
60.417	21.738	2324.500	2400.707
61.432	21.826	2323.511	2400.601
62.447	21.876	2321.868	2399.306
63.461	21.887	2321.114	2398.395
64.476	22.046	2317.534	2396.587
65.490	22.117	2316.897	2396.613
66.505	22.039	2317.396	2395.776
67.520	21.678	2314.731	2387.795
68.534	21.107	2310.134	2374.959
69.549	21.095	2307.037	2371.322
70.563	21.203	2304.812	2370.226
71.578	21.262	2303.580	2369.474
72.593	21.253	2301.376	2366.808
73.607	21.450	2300.442	2368.241
74.622	21.516	2298.491	2366.844
75.636	21.361	2296.110	2362.003
76.651	21.362	2293.701	2359.261
77.666	21.440	2291.671	2357.953
78.680	21.348	2289.331	2354.013
79.695	21.324	2287.665	2351.693
80.709	21.381	2288.161	2352.696
81.724	21.567	2285.264	2351.943
82.739	21.553	2281.347	2347.441
83.753	21.595	2279.784	2346.118
84.768	21.536	2278.804	2344.041
85.782	21.445	2277.321	2341.003
86.797	21.541	2275.901	2340.555
87.812	21.376	2273.046	2335.125
88.826	21.412	2271.283	2333.523
89.841	21.578	2269.235	2333.356
90.855	21.797	2268.066	2334.810
91.870	21.560	2265.862	2329.087
92.884	21.308	2263.488	2323.004
93.899	21.346	2261.881	2321.590
94.914	21.298	2261.984	2320.774
95.928	21.510	2262.107	2323.443
96.943	21.547	2259.879	2321.381
97.957	21.408	2256.435	2315.711
98.972	21.417	2253.316	2312.356
99.987	21.026	2249.749	2303.225
101.001	21.091	2248.376	2302.408
102.016	21.334	2246.839	2303.772
103.030	21.265	2244.878	2300.577
104.045	21.337	2242.336	2298.654
105.060	21.643	2240.283	2300.308
106.074	21.518	2238.592	2296.647
107.089	21.077	2235.655	2287.551
108.103	21.277	2235.634	2289.886
109.118	21.559	2234.487	2292.155
110.133	21.595	2232.579	2290.402
111.147	21.767	2231.308	2291.072
112.162	21.854	2230.491	2291.104
113.176	21.477	2227.357	2282.669
114.191	21.299	2224.467	2277.108
115.206	21.277	2222.672	2274.704
116.220	21.197	2221.151	2271.832
117.235	21.132	2218.341	2267.835
118.249	20.930	2216.252	2262.794
119.264	21.088	2215.528	2263.840
120.279	21.298	2215.174	2265.952
121.293	21.262	2212.855	2262.834
122.308	21.340	2211.123	2261.809
123.322	21.308	2209.181	2259.129
124.337	20.929	2208.763	2253.515
125.352	21.504	2209.743	2261.720
126.366	21.681	2207.512	2261.461
127.381	21.273	2202.185	2250.447
128.395	21.078	2199.502	2244.920
129.410	21.242	2198.099	2245.333
130.424	21.168	2196.905	2242.887
131.439	21.002	2194.588	2238.115
132.454	20.952	2192.484	2235.060
133.468	21.226	2189.957	2235.735
134.483	21.175	2188.246	2233.066
135.497	21.125	2185.830	2229.690
136.512	21.130	2185.316	2228.968
137.527	21.120	2183.191	2226.411
138.541	21.039	2182.763	2224.664
139.556	20.965	2181.406	2222.064
140.570	21.088	2180.619	2222.574
141.585	21.210	2177.885	2221.080
142.600	21.220	2177.269	2220.317
143.614	21.111	2175.111	2216.458
144.629	21.247	2173.351	2216.128
145.643	20.955	2172.320	2211.095
146.658	20.944	2169.661	2207.987
147.673	21.190	2167.910	2209.061
148.687	21.395	2168.512	2212.016
149.702	21.657	2167.693	2214.247
150.716	21.585	2164.824	2210.142
151.731	21.773	2164.932	2212.369
152.746	21.850	2164.281	2212.413
153.760	21.429	2162.259	2204.758
154.775	21.479	2161.996	2204.861
155.789	21.343	2159.496	2200.315
156.804	20.975	2155.801	2191.645
157.819	21.251	2152.164	2191.165
158.833	21.421	2150.106	2190.954
159.848	21.449	2149.154	2190.069
160.862	21.704	2147.395	2191.219
161.877	21.789	2146.819	2191.435
162.892	21.718	2145.770	2189.214
163.906	21.616	2144.772	2186.651
164.921	21.494	2141.554	2181.583
165.935	21.423	2139.427	2178.269
166.950	21.297	2136.964	2173.925
167.964	20.992	2134.021	2166.859
168.979	20.874	2132.743	2163.821
169.994	21.278	2131.932	2167.779
171.008	21.307	2130.506	2166.434
172.023	21.223	2129.325	2163.935
173.037	21.432	2127.550	2164.462
174.052	21.322	2126.264	2161.531
175.067	21.107	2123.369	2155.668
176.081	21.147	2123.102	2155.632
177.096	21.134	2121.901	2153.988
178.110	20.937	2119.185	2148.538
179.125	20.875	2117.560	2145.857
180.140	21.067	2117.584	2148.006
181.154	21.110	2115.156	2145.815
182.169	20.964	2113.930	2142.510
183.183	20.937	2112.616	2140.588
184.198	21.290	2112.434	2144.513
185.213	21.494	2111.183	2145.499
186.227	21.210	2110.092	2140.626
187.242	21.185	2107.410	2137.348
188.256	21.140	2105.461	2134.560
189.271	21.498	2105.240	2138.483
190.286	21.576	2103.377	2137.293
191.300	21.188	2099.602	2128.447
192.315	21.099	2097.935	2125.409
193.329	21.237	2097.760	2126.661
194.344	21.536	2096.471	2128.766
195.359	21.320	2094.652	2124.022
196.373	21.418	2093.162	2123.449
197.388	21.440	2089.890	2120.143
198.402	21.249	2088.026	2115.678
199.417	20.982	2086.059	2110.181
200.432	21.091	2085.155	2110.343
201.446	21.312	2084.262	2111.876
202.461	21.416	2082.424	2111.013
203.475	21.290	2080.152	2106.941
204.490	21.385	2077.673	2105.325
205.504	21.331	2075.984	2102.699
206.519	21.072	2073.655	2096.960
207.534	21.111	2072.281	2095.797
208.548	21.357	2071.476	2097.700
209.563	21.452	2070.989	2098.106
210.577	21.284	2069.102	2093.910
211.592	21.336	2068.292	2093.469
212.607	21.509	2068.628	2095.637
213.621	21.678	2067.643	2096.427
214.636	21.296	2065.203	2089.116
215.650	21.166	2062.516	2084.579
216.665	21.301	2060.623	2084.038
217.680	21.623	2060.004	2087.024
218.694	21.854	2058.701	2088.212
219.709	21.838	2056.983	2086.028
220.723	21.720	2055.806	2083.177
221.738	21.581	2053.217	2078.652
222.753	21.368	2050.950	2073.570
223.767	21.325	2049.210	2071.047
224.782	21.023	2046.959	2064.925
225.796	21.063	2045.776	2063.965
226.811	21.123	2045.089	2063.737
227.826	21.305	2042.745	2063.280
228.840	21.508	2042.030	2064.719
229.855	21.265	2040.211	2059.760
230.869	21.351	2038.213	2058.514
231.884	21.312	2036.952	2056.531
232.899	21.104	2034.769	2051.618
233.913	21.056	2034.060	2050.094
234.928	21.325	2033.418	2052.377
235.942	21.411	2031.756	2051.464
236.957	21.328	2029.550	2048.013
237.972	21.232	2028.797	2045.882
238.986	21.476	2028.418	2048.128
240.001	21.340	2025.277	2043.111
241.015	21.064	2024.750	2039.090
242.030	21.284	2024.159	2040.835
243.045	21.491	2022.833	2041.682
244.059	21.344	2021.517	2038.387
245.074	21.273	2017.569	2033.330
246.088	21.034	2015.047	2027.761
247.103	20.958	2013.201	2024.764
248.117	21.065	2012.765	2025.336
249.132	21.407	2010.712	2027.013
250.147	21.276	2008.190	2022.709
251.161	20.923	2007.516	2017.672
252.176	21.214	2006.797	2020.093
253.190	21.645	2004.242	2022.282
254.205	21.460	2001.995	2017.639
255.220	21.465	2000.922	2016.370
256.234	21.443	2000.174	2015.119
257.249	21.410	1998.741	2013.056
258.263	21.280	1997.997	2010.560
259.278	21.180	1996.886	2008.041
260.293	21.054	1994.643	2004.090
261.307	21.008	1992.975	2001.648
262.322	21.122	1990.655	2000.394
263.336	21.031	1988.887	1997.323
264.351	21.005	1987.457	1995.350
265.366	21.081	1987.215	1995.742
266.380	21.205	1986.180	1995.894
267.395	21.097	1984.334	1992.553
268.409	21.143	1982.707	1991.213
269.424	21.445	1981.474	1993.200
270.439	21.637	1980.668	1994.338
271.453	21.597	1978.846	1991.811
272.468	21.530	1977.362	1989.318
273.482	21.403	1975.622	1985.877
274.497	21.302	1972.339	1981.193
275.512	21.436	1970.758	1980.884
276.526	21.442	1969.135	1979.085
277.541	21.349	1966.701	1975.352
278.555	21.344	1965.333	1973.685
279.570	21.041	1963.113	1967.781
280.585	20.914	1961.463	1964.454
281.599	21.210	1961.274	1967.380
282.614	21.475	1959.723	1968.593
283.628	21.454	1959.069	1967.457
284.643	21.547	1958.421	1967.619
285.657	21.742	1956.973	1968.136
286.672	21.693	1955.360	1965.726
287.687	21.292	1953.587	1959.188
288.701	21.264	1951.567	1956.615
289.716	21.245	1949.807	1954.397
290.730	20.961	1948.480	1949.646
291.745	21.176	1946.801	1950.145
292.760	21.175	1945.888	1948.987
293.774	21.217	1945.187	1948.513
294.789	21.477	1944.343	1950.356
295.803	21.249	1941.663	1944.883
296.818	21.241	1940.565	1943.457
297.833	21.220	1940.565	1942.994
298.847	21.103	1937.974	1938.861
299.862	21.182	1936.212	1937.747
300.876	21.232	1934.868	1936.730
301.891	21.541	1934.881	1939.945
302.906	21.808	1934.815	1942.625
303.920	21.688	1932.854	1939.094
304.935	21.313	1929.289	1931.116
305.949	20.955	1927.543	1925.168
306.964	21.242	1925.433	1926.004
307.979	21.457	1924.165	1926.892
308.993	21.125	1922.107	1920.923
310.008	21.340	1920.974	1921.939
311.022	21.541	1920.407	1923.362
312.037	21.549	1918.313	1921.125
313.052	21.303	1916.479	1916.340
314.066	21.043	1914.108	1910.879
315.081	21.096	1913.345	1910.476
316.095	21.146	1911.921	1909.370
317.110	21.057	1909.786	1906.033
318.125	21.179	1907.916	1905.282
319.139	21.287	1907.710	1906.029
320.154	21.402	1906.814	1906.168
321.168	21.477	1905.217	1905.166
322.183	21.369	1903.145	1901.683
323.197	21.347	1902.035	1900.101
324.212	21.152	1900.922	1896.636
325.227	21.267	1899.093	1895.839
326.241	21.410	1897.094	1895.174
327.256	21.540	1896.559	1895.827
328.270	21.498	1895.587	1894.173
329.285	21.478	1894.878	1893.022
330.300	21.531	1895.854	1894.345
331.314	21.713	1894.312	1894.556
332.329	21.454	1891.041	1888.250
333.343	21.339	1889.147	1884.881
334.358	21.593	1888.174	1886.439
335.373	21.656	1886.258	1884.977
336.387	21.582	1883.621	1881.322
337.402	21.590	1882.869	1880.427
338.416	21.577	1880.803	1878.000
339.431	21.410	1880.017	1875.199
340.446	21.829	1878.629	1878.100
341.460	21.744	1876.694	1875.018
342.475	21.701	1874.746	1872.392
343.489	21.533	1873.214	1868.831
344.504	21.640	1871.718	1868.267
345.519	21.488	1870.471	1865.166
346.533	21.425	1868.233	1862.041
347.548	21.548	1867.244	1862.147
348.562	21.592	1866.501	1861.653
349.577	21.496	1864.870	1858.777
350.592	21.339	1863.895	1855.903
351.606	21.294	1862.650	1853.963
352.621	21.287	1860.255	1851.286
353.635	21.088	1858.719	1847.412
354.650	20.938	1857.330	1844.216
355.665	21.108	1855.061	1843.548
356.679	20.932	1854.653	1841.061
357.694	20.908	1853.431	1839.370
358.708	21.095	1852.794	1840.500
359.723	21.469	1852.118	1843.569
360.738	21.699	1851.578	1845.242
361.752	21.582	1849.822	1842.038
362.767	21.274	1846.144	1834.907
363.781	20.948	1844.562	1829.670
364.796	21.155	1844.490	1831.568
365.810	21.384	1843.364	1832.645
366.825	21.259	1841.683	1829.441
367.840	21.359	1840.711	1829.305
368.854	21.180	1839.842	1826.336
369.869	20.886	1837.187	1820.402
370.883	20.989	1836.071	1820.155
371.898	21.257	1834.679	1821.366
372.913	21.505	1834.782	1823.850
373.927	21.794	1834.107	1825.990
374.942	21.806	1832.422	1824.215
375.956	21.647	1830.856	1820.775
376.971	21.440	1827.860	1815.421
377.986	20.935	1826.025	1808.118
379.000	20.969	1824.704	1806.942
380.015	21.335	1824.045	1809.883
381.029	21.580	1823.521	1811.703
382.044	21.636	1822.043	1810.596
383.059	21.600	1819.812	1807.791
384.073	21.447	1818.024	1804.211
385.088	21.203	1816.640	1800.096
386.102	21.229	1815.088	1798.606
387.117	20.972	1812.603	1793.268
388.132	21.007	1811.995	1792.821
389.146	21.023	1814.020	1794.775
390.161	21.502	1812.800	1798.299
391.175	21.588	1808.642	1794.847
392.190	21.280	1804.677	1787.530
393.205	20.888	1802.466	1781.101
394.219	21.021	1801.203	1781.008
395.234	21.210	1800.682	1782.213
396.248	21.268	1798.925	1780.856
397.263	21.241	1796.316	1777.788
398.278	21.102	1794.348	1774.200
399.292	21.107	1793.878	1773.580
400.307	21.356	1794.507	1776.532
401.321	21.442	1793.775	1776.468
402.336	21.281	1791.010	1771.881
403.350	21.187	1789.009	1768.734
404.365	21.676	1788.663	1773.155
405.380	22.027	1787.765	1775.619
406.394	22.028	1786.943	1774.602
407.409	21.955	1785.058	1771.772
408.423	21.575	1783.394	1766.060
409.438	21.416	1780.702	1761.570
410.453	21.357	1780.540	1760.601
411.467	21.460	1779.322	1760.235
412.482	21.312	1777.525	1756.751
413.496	21.417	1776.209	1756.294
414.511	21.345	1775.014	1754.183
415.526	21.112	1771.596	1748.244
416.540	21.042	1770.544	1746.293
417.555	21.095	1769.256	1745.345
418.569	20.835	1769.381	1742.642
419.584	21.004	1768.748	1743.514
420.599	21.237	1769.406	1746.295
421.613	21.325	1768.532	1746.109
422.628	21.283	1767.272	1744.230
423.642	21.495	1765.844	1744.736
424.657	21.315	1763.754	1740.668
425.672	21.341	1761.762	1738.746
426.686	21.078	1760.828	1734.994
427.701	20.861	1758.666	1730.490
428.715	20.632	1756.093	1725.461
429.730	20.788	1755.665	1726.396
430.745	20.905	1754.357	1726.062
431.759	20.875	1753.668	1724.882
432.774	20.775	1753.233	1723.250
433.788	20.576	1751.892	1719.749
434.803	20.641	1750.449	1718.774
435.818	20.522	1750.260	1717.201
436.832	20.556	1749.080	1716.173
437.847	19.544	1740.713	1697.765
438.861	10.796	1716.950	1588.740
439.876	1.855	1701.145	1486.556
440.890	0.315	1697.693	1468.293
441.905	0.253	1695.883	1465.946
442.920	0.259	1694.940	1465.010
443.934	0.236	1693.773	1463.608
444.949	0.195	1692.615	1462.030
445.963	0.173	1691.462	1460.646
446.978	0.138	1691.295	1459.978
447.993	0.082	1690.001	1458.144
449.007	0.168	1687.882	1456.982
450.022	0.149	1685.263	1454.361
451.036	0.129	1684.265	1453.132
452.051	0.629	1686.893	1460.080
453.066	8.198	1705.749	1550.383
454.080	17.465	1721.098	1655.113
455.095	19.688	1724.167	1679.605
456.109	20.092	1723.940	1683.131
457.124	20.072	1722.553	1681.383
458.139	20.068	1721.467	1680.083
459.153	19.992	1720.541	1678.235
460.168	20.052	1718.728	1676.847
461.182	19.910	1718.363	1674.908
462.197	20.059	1716.615	1674.457
463.212	20.342	1714.179	1674.621
464.226	20.428	1713.654	1674.741
465.241	20.110	1713.236	1671.055
466.255	20.047	1710.956	1668.018
467.270	20.223	1709.825	1668.422
468.285	20.119	1709.375	1666.773
469.299	20.245	1707.897	1666.350
470.314	20.268	1705.840	1664.368
471.328	20.167	1704.539	1661.926
472.343	20.239	1703.487	1661.393
473.358	20.189	1701.911	1659.179
474.372	20.241	1700.223	1657.833
475.387	20.289	1698.809	1656.711
476.401	20.154	1697.392	1653.838
477.416	20.134	1695.859	1651.957
478.430	20.045	1695.362	1650.421
479.445	20.028	1694.564	1649.286
480.460	20.142	1693.207	1648.857
481.474	20.207	1691.878	1647.991
482.489	20.130	1690.825	1646.028
483.503	19.962	1688.829	1642.286
484.518	19.895	1687.413	1640.077
485.533	20.085	1685.314	1639.652
486.547	19.782	1684.307	1635.587
487.562	19.597	1683.117	1632.479
488.576	19.723	1681.821	1632.230
489.591	19.932	1680.626	1632.857
490.606	19.944	1679.433	1631.615
491.620	20.037	1677.053	1629.987
492.635	20.047	1674.803	1627.694
493.649	19.826	1673.923	1624.560
494.664	20.029	1674.128	1626.485
495.679	20.232	1672.995	1627.102
496.693	20.227	1671.246	1625.160
497.708	20.200	1669.458	1622.971
498.722	20.011	1668.924	1620.481
499.737	19.904	1668.303	1618.677
500.752	20.057	1666.400	1618.075
501.766	20.232	1664.651	1617.824
502.781	20.177	1663.130	1615.630
503.795	20.189	1661.714	1614.182
504.810	20.179	1660.760	1612.968
505.825	20.008	1660.519	1610.941
506.839	20.002	1658.627	1608.857
507.854	20.052	1657.456	1607.989
508.868	19.941	1655.688	1605.048
509.883	19.967	1655.101	1604.534
510.898	19.710	1654.057	1600.931
511.912	19.731	1652.012	1598.959
512.927	19.815	1649.918	1597.518
513.941	19.843	1648.776	1596.484
514.956	19.961	1647.647	1596.289
515.971	19.914	1646.340	1594.399
516.985	19.863	1645.075	1592.509
518.000	19.857	1644.714	1591.920
519.014	19.678	1643.289	1588.693
520.029	19.635	1641.814	1586.676
521.043	19.678	1640.543	1585.654
522.058	19.731	1639.528	1584.972
523.073	19.909	1637.834	1584.786
524.087	19.798	1636.240	1582.037
525.102	19.769	1635.835	1581.191
526.116	20.086	1634.507	1582.624
527.131	20.175	1633.524	1582.295
528.146	20.012	1633.181	1580.286
529.160	19.893	1631.423	1577.303
530.175	19.773	1629.830	1574.476
531.189	19.810	1628.889	1573.714
532.204	19.744	1627.165	1571.264
533.219	19.802	1626.504	1570.960
534.233	20.030	1626.152	1572.518
535.248	19.869	1624.364	1569.135
536.262	19.674	1623.230	1566.075
537.277	19.630	1621.922	1564.225
538.292	19.562	1620.909	1562.438
539.306	19.693	1618.608	1561.227
540.321	19.611	1617.263	1558.999
541.335	19.662	1615.377	1557.450
542.350	19.687	1613.592	1555.773
543.365	19.517	1612.941	1553.418
544.379	19.767	1610.557	1553.198
545.394	19.476	1610.211	1550.053
546.408	19.755	1609.596	1551.787
547.423	19.976	1609.415	1553.425
548.438	19.941	1608.634	1552.167
549.452	19.862	1606.449	1549.166
550.467	19.860	1604.894	1547.460
551.481	19.947	1603.106	1546.330
552.496	19.724	1602.675	1543.731
553.511	19.593	1601.932	1541.648
554.525	19.639	1600.156	1540.169
555.540	19.578	1599.394	1538.704
556.554	19.545	1598.482	1537.348
557.569	19.550	1597.260	1536.033
558.583	19.779	1595.279	1535.987
559.598	19.885	1593.870	1535.395
560.613	19.653	1593.464	1532.755
561.627	19.707	1591.669	1531.321
562.642	19.397	1590.252	1527.017
563.656	19.340	1588.228	1524.387
564.671	19.266	1587.443	1522.797
565.686	19.316	1586.374	1522.030
566.700	19.510	1584.892	1522.144
567.715	19.457	1583.768	1520.417
568.729	19.545	1582.384	1519.683
569.744	19.640	1580.599	1518.624
570.759	19.479	1579.237	1515.711
571.773	19.493	1578.933	1515.363
572.788	19.335	1578.127	1513.018
573.802	19.492	1576.161	1512.329
574.817	19.354	1574.399	1509.245
575.832	19.293	1573.505	1507.676
576.846	19.344	1572.589	1507.064
577.861	19.418	1570.822	1505.833
578.875	19.579	1570.303	1506.572
579.890	19.481	1569.140	1504.414
580.905	19.412	1568.833	1503.336
581.919	19.417	1567.899	1502.305
582.934	19.489	1566.463	1501.382
583.948	19.274	1565.735	1498.624
584.963	19.379	1563.745	1497.453
585.978	19.542	1563.126	1498.110
586.992	19.534	1561.408	1496.212
588.007	19.289	1560.948	1493.453
589.021	19.418	1560.033	1493.523
590.036	19.411	1558.216	1491.547
591.051	19.519	1557.194	1491.332
592.065	19.294	1555.802	1487.864
593.080	19.237	1553.883	1485.357
594.094	19.430	1552.071	1485.116
595.109	19.526	1551.016	1484.763
596.123	19.656	1550.720	1485.421
597.138	19.450	1549.650	1482.439
598.153	19.517	1547.699	1480.974
599.167	19.529	1545.536	1478.833
600.182	19.596	1544.851	1478.574
601.196	19.398	1544.504	1476.361
602.211	19.382	1542.998	1474.607
603.226	19.360	1541.190	1472.512
604.240	19.315	1539.902	1470.725
605.255	19.297	1538.972	1469.504
606.269	19.310	1538.515	1469.007
607.284	19.232	1537.305	1467.002
608.299	19.267	1536.512	1466.373
609.313	19.433	1533.834	1465.055
610.328	19.554	1532.586	1464.722
611.342	19.356	1531.673	1461.990
612.357	19.315	1530.921	1460.745
613.372	19.231	1529.763	1458.749
614.386	19.167	1529.372	1457.657
615.401	19.321	1527.966	1457.451
616.415	19.223	1527.136	1455.655
617.430	19.070	1526.439	1453.516
618.445	19.264	1524.004	1452.666
619.459	19.076	1522.986	1449.930
620.474	19.367	1522.953	1452.188
621.488	19.411	1522.071	1451.548
622.503	19.456	1520.978	1450.713
623.518	19.206	1520.048	1447.540
624.532	19.062	1518.025	1444.227
625.547	19.037	1516.853	1442.730
626.561	18.913	1516.238	1440.926
627.576	18.938	1515.172	1439.951
628.591	19.186	1513.817	1440.577
629.605	19.289	1512.430	1439.949
630.620	19.216	1511.384	1438.170
631.634	19.326	1510.405	1437.984
632.649	19.295	1508.975	1436.189
633.663	19.106	1507.784	1433.300
634.678	18.877	1506.437	1429.937
635.693	19.006	1504.302	1428.817
636.707	19.020	1502.710	1427.254
637.722	18.966	1501.949	1425.910
638.736	19.022	1501.067	1425.367
639.751	19.086	1500.112	1424.820
640.766	19.214	1498.393	1424.078
641.780	19.207	1497.646	1423.146
642.795	19.338	1496.701	1423.159
643.809	19.284	1496.586	1422.429
644.824	19.365	1495.041	1421.467
645.839	19.296	1494.257	1419.983
646.853	19.113	1493.565	1417.637
647.868	19.304	1491.404	1416.996
648.882	19.271	1490.301	1415.507
649.897	19.276	1489.050	1414.187
650.912	19.318	1487.408	1412.805
651.926	19.239	1485.895	1410.549
652.941	19.345	1484.907	1410.316
653.955	19.370	1484.004	1409.491
654.970	19.351	1482.114	1407.371
655.985	19.347	1480.974	1406.087
656.999	19.410	1479.673	1405.206
658.014	19.260	1478.302	1402.506
659.028	19.081	1478.041	1400.626
660.043	19.176	1477.413	1400.641
661.058	19.261	1475.823	1399.660
662.072	19.184	1474.935	1398.016
663.087	19.139	1474.322	1396.901
664.101	19.253	1473.009	1396.421
665.116	19.337	1471.186	1395.209
666.131	19.283	1469.875	1393.357
667.145	19.251	1468.960	1392.068
668.160	19.097	1468.312	1390.039
669.174	19.148	1466.158	1388.243
670.189	19.314	1464.890	1388.224
671.204	19.144	1464.559	1386.362
672.218	19.102	1464.432	1385.739
673.233	19.064	1462.870	1383.788
674.247	19.021	1461.347	1381.831
675.262	19.119	1460.578	1381.732
676.276	19.048	1459.351	1379.837
677.291	19.110	1458.471	1379.337
678.306	19.210	1457.318	1378.883
679.320	19.263	1455.508	1377.435
680.335	19.107	1455.068	1375.598
681.349	19.111	1454.709	1375.124
682.364	18.989	1452.941	1372.315
683.379	19.077	1451.605	1371.594
684.393	18.946	1450.522	1369.356
685.408	18.960	1449.579	1368.412
686.422	19.089	1448.219	1367.995
687.437	18.814	1448.419	1365.824
688.452	18.796	1447.502	1364.650
689.466	18.826	1445.658	1362.987
690.481	18.909	1443.999	1361.921
691.495	19.020	1443.432	1362.107
692.510	19.104	1442.895	1362.111
693.525	19.173	1441.889	1361.545
694.539	18.970	1440.602	1358.556
695.554	18.926	1439.496	1356.995
696.568	18.847	1437.885	1354.691
697.583	18.864	1437.061	1353.886
698.598	18.866	1436.201	1352.934
699.612	18.828	1435.251	1351.576
700.627	18.883	1433.972	1350.641
701.641	18.911	1433.049	1349.834
702.656	19.008	1431.482	1348.959
703.671	18.953	1430.947	1347.864
704.685	18.970	1430.620	1347.528
705.700	19.131	1429.048	1347.147
706.714	19.084	1427.663	1345.312
707.729	19.121	1426.165	1344.028
708.744	19.145	1424.948	1342.908
709.758	19.032	1424.024	1340.996
710.773	19.068	1423.605	1340.724
711.787	19.110	1421.742	1339.136
712.802	19.229	1419.894	1338.165
713.816	19.094	1419.550	1336.625
714.831	19.042	1418.886	1335.432
715.846	19.078	1417.494	1334.245
716.860	19.054	1416.175	1332.656
717.875	19.137	1414.694	1331.750
718.889	19.169	1414.370	1331.536
719.904	19.042	1413.360	1329.439
720.919	18.985	1412.248	1327.789
721.933	18.891	1411.097	1325.822
722.948	18.971	1409.776	1325.039
723.962	18.902	1409.009	1323.628
724.977	19.011	1407.480	1322.871
725.992	18.950	1406.672	1321.487
727.006	18.945	1405.293	1319.995
728.021	18.951	1403.527	1318.222
729.035	18.957	1402.644	1317.282
730.050	18.960	1401.631	1316.196
731.065	18.956	1400.601	1315.038
732.079	18.994	1399.733	1314.356
733.094	18.939	1398.721	1312.829
734.108	19.123	1397.141	1312.600
735.123	19.004	1395.631	1310.114
736.138	18.956	1395.409	1309.383
737.152	18.930	1394.318	1308.002
738.167	19.035	1393.262	1307.660
739.181	18.813	1392.347	1304.943
740.196	18.990	1391.044	1304.921
741.211	18.904	1389.769	1302.910
742.225	18.997	1389.184	1302.911
743.240	18.969	1387.902	1301.341
744.254	18.835	1386.310	1298.674
745.269	18.782	1385.612	1297.461
746.284	18.713	1385.032	1296.242
747.298	18.947	1383.519	1296.447
748.313	18.786	1382.960	1294.549
749.327	18.890	1382.733	1294.968
750.342	19.176	1381.933	1296.228
751.356	19.166	1380.209	1294.381
752.371	19.087	1379.271	1292.746
753.386	18.876	1377.905	1289.718
754.400	18.787	1376.828	1287.889
755.415	18.952	1375.437	1287.673
756.429	18.958	1374.670	1286.848
757.444	18.995	1373.757	1286.120
758.459	18.810	1373.094	1283.956
759.473	18.978	1371.743	1283.798
760.488	18.926	1370.131	1281.743
761.502	18.881	1369.591	1280.749
762.517	18.941	1368.368	1279.903
763.532	19.012	1367.128	1279.118
764.546	19.128	1365.449	1278.262
765.561	19.089	1365.255	1277.632
766.575	19.036	1365.291	1277.120
767.590	19.226	1363.046	1276.279
768.605	19.054	1361.791	1273.674
769.619	18.909	1360.945	1271.650
770.634	19.053	1359.349	1271.079
771.648	18.944	1358.396	1269.224
772.663	19.022	1357.335	1268.663
773.678	18.912	1357.210	1267.579
774.692	18.842	1356.543	1266.287
775.707	18.818	1355.627	1265.101
776.721	18.995	1354.432	1265.139
777.736	18.980	1352.851	1263.400
778.751	18.962	1352.380	1262.681
779.765	18.918	1350.763	1260.691
780.780	18.845	1350.207	1259.483
781.794	18.725	1349.714	1257.993
782.809	18.812	1348.755	1257.586
783.824	18.752	1347.743	1256.049
784.838	18.820	1347.036	1255.742
785.853	18.970	1345.446	1255.212
786.867	18.862	1344.924	1253.782
787.882	18.715	1344.696	1252.341
788.897	18.774	1342.873	1250.927
789.911	18.857	1341.548	1250.148
790.926	18.778	1340.890	1248.805
791.940	18.851	1339.359	1247.763
792.955	18.699	1338.084	1245.317
793.969	18.715	1337.466	1244.712
794.984	18.753	1336.576	1244.009
795.999	18.792	1334.721	1242.421
797.013	18.949	1333.288	1242.079
798.028	18.848	1332.581	1240.540
799.042	18.868	1331.833	1239.840
800.057	18.927	1330.177	1238.573
801.072	18.842	1328.720	1236.456
802.086	18.858	1327.955	1235.708
803.101	18.835	1327.395	1234.874
804.115	19.016	1325.688	1234.447
805.130	18.905	1325.189	1233.036
806.145	18.990	1323.702	1232.116
807.159	19.018	1322.819	1231.347
808.174	19.067	1321.267	1230.106
809.188	18.939	1320.463	1228.293
810.203	18.913	1318.658	1226.282
811.218	18.969	1317.440	1225.399
812.232	18.965	1316.242	1224.109
813.247	18.989	1315.170	1223.137
814.261	18.900	1314.489	1221.726
815.276	18.992	1313.126	1220.968
816.291	18.829	1312.878	1219.428
817.305	18.858	1311.590	1218.292
818.320	18.860	1310.131	1216.809
819.334	18.794	1309.429	1215.540
820.349	18.778	1307.697	1213.671
821.364	18.857	1305.587	1212.129
822.378	18.956	1304.109	1211.314
823.393	18.850	1303.020	1209.408
824.407	18.816	1301.831	1207.914
825.422	18.841	1301.105	1207.277
826.437	18.796	1300.533	1206.281
827.451	18.728	1299.011	1204.246
828.466	18.751	1297.619	1202.974
829.480	18.919	1296.126	1202.627
830.495	18.820	1294.613	1200.385
831.509	18.584	1294.164	1198.164
832.524	18.773	1293.397	1198.637
833.539	18.641	1292.477	1196.719
834.553	18.706	1291.285	1195.929
835.568	18.705	1289.971	1194.562
836.582	18.738	1288.868	1193.626
837.597	18.831	1287.812	1193.151
838.612	18.936	1285.686	1191.770
839.626	19.098	1284.514	1191.675
840.641	18.883	1283.977	1189.533
841.655	19.136	1283.396	1190.615
842.670	18.963	1282.728	1188.651
843.685	19.128	1281.548	1188.557
844.699	19.120	1279.890	1186.826
845.714	19.112	1278.350	1185.199
846.728	19.016	1277.643	1183.737
847.743	18.911	1276.759	1182.052
848.758	18.840	1275.198	1179.971
849.772	18.954	1273.953	1179.468
850.787	18.950	1272.272	1177.744
851.801	18.709	1271.765	1175.472
852.816	18.757	1270.417	1174.417
853.831	18.649	1269.015	1172.238
854.845	18.730	1267.037	1170.826
855.860	18.809	1265.697	1169.991
856.874	18.784	1264.573	1168.636
857.889	18.796	1263.308	1167.410
858.904	18.781	1262.361	1166.297
859.918	18.917	1260.847	1165.681
860.933	18.842	1259.955	1164.211
861.947	18.879	1258.856	1163.305
862.962	18.812	1257.503	1161.460
863.977	18.790	1256.771	1160.495
864.991	18.757	1255.816	1159.251
866.006	18.847	1255.555	1159.484
867.020	18.818	1254.163	1157.859
868.035	18.878	1252.785	1156.857
869.049	18.933	1251.937	1156.304
870.064	18.867	1251.286	1155.124
871.079	19.004	1250.411	1155.100
872.093	18.897	1249.574	1153.464
873.108	19.064	1248.868	1153.802
874.122	19.000	1247.793	1152.240
875.137	19.080	1247.024	1151.933
876.152	19.115	1246.776	1151.795
877.166	18.930	1245.200	1148.960
878.181	18.905	1243.488	1147.079
879.195	19.077	1242.283	1146.980
880.210	18.877	1241.693	1144.962
881.225	18.866	1240.461	1143.615
882.239	18.935	1239.281	1142.849
883.254	18.863	1238.855	1141.840
884.268	19.056	1237.654	1141.880
885.283	19.098	1236.411	1140.880
886.298	18.876	1234.963	1137.931
887.312	18.925	1234.200	1137.419
888.327	18.970	1232.938	1136.414
889.341	19.033	1231.702	1135.559
890.356	18.796	1231.561	1133.718
891.371	18.828	1231.204	1133.469
892.385	18.742	1230.200	1131.836
893.400	19.012	1229.041	1132.425
894.414	19.061	1227.725	1131.402
895.429	19.016	1225.772	1129.165
896.444	19.203	1224.788	1129.358
897.458	19.260	1223.664	1128.559
898.473	19.157	1222.644	1126.809
899.487	19.072	1221.908	1125.436
900.502	19.080	1220.538	1124.092
901.517	19.012	1219.886	1122.909
902.531	19.074	1219.071	1122.432
903.546	18.928	1218.205	1120.547
904.560	18.923	1217.664	1119.878
905.575	18.970	1216.835	1119.289
906.589	19.160	1216.102	1119.723
907.604	19.029	1215.296	1117.996
