DTS Sentinel unit serial number:	SN409020Multiplexer serial number:	ORYXHardware model number:	OX4-SRSoftware version number:	ORYX F/W v3.00 Oryx Data Collector v3.7.2.0data status	okinstallation	HaddamTimeLapsedifferential loss correction	single-endedforward channel	channel 3reverse channel	N/Adate	2011/06/21time	23:41:16forward acquisition time	30.00reverse acquisition time	0.00gamma	498.7831k internal	0.1753k external	0.1753temperature offset calibration	1.0074default loss term (dB/km)	0.3790temperature slope calibration	1.3530multiplexer offset coefficient	1.0000multiplexer slope coefficient	1.0000fibre end	0.00T internal ref (°C)	23.12T ext. ref 1 (°C)	18.39T ext. ref 2 (°C)	0.05length (m)	temperature (°C)	Stokes	anti-Stokes-747.200	-36.891	-0.217	0.154
-746.185	-53.857	-0.420	0.253
-745.171	382.915	0.154	0.421
-744.156	165.171	0.146	0.274
-743.142	-61.897	-0.319	-0.177
-742.127	45.864	0.158	0.194
-741.112	-82.511	0.243	0.104
-740.098	-200.000	0.081	0.618
-739.083	-176.439	-0.236	-0.008
-738.069	-134.755	0.397	0.063
-737.054	75.770	-0.272	0.382
-736.039	-89.281	-0.317	0.123
-735.025	-38.983	-0.107	0.074
-734.010	112.591	0.190	0.306
-732.996	102.719	0.179	-0.279
-731.981	46.816	-0.147	-0.182
-730.966	674.084	-0.131	0.452
-729.952	18.970	-0.261	-0.278
-728.937	176.411	0.066	0.128
-727.923	-97.772	-0.432	-0.147
-726.908	-125.725	-0.405	-0.081
-725.894	-52.889	0.121	-0.074
-724.879	-182.555	-0.218	0.005
-723.864	71.208	-0.172	0.237
-722.850	-200.000	0.035	0.285
-721.835	474.593	0.012	0.036
-720.821	-200.000	-0.066	0.509
-719.806	-4.018	-0.333	0.306
-718.791	-200.000	-0.008	-0.192
-717.777	59.483	0.224	-0.293
-716.762	-163.469	-0.177	0.011
-715.748	-200.000	0.023	-0.169
-714.733	-42.208	0.204	-0.138
-713.718	-200.000	-0.028	-0.230
-712.704	-105.290	0.416	-0.125
-711.689	-129.736	-0.234	-0.042
-710.675	-123.665	0.238	0.050
-709.660	800.000	-0.052	0.236
-708.645	-72.477	-0.313	0.153
-707.631	-103.975	0.499	-0.153
-706.616	120.368	-0.507	-0.837
-705.602	-200.000	-0.032	-0.376
-704.587	175.716	-0.141	-0.272
-703.572	-68.802	0.340	-0.174
-702.558	154.304	-0.086	0.158
-701.543	289.693	-0.050	0.122
-700.529	87.716	-0.355	-0.522
-699.514	416.440	-0.074	0.210
-698.499	800.000	0.128	0.504
-697.485	-184.794	0.151	-0.003
-696.470	-126.471	-0.542	0.106
-695.456	800.000	-0.032	-0.148
-694.441	-11.772	-0.232	0.201
-693.426	-140.649	-0.227	0.031
-692.412	-200.000	-0.052	-0.475
-691.397	-125.371	-0.525	-0.105
-690.383	259.116	-0.137	-0.313
-689.368	-100.950	-0.475	-0.154
-688.354	358.744	-0.046	-0.121
-687.339	-120.050	-0.623	0.140
-686.324	614.855	0.074	0.246
-685.310	-116.694	-0.418	-0.101
-684.295	-200.000	0.065	0.400
-683.281	-122.329	0.432	0.093
-682.266	-100.580	0.428	0.139
-681.251	-25.366	0.280	-0.219
-680.237	2.707	0.278	-0.267
-679.222	143.162	-0.096	-0.169
-678.208	-145.546	0.361	-0.042
-677.193	391.445	-0.154	-0.425
-676.178	209.193	-0.277	-0.575
-675.164	62.762	-0.197	0.260
-674.149	412.845	-0.024	-0.066
-673.135	16.091	0.302	0.315
-672.120	-200.000	-0.036	-0.271
-671.105	-13.534	-0.266	-0.228
-670.091	-71.138	-0.330	0.163
-669.076	-33.815	-0.150	-0.109
-668.062	-41.544	-0.350	-0.238
-667.047	-77.619	0.221	-0.101
-666.032	-149.150	-0.068	-0.007
-665.018	-11.452	-0.230	-0.200
-664.003	-44.521	0.264	0.174
-662.989	-98.941	0.269	-0.090
-661.974	8.604	-0.446	0.444
-660.959	-172.797	-0.593	0.024
-659.945	3.670	0.277	0.267
-658.930	248.327	0.036	-0.082
-657.916	800.000	0.017	-0.072
-656.901	-5.404	0.207	0.188
-655.886	24.580	0.189	0.207
-654.872	-17.715	-0.367	0.304
-653.857	116.202	0.268	0.434
-652.843	18.032	0.221	0.233
-651.828	103.563	0.193	0.300
-650.814	-174.925	0.099	-0.004
-649.799	-83.717	0.192	0.081
-648.784	133.236	0.011	0.018
-647.770	-0.864	-0.356	-0.333
-646.755	-83.573	-0.235	-0.099
-645.741	-152.481	-0.247	-0.023
-644.726	-87.199	-0.295	0.118
-643.711	-108.080	-0.485	-0.138
-642.697	-26.601	0.059	-0.046
-641.682	-64.823	-0.108	-0.057
-640.668	13.671	0.158	0.162
-639.653	-103.476	0.224	0.069
-638.638	48.858	0.211	-0.261
-637.624	-31.084	0.270	-0.201
-636.609	-74.923	0.110	0.052
-635.595	15.095	0.307	-0.318
-634.580	-200.000	-0.007	-0.195
-633.565	-153.837	-0.440	0.039
-632.551	800.000	0.060	-0.287
-631.536	800.000	0.071	-0.297
-630.522	-186.198	-0.201	0.004
-629.507	-25.035	-0.178	0.140
-628.492	573.945	-0.115	0.374
-627.478	71.676	0.145	-0.199
-626.463	-130.825	0.579	0.102
-625.449	-14.708	-0.140	0.119
-624.434	-103.207	0.080	-0.025
-623.419	800.000	0.122	0.665
-622.405	-21.208	0.138	0.112
-621.390	-150.205	0.200	-0.020
-620.376	159.479	-0.134	-0.248
-619.361	-132.114	-0.362	-0.062
-618.346	1.684	-0.247	0.235
-617.332	-26.928	-0.610	-0.470
-616.317	110.284	-0.116	0.184
-615.303	-69.062	0.085	0.043
-614.288	800.000	-0.023	-0.131
-613.273	527.314	-0.197	0.616
-612.259	-75.422	0.269	-0.126
-611.244	-127.919	0.081	-0.015
-610.230	-17.129	-0.369	0.307
-609.215	482.179	0.020	0.059
-608.201	-146.025	-0.181	0.021
-607.186	-49.400	0.303	-0.190
-606.171	100.610	-0.185	-0.284
-605.157	33.343	0.386	0.443
-604.142	28.770	-0.159	0.178
-603.128	83.567	0.238	-0.343
-602.113	411.548	0.097	0.274
-601.098	106.735	-0.171	0.268
-600.084	115.811	-0.105	0.170
-599.069	13.895	-0.214	0.220
-598.055	141.223	-0.176	-0.308
-597.040	-148.285	-0.093	-0.010
-596.025	800.000	0.075	0.297
-595.011	36.372	-0.294	0.343
-593.996	10.173	-0.299	-0.300
-592.982	83.028	0.142	-0.204
-591.967	192.450	0.099	0.198
-590.952	-79.272	0.195	0.087
-589.938	62.527	-0.229	-0.302
-588.923	170.793	0.139	-0.263
-587.909	-57.633	-0.289	0.166
-586.894	-21.502	-0.306	-0.246
-585.879	-109.386	0.495	0.137
-584.865	-11.825	-0.248	0.214
-583.850	604.499	0.222	0.733
-582.836	-153.965	-0.472	-0.042
-581.821	-102.561	-0.275	-0.086
-580.806	-127.693	0.408	-0.077
-579.792	800.000	0.034	-0.157
-578.777	-29.832	0.348	-0.261
-577.763	-6.700	-0.307	-0.275
-576.748	-129.624	-0.152	-0.027
-575.733	204.766	0.046	0.094
-574.719	33.302	-0.221	-0.253
-573.704	-61.604	-0.353	-0.195
-572.690	800.000	0.097	0.487
-571.675	-200.000	0.002	-0.222
-570.661	-22.087	-0.435	0.348
-569.646	800.000	-0.021	0.121
-568.631	-200.000	-0.333	-0.002
-567.617	-138.327	-0.364	-0.052
-566.602	386.926	0.089	0.244
-565.588	-49.330	-0.133	0.083
-564.573	61.726	-0.230	0.302
-563.558	-64.244	-0.087	-0.046
-562.544	211.715	-0.101	0.210
-561.529	171.092	0.187	-0.355
-560.515	86.980	0.052	0.076
-559.500	-200.000	-0.030	0.237
-558.485	-6.242	-0.124	-0.111
-557.471	-200.000	0.020	0.328
-556.456	-42.679	-0.570	0.381
-555.442	-200.000	-0.039	-0.243
-554.427	-182.481	-0.233	0.006
-553.412	-200.000	-0.025	-0.194
-552.398	256.968	0.193	0.439
-551.383	-74.974	0.294	0.138
-550.369	-44.992	0.112	0.073
-549.354	-41.454	-0.062	-0.042
-548.339	100.489	-0.254	0.389
-547.325	-200.000	-0.105	-0.614
-546.310	-200.000	-0.051	-0.316
-545.296	-40.242	-0.322	0.220
-544.281	73.590	0.160	0.221
-543.266	800.000	-0.029	-0.163
-542.252	-200.000	-0.050	0.360
-541.237	-200.000	-0.010	-0.358
-540.223	-160.793	-0.359	0.025
-539.208	-152.772	0.330	-0.030
-538.193	-77.323	-0.072	-0.033
-537.179	77.570	0.117	0.164
-536.164	-47.165	0.274	-0.176
-535.150	210.522	-0.088	-0.182
-534.135	183.960	0.213	-0.416
-533.121	-99.151	0.386	-0.128
-532.106	24.109	-0.246	-0.267
-531.091	-187.204	-0.244	-0.004
-530.077	-21.472	0.206	0.165
-529.062	-81.386	0.355	-0.153
-528.048	53.218	0.202	-0.255
-527.033	-100.313	0.243	-0.079
-526.018	-123.958	0.127	-0.026
-525.004	456.901	-0.074	-0.217
-523.989	-122.314	0.480	0.102
-522.975	-121.218	-0.136	0.030
-521.960	-108.943	-0.175	0.049
-520.945	-120.359	0.453	-0.101
-519.931	-200.000	0.140	0.875
-518.916	13.422	-0.231	-0.235
-517.902	266.026	0.010	0.024
-516.887	366.174	0.129	0.343
-515.872	63.536	-0.211	0.278
-514.858	-200.000	0.005	-0.038
-513.843	448.692	0.129	0.374
-512.829	212.454	-0.115	0.240
-511.814	434.835	0.045	0.128
-510.799	-138.778	-0.220	-0.031
-509.785	-133.881	-0.259	0.042
-508.770	39.390	0.200	-0.236
-507.756	-81.122	0.530	0.229
-506.741	-72.140	0.327	-0.159
-505.726	12.733	-0.281	-0.285
-504.712	183.136	-0.098	-0.191
-503.697	-122.237	-0.327	0.070
-502.683	-49.253	0.467	-0.292
-501.668	-90.888	0.792	0.298
-500.653	-48.470	-0.184	0.116
-499.639	749.258	0.130	-0.463
-498.624	-196.451	-0.548	-0.005
-497.610	60.951	-0.243	0.317
-496.595	189.437	-0.119	0.235
-495.581	143.803	-0.113	0.198
-494.566	-9.466	-0.095	-0.083
-493.551	800.000	0.016	0.080
-492.537	216.691	-0.186	0.391
-491.522	-68.338	0.613	-0.312
-490.508	-31.227	0.205	-0.151
-489.493	-159.249	-0.191	-0.014
-488.478	429.993	0.202	-0.576
-487.464	479.119	0.070	-0.210
-486.449	82.727	0.137	-0.196
-485.435	84.385	-0.218	0.314
-484.420	-90.997	0.257	0.096
-483.405	-3.724	-0.416	-0.380
-482.391	-183.562	0.193	0.004
-481.376	-88.948	0.374	-0.145
-480.362	-62.338	-0.229	0.125
-479.347	-200.000	0.047	-0.342
-478.332	-87.986	0.360	0.141
-477.318	-162.411	-0.404	-0.026
-476.303	-200.000	-0.025	0.446
-475.289	-200.000	0.012	-0.182
-474.274	-128.877	0.333	-0.061
-473.259	-200.000	0.035	0.264
-472.245	106.661	0.276	-0.431
-471.230	-200.000	0.000	0.082
-470.216	-140.460	-0.420	0.057
-469.201	-200.000	0.076	-0.569
-468.186	-142.571	0.357	-0.045
-467.172	-200.000	-0.042	-0.273
-466.157	-76.779	0.389	0.178
-465.143	-8.878	-0.036	-0.031
-464.128	681.924	0.081	-0.278
-463.113	-85.757	0.190	0.077
-462.099	-44.589	-0.522	-0.342
-461.084	-133.062	-0.201	-0.033
-460.070	426.206	-0.210	-0.596
-459.055	51.675	-0.167	0.209
-458.040	-200.000	0.028	0.420
-457.026	-159.496	0.155	0.011
-456.011	232.529	0.054	-0.117
-454.997	-158.788	-0.606	-0.045
-453.982	-200.000	-0.005	0.144
-452.968	800.000	0.078	0.298
-451.953	-26.568	-0.137	0.105
-450.938	800.000	-0.084	-0.346
-449.924	10.316	-0.014	-0.014
-448.909	-117.652	-0.190	0.045
-447.895	-120.902	-0.171	0.038
-446.880	-100.636	0.124	-0.040
-445.865	0.143	0.432	0.404
-444.851	526.708	0.084	-0.261
-443.836	349.573	0.086	-0.224
-442.822	-200.000	-0.036	0.414
-441.807	-200.000	0.056	-0.500
-440.792	77.013	0.037	-0.051
-439.778	-75.793	0.066	0.031
-438.763	-200.000	0.020	0.307
-437.749	800.000	-0.118	0.492
-436.734	-121.079	-0.566	-0.123
-435.719	34.960	0.192	0.220
-434.705	16.110	-0.019	0.020
-433.690	-116.862	-0.280	0.067
-432.676	74.288	-0.112	-0.154
-431.661	76.536	-0.040	-0.056
-430.646	-72.914	0.406	0.195
-429.632	-106.115	-0.368	0.108
-428.617	-113.547	-0.281	0.071
-427.603	-169.386	-0.240	-0.011
-426.588	140.784	0.090	0.157
-425.573	52.195	-0.127	0.159
-424.559	-100.720	0.253	0.081
-423.544	4.778	-0.216	0.208
-422.530	800.000	0.135	-0.554
-421.515	335.596	-0.211	0.539
-420.500	467.897	0.128	-0.377
-419.486	-91.707	0.431	0.160
-418.471	-70.361	-0.220	0.109
-417.457	800.000	0.086	0.321
-416.442	-101.182	0.124	0.039
-415.428	-131.415	0.221	-0.038
-414.413	-18.990	-0.270	0.220
-413.398	209.049	0.229	0.471
-412.384	-62.816	-0.278	0.150
-411.369	-114.990	-0.191	0.047
-410.355	800.000	-0.097	-0.373
-409.340	91.524	-0.203	0.299
-408.325	-153.883	0.165	0.015
-407.311	529.358	0.111	0.346
-406.296	-74.870	-0.165	0.077
-405.282	-68.992	0.347	0.175
-404.267	-100.189	-0.147	0.048
-403.252	116.970	0.119	0.192
-402.238	-134.495	-0.092	-0.015
-401.223	-200.000	-0.060	0.418
-400.209	-200.000	0.006	-0.351
-399.194	-200.000	0.008	-0.320
-398.179	-135.303	-0.084	-0.013
-397.165	277.509	-0.078	-0.183
-396.150	94.324	-0.216	0.321
-395.136	-81.904	0.289	-0.123
-394.121	-29.561	-0.513	-0.383
-393.106	-91.560	-0.345	-0.128
-392.092	-200.000	0.049	-0.282
-391.077	128.511	-0.143	-0.239
-390.063	-200.000	-0.043	-0.529
-389.048	57.509	0.080	0.103
-388.033	800.000	-0.083	0.406
-387.019	297.017	0.179	-0.431
-386.004	331.556	-0.067	0.171
-384.990	-4.709	-0.283	0.255
-383.975	-147.256	0.475	0.052
-382.960	-97.775	0.457	-0.154
-381.946	-108.321	0.282	-0.079
-380.931	-33.809	0.298	0.214
-379.917	800.000	-0.105	0.586
-378.902	-200.000	0.097	-0.576
-377.888	77.346	-0.255	-0.356
-376.873	-200.000	0.059	-0.369
-375.858	57.369	0.298	0.382
-374.844	-40.304	-0.240	-0.163
-373.829	-200.000	0.002	-0.423
-372.815	-46.631	0.241	0.154
-371.800	42.036	0.262	-0.311
-370.785	-109.774	0.361	0.099
-369.771	113.504	0.030	-0.048
-368.756	-200.000	0.008	0.090
-367.742	90.659	-0.183	-0.269
-366.727	-93.684	-0.308	-0.111
-365.712	-27.905	0.206	0.156
-364.698	176.070	0.244	0.465
-363.683	-76.805	-0.159	0.072
-362.669	-200.000	-0.032	-0.364
-361.654	-162.661	-0.473	0.030
-360.639	552.312	0.162	0.511
-359.625	141.397	0.189	0.327
-358.610	-102.370	0.382	-0.119
-357.596	-200.000	0.014	0.345
-356.581	-82.230	-0.187	-0.079
-355.566	-94.027	0.378	-0.135
-354.552	-200.000	0.051	0.300
-353.537	-74.331	-0.123	-0.058
-352.523	-93.232	0.380	-0.137
-351.508	1.029	-0.179	0.168
-350.493	282.020	-0.181	-0.426
-349.479	-200.000	0.008	-0.380
-348.464	800.000	-0.055	0.225
-347.450	-112.165	-0.459	-0.120
-346.435	-200.000	0.070	0.633
-345.420	49.169	-0.083	-0.102
-344.406	113.651	0.063	-0.099
-343.391	-58.430	0.034	0.019
-342.377	208.920	0.247	0.507
-341.362	-117.635	0.442	0.103
-340.348	-111.636	-0.381	0.100
-339.333	169.348	0.112	-0.209
-338.318	-124.455	-0.398	-0.080
-337.304	-148.831	-0.302	-0.032
-336.289	800.000	0.084	-0.321
-335.275	-200.000	-0.007	-0.241
-334.260	-169.454	0.343	-0.016
-333.245	9.297	0.075	-0.074
-332.231	-80.835	-0.210	-0.091
-331.216	3.172	0.349	-0.331
-330.202	219.432	-0.035	-0.074
-329.187	-4.127	0.377	0.341
-328.172	-26.724	-0.042	0.032
-327.158	-92.041	0.323	-0.118
-326.143	-98.014	0.161	0.054
-325.129	64.286	-0.215	-0.283
-324.114	-23.208	0.546	-0.429
-323.099	800.000	-0.072	-0.268
-322.085	-125.561	0.055	-0.011
-321.070	-109.750	-0.648	-0.176
-320.056	-110.754	-0.274	0.073
-319.041	5.864	0.189	-0.183
-318.026	140.600	0.074	-0.127
-317.012	308.784	-0.067	-0.165
-315.997	-1.065	0.288	0.265
-314.983	309.537	0.128	0.314
-313.968	223.756	0.098	-0.206
-312.953	37.414	-0.262	-0.303
-311.939	-133.056	-0.385	-0.063
-310.924	280.127	0.125	-0.293
-309.910	-200.000	-0.004	0.058
-308.895	-200.000	-0.009	-0.155
-307.880	800.000	0.134	-0.565
-306.866	800.000	-0.095	-0.368
-305.851	800.000	-0.040	-0.166
-304.837	-5.239	0.326	-0.292
-303.822	-164.693	-0.290	-0.017
-302.807	-113.762	0.538	-0.136
-301.793	196.762	0.047	-0.094
-300.778	5.424	0.237	-0.228
-299.764	-107.421	0.104	0.029
-298.749	-42.175	-0.106	-0.071
-297.735	-42.495	0.357	0.237
-296.720	85.417	0.205	0.295
-295.705	-10.979	-0.487	-0.418
-294.691	35.497	0.097	0.111
-293.676	31.360	0.214	0.240
-292.662	-144.379	0.291	0.035
-291.647	-126.982	0.179	-0.034
-290.632	-200.000	0.013	0.163
-289.618	800.000	0.097	0.537
-288.603	105.921	-0.222	0.344
-287.589	173.318	-0.124	0.233
-286.574	470.921	0.110	-0.324
-285.559	-93.046	0.186	-0.067
-284.545	-141.813	0.363	0.047
-283.530	800.000	0.034	-0.166
-282.516	-28.169	-0.445	0.335
-281.501	-179.993	0.514	-0.014
-280.486	192.984	0.289	0.571
-279.472	-68.244	0.557	-0.281
-278.457	-164.903	-0.199	-0.011
-277.443	-77.659	-0.506	0.227
-276.428	692.014	0.128	0.441
-275.413	-200.000	0.013	-0.226
-274.399	-200.000	0.030	0.510
-273.384	406.505	0.085	0.234
-272.370	726.954	0.095	0.334
-271.355	-100.823	0.345	-0.110
-270.340	72.488	0.115	0.156
-269.326	-53.979	-0.615	0.364
-268.311	-106.719	-0.841	-0.242
-267.297	14.703	0.188	0.191
-266.282	76.548	0.130	-0.180
-265.267	126.615	0.117	0.193
-264.253	3.062	0.219	-0.207
-263.238	15.893	-0.105	0.108
-262.224	-121.224	0.328	0.071
-261.209	-94.975	-0.390	-0.137
-260.195	37.899	0.274	0.317
-259.180	-200.000	0.021	0.271
-258.165	576.470	-0.055	-0.175
-257.151	-95.237	-0.428	-0.149
-256.136	-80.146	-0.131	0.057
-255.122	690.134	0.079	-0.271
-254.107	-200.000	0.032	0.307
-253.092	800.000	0.066	0.377
-252.078	-200.000	0.005	0.030
-251.063	-166.263	0.213	0.012
-250.049	-143.859	-0.467	-0.057
-249.034	-75.806	-0.621	-0.285
-248.019	194.798	-0.140	-0.277
-247.005	-100.216	-0.326	-0.105
-245.990	-139.718	-0.405	-0.055
-244.976	800.000	-0.039	-0.158
-243.961	-200.000	-0.024	-0.207
-242.946	70.846	-0.088	-0.119
-241.932	-32.120	0.222	0.161
-240.917	-5.558	0.431	0.385
-239.903	441.928	0.074	-0.211
-238.888	-17.677	0.026	-0.021
-237.873	128.502	-0.203	-0.336
-236.859	257.992	0.115	0.259
-235.844	-71.968	-0.280	-0.135
-234.830	-200.000	-0.044	0.430
-233.815	-170.711	0.460	-0.020
-232.800	122.813	-0.291	-0.475
-231.786	233.047	-0.123	-0.264
-230.771	800.000	0.132	-0.625
-229.757	-200.000	0.000	-0.458
-228.742	-200.000	-0.028	-0.469
-227.727	13.829	-0.209	-0.211
-226.713	17.233	0.131	0.136
-225.698	185.678	-0.231	0.447
-224.684	435.921	0.204	0.581
-223.669	381.416	0.140	0.374
-222.655	89.548	0.175	0.254
-221.640	-125.103	-0.266	0.053
-220.625	162.857	-0.262	-0.479
-219.611	755.093	0.222	-0.786
-218.596	-83.232	-0.380	0.158
-217.582	800.000	0.057	-0.204
-216.567	109.927	-0.203	0.318
-215.552	-48.322	-0.201	-0.126
-214.538	45.701	0.285	-0.342
-213.523	444.200	0.117	-0.336
-212.509	-12.353	0.336	0.285
-211.494	-71.583	0.243	0.117
-210.479	-52.960	0.118	-0.070
-209.465	-4.470	0.162	-0.145
-208.450	-15.271	-0.241	0.200
-207.436	-200.000	0.050	0.000
-206.421	-183.516	0.337	0.007
-205.406	800.000	-0.069	0.369
-204.392	-200.000	-0.024	-0.183
-203.377	-152.461	0.809	0.075
-202.363	-183.667	-0.310	-0.007
-201.348	-20.595	0.074	0.059
-200.333	800.000	0.176	-0.828
-199.319	-200.000	-0.023	-0.316
-198.304	-100.683	-0.085	-0.027
-197.290	-43.093	0.256	-0.168
-196.275	231.572	-0.089	-0.189
-195.260	100.699	-0.019	-0.029
-194.246	-168.457	0.158	-0.008
-193.231	-151.674	0.306	-0.029
-192.217	73.470	0.279	0.379
-191.202	-14.453	-0.200	0.167
-190.187	800.000	0.090	-0.392
-189.173	12.172	0.358	-0.358
-188.158	231.280	0.168	-0.358
-187.144	-55.005	0.164	-0.096
-186.129	60.837	0.185	0.239
-185.114	-77.613	0.057	0.025
-184.100	72.310	0.227	0.308
-183.085	-110.820	0.371	0.099
-182.071	18.313	-0.312	0.323
-181.056	-200.000	0.009	0.390
-180.042	-12.980	-0.209	-0.176
-179.027	-34.527	-0.060	-0.043
-178.012	-11.635	-0.237	-0.202
-176.998	-68.747	0.303	-0.151
-175.983	-18.438	-0.267	-0.216
-174.969	-83.051	0.318	0.132
-173.954	-200.000	-0.043	0.396
-172.939	210.515	0.212	0.434
-171.925	-60.828	-0.260	-0.142
-170.910	-126.313	0.376	0.072
-169.896	800.000	0.068	0.335
-168.881	-51.097	0.051	-0.031
-167.866	-161.626	-0.448	-0.029
-166.852	-119.166	-0.119	-0.027
-165.837	46.108	-0.063	0.076
-164.823	-73.317	-0.391	0.185
-163.808	-42.331	0.312	0.206
-162.793	-44.413	0.364	0.236
-161.779	-118.477	-0.355	-0.081
-160.764	800.000	-0.102	0.396
-159.750	242.864	-0.165	-0.360
-158.735	-28.170	-0.206	-0.154
-157.720	-145.765	-0.368	-0.042
-156.706	66.155	0.303	0.399
-155.691	-17.043	-0.411	0.336
-154.677	313.038	0.095	-0.232
-153.662	-44.575	0.159	0.103
-152.647	-57.435	-0.194	0.110
-151.633	57.060	-0.108	-0.137
-150.618	-62.052	-0.134	0.072
-149.604	67.722	-0.227	0.302
-148.589	-32.488	0.128	0.092
-147.574	119.060	0.107	-0.171
-146.560	-154.547	-0.126	-0.011
-145.545	-200.000	-0.026	0.309
-144.531	37.096	-0.159	0.183
-143.516	-102.184	-0.180	0.056
-142.502	-200.000	-0.010	-0.343
-141.487	81.245	0.112	0.157
-140.472	-149.509	-0.243	-0.025
-139.458	-76.304	-0.408	-0.185
-138.443	-130.885	-0.276	0.047
-137.429	-200.000	0.005	-0.241
-136.414	800.000	0.075	0.423
-135.399	-72.582	-0.254	-0.121
-134.385	800.000	0.038	-0.178
-133.370	-109.696	0.244	-0.066
-132.356	111.202	0.130	-0.203
-131.341	800.000	-0.059	0.276
-130.326	-36.400	0.500	-0.348
-129.312	800.000	-0.026	0.117
-128.297	32.087	0.248	0.277
-127.283	-200.000	-0.016	-0.340
-126.268	-200.000	-0.027	-0.228
-125.253	343.688	-0.143	0.365
-124.239	9.645	-0.081	-0.080
-123.224	1.457	0.176	-0.164
-122.210	641.682	0.119	-0.394
-121.195	-48.471	0.655	-0.407
-120.180	-63.615	-0.366	-0.194
-119.166	-18.227	-0.334	0.270
-118.151	252.120	-0.148	-0.328
-117.137	-200.000	0.035	0.288
-116.122	-135.092	-0.101	-0.016
-115.107	-120.249	-0.233	-0.051
-114.093	-84.984	0.337	-0.136
-113.078	-59.822	-0.175	0.097
-112.064	-147.235	-0.223	0.024
-111.049	-200.000	-0.198	0.000
-110.034	-118.294	0.224	-0.051
-109.020	390.750	-0.180	-0.485
-108.005	-138.061	-0.125	0.018
-106.991	-200.000	0.031	-0.359
-105.976	800.000	-0.040	-0.165
-104.962	410.924	0.142	0.393
-103.947	733.946	-0.097	0.339
-102.932	106.858	-0.122	-0.188
-101.918	503.680	-0.128	0.386
-100.903	-32.619	0.352	0.253
-99.889	-30.824	-0.283	-0.206
-98.874	800.000	-0.058	-0.231
-97.859	89.669	0.096	0.139
-96.845	-120.743	0.169	-0.037
-95.830	65.766	-0.102	-0.133
-94.816	65.202	0.165	-0.216
-93.801	-106.205	0.424	0.122
-92.786	251.928	-0.149	-0.329
-91.772	137.363	-0.206	0.349
-90.757	-38.814	0.289	-0.197
-89.743	36.267	0.089	-0.102
-88.728	-79.469	-0.604	-0.263
-87.713	581.933	0.074	0.237
-86.699	33.587	-0.106	0.119
-85.684	644.276	-0.040	-0.134
-84.670	-200.000	0.019	-0.150
-83.655	433.426	0.222	-0.626
-82.640	-123.475	-0.371	-0.076
-81.626	161.721	-0.074	-0.134
-80.611	-104.788	0.642	0.190
-79.597	-149.087	0.223	0.023
-78.582	61.551	0.060	0.078
-77.567	217.522	-0.183	-0.378
-76.553	-139.366	-0.230	0.032
-75.538	-24.264	-0.224	-0.173
-74.524	-57.681	0.214	-0.121
-73.509	133.817	-0.217	-0.364
-72.494	48.878	0.244	-0.296
-71.480	-117.703	-0.237	0.055
-70.465	136.598	0.042	-0.072
-69.451	-23.463	0.404	0.313
-68.436	-200.000	-0.024	0.274
-67.422	283.834	0.142	-0.331
-66.407	800.000	0.120	0.438
-65.392	-124.540	-0.356	-0.071
-64.378	64.809	-0.206	0.269
-63.363	-188.351	-0.242	-0.004
-62.349	-47.015	0.361	0.227
-61.334	16.386	-2.297	-2.342
-60.319	-15.885	1.350	1.109
-59.305	279.674	-3.195	-7.399
-58.290	37.852	4.247	4.877
-57.276	424.117	3.622	10.112
-56.261	-200.000	22.359	318.208
-55.246	359.128	1295.844	3361.325
-54.232	52.920	2844.204	3516.974
-53.217	51.440	2663.168	3270.099
-52.203	32.416	2391.490	2668.485
-51.188	28.315	2058.194	2246.061
-50.173	24.925	1944.203	2082.038
-49.159	23.840	1933.097	2057.440
-48.144	23.497	1927.388	2047.303
-47.130	23.437	1925.522	2044.548
-46.115	23.418	1922.822	2041.374
-45.100	23.327	1922.358	2039.754
-44.086	23.337	1920.870	2038.210
-43.071	23.229	1919.293	2035.201
-42.057	23.350	1917.285	2034.393
-41.042	23.264	1917.106	2033.127
-40.027	23.317	1915.043	2031.471
-39.013	23.454	1912.589	2030.366
-37.998	23.281	1912.325	2028.013
-36.984	23.363	1910.559	2027.001
-35.969	23.175	1909.796	2023.955
-34.954	23.278	1908.422	2023.594
-33.940	23.267	1907.509	2022.424
-32.925	23.246	1906.005	2020.501
-31.911	23.321	1904.088	2019.256
-30.896	23.134	1903.182	2016.072
-29.881	23.337	1901.000	2015.997
-28.867	23.189	1900.079	2013.255
-27.852	23.183	1898.979	2011.942
-26.838	23.144	1897.937	2010.313
-25.823	23.060	1897.159	2008.443
-24.809	23.086	1895.422	2006.823
-23.794	23.245	1894.072	2007.128
-22.779	23.285	1891.182	2004.443
-21.765	23.125	1890.911	2002.250
-20.750	23.165	1889.406	2001.037
-19.736	22.922	1889.920	1998.738
-18.721	23.005	1888.032	1997.602
-17.706	23.015	1887.349	1996.920
-16.692	22.940	1886.200	1994.765
-15.677	23.152	1884.198	1994.975
-14.663	23.069	1882.188	1991.824
-13.648	22.975	1881.152	1989.594
-12.633	23.122	1879.572	1989.499
-11.619	23.035	1878.844	1987.673
-10.604	23.043	1876.840	1985.562
-9.590	23.118	1875.964	1985.404
-8.575	22.975	1875.780	1983.515
-7.560	22.937	1874.339	1981.482
-6.546	22.899	1873.443	1980.030
-5.531	22.922	1872.163	1978.859
-4.517	22.890	1870.931	1977.120
-3.502	22.937	1870.119	1976.708
-2.487	23.204	1867.918	1977.298
-1.473	23.042	1865.390	1972.731
-0.458	22.846	1845.980	1949.953
0.556	19.325	1992.122	2050.012
1.571	17.896	2195.098	2239.778
2.586	18.733	2234.117	2290.550
3.600	18.736	2236.484	2292.742
4.615	18.692	2235.987	2291.365
5.629	18.664	2233.096	2287.761
6.644	18.600	2231.565	2285.058
7.659	18.632	2230.310	2283.926
8.673	18.742	2227.539	2282.282
9.688	18.493	2236.137	2287.482
10.702	17.627	2317.670	2358.563
11.717	15.883	2380.405	2397.164
12.731	7.306	2361.052	2255.174
13.746	0.970	2344.091	2148.544
14.761	0.050	2340.681	2132.069
15.775	0.062	2338.579	2130.058
16.790	-0.073	2337.645	2127.036
17.804	-0.015	2335.059	2125.255
18.819	-0.078	2334.905	2123.958
19.834	0.011	2333.112	2123.349
20.848	-0.060	2331.805	2120.887
21.863	-0.118	2331.594	2119.628
22.877	-0.018	2327.959	2117.482
23.892	0.027	2325.578	2115.693
24.907	-0.014	2323.509	2112.985
25.921	-0.002	2322.189	2111.695
26.936	0.118	2318.932	2110.180
27.950	0.079	2315.768	2106.495
28.965	0.038	2314.270	2104.299
29.980	0.013	2313.226	2102.746
30.994	0.040	2311.211	2101.046
32.009	3.859	2322.035	2164.439
33.023	12.994	2349.453	2319.285
34.038	17.094	2355.526	2382.971
35.053	17.124	2352.852	2380.401
36.067	16.895	2349.277	2373.277
37.082	16.998	2346.840	2371.984
38.096	16.874	2345.910	2369.013
39.111	17.075	2343.766	2369.380
40.126	17.240	2342.129	2369.764
41.140	17.269	2341.005	2368.739
42.155	17.415	2338.379	2367.851
43.169	17.355	2337.118	2365.453
44.184	17.084	2333.504	2357.725
45.199	17.067	2332.453	2356.148
46.213	17.212	2330.460	2355.870
47.228	17.336	2329.869	2356.722
48.242	17.359	2328.104	2354.969
49.257	17.446	2326.310	2354.081
50.271	17.561	2323.324	2352.380
51.286	17.334	2320.387	2345.977
52.301	16.950	2318.895	2338.864
53.315	17.806	2322.578	2354.170
54.330	20.831	2330.119	2403.560
55.344	22.692	2331.677	2430.687
56.359	22.802	2328.836	2428.956
57.374	23.011	2327.718	2430.386
58.388	23.116	2325.272	2428.991
59.403	22.989	2320.563	2422.034
60.417	22.551	2317.786	2412.817
61.432	22.625	2316.559	2412.263
62.447	22.877	2314.706	2413.509
63.461	23.016	2313.668	2414.054
64.476	23.101	2311.679	2412.853
65.490	22.813	2309.113	2405.937
66.505	21.890	2305.869	2389.642
67.520	19.841	2297.907	2353.116
68.534	17.768	2288.626	2315.082
69.549	17.073	2283.803	2300.461
70.563	17.033	2282.239	2298.059
71.578	17.146	2280.128	2297.198
72.593	17.031	2278.583	2293.798
73.607	17.201	2277.675	2294.924
74.622	17.201	2275.047	2291.996
75.636	17.063	2272.217	2287.002
76.651	17.157	2269.984	2285.754
77.666	17.082	2268.356	2282.826
78.680	17.062	2265.935	2279.852
79.695	17.057	2262.790	2276.352
80.709	16.832	2262.679	2272.931
81.724	16.762	2260.442	2269.471
82.739	16.827	2257.933	2267.547
83.753	16.840	2256.358	2265.866
84.768	16.805	2254.741	2263.504
85.782	16.907	2253.195	2263.058
86.797	16.839	2251.312	2259.983
87.812	16.932	2249.964	2259.599
88.826	17.039	2247.795	2258.582
89.841	17.090	2244.892	2256.079
90.855	16.978	2242.406	2251.809
91.870	17.055	2241.189	2251.348
92.884	17.092	2240.181	2250.556
93.899	17.003	2238.226	2247.137
94.914	17.793	2241.508	2260.689
95.928	20.079	2249.486	2298.996
96.943	20.990	2246.636	2307.932
97.957	18.608	2236.575	2265.733
98.972	17.031	2231.522	2239.438
99.987	17.011	2227.482	2234.860
101.001	16.946	2224.996	2231.233
102.016	16.984	2222.744	2229.209
103.030	16.983	2220.107	2226.290
104.045	17.027	2218.152	2224.635
105.060	17.024	2216.221	2222.399
106.074	17.016	2214.683	2220.488
107.089	17.035	2213.156	2218.941
108.103	16.848	2212.465	2215.523
109.118	16.934	2210.949	2214.866
110.133	17.191	2208.820	2215.838
111.147	17.042	2205.778	2210.573
112.162	16.935	2204.913	2208.032
113.176	17.038	2202.733	2206.944
114.191	17.115	2201.362	2206.301
115.206	17.158	2199.354	2204.586
116.220	17.082	2197.321	2201.301
117.235	17.092	2195.290	2199.135
118.249	17.146	2193.429	2197.704
119.264	17.095	2192.314	2195.660
120.279	17.015	2191.044	2193.083
121.293	16.960	2189.245	2190.315
122.308	17.079	2187.761	2190.108
123.322	16.980	2186.015	2186.811
124.337	17.503	2187.360	2194.681
125.352	20.141	2195.473	2236.817
126.366	20.936	2193.456	2244.785
127.381	18.265	2183.061	2199.422
128.395	17.167	2177.802	2179.713
129.410	17.112	2174.584	2175.519
130.424	17.002	2173.940	2173.195
131.439	16.985	2172.111	2170.888
132.454	17.103	2170.719	2170.755
133.468	17.264	2168.757	2170.602
134.483	17.325	2167.469	2169.826
135.497	17.300	2166.329	2168.117
136.512	17.201	2163.455	2163.710
137.527	17.182	2160.853	2160.602
138.541	16.928	2159.689	2155.935
139.556	16.879	2159.400	2154.766
140.570	17.023	2157.940	2154.889
141.585	16.905	2155.225	2150.409
142.600	16.853	2153.732	2148.008
143.614	16.853	2151.839	2145.859
144.629	16.851	2149.553	2143.298
145.643	16.895	2148.904	2142.952
146.658	16.880	2147.113	2140.719
147.673	16.781	2145.559	2137.662
148.687	16.995	2143.660	2138.225
149.702	17.057	2143.044	2138.138
150.716	17.035	2142.197	2136.751
151.731	17.098	2141.048	2136.148
152.746	17.133	2139.954	2135.249
153.760	17.896	2142.697	2147.382
154.775	20.538	2150.239	2188.153
155.789	21.283	2148.693	2195.734
156.804	18.826	2137.393	2153.012
157.819	17.204	2130.694	2125.620
158.833	17.014	2127.687	2119.992
159.848	16.992	2125.370	2117.148
160.862	17.161	2123.984	2117.630
161.877	17.102	2123.281	2115.934
162.892	17.097	2122.636	2114.983
163.906	17.185	2120.469	2113.667
164.921	17.182	2118.586	2111.505
165.935	16.980	2117.858	2108.004
166.950	17.047	2116.443	2107.169
167.964	17.312	2112.334	2106.128
168.979	17.078	2111.354	2101.988
169.994	16.940	2109.514	2098.186
171.008	17.031	2107.098	2096.668
172.023	17.042	2105.899	2095.356
173.037	16.992	2105.503	2094.090
174.052	17.169	2103.548	2094.088
175.067	17.057	2102.285	2091.199
176.081	17.006	2100.459	2088.499
177.096	17.163	2099.396	2089.134
178.110	17.225	2098.547	2088.809
179.125	17.197	2097.227	2086.895
180.140	17.135	2096.324	2084.980
181.154	17.213	2094.362	2083.746
182.169	17.333	2093.773	2084.384
183.183	18.069	2096.382	2095.812
184.198	21.000	2103.137	2138.497
185.213	21.552	2100.523	2142.380
186.227	18.699	2089.762	2096.175
187.242	17.400	2086.604	2076.825
188.256	17.143	2084.767	2071.602
189.271	17.091	2081.624	2067.597
190.286	16.986	2080.961	2065.402
191.300	17.045	2078.655	2063.588
192.315	17.098	2077.536	2062.871
193.329	17.285	2075.842	2063.224
194.344	17.375	2074.797	2063.044
195.359	17.474	2073.512	2062.723
196.373	17.336	2071.015	2058.309
197.388	17.146	2068.182	2052.940
198.402	17.011	2066.540	2049.431
199.417	17.043	2063.697	2046.755
200.432	16.991	2063.205	2045.391
201.446	17.058	2062.362	2045.114
202.461	16.893	2060.785	2041.318
203.475	16.996	2058.502	2040.054
204.490	17.116	2055.739	2038.520
205.504	16.908	2053.692	2033.734
206.519	17.010	2052.378	2033.422
207.534	17.003	2050.759	2031.494
208.548	16.916	2049.335	2028.790
209.563	17.189	2047.806	2030.308
210.577	17.163	2047.472	2029.420
211.592	17.164	2047.292	2029.015
212.607	18.484	2052.102	2049.421
213.621	21.767	2058.409	2094.974
214.636	21.203	2052.344	2081.802
215.650	18.167	2043.052	2035.856
216.665	17.363	2039.608	2022.563
217.680	17.231	2037.416	2018.581
218.694	17.056	2035.561	2014.409
219.709	16.986	2033.668	2011.460
220.723	17.122	2033.043	2012.223
221.738	17.165	2031.301	2010.772
222.753	17.241	2029.626	2009.773
223.767	17.307	2027.560	2008.278
224.782	17.195	2026.231	2005.386
225.796	17.210	2023.947	2003.059
226.811	17.136	2023.350	2001.356
227.826	17.217	2022.582	2001.318
228.840	17.218	2020.162	1998.691
229.855	17.130	2018.615	1995.889
230.869	17.140	2017.351	1994.519
231.884	17.145	2015.723	1992.730
232.899	17.063	2014.465	1990.274
233.913	17.153	2013.032	1989.678
234.928	17.195	2011.207	1988.131
235.942	17.040	2009.305	1984.196
236.957	17.089	2008.328	1983.565
237.972	17.044	2008.333	1982.801
238.986	17.024	2006.243	1980.269
240.001	17.003	2003.903	1977.482
241.015	17.086	2003.454	1977.766
242.030	17.848	2006.224	1989.203
243.045	20.406	2011.445	2024.141
244.059	20.880	2007.976	2025.950
245.074	18.147	1999.458	1985.273
246.088	17.349	1994.969	1971.274
247.103	17.505	1993.997	1971.898
248.117	17.374	1992.229	1968.395
249.132	17.234	1990.472	1964.791
250.147	17.249	1988.097	1962.390
251.161	17.252	1986.973	1961.083
252.176	17.380	1986.105	1961.471
253.190	17.580	1984.317	1961.789
254.205	17.641	1982.712	1960.667
255.220	17.469	1981.606	1957.351
256.234	17.396	1980.829	1955.509
257.249	17.350	1979.028	1952.961
258.263	17.344	1977.878	1951.524
259.278	17.248	1976.654	1948.978
260.293	17.238	1975.001	1946.999
261.307	17.105	1972.512	1942.786
262.322	16.975	1971.050	1939.619
263.336	16.900	1969.343	1936.847
264.351	16.966	1967.099	1935.165
265.366	16.865	1965.980	1932.674
266.380	16.934	1964.689	1931.957
267.395	16.940	1964.311	1931.426
268.409	16.925	1962.304	1929.053
269.424	16.943	1960.322	1927.073
270.439	17.041	1960.044	1927.691
271.453	18.054	1961.945	1940.900
272.468	20.927	1967.348	1978.847
273.482	20.916	1964.418	1975.542
274.497	18.202	1954.503	1934.523
275.512	17.137	1950.197	1917.949
276.526	17.088	1948.433	1915.426
277.541	17.025	1946.332	1912.423
278.555	16.992	1945.091	1910.599
279.570	16.856	1943.411	1907.179
280.585	17.054	1942.162	1907.963
281.599	17.075	1940.860	1906.697
282.614	17.147	1939.728	1906.168
283.628	17.380	1939.753	1908.593
284.643	17.501	1937.994	1907.992
285.657	17.585	1937.189	1907.918
286.672	17.730	1934.677	1906.851
287.687	17.568	1934.421	1904.550
288.701	17.463	1933.269	1902.005
289.716	17.450	1931.365	1899.757
290.730	17.642	1929.336	1899.682
291.745	17.660	1927.524	1897.883
292.760	17.661	1926.757	1896.912
293.774	17.460	1926.772	1894.445
294.789	17.416	1924.719	1891.708
295.803	17.274	1922.379	1887.595
296.818	17.153	1921.383	1885.040
297.833	17.268	1919.794	1884.544
298.847	17.166	1918.204	1881.614
299.862	17.237	1916.608	1880.613
300.876	17.853	1919.183	1889.771
301.891	21.033	1924.680	1930.394
302.906	21.352	1922.369	1931.390
303.920	18.300	1913.761	1888.722
304.935	17.306	1909.880	1873.654
305.949	17.264	1907.357	1870.495
306.964	17.190	1905.827	1867.955
307.979	17.241	1904.493	1866.986
308.993	17.350	1903.896	1867.381
310.008	17.622	1902.643	1868.931
311.022	17.657	1900.758	1867.236
312.037	17.567	1898.908	1864.204
313.052	17.563	1896.699	1861.773
314.066	17.552	1896.116	1860.856
315.081	17.590	1895.458	1860.397
316.095	17.505	1893.370	1857.192
317.110	17.354	1891.611	1853.590
318.125	17.200	1890.482	1850.577
319.139	17.262	1889.290	1849.875
320.154	17.439	1887.180	1849.513
321.168	17.317	1886.227	1847.027
322.183	17.237	1884.472	1844.219
323.197	17.167	1882.485	1841.291
324.212	17.046	1880.686	1837.993
325.227	17.113	1879.168	1837.021
326.241	16.962	1877.898	1833.918
327.256	16.992	1876.749	1832.899
328.270	17.151	1875.028	1832.729
329.285	17.052	1875.729	1832.113
330.300	17.996	1879.945	1846.273
331.314	21.217	1885.826	1886.871
332.329	21.120	1880.199	1879.962
333.343	18.149	1871.548	1839.026
334.358	17.085	1867.270	1823.115
335.373	17.028	1865.451	1820.507
336.387	16.913	1863.567	1817.210
337.402	17.031	1861.742	1816.487
338.416	17.061	1861.173	1816.035
339.431	17.114	1859.608	1814.862
340.446	17.057	1858.019	1812.476
341.460	17.131	1857.336	1812.393
342.475	17.449	1856.090	1814.367
343.489	17.487	1854.279	1812.785
344.504	17.453	1853.538	1811.482
345.519	17.565	1851.989	1810.951
346.533	17.672	1850.880	1810.786
347.548	17.739	1849.745	1810.182
348.562	17.562	1848.231	1806.597
349.577	17.673	1847.367	1806.717
350.592	17.812	1845.640	1806.284
351.606	17.737	1845.188	1804.829
352.621	17.769	1843.540	1803.341
353.635	17.390	1841.501	1797.109
354.650	17.317	1839.530	1794.193
355.665	17.286	1837.531	1791.702
356.679	17.184	1836.696	1789.593
357.694	17.212	1834.999	1788.025
358.708	17.161	1834.076	1786.367
359.723	18.459	1837.459	1803.186
360.738	21.452	1843.468	1840.577
361.752	20.891	1838.274	1829.249
362.767	18.200	1829.567	1792.076
363.781	17.390	1826.248	1780.088
364.796	17.200	1824.969	1776.635
365.810	17.209	1823.261	1774.854
366.825	17.227	1822.492	1774.083
367.840	17.338	1821.509	1774.077
368.854	17.256	1820.839	1772.347
369.869	17.155	1819.706	1769.980
370.883	17.229	1818.356	1769.231
371.898	17.374	1817.088	1769.294
372.913	17.317	1815.594	1767.037
373.927	17.335	1815.304	1766.735
374.942	17.521	1813.876	1767.070
375.956	17.496	1811.686	1764.466
376.971	17.418	1809.612	1761.419
377.986	17.298	1808.587	1758.962
379.000	17.262	1807.206	1757.040
380.015	17.339	1805.497	1755.961
381.029	17.268	1803.177	1752.767
382.044	16.975	1802.295	1748.663
383.059	17.045	1800.120	1747.065
384.073	17.069	1799.131	1746.147
385.088	17.047	1798.767	1745.352
386.102	16.969	1797.287	1742.899
387.117	16.960	1794.881	1740.273
388.132	17.040	1794.645	1740.659
389.146	17.992	1799.338	1754.833
390.161	21.124	1804.457	1791.996
391.175	20.931	1796.841	1782.236
392.190	17.952	1787.761	1742.509
393.205	17.153	1785.073	1731.492
394.219	17.052	1783.464	1728.694
395.234	17.000	1782.070	1726.603
396.248	17.062	1779.905	1724.931
397.263	17.021	1777.909	1722.376
398.278	17.118	1776.968	1722.239
399.292	17.077	1776.106	1720.780
400.307	17.054	1775.374	1719.633
401.321	17.064	1774.411	1718.601
402.336	17.275	1772.063	1718.260
403.350	17.357	1770.559	1717.431
404.365	17.398	1769.639	1716.752
405.380	17.510	1769.141	1717.191
406.394	17.657	1769.136	1718.473
407.409	18.400	1768.350	1725.026
408.423	18.093	1766.127	1719.550
409.438	17.656	1763.955	1712.812
410.453	17.458	1762.529	1709.227
411.467	17.556	1762.979	1710.453
412.482	17.477	1760.404	1706.954
413.496	17.268	1758.994	1703.274
414.511	17.257	1757.469	1701.485
415.526	17.210	1754.272	1697.708
416.540	17.130	1753.164	1695.631
417.555	17.171	1752.109	1694.816
418.569	17.348	1752.830	1697.094
419.584	17.400	1752.234	1696.828
420.599	17.446	1751.190	1696.079
421.613	17.319	1749.359	1692.834
422.628	17.185	1748.961	1690.898
423.642	17.062	1746.956	1687.536
424.657	17.165	1745.736	1687.185
425.672	17.200	1744.666	1686.291
426.686	17.311	1743.289	1685.870
427.701	17.029	1742.147	1681.749
428.715	17.236	1739.980	1681.514
429.730	17.360	1739.006	1681.611
430.745	17.428	1737.596	1680.721
431.759	17.309	1737.578	1679.314
432.774	17.681	1737.371	1682.608
433.788	18.288	1737.508	1688.558
434.803	18.497	1736.462	1689.412
435.818	18.315	1735.810	1686.771
436.832	18.235	1735.710	1685.678
437.847	17.298	1728.849	1669.571
438.861	9.627	1707.921	1574.095
439.876	1.742	1692.998	1483.186
440.890	0.377	1689.560	1466.654
441.905	0.207	1688.749	1464.120
442.920	0.149	1687.730	1462.488
443.934	0.171	1686.967	1461.868
444.949	0.151	1684.914	1459.720
445.963	0.020	1685.237	1458.545
446.978	0.098	1683.994	1458.053
447.993	0.006	1682.559	1455.741
449.007	0.007	1680.317	1453.642
450.022	0.174	1678.063	1453.139
451.036	0.172	1676.890	1451.924
452.051	1.046	1681.423	1464.168
453.066	8.739	1698.183	1553.841
454.080	16.545	1710.441	1641.286
455.095	18.168	1713.535	1659.913
456.109	18.849	1712.920	1665.751
457.124	18.923	1712.710	1666.068
458.139	19.110	1712.375	1667.368
459.153	19.335	1710.682	1667.700
460.168	19.229	1709.205	1665.035
461.182	19.135	1707.277	1662.042
462.197	19.228	1704.873	1660.405
463.212	19.000	1703.219	1656.393
464.226	19.002	1702.807	1655.815
465.241	19.310	1701.329	1657.150
466.255	19.345	1701.239	1657.204
467.270	19.327	1699.719	1655.353
468.285	19.119	1697.983	1651.463
469.299	19.088	1696.417	1649.438
470.314	19.060	1695.177	1647.766
471.328	19.126	1693.643	1646.708
472.343	19.235	1692.799	1646.739
473.358	19.098	1692.376	1644.814
474.372	19.329	1690.237	1644.761
475.387	18.956	1689.309	1640.080
476.401	18.880	1687.855	1637.744
477.416	19.032	1685.751	1636.959
478.430	19.144	1684.694	1636.815
479.445	18.950	1683.713	1633.810
480.460	18.886	1681.855	1631.203
481.474	18.949	1681.342	1631.109
482.489	19.211	1680.348	1632.446
483.503	19.402	1678.812	1632.577
484.518	19.425	1677.656	1631.471
485.533	19.311	1676.798	1629.359
486.547	19.305	1675.110	1627.473
487.562	19.590	1675.186	1630.056
488.576	19.483	1673.516	1627.217
489.591	19.423	1672.030	1625.014
490.606	19.406	1669.777	1622.461
491.620	19.417	1668.543	1621.171
492.635	19.446	1667.929	1620.661
493.649	19.816	1666.482	1622.545
494.664	19.362	1664.612	1616.257
495.679	19.033	1662.214	1610.643
496.693	19.051	1661.332	1609.760
497.708	19.284	1660.996	1611.434
498.722	19.611	1660.104	1613.442
499.737	19.576	1658.487	1611.351
500.752	19.321	1657.225	1607.543
501.766	19.174	1655.682	1604.478
502.781	19.249	1654.338	1603.682
503.795	19.335	1652.583	1602.598
504.810	19.463	1651.936	1602.972
505.825	19.622	1651.590	1603.927
506.839	19.505	1650.399	1601.491
507.854	19.349	1648.888	1598.373
508.868	19.564	1646.774	1598.135
509.883	19.624	1645.947	1597.702
510.898	19.698	1645.237	1597.504
511.912	19.511	1643.724	1594.115
512.927	19.424	1641.088	1590.556
513.941	19.286	1640.260	1588.287
514.956	19.298	1638.429	1586.434
515.971	19.329	1636.936	1585.084
516.985	19.271	1637.235	1584.648
518.000	19.448	1636.355	1585.242
519.014	19.692	1634.978	1585.975
520.029	19.674	1633.781	1584.456
521.043	19.642	1632.468	1582.694
522.058	19.743	1630.690	1581.708
523.073	19.733	1629.912	1580.671
524.087	19.922	1630.253	1582.553
525.102	20.006	1627.963	1580.915
526.116	19.525	1626.270	1574.667
527.131	19.460	1625.736	1573.369
528.146	19.780	1625.622	1576.004
529.160	19.863	1623.648	1574.657
530.175	19.905	1622.710	1573.948
531.189	19.990	1621.640	1573.494
532.204	20.015	1620.386	1572.320
533.219	19.745	1618.400	1567.740
534.233	19.434	1617.857	1564.191
535.248	19.706	1617.091	1565.743
536.262	19.966	1616.559	1567.410
537.277	19.870	1614.820	1564.657
538.292	19.798	1611.928	1561.023
539.306	19.732	1610.876	1559.212
540.321	19.683	1610.195	1557.921
541.335	19.681	1608.807	1556.374
542.350	19.839	1607.212	1556.077
543.365	19.895	1606.073	1555.296
544.379	19.981	1604.718	1554.569
545.394	20.149	1603.412	1554.634
546.408	19.717	1601.960	1549.150
547.423	19.539	1599.863	1545.331
548.438	19.567	1598.468	1544.056
549.452	19.733	1597.763	1544.683
550.467	19.766	1597.575	1544.613
551.481	19.691	1597.031	1543.225
552.496	19.906	1596.216	1544.178
553.511	20.226	1595.640	1546.305
554.525	20.182	1593.897	1544.038
555.540	20.178	1593.404	1543.343
556.554	20.291	1592.604	1543.390
557.569	20.072	1591.019	1539.713
558.583	20.051	1588.666	1537.063
559.598	20.073	1587.274	1535.727
560.613	20.077	1587.023	1535.340
561.627	20.094	1585.168	1533.515
562.642	20.080	1584.637	1532.695
563.656	20.282	1583.215	1532.927
564.671	20.362	1582.040	1532.317
565.686	20.341	1580.704	1530.650
566.700	20.222	1578.590	1527.371
567.715	19.934	1576.966	1523.070
568.729	19.750	1575.673	1520.012
569.744	19.660	1573.270	1516.720
570.759	19.628	1572.855	1515.850
571.773	19.833	1571.919	1516.577
572.788	19.819	1571.563	1515.931
573.802	20.034	1570.173	1516.301
574.817	20.163	1569.105	1516.222
575.832	20.424	1568.205	1517.464
576.846	20.284	1567.316	1515.187
577.861	20.100	1565.352	1511.492
578.875	20.284	1565.381	1512.956
579.890	20.408	1564.224	1512.739
580.905	20.409	1562.859	1511.246
581.919	20.590	1562.490	1512.299
582.934	20.720	1560.984	1511.793
583.948	20.710	1560.114	1510.679
584.963	20.490	1559.122	1507.621
585.978	20.201	1557.235	1503.100
586.992	20.275	1556.681	1503.027
588.007	20.560	1555.420	1504.107
589.021	20.114	1553.238	1497.943
590.036	19.813	1551.822	1493.785
591.051	19.966	1551.625	1494.745
592.065	20.359	1549.658	1496.080
593.080	20.545	1548.541	1496.432
594.094	20.389	1546.854	1493.273
595.109	20.180	1544.451	1488.972
596.123	19.858	1543.453	1485.052
597.138	20.185	1543.633	1487.873
598.153	20.354	1542.695	1488.246
599.167	20.195	1541.612	1485.655
600.182	20.492	1540.093	1486.562
601.196	20.565	1538.879	1485.841
602.211	20.442	1538.462	1484.205
603.226	20.670	1537.166	1484.732
604.240	20.655	1535.695	1483.006
605.255	20.832	1534.922	1483.601
606.269	20.667	1534.320	1481.426
607.284	20.533	1533.163	1478.987
608.299	20.619	1531.171	1477.618
609.313	20.589	1529.922	1475.985
610.328	20.617	1528.949	1475.109
611.342	20.796	1526.987	1474.562
612.357	20.837	1526.763	1474.516
613.372	20.883	1525.993	1473.984
614.386	20.686	1525.228	1471.395
615.401	20.719	1524.873	1471.163
616.415	20.633	1524.179	1469.583
617.430	20.838	1522.595	1469.620
618.445	20.867	1521.410	1468.544
619.459	20.650	1520.022	1465.195
620.474	20.409	1518.314	1461.329
621.488	19.996	1515.969	1455.412
622.503	19.913	1514.108	1452.748
623.518	20.312	1514.695	1456.505
624.532	20.608	1513.939	1458.098
625.547	20.780	1512.870	1458.346
626.561	21.047	1512.430	1459.992
627.576	20.996	1511.388	1458.384
628.591	20.505	1509.447	1452.213
629.605	20.198	1507.703	1447.790
630.620	20.197	1506.027	1445.992
631.634	20.045	1504.313	1442.904
632.649	20.074	1503.947	1442.621
633.663	20.341	1503.643	1444.392
634.678	20.633	1502.819	1445.869
635.693	21.013	1501.334	1447.440
636.707	20.929	1500.530	1445.792
637.722	21.255	1498.985	1446.837
638.736	21.220	1498.030	1445.454
639.751	21.203	1497.508	1444.634
640.766	21.192	1496.230	1443.138
641.780	21.153	1494.791	1441.253
642.795	21.087	1493.535	1439.322
643.809	21.118	1492.497	1438.405
644.824	21.047	1492.203	1437.363
645.839	20.891	1491.426	1435.154
646.853	21.012	1489.980	1434.594
647.868	20.932	1488.554	1432.384
648.882	20.936	1487.253	1430.994
649.897	20.950	1485.389	1429.144
650.912	20.886	1484.581	1427.669
651.926	20.859	1482.922	1425.684
652.941	20.624	1481.369	1422.082
653.955	20.370	1479.038	1417.593
654.970	20.080	1477.782	1413.839
655.985	20.222	1475.725	1412.870
656.999	20.249	1475.507	1412.712
658.014	20.444	1474.271	1412.951
659.028	20.652	1473.382	1413.630
660.043	20.768	1472.776	1413.826
661.058	20.907	1471.973	1414.021
662.072	21.073	1471.109	1414.371
663.087	20.978	1470.173	1412.529
664.101	20.978	1469.334	1411.559
665.116	20.952	1468.438	1410.319
666.131	21.106	1467.596	1410.589
667.145	21.173	1465.777	1409.213
668.160	21.143	1465.445	1408.482
669.174	21.354	1464.699	1409.311
670.189	21.458	1462.740	1408.099
671.204	21.149	1462.017	1404.738
672.218	21.251	1461.025	1404.440
673.233	21.310	1459.960	1403.723
674.247	21.531	1459.559	1404.953
675.262	21.537	1458.240	1403.558
676.276	21.495	1456.815	1401.680
677.291	21.488	1455.650	1400.342
678.306	21.238	1454.755	1397.300
679.320	21.218	1453.388	1395.656
680.335	21.453	1453.044	1397.053
681.349	21.532	1452.566	1397.058
682.364	21.443	1450.913	1394.583
683.379	21.372	1449.101	1392.108
684.393	21.308	1448.165	1390.528
685.408	21.467	1447.267	1390.775
686.422	21.288	1446.049	1388.010
687.437	21.371	1445.555	1388.030
688.452	21.595	1445.478	1389.572
689.466	21.531	1443.286	1386.791
690.481	21.302	1441.782	1383.363
691.495	20.862	1440.868	1378.818
692.510	20.353	1438.632	1372.465
693.525	20.312	1436.673	1370.112
694.539	20.379	1436.671	1370.475
695.554	21.020	1436.846	1375.566
696.568	21.331	1436.622	1377.645
697.583	21.442	1435.820	1377.590
698.598	21.492	1434.645	1376.699
699.612	21.611	1433.660	1376.525
700.627	21.674	1431.796	1375.072
701.641	21.554	1430.866	1373.065
702.656	21.471	1430.461	1371.856
703.671	21.585	1430.585	1372.708
704.685	21.735	1428.999	1372.203
705.700	21.703	1427.464	1370.313
706.714	21.514	1425.662	1366.940
707.729	21.291	1424.541	1363.950
708.744	21.214	1422.690	1361.414
709.758	21.131	1421.247	1359.217
710.773	20.802	1419.842	1355.137
711.787	20.958	1417.273	1353.741
712.802	20.987	1416.752	1353.311
713.816	21.114	1416.596	1353.988
714.831	21.293	1416.778	1355.396
715.846	21.504	1415.823	1355.965
716.860	21.525	1414.210	1354.416
717.875	21.631	1412.958	1353.882
718.889	21.395	1412.566	1351.510
719.904	21.595	1410.883	1351.293
720.919	21.664	1410.027	1350.848
721.933	21.751	1409.808	1351.145
722.948	21.695	1409.191	1349.964
723.962	21.698	1407.523	1348.221
724.977	21.899	1406.497	1348.632
725.992	21.887	1405.312	1347.247
727.006	21.842	1404.001	1345.475
728.021	21.852	1402.807	1344.248
729.035	21.843	1402.248	1343.487
730.050	21.790	1400.654	1341.385
731.065	21.954	1399.140	1341.037
732.079	21.879	1398.744	1339.924
733.094	21.848	1397.328	1338.170
734.108	21.778	1395.709	1335.918
735.123	21.601	1395.170	1333.889
736.138	21.669	1393.753	1332.894
737.152	21.819	1393.355	1333.504
738.167	21.861	1391.993	1332.360
739.181	21.945	1391.077	1331.965
740.196	21.906	1390.546	1330.996
741.211	21.913	1389.591	1329.977
742.225	21.828	1388.666	1328.289
743.240	21.875	1386.991	1326.885
744.254	21.954	1385.689	1326.082
745.269	21.882	1384.806	1324.532
746.284	21.780	1384.137	1322.959
747.298	21.611	1382.921	1320.358
748.313	21.214	1380.408	1314.794
749.327	20.822	1379.352	1310.667
750.342	20.445	1378.057	1306.427
751.356	20.369	1376.604	1304.322
752.371	20.519	1376.629	1305.324
753.386	21.219	1376.545	1310.368
754.400	21.699	1376.302	1313.596
755.415	22.016	1375.309	1314.876
756.429	22.079	1373.420	1313.387
757.444	21.788	1372.336	1310.007
758.459	22.043	1372.226	1311.665
759.473	22.157	1370.506	1310.719
760.488	22.157	1369.211	1309.323
761.502	22.011	1368.754	1307.634
762.517	21.942	1366.549	1304.857
763.532	21.873	1364.652	1302.373
764.546	21.410	1364.106	1298.243
765.561	21.162	1363.280	1295.453
766.575	20.858	1360.920	1290.791
767.590	20.865	1359.465	1289.303
768.605	21.092	1359.339	1290.722
769.619	21.494	1358.773	1293.014
770.634	21.677	1357.787	1293.283
771.648	21.979	1357.770	1295.348
772.663	22.042	1358.084	1295.963
773.678	21.995	1356.947	1294.373
774.692	22.038	1355.795	1293.441
775.707	22.019	1355.250	1292.620
776.721	22.227	1354.028	1292.844
777.736	22.150	1353.259	1291.380
778.751	22.037	1352.469	1289.639
779.765	22.122	1350.806	1288.529
780.780	22.148	1350.023	1287.817
781.794	22.068	1348.912	1286.017
782.809	22.021	1348.056	1284.697
783.824	21.815	1346.435	1281.486
784.838	21.389	1344.450	1276.316
785.853	20.926	1343.150	1271.535
786.867	21.011	1342.669	1271.555
787.882	21.346	1342.371	1273.575
788.897	21.509	1341.655	1273.933
789.911	21.583	1340.796	1273.504
790.926	21.823	1340.344	1274.677
791.940	21.763	1339.248	1273.043
792.955	21.948	1337.689	1272.758
793.969	22.135	1336.427	1272.768
794.984	22.133	1336.081	1272.271
795.999	22.251	1334.887	1271.838
797.013	22.381	1333.112	1270.938
798.028	22.321	1331.913	1269.210
799.042	22.154	1331.709	1267.657
800.057	22.434	1330.270	1268.160
801.072	22.410	1328.671	1266.314
802.086	22.273	1327.682	1264.229
803.101	22.552	1326.534	1264.993
804.115	22.452	1326.043	1263.657
805.130	22.409	1324.754	1261.965
806.145	22.344	1323.697	1260.342
807.159	22.246	1322.286	1258.138
808.174	22.119	1321.413	1256.243
809.188	21.814	1320.236	1252.785
810.203	21.800	1317.628	1250.064
811.218	21.551	1315.902	1246.492
812.232	21.401	1313.470	1242.967
813.247	21.185	1313.207	1241.029
814.261	21.449	1313.713	1243.243
815.276	21.771	1313.500	1245.192
816.291	21.919	1312.749	1245.384
817.305	22.265	1311.835	1246.839
818.320	22.352	1310.261	1245.810
819.334	22.345	1308.861	1244.285
820.349	22.443	1307.817	1243.837
821.364	22.402	1306.543	1242.184
822.378	22.468	1304.811	1240.856
823.393	22.509	1303.463	1239.718
824.407	22.405	1302.562	1237.975
825.422	22.273	1302.026	1236.388
826.437	22.254	1300.833	1234.971
827.451	21.974	1298.375	1230.517
828.466	21.511	1296.785	1225.603
829.480	21.143	1295.110	1221.288
830.495	21.459	1293.594	1221.927
831.509	21.841	1293.665	1224.528
832.524	22.013	1293.656	1225.586
833.539	22.178	1292.692	1225.679
834.553	22.342	1291.404	1225.460
835.568	22.397	1290.493	1224.835
836.582	22.313	1289.463	1223.121
837.597	22.614	1287.428	1223.149
838.612	22.387	1286.678	1220.705
839.626	22.219	1285.431	1218.203
840.641	22.092	1283.797	1215.627
841.655	21.782	1282.051	1211.673
842.670	21.260	1280.749	1206.678
843.685	20.854	1279.849	1202.865
844.699	21.550	1279.138	1206.876
845.714	21.925	1278.828	1209.041
846.728	22.052	1278.233	1209.215
847.743	22.203	1277.027	1208.972
848.758	22.378	1275.941	1209.005
849.772	22.555	1274.675	1208.883
850.787	22.516	1273.538	1207.391
851.801	22.375	1273.286	1206.038
852.816	22.179	1271.954	1203.279
853.831	22.051	1269.967	1200.378
854.845	22.269	1267.699	1199.588
855.860	22.055	1266.650	1196.982
856.874	21.997	1264.509	1194.421
857.889	21.797	1263.361	1191.828
858.904	21.181	1262.158	1186.343
859.918	21.157	1259.120	1183.182
860.933	21.092	1258.031	1181.575
861.947	21.376	1258.400	1183.716
862.962	21.549	1257.262	1183.677
863.977	21.796	1256.992	1184.963
864.991	21.816	1257.001	1184.964
866.006	22.136	1256.436	1186.461
867.020	22.329	1255.004	1186.274
868.035	22.295	1254.065	1185.017
869.049	22.443	1253.473	1185.312
870.064	22.621	1252.294	1185.264
871.079	22.511	1251.426	1183.552
872.093	22.475	1250.614	1182.401
873.108	22.307	1250.045	1180.587
874.122	22.068	1247.621	1176.552
875.137	21.800	1246.332	1173.388
876.152	21.678	1245.698	1171.830
877.166	21.859	1244.198	1171.495
878.181	22.078	1243.273	1171.954
879.195	22.164	1243.463	1172.572
880.210	22.385	1242.913	1173.390
881.225	22.421	1241.922	1172.556
882.239	22.369	1240.842	1171.047
883.254	22.447	1239.810	1170.456
884.268	22.675	1238.994	1171.069
885.283	22.622	1237.289	1168.966
886.298	22.501	1235.563	1166.391
887.312	22.495	1235.176	1165.843
888.327	22.568	1234.026	1165.102
889.341	22.424	1232.757	1162.808
890.356	22.262	1232.518	1161.372
891.371	22.195	1231.934	1160.234
892.385	22.109	1231.517	1159.136
893.400	22.135	1229.564	1157.330
894.414	22.094	1227.783	1155.245
895.429	21.730	1225.804	1150.838
896.444	20.857	1223.810	1143.074
897.458	20.697	1222.182	1140.364
898.473	21.006	1221.923	1142.019
899.487	21.780	1221.693	1146.762
900.502	21.831	1221.745	1147.010
901.517	22.295	1220.878	1149.100
902.531	22.192	1220.011	1147.476
903.546	22.269	1219.232	1147.106
904.560	22.415	1218.821	1147.543
905.575	22.427	1217.943	1146.657
906.589	22.353	1216.968	1145.115
907.604	22.519	1215.826	1144.990
