DTS Sentinel unit serial number:	SN409020Multiplexer serial number:	ORYXHardware model number:	OX4-SRSoftware version number:	ORYX F/W v3.00 Oryx Data Collector v3.7.2.0data status	okinstallation	HaddamTimeLapsedifferential loss correction	single-endedforward channel	channel 3reverse channel	N/Adate	2011/06/22time	05:56:16forward acquisition time	30.00reverse acquisition time	0.00gamma	498.7831k internal	0.1752k external	0.1752temperature offset calibration	1.0074default loss term (dB/km)	0.3790temperature slope calibration	1.3530multiplexer offset coefficient	1.0000multiplexer slope coefficient	1.0000fibre end	0.00T internal ref (°C)	22.59T ext. ref 1 (°C)	18.00T ext. ref 2 (°C)	0.17length (m)	temperature (°C)	Stokes	anti-Stokes-747.200	-200.000	0.025	-0.286
-746.185	-69.353	0.478	0.243
-745.171	-200.000	0.019	-0.273
-744.156	-67.048	0.085	0.044
-743.142	-200.000	0.022	-0.278
-742.127	-37.131	-0.107	0.076
-741.112	-200.000	0.011	-0.142
-740.098	162.909	-0.251	0.470
-739.083	-109.360	-0.256	0.071
-738.069	-39.813	0.560	-0.388
-737.054	127.515	-0.188	-0.318
-736.039	41.497	-0.041	0.050
-735.025	-200.000	-0.027	-0.304
-734.010	-200.000	0.005	0.179
-732.996	-105.054	0.385	0.116
-731.981	283.445	0.133	0.318
-730.966	-88.166	0.512	0.202
-729.952	143.716	-0.221	-0.392
-728.937	-65.866	-0.216	-0.114
-727.923	42.002	0.148	-0.179
-726.908	146.120	-0.189	0.337
-725.894	17.232	-0.282	0.296
-724.879	198.516	0.208	0.423
-723.864	277.782	0.023	-0.056
-722.850	-158.191	-0.103	0.008
-721.835	-200.000	-0.070	0.416
-720.821	47.417	-0.394	-0.488
-719.806	-200.000	0.043	-0.313
-718.791	176.303	0.134	-0.259
-717.777	-200.000	-0.032	-0.291
-716.762	-200.000	-0.077	-0.512
-715.748	119.418	0.073	0.120
-714.733	-4.616	0.425	-0.389
-713.718	-172.223	-0.319	-0.013
-712.704	122.948	-0.119	-0.198
-711.689	800.000	0.079	-0.387
-710.675	-18.066	-0.015	0.013
-709.660	-120.230	0.134	0.030
-708.645	-33.168	-0.300	0.220
-707.631	-200.000	0.028	-0.200
-706.616	-150.570	0.156	-0.016
-705.602	669.835	0.024	0.082
-704.587	29.072	-0.296	-0.333
-703.572	121.476	-0.259	-0.429
-702.558	170.490	-0.100	-0.191
-701.543	65.797	0.187	-0.251
-700.529	-200.000	0.001	0.151
-699.514	-152.967	-0.111	-0.010
-698.499	274.212	0.053	0.125
-697.485	-200.000	-0.043	-0.348
-696.470	-180.177	0.336	-0.009
-695.456	129.480	0.174	0.295
-694.441	-28.122	0.191	-0.146
-693.426	-200.000	0.015	-0.233
-692.412	29.567	0.091	0.102
-691.397	-200.000	-0.022	-0.258
-690.383	-130.119	0.091	0.016
-689.368	-105.457	-0.409	0.122
-688.354	-72.012	-0.429	-0.210
-687.339	-141.816	0.259	0.034
-686.324	36.255	-0.181	-0.211
-685.310	76.449	-0.340	0.478
-684.295	472.703	-0.146	0.437
-683.281	-49.481	0.289	-0.182
-682.266	-141.602	0.288	-0.038
-681.251	-200.000	0.213	0.000
-680.237	213.322	-0.093	-0.195
-679.222	-112.593	-0.296	0.077
-678.208	-0.414	0.318	-0.299
-677.193	108.497	0.081	-0.128
-676.178	36.095	-0.391	-0.456
-675.164	-107.230	-0.546	-0.158
-674.149	74.832	-0.185	-0.259
-673.135	800.000	-0.087	0.374
-672.120	-174.448	0.185	0.007
-671.105	-88.805	0.460	0.180
-670.091	-200.000	0.015	0.327
-669.076	-35.178	-0.393	0.283
-668.062	-150.195	-0.602	-0.061
-667.047	800.000	-0.037	-0.151
-666.032	-200.000	0.006	0.204
-665.018	7.127	0.482	0.475
-664.003	755.016	0.120	-0.433
-662.989	800.000	-0.044	0.240
-661.974	-56.870	-0.168	-0.098
-660.959	-29.710	0.402	0.303
-659.945	16.717	-0.082	-0.085
-658.930	32.615	-0.352	-0.403
-657.916	-136.077	-0.103	0.016
-656.901	623.461	-0.082	0.274
-655.886	94.440	-0.139	-0.209
-654.872	300.874	0.245	-0.600
-653.857	226.296	-0.054	-0.116
-652.843	279.548	-0.161	0.381
-651.828	-23.557	-0.360	-0.285
-650.814	-165.714	-0.439	-0.025
-649.799	514.805	-0.136	-0.423
-648.784	-77.016	-0.142	0.065
-647.770	-46.611	0.189	-0.122
-646.755	-107.215	-0.499	0.144
-645.741	-142.703	0.231	0.029
-644.726	-125.515	-0.307	-0.061
-643.711	-102.197	-0.660	-0.209
-642.697	800.000	0.049	-0.184
-641.682	91.972	0.039	-0.058
-640.668	298.014	0.158	0.386
-639.653	-56.746	0.362	-0.211
-638.638	-11.511	0.350	0.304
-637.624	-114.812	-0.372	0.093
-636.609	-200.000	-0.001	-0.028
-635.595	-81.284	0.320	-0.139
-634.580	-106.715	-0.410	-0.120
-633.565	-109.745	-0.396	-0.109
-632.551	-99.693	-0.104	0.034
-631.536	190.035	-0.129	0.257
-630.522	-200.000	-0.025	-0.345
-629.507	195.956	-0.156	0.314
-628.492	-200.000	-0.022	0.133
-627.478	555.550	0.068	0.219
-626.463	-71.095	0.447	0.221
-625.449	146.369	-0.251	0.447
-624.434	-7.413	-0.427	0.382
-623.419	-27.200	-0.105	-0.080
-622.405	-77.932	0.293	0.133
-621.390	-54.736	-0.054	-0.032
-620.376	28.997	-0.211	0.237
-619.361	204.660	-0.293	-0.602
-618.346	83.921	-0.418	-0.603
-617.332	-22.355	-0.169	-0.135
-616.317	-58.747	0.250	0.142
-615.303	-20.015	0.182	-0.148
-614.288	-128.528	-0.142	0.026
-613.273	-137.113	0.672	0.100
-612.259	202.411	0.230	-0.470
-611.244	50.629	-0.091	0.114
-610.230	-154.509	-0.253	0.022
-609.215	109.404	0.128	-0.203
-608.201	-200.000	-0.045	-0.481
-607.186	-130.311	0.413	-0.073
-606.171	122.798	-0.144	-0.238
-605.157	-127.768	-0.392	0.074
-604.142	-18.952	-0.226	0.185
-603.128	-189.605	0.288	0.004
-602.113	-200.000	-0.051	-0.302
-601.098	-72.488	-0.128	-0.062
-600.084	-102.730	0.416	-0.130
-599.069	-65.406	0.223	-0.118
-598.055	227.634	-0.030	-0.064
-597.040	-35.993	0.121	0.086
-596.025	-138.099	0.126	0.018
-595.011	-79.356	-0.098	0.044
-593.996	-145.204	0.646	0.076
-592.982	-63.802	-0.525	-0.282
-591.967	-99.686	-0.441	-0.145
-590.952	800.000	-0.074	0.302
-589.938	270.161	-0.063	-0.146
-588.923	-92.222	0.394	0.146
-587.909	208.961	0.282	-0.584
-586.894	98.527	-0.104	-0.158
-585.879	-200.000	0.023	0.199
-584.865	94.404	-0.247	-0.371
-583.850	154.224	0.046	0.084
-582.836	670.910	0.086	0.297
-581.821	-31.216	-0.245	-0.182
-580.806	-200.000	-0.002	0.273
-579.792	-56.505	0.361	0.210
-578.777	-200.000	-0.057	-0.503
-577.763	34.797	-0.109	-0.125
-576.748	-200.000	-0.031	0.206
-575.733	354.061	0.278	0.731
-574.719	203.413	-0.110	-0.225
-573.704	-75.979	0.330	-0.153
-572.690	-88.434	0.109	0.043
-571.675	-135.053	0.229	-0.036
-570.661	65.230	0.155	-0.208
-569.646	-51.855	0.684	-0.418
-568.631	-200.000	0.058	-0.396
-567.617	53.474	-0.143	-0.181
-566.602	-58.972	0.342	-0.194
-565.588	-118.153	0.513	-0.120
-564.573	-0.299	-0.129	0.121
-563.558	54.240	-0.347	0.441
-562.544	-200.000	-0.046	0.440
-561.529	213.541	0.344	0.718
-560.515	-127.450	0.106	-0.020
-559.500	428.522	0.016	0.046
-558.485	-11.869	0.105	-0.091
-557.471	-138.273	-0.304	-0.044
-556.456	-103.593	0.379	0.116
-555.442	800.000	0.049	-0.225
-554.427	40.678	-0.213	-0.253
-553.412	800.000	-0.070	-0.358
-552.398	-200.000	0.172	-0.001
-551.383	15.882	-0.235	0.244
-550.369	-133.758	0.178	-0.029
-549.354	-85.931	0.393	0.159
-548.339	14.755	0.183	0.188
-547.325	342.231	-0.035	-0.091
-546.310	-200.000	-0.004	0.579
-545.296	-41.200	0.239	-0.162
-544.281	1.002	-0.249	-0.235
-543.266	73.329	0.286	-0.395
-542.252	-92.051	0.438	0.162
-541.237	146.467	0.214	0.380
-540.223	-85.605	-0.723	0.295
-539.208	216.696	-0.149	-0.314
-538.193	-200.000	-0.073	0.540
-537.179	-125.523	0.073	0.014
-536.164	117.500	-0.206	0.334
-535.150	-200.000	-0.017	-0.170
-534.135	174.113	0.226	-0.431
-533.121	-186.498	-0.224	-0.004
-532.106	151.469	0.209	-0.376
-531.091	-200.000	-0.031	-0.367
-530.077	234.744	0.104	-0.226
-529.062	-200.000	0.013	0.402
-528.048	800.000	-0.091	-0.405
-527.033	180.076	0.282	0.545
-526.018	203.980	-0.106	0.218
-525.004	-25.803	-0.151	0.117
-523.989	-168.260	0.504	0.025
-522.975	37.519	0.128	-0.149
-521.960	800.000	0.059	0.310
-520.945	336.757	0.140	0.358
-519.931	-200.000	-0.002	0.405
-518.916	105.569	-0.138	-0.215
-517.902	-133.070	-0.467	0.077
-516.887	34.323	-0.164	-0.188
-515.872	10.830	0.199	0.200
-514.858	484.446	0.226	-0.681
-513.843	616.420	0.147	-0.489
-512.829	-54.457	-0.141	-0.084
-511.814	654.391	0.010	0.034
-510.799	226.401	-0.204	0.437
-509.785	240.701	-0.095	0.210
-508.770	767.623	-0.208	0.749
-507.756	-86.960	-0.104	-0.042
-506.741	-73.613	-0.285	-0.136
-505.726	-200.000	-0.004	0.472
-504.712	-67.079	0.398	0.206
-503.697	59.406	-0.118	-0.153
-502.683	145.283	0.279	0.492
-501.668	-146.342	0.365	0.042
-500.653	-142.737	0.438	-0.056
-499.639	-12.774	-0.377	0.322
-498.624	-200.000	-0.037	0.280
-497.610	-158.617	0.364	-0.027
-496.595	-57.561	0.254	-0.146
-495.581	141.939	-0.064	0.113
-494.566	-42.921	-0.243	-0.162
-493.551	305.194	-0.058	0.143
-492.537	83.757	-0.078	0.112
-491.522	800.000	0.044	0.212
-490.508	124.390	0.060	-0.099
-489.493	160.784	-0.197	0.363
-488.478	73.547	0.292	0.403
-487.464	-99.554	-0.422	0.139
-486.449	-84.408	0.088	-0.036
-485.435	-200.000	0.032	0.262
-484.420	367.809	-0.111	-0.296
-483.405	-70.501	0.074	0.037
-482.391	93.092	-0.239	-0.355
-481.376	-112.134	-0.263	-0.069
-480.362	-16.401	0.097	0.081
-479.347	-61.897	0.245	-0.134
-478.332	134.909	0.232	-0.396
-477.318	33.288	0.223	-0.254
-476.303	-200.000	0.018	-0.154
-475.289	57.009	0.106	-0.136
-474.274	-200.000	0.033	-0.289
-473.259	-72.458	-0.084	0.041
-472.245	26.278	-0.109	0.120
-471.230	-123.446	-0.219	0.045
-470.216	-59.975	-0.283	0.158
-469.201	-130.223	-0.064	0.011
-468.186	202.748	0.173	0.352
-467.172	-103.694	-0.474	0.145
-466.157	344.740	-0.126	0.327
-465.143	-14.745	-0.353	-0.297
-464.128	800.000	0.040	-0.158
-463.113	-12.610	-0.302	0.258
-462.099	49.363	0.448	0.553
-461.084	-42.210	0.280	-0.187
-460.070	-130.847	0.170	0.030
-459.055	800.000	-0.076	0.356
-458.040	-163.968	-0.189	0.011
-457.026	-173.047	0.360	-0.014
-456.011	-200.000	0.025	0.261
-454.997	800.000	0.163	0.659
-453.982	-200.000	-0.029	0.434
-452.968	-179.204	0.448	-0.013
-451.953	-139.848	-0.157	0.022
-450.938	-133.852	0.110	-0.018
-449.924	-108.349	-0.197	0.056
-448.909	53.963	-0.252	-0.318
-447.895	-85.812	0.266	-0.108
-446.880	712.388	-0.051	0.178
-445.865	-24.383	0.170	0.132
-444.851	19.217	-0.174	0.183
-443.836	-31.083	0.331	0.244
-442.822	113.797	0.125	0.200
-441.807	-17.905	0.230	0.189
-440.792	16.002	-0.195	0.201
-439.778	125.604	0.149	0.247
-438.763	-35.078	-0.471	0.336
-437.749	-97.094	-0.245	0.084
-436.734	444.842	-0.071	0.206
-435.719	94.576	0.216	-0.323
-434.705	376.696	0.102	0.274
-433.690	-142.860	-0.439	0.055
-432.676	-114.841	0.330	-0.082
-431.661	356.211	-0.104	0.272
-430.646	-77.261	0.153	-0.070
-429.632	-145.015	0.183	0.022
-428.617	22.791	0.250	-0.269
-427.603	-19.028	0.196	-0.160
-426.588	-85.564	0.585	-0.237
-425.573	195.768	-0.076	0.151
-424.559	-57.945	-0.351	-0.201
-423.544	184.406	-0.091	-0.178
-422.530	96.664	0.184	0.276
-421.515	234.363	-0.172	-0.373
-420.500	6.852	-0.407	-0.397
-419.486	-200.000	-0.082	-0.604
-418.471	800.000	0.017	0.070
-417.457	133.524	-0.234	0.398
-416.442	-51.016	0.501	0.307
-415.428	103.644	0.064	-0.099
-414.413	155.391	-0.027	0.048
-413.398	74.075	-0.116	-0.159
-412.384	129.593	0.031	0.052
-411.369	37.857	-0.299	-0.349
-410.355	-8.943	0.218	-0.191
-409.340	-105.728	-0.312	-0.092
-408.325	173.223	0.134	-0.255
-407.311	99.824	-0.282	-0.429
-406.296	12.431	0.135	0.137
-405.282	-163.063	-0.132	-0.008
-404.267	111.985	0.172	0.272
-403.252	-24.102	-0.287	-0.224
-402.238	-45.232	-0.269	0.174
-401.223	-9.853	0.160	0.139
-400.209	-58.649	0.043	0.024
-399.194	-106.687	-0.538	-0.155
-398.179	-200.000	-0.036	0.272
-397.165	192.096	0.168	0.334
-396.150	-74.163	-0.503	-0.237
-395.136	-16.989	0.171	0.141
-394.121	300.948	0.079	0.192
-393.106	118.122	0.048	-0.077
-392.092	-60.639	-0.452	-0.250
-391.077	9.772	0.192	-0.191
-390.063	800.000	0.108	-0.489
-389.048	-117.872	-0.219	0.051
-388.033	-169.985	-0.337	0.015
-387.019	-26.010	0.397	-0.305
-386.004	-89.851	-0.451	-0.172
-384.990	436.299	0.017	0.047
-383.975	-162.636	-0.166	0.011
-382.960	-113.739	0.354	-0.090
-381.946	195.657	-0.175	-0.349
-380.931	-106.553	-0.386	0.112
-379.917	-69.334	0.121	-0.061
-378.902	86.646	-0.286	0.414
-377.888	800.000	0.112	-0.565
-376.873	-200.000	-0.064	0.451
-375.858	-200.000	0.043	0.383
-374.844	356.395	-0.057	0.149
-373.829	800.000	-0.037	-0.166
-372.815	-21.283	-0.282	0.225
-371.800	-189.600	0.525	0.008
-370.785	-6.259	-0.607	0.542
-369.771	-50.836	0.212	0.130
-368.756	-62.381	-0.562	-0.305
-367.742	113.356	0.099	-0.158
-366.727	-11.944	0.235	0.201
-365.712	223.747	-0.204	-0.432
-364.698	51.567	0.099	-0.123
-363.683	-141.261	-0.218	-0.029
-362.669	207.000	-0.029	-0.060
-361.654	-125.768	0.121	0.024
-360.639	-156.489	0.127	0.010
-359.625	-105.188	0.160	-0.048
-358.610	-38.473	0.021	0.014
-357.596	-11.187	-0.174	-0.150
-356.581	-78.332	-0.192	-0.086
-355.566	-113.254	0.086	0.022
-354.552	-141.819	0.229	0.030
-353.537	-143.139	0.382	0.048
-352.523	511.344	0.029	0.087
-351.508	-117.761	0.172	-0.040
-350.493	-139.136	0.004	0.000
-349.479	-82.071	0.283	-0.120
-348.464	-5.510	0.207	0.185
-347.450	-200.000	-0.063	-0.434
-346.435	13.483	-0.114	0.116
-345.420	-4.665	-0.107	0.096
-344.406	-11.707	0.365	0.313
-343.391	-200.000	-0.053	-0.537
-342.377	-11.928	-0.204	0.174
-341.362	-114.050	0.504	0.127
-340.348	-96.473	0.220	-0.075
-339.333	762.352	0.030	0.106
-338.318	371.568	-0.103	-0.274
-337.304	-69.953	0.293	-0.145
-336.289	6.008	0.219	0.212
-335.275	-200.000	-0.002	0.591
-334.260	-200.000	-0.006	-0.263
-333.245	-97.987	-0.194	0.065
-332.231	-200.000	-0.010	0.070
-331.216	-54.649	-0.554	0.326
-330.202	-20.826	-0.078	0.063
-329.187	108.398	0.173	0.270
-328.172	41.111	-0.071	-0.084
-327.158	-200.000	-0.026	0.178
-326.143	-124.151	-0.104	-0.021
-325.129	-158.620	0.265	0.020
-324.114	-179.877	0.180	-0.005
-323.099	-118.313	-0.244	0.056
-322.085	43.321	0.177	-0.212
-321.070	58.945	-0.094	0.121
-320.056	-38.546	-0.423	0.291
-319.041	-130.049	-0.189	-0.033
-318.026	-31.048	0.254	-0.187
-317.012	19.555	0.303	-0.319
-315.997	-141.100	0.328	-0.043
-314.983	45.937	-0.364	-0.440
-313.968	83.843	-0.190	-0.272
-312.953	-45.134	-0.162	-0.105
-311.939	-168.358	-0.463	0.023
-310.924	-17.031	-0.165	-0.135
-309.910	-200.000	0.031	-0.517
-308.895	-200.000	-0.028	0.188
-307.880	800.000	-0.081	-0.441
-306.866	-74.347	0.475	-0.223
-305.851	-55.839	-0.486	0.283
-304.837	157.077	-0.320	-0.579
-303.822	13.601	0.173	0.175
-302.807	-108.884	-0.530	0.147
-301.793	22.458	-0.154	0.164
-300.778	-149.501	-0.153	0.016
-299.764	-200.000	0.005	-0.269
-298.749	35.274	0.275	-0.315
-297.735	-200.000	0.012	0.242
-296.720	-113.124	0.062	0.016
-295.705	-108.902	-0.151	0.042
-294.691	302.228	0.057	-0.139
-293.676	-104.820	-0.392	0.117
-292.662	800.000	-0.112	-0.442
-291.647	456.122	-0.093	0.270
-290.632	392.173	0.043	-0.116
-289.618	-123.838	0.242	0.049
-288.603	238.648	-0.159	0.346
-287.589	800.000	0.065	0.296
-286.574	517.024	0.217	0.667
-285.559	-77.040	0.379	0.172
-284.545	-40.180	-0.190	-0.129
-283.530	-36.256	0.147	-0.103
-282.516	-165.048	-0.282	-0.016
-281.501	28.258	-0.012	-0.014
-280.486	175.531	0.210	0.399
-279.472	96.701	-0.046	-0.069
-278.457	5.071	0.247	-0.237
-277.443	-114.269	0.313	-0.078
-276.428	-65.878	-0.568	-0.295
-275.413	-79.211	-0.273	-0.120
-274.399	-90.786	0.233	-0.087
-273.384	-14.187	0.069	0.058
-272.370	-108.627	0.238	0.066
-271.355	-200.000	0.046	-0.476
-270.340	261.268	0.187	-0.423
-269.326	-200.000	-0.020	-0.288
-268.311	726.202	0.144	0.505
-267.297	-14.417	0.095	0.080
-266.282	284.358	-0.151	-0.355
-265.267	-73.300	0.249	-0.118
-264.253	-123.641	-0.305	-0.062
-263.238	-200.000	-0.068	0.433
-262.224	32.129	0.207	-0.233
-261.209	-37.989	-0.375	0.259
-260.195	-160.749	0.242	-0.016
-259.180	-49.703	-0.266	-0.164
-258.165	-151.732	0.190	-0.018
-257.151	500.421	-0.107	-0.323
-256.136	-41.929	0.258	-0.172
-255.122	82.485	-0.142	-0.202
-254.107	-200.000	-0.044	0.532
-253.092	-10.431	0.356	-0.307
-252.078	-200.000	-0.002	0.154
-251.063	63.058	0.186	0.242
-250.049	-200.000	0.012	-0.117
-249.034	-146.930	0.287	-0.032
-248.019	-9.795	-0.324	-0.281
-247.005	-91.429	-0.428	0.158
-245.990	-92.607	-0.801	-0.291
-244.976	-200.000	-0.050	-0.294
-243.961	123.796	0.044	0.072
-242.946	-39.659	-0.347	-0.236
-241.932	310.200	0.053	0.130
-240.917	-200.000	-0.007	0.051
-239.903	120.794	-0.257	-0.417
-238.888	-200.000	0.085	0.536
-237.873	-40.775	0.513	0.345
-236.859	800.000	-0.124	0.680
-235.844	-142.442	-0.321	0.041
-234.830	175.254	0.215	0.406
-233.815	-200.000	0.072	0.441
-232.800	-95.425	-0.107	0.037
-231.786	-31.514	-0.102	-0.075
-230.771	17.324	-0.129	-0.133
-229.757	-83.558	-0.105	-0.043
-228.742	160.016	-0.111	0.202
-227.727	-17.679	0.264	-0.216
-226.713	405.919	-0.141	-0.390
-225.698	-200.000	-0.025	-0.172
-224.684	235.970	-0.117	0.252
-223.669	-41.332	0.394	0.264
-222.655	-200.000	-0.030	-0.247
-221.640	800.000	0.123	-0.459
-220.625	-141.575	0.451	0.058
-219.611	82.487	0.168	-0.237
-218.596	-50.769	-0.178	0.108
-217.582	-61.006	0.634	0.347
-216.567	-44.111	0.196	-0.127
-215.552	-168.903	-0.096	-0.005
-214.538	-143.414	0.277	0.034
-213.523	-136.813	-0.217	0.032
-212.509	-0.547	-0.202	0.186
-211.494	-17.507	0.172	0.140
-210.479	-38.504	0.100	-0.069
-209.465	-28.638	0.095	-0.071
-208.450	800.000	-0.053	0.231
-207.436	83.339	0.190	-0.270
-206.421	325.958	-0.093	-0.232
-205.406	376.050	-0.057	0.151
-204.392	-122.088	-0.285	-0.060
-203.377	87.570	-0.043	0.062
-202.363	-200.000	-0.047	0.506
-201.348	-126.707	0.160	0.030
-200.333	61.374	0.270	-0.349
-199.319	-58.833	0.184	-0.103
-198.304	215.825	-0.251	-0.520
-197.290	-122.396	-0.491	0.103
-196.275	92.189	-0.103	0.152
-195.260	-70.530	-0.063	0.031
-194.246	-200.000	0.023	0.358
-193.231	800.000	-0.090	0.351
-192.217	202.398	0.083	-0.167
-191.202	-60.717	-0.238	-0.131
-190.187	138.568	0.232	-0.396
-189.173	-80.085	-0.207	0.090
-188.158	800.000	0.021	-0.116
-187.144	-37.663	-0.299	0.206
-186.129	128.365	-0.182	-0.302
-185.114	-200.000	0.007	0.334
-184.100	-104.766	-0.214	-0.064
-183.085	-200.000	0.014	-0.220
-182.071	14.406	0.222	-0.224
-181.056	34.067	-0.401	0.454
-180.042	-126.594	-0.223	-0.042
-179.027	181.943	0.004	-0.009
-178.012	216.409	0.052	-0.109
-176.998	62.200	-0.135	-0.175
-175.983	-169.460	0.074	0.003
-174.969	210.877	-0.139	0.285
-173.954	-26.482	0.259	-0.196
-172.939	-64.225	-0.167	0.088
-171.925	-123.185	0.152	0.031
-170.910	717.029	0.124	-0.429
-169.896	-200.000	0.014	-0.332
-168.881	800.000	0.090	-0.383
-167.866	-137.335	0.550	-0.080
-166.852	-14.622	0.236	0.197
-165.837	141.488	-0.193	-0.332
-164.823	-200.000	0.004	0.029
-163.808	-200.000	-0.025	0.413
-162.793	-200.000	-0.024	0.221
-161.779	-200.000	0.090	-0.838
-160.764	-110.934	0.350	0.093
-159.750	-115.985	0.209	-0.050
-158.735	-30.381	0.161	0.118
-157.720	298.636	-0.129	0.308
-156.706	772.128	-0.084	-0.299
-155.691	45.285	0.304	0.364
-154.677	-135.011	0.311	-0.048
-153.662	108.815	-0.204	-0.317
-152.647	-200.000	0.002	0.092
-151.633	-58.878	-0.237	0.132
-150.618	-89.331	-0.317	-0.120
-149.604	800.000	0.053	0.297
-148.589	-200.000	-0.019	0.293
-147.574	133.770	0.066	0.112
-146.560	-15.931	0.144	-0.118
-145.545	-117.710	0.636	0.147
-144.531	-200.000	0.004	0.109
-143.516	630.305	0.189	0.623
-142.502	-113.077	0.693	-0.176
-141.487	-3.997	-0.161	-0.145
-140.472	-200.000	-0.033	0.200
-139.458	56.690	-0.276	-0.348
-138.443	-144.086	-0.504	0.061
-137.429	-58.092	0.148	0.084
-136.414	21.384	0.123	0.129
-135.399	-4.348	0.115	0.103
-134.385	-136.533	-0.318	-0.047
-133.370	-61.851	-0.386	0.209
-132.356	563.621	0.138	-0.435
-131.341	-200.000	0.026	-0.536
-130.326	114.714	-0.241	0.381
-129.312	-46.013	0.135	-0.086
-128.297	-100.084	0.318	-0.102
-127.283	800.000	-0.219	0.829
-126.268	164.962	0.042	-0.077
-125.253	508.833	0.140	0.422
-124.239	-17.449	-0.468	0.381
-123.224	7.160	0.164	0.158
-122.210	47.241	0.070	-0.084
-121.195	800.000	-0.046	0.258
-120.180	-89.676	0.168	-0.063
-119.166	465.870	0.077	-0.225
-118.151	-106.819	-0.275	0.078
-117.137	181.599	-0.118	-0.225
-116.122	-117.975	0.291	0.067
-115.107	-109.661	0.137	-0.037
-114.093	-19.830	-0.324	0.259
-113.078	-90.293	0.167	0.063
-112.064	20.911	0.295	0.309
-111.049	-39.923	0.249	0.168
-110.034	-104.650	0.228	0.068
-109.020	39.633	0.388	0.451
-108.005	-200.000	0.040	0.301
-106.991	139.840	-0.149	0.255
-105.976	-185.200	0.661	0.013
-104.962	-36.254	0.348	-0.243
-103.947	-95.127	0.235	0.082
-102.932	-59.613	0.258	-0.143
-101.918	443.126	-0.055	-0.158
-100.903	-83.935	0.166	0.068
-99.889	201.425	-0.168	-0.336
-98.874	52.697	0.133	-0.164
-97.859	0.454	0.098	-0.091
-96.845	-139.898	-0.505	-0.068
-95.830	-95.295	-0.317	-0.110
-94.816	-25.041	-0.335	0.257
-93.801	-143.763	-0.162	0.020
-92.786	334.657	0.127	-0.320
-91.772	147.044	0.187	-0.326
-90.757	-129.451	-0.320	-0.057
-89.743	21.391	0.162	0.171
-88.728	-200.000	0.027	0.260
-87.713	-200.000	-0.008	-0.216
-86.699	35.301	-0.193	0.220
-85.684	-29.124	0.120	-0.089
-84.670	-92.740	-0.208	0.075
-83.655	-95.042	0.096	-0.033
-82.640	-98.696	-0.680	-0.223
-81.626	687.232	-0.150	0.511
-80.611	-29.468	-0.142	0.105
-79.597	-116.565	-0.382	0.090
-78.582	800.000	0.073	0.349
-77.567	155.356	0.088	0.157
-76.553	31.437	-0.240	-0.267
-75.538	-65.484	0.055	-0.029
-74.524	168.863	-0.277	-0.513
-73.509	-158.756	-0.361	0.026
-72.494	175.047	-0.100	-0.188
-71.480	-81.458	-0.157	-0.067
-70.465	-80.207	0.318	0.137
-69.451	100.446	-0.114	-0.172
-68.436	-40.696	0.058	0.039
-67.422	-93.852	-0.257	-0.091
-66.407	24.925	0.127	-0.136
-65.392	-90.971	0.170	-0.063
-64.378	-82.242	0.383	0.160
-63.363	-45.309	-0.143	0.092
-62.349	581.703	-0.120	0.382
-61.334	35.026	-2.142	-2.425
-60.319	47.287	1.254	1.511
-59.305	213.710	-3.665	-7.515
-58.290	57.697	3.792	4.796
-57.276	360.416	4.022	10.454
-56.261	-200.000	23.974	319.526
-55.246	358.153	1299.634	3368.497
-54.232	53.720	2840.447	3527.026
-53.217	51.886	2658.364	3272.498
-52.203	31.746	2389.673	2658.057
-51.188	27.790	2054.912	2236.983
-50.173	24.556	1940.536	2074.697
-49.159	23.370	1929.601	2049.137
-48.144	22.864	1924.757	2038.042
-47.130	22.772	1922.589	2034.601
-46.115	22.703	1921.216	2032.273
-45.100	22.816	1918.997	2031.148
-44.086	22.988	1916.372	2030.283
-43.071	22.835	1915.602	2027.611
-42.057	22.799	1914.846	2026.320
-41.042	22.764	1913.190	2024.082
-40.027	22.738	1911.721	2022.155
-39.013	22.801	1911.192	2022.235
-37.998	22.819	1908.990	2020.031
-36.984	22.781	1907.176	2017.595
-35.969	22.811	1906.059	2016.675
-34.954	22.660	1905.441	2014.215
-33.940	22.581	1905.152	2012.923
-32.925	22.650	1902.712	2011.053
-31.911	22.716	1901.669	2010.629
-30.896	22.811	1899.847	2009.706
-29.881	22.820	1898.343	2008.142
-28.867	22.635	1897.774	2005.342
-27.852	22.682	1896.342	2004.282
-26.838	22.597	1894.484	2001.274
-25.823	22.597	1893.552	2000.205
-24.809	22.478	1892.622	1997.790
-23.794	22.628	1889.953	1996.602
-22.779	22.519	1889.465	1994.768
-21.765	22.527	1887.902	1993.125
-20.750	22.547	1886.756	1992.067
-19.736	22.511	1885.934	1990.708
-18.721	22.522	1884.244	1988.972
-17.706	22.468	1884.234	1988.272
-16.692	22.650	1882.033	1987.937
-15.677	22.599	1881.191	1986.388
-14.663	22.579	1879.874	1984.688
-13.648	22.532	1878.739	1982.884
-12.633	22.579	1877.077	1981.576
-11.619	22.496	1876.490	1979.943
-10.604	22.570	1874.758	1978.871
-9.590	22.457	1874.053	1976.774
-8.575	22.583	1872.296	1976.265
-7.560	22.448	1871.829	1974.173
-6.546	22.416	1871.047	1972.906
-5.531	22.326	1869.494	1970.184
-4.517	22.461	1867.453	1969.471
-3.502	22.476	1866.852	1968.925
-2.487	22.563	1864.971	1967.836
-1.473	22.599	1861.936	1964.961
-0.458	22.390	1843.712	1943.331
0.556	19.054	1989.740	2045.207
1.571	17.690	2192.493	2235.366
2.586	18.425	2232.944	2286.198
3.600	18.571	2234.695	2289.673
4.615	18.468	2234.224	2287.535
5.629	18.427	2232.432	2284.879
6.644	18.437	2230.310	2282.567
7.659	18.359	2228.599	2279.500
8.673	18.401	2226.522	2277.663
9.688	18.198	2235.589	2283.945
10.702	17.245	2315.436	2351.985
11.717	15.704	2379.218	2394.435
12.731	7.559	2360.578	2259.308
13.746	1.129	2342.466	2150.252
14.761	0.264	2339.070	2134.554
15.775	0.114	2338.300	2131.469
16.790	0.106	2335.898	2128.902
17.804	0.026	2335.081	2126.774
18.819	0.112	2333.423	2126.225
19.834	0.047	2332.298	2124.025
20.848	0.040	2330.407	2121.949
21.863	-0.005	2328.974	2119.757
22.877	0.063	2326.625	2118.317
23.892	0.031	2324.016	2115.246
24.907	0.002	2322.484	2113.182
25.921	0.016	2320.166	2111.017
26.936	0.088	2318.521	2110.284
27.950	0.000	2315.682	2106.215
28.965	0.013	2313.456	2104.111
29.980	0.029	2312.459	2103.185
30.994	0.149	2309.844	2102.240
32.009	4.056	2321.624	2167.753
33.023	13.425	2349.222	2326.152
34.038	17.528	2355.695	2390.282
35.053	17.790	2354.495	2392.473
36.067	17.963	2352.189	2392.284
37.082	17.926	2349.057	2388.287
38.096	17.920	2347.712	2386.560
39.111	18.048	2346.163	2386.490
40.126	18.162	2344.005	2385.603
41.140	18.311	2341.920	2385.287
42.155	18.127	2340.198	2380.678
43.169	18.104	2338.362	2378.193
44.184	17.956	2336.235	2373.685
45.199	18.048	2333.275	2371.682
46.213	17.963	2333.015	2369.938
47.228	17.995	2332.472	2369.558
48.242	18.102	2330.199	2368.448
49.257	18.296	2327.015	2367.635
50.271	18.259	2325.146	2364.928
51.286	18.037	2323.332	2359.726
52.301	18.030	2321.416	2357.399
53.315	18.361	2322.551	2362.862
54.330	19.972	2325.693	2388.123
55.344	21.009	2324.935	2401.425
56.359	21.033	2322.208	2398.642
57.374	21.275	2320.732	2400.184
58.388	21.319	2318.834	2398.542
59.403	21.218	2315.649	2393.568
60.417	20.993	2313.837	2388.307
61.432	21.184	2311.749	2388.494
62.447	21.380	2310.263	2389.362
63.461	21.560	2308.069	2389.273
64.476	21.444	2306.962	2386.261
65.490	21.425	2305.668	2384.377
66.505	20.863	2302.491	2373.107
67.520	19.486	2298.094	2349.455
68.534	18.334	2291.187	2326.395
69.549	18.013	2287.371	2317.860
70.563	18.191	2285.539	2318.158
71.578	18.166	2283.881	2315.857
72.593	18.251	2281.839	2314.668
73.607	18.269	2280.402	2313.176
74.622	18.269	2278.457	2310.919
75.636	18.159	2274.825	2305.475
76.651	18.184	2272.995	2303.689
77.666	18.222	2271.685	2302.589
78.680	18.203	2269.584	2299.934
79.695	18.215	2266.718	2296.920
80.709	18.167	2265.677	2294.939
81.724	18.248	2263.259	2293.304
82.739	18.075	2261.456	2288.877
83.753	18.125	2258.692	2286.468
84.768	18.184	2256.597	2284.876
85.782	17.995	2255.894	2281.348
86.797	18.046	2254.243	2280.094
87.812	18.052	2251.950	2277.573
88.826	18.034	2249.846	2274.938
89.841	18.194	2247.615	2274.545
90.855	18.144	2245.660	2271.631
91.870	18.047	2244.548	2268.944
92.884	17.997	2241.876	2265.300
93.899	18.045	2241.559	2265.341
94.914	18.351	2242.007	2269.607
95.928	19.760	2245.852	2292.012
96.943	20.325	2243.812	2297.171
97.957	18.845	2236.813	2270.098
98.972	18.009	2233.598	2255.476
99.987	18.016	2229.558	2251.221
101.001	17.854	2227.906	2247.138
102.016	18.128	2225.386	2247.940
103.030	18.049	2222.602	2243.820
104.045	18.130	2221.517	2243.529
105.060	18.206	2218.761	2241.481
106.074	18.132	2217.537	2238.992
107.089	17.960	2216.106	2235.019
108.103	18.052	2214.756	2234.595
109.118	18.166	2213.156	2234.218
110.133	18.290	2211.216	2233.614
111.147	18.366	2209.068	2232.177
112.162	18.278	2207.978	2229.658
113.176	18.182	2206.092	2226.231
114.191	18.220	2203.994	2224.335
115.206	18.199	2202.949	2222.746
116.220	18.244	2201.385	2221.494
117.235	18.079	2198.648	2216.313
118.249	18.014	2196.101	2212.632
119.264	18.104	2195.171	2212.599
120.279	18.221	2193.888	2212.569
121.293	18.136	2191.945	2209.232
122.308	18.112	2190.514	2207.212
123.322	18.119	2189.031	2205.545
124.337	18.230	2189.755	2207.459
125.352	19.842	2193.642	2232.025
126.366	20.199	2192.365	2235.087
127.381	18.711	2184.273	2207.353
128.395	18.038	2180.070	2194.162
129.410	18.115	2177.260	2192.060
130.424	18.090	2176.629	2190.845
131.439	18.086	2175.015	2188.905
132.454	17.930	2172.162	2183.762
133.468	17.968	2170.694	2182.518
134.483	17.992	2169.504	2181.372
135.497	18.148	2167.086	2180.675
136.512	18.160	2165.195	2178.666
137.527	18.216	2162.941	2176.851
138.541	18.143	2162.512	2175.223
139.556	17.902	2162.708	2172.082
140.570	17.936	2160.891	2170.429
141.585	17.941	2158.572	2167.902
142.600	18.047	2157.244	2167.658
143.614	18.014	2154.966	2164.689
144.629	17.965	2153.028	2161.865
145.643	17.932	2151.633	2159.784
146.658	17.908	2149.529	2157.113
147.673	17.894	2147.925	2155.071
148.687	18.060	2146.483	2155.467
149.702	18.127	2145.605	2155.175
150.716	18.021	2144.289	2152.256
151.731	18.009	2143.943	2151.494
152.746	18.121	2142.516	2151.217
153.760	18.401	2144.026	2156.023
154.775	19.960	2146.226	2177.703
155.789	20.288	2145.109	2180.456
156.804	18.866	2136.816	2153.867
157.819	18.072	2132.171	2138.935
158.833	18.072	2130.341	2136.844
159.848	18.233	2128.083	2136.348
160.862	18.317	2127.246	2136.301
161.877	18.199	2126.760	2134.079
162.892	18.140	2126.068	2132.391
163.906	18.258	2123.718	2131.252
164.921	18.209	2121.607	2128.270
165.935	18.296	2119.092	2126.580
166.950	18.272	2117.615	2124.537
167.964	18.053	2115.701	2119.637
168.979	18.021	2113.889	2117.168
169.994	18.055	2112.125	2115.577
171.008	18.143	2110.471	2114.755
172.023	18.097	2109.650	2113.107
173.037	18.139	2108.634	2112.355
174.052	17.961	2106.479	2107.735
175.067	18.000	2104.572	2106.064
176.081	18.129	2102.629	2105.460
177.096	18.106	2102.167	2104.464
178.110	17.965	2100.369	2100.668
179.125	18.035	2098.961	2099.880
180.140	18.016	2098.151	2098.574
181.154	18.098	2096.670	2097.861
182.169	17.966	2095.320	2094.633
183.183	18.316	2095.968	2099.339
184.198	20.063	2099.117	2123.791
185.213	20.368	2097.504	2125.651
186.227	18.941	2091.565	2101.860
187.242	18.196	2088.106	2088.991
188.256	18.139	2086.485	2086.418
189.271	18.179	2084.567	2084.743
190.286	18.208	2082.239	2082.513
191.300	18.113	2079.561	2078.428
192.315	18.056	2078.188	2076.119
193.329	18.065	2078.362	2076.148
194.344	18.481	2076.565	2079.176
195.359	18.318	2075.363	2075.734
196.373	18.189	2073.602	2072.155
197.388	18.367	2071.048	2071.522
198.402	18.108	2068.990	2066.066
199.417	18.103	2066.293	2063.068
200.432	18.107	2065.630	2062.213
201.446	18.167	2064.237	2061.293
202.461	18.165	2062.003	2058.796
203.475	17.991	2060.933	2055.379
204.490	18.037	2058.734	2053.492
205.504	18.116	2056.237	2051.715
206.519	17.972	2054.713	2048.210
207.534	18.103	2052.980	2047.818
208.548	18.151	2051.772	2046.943
209.563	18.101	2050.711	2045.042
210.577	18.002	2049.438	2042.337
211.592	18.214	2047.541	2042.737
212.607	18.974	2051.382	2055.468
213.621	20.612	2056.030	2079.582
214.636	20.357	2050.281	2070.462
215.650	18.494	2044.546	2042.128
216.665	18.242	2041.309	2035.640
217.680	18.294	2040.087	2034.801
218.694	18.277	2038.307	2032.582
219.709	18.155	2036.997	2029.575
220.723	18.128	2036.229	2028.248
221.738	18.242	2034.195	2027.330
222.753	18.133	2032.579	2024.184
223.767	18.001	2031.445	2021.235
224.782	18.016	2029.026	2018.770
225.796	18.062	2027.562	2017.619
226.811	18.241	2026.276	2018.215
227.826	18.167	2024.121	2014.954
228.840	18.203	2022.813	2013.832
229.855	18.158	2021.652	2011.907
230.869	18.092	2020.461	2009.704
231.884	18.126	2018.086	2007.500
232.899	18.110	2016.300	2005.299
233.913	18.041	2015.366	2003.317
234.928	18.121	2014.365	2003.018
235.942	18.271	2012.115	2002.304
236.957	18.103	2011.879	1999.856
237.972	18.141	2010.603	1998.795
238.986	18.139	2009.010	1996.955
240.001	18.000	2008.111	1994.181
241.015	18.065	2005.589	1992.209
242.030	18.391	2006.633	1996.826
243.045	19.908	2009.337	2017.062
244.059	20.188	2006.375	2017.114
245.074	18.769	1999.315	1993.243
246.088	18.101	1997.033	1982.938
247.103	18.181	1995.491	1982.101
248.117	18.155	1994.316	1980.396
249.132	18.156	1992.574	1978.440
250.147	18.117	1990.301	1975.497
251.161	18.098	1989.071	1973.820
252.176	18.107	1987.857	1972.473
253.190	18.328	1986.993	1973.947
254.205	18.314	1984.275	1970.842
255.220	18.255	1983.822	1969.475
256.234	18.225	1982.587	1967.672
257.249	18.163	1981.747	1965.888
258.263	18.191	1979.690	1963.930
259.278	18.170	1978.745	1962.516
260.293	18.169	1977.175	1960.713
261.307	18.039	1974.950	1956.782
262.322	18.028	1973.481	1954.966
263.336	17.969	1971.272	1951.859
264.351	17.875	1969.592	1948.884
265.366	17.977	1968.244	1948.491
266.380	18.109	1967.692	1949.224
267.395	17.988	1966.079	1946.002
268.409	17.943	1964.754	1943.940
269.424	18.036	1963.037	1943.077
270.439	18.170	1962.103	1943.452
271.453	18.678	1962.746	1949.656
272.468	20.180	1964.386	1968.196
273.482	20.164	1962.228	1965.619
274.497	18.646	1956.160	1942.050
275.512	18.138	1952.627	1932.547
276.526	18.190	1950.331	1930.625
277.541	18.024	1948.241	1926.452
278.555	18.108	1946.852	1925.796
279.570	17.892	1944.998	1921.285
280.585	17.762	1944.573	1919.164
281.599	18.049	1943.176	1920.800
282.614	18.218	1942.010	1921.325
283.628	18.411	1940.394	1921.673
284.643	18.335	1940.242	1920.434
285.657	18.392	1939.149	1919.764
286.672	18.523	1937.449	1919.326
287.687	18.374	1935.964	1915.952
288.701	18.428	1933.825	1914.206
289.716	18.202	1933.196	1910.824
290.730	18.288	1930.909	1909.294
291.745	18.296	1929.329	1907.594
292.760	18.170	1929.501	1906.130
293.774	18.040	1928.520	1903.474
294.789	18.263	1926.434	1903.680
295.803	18.117	1924.051	1899.470
296.818	18.029	1923.186	1897.401
297.833	18.065	1921.896	1896.305
298.847	18.039	1920.478	1894.386
299.862	17.946	1919.627	1892.293
300.876	18.374	1919.204	1896.406
301.891	20.125	1921.944	1918.392
302.906	20.575	1920.052	1921.263
303.920	18.939	1914.592	1897.442
304.935	18.303	1911.195	1886.800
305.949	18.142	1909.370	1882.990
306.964	18.109	1908.207	1881.258
307.979	18.170	1906.499	1880.023
308.993	18.218	1904.956	1878.805
310.008	18.242	1903.311	1877.226
311.022	18.356	1901.834	1876.795
312.037	18.368	1900.872	1875.758
313.052	18.347	1898.496	1872.952
314.066	18.291	1896.447	1870.096
315.081	18.174	1896.528	1868.666
316.095	18.244	1895.907	1868.594
317.110	18.269	1893.735	1866.507
318.125	18.140	1892.788	1863.938
319.139	18.311	1890.634	1863.467
320.154	18.344	1889.779	1862.757
321.168	18.408	1888.403	1861.879
322.183	18.389	1886.807	1859.873
323.197	18.127	1885.290	1855.297
324.212	18.011	1882.403	1850.979
325.227	17.977	1881.238	1849.237
326.241	18.047	1879.752	1848.322
327.256	18.129	1879.475	1848.716
328.270	18.066	1877.381	1845.749
329.285	18.164	1877.681	1846.891
330.300	18.726	1880.274	1855.325
331.314	20.411	1882.783	1875.890
332.329	20.240	1877.896	1868.938
333.343	18.639	1872.335	1845.880
334.358	18.283	1869.350	1838.877
335.373	18.074	1868.459	1835.527
336.387	17.988	1866.310	1832.270
337.402	18.084	1864.650	1831.450
338.416	18.083	1863.650	1830.243
339.431	18.149	1862.258	1829.362
340.446	18.349	1859.813	1828.886
341.460	18.391	1859.350	1828.672
342.475	18.375	1858.450	1827.388
343.489	18.371	1856.517	1825.231
344.504	18.455	1855.136	1824.551
345.519	18.355	1854.289	1822.427
346.533	18.458	1852.450	1821.508
347.548	18.488	1851.690	1820.858
348.562	18.436	1850.017	1818.438
349.577	18.395	1849.398	1817.174
350.592	18.472	1848.075	1816.477
351.606	18.390	1846.296	1813.645
352.621	18.121	1844.420	1808.727
353.635	18.008	1842.563	1805.482
354.650	18.053	1841.401	1804.603
355.665	18.116	1840.100	1803.789
356.679	18.159	1838.493	1802.450
357.694	18.198	1836.913	1801.097
358.708	18.167	1836.163	1799.819
359.723	18.953	1838.102	1809.822
360.738	20.542	1840.474	1828.756
361.752	20.017	1836.531	1819.079
362.767	18.514	1830.956	1797.515
363.781	18.078	1828.993	1790.778
364.796	18.120	1827.420	1789.470
365.810	18.064	1825.903	1787.174
366.825	18.156	1824.430	1786.488
367.840	18.131	1824.351	1785.938
368.854	18.162	1823.409	1785.122
369.869	17.922	1821.631	1780.659
370.883	17.869	1819.213	1777.528
371.898	17.855	1819.221	1777.168
372.913	17.986	1817.997	1777.134
373.927	18.091	1816.381	1776.437
374.942	18.164	1814.650	1775.296
375.956	18.196	1813.315	1774.104
376.971	17.991	1811.952	1770.430
377.986	17.968	1810.179	1768.245
379.000	18.043	1808.779	1767.443
380.015	18.319	1807.947	1769.289
381.029	18.405	1806.139	1768.199
382.044	18.261	1804.126	1764.528
383.059	18.197	1802.063	1761.629
384.073	18.030	1801.496	1759.138
385.088	17.954	1800.829	1757.495
386.102	17.911	1799.077	1755.126
387.117	17.840	1797.049	1752.209
388.132	17.874	1796.820	1752.119
389.146	18.543	1798.414	1760.378
390.161	20.371	1800.822	1781.390
391.175	20.085	1795.865	1773.327
392.190	18.400	1789.118	1749.175
393.205	18.051	1785.987	1742.327
394.219	17.997	1785.091	1740.700
395.234	17.962	1784.151	1739.215
396.248	17.923	1782.949	1737.436
397.263	18.038	1780.397	1735.914
398.278	17.971	1778.756	1733.425
399.292	18.044	1777.618	1732.853
400.307	18.186	1777.780	1734.249
401.321	18.409	1775.812	1734.391
402.336	18.176	1775.362	1731.368
403.350	18.232	1773.397	1729.822
404.365	18.468	1772.848	1731.467
405.380	18.698	1771.685	1732.466
406.394	18.575	1770.369	1729.718
407.409	18.538	1768.975	1727.775
408.423	18.436	1766.890	1724.505
409.438	18.302	1765.770	1721.849
410.453	18.228	1765.616	1720.747
411.467	18.432	1764.473	1721.484
412.482	18.275	1761.787	1717.073
413.496	18.323	1760.214	1715.816
414.511	18.264	1758.760	1713.606
415.526	18.187	1755.757	1709.701
416.540	18.075	1754.722	1707.357
417.555	18.009	1754.979	1706.746
418.569	18.038	1754.354	1706.223
419.584	18.032	1754.579	1706.177
420.599	18.174	1753.852	1706.689
421.613	18.104	1753.094	1705.051
422.628	18.181	1751.515	1704.083
423.642	18.155	1749.217	1701.382
424.657	18.187	1747.419	1699.750
425.672	18.141	1746.416	1698.110
426.686	18.162	1744.713	1696.455
427.701	18.054	1743.251	1693.756
428.715	18.111	1742.254	1693.158
429.730	18.276	1740.115	1692.514
430.745	18.328	1738.965	1691.710
431.759	18.313	1738.407	1690.810
432.774	18.178	1737.760	1688.638
433.788	18.168	1737.378	1687.966
434.803	18.215	1736.776	1687.653
435.818	18.210	1735.904	1686.549
436.832	18.088	1735.188	1684.444
437.847	17.048	1728.914	1667.885
438.861	9.576	1707.621	1573.994
439.876	1.757	1693.464	1484.380
440.890	0.320	1689.608	1466.774
441.905	0.182	1688.399	1464.196
442.920	0.144	1687.335	1462.728
443.934	0.124	1685.744	1460.980
444.949	0.194	1684.692	1460.571
445.963	0.099	1684.100	1458.955
446.978	0.137	1683.647	1458.762
447.993	0.089	1681.767	1456.489
449.007	0.255	1678.344	1454.964
450.022	0.121	1677.938	1453.143
451.036	0.133	1676.866	1452.151
452.051	1.133	1681.189	1465.440
453.066	8.947	1698.260	1556.609
454.080	16.399	1709.766	1639.919
455.095	17.699	1711.402	1653.981
456.109	17.845	1711.764	1655.555
457.124	17.962	1709.626	1654.433
458.139	17.882	1708.985	1652.833
459.153	17.999	1707.158	1652.007
460.168	17.988	1705.832	1650.418
461.182	17.983	1704.018	1648.417
462.197	17.921	1702.949	1646.583
463.212	17.849	1700.852	1643.661
464.226	17.815	1700.144	1642.456
465.241	17.874	1698.287	1641.038
466.255	17.868	1697.869	1640.370
467.270	17.963	1696.569	1639.842
468.285	17.866	1694.883	1637.083
469.299	17.938	1693.434	1636.177
470.314	17.908	1691.872	1634.181
471.328	17.953	1690.586	1633.173
472.343	17.922	1689.538	1631.671
473.358	17.890	1688.100	1629.785
474.372	17.889	1687.044	1628.561
475.387	17.862	1686.610	1627.683
476.401	17.824	1685.014	1625.581
477.416	18.053	1683.368	1625.989
478.430	17.917	1682.727	1623.876
479.445	17.900	1681.136	1621.990
480.460	17.848	1680.104	1620.297
481.474	17.897	1679.031	1619.540
482.489	17.942	1677.769	1618.555
483.503	17.983	1675.253	1616.327
484.518	17.936	1674.359	1614.820
485.533	18.074	1673.233	1614.858
486.547	17.988	1671.425	1612.104
487.562	18.039	1671.282	1612.248
488.576	18.114	1669.826	1611.364
489.591	17.984	1668.366	1608.538
490.606	18.127	1666.483	1607.877
491.620	17.947	1665.269	1604.818
492.635	18.124	1662.938	1604.046
493.649	18.068	1662.411	1602.813
494.664	17.802	1661.992	1599.718
495.679	17.824	1660.533	1598.321
496.693	17.932	1658.658	1597.341
497.708	17.832	1657.929	1595.514
498.722	17.875	1657.163	1594.982
499.737	17.935	1655.273	1593.542
500.752	17.888	1653.665	1591.357
501.766	17.856	1651.968	1589.237
502.781	17.995	1649.950	1588.408
503.795	18.009	1648.874	1587.314
504.810	18.009	1647.973	1586.251
505.825	17.915	1647.816	1585.033
506.839	17.869	1646.766	1583.404
507.854	17.972	1645.219	1582.688
508.868	17.870	1643.716	1580.106
509.883	17.941	1642.756	1579.657
510.898	17.968	1641.814	1578.807
511.912	17.949	1639.969	1576.667
512.927	17.819	1637.832	1573.223
513.941	18.003	1636.448	1573.409
514.956	18.016	1635.303	1572.237
515.971	18.048	1634.152	1571.234
516.985	18.170	1632.524	1570.607
518.000	17.930	1632.930	1568.600
519.014	17.846	1631.482	1566.243
520.029	17.959	1629.811	1565.492
521.043	18.030	1628.015	1564.238
522.058	17.949	1627.217	1562.536
523.073	17.966	1626.565	1561.880
524.087	18.067	1625.419	1561.517
525.102	18.043	1623.911	1559.668
526.116	17.975	1622.459	1557.457
527.131	18.020	1621.480	1556.747
528.146	18.152	1620.768	1557.079
529.160	18.022	1619.225	1554.224
530.175	18.111	1618.316	1553.984
531.189	17.968	1617.304	1551.517
532.204	18.124	1616.167	1551.665
533.219	17.976	1615.288	1549.284
534.233	17.995	1614.135	1548.164
535.248	18.027	1613.256	1547.426
536.262	18.091	1611.913	1546.537
537.277	18.212	1610.821	1546.402
538.292	18.116	1609.105	1543.697
539.306	18.106	1607.093	1541.497
540.321	17.971	1605.707	1538.756
541.335	18.109	1605.029	1539.176
542.350	18.009	1603.736	1536.843
543.365	18.101	1601.961	1535.788
544.379	18.188	1600.167	1534.671
545.394	18.215	1599.105	1533.714
546.408	18.009	1598.315	1530.917
547.423	17.999	1596.890	1529.275
548.438	18.079	1595.596	1528.576
549.452	18.161	1593.846	1527.451
550.467	17.961	1593.471	1525.116
551.481	18.073	1592.292	1524.807
552.496	18.040	1591.141	1523.224
553.511	18.113	1590.209	1522.810
554.525	18.105	1589.313	1521.696
555.540	18.104	1589.152	1521.351
556.554	18.112	1587.551	1519.705
557.569	18.144	1585.660	1518.000
558.583	18.029	1584.922	1516.090
559.598	18.008	1583.436	1514.294
560.613	18.083	1582.118	1513.522
561.627	17.990	1581.041	1511.479
562.642	18.077	1579.244	1510.353
563.656	18.159	1578.188	1509.894
564.671	18.025	1577.432	1507.799
565.686	18.021	1575.688	1505.922
566.700	17.948	1574.579	1504.034
567.715	18.044	1572.841	1503.042
568.729	18.092	1571.285	1501.799
569.744	18.011	1570.397	1500.058
570.759	18.023	1569.214	1498.855
571.773	18.000	1568.138	1497.439
572.788	18.115	1566.711	1496.909
573.802	18.145	1565.581	1495.918
574.817	18.000	1564.489	1493.425
575.832	18.096	1563.390	1493.031
576.846	18.174	1561.451	1491.686
577.861	18.194	1560.457	1490.732
578.875	17.982	1560.426	1488.673
579.890	18.158	1559.558	1489.206
580.905	18.029	1557.923	1486.338
581.919	17.962	1558.019	1485.669
582.934	18.234	1555.938	1485.876
583.948	18.160	1555.028	1484.187
584.963	18.226	1553.644	1483.265
585.978	18.000	1552.548	1480.071
586.992	18.064	1551.679	1479.619
588.007	18.333	1551.192	1481.322
589.021	18.235	1549.816	1478.975
590.036	18.061	1548.245	1475.793
591.051	18.132	1547.345	1475.375
592.065	18.312	1544.877	1474.398
593.080	18.290	1543.836	1473.042
594.094	18.236	1542.526	1471.146
595.109	18.061	1540.632	1467.652
596.123	18.111	1538.903	1466.265
597.138	18.133	1538.392	1465.793
598.153	18.158	1537.462	1464.944
599.167	18.213	1535.751	1463.614
600.182	18.135	1535.361	1462.390
601.196	18.101	1534.315	1460.934
602.211	18.114	1533.061	1459.675
603.226	18.093	1531.994	1458.306
604.240	18.101	1530.980	1457.234
605.255	18.207	1529.750	1456.789
606.269	18.021	1528.988	1454.305
607.284	18.031	1528.034	1453.305
608.299	18.208	1525.452	1452.186
609.313	18.107	1524.615	1450.355
610.328	18.203	1523.734	1450.162
611.342	18.188	1522.196	1448.394
612.357	18.255	1521.335	1447.971
613.372	18.293	1520.370	1447.207
614.386	18.142	1519.574	1444.993
615.401	18.276	1518.466	1444.903
616.415	18.126	1518.027	1443.037
617.430	18.224	1516.989	1442.712
618.445	18.130	1515.747	1440.561
619.459	18.090	1515.219	1439.543
620.474	18.160	1513.535	1438.367
621.488	18.195	1511.548	1436.599
622.503	18.065	1511.162	1434.961
623.518	18.017	1510.651	1433.907
624.532	18.201	1508.661	1433.397
625.547	18.210	1507.293	1431.999
626.561	18.370	1506.728	1432.631
627.576	18.268	1506.383	1431.278
628.591	18.258	1504.016	1428.774
629.605	18.176	1503.261	1427.201
630.620	18.243	1501.888	1426.283
631.634	18.141	1500.880	1424.301
632.649	18.090	1499.948	1422.824
633.663	18.265	1498.471	1422.714
634.678	18.173	1496.811	1420.195
635.693	18.317	1494.806	1419.326
636.707	18.169	1494.651	1417.776
637.722	18.322	1494.190	1418.440
638.736	18.288	1492.429	1416.319
639.751	18.384	1490.666	1415.276
640.766	18.390	1489.188	1413.751
641.780	18.386	1488.260	1412.665
642.795	18.283	1487.429	1410.852
643.809	18.389	1487.042	1411.196
644.824	18.389	1486.122	1410.159
645.839	18.285	1485.691	1408.715
646.853	18.203	1484.571	1406.808
647.868	18.196	1482.735	1404.845
648.882	18.319	1481.029	1404.075
649.897	18.331	1479.965	1402.994
650.912	18.274	1478.689	1401.148
651.926	18.277	1477.450	1399.831
652.941	18.298	1476.711	1399.139
653.955	18.241	1474.932	1396.814
654.970	18.274	1473.006	1395.092
655.985	18.227	1472.126	1393.706
656.999	18.344	1471.070	1393.503
658.014	18.564	1469.585	1393.721
659.028	18.324	1469.366	1391.391
660.043	18.388	1468.010	1390.461
661.058	18.338	1466.296	1388.262
662.072	18.380	1466.078	1388.229
663.087	18.433	1464.082	1386.609
664.101	18.317	1463.546	1384.988
665.116	18.385	1462.011	1383.924
666.131	18.404	1461.264	1383.204
667.145	18.376	1460.168	1381.772
668.160	18.231	1459.464	1379.772
669.174	18.448	1458.201	1380.164
670.189	18.441	1456.676	1378.503
671.204	18.242	1456.328	1376.399
672.218	18.302	1455.181	1375.633
673.233	18.262	1453.977	1374.010
674.247	18.322	1453.064	1373.469
675.262	18.312	1452.012	1372.230
676.276	18.274	1451.191	1370.978
677.291	18.239	1450.354	1369.747
678.306	18.267	1448.261	1367.824
679.320	18.327	1447.050	1367.006
680.335	18.343	1447.132	1367.046
681.349	18.567	1446.199	1367.797
682.364	18.357	1444.828	1364.651
683.379	18.312	1443.691	1363.054
684.393	18.254	1442.507	1361.310
685.408	18.253	1441.145	1359.853
686.422	18.233	1440.412	1358.838
687.437	18.234	1439.911	1358.215
688.452	18.363	1439.748	1358.928
689.466	18.239	1437.618	1355.768
690.481	18.319	1435.751	1354.476
691.495	18.249	1434.644	1352.719
692.510	18.260	1433.994	1352.027
693.525	18.143	1432.631	1349.656
694.539	18.238	1432.015	1349.665
695.554	18.162	1431.765	1348.668
696.568	18.330	1430.193	1348.349
697.583	18.399	1428.947	1347.563
698.598	18.244	1428.685	1345.932
699.612	18.313	1426.784	1344.525
700.627	18.351	1425.559	1343.509
701.641	18.389	1424.259	1342.417
702.656	18.389	1423.500	1341.545
703.671	18.404	1423.885	1341.862
704.685	18.356	1422.530	1340.048
705.700	18.409	1420.390	1338.291
706.714	18.555	1418.750	1337.730
707.729	18.493	1417.891	1336.275
708.744	18.376	1417.414	1334.744
709.758	18.398	1415.917	1333.346
710.773	18.397	1414.665	1332.004
711.787	18.520	1413.298	1331.516
712.802	18.422	1412.031	1329.397
713.816	18.376	1411.433	1328.319
714.831	18.467	1410.488	1327.974
715.846	18.386	1410.156	1326.877
716.860	18.552	1407.897	1325.882
717.875	18.573	1407.026	1325.063
718.889	18.403	1406.394	1322.995
719.904	18.491	1404.872	1322.086
720.919	18.476	1403.909	1320.907
721.933	18.348	1403.255	1319.140
722.948	18.422	1402.638	1318.976
723.962	18.400	1401.449	1317.524
724.977	18.558	1399.469	1316.729
725.992	18.430	1399.185	1315.314
727.006	18.421	1398.323	1314.282
728.021	18.435	1396.224	1312.254
729.035	18.478	1395.492	1311.740
730.050	18.421	1394.289	1310.013
731.065	18.361	1393.500	1308.655
732.079	18.346	1392.710	1307.647
733.094	18.360	1391.590	1306.542
734.108	18.518	1389.710	1305.834
735.123	18.439	1388.758	1304.173
736.138	18.575	1386.951	1303.364
737.152	18.552	1386.518	1302.623
738.167	18.381	1385.840	1300.526
739.181	18.571	1384.566	1300.619
740.196	18.515	1383.632	1299.163
741.211	18.620	1382.262	1298.517
742.225	18.542	1382.088	1297.606
743.240	18.532	1380.646	1296.024
744.254	18.429	1379.383	1293.900
745.269	18.401	1378.974	1293.148
746.284	18.453	1377.619	1292.119
747.298	18.417	1376.580	1290.719
748.313	18.269	1375.152	1288.102
749.327	18.229	1374.684	1287.208
750.342	18.242	1374.148	1286.648
751.356	18.351	1372.181	1285.477
752.371	18.429	1370.865	1284.677
753.386	18.457	1370.347	1284.246
754.400	18.430	1369.813	1283.391
755.415	18.471	1368.745	1282.549
756.429	18.466	1367.458	1281.150
757.444	18.488	1365.674	1279.489
758.459	18.500	1365.124	1278.912
759.473	18.620	1364.295	1278.882
760.488	18.728	1362.983	1278.304
761.502	18.658	1362.382	1277.066
762.517	18.595	1360.887	1275.041
763.532	18.550	1359.429	1273.190
764.546	18.611	1357.863	1272.022
765.561	18.452	1358.177	1270.976
766.575	18.446	1357.294	1269.954
767.590	18.285	1356.213	1267.590
768.605	18.553	1354.271	1267.620
769.619	18.623	1353.216	1267.003
770.634	18.496	1352.736	1265.459
771.648	18.477	1352.214	1264.672
772.663	18.684	1350.621	1264.565
773.678	18.688	1349.578	1263.473
774.692	18.558	1348.761	1261.591
775.707	18.653	1348.249	1261.667
776.721	18.612	1347.812	1260.798
777.736	18.402	1346.732	1258.090
778.751	18.560	1344.991	1257.475
779.765	18.568	1344.646	1257.064
780.780	18.539	1343.924	1256.023
781.794	18.495	1342.582	1254.295
782.809	18.306	1341.880	1252.098
783.824	18.454	1340.366	1251.629
784.838	18.341	1338.869	1249.248
785.853	18.299	1337.666	1247.669
786.867	18.355	1336.575	1246.912
787.882	18.353	1336.672	1246.840
788.897	18.392	1335.524	1245.903
789.911	18.458	1334.917	1245.671
790.926	18.418	1333.491	1243.896
791.940	18.520	1331.510	1242.641
792.955	18.613	1330.108	1241.866
793.969	18.611	1329.368	1241.013
794.984	18.504	1329.066	1239.805
795.999	18.531	1328.164	1239.011
797.013	18.654	1326.253	1237.966
798.028	18.494	1325.369	1235.839
799.042	18.489	1324.966	1235.276
800.057	18.653	1323.873	1235.292
801.072	18.618	1322.368	1233.489
802.086	18.530	1321.350	1231.756
803.101	18.632	1320.585	1231.632
804.115	18.593	1319.770	1230.446
805.130	18.528	1318.688	1228.820
806.145	18.686	1317.089	1228.323
807.159	18.659	1315.128	1226.149
808.174	18.673	1314.420	1225.447
809.188	18.737	1313.088	1224.514
810.203	18.634	1311.581	1222.226
811.218	18.689	1310.289	1221.266
812.232	18.620	1308.826	1219.267
813.247	18.549	1308.531	1218.341
814.261	18.494	1308.089	1217.388
815.276	18.612	1307.215	1217.269
816.291	18.461	1306.738	1215.603
817.305	18.526	1305.372	1214.650
818.320	18.830	1303.387	1214.820
819.334	18.715	1302.067	1212.626
820.349	18.521	1301.154	1210.259
821.364	18.603	1299.795	1209.430
822.378	18.566	1297.916	1207.275
823.393	18.585	1296.715	1206.143
824.407	18.537	1296.012	1205.007
825.422	18.505	1296.093	1204.713
826.437	18.472	1294.873	1203.200
827.451	18.287	1292.805	1199.831
828.466	18.374	1291.308	1198.913
829.480	18.464	1288.989	1197.249
830.495	18.532	1287.422	1196.123
831.509	18.300	1287.547	1194.470
832.524	18.547	1286.452	1195.043
833.539	18.414	1285.653	1193.228
834.553	18.480	1284.590	1192.561
835.568	18.635	1283.055	1192.074
836.582	18.708	1281.942	1191.411
837.597	18.819	1280.402	1190.608
838.612	18.773	1278.884	1188.733
839.626	18.898	1277.741	1188.397
840.641	18.682	1277.641	1186.657
841.655	18.677	1276.414	1185.341
842.670	18.452	1275.172	1182.487
843.685	18.576	1274.064	1182.179
844.699	18.664	1272.810	1181.485
845.714	18.828	1271.715	1181.460
846.728	18.872	1271.029	1180.984
847.743	18.811	1269.738	1179.223
848.758	18.952	1268.701	1179.091
849.772	18.820	1267.511	1176.933
850.787	18.759	1266.307	1175.255
851.801	18.506	1265.353	1172.492
852.816	18.646	1264.282	1172.318
853.831	18.478	1263.204	1170.027
854.845	18.659	1260.606	1168.717
855.860	18.580	1259.083	1166.625
856.874	18.575	1258.127	1165.569
857.889	18.445	1257.186	1163.669
858.904	18.441	1255.772	1162.196
859.918	18.457	1253.445	1160.007
860.933	18.382	1252.437	1158.426
861.947	18.424	1252.710	1158.825
862.962	18.388	1251.136	1156.988
863.977	18.502	1249.820	1156.409
864.991	18.365	1249.400	1154.949
866.006	18.628	1249.030	1156.253
867.020	18.707	1247.255	1155.002
868.035	18.537	1246.496	1153.018
869.049	18.596	1246.155	1152.958
870.064	18.852	1244.652	1153.158
871.079	18.678	1244.389	1151.604
872.093	18.788	1243.970	1151.820
873.108	18.787	1242.700	1150.499
874.122	18.707	1240.916	1148.174
875.137	18.525	1240.638	1146.552
876.152	18.752	1239.344	1146.744
877.166	18.860	1237.747	1145.856
878.181	18.865	1236.286	1144.395
879.195	18.850	1236.096	1143.984
880.210	18.833	1235.644	1143.312
881.225	18.840	1234.388	1142.065
882.239	18.754	1233.470	1140.501
883.254	18.845	1232.529	1140.101
884.268	18.824	1231.742	1139.101
885.283	18.837	1229.957	1137.399
886.298	18.667	1228.813	1135.074
887.312	18.748	1228.629	1135.303
888.327	18.679	1226.983	1133.195
889.341	18.737	1225.583	1132.144
890.356	18.679	1225.072	1131.154
891.371	18.809	1224.753	1131.588
892.385	18.770	1224.027	1130.524
893.400	18.612	1223.180	1128.560
894.414	18.587	1221.576	1126.782
895.429	18.711	1219.911	1125.926
896.444	18.482	1218.315	1122.810
897.458	18.362	1217.347	1120.993
898.473	18.471	1217.108	1121.357
899.487	18.673	1216.031	1121.557
900.502	18.828	1214.459	1120.990
901.517	18.643	1213.545	1118.802
902.531	18.659	1212.561	1117.865
903.546	18.850	1212.054	1118.511
904.560	18.862	1211.330	1117.786
905.575	18.863	1210.248	1116.664
906.589	18.837	1209.941	1116.076
907.604	18.779	1209.415	1115.078
