DTS Sentinel unit serial number:	SN409020Multiplexer serial number:	ORYXHardware model number:	OX4-SRSoftware version number:	ORYX F/W v3.00 Oryx Data Collector v3.7.2.0data status	okinstallation	HaddamTimeLapsedifferential loss correction	single-endedforward channel	channel 3reverse channel	N/Adate	2011/06/22time	01:31:17forward acquisition time	30.00reverse acquisition time	0.00gamma	498.7831k internal	0.1751k external	0.1751temperature offset calibration	1.0074default loss term (dB/km)	0.3790temperature slope calibration	1.3530multiplexer offset coefficient	1.0000multiplexer slope coefficient	1.0000fibre end	0.00T internal ref (°C)	22.50T ext. ref 1 (°C)	17.73T ext. ref 2 (°C)	0.00length (m)	temperature (°C)	Stokes	anti-Stokes-747.200	-2.101	-0.082	0.076
-746.185	251.545	0.141	0.320
-745.171	-71.726	-0.359	0.177
-744.156	-99.289	-0.712	0.237
-743.142	-105.217	0.159	-0.048
-742.127	98.585	0.115	0.176
-741.112	211.914	-0.219	-0.460
-740.098	-99.116	0.683	0.228
-739.083	694.373	0.081	-0.283
-738.069	12.031	-0.356	0.364
-737.054	-114.110	-0.401	0.102
-736.039	-19.159	-0.242	0.199
-735.025	800.000	0.053	-0.231
-734.010	-99.347	0.182	-0.060
-732.996	-86.159	-0.311	-0.127
-731.981	800.000	-0.135	-0.502
-730.966	124.595	0.111	-0.186
-729.952	666.250	-0.088	-0.305
-728.937	796.199	-0.135	-0.497
-727.923	800.000	-0.097	-0.411
-726.908	-44.242	-0.405	-0.269
-725.894	-200.000	-0.010	0.147
-724.879	77.059	-0.362	-0.511
-723.864	-107.220	0.419	-0.122
-722.850	-13.806	0.447	-0.383
-721.835	-184.930	-0.097	0.002
-720.821	-116.006	0.107	-0.026
-719.806	39.378	0.135	-0.161
-718.791	-140.947	0.654	-0.088
-717.777	603.578	0.119	-0.394
-716.762	-62.466	0.309	-0.170
-715.748	242.811	0.020	0.044
-714.733	58.100	0.178	-0.231
-713.718	-200.000	-0.067	0.551
-712.704	800.000	-0.041	-0.162
-711.689	-130.497	-0.444	-0.079
-710.675	-87.018	-0.349	-0.140
-709.660	-127.514	-0.237	0.045
-708.645	263.765	0.167	0.386
-707.631	-200.000	0.012	-0.212
-706.616	-176.187	0.178	-0.006
-705.602	-11.689	-0.095	0.083
-704.587	89.036	-0.136	0.201
-703.572	-49.988	0.389	0.244
-702.558	448.653	0.095	0.278
-701.543	-34.075	0.281	-0.204
-700.529	-12.331	-0.098	0.085
-699.514	-61.092	-0.730	0.407
-698.499	605.013	0.214	0.709
-697.485	800.000	-0.054	0.233
-696.470	-76.216	-0.249	-0.116
-695.456	-164.570	-0.378	-0.022
-694.441	-73.057	0.191	-0.092
-693.426	102.949	-0.123	-0.191
-692.412	-86.363	0.456	0.185
-691.397	136.766	0.296	0.514
-690.383	-110.110	-0.339	-0.093
-689.368	-69.113	0.172	-0.087
-688.354	-79.040	-0.508	0.228
-687.339	53.760	-0.225	0.286
-686.324	800.000	-0.081	0.384
-685.310	-115.598	-0.412	0.102
-684.295	146.291	-0.041	-0.072
-683.281	-85.504	0.559	-0.230
-682.266	-33.827	-0.292	-0.212
-681.251	558.191	-0.175	-0.562
-680.237	-25.119	-0.164	0.129
-679.222	41.807	-0.202	0.242
-678.208	4.677	0.090	-0.088
-677.193	103.351	-0.377	-0.587
-676.178	-38.742	-0.195	-0.136
-675.164	-152.236	-0.414	-0.039
-674.149	27.175	0.091	-0.101
-673.135	306.423	0.206	-0.509
-672.120	76.394	-0.129	0.182
-671.105	-65.339	-0.159	-0.085
-670.091	-15.725	-0.102	0.086
-669.076	-98.699	0.320	0.107
-668.062	800.000	0.138	-0.538
-667.047	-168.752	-0.328	-0.016
-666.032	-94.009	0.331	0.120
-665.018	43.079	0.247	0.299
-664.003	68.699	0.125	0.170
-662.989	-73.100	0.523	0.253
-661.974	-49.622	-0.382	-0.240
-660.959	-28.527	-0.381	-0.290
-659.945	42.287	-0.246	0.296
-658.930	-200.000	-0.023	-0.330
-657.916	28.137	0.352	-0.393
-656.901	-64.556	-0.211	-0.113
-655.886	-45.055	-0.336	-0.221
-654.872	-200.000	-0.028	-0.459
-653.857	-200.000	0.062	-0.402
-652.843	-89.182	-0.459	0.179
-651.828	113.316	-0.358	-0.576
-650.814	-176.967	-0.322	0.011
-649.799	-97.856	-0.484	0.164
-648.784	-99.056	-0.467	0.155
-647.770	-147.923	0.086	0.009
-646.755	21.073	-0.218	-0.234
-645.741	-38.811	-0.175	0.122
-644.726	-96.670	-0.224	0.078
-643.711	-66.343	-0.355	-0.186
-642.697	1.707	0.296	0.282
-641.682	567.895	-0.101	0.327
-640.668	192.796	-0.146	0.293
-639.653	123.773	0.172	0.286
-638.638	2.221	0.117	0.112
-637.624	-200.000	-0.001	0.454
-636.609	128.441	0.108	0.182
-635.595	-10.399	0.384	0.337
-634.580	27.103	-0.090	-0.099
-633.565	800.000	0.045	-0.217
-632.551	-200.000	0.426	0.002
-631.536	240.544	0.019	0.042
-630.522	-200.000	0.027	0.272
-629.507	-200.000	0.024	-0.275
-628.492	178.005	0.112	0.216
-627.478	269.958	0.078	-0.181
-626.463	-166.471	0.399	0.022
-625.449	-87.167	0.262	-0.105
-624.434	238.074	-0.018	-0.041
-623.419	309.215	0.116	0.289
-622.405	-88.234	0.406	0.160
-621.390	-78.496	-0.269	0.121
-620.376	-16.306	-0.298	-0.249
-619.361	-92.481	-0.311	0.115
-618.346	484.495	0.086	0.260
-617.332	-200.000	0.195	-0.001
-616.317	-200.000	0.015	-0.099
-615.303	-72.535	0.278	-0.135
-614.288	-143.797	-0.319	0.039
-613.273	-134.777	-0.108	0.017
-612.259	-63.576	-0.417	-0.225
-611.244	-51.453	-0.544	-0.335
-610.230	-133.417	-0.644	-0.106
-609.215	-96.441	0.437	0.152
-608.201	-27.775	0.489	0.374
-607.186	-8.351	0.257	-0.228
-606.171	-47.106	-0.047	-0.030
-605.157	-132.251	0.394	-0.067
-604.142	127.288	0.045	0.076
-603.128	72.152	0.107	0.148
-602.113	103.865	-0.396	0.615
-601.098	127.598	0.214	0.359
-600.084	-151.953	0.310	0.029
-599.069	73.425	0.075	0.104
-598.055	-200.000	0.010	-0.261
-597.040	-116.064	-0.052	-0.013
-596.025	-121.883	0.146	-0.031
-595.011	-38.439	0.294	0.205
-593.996	-120.891	0.336	-0.074
-592.982	-36.501	-0.017	-0.012
-591.967	-125.627	-0.105	0.021
-590.952	-150.567	0.205	-0.020
-589.938	-89.619	0.236	-0.091
-588.923	-54.622	0.123	-0.073
-587.909	128.878	-0.154	0.260
-586.894	8.196	-0.481	0.477
-585.879	-200.000	-0.013	0.413
-584.865	34.563	-0.360	0.415
-583.850	-63.743	-0.091	0.049
-582.836	72.516	-0.228	0.314
-581.821	-145.383	-0.249	-0.029
-580.806	344.423	0.118	-0.306
-579.792	105.257	-0.229	-0.358
-578.777	23.837	-0.253	-0.275
-577.763	-200.000	-0.463	-0.002
-576.748	-38.185	-0.134	-0.094
-575.733	-49.424	0.405	-0.254
-574.719	26.980	-0.169	0.187
-573.704	110.026	-0.207	0.328
-572.690	257.708	0.242	0.551
-571.675	192.718	0.190	-0.380
-570.661	19.920	-0.144	0.154
-569.646	800.000	-0.024	0.125
-568.631	36.766	-0.235	-0.275
-567.617	-21.624	-0.497	-0.399
-566.602	192.354	0.112	0.224
-565.588	-200.000	0.067	-0.492
-564.573	-200.000	0.067	-0.659
-563.558	93.388	-0.210	-0.314
-562.544	29.557	0.296	-0.332
-561.529	-48.561	0.251	-0.159
-560.515	184.950	0.148	-0.290
-559.500	800.000	-0.046	0.177
-558.485	800.000	0.057	0.215
-557.471	-70.065	-0.094	-0.047
-556.456	-117.179	0.272	0.065
-555.442	34.442	-0.051	0.059
-554.427	109.501	0.251	-0.396
-553.412	-173.376	-0.419	-0.016
-552.398	-76.137	-0.441	0.204
-551.383	-71.986	0.235	-0.115
-550.369	-160.855	0.101	0.007
-549.354	-118.737	0.356	0.082
-548.339	-200.000	-0.040	0.261
-547.325	-122.490	0.619	-0.132
-546.310	70.726	-0.180	0.246
-545.296	-172.540	-0.173	-0.007
-544.281	139.810	0.067	-0.116
-543.266	-4.221	0.292	0.266
-542.252	-103.317	-0.382	0.118
-541.237	-126.510	0.392	0.076
-540.223	268.158	0.142	0.328
-539.208	14.968	-0.519	-0.535
-538.193	800.000	0.099	-0.381
-537.179	-32.998	0.152	0.111
-536.164	-20.120	0.305	0.247
-535.150	154.554	-0.076	0.138
-534.135	-125.483	-0.656	-0.130
-533.121	220.697	0.122	0.259
-532.106	54.843	-0.245	0.311
-531.091	-157.091	0.479	0.038
-530.077	2.903	-0.177	-0.169
-529.062	179.671	-0.096	0.186
-528.048	-45.620	0.195	-0.127
-527.033	34.206	0.320	-0.367
-526.018	-37.112	-0.254	-0.178
-525.004	-102.148	0.050	0.016
-523.989	-97.218	-0.258	-0.088
-522.975	23.277	-0.076	-0.083
-521.960	325.652	-0.067	0.169
-520.945	-200.000	0.016	-0.299
-519.931	-200.000	0.027	-0.208
-518.916	63.662	-0.210	-0.278
-517.902	800.000	-0.107	-0.429
-516.887	-16.267	0.031	-0.026
-515.872	-200.000	0.030	0.495
-514.858	-6.172	0.081	-0.072
-513.843	-43.821	0.336	-0.222
-512.829	11.821	0.362	-0.366
-511.814	-132.138	0.522	-0.088
-510.799	-117.627	0.353	-0.083
-509.785	-97.501	-0.502	-0.171
-508.770	665.766	0.132	-0.452
-507.756	-76.890	0.251	0.115
-506.741	-125.090	-0.236	-0.047
-505.726	-61.839	-0.405	0.222
-504.712	-200.000	-0.009	0.172
-503.697	159.036	-0.140	0.257
-502.683	-81.728	0.105	0.045
-501.668	125.878	0.070	0.116
-500.653	-84.013	0.203	-0.084
-499.639	-200.000	-0.024	-0.200
-498.624	252.279	0.255	0.573
-497.610	-129.397	0.382	-0.069
-496.595	759.215	-0.084	0.300
-495.581	-43.749	0.203	0.134
-494.566	-18.571	0.162	-0.133
-493.551	10.188	0.088	-0.088
-492.537	-98.823	-0.250	0.083
-491.522	-71.914	0.237	0.115
-490.508	-200.000	0.020	-0.264
-489.493	14.552	0.142	-0.145
-488.478	-200.000	-0.007	-0.048
-487.464	-75.005	-0.232	-0.109
-486.449	262.983	-0.042	0.097
-485.435	381.972	-0.300	-0.814
-484.420	84.855	-0.128	0.185
-483.405	-38.269	0.170	0.118
-482.391	-10.691	0.274	-0.238
-481.376	-82.180	0.532	0.227
-480.362	-109.856	0.271	-0.074
-479.347	-107.947	0.475	-0.135
-478.332	-106.486	-0.210	0.061
-477.318	-11.761	0.309	-0.266
-476.303	419.919	-0.020	-0.055
-475.289	-200.000	-0.016	0.245
-474.274	259.840	-0.255	0.581
-473.259	773.925	0.097	0.349
-472.245	-71.505	0.352	-0.172
-471.230	-142.864	-0.293	-0.037
-470.216	-41.130	0.255	-0.173
-469.201	800.000	0.020	-0.101
-468.186	800.000	0.038	-0.156
-467.172	-159.865	-0.197	0.014
-466.157	-42.574	0.312	0.208
-465.143	-143.674	-0.270	0.033
-464.128	-120.883	-0.548	-0.120
-463.113	-116.706	-0.206	-0.049
-462.099	-76.209	0.403	0.186
-461.084	-66.316	-0.157	-0.082
-460.070	-200.000	0.018	-0.137
-459.055	-12.461	-0.134	-0.115
-458.040	-42.971	0.103	0.068
-457.026	308.747	0.138	-0.340
-456.011	800.000	-0.073	0.301
-454.997	21.848	0.127	-0.135
-453.982	-14.522	-0.210	-0.177
-452.968	524.144	0.111	0.345
-451.953	-158.556	-0.271	0.020
-450.938	-49.383	-0.271	-0.169
-449.924	-132.032	-0.265	0.045
-448.909	-82.512	0.049	-0.021
-447.895	538.913	0.157	-0.492
-446.880	-156.016	-0.239	0.020
-445.865	-67.078	-0.309	-0.159
-444.851	-91.308	-0.141	0.053
-443.836	800.000	0.048	-0.251
-442.822	-63.240	0.370	-0.199
-441.807	134.466	-0.378	-0.644
-440.792	800.000	0.156	0.584
-439.778	228.206	0.145	0.311
-438.763	11.093	-0.120	-0.120
-437.749	-2.503	0.430	-0.395
-436.734	342.365	-0.121	-0.312
-435.719	-200.000	0.007	0.686
-434.705	273.153	-0.147	0.343
-433.690	-200.000	0.011	0.303
-432.676	28.345	-0.315	-0.350
-431.661	574.108	0.067	-0.215
-430.646	-60.789	0.173	-0.096
-429.632	257.191	-0.104	-0.236
-428.617	-156.455	-0.345	-0.028
-427.603	-200.000	-0.049	-0.339
-426.588	-96.140	-0.217	0.075
-425.573	-101.970	0.261	-0.082
-424.559	800.000	0.036	-0.180
-423.544	160.303	-0.163	-0.299
-422.530	-105.616	0.471	-0.139
-421.515	342.447	0.067	0.171
-420.500	-13.862	0.195	-0.165
-419.486	22.776	0.300	0.322
-418.471	-152.687	0.600	-0.055
-417.457	-200.000	0.001	-0.522
-416.442	-200.000	-0.016	-0.255
-415.428	1.197	-0.361	0.340
-414.413	72.979	-0.262	-0.360
-413.398	598.697	0.064	0.211
-412.384	-114.517	0.029	-0.007
-411.369	19.756	-0.071	-0.075
-410.355	-41.316	0.340	-0.229
-409.340	91.206	-0.189	-0.279
-408.325	-104.111	0.547	0.166
-407.311	-73.201	-0.023	0.011
-406.296	-101.404	0.593	0.188
-405.282	89.061	-0.067	0.098
-404.267	-200.000	-0.061	-0.502
-403.252	41.462	0.251	-0.298
-402.238	-200.000	-0.001	0.313
-401.223	-200.000	-0.027	-0.177
-400.209	-86.049	0.274	0.110
-399.194	209.584	-0.173	-0.356
-398.179	-9.287	-0.328	-0.287
-397.165	-50.564	-0.102	-0.063
-396.150	-90.799	0.301	-0.113
-395.136	-120.064	-0.379	-0.084
-394.121	-200.000	-0.003	-0.231
-393.106	700.633	-0.098	-0.341
-392.092	147.333	0.201	0.356
-391.077	-2.892	0.098	-0.089
-390.063	663.133	0.097	-0.328
-389.048	2.409	-0.182	-0.172
-388.033	-142.614	-0.152	-0.019
-387.019	29.338	-0.413	0.460
-386.004	88.935	0.146	-0.214
-384.990	-200.000	-0.007	-0.367
-383.975	-76.310	0.045	-0.021
-382.960	800.000	0.069	0.299
-381.946	-21.283	-0.210	-0.168
-380.931	-69.915	0.233	0.116
-379.917	-106.344	0.097	-0.028
-378.902	800.000	-0.061	-0.338
-377.888	-53.496	0.339	0.203
-376.873	368.322	-0.230	-0.613
-375.858	545.315	-0.107	-0.337
-374.844	-127.245	0.227	-0.043
-373.829	-57.294	0.443	0.254
-372.815	800.000	-0.068	0.388
-371.800	-109.960	-0.236	0.064
-370.785	800.000	0.100	0.449
-369.771	-157.991	0.197	0.015
-368.756	16.094	0.032	-0.033
-367.742	395.745	0.164	0.451
-366.727	-123.734	0.253	-0.052
-365.712	-96.102	0.439	0.152
-364.698	178.197	-0.160	0.306
-363.683	59.889	0.059	-0.076
-362.669	-200.000	0.003	-0.032
-361.654	463.788	-0.028	-0.082
-360.639	-135.427	0.294	-0.045
-359.625	800.000	-0.136	0.724
-358.610	-122.187	0.118	0.025
-357.596	-83.199	0.206	0.086
-356.581	58.376	-0.359	-0.461
-355.566	-145.833	-0.309	-0.036
-354.552	-61.570	-0.460	0.252
-353.537	-200.000	0.020	-0.183
-352.523	-33.936	-0.197	-0.141
-351.508	-200.000	-0.040	-0.303
-350.493	-72.967	0.240	0.115
-349.479	140.608	-0.207	0.359
-348.464	-5.917	-0.374	0.335
-347.450	-27.346	-0.229	0.174
-346.435	-200.000	0.029	0.532
-345.420	-21.254	0.191	0.152
-344.406	576.151	-0.155	0.498
-343.391	280.775	-0.094	-0.222
-342.377	-109.040	-0.470	-0.130
-341.362	-150.176	0.207	0.021
-340.348	-127.406	0.137	0.026
-339.333	-31.490	0.225	-0.165
-338.318	-88.732	0.298	0.115
-337.304	15.782	-0.107	0.110
-336.289	80.066	-0.019	0.027
-335.275	-15.154	-0.025	-0.021
-334.260	-98.675	-0.059	-0.019
-333.245	800.000	-0.032	-0.145
-332.231	-32.404	-0.096	-0.070
-331.216	120.723	0.202	-0.330
-330.202	-16.563	-0.087	-0.072
-329.187	800.000	0.030	0.153
-328.172	134.969	-0.307	0.523
-327.158	-200.000	0.014	0.202
-326.143	-120.125	0.171	-0.038
-325.129	-74.121	0.542	-0.255
-324.114	144.092	0.183	-0.319
-323.099	39.968	-0.577	0.677
-322.085	800.000	-0.052	0.247
-321.070	198.415	-0.189	0.379
-320.056	-45.418	-0.335	-0.216
-319.041	308.263	-0.046	-0.112
-318.026	259.977	-0.318	0.719
-317.012	-200.000	0.076	0.541
-315.997	89.188	0.214	0.312
-314.983	-200.000	0.061	0.783
-313.968	800.000	-0.030	0.142
-312.953	-20.315	-0.211	-0.169
-311.939	-200.000	-0.004	0.136
-310.924	-26.527	0.091	-0.070
-309.910	457.590	-0.052	0.151
-308.895	-200.000	0.027	-0.230
-307.880	118.268	-0.187	-0.301
-306.866	-200.000	0.004	0.504
-305.851	-60.070	-0.347	0.193
-304.837	-21.494	-0.568	0.451
-303.822	-49.066	0.176	-0.109
-302.807	-200.000	0.089	0.690
-301.793	120.465	-0.143	0.233
-300.778	516.870	-0.038	-0.116
-299.764	-71.916	-0.451	0.218
-298.749	-125.079	0.251	0.050
-297.735	209.724	0.115	-0.237
-296.720	-162.966	-0.312	-0.019
-295.705	-157.272	0.188	0.015
-294.691	-142.591	-0.526	-0.067
-293.676	226.395	-0.113	0.240
-292.662	76.496	0.184	-0.254
-291.647	-58.432	0.300	-0.170
-290.632	388.385	-0.125	-0.340
-289.618	-68.020	0.328	0.166
-288.603	54.499	-0.096	-0.121
-287.589	-43.695	0.557	-0.365
-286.574	91.239	0.237	0.348
-285.559	257.221	-0.035	0.079
-284.545	348.389	-0.117	-0.302
-283.530	-73.092	0.338	0.161
-282.516	290.438	0.227	-0.541
-281.501	90.401	-0.076	0.112
-280.486	-143.575	0.456	0.056
-279.472	118.745	0.180	-0.291
-278.457	-80.605	-0.076	-0.033
-277.443	-121.826	-0.249	0.053
-276.428	6.041	-0.004	0.004
-275.413	-68.086	-0.170	-0.086
-274.399	-80.123	0.365	0.159
-273.384	206.862	0.036	0.072
-272.370	-111.071	-0.173	0.046
-271.355	-24.010	0.179	0.139
-270.340	158.212	-0.344	0.623
-269.326	-74.187	-0.147	-0.069
-268.311	95.072	0.153	-0.228
-267.297	116.682	-0.026	0.042
-266.282	177.457	0.213	-0.405
-265.267	265.253	0.051	-0.115
-264.253	160.985	0.053	-0.098
-263.238	-105.754	-0.375	0.110
-262.224	-200.000	0.084	0.000
-261.209	419.225	0.159	-0.445
-260.195	-35.408	-0.235	-0.166
-259.180	39.480	0.122	0.142
-258.165	-106.266	0.170	-0.049
-257.151	800.000	-0.105	-0.381
-256.136	425.544	0.054	-0.152
-255.122	84.294	0.399	-0.569
-254.107	40.685	-0.258	-0.303
-253.092	665.631	-0.034	-0.114
-252.078	46.381	0.033	-0.040
-251.063	528.678	-0.186	-0.575
-250.049	-200.000	-0.036	-0.359
-249.034	-4.157	-0.209	-0.188
-248.019	-0.969	-0.131	-0.121
-247.005	-111.950	0.237	0.062
-245.990	-65.548	0.220	-0.115
-244.976	-106.460	0.244	-0.070
-243.961	-157.567	0.131	-0.010
-242.946	26.640	-0.250	0.272
-241.932	30.352	-0.174	-0.194
-240.917	-83.138	-0.230	0.096
-239.903	58.194	0.248	-0.316
-238.888	-200.000	0.046	0.421
-237.873	-108.238	-0.243	0.068
-236.859	-200.000	-0.020	-0.211
-235.844	328.456	0.108	0.272
-234.830	285.267	-0.095	-0.223
-233.815	-107.302	-0.565	-0.161
-232.800	-55.252	-0.517	0.301
-231.786	103.596	-0.223	0.342
-230.771	219.318	-0.204	-0.426
-229.757	11.116	-0.092	-0.092
-228.742	-22.115	-0.328	-0.258
-227.727	-164.047	-0.446	-0.027
-226.713	-74.218	0.179	-0.084
-225.698	181.504	-0.170	0.327
-224.684	-14.181	0.240	0.201
-223.669	-16.438	0.171	0.141
-222.655	267.768	0.184	0.420
-221.640	-55.800	0.310	-0.180
-220.625	-56.152	0.257	0.148
-219.611	97.859	-0.212	-0.318
-218.596	6.028	0.053	0.051
-217.582	-112.717	0.195	-0.050
-216.567	88.693	-0.254	0.368
-215.552	219.236	-0.134	-0.280
-214.538	113.173	0.153	-0.242
-213.523	93.000	-0.149	0.220
-212.509	51.835	-0.320	0.396
-211.494	-28.792	-0.257	0.192
-210.479	-200.000	-0.025	0.152
-209.465	-109.380	0.225	0.061
-208.450	-64.041	0.469	0.248
-207.436	-200.000	0.580	-0.001
-206.421	118.079	0.225	-0.362
-205.406	-188.943	-0.471	-0.007
-204.392	75.847	0.322	0.443
-203.377	-153.660	-0.125	-0.011
-202.363	-6.469	-0.253	0.224
-201.348	800.000	0.028	0.119
-200.333	124.422	0.189	0.310
-199.319	-52.758	-0.175	-0.104
-198.304	-11.818	0.448	-0.382
-197.290	9.912	-0.251	0.248
-196.275	-200.000	-0.479	0.000
-195.260	0.804	-0.285	-0.265
-194.246	-26.871	0.129	-0.098
-193.231	13.009	0.214	-0.216
-192.217	-200.000	0.013	0.282
-191.202	-81.564	-0.340	-0.144
-190.187	44.336	0.152	0.181
-189.173	800.000	0.043	0.237
-188.158	-23.594	-0.235	-0.183
-187.144	-132.422	-0.138	0.023
-186.129	-200.000	0.026	-0.243
-185.114	-200.000	0.001	-0.042
-184.100	-31.278	0.073	-0.053
-183.085	-111.642	-0.254	0.066
-182.071	-108.938	-0.431	-0.119
-181.056	-125.720	-0.223	-0.043
-180.042	-10.191	0.223	0.192
-179.027	-127.483	0.082	0.015
-178.012	-151.969	0.174	-0.016
-176.998	-106.111	-0.545	-0.158
-175.983	648.664	-0.109	-0.363
-174.969	10.473	0.182	-0.180
-173.954	800.000	0.047	0.224
-172.939	-62.476	0.358	0.193
-171.925	251.080	-0.139	0.308
-170.910	-200.000	0.008	-0.226
-169.896	-127.744	0.220	0.041
-168.881	2.930	0.346	-0.326
-167.866	24.136	-0.398	-0.427
-166.852	-49.473	-0.265	-0.164
-165.837	-121.890	0.345	0.073
-164.823	118.778	0.061	-0.098
-163.808	-97.570	0.545	0.183
-162.793	800.000	0.121	0.467
-161.779	800.000	0.066	0.291
-160.764	800.000	0.057	0.279
-159.750	-200.000	-0.003	-0.060
-158.735	-177.005	-0.283	0.009
-157.720	97.750	0.123	-0.184
-156.706	-200.000	0.010	-0.061
-155.691	-157.234	-0.174	-0.013
-154.677	-197.010	-0.321	0.003
-153.662	-25.230	-0.197	0.151
-152.647	-200.000	-0.013	-0.149
-151.633	-78.629	0.142	-0.063
-150.618	491.935	-0.032	-0.096
-149.604	-138.904	-0.317	0.044
-148.589	335.511	0.049	0.123
-147.574	800.000	-0.057	-0.215
-146.560	-113.379	-0.185	-0.047
-145.545	800.000	0.100	0.471
-144.531	-187.781	-0.327	0.005
-143.516	-67.400	0.689	-0.350
-142.502	-72.212	-0.348	-0.167
-141.487	800.000	0.112	-0.416
-140.472	184.363	0.102	-0.197
-139.458	180.683	0.096	0.184
-138.443	-138.817	0.009	-0.001
-137.429	-92.336	0.501	0.182
-136.414	228.748	0.135	0.286
-135.399	-200.000	-0.009	0.282
-134.385	-200.000	0.045	-0.344
-133.370	286.427	-0.137	0.321
-132.356	-173.614	-0.039	-0.001
-131.341	252.406	-0.170	0.378
-130.326	800.000	-0.099	-0.495
-129.312	-93.722	-0.250	0.089
-128.297	14.725	-0.103	0.104
-127.283	2.135	0.437	-0.409
-126.268	22.861	-0.088	0.093
-125.253	-89.255	-0.259	0.099
-124.239	251.320	-0.176	0.390
-123.224	-80.068	0.242	-0.105
-122.210	185.448	0.241	0.465
-121.195	140.263	0.237	-0.406
-120.180	262.484	0.147	0.332
-119.166	-200.000	0.030	-0.208
-118.151	-200.000	0.001	-0.004
-117.137	-143.105	-0.304	0.038
-116.122	-89.797	0.138	0.052
-115.107	-97.683	0.142	-0.047
-114.093	-145.196	0.342	-0.040
-113.078	-77.927	-0.308	-0.137
-112.064	387.416	0.084	0.225
-111.049	-37.201	0.424	0.293
-110.034	12.630	-0.346	0.346
-109.020	-200.000	0.007	0.135
-108.005	-200.000	-0.034	0.348
-106.991	-95.842	0.219	-0.075
-105.976	74.179	-0.116	0.158
-104.962	49.172	-0.329	-0.401
-103.947	-99.612	0.202	0.065
-102.932	-33.621	0.276	0.197
-101.918	-15.556	-0.184	0.152
-100.903	19.239	-0.083	0.086
-99.889	-8.337	0.202	-0.176
-98.874	-78.642	0.120	-0.053
-97.859	-0.197	-0.240	-0.221
-96.845	800.000	-0.026	0.107
-95.830	91.590	0.202	-0.295
-94.816	248.230	-0.076	-0.167
-93.801	-56.934	0.210	0.120
-92.786	-96.890	-0.134	-0.045
-91.772	19.551	-0.306	0.319
-90.757	-200.000	-0.043	-0.321
-89.743	-200.000	0.015	-0.372
-88.728	14.496	-0.515	-0.521
-87.713	61.152	0.262	0.338
-86.699	-121.436	-0.176	-0.038
-85.684	-157.130	0.394	0.031
-84.670	-49.334	-0.053	0.033
-83.655	800.000	-0.054	0.286
-82.640	116.847	0.232	0.369
-81.626	-200.000	-0.030	0.245
-80.611	188.332	0.066	-0.128
-79.597	-103.486	0.582	0.176
-78.582	596.966	-0.033	-0.106
-77.567	-94.971	0.262	0.091
-76.553	-52.116	-0.266	0.159
-75.538	800.000	0.059	-0.271
-74.524	206.845	-0.281	-0.567
-73.509	-30.503	0.129	-0.095
-72.494	-106.117	-0.203	0.058
-71.480	-158.623	-0.749	-0.055
-70.465	383.449	-0.126	0.336
-69.451	-1.641	-0.125	-0.114
-68.436	-129.169	0.412	-0.074
-67.422	-43.450	-0.303	-0.197
-66.407	112.057	0.293	-0.459
-65.392	59.572	0.123	0.156
-64.378	-200.000	0.050	-0.378
-63.363	-149.022	0.064	-0.007
-62.349	50.381	0.340	0.416
-61.334	29.556	-2.077	-2.285
-60.319	-4.965	1.349	1.200
-59.305	197.778	-3.789	-7.508
-58.290	80.296	3.637	5.068
-57.276	512.868	3.369	10.205
-56.261	-200.000	24.079	320.348
-55.246	352.286	1306.244	3361.820
-54.232	52.452	2847.989	3516.670
-53.217	51.038	2661.959	3264.948
-52.203	31.584	2390.656	2657.782
-51.188	27.640	2057.298	2238.512
-50.173	24.436	1942.904	2076.552
-49.159	23.291	1932.116	2051.620
-48.144	22.837	1927.420	2041.276
-47.130	22.737	1925.053	2037.527
-46.115	22.611	1924.395	2035.288
-45.100	22.700	1922.232	2033.955
-44.086	22.694	1920.899	2032.386
-43.071	22.697	1919.149	2030.495
-42.057	22.684	1918.027	2029.081
-41.042	22.694	1915.541	2026.475
-40.027	22.724	1914.537	2025.689
-39.013	22.705	1912.985	2023.744
-37.998	22.699	1911.991	2022.538
-36.984	22.709	1910.730	2021.248
-35.969	22.662	1909.104	2018.899
-34.954	22.711	1907.881	2018.094
-33.940	22.605	1907.177	2016.052
-32.925	22.603	1905.417	2014.089
-31.911	22.578	1904.571	2012.825
-30.896	22.486	1903.326	2010.366
-29.881	22.665	1900.864	2009.738
-28.867	22.636	1899.767	2008.176
-27.852	22.587	1898.504	2006.192
-26.838	22.447	1897.193	2003.129
-25.823	22.522	1895.498	2002.118
-24.809	22.478	1895.089	2001.104
-23.794	22.395	1893.998	1998.930
-22.779	22.391	1892.497	1997.219
-21.765	22.418	1890.837	1995.695
-20.750	22.424	1890.230	1995.040
-19.736	22.441	1889.099	1993.961
-18.721	22.384	1888.078	1992.161
-17.706	22.475	1886.812	1991.770
-16.692	22.482	1885.299	1990.183
-15.677	22.426	1884.294	1988.399
-14.663	22.503	1881.961	1986.732
-13.648	22.370	1881.656	1984.833
-12.633	22.501	1879.264	1983.710
-11.619	22.377	1879.289	1982.251
-10.604	22.441	1877.439	1980.950
-9.590	22.435	1876.789	1980.112
-8.575	22.415	1875.257	1978.193
-7.560	22.417	1873.773	1976.570
-6.546	22.440	1872.537	1975.446
-5.531	22.389	1871.751	1973.970
-4.517	22.344	1870.203	1971.752
-3.502	22.341	1870.305	1971.747
-2.487	22.503	1867.761	1970.807
-1.473	22.533	1863.834	1966.922
-0.458	22.321	1846.107	1945.784
0.556	18.768	1993.756	2046.626
1.571	17.359	2196.901	2236.285
2.586	18.114	2236.197	2286.167
3.600	18.200	2238.403	2289.307
4.615	18.096	2238.082	2287.303
5.629	18.125	2235.754	2285.036
6.644	18.076	2233.686	2281.995
7.659	18.113	2232.610	2281.116
8.673	18.175	2230.453	2279.466
9.688	17.982	2238.330	2284.650
10.702	17.037	2320.134	2354.683
11.717	15.528	2384.752	2398.336
12.731	7.215	2366.065	2260.441
13.746	0.997	2348.791	2154.937
14.761	0.119	2346.451	2139.986
15.775	0.160	2343.823	2137.911
16.790	0.092	2342.236	2135.242
17.804	-0.021	2341.589	2132.778
18.819	-0.067	2341.546	2131.831
19.834	-0.044	2338.309	2128.963
20.848	-0.038	2337.178	2127.764
21.863	0.131	2334.591	2127.551
22.877	0.023	2332.536	2123.895
23.892	0.048	2330.934	2122.524
24.907	0.089	2328.006	2120.195
25.921	-0.000	2327.199	2117.938
26.936	0.082	2323.933	2115.876
27.950	0.135	2321.553	2114.200
28.965	0.048	2320.568	2111.830
29.980	-0.022	2318.956	2109.125
30.994	0.109	2316.478	2108.458
32.009	3.746	2328.629	2170.687
33.023	12.742	2353.337	2321.372
34.038	16.424	2358.395	2378.272
35.053	16.423	2355.024	2374.570
36.067	16.183	2353.417	2369.272
37.082	16.154	2351.879	2367.039
38.096	16.286	2349.419	2366.132
39.111	16.468	2348.123	2367.107
40.126	16.723	2345.087	2367.349
41.140	16.863	2343.585	2367.517
42.155	16.909	2341.852	2366.127
43.169	16.790	2340.238	2362.540
44.184	16.535	2337.380	2355.800
45.199	16.555	2335.709	2354.125
46.213	16.621	2335.515	2354.568
47.228	16.717	2333.304	2353.398
48.242	16.774	2332.191	2352.789
49.257	16.846	2330.277	2351.578
50.271	16.995	2327.019	2350.091
51.286	16.725	2324.872	2343.878
52.301	16.497	2323.027	2338.566
53.315	17.371	2326.179	2353.623
54.330	20.020	2333.038	2397.176
55.344	21.685	2334.787	2421.843
56.359	21.945	2330.362	2420.570
57.374	22.023	2330.966	2421.999
58.388	22.219	2328.281	2421.631
59.403	22.033	2323.595	2413.887
60.417	21.735	2320.078	2405.837
61.432	21.659	2319.121	2403.516
62.447	21.856	2319.448	2406.285
63.461	22.109	2315.876	2405.774
64.476	22.380	2313.455	2406.693
65.490	21.973	2312.044	2399.348
66.505	21.135	2308.897	2384.290
67.520	19.159	2301.558	2349.358
68.534	17.383	2292.928	2315.978
69.549	16.878	2288.673	2304.499
70.563	16.769	2286.855	2300.910
71.578	16.733	2284.804	2298.082
72.593	16.835	2282.580	2296.958
73.607	16.967	2281.676	2297.564
74.622	16.899	2279.554	2294.228
75.636	16.875	2276.699	2290.761
76.651	16.877	2273.650	2287.442
77.666	16.791	2272.091	2284.433
78.680	16.814	2268.605	2280.967
79.695	16.577	2267.412	2276.289
80.709	16.519	2265.892	2273.711
81.724	16.523	2263.887	2271.475
82.739	16.514	2261.029	2268.225
83.753	16.524	2259.563	2266.613
84.768	16.552	2257.458	2264.605
85.782	16.544	2256.873	2263.642
86.797	16.646	2254.620	2262.483
87.812	16.597	2253.290	2260.218
88.826	16.644	2251.679	2258.966
89.841	16.682	2248.949	2256.461
90.855	16.742	2245.925	2253.957
91.870	16.781	2244.825	2253.109
92.884	16.726	2243.847	2251.116
93.899	16.757	2242.249	2249.665
94.914	17.358	2244.857	2260.034
95.928	19.651	2251.161	2296.785
96.943	20.461	2249.850	2305.983
97.957	18.186	2239.367	2264.727
98.972	16.833	2234.567	2241.627
99.987	16.655	2231.264	2235.684
101.001	16.761	2227.654	2233.197
102.016	16.685	2226.423	2230.684
103.030	16.756	2224.241	2229.178
104.045	16.678	2221.771	2225.407
105.060	16.638	2219.337	2222.174
106.074	16.660	2217.899	2220.762
107.089	16.552	2216.835	2218.003
108.103	16.553	2215.567	2216.474
109.118	16.709	2214.018	2216.718
110.133	16.773	2212.107	2215.376
111.147	16.618	2210.349	2211.318
112.162	16.654	2208.496	2209.672
113.176	16.799	2205.872	2208.687
114.191	16.848	2204.391	2207.572
115.206	16.865	2203.466	2206.611
116.220	16.718	2201.449	2202.409
117.235	16.722	2199.878	2200.626
118.249	16.798	2197.012	2198.487
119.264	16.727	2195.993	2196.274
120.279	16.717	2194.378	2194.260
121.293	16.803	2191.718	2192.458
122.308	16.706	2191.162	2190.386
123.322	16.775	2189.293	2189.147
124.337	17.100	2191.429	2195.246
125.352	19.607	2198.446	2234.658
126.366	20.227	2195.290	2239.226
127.381	17.738	2185.746	2197.034
128.395	16.863	2180.216	2179.909
129.410	16.675	2178.990	2175.982
130.424	16.642	2177.682	2173.998
131.439	16.650	2176.361	2172.517
132.454	16.718	2173.845	2170.621
133.468	16.906	2172.071	2171.013
134.483	16.925	2170.681	2169.611
135.497	16.954	2168.882	2167.927
136.512	16.904	2166.121	2164.265
137.527	16.917	2164.566	2162.617
138.541	16.766	2163.014	2158.876
139.556	16.777	2162.533	2158.280
140.570	16.720	2160.944	2155.702
141.585	16.725	2158.931	2153.493
142.600	16.589	2157.686	2150.265
143.614	16.560	2156.544	2148.500
144.629	16.681	2154.213	2147.458
145.643	16.653	2152.740	2145.381
146.658	16.667	2150.033	2142.601
147.673	16.581	2148.115	2139.336
148.687	16.570	2148.042	2138.875
149.702	16.630	2146.346	2137.682
150.716	16.800	2145.593	2138.836
151.731	16.754	2144.312	2136.719
152.746	16.763	2143.826	2136.104
153.760	17.416	2146.276	2146.561
154.775	19.763	2152.429	2182.277
155.789	20.628	2149.745	2190.238
156.804	18.326	2139.778	2150.788
157.819	16.916	2134.271	2127.233
158.833	16.825	2130.840	2122.420
159.848	16.825	2128.500	2119.832
160.862	16.872	2127.474	2119.145
161.877	16.830	2126.649	2117.541
162.892	16.811	2126.092	2116.497
163.906	16.888	2124.419	2115.537
164.921	16.832	2122.890	2113.069
165.935	16.933	2119.952	2111.154
166.950	16.951	2118.671	2109.846
167.964	16.908	2116.267	2106.667
168.979	16.723	2115.235	2103.081
169.994	16.656	2113.250	2100.011
171.008	16.725	2111.017	2098.409
172.023	16.690	2109.124	2095.837
173.037	16.658	2108.729	2094.791
174.052	16.742	2107.471	2094.340
175.067	16.629	2106.363	2091.586
176.081	16.616	2103.129	2087.953
177.096	16.646	2102.596	2087.555
178.110	16.649	2101.848	2086.595
179.125	16.639	2100.264	2084.652
180.140	16.657	2098.472	2082.839
181.154	16.697	2097.097	2081.722
182.169	16.873	2096.563	2083.119
183.183	17.430	2099.176	2092.347
184.198	20.102	2105.954	2131.935
185.213	20.800	2102.315	2136.615
186.227	17.908	2093.112	2091.439
187.242	16.930	2088.199	2074.271
188.256	16.777	2087.264	2071.215
189.271	16.528	2086.112	2066.758
190.286	16.559	2083.823	2064.628
191.300	16.713	2081.265	2063.735
192.315	16.784	2079.760	2062.859
193.329	16.915	2078.111	2062.574
194.344	17.004	2077.682	2062.994
195.359	17.014	2076.504	2061.703
196.373	16.902	2074.242	2057.837
197.388	16.777	2071.423	2053.278
198.402	16.695	2069.106	2049.736
199.417	16.805	2066.961	2048.697
200.432	16.805	2065.577	2047.087
201.446	16.834	2064.683	2046.311
202.461	16.707	2064.093	2043.938
203.475	16.773	2061.641	2042.061
204.490	16.755	2060.041	2040.016
205.504	16.808	2057.213	2037.608
206.519	16.845	2055.605	2036.224
207.534	16.758	2054.655	2033.992
208.548	16.647	2053.702	2031.455
209.563	16.819	2052.458	2032.056
210.577	16.943	2050.826	2031.697
211.592	17.012	2048.922	2030.389
212.607	18.075	2054.952	2048.937
213.621	21.052	2060.644	2090.290
214.636	20.539	2054.476	2077.617
215.650	17.795	2046.811	2036.728
216.665	16.975	2044.129	2023.987
217.680	17.063	2040.772	2021.475
218.694	16.760	2039.359	2016.211
219.709	16.726	2038.240	2014.452
220.723	16.984	2035.525	2014.610
221.738	16.956	2034.881	2013.404
222.753	16.976	2033.079	2011.619
223.767	16.961	2031.464	2009.596
224.782	16.863	2030.458	2007.198
225.796	16.892	2028.501	2005.361
226.811	16.892	2026.478	2003.121
227.826	16.832	2025.299	2001.002
228.840	16.978	2022.697	1999.925
229.855	16.823	2022.228	1997.382
230.869	16.787	2020.413	1994.929
231.884	16.807	2018.959	1993.495
232.899	16.932	2016.949	1992.748
233.913	16.746	2017.117	1990.474
234.928	16.766	2014.507	1987.901
235.942	16.606	2013.778	1985.057
236.957	16.673	2011.621	1983.478
237.972	16.663	2009.973	1981.495
238.986	16.605	2009.094	1979.709
240.001	16.582	2007.497	1977.637
241.015	16.622	2006.986	1977.366
242.030	17.387	2008.348	1987.454
243.045	19.923	2013.928	2022.555
244.059	20.289	2010.567	2023.233
245.074	17.753	2001.161	1983.906
246.088	16.891	1997.188	1969.676
247.103	16.931	1996.496	1969.223
248.117	16.879	1995.157	1967.060
249.132	16.718	1993.473	1963.290
250.147	16.834	1990.326	1961.306
251.161	16.850	1989.759	1960.687
252.176	16.989	1989.344	1961.662
253.190	17.103	1987.113	1960.557
254.205	17.057	1985.462	1958.155
255.220	17.056	1984.536	1957.001
256.234	16.966	1982.657	1953.870
257.249	16.998	1981.616	1952.974
258.263	16.946	1980.937	1951.473
259.278	16.943	1979.513	1949.807
260.293	16.851	1977.569	1946.599
261.307	16.878	1974.953	1944.099
262.322	16.751	1974.303	1941.761
263.336	16.811	1972.161	1940.113
264.351	16.720	1970.316	1937.021
265.366	16.715	1968.924	1935.358
266.380	16.775	1967.841	1934.758
267.395	16.826	1966.714	1934.000
268.409	16.924	1964.900	1933.103
269.424	16.855	1963.017	1930.229
270.439	16.816	1963.077	1929.619
271.453	17.654	1964.960	1940.829
272.468	20.230	1969.525	1974.620
273.482	20.304	1966.504	1972.199
274.497	17.834	1957.536	1934.852
275.512	16.899	1953.129	1919.628
276.526	16.852	1951.322	1917.088
277.541	16.807	1949.518	1914.572
278.555	16.829	1948.387	1913.482
279.570	16.649	1946.835	1909.691
280.585	16.797	1944.967	1909.306
281.599	16.764	1944.656	1908.404
282.614	16.911	1943.113	1908.317
283.628	16.929	1942.682	1907.877
284.643	17.040	1940.584	1906.835
285.657	17.171	1939.835	1907.353
286.672	17.080	1939.613	1905.880
287.687	17.009	1937.162	1902.448
288.701	17.056	1935.131	1900.752
289.716	17.070	1933.494	1899.071
290.730	17.055	1932.199	1897.400
291.745	16.983	1931.224	1895.408
292.760	17.185	1929.589	1895.846
293.774	16.979	1928.727	1892.462
294.789	16.899	1926.655	1889.308
295.803	16.838	1924.595	1886.379
296.818	16.779	1923.821	1884.733
297.833	16.749	1922.797	1883.173
298.847	16.906	1920.713	1882.651
299.862	16.789	1919.504	1879.938
300.876	17.596	1921.036	1890.218
301.891	20.158	1926.952	1924.437
302.906	20.498	1924.468	1925.506
303.920	17.848	1916.603	1887.983
304.935	16.935	1912.989	1874.064
305.949	16.927	1910.365	1871.171
306.964	17.010	1908.211	1869.758
307.979	16.971	1906.962	1867.883
308.993	17.127	1906.546	1868.980
310.008	17.279	1904.677	1868.600
311.022	17.214	1903.229	1866.240
312.037	17.181	1900.653	1863.126
313.052	17.199	1899.449	1861.919
314.066	17.190	1898.414	1860.586
315.081	17.233	1898.135	1860.565
316.095	17.254	1896.245	1858.722
317.110	16.959	1895.110	1854.141
318.125	17.100	1892.755	1853.156
319.139	16.993	1891.982	1851.004
320.154	17.065	1890.869	1850.488
321.168	17.094	1888.652	1848.410
322.183	16.868	1886.976	1844.086
323.197	16.874	1886.509	1843.473
324.212	16.801	1884.016	1840.014
325.227	16.748	1882.474	1837.709
326.241	16.716	1880.783	1835.488
327.256	16.729	1880.115	1834.758
328.270	16.884	1878.544	1834.693
329.285	16.775	1878.541	1833.283
330.300	17.714	1882.386	1847.046
331.314	20.598	1887.382	1883.174
332.329	20.518	1882.278	1876.982
333.343	17.840	1874.030	1839.553
334.358	16.853	1870.566	1825.251
335.373	16.704	1868.779	1821.682
336.387	16.785	1866.411	1820.032
337.402	16.523	1865.605	1816.204
338.416	16.793	1864.417	1817.737
339.431	16.878	1862.358	1816.430
340.446	16.737	1861.028	1813.395
341.460	16.805	1860.057	1812.964
342.475	16.979	1858.023	1812.636
343.489	17.044	1857.361	1812.473
344.504	16.956	1856.294	1810.266
345.519	17.121	1854.245	1809.823
346.533	17.088	1853.987	1808.999
347.548	17.138	1852.791	1808.154
348.562	17.072	1850.006	1804.508
349.577	17.202	1849.561	1805.252
350.592	17.300	1848.694	1805.229
351.606	17.224	1847.743	1803.278
352.621	17.186	1846.335	1801.279
353.635	17.070	1844.796	1798.333
354.650	17.075	1842.287	1795.722
355.665	16.977	1840.701	1792.916
356.679	16.898	1839.002	1790.209
357.694	16.817	1837.409	1787.588
358.708	16.705	1836.605	1785.401
359.723	17.971	1839.680	1801.612
360.738	20.704	1844.482	1835.110
361.752	19.894	1840.143	1822.005
362.767	17.457	1832.873	1788.871
363.781	16.843	1829.850	1779.233
364.796	16.760	1828.476	1776.806
365.810	16.687	1827.212	1774.594
366.825	16.687	1826.156	1773.360
367.840	17.006	1824.917	1775.302
368.854	16.981	1824.933	1774.837
369.869	16.875	1821.951	1770.607
370.883	16.817	1820.842	1768.717
371.898	16.812	1819.708	1767.346
372.913	16.839	1818.251	1766.001
373.927	16.785	1818.054	1765.040
374.942	16.848	1816.818	1764.287
375.956	17.071	1815.055	1764.691
376.971	16.894	1812.513	1760.164
377.986	16.903	1811.322	1758.886
379.000	16.933	1809.691	1757.404
380.015	17.037	1808.007	1756.646
381.029	16.793	1806.334	1752.269
382.044	16.831	1804.854	1751.021
383.059	16.844	1802.820	1748.970
384.073	16.765	1802.586	1747.713
385.088	16.775	1801.461	1746.515
386.102	16.770	1799.229	1744.096
387.117	16.825	1797.344	1742.623
388.132	16.767	1798.084	1742.538
389.146	17.682	1801.602	1755.215
390.161	20.575	1805.627	1788.882
391.175	20.323	1798.465	1778.982
392.190	17.588	1791.189	1743.476
393.205	16.914	1787.849	1733.094
394.219	16.972	1786.363	1732.038
395.234	16.824	1785.279	1729.256
396.248	16.931	1782.830	1727.778
397.263	16.799	1780.902	1724.353
398.278	16.821	1779.104	1722.631
399.292	16.860	1778.650	1722.388
400.307	16.844	1778.554	1721.918
401.321	16.871	1776.232	1719.737
402.336	16.911	1775.420	1719.155
403.350	16.908	1773.916	1717.464
404.365	17.072	1772.381	1717.437
405.380	17.240	1771.560	1718.150
406.394	17.367	1770.618	1718.316
407.409	17.152	1769.253	1714.609
408.423	17.185	1768.306	1713.820
409.438	17.175	1766.027	1711.303
410.453	17.081	1765.551	1709.688
411.467	17.043	1765.178	1708.736
412.482	17.006	1763.179	1706.224
413.496	16.917	1761.717	1703.705
414.511	16.762	1759.515	1699.810
415.526	16.763	1757.046	1697.226
416.540	16.577	1755.625	1693.778
417.555	16.612	1755.201	1693.524
418.569	16.773	1755.582	1695.306
419.584	16.751	1755.376	1694.678
420.599	16.806	1754.142	1693.836
421.613	16.727	1752.605	1691.364
422.628	16.642	1751.006	1688.759
423.642	16.658	1749.422	1687.193
424.657	16.619	1747.578	1684.822
425.672	16.672	1745.897	1683.530
426.686	16.752	1744.209	1682.495
427.701	16.587	1743.218	1679.694
428.715	16.667	1742.043	1679.157
429.730	16.753	1741.243	1679.047
430.745	16.515	1740.247	1675.510
431.759	16.899	1739.013	1677.940
432.774	17.087	1740.513	1681.063
433.788	17.699	1741.028	1687.452
434.803	17.845	1740.311	1688.007
435.818	17.863	1739.093	1686.798
436.832	17.708	1738.417	1684.401
437.847	16.889	1731.496	1669.391
438.861	9.216	1711.469	1574.555
439.876	1.717	1696.425	1487.105
440.890	0.378	1692.629	1470.480
441.905	0.183	1692.702	1468.462
442.920	0.065	1691.336	1465.941
443.934	0.109	1690.007	1465.048
444.949	0.108	1688.345	1463.423
445.963	0.021	1688.291	1462.350
446.978	0.061	1687.589	1461.957
447.993	0.160	1685.123	1460.607
449.007	0.222	1682.856	1459.071
450.022	0.140	1681.696	1457.091
451.036	0.129	1680.223	1455.535
452.051	1.091	1684.114	1468.102
453.066	8.472	1701.116	1555.137
454.080	15.922	1712.331	1638.299
455.095	17.465	1715.095	1655.848
456.109	17.810	1714.455	1658.400
457.124	17.974	1713.938	1659.311
458.139	17.994	1712.900	1658.301
459.153	18.278	1712.041	1660.037
460.168	18.233	1709.913	1657.336
461.182	18.109	1708.897	1654.950
462.197	18.112	1706.460	1652.418
463.212	17.981	1705.072	1649.605
464.226	17.883	1704.675	1648.072
465.241	18.049	1703.587	1648.433
466.255	18.216	1701.896	1648.216
467.270	18.115	1700.329	1645.527
468.285	17.985	1699.284	1643.062
469.299	17.928	1698.098	1641.166
470.314	17.938	1696.493	1639.519
471.328	18.132	1694.387	1639.156
472.343	18.161	1693.809	1638.682
473.358	18.060	1692.812	1636.544
474.372	18.158	1691.581	1636.105
475.387	17.987	1689.903	1632.644
476.401	17.997	1687.673	1630.386
477.416	17.923	1687.274	1629.100
478.430	18.000	1686.406	1628.802
479.445	17.823	1685.691	1626.217
480.460	17.856	1683.788	1624.501
481.474	18.062	1682.478	1625.016
482.489	18.120	1682.101	1625.012
483.503	18.301	1680.171	1624.677
484.518	18.356	1679.137	1624.004
485.533	18.152	1677.685	1620.465
486.547	18.244	1675.630	1619.165
487.562	18.452	1674.710	1620.061
488.576	18.457	1673.054	1618.313
489.591	18.321	1672.331	1616.125
490.606	18.255	1670.848	1613.870
491.620	18.237	1669.319	1612.035
492.635	18.373	1667.782	1611.646
493.649	18.546	1666.856	1612.193
494.664	18.180	1665.544	1607.268
495.679	17.841	1664.606	1602.975
496.693	17.986	1663.178	1602.770
497.708	18.268	1661.948	1604.056
498.722	18.482	1661.025	1604.981
499.737	18.370	1659.900	1602.657
500.752	18.299	1657.392	1599.377
501.766	18.122	1656.580	1596.737
502.781	18.123	1655.712	1595.721
503.795	18.320	1653.339	1595.081
504.810	18.090	1653.058	1592.467
505.825	18.402	1651.849	1594.037
506.839	18.425	1650.658	1592.909
507.854	18.423	1649.143	1591.234
508.868	18.327	1647.844	1588.896
509.883	18.304	1646.529	1587.222
510.898	18.388	1646.021	1587.328
511.912	18.452	1643.889	1585.681
512.927	18.225	1642.207	1581.759
513.941	18.124	1641.400	1579.854
514.956	18.094	1639.600	1577.647
515.971	18.010	1638.926	1576.038
516.985	18.111	1637.567	1575.479
518.000	18.166	1637.060	1575.309
519.014	18.538	1635.643	1577.195
520.029	18.558	1633.991	1575.597
521.043	18.439	1632.737	1573.103
522.058	18.351	1631.611	1571.023
523.073	18.460	1631.203	1571.444
524.087	18.643	1630.336	1572.101
525.102	18.684	1628.611	1570.630
526.116	18.436	1626.600	1566.222
527.131	18.298	1626.473	1564.649
528.146	18.465	1625.888	1565.431
529.160	18.480	1624.800	1564.327
530.175	18.550	1623.287	1563.327
531.189	18.680	1622.226	1563.313
532.204	18.729	1620.966	1562.362
533.219	18.446	1618.779	1557.474
534.233	18.351	1618.305	1555.971
535.248	18.584	1617.266	1556.906
536.262	18.702	1617.023	1557.568
537.277	18.697	1615.195	1555.575
538.292	18.498	1613.622	1552.064
539.306	18.532	1611.999	1550.618
540.321	18.549	1610.224	1548.880
541.335	18.559	1608.901	1547.516
542.350	18.601	1607.465	1546.327
543.365	18.587	1606.585	1545.170
544.379	18.672	1605.252	1544.475
545.394	18.631	1604.774	1543.461
546.408	18.577	1602.388	1540.494
547.423	18.347	1600.201	1536.133
548.438	18.301	1600.042	1535.377
549.452	18.495	1599.026	1535.969
550.467	18.622	1597.921	1535.868
551.481	18.450	1597.602	1533.832
552.496	18.563	1596.856	1533.946
553.511	18.888	1595.717	1535.582
554.525	18.795	1593.888	1532.809
555.540	18.754	1594.043	1532.402
556.554	19.006	1591.846	1532.368
557.569	18.998	1590.046	1530.378
558.583	18.699	1589.034	1526.550
559.598	18.803	1587.523	1525.844
560.613	18.736	1587.152	1524.707
561.627	18.746	1585.913	1523.427
562.642	18.782	1584.356	1522.069
563.656	19.087	1583.005	1523.297
564.671	18.921	1582.183	1520.846
565.686	19.026	1580.182	1519.679
566.700	18.607	1579.764	1515.371
567.715	18.639	1577.837	1513.626
568.729	18.565	1575.965	1510.992
569.744	18.404	1574.502	1507.992
570.759	18.391	1573.388	1506.627
571.773	18.601	1572.186	1507.146
572.788	18.686	1571.397	1506.958
573.802	18.709	1570.395	1506.027
574.817	18.761	1569.184	1505.140
575.832	18.914	1568.408	1505.560
576.846	18.934	1566.643	1503.860
577.861	18.844	1565.544	1501.841
578.875	18.856	1565.569	1501.791
579.890	18.999	1564.504	1501.844
580.905	18.898	1563.008	1499.338
581.919	19.107	1562.484	1500.492
582.934	19.092	1562.103	1499.810
583.948	19.086	1560.295	1497.840
584.963	19.146	1558.251	1496.226
585.978	18.870	1557.775	1493.183
586.992	18.978	1556.558	1492.777
588.007	19.042	1555.837	1492.470
589.021	18.745	1554.592	1488.504
590.036	18.475	1553.104	1484.552
591.051	18.688	1551.655	1484.843
592.065	18.884	1550.203	1484.973
593.080	19.146	1548.235	1485.188
594.094	19.074	1547.156	1483.345
595.109	18.885	1544.922	1479.396
596.123	18.601	1543.952	1475.834
597.138	18.913	1543.488	1477.911
598.153	19.060	1542.696	1478.244
599.167	18.806	1541.364	1474.599
600.182	18.772	1540.974	1473.754
601.196	19.045	1539.282	1474.310
602.211	18.978	1537.699	1472.042
603.226	19.148	1536.903	1472.564
604.240	19.049	1535.673	1470.359
605.255	19.083	1535.236	1470.062
606.269	19.066	1534.369	1468.911
607.284	19.182	1532.865	1468.284
608.299	19.203	1530.970	1466.479
609.313	19.006	1529.499	1463.207
610.328	19.152	1528.698	1463.509
611.342	19.162	1527.426	1462.208
612.357	19.256	1527.003	1462.425
613.372	19.248	1526.125	1461.340
614.386	19.067	1524.971	1458.520
615.401	19.225	1523.584	1458.361
616.415	19.255	1523.050	1457.937
617.430	19.363	1522.192	1457.856
618.445	19.522	1519.881	1456.818
619.459	19.265	1519.267	1453.876
620.474	18.994	1518.728	1450.889
621.488	18.680	1516.808	1446.218
622.503	18.537	1515.527	1443.612
623.518	18.857	1515.169	1445.807
624.532	19.174	1513.858	1447.061
625.547	19.274	1512.794	1446.715
626.561	19.504	1512.023	1447.741
627.576	19.520	1511.321	1447.033
628.591	19.067	1509.797	1441.587
629.605	18.843	1507.682	1437.509
630.620	18.875	1506.126	1436.128
631.634	18.640	1505.184	1433.082
632.649	18.754	1504.360	1433.086
633.663	18.942	1503.622	1433.782
634.678	19.169	1502.160	1434.122
635.693	19.362	1501.548	1434.980
636.707	19.330	1500.451	1433.495
637.722	19.501	1499.191	1433.547
638.736	19.571	1498.254	1433.062
639.751	19.566	1497.312	1431.945
640.766	19.450	1496.240	1429.781
641.780	19.342	1494.664	1427.205
642.795	19.505	1493.215	1427.008
643.809	19.527	1492.611	1426.440
644.824	19.556	1491.451	1425.404
645.839	19.345	1490.477	1422.554
646.853	19.579	1489.031	1422.941
647.868	19.557	1488.107	1421.709
648.882	19.490	1486.472	1419.417
649.897	19.417	1485.375	1417.599
650.912	19.473	1483.175	1415.788
651.926	19.371	1482.176	1413.827
652.941	19.066	1481.914	1410.892
653.955	19.071	1479.795	1408.750
654.970	18.852	1477.840	1404.920
655.985	18.895	1476.361	1403.700
656.999	18.941	1475.925	1403.497
658.014	18.944	1474.435	1401.934
659.028	19.291	1473.651	1403.861
660.043	19.313	1473.155	1403.405
661.058	19.422	1471.871	1402.902
662.072	19.399	1471.382	1402.078
663.087	19.402	1470.070	1400.683
664.101	19.327	1469.094	1398.979
665.116	19.443	1467.966	1398.676
666.131	19.755	1466.869	1400.007
667.145	19.551	1465.620	1396.990
668.160	19.580	1465.032	1396.496
669.174	19.739	1463.378	1396.042
670.189	19.695	1462.693	1394.864
671.204	19.483	1461.788	1392.120
672.218	19.614	1460.233	1391.527
673.233	19.575	1459.871	1390.701
674.247	19.759	1458.824	1391.030
675.262	19.785	1458.284	1390.557
676.276	19.667	1457.062	1388.272
677.291	19.584	1455.947	1386.376
678.306	19.630	1453.600	1384.343
679.320	19.590	1452.825	1383.118
680.335	19.670	1452.359	1383.151
681.349	19.808	1451.261	1383.047
682.364	19.778	1450.395	1381.819
683.379	19.603	1450.156	1380.017
684.393	19.514	1448.445	1377.512
685.408	19.664	1446.849	1377.030
686.422	19.668	1446.129	1376.209
687.437	19.707	1445.568	1375.823
688.452	19.871	1444.982	1376.418
689.466	19.728	1442.749	1372.983
690.481	19.544	1441.669	1370.325
691.495	19.302	1440.569	1367.181
692.510	18.966	1438.683	1362.554
693.525	18.844	1436.598	1359.444
694.539	19.127	1435.891	1360.865
695.554	19.346	1436.442	1362.963
696.568	19.534	1436.148	1364.012
697.583	19.899	1434.272	1364.963
698.598	19.854	1434.085	1364.262
699.612	19.802	1433.258	1362.902
700.627	19.903	1431.714	1362.073
701.641	19.837	1430.073	1359.829
702.656	19.862	1429.064	1358.904
703.671	19.988	1429.241	1359.897
704.685	19.902	1428.787	1358.626
705.700	19.841	1427.134	1356.411
706.714	19.870	1425.162	1354.608
707.729	19.551	1424.274	1351.093
708.744	19.580	1422.309	1349.290
709.758	19.689	1420.446	1348.218
710.773	19.317	1419.401	1344.152
711.787	19.431	1417.786	1343.355
712.802	19.267	1416.978	1341.144
713.816	19.745	1415.856	1343.652
714.831	19.623	1415.967	1342.645
715.846	19.837	1415.131	1343.366
716.860	19.908	1413.931	1342.614
717.875	19.758	1413.286	1340.673
718.889	19.749	1412.286	1339.496
719.904	19.910	1410.925	1339.299
720.919	20.035	1409.419	1338.674
721.933	19.931	1409.402	1337.696
722.948	19.985	1408.191	1336.799
723.962	20.030	1406.395	1335.290
724.977	20.132	1406.011	1335.553
725.992	20.069	1404.922	1333.870
727.006	19.893	1403.906	1331.388
728.021	20.071	1402.463	1331.233
729.035	20.077	1400.721	1329.467
730.050	20.076	1399.674	1328.306
731.065	19.986	1398.857	1326.680
732.079	20.091	1398.027	1326.538
733.094	20.101	1396.480	1324.993
734.108	20.053	1395.030	1323.084
735.123	20.049	1393.848	1321.775
736.138	19.799	1393.182	1319.072
737.152	20.059	1392.362	1320.132
738.167	20.085	1391.115	1318.987
739.181	20.108	1390.370	1318.300
740.196	20.046	1389.893	1317.212
741.211	20.044	1388.969	1316.163
742.225	20.046	1387.234	1314.377
743.240	20.000	1386.379	1313.061
744.254	20.064	1385.066	1312.151
745.269	19.906	1384.391	1310.152
746.284	19.932	1383.375	1309.231
747.298	19.769	1382.333	1306.849
748.313	19.489	1380.530	1302.859
749.327	19.122	1379.521	1298.974
750.342	19.036	1378.110	1296.836
751.356	19.036	1375.925	1294.621
752.371	19.148	1375.226	1294.655
753.386	19.499	1375.719	1297.617
754.400	19.887	1374.867	1299.591
755.415	20.175	1374.672	1301.425
756.429	20.118	1373.344	1299.578
757.444	20.225	1371.841	1298.806
758.459	20.230	1370.905	1297.802
759.473	20.320	1370.729	1298.156
760.488	20.247	1369.193	1296.002
761.502	20.278	1367.586	1294.554
762.517	20.118	1366.324	1292.007
763.532	20.105	1364.904	1290.419
764.546	19.876	1364.055	1287.746
765.561	19.721	1362.831	1285.280
766.575	19.335	1361.511	1280.998
767.590	19.191	1360.412	1278.733
768.605	19.543	1359.189	1280.057
769.619	19.856	1358.261	1281.357
770.634	19.886	1357.927	1281.111
771.648	20.077	1357.476	1281.952
772.663	20.282	1356.032	1281.960
773.678	20.366	1355.498	1281.927
774.692	20.226	1354.892	1280.164
775.707	20.201	1354.460	1279.411
776.721	20.346	1353.441	1279.369
777.736	20.446	1351.391	1278.019
778.751	20.319	1350.380	1275.974
779.765	20.263	1349.808	1274.863
780.780	20.288	1349.059	1274.189
781.794	20.238	1348.321	1272.975
782.809	20.041	1347.130	1270.240
783.824	20.016	1346.261	1269.085
784.838	19.707	1343.268	1263.847
785.853	19.290	1342.412	1259.821
786.867	19.282	1343.027	1260.192
787.882	19.576	1342.475	1261.685
788.897	19.595	1341.929	1261.155
789.911	19.894	1340.614	1261.965
790.926	20.145	1338.947	1262.079
791.940	20.186	1338.154	1261.478
792.955	20.084	1336.983	1259.482
793.969	20.112	1336.036	1258.640
794.984	20.190	1335.144	1258.219
795.999	20.169	1334.508	1257.314
797.013	20.287	1332.551	1256.183
798.028	20.282	1331.572	1255.073
799.042	20.206	1331.112	1253.939
800.057	20.551	1329.479	1254.752
801.072	20.450	1328.224	1252.686
802.086	20.308	1327.212	1250.553
803.101	20.420	1325.630	1249.719
804.115	20.478	1325.081	1249.475
805.130	20.305	1324.438	1247.466
806.145	20.392	1322.776	1246.383
807.159	20.422	1321.096	1244.862
808.174	20.253	1320.315	1242.766
809.188	20.163	1318.844	1240.580
810.203	20.004	1317.468	1237.996
811.218	19.801	1315.853	1234.873
812.232	19.669	1314.088	1232.128
813.247	19.491	1313.946	1230.568
814.261	19.772	1313.161	1231.696
815.276	20.019	1312.426	1232.630
816.291	20.136	1311.909	1232.829
817.305	20.419	1311.014	1233.863
818.320	20.334	1309.633	1231.811
819.334	20.217	1307.927	1229.227
820.349	20.436	1306.753	1229.529
821.364	20.473	1305.691	1228.649
822.378	20.404	1304.177	1226.587
823.393	20.404	1302.731	1225.083
824.407	20.379	1301.648	1223.737
825.422	20.212	1301.193	1221.982
826.437	20.322	1299.556	1221.077
827.451	20.242	1297.318	1218.261
828.466	19.717	1295.716	1212.911
829.480	19.332	1294.171	1208.606
830.495	19.775	1292.466	1209.986
831.509	19.790	1292.660	1210.131
832.524	20.104	1292.767	1212.292
833.539	20.152	1291.674	1211.457
834.553	20.358	1290.006	1211.192
835.568	20.349	1289.634	1210.639
836.582	20.338	1288.186	1209.053
837.597	20.621	1286.324	1209.144
838.612	20.429	1285.427	1206.809
839.626	20.285	1284.051	1204.371
840.641	20.162	1282.628	1202.040
841.655	19.916	1281.674	1199.286
842.670	19.697	1280.635	1196.647
843.685	19.451	1279.750	1193.968
844.699	19.942	1278.253	1195.836
845.714	20.056	1277.231	1195.530
846.728	20.302	1276.527	1196.427
847.743	20.363	1275.937	1196.156
848.758	20.571	1274.895	1196.475
849.772	20.481	1273.974	1194.845
850.787	20.452	1272.118	1192.757
851.801	20.506	1271.181	1192.111
852.816	20.435	1270.070	1190.436
853.831	20.193	1268.703	1187.351
854.845	20.271	1266.909	1186.061
855.860	20.132	1265.124	1183.297
856.874	20.063	1263.907	1181.547
857.889	19.861	1262.910	1179.090
858.904	19.641	1260.381	1175.082
859.918	19.561	1258.456	1172.597
860.933	19.232	1257.683	1169.493
861.947	19.688	1257.336	1172.144
862.962	20.058	1255.805	1173.094
863.977	19.934	1255.272	1171.614
864.991	20.082	1255.268	1172.473
866.006	20.301	1255.052	1173.619
867.020	20.394	1253.419	1172.587
868.035	20.289	1252.570	1170.939
869.049	20.535	1252.056	1171.983
870.064	20.431	1250.884	1170.044
871.079	20.525	1249.848	1169.572
872.093	20.492	1249.410	1168.799
873.108	20.381	1248.696	1167.240
874.122	20.251	1246.625	1164.285
875.137	20.264	1244.970	1162.688
876.152	19.931	1244.701	1160.055
877.166	20.181	1243.476	1160.458
878.181	20.319	1242.058	1159.920
879.195	20.243	1242.083	1159.299
880.210	20.501	1241.346	1160.202
881.225	20.584	1240.023	1159.382
882.239	20.608	1238.939	1158.390
883.254	20.569	1238.309	1157.399
884.268	20.611	1237.152	1156.465
885.283	20.500	1236.022	1154.526
886.298	20.597	1234.696	1153.795
887.312	20.356	1234.381	1151.760
888.327	20.504	1233.143	1151.453
889.341	20.473	1231.421	1149.499
890.356	20.322	1230.865	1147.839
891.371	20.305	1230.777	1147.506
892.385	20.218	1229.920	1145.991
893.400	20.184	1228.821	1144.608
894.414	20.138	1227.057	1142.522
895.429	20.074	1224.753	1139.815
896.444	19.522	1222.552	1133.989
897.458	19.162	1221.639	1130.631
898.473	19.618	1221.804	1133.657
899.487	19.968	1221.500	1135.544
900.502	20.416	1220.176	1137.123
901.517	20.205	1219.417	1134.895
902.531	20.443	1218.460	1135.435
903.546	20.314	1218.845	1134.808
904.560	20.462	1218.090	1134.941
905.575	20.455	1217.237	1133.965
906.589	20.489	1216.079	1132.973
907.604	20.625	1214.834	1132.570
