DTS Sentinel unit serial number:	SN409020Multiplexer serial number:	ORYXHardware model number:	OX4-SRSoftware version number:	ORYX F/W v3.00 Oryx Data Collector v3.7.2.0data status	okinstallation	HaddamTimeLapsedifferential loss correction	single-endedforward channel	channel 3reverse channel	N/Adate	2011/06/22time	00:16:16forward acquisition time	30.00reverse acquisition time	0.00gamma	498.7831k internal	0.1752k external	0.1752temperature offset calibration	1.0074default loss term (dB/km)	0.3790temperature slope calibration	1.3530multiplexer offset coefficient	1.0000multiplexer slope coefficient	1.0000fibre end	0.00T internal ref (°C)	22.75T ext. ref 1 (°C)	18.08T ext. ref 2 (°C)	0.05length (m)	temperature (°C)	Stokes	anti-Stokes-747.200	-61.353	-0.459	-0.255
-746.185	-200.000	-0.020	0.532
-745.171	120.589	-0.287	0.474
-744.156	-139.879	-0.275	0.038
-743.142	-200.000	-0.003	-0.040
-742.127	-98.443	0.428	0.145
-741.112	-164.867	-0.267	-0.016
-740.098	-200.000	-0.044	0.462
-739.083	365.902	0.106	0.286
-738.069	-200.000	-0.009	-0.113
-737.054	29.843	-0.400	-0.452
-736.039	223.783	-0.111	0.238
-735.025	-127.394	0.467	0.089
-734.010	198.699	0.180	0.368
-732.996	-118.408	-0.245	0.057
-731.981	-58.446	0.328	0.188
-730.966	-62.020	0.440	0.243
-729.952	87.726	-0.153	-0.225
-728.937	47.301	-0.281	0.347
-727.923	-150.498	0.298	-0.030
-726.908	-101.744	-0.304	0.097
-725.894	-200.000	-0.025	0.384
-724.879	129.675	0.043	0.072
-723.864	-165.656	-0.266	0.015
-722.850	-108.440	-0.226	-0.064
-721.835	394.360	-0.175	0.487
-720.821	45.190	-0.034	-0.041
-719.806	-200.000	-0.012	-0.463
-718.791	44.897	-0.151	0.185
-717.777	-18.963	-0.325	-0.268
-716.762	298.920	-0.157	-0.384
-715.748	75.199	-0.141	-0.197
-714.733	-93.140	0.070	-0.026
-713.718	115.493	-0.270	-0.438
-712.704	-193.046	-0.301	-0.003
-711.689	104.853	-0.213	-0.334
-710.675	34.697	-0.103	-0.120
-709.660	-188.618	-0.212	-0.003
-708.645	-103.265	0.355	-0.111
-707.631	-179.279	0.219	0.006
-706.616	46.242	-0.243	-0.299
-705.602	-122.669	-0.179	0.038
-704.587	-182.252	-0.488	0.012
-703.572	-51.908	0.402	-0.247
-702.558	-116.070	0.318	0.078
-701.543	800.000	0.161	-0.646
-700.529	119.642	-0.310	-0.509
-699.514	157.361	0.129	-0.237
-698.499	-200.000	-0.021	0.196
-697.485	230.365	-0.206	-0.448
-696.470	-192.357	-0.282	0.003
-695.456	-56.325	-0.476	0.279
-694.441	-138.468	-0.061	0.009
-693.426	3.704	-0.088	0.085
-692.412	-155.125	-0.385	-0.033
-691.397	-200.000	0.001	-0.471
-690.383	35.485	-0.209	-0.243
-689.368	10.436	-0.271	0.273
-688.354	-119.300	0.299	0.068
-687.339	-137.528	-0.452	0.067
-686.324	-200.000	-0.007	-0.102
-685.310	-74.107	-0.191	0.091
-684.295	-10.697	0.162	-0.142
-683.281	-70.414	-0.290	-0.145
-682.266	-29.621	0.174	0.131
-681.251	-90.165	-0.273	0.105
-680.237	40.322	0.022	0.027
-679.222	-8.744	0.379	-0.336
-678.208	-139.088	-0.327	0.046
-677.193	-200.000	0.010	-0.177
-676.178	-200.000	-0.001	-0.258
-675.164	-200.000	-0.015	-0.201
-674.149	-152.940	-0.882	-0.081
-673.135	-53.180	0.566	0.343
-672.120	-36.779	-0.613	-0.435
-671.105	-117.090	-0.592	0.142
-670.091	800.000	0.116	-0.457
-669.076	-75.526	0.293	-0.137
-668.062	336.816	0.091	0.234
-667.047	230.792	0.152	-0.331
-666.032	-55.418	-0.365	-0.216
-665.018	16.045	-0.118	-0.123
-664.003	-115.611	-0.553	-0.136
-662.989	-74.615	0.037	-0.017
-661.974	-133.410	-0.403	-0.066
-660.959	-40.236	-0.355	-0.244
-659.945	-1.400	0.263	0.246
-658.930	81.362	0.222	0.318
-657.916	14.110	-0.254	0.261
-656.901	-53.286	0.160	0.097
-655.886	105.198	0.108	-0.169
-654.872	-58.819	-0.174	-0.099
-653.857	-69.092	-0.336	0.170
-652.843	11.145	0.283	-0.286
-651.828	-200.000	-0.092	-0.581
-650.814	-27.179	-0.271	0.208
-649.799	-192.554	0.345	-0.004
-648.784	-109.787	0.228	0.063
-647.770	104.546	-0.156	0.243
-646.755	-81.976	0.446	-0.192
-645.741	800.000	-0.077	-0.413
-644.726	-134.455	0.488	-0.078
-643.711	124.816	-0.163	-0.272
-642.697	-154.999	-0.252	0.022
-641.682	800.000	0.073	-0.341
-640.668	-23.336	-0.392	-0.311
-639.653	347.395	0.104	0.271
-638.638	51.512	0.064	0.080
-637.624	-163.004	-0.112	0.007
-636.609	-151.816	0.876	0.084
-635.595	-119.062	0.455	-0.104
-634.580	-14.726	0.421	-0.357
-633.565	80.858	0.141	-0.201
-632.551	-200.000	0.010	0.234
-631.536	755.627	0.028	-0.100
-630.522	-44.641	-0.404	-0.266
-629.507	433.768	0.068	0.196
-628.492	-74.632	-0.755	0.357
-627.478	800.000	-0.075	-0.345
-626.463	-117.258	-0.320	-0.076
-625.449	-98.725	0.028	-0.009
-624.434	-191.359	-0.243	0.003
-623.419	-135.708	-0.220	-0.034
-622.405	-166.325	0.426	-0.023
-621.390	-200.000	-0.020	0.273
-620.376	-61.545	-0.361	0.200
-619.361	68.937	0.296	-0.403
-618.346	-136.169	0.256	0.039
-617.332	-200.000	-0.007	-0.084
-616.317	419.664	-0.059	0.167
-615.303	-4.203	0.081	-0.074
-614.288	-165.594	-0.858	-0.049
-613.273	-200.000	0.080	0.505
-612.259	-107.205	0.221	0.064
-611.244	-28.253	0.189	0.144
-610.230	640.237	0.199	-0.673
-609.215	-126.692	-0.317	-0.061
-608.201	-200.000	0.054	0.610
-607.186	-37.823	0.126	-0.089
-606.171	-143.056	-0.267	0.034
-605.157	265.960	-0.037	0.085
-604.142	-121.151	0.046	0.010
-603.128	67.470	0.240	-0.324
-602.113	-200.000	-0.021	0.193
-601.098	-121.722	-0.333	-0.072
-600.084	83.789	-0.450	-0.650
-599.069	-141.284	0.208	-0.028
-598.055	-77.959	0.193	0.088
-597.040	-85.528	-0.157	0.064
-596.025	45.591	0.163	0.199
-595.011	50.071	0.131	0.163
-593.996	237.662	-0.160	-0.351
-592.982	-200.000	-0.032	-0.455
-591.967	-13.505	0.043	0.037
-590.952	113.066	-0.205	-0.329
-589.938	67.761	-0.248	0.335
-588.923	-99.982	-0.315	0.103
-587.909	-135.306	-0.707	0.111
-586.894	-90.322	0.134	0.051
-585.879	-17.382	-0.127	-0.106
-584.865	-50.658	-0.469	0.291
-583.850	46.525	-0.411	0.503
-582.836	-200.000	0.008	-0.173
-581.821	-84.559	0.257	0.106
-580.806	16.940	0.196	0.204
-579.792	-200.000	0.000	-0.339
-578.777	-84.864	-0.193	-0.080
-577.763	131.387	0.297	0.505
-576.748	202.615	0.249	-0.509
-575.733	-36.010	0.272	-0.194
-574.719	8.883	0.048	-0.047
-573.704	336.815	0.077	-0.198
-572.690	30.171	0.117	0.131
-571.675	88.024	-0.359	0.526
-570.661	135.850	0.110	0.189
-569.646	283.591	0.010	0.025
-568.631	-59.092	0.242	0.137
-567.617	79.544	0.091	0.129
-566.602	141.221	-0.168	0.294
-565.588	1.148	-0.184	-0.174
-564.573	385.530	0.142	0.388
-563.558	-173.541	-0.445	0.017
-562.544	243.146	-0.203	0.451
-561.529	-59.243	-0.303	0.172
-560.515	-43.091	-0.359	-0.239
-559.500	-200.000	0.014	0.192
-558.485	-10.790	-0.247	0.215
-557.471	-24.187	-0.114	-0.090
-556.456	-200.000	-0.038	-0.404
-555.442	417.612	-0.190	-0.538
-554.427	-78.599	-0.602	-0.270
-553.412	-90.853	0.410	-0.155
-552.398	347.853	0.121	-0.315
-551.383	367.490	0.220	-0.589
-550.369	161.493	0.202	-0.373
-549.354	-81.798	-0.100	0.043
-548.339	253.463	-0.122	-0.276
-547.325	-28.623	-0.336	-0.255
-546.310	485.302	-0.093	-0.280
-545.296	104.984	-0.067	0.104
-544.281	-200.000	0.008	0.353
-543.266	-41.776	-0.054	-0.036
-542.252	69.372	0.298	0.404
-541.237	800.000	0.103	-0.486
-540.223	-16.223	-0.280	-0.234
-539.208	-173.256	-0.311	-0.012
-538.193	-200.000	0.054	-0.352
-537.179	800.000	-0.084	-0.313
-536.164	-119.409	-0.030	-0.007
-535.150	64.108	-0.282	-0.374
-534.135	719.891	0.177	0.624
-533.121	-43.905	0.454	0.300
-532.106	-70.456	0.634	-0.315
-531.091	800.000	-0.068	0.277
-530.077	-26.742	-0.422	-0.325
-529.062	399.778	-0.079	-0.219
-528.048	-200.000	-0.022	-0.335
-527.033	419.504	0.019	0.053
-526.018	-26.061	-0.297	-0.229
-525.004	780.981	-0.088	0.321
-523.989	-96.424	-0.053	-0.018
-522.975	59.661	0.102	-0.132
-521.960	-0.069	-0.309	-0.289
-520.945	-200.000	0.014	-0.386
-519.931	-12.023	0.225	-0.194
-518.916	-103.598	0.372	0.114
-517.902	-29.463	-0.167	0.125
-516.887	-200.000	-0.001	-0.165
-515.872	165.140	-0.149	-0.278
-514.858	-95.784	0.175	-0.061
-513.843	-87.702	0.388	-0.153
-512.829	-200.000	0.394	-0.001
-511.814	-171.624	0.627	0.027
-510.799	-153.091	0.475	0.043
-509.785	-200.000	-0.022	0.181
-508.770	-123.514	0.304	-0.063
-507.756	-79.227	0.355	0.158
-506.741	-192.307	0.316	0.004
-505.726	-100.533	-0.232	0.075
-504.712	53.656	0.090	0.113
-503.697	-41.737	0.177	0.119
-502.683	474.858	-0.114	-0.340
-501.668	66.895	0.041	0.055
-500.653	262.063	-0.102	-0.234
-499.639	-143.889	-0.287	0.035
-498.624	-137.543	-0.577	-0.085
-497.610	-126.102	0.253	0.050
-496.595	-66.508	0.403	0.210
-495.581	800.000	-0.097	-0.452
-494.566	-200.000	0.006	-0.216
-493.551	800.000	0.049	-0.248
-492.537	115.795	-0.177	0.285
-491.522	-10.834	0.324	0.281
-490.508	-4.490	-0.207	0.187
-489.493	-26.915	0.109	0.083
-488.478	-25.596	-0.340	-0.264
-487.464	-55.400	-0.452	0.266
-486.449	-200.000	-0.027	0.301
-485.435	4.384	0.528	0.509
-484.420	-75.569	0.114	0.053
-483.405	-78.774	0.213	0.095
-482.391	-90.889	0.086	0.032
-481.376	-130.519	-0.279	0.049
-480.362	800.000	0.076	0.291
-479.347	41.855	-0.211	0.251
-478.332	-80.017	0.292	-0.128
-477.318	70.492	0.283	-0.385
-476.303	45.220	-0.277	-0.335
-475.289	553.317	-0.089	-0.284
-474.274	295.164	-0.072	0.175
-473.259	-45.367	0.069	-0.045
-472.245	625.857	0.053	0.178
-471.230	71.453	0.180	-0.246
-470.216	48.719	-0.140	0.172
-469.201	474.205	-0.007	0.020
-468.186	617.568	-0.115	-0.382
-467.172	-78.829	-0.091	-0.041
-466.157	-9.323	-0.365	0.320
-465.143	18.274	0.111	-0.116
-464.128	-129.434	0.536	-0.097
-463.113	19.415	-0.203	-0.214
-462.099	-116.502	-0.059	0.014
-461.084	-146.330	0.022	0.002
-460.070	107.710	-0.306	-0.479
-459.055	-107.508	-0.501	0.143
-458.040	125.886	-0.137	-0.228
-457.026	-152.226	-0.233	0.022
-456.011	-137.313	-0.153	-0.023
-454.997	-52.818	0.483	-0.291
-453.982	-81.913	0.322	0.138
-452.968	123.061	-0.257	0.423
-451.953	-73.006	0.185	0.089
-450.938	-76.418	0.281	-0.129
-449.924	-74.113	0.184	-0.087
-448.909	-3.357	-0.403	-0.368
-447.895	347.314	0.107	0.277
-446.880	-200.000	0.027	-0.183
-445.865	-88.790	-0.388	-0.150
-444.851	-19.726	-0.503	0.408
-443.836	596.135	-0.114	0.374
-442.822	160.380	-0.185	0.339
-441.807	-77.278	0.323	0.147
-440.792	-75.852	-0.302	0.140
-439.778	-200.000	0.001	0.335
-438.763	93.010	0.156	0.232
-437.749	241.438	-0.173	-0.382
-436.734	-166.045	-0.105	-0.006
-435.719	-124.781	0.432	-0.087
-434.705	-14.883	-0.312	-0.262
-433.690	5.520	-0.147	-0.143
-432.676	-154.021	-0.273	-0.024
-431.661	418.151	-0.089	-0.252
-430.646	-132.879	-0.316	0.052
-429.632	-175.831	-0.529	-0.018
-428.617	-63.995	-0.550	0.294
-427.603	-28.394	-0.375	0.284
-426.588	-37.716	-0.227	0.158
-425.573	549.610	-0.167	0.526
-424.559	-200.000	0.294	-0.001
-423.544	-68.840	-0.139	0.070
-422.530	800.000	0.054	0.244
-421.515	-55.456	0.047	-0.028
-420.500	800.000	0.074	0.276
-419.486	-57.232	-0.202	0.116
-418.471	120.426	0.163	0.265
-417.457	131.598	0.056	-0.094
-416.442	30.641	0.287	0.322
-415.428	-7.141	0.213	-0.189
-414.413	225.707	0.075	-0.159
-413.398	-91.109	-0.054	-0.020
-412.384	422.843	-0.075	0.212
-411.369	-200.000	-0.008	0.504
-410.355	-81.224	0.275	0.118
-409.340	-39.264	0.153	-0.105
-408.325	4.033	0.291	-0.279
-407.311	800.000	0.097	0.459
-406.296	187.082	0.116	0.227
-405.282	45.084	-0.117	0.142
-404.267	744.439	0.134	0.476
-403.252	397.412	-0.118	-0.326
-402.238	96.434	-0.345	0.518
-401.223	94.213	0.078	-0.116
-400.209	-118.127	0.210	0.049
-399.194	-150.791	-0.492	-0.048
-398.179	-89.908	0.226	0.086
-397.165	-200.000	0.006	0.047
-396.150	399.907	-0.115	-0.316
-395.136	-73.340	0.446	0.213
-394.121	-26.662	-0.035	0.026
-393.106	-65.764	-0.235	-0.123
-392.092	494.649	0.115	-0.349
-391.077	-168.781	-0.123	0.006
-390.063	-200.000	-0.022	-0.144
-389.048	-160.944	-0.513	0.035
-388.033	-200.000	0.001	-0.048
-387.019	-148.484	-0.155	0.016
-386.004	185.992	0.116	-0.227
-384.990	-200.000	0.000	-0.041
-383.975	383.795	-0.077	0.208
-382.960	23.012	0.125	-0.134
-381.946	-74.008	0.617	-0.292
-380.931	-123.873	0.368	0.075
-379.917	-200.000	-0.017	-0.140
-378.902	211.939	0.168	-0.347
-377.888	-62.369	-0.198	0.107
-376.873	-93.565	-0.112	-0.040
-375.858	577.237	0.029	-0.095
-374.844	-200.000	0.038	0.306
-373.829	-5.968	-0.340	-0.304
-372.815	34.886	0.032	-0.036
-371.800	-124.036	0.444	-0.091
-370.785	-200.000	0.013	0.517
-369.771	-146.503	-0.327	0.037
-368.756	-87.617	0.177	0.070
-367.742	-73.925	-0.284	0.135
-366.727	-200.000	0.008	0.106
-365.712	-51.008	-0.126	-0.077
-364.698	800.000	0.025	-0.117
-363.683	186.149	-0.155	-0.302
-362.669	-200.000	-0.032	-0.249
-361.654	1.636	0.232	0.219
-360.639	-50.999	0.482	0.295
-359.625	411.380	-0.125	0.349
-358.610	-156.304	-0.609	0.049
-357.596	1.469	-0.152	0.143
-356.581	328.056	-0.072	0.182
-355.566	116.855	0.077	0.124
-354.552	-115.327	0.354	-0.087
-353.537	-2.495	0.164	-0.150
-352.523	262.482	-0.180	-0.410
-351.508	590.170	-0.067	0.216
-350.493	-178.046	0.403	-0.012
-349.479	-124.822	0.504	0.101
-348.464	-169.475	-0.353	-0.017
-347.450	132.902	0.090	0.152
-346.435	-200.000	0.042	-0.342
-345.420	-79.135	0.236	0.104
-344.406	-141.364	-0.351	-0.046
-343.391	-17.076	0.216	-0.178
-342.377	-200.000	0.008	0.320
-341.362	141.403	-0.252	-0.437
-340.348	6.332	-0.064	0.062
-339.333	800.000	-0.021	0.101
-338.318	584.873	0.265	0.855
-337.304	-47.339	-0.314	0.199
-336.289	-22.711	0.329	0.259
-335.275	6.190	0.437	-0.423
-334.260	-200.000	0.001	0.247
-333.245	-152.501	-0.278	0.026
-332.231	-32.438	0.336	-0.244
-331.216	-74.656	0.252	0.118
-330.202	85.702	-0.120	0.173
-329.187	-101.968	0.421	-0.132
-328.172	71.492	0.340	-0.462
-327.158	263.807	0.114	-0.259
-326.143	-200.000	-0.028	0.345
-325.129	-5.172	-0.504	0.452
-324.114	24.746	0.217	-0.235
-323.099	-166.210	0.388	-0.021
-322.085	-200.000	-0.007	0.265
-321.070	-114.301	-0.414	0.103
-320.056	187.409	-0.118	-0.230
-319.041	-200.000	0.016	0.211
-318.026	-135.114	0.153	0.024
-317.012	167.100	-0.151	0.281
-315.997	-116.770	-0.056	0.013
-314.983	-116.006	-0.636	0.153
-313.968	421.802	0.060	-0.170
-312.953	4.553	-0.481	-0.460
-311.939	321.702	0.154	0.385
-310.924	-47.410	0.108	0.068
-309.910	-92.385	0.379	0.138
-308.895	-91.082	-0.185	0.069
-307.880	-69.459	-0.399	0.199
-306.866	-111.759	0.079	0.021
-305.851	800.000	-0.064	-0.237
-304.837	132.475	-0.122	-0.206
-303.822	314.584	-0.081	-0.200
-302.807	331.893	0.073	0.185
-301.793	-131.846	0.131	0.022
-300.778	464.269	0.078	-0.229
-299.764	120.578	0.122	-0.197
-298.749	46.165	-0.174	-0.210
-297.735	127.818	0.168	0.280
-296.720	-125.709	0.430	0.084
-295.705	800.000	-0.071	0.381
-294.691	-200.000	0.017	0.272
-293.676	-42.481	0.293	-0.194
-292.662	-99.345	0.088	0.029
-291.647	-200.000	-0.058	-0.423
-290.632	-41.140	0.187	-0.126
-289.618	288.989	-0.249	0.592
-288.603	-131.370	0.156	0.027
-287.589	-167.079	0.533	0.028
-286.574	-3.444	-0.293	0.265
-285.559	97.580	0.106	0.160
-284.545	800.000	0.099	0.436
-283.530	269.111	-0.110	-0.254
-282.516	-89.289	0.320	0.122
-281.501	-200.000	-0.015	-0.401
-280.486	-77.665	0.867	0.390
-279.472	7.032	0.448	0.436
-278.457	479.646	-0.100	0.297
-277.443	-90.527	0.277	0.104
-276.428	32.702	-0.103	-0.116
-275.413	298.224	0.149	-0.358
-274.399	-98.611	-0.138	0.046
-273.384	27.260	0.175	-0.191
-272.370	-200.000	0.047	-0.568
-271.355	-200.000	-0.027	0.335
-270.340	62.020	0.093	-0.121
-269.326	800.000	0.080	-0.424
-268.311	-168.120	-0.106	-0.005
-267.297	109.948	0.111	-0.174
-266.282	-184.597	0.366	0.008
-265.267	511.346	0.110	0.335
-264.253	-200.000	0.044	0.397
-263.238	-177.894	-0.288	-0.009
-262.224	-92.017	-0.165	0.060
-261.209	-140.967	0.401	0.053
-260.195	-66.101	-0.149	-0.077
-259.180	120.368	-0.053	0.086
-258.165	97.191	0.390	0.584
-257.151	600.692	0.066	0.216
-256.136	-158.739	-0.432	-0.032
-255.122	-61.934	-0.209	0.113
-254.107	6.412	0.300	-0.290
-253.092	-128.503	0.305	0.056
-252.078	-20.057	0.343	0.275
-251.063	170.524	0.095	-0.178
-250.049	-9.877	-0.308	0.267
-249.034	-99.556	0.346	-0.112
-248.019	-80.892	-0.308	-0.132
-247.005	113.913	-0.194	0.307
-245.990	316.817	0.044	-0.109
-244.976	15.953	-0.330	0.338
-243.961	-42.175	0.162	0.107
-242.946	-106.504	0.391	0.113
-241.932	-60.524	-0.190	-0.105
-240.917	800.000	-0.111	0.451
-239.903	-200.000	0.048	0.359
-238.888	-99.295	-0.446	0.146
-237.873	324.209	-0.148	-0.369
-236.859	-118.591	-0.493	-0.112
-235.844	-200.000	-0.010	-0.421
-234.830	615.359	-0.110	-0.361
-233.815	-78.025	0.373	0.166
-232.800	184.185	0.294	0.568
-231.786	-200.000	0.025	0.393
-230.771	800.000	-0.141	0.593
-229.757	-23.677	-0.250	-0.194
-228.742	43.768	0.220	-0.262
-227.727	20.117	0.326	-0.342
-226.713	-200.000	-0.008	0.049
-225.698	-32.553	0.273	0.198
-224.684	545.853	0.083	0.259
-223.669	-80.197	0.061	0.026
-222.655	126.750	0.151	-0.249
-221.640	81.065	-0.068	-0.096
-220.625	226.467	-0.098	-0.207
-219.611	-200.000	-0.044	-0.255
-218.596	556.826	0.098	-0.309
-217.582	32.993	0.145	0.164
-216.567	-86.157	0.291	0.116
-215.552	447.849	-0.125	-0.359
-214.538	-137.274	-0.494	-0.072
-213.523	-69.972	0.159	-0.079
-212.509	-165.478	-0.245	0.014
-211.494	30.837	-0.250	0.278
-210.479	-99.374	0.339	-0.110
-209.465	-200.000	-0.108	-0.786
-208.450	-200.000	-0.006	0.038
-207.436	-40.118	0.157	0.106
-206.421	-200.000	-0.017	0.392
-205.406	-200.000	0.030	0.378
-204.392	472.719	-0.054	0.158
-203.377	58.194	-0.107	-0.137
-202.363	-66.290	-0.274	-0.141
-201.348	-104.077	0.384	-0.115
-200.333	-51.046	0.306	-0.186
-199.319	-200.000	0.019	0.460
-198.304	-57.301	0.281	-0.160
-197.290	-114.974	0.415	-0.102
-196.275	273.870	-0.104	0.241
-195.260	298.564	0.056	-0.134
-194.246	-200.000	-0.004	-0.538
-193.231	-84.968	0.174	-0.071
-192.217	800.000	0.030	0.126
-191.202	-61.440	-0.198	0.108
-190.187	800.000	0.091	-0.482
-189.173	-24.046	-0.185	0.143
-188.158	-94.112	0.185	-0.066
-187.144	163.223	-0.242	-0.442
-186.129	800.000	0.168	-0.746
-185.114	-28.994	0.414	-0.308
-184.100	-108.247	-0.086	0.024
-183.085	-35.037	-0.184	-0.130
-182.071	-200.000	-0.007	0.464
-181.056	-91.330	0.438	0.162
-180.042	-103.397	-0.124	-0.038
-179.027	-139.175	-0.436	-0.060
-178.012	-200.000	-0.051	-0.441
-176.998	-200.000	-0.003	-0.265
-175.983	-65.453	-0.114	0.059
-174.969	320.199	-0.098	0.242
-173.954	-135.038	-0.239	-0.037
-172.939	172.195	-0.230	0.432
-171.925	5.716	0.188	0.181
-170.910	16.859	-0.214	-0.220
-169.896	-27.388	0.106	0.080
-168.881	-200.000	0.003	0.254
-167.866	19.623	-0.173	-0.180
-166.852	18.626	0.243	-0.253
-165.837	2.749	0.201	-0.189
-164.823	-200.000	0.048	0.457
-163.808	-200.000	0.039	-0.284
-162.793	800.000	-0.080	-0.355
-161.779	728.059	0.146	-0.510
-160.764	-113.223	-0.556	0.141
-159.750	-123.168	-0.583	0.120
-158.735	74.433	-0.230	0.315
-157.720	-51.233	-0.338	-0.205
-156.706	77.242	-0.189	0.262
-155.691	180.581	-0.165	-0.315
-154.677	36.433	0.125	-0.144
-153.662	-101.109	0.515	0.162
-152.647	-30.094	-0.286	-0.211
-151.633	-61.032	-0.196	0.107
-150.618	-12.808	-0.074	0.063
-149.604	236.427	0.060	0.128
-148.589	-31.762	-0.119	-0.086
-147.574	-155.837	-0.227	0.019
-146.560	-106.022	0.432	0.125
-145.545	-73.210	0.130	-0.061
-144.531	752.415	0.037	-0.130
-143.516	-30.686	-0.074	-0.054
-142.502	-68.586	0.289	-0.145
-141.487	-48.720	0.151	-0.094
-140.472	200.686	0.253	0.506
-139.458	800.000	-0.049	-0.180
-138.443	-22.479	-0.169	0.133
-137.429	39.076	0.332	-0.385
-136.414	10.842	-0.064	-0.064
-135.399	-41.087	0.064	-0.043
-134.385	37.233	-0.171	-0.197
-133.370	-200.000	-0.045	-0.000
-132.356	-43.672	-0.393	-0.256
-131.341	800.000	0.042	0.214
-130.326	-157.077	-0.196	0.015
-129.312	450.478	-0.073	0.210
-128.297	412.532	-0.114	-0.315
-127.283	-57.170	-0.193	0.110
-126.268	16.506	-0.346	0.354
-125.253	128.066	0.072	0.118
-124.239	-133.359	-0.558	-0.090
-123.224	700.265	-0.030	-0.104
-122.210	-200.000	0.040	0.341
-121.195	800.000	-0.107	0.387
-120.180	-200.000	0.028	-0.243
-119.166	-28.153	0.440	0.329
-118.151	19.134	0.345	-0.359
-117.137	159.670	0.096	-0.174
-116.122	34.231	-0.357	0.403
-115.107	-17.096	0.230	-0.187
-114.093	-116.710	0.585	-0.138
-113.078	246.257	-0.114	0.251
-112.064	-128.296	-0.411	0.075
-111.049	266.644	-0.106	0.242
-110.034	-121.840	0.270	0.057
-109.020	-200.000	-0.011	-0.223
-108.005	800.000	0.092	0.385
-106.991	237.099	0.193	0.416
-105.976	-15.122	-0.066	-0.055
-104.962	203.463	0.070	-0.140
-103.947	168.951	-0.161	0.298
-102.932	-47.007	-0.396	0.250
-101.918	288.970	0.065	0.154
-100.903	-71.405	-0.452	-0.218
-99.889	-129.152	0.332	-0.059
-98.874	-105.505	0.381	-0.111
-97.859	-114.820	-0.361	0.088
-96.845	-66.742	-0.261	0.133
-95.830	610.022	0.147	0.477
-94.816	198.776	-0.164	-0.327
-93.801	-60.050	0.199	-0.110
-92.786	-53.324	-0.051	0.030
-91.772	-99.194	-0.363	0.118
-90.757	-22.942	-0.462	0.360
-89.743	128.380	-0.249	0.412
-88.728	-68.066	-0.136	-0.068
-87.713	-98.830	-0.757	-0.248
-86.699	-11.322	-0.273	-0.232
-85.684	-98.122	-0.397	0.131
-84.670	748.291	0.026	-0.091
-83.655	-200.000	0.033	-0.225
-82.640	-35.583	0.307	-0.215
-81.626	10.955	0.188	-0.185
-80.611	-22.023	-0.273	-0.214
-79.597	-200.000	-0.032	-0.207
-78.582	-106.272	0.334	0.096
-77.567	-161.340	-0.352	-0.023
-76.553	1.857	-0.130	-0.121
-75.538	75.571	0.114	-0.156
-74.524	-200.000	0.001	0.018
-73.509	190.409	0.230	-0.449
-72.494	-32.786	0.368	0.264
-71.480	-76.826	-0.462	0.208
-70.465	-117.744	-0.256	0.059
-69.451	-69.434	0.273	0.135
-68.436	-200.000	-0.002	-0.106
-67.422	-200.000	0.048	0.468
-66.407	-71.303	0.540	-0.261
-65.392	-134.526	0.383	-0.060
-64.378	580.771	-0.096	-0.307
-63.363	-128.196	-0.234	-0.043
-62.349	-175.303	-0.192	-0.007
-61.334	74.810	-2.197	-2.993
-60.319	-28.883	1.810	1.342
-59.305	214.447	-3.829	-7.866
-58.290	56.994	4.206	5.304
-57.276	406.591	3.777	10.359
-56.261	-200.000	23.183	320.866
-55.246	354.848	1302.451	3362.146
-54.232	52.841	2844.466	3517.886
-53.217	51.218	2662.102	3267.106
-52.203	31.733	2391.742	2660.449
-51.188	27.890	2058.002	2241.809
-50.173	24.656	1944.771	2080.608
-49.159	23.511	1933.157	2054.772
-48.144	23.072	1927.887	2043.997
-47.130	23.031	1925.162	2040.544
-46.115	22.860	1923.781	2037.027
-45.100	22.922	1922.607	2036.421
-44.086	23.003	1920.775	2035.327
-43.071	22.974	1918.916	2032.951
-42.057	22.890	1917.566	2030.466
-41.042	22.895	1916.562	2029.375
-40.027	22.942	1915.452	2028.660
-39.013	22.998	1913.455	2027.116
-37.998	22.964	1912.212	2025.329
-36.984	22.920	1911.149	2023.609
-35.969	22.885	1910.231	2022.157
-34.954	22.920	1908.171	2020.295
-33.940	22.930	1907.109	2019.208
-32.925	22.839	1906.450	2017.392
-31.911	22.956	1903.768	2015.812
-30.896	22.969	1902.432	2014.469
-29.881	22.891	1901.667	2012.682
-28.867	22.664	1901.042	2009.346
-27.852	22.746	1898.846	2007.882
-26.838	22.760	1897.411	2006.442
-25.823	22.625	1896.985	2004.363
-24.809	22.657	1895.761	2003.359
-23.794	22.727	1893.764	2001.968
-22.779	22.871	1891.331	2000.960
-21.765	22.777	1890.942	1999.400
-20.750	22.747	1889.470	1997.417
-19.736	22.634	1889.915	1996.528
-18.721	22.738	1887.711	1995.299
-17.706	22.784	1885.964	1993.894
-16.692	22.691	1885.653	1992.429
-15.677	22.721	1884.075	1991.024
-14.663	22.630	1882.371	1988.114
-13.648	22.475	1882.606	1986.528
-12.633	22.704	1880.058	1986.350
-11.619	22.651	1879.023	1984.580
-10.604	22.636	1876.904	1982.088
-9.590	22.688	1875.794	1981.435
-8.575	22.666	1875.205	1980.485
-7.560	22.587	1874.015	1978.251
-6.546	22.641	1873.339	1978.071
-5.531	22.625	1872.358	1976.777
-4.517	22.620	1870.274	1974.445
-3.502	22.728	1869.210	1974.460
-2.487	22.699	1868.244	1973.028
-1.473	22.794	1864.688	1970.259
-0.458	22.333	1847.454	1946.845
0.556	19.016	1993.513	2048.837
1.571	17.577	2196.332	2238.035
2.586	18.429	2235.397	2289.009
3.600	18.481	2238.405	2292.520
4.615	18.387	2237.318	2289.867
5.629	18.354	2235.020	2286.797
6.644	18.380	2233.466	2285.276
7.659	18.392	2231.865	2283.527
8.673	18.452	2229.048	2281.176
9.688	18.163	2238.959	2287.159
10.702	17.285	2318.620	2356.028
11.717	15.606	2382.067	2396.157
12.731	7.150	2363.309	2256.305
13.746	0.967	2346.020	2151.430
14.761	0.131	2343.014	2136.491
15.775	0.062	2340.292	2132.764
16.790	0.083	2338.000	2130.723
17.804	-0.037	2337.722	2128.504
18.819	-0.030	2337.123	2127.805
19.834	0.045	2334.801	2126.499
20.848	-0.017	2333.475	2124.151
21.863	-0.018	2331.697	2122.276
22.877	0.025	2329.602	2120.721
23.892	0.036	2327.394	2118.606
24.907	-0.098	2325.777	2114.983
25.921	-0.086	2323.624	2112.948
26.936	0.049	2320.833	2112.061
27.950	-0.007	2317.867	2108.322
28.965	-0.043	2317.164	2106.918
29.980	-0.035	2315.415	2105.194
30.994	0.138	2312.011	2104.280
32.009	3.642	2324.418	2164.763
33.023	12.773	2351.000	2318.934
34.038	16.558	2356.822	2377.980
35.053	16.524	2352.712	2373.073
36.067	16.449	2349.327	2368.318
37.082	16.349	2348.537	2365.831
38.096	16.581	2346.583	2366.838
39.111	16.777	2344.179	2366.887
40.126	16.985	2342.834	2368.161
41.140	17.015	2342.090	2367.550
42.155	17.067	2340.183	2366.072
43.169	16.897	2338.599	2361.807
44.184	16.679	2335.039	2354.871
45.199	16.643	2333.249	2352.289
46.213	16.847	2332.083	2353.679
47.228	16.938	2330.806	2353.378
48.242	17.042	2329.322	2353.048
49.257	17.248	2327.293	2353.588
50.271	17.231	2323.868	2349.600
51.286	16.953	2321.258	2342.816
52.301	16.625	2319.203	2335.918
53.315	17.511	2323.175	2351.940
54.330	20.405	2330.673	2399.502
55.344	22.299	2332.071	2426.947
56.359	22.617	2328.560	2427.409
57.374	22.719	2327.532	2427.455
58.388	22.808	2326.369	2427.187
59.403	22.506	2321.901	2418.063
60.417	22.263	2318.079	2410.448
61.432	22.213	2317.476	2408.842
62.447	22.470	2315.435	2409.962
63.461	22.595	2313.853	2409.752
64.476	22.834	2312.000	2410.819
65.490	22.422	2310.329	2403.127
66.505	21.581	2306.604	2387.441
67.520	19.453	2298.248	2349.412
68.534	17.395	2288.924	2311.522
69.549	16.777	2284.611	2298.465
70.563	16.628	2282.671	2294.216
71.578	16.779	2280.186	2293.490
72.593	16.695	2279.171	2291.059
73.607	16.835	2277.398	2290.905
74.622	16.886	2275.440	2289.353
75.636	16.858	2272.368	2285.601
76.651	16.722	2270.157	2281.267
77.666	16.713	2268.287	2278.991
78.680	16.628	2265.070	2274.338
79.695	16.442	2263.090	2269.562
80.709	16.191	2262.473	2265.296
81.724	16.319	2259.821	2264.093
82.739	16.365	2257.484	2262.093
83.753	16.365	2254.989	2259.332
84.768	16.221	2253.229	2255.359
85.782	16.231	2252.521	2254.513
86.797	16.030	2250.592	2249.619
87.812	16.212	2248.362	2249.557
88.826	16.342	2246.913	2249.580
89.841	16.422	2243.575	2247.038
90.855	16.253	2242.394	2243.327
91.870	16.548	2239.902	2244.501
92.884	16.515	2238.802	2242.696
93.899	16.602	2237.628	2242.400
94.914	17.279	2241.443	2254.995
95.928	19.821	2248.947	2296.226
96.943	20.727	2247.303	2306.348
97.957	18.013	2236.848	2259.322
98.972	16.453	2230.435	2231.877
99.987	16.343	2227.521	2227.233
101.001	16.365	2224.587	2224.330
102.016	16.369	2222.171	2221.698
103.030	16.411	2219.785	2219.610
104.045	16.261	2218.605	2216.177
105.060	16.361	2215.558	2214.188
106.074	16.329	2214.487	2212.437
107.089	16.325	2212.843	2210.469
108.103	16.493	2211.083	2210.658
109.118	16.483	2209.902	2209.074
110.133	16.621	2208.281	2209.006
111.147	16.432	2205.978	2203.965
112.162	16.467	2204.443	2202.618
113.176	16.810	2202.340	2204.745
114.191	16.849	2200.881	2203.532
115.206	16.740	2199.137	2200.091
116.220	16.718	2197.474	2197.876
117.235	16.702	2195.829	2195.765
118.249	16.823	2194.034	2195.287
119.264	16.804	2191.733	2192.468
120.279	16.613	2191.192	2189.189
121.293	16.725	2188.850	2188.036
122.308	16.755	2187.398	2186.714
123.322	16.725	2186.264	2184.928
124.337	17.164	2187.260	2191.358
125.352	19.817	2196.220	2234.563
126.366	20.545	2193.104	2240.558
127.381	17.706	2182.595	2192.902
128.395	16.519	2177.821	2172.529
129.410	16.482	2174.870	2168.841
130.424	16.393	2172.507	2165.090
131.439	16.459	2171.137	2164.308
132.454	16.498	2170.542	2163.960
133.468	16.751	2168.011	2164.423
134.483	16.840	2166.983	2164.284
135.497	16.783	2165.771	2162.081
136.512	16.793	2162.798	2158.982
137.527	16.699	2160.207	2154.939
138.541	16.346	2160.017	2149.971
139.556	16.303	2159.234	2148.392
140.570	16.399	2156.033	2146.165
141.585	16.297	2153.330	2141.916
142.600	16.229	2152.451	2139.929
143.614	16.177	2151.827	2138.388
144.629	16.178	2148.937	2135.269
145.643	16.067	2147.910	2132.580
146.658	16.017	2145.831	2129.628
147.673	15.954	2144.369	2127.127
148.687	16.096	2143.031	2127.337
149.702	16.333	2142.035	2129.101
150.716	16.351	2140.654	2127.706
151.731	16.413	2139.628	2127.209
152.746	16.411	2139.210	2126.519
153.760	17.268	2141.472	2139.361
154.775	20.080	2148.865	2182.129
155.789	21.048	2146.739	2191.946
156.804	18.208	2135.922	2144.895
157.819	16.418	2128.714	2114.905
158.833	16.163	2125.896	2108.647
159.848	16.098	2123.744	2105.438
160.862	16.281	2122.731	2106.484
161.877	16.263	2121.993	2105.279
162.892	16.473	2121.328	2106.998
163.906	16.424	2121.065	2105.871
164.921	16.569	2117.719	2104.102
165.935	16.509	2115.168	2100.569
166.950	16.584	2114.623	2100.712
167.964	16.638	2112.092	2098.617
168.979	16.344	2109.293	2091.925
169.994	16.259	2107.847	2089.180
171.008	16.182	2107.061	2087.201
172.023	16.180	2105.709	2085.590
173.037	16.195	2104.831	2084.655
174.052	16.464	2102.748	2085.679
175.067	16.481	2100.976	2083.884
176.081	16.250	2099.270	2079.084
177.096	16.379	2098.082	2079.245
178.110	16.496	2096.889	2079.268
179.125	16.498	2095.701	2077.864
180.140	16.564	2094.441	2077.180
181.154	16.507	2093.378	2075.179
182.169	16.797	2092.826	2077.950
183.183	17.458	2095.486	2088.499
184.198	20.629	2102.873	2134.800
185.213	21.094	2100.445	2137.809
186.227	18.122	2089.622	2090.073
187.242	16.737	2085.445	2068.653
188.256	16.558	2083.770	2064.541
189.271	16.418	2081.088	2059.928
190.286	16.473	2079.595	2058.875
191.300	16.431	2077.511	2056.049
192.315	16.451	2075.918	2054.476
193.329	16.601	2075.376	2055.524
194.344	16.886	2074.217	2057.609
195.359	16.849	2073.787	2056.479
196.373	16.627	2070.088	2049.866
197.388	16.528	2067.467	2045.824
198.402	16.356	2065.515	2041.556
199.417	16.245	2062.766	2037.247
200.432	16.374	2061.254	2037.071
201.446	16.305	2061.508	2036.240
202.461	16.328	2059.272	2034.062
203.475	16.276	2056.186	2030.145
204.490	16.216	2055.638	2028.637
205.504	16.210	2053.130	2025.846
206.519	16.339	2050.791	2024.852
207.534	16.326	2050.148	2023.813
208.548	16.281	2048.976	2021.880
209.563	16.481	2046.934	2022.024
210.577	16.467	2047.166	2021.839
211.592	16.597	2045.087	2021.113
212.607	17.962	2051.183	2043.317
213.621	21.374	2058.902	2091.870
214.636	20.784	2052.033	2077.575
215.650	17.495	2042.576	2028.427
216.665	16.607	2039.132	2014.141
217.680	16.645	2036.852	2012.093
218.694	16.479	2034.794	2007.839
219.709	16.451	2032.499	2005.003
220.723	16.401	2032.946	2004.609
221.738	16.526	2031.709	2004.639
222.753	16.753	2029.030	2004.454
223.767	16.622	2027.601	2001.245
224.782	16.668	2025.394	1999.374
225.796	16.521	2023.948	1995.970
226.811	16.570	2022.853	1995.232
227.826	16.560	2021.338	1993.378
228.840	16.498	2019.164	1990.254
229.855	16.522	2018.119	1989.271
230.869	16.579	2016.109	1987.731
231.884	16.418	2014.626	1984.128
232.899	16.521	2012.539	1983.047
233.913	16.558	2012.353	1983.060
234.928	16.416	2011.450	1980.261
235.942	16.468	2009.428	1978.652
236.957	16.441	2007.645	1976.343
237.972	16.407	2006.812	1974.885
238.986	16.388	2005.099	1972.735
240.001	16.373	2003.489	1970.739
241.015	16.701	2002.851	1973.724
242.030	17.445	2005.678	1985.001
243.045	20.194	2011.149	2022.440
244.059	20.564	2007.981	2023.347
245.074	17.838	1998.510	1981.783
246.088	16.877	1994.329	1966.201
247.103	16.993	1992.856	1965.859
248.117	16.917	1991.535	1963.445
249.132	16.718	1989.067	1958.465
250.147	16.630	1987.503	1955.660
251.161	16.616	1987.272	1955.040
252.176	16.819	1986.217	1956.122
253.190	17.170	1983.814	1957.587
254.205	17.179	1981.970	1955.642
255.220	17.164	1980.611	1953.890
256.234	16.980	1979.882	1950.808
257.249	16.837	1977.754	1946.824
258.263	16.735	1977.238	1944.916
259.278	16.914	1975.130	1944.672
260.293	16.751	1972.826	1940.291
261.307	16.488	1970.367	1934.621
262.322	16.311	1969.753	1931.745
263.336	16.308	1967.548	1929.321
264.351	16.221	1966.355	1926.914
265.366	16.151	1965.299	1924.853
266.380	16.230	1964.106	1924.354
267.395	16.379	1962.751	1924.509
268.409	16.370	1960.261	1921.734
269.424	16.281	1959.812	1920.038
270.439	16.399	1958.795	1920.167
271.453	17.548	1961.428	1935.653
272.468	20.424	1968.232	1975.048
273.482	20.585	1963.972	1972.379
274.497	17.576	1954.361	1928.298
275.512	16.601	1949.574	1912.275
276.526	16.466	1947.517	1908.502
277.541	16.491	1944.680	1905.771
278.555	16.279	1943.855	1902.334
279.570	16.165	1941.511	1898.524
280.585	16.413	1940.786	1900.390
281.599	16.432	1939.911	1899.520
282.614	16.708	1938.846	1901.371
283.628	16.911	1938.264	1902.863
284.643	16.954	1938.146	1903.006
285.657	17.080	1937.008	1903.070
286.672	17.269	1935.191	1903.193
287.687	17.081	1933.321	1899.005
288.701	17.137	1931.232	1897.361
289.716	16.993	1931.208	1895.486
290.730	16.990	1929.080	1893.136
291.745	17.200	1927.728	1893.946
292.760	17.160	1926.848	1892.399
293.774	16.869	1926.086	1888.169
294.789	16.867	1924.323	1886.192
295.803	16.883	1921.121	1883.008
296.818	16.695	1920.607	1880.178
297.833	16.740	1919.384	1879.257
298.847	16.756	1918.311	1878.167
299.862	16.752	1916.614	1876.236
300.876	17.539	1918.427	1886.550
301.891	20.595	1925.077	1926.948
302.906	21.139	1921.553	1929.245
303.920	18.047	1913.908	1887.071
304.935	16.922	1909.916	1870.437
305.949	16.852	1907.662	1867.234
306.964	16.760	1905.362	1863.743
307.979	16.835	1904.323	1863.335
308.993	17.102	1903.558	1865.307
310.008	17.416	1902.055	1867.072
311.022	17.312	1900.907	1864.579
312.037	17.049	1899.327	1859.913
313.052	17.034	1898.070	1858.291
314.066	17.144	1895.952	1857.203
315.081	17.115	1895.206	1855.936
316.095	17.101	1893.429	1853.816
317.110	16.899	1891.480	1849.476
318.125	16.816	1890.169	1847.060
319.139	16.719	1889.012	1844.641
320.154	16.864	1887.630	1844.662
321.168	16.798	1885.859	1841.986
322.183	16.669	1883.627	1838.182
323.197	16.472	1882.388	1834.599
324.212	16.301	1880.009	1830.205
325.227	16.276	1877.925	1827.677
326.241	16.238	1877.522	1826.653
327.256	16.369	1875.486	1825.880
328.270	16.271	1874.440	1823.580
329.285	16.428	1874.393	1825.017
330.300	17.381	1879.879	1840.512
331.314	20.832	1885.052	1882.917
332.329	20.707	1879.687	1875.980
333.343	17.458	1870.202	1831.207
334.358	16.381	1865.839	1815.095
335.373	16.282	1864.398	1812.404
336.387	15.974	1862.397	1806.924
337.402	16.071	1861.005	1806.405
338.416	16.301	1859.911	1807.606
339.431	16.299	1859.014	1806.486
340.446	16.369	1857.188	1805.250
341.460	16.657	1856.277	1807.245
342.475	16.899	1855.207	1808.574
343.489	17.031	1854.423	1809.017
344.504	16.899	1853.504	1806.486
345.519	16.943	1851.900	1805.173
346.533	17.277	1849.801	1806.482
347.548	17.274	1849.574	1806.018
348.562	17.098	1847.421	1801.815
349.577	16.997	1847.773	1800.872
350.592	17.352	1846.743	1803.436
351.606	17.494	1845.089	1803.117
352.621	17.433	1842.769	1799.986
353.635	17.154	1841.182	1795.254
354.650	17.091	1839.338	1792.570
355.665	17.016	1837.567	1789.838
356.679	16.762	1836.804	1786.184
357.694	16.666	1835.732	1783.913
358.708	16.733	1833.709	1782.443
359.723	18.016	1838.224	1800.210
360.738	21.133	1842.234	1836.957
361.752	20.188	1837.041	1821.589
362.767	17.419	1829.975	1785.196
363.781	16.840	1826.544	1775.539
364.796	16.544	1825.461	1771.159
365.810	16.492	1824.061	1769.044
366.825	16.618	1822.651	1768.789
367.840	16.865	1822.726	1771.248
368.854	17.000	1821.109	1770.878
369.869	16.793	1818.409	1765.875
370.883	16.496	1818.029	1762.178
371.898	16.524	1816.381	1760.668
372.913	16.424	1814.738	1757.814
373.927	16.565	1813.936	1758.300
374.942	16.799	1812.658	1759.291
375.956	16.731	1812.527	1758.245
376.971	16.809	1808.981	1755.408
377.986	16.811	1807.187	1753.479
379.000	16.433	1807.290	1749.441
380.015	16.579	1804.744	1748.283
381.029	16.474	1802.825	1745.124
382.044	16.091	1801.012	1739.193
383.059	16.310	1799.113	1739.418
384.073	16.273	1799.353	1739.051
385.088	16.368	1796.953	1737.513
386.102	16.320	1795.255	1735.159
387.117	16.321	1793.469	1733.243
388.132	16.450	1793.841	1734.727
389.146	17.332	1799.134	1748.756
390.161	20.778	1803.515	1788.443
391.175	20.578	1795.887	1778.612
392.190	17.474	1787.637	1738.413
393.205	16.578	1784.758	1726.220
394.219	16.513	1782.768	1723.417
395.234	16.384	1781.310	1720.487
396.248	16.420	1779.570	1718.970
397.263	16.478	1776.723	1716.602
398.278	16.393	1776.152	1714.980
399.292	16.351	1775.326	1713.545
400.307	16.293	1774.479	1711.933
401.321	16.498	1773.747	1713.106
402.336	16.618	1771.954	1712.392
403.350	16.681	1770.588	1711.515
404.365	16.857	1769.011	1711.566
405.380	17.205	1768.462	1714.364
406.394	17.151	1767.147	1712.340
407.409	16.901	1766.873	1709.332
408.423	17.135	1765.378	1710.045
409.438	17.122	1763.722	1708.108
410.453	16.913	1762.734	1704.834
411.467	17.100	1762.243	1706.042
412.482	16.927	1760.163	1702.079
413.496	16.634	1758.372	1697.195
414.511	16.665	1756.090	1695.098
415.526	16.558	1753.710	1691.527
416.540	16.408	1753.022	1689.151
417.555	16.696	1751.459	1690.336
418.569	16.846	1753.101	1693.225
419.584	16.957	1752.588	1693.633
420.599	16.883	1752.847	1692.940
421.613	16.896	1751.759	1691.819
422.628	16.946	1749.153	1689.600
423.642	16.893	1746.600	1686.400
424.657	16.748	1744.781	1682.996
425.672	16.974	1742.838	1683.173
426.686	16.802	1742.378	1680.810
427.701	16.749	1741.543	1679.277
428.715	16.748	1740.450	1678.017
429.730	17.082	1738.681	1679.426
430.745	16.903	1737.451	1676.260
431.759	16.930	1737.417	1676.300
432.774	17.343	1738.190	1680.942
433.788	17.838	1737.947	1685.428
434.803	18.334	1736.729	1688.961
435.818	18.173	1736.041	1686.493
436.832	17.827	1736.661	1683.468
437.847	16.933	1729.938	1667.914
438.861	9.348	1708.765	1572.975
439.876	1.725	1693.933	1484.631
440.890	0.280	1690.677	1467.460
441.905	0.032	1689.559	1463.891
442.920	0.214	1687.915	1464.071
443.934	0.184	1686.960	1462.776
444.949	0.163	1685.007	1460.699
445.963	0.181	1683.903	1459.741
446.978	0.048	1684.614	1458.888
447.993	0.099	1682.990	1457.799
449.007	0.222	1679.986	1456.217
450.022	0.134	1679.044	1454.375
451.036	0.127	1677.359	1452.680
452.051	1.057	1681.630	1465.241
453.066	8.573	1699.069	1553.864
454.080	16.333	1710.575	1640.232
455.095	17.917	1713.186	1658.006
456.109	18.535	1713.300	1663.953
457.124	18.696	1711.862	1663.925
458.139	18.689	1711.667	1663.467
459.153	18.923	1710.730	1664.636
460.168	19.007	1708.373	1662.955
461.182	18.636	1707.823	1658.617
462.197	18.668	1705.718	1656.691
463.212	18.664	1703.172	1653.983
464.226	18.548	1702.641	1652.141
465.241	18.809	1702.251	1654.091
466.255	18.821	1701.567	1653.346
467.270	18.903	1699.704	1652.128
468.285	18.701	1698.154	1648.474
469.299	18.606	1696.941	1646.181
470.314	18.711	1695.320	1645.429
471.328	18.690	1693.884	1643.631
472.343	18.684	1693.346	1642.860
473.358	18.874	1691.492	1642.687
474.372	18.888	1690.827	1641.983
475.387	18.704	1688.399	1637.663
476.401	18.582	1687.270	1635.204
477.416	18.812	1685.745	1635.728
478.430	18.737	1685.155	1634.243
479.445	18.643	1683.098	1631.155
480.460	18.464	1682.012	1628.194
481.474	18.600	1681.414	1628.718
482.489	18.865	1679.957	1629.641
483.503	19.001	1678.356	1629.187
484.518	19.029	1677.113	1628.050
485.533	18.920	1676.078	1625.820
486.547	19.008	1674.862	1625.279
487.562	19.041	1674.818	1625.356
488.576	19.131	1672.478	1623.741
489.591	19.009	1671.685	1621.624
490.606	18.991	1669.806	1619.434
491.620	18.998	1668.407	1617.952
492.635	19.098	1666.869	1617.208
493.649	19.287	1665.881	1617.839
494.664	18.906	1664.602	1612.814
495.679	18.643	1662.214	1607.828
496.693	18.674	1661.755	1607.489
497.708	18.881	1660.988	1608.500
498.722	19.054	1660.607	1609.562
499.737	19.141	1658.424	1608.069
500.752	18.979	1656.580	1604.569
501.766	18.926	1655.135	1602.486
502.781	18.936	1653.885	1601.179
503.795	19.068	1651.768	1600.169
504.810	19.015	1651.365	1599.088
505.825	19.005	1651.723	1599.152
506.839	19.206	1649.609	1598.790
507.854	19.136	1647.894	1596.284
508.868	19.069	1646.887	1594.492
509.883	19.237	1645.964	1594.970
510.898	19.378	1645.057	1595.218
511.912	19.090	1643.197	1590.544
512.927	19.048	1641.184	1588.019
513.941	18.807	1640.028	1584.478
514.956	18.910	1638.677	1583.931
515.971	18.913	1637.108	1582.257
516.985	18.921	1636.284	1581.346
518.000	19.065	1635.608	1581.826
519.014	19.144	1634.963	1581.747
520.029	19.405	1633.448	1582.501
521.043	19.267	1631.956	1579.595
522.058	19.043	1631.151	1576.563
523.073	19.235	1630.628	1577.633
524.087	19.494	1630.026	1579.247
525.102	19.482	1628.173	1577.148
526.116	19.098	1626.257	1571.582
527.131	19.114	1625.067	1570.391
528.146	19.433	1624.891	1572.957
529.160	19.585	1623.247	1572.572
530.175	19.545	1622.227	1571.030
531.189	19.593	1621.408	1570.485
532.204	19.488	1620.071	1568.046
533.219	19.358	1617.410	1564.095
534.233	19.037	1617.165	1560.742
535.248	19.372	1616.631	1563.095
536.262	19.509	1616.617	1564.142
537.277	19.559	1614.788	1562.637
538.292	19.240	1612.393	1557.234
539.306	19.111	1611.896	1555.396
540.321	19.261	1609.791	1554.543
541.335	19.078	1608.752	1551.697
542.350	19.277	1607.189	1551.803
543.365	19.531	1605.818	1552.590
544.379	19.455	1604.736	1550.672
545.394	19.569	1603.633	1550.451
546.408	19.395	1601.548	1546.681
547.423	19.147	1600.021	1542.786
548.438	19.013	1599.308	1540.708
549.452	19.242	1598.207	1541.526
550.467	19.398	1596.957	1541.537
551.481	19.397	1596.030	1540.448
552.496	19.430	1596.122	1540.649
553.511	19.698	1594.302	1541.108
554.525	19.495	1593.538	1538.369
555.540	19.673	1592.866	1539.124
556.554	19.765	1591.465	1538.407
557.569	19.669	1589.953	1535.909
558.583	19.396	1588.481	1531.868
559.598	19.533	1586.975	1531.453
560.613	19.525	1586.711	1530.943
561.627	19.553	1585.030	1529.387
562.642	19.738	1584.064	1529.913
563.656	19.880	1582.673	1529.654
564.671	19.898	1581.638	1528.630
565.686	19.766	1580.348	1526.028
566.700	19.576	1579.174	1523.027
567.715	19.424	1577.181	1519.577
568.729	19.356	1575.470	1517.145
569.744	19.122	1573.880	1513.363
570.759	19.109	1572.729	1511.962
571.773	19.338	1572.258	1513.349
572.788	19.481	1570.551	1512.781
573.802	19.637	1569.314	1512.784
574.817	19.747	1568.429	1512.714
575.832	19.896	1567.637	1513.086
576.846	19.913	1566.253	1511.714
577.861	19.699	1564.982	1508.431
578.875	19.847	1564.929	1509.498
579.890	20.031	1563.947	1509.981
580.905	19.839	1562.791	1507.003
581.919	19.884	1562.901	1507.321
582.934	20.021	1561.529	1507.016
583.948	20.068	1558.935	1504.741
584.963	19.989	1557.325	1502.317
585.978	19.632	1556.906	1498.627
586.992	19.782	1556.248	1499.123
588.007	19.993	1555.385	1499.946
589.021	19.486	1554.115	1494.134
590.036	19.372	1552.459	1491.369
591.051	19.525	1550.440	1490.577
592.065	19.814	1549.652	1492.150
593.080	19.863	1548.628	1491.411
594.094	19.869	1547.023	1489.739
595.109	19.421	1545.165	1483.899
596.123	19.584	1542.868	1482.922
597.138	19.706	1542.833	1483.761
598.153	19.810	1541.620	1483.318
599.167	19.850	1540.621	1482.521
600.182	19.768	1540.158	1481.187
601.196	19.924	1539.314	1481.542
602.211	19.880	1538.290	1480.002
603.226	20.099	1536.801	1480.277
604.240	20.172	1534.749	1478.749
605.255	20.302	1534.643	1479.583
606.269	20.249	1533.716	1478.057
607.284	20.077	1532.386	1475.126
608.299	20.056	1530.458	1472.911
609.313	19.943	1529.390	1470.741
610.328	20.007	1528.350	1470.113
611.342	20.101	1526.808	1469.256
612.357	20.365	1526.370	1470.911
613.372	20.379	1525.321	1469.843
614.386	20.039	1524.813	1466.279
615.401	20.128	1523.500	1465.605
616.415	20.199	1523.109	1465.651
617.430	20.242	1522.238	1465.005
618.445	20.381	1520.435	1464.275
619.459	20.196	1519.345	1461.475
620.474	19.884	1518.238	1457.595
621.488	19.583	1515.618	1452.361
622.503	19.399	1514.373	1449.446
623.518	19.682	1514.872	1452.139
624.532	19.994	1513.754	1453.525
625.547	20.157	1512.335	1453.366
626.561	20.348	1512.565	1455.022
627.576	20.359	1511.248	1453.667
628.591	20.014	1508.852	1448.293
629.605	19.774	1507.398	1444.710
630.620	19.642	1505.602	1441.706
631.634	19.515	1504.474	1439.387
632.649	19.516	1503.755	1438.538
633.663	19.853	1502.571	1440.050
634.678	20.186	1501.808	1441.930
635.693	20.397	1500.529	1442.294
636.707	20.534	1499.282	1442.066
637.722	20.557	1499.171	1441.982
638.736	20.650	1497.746	1441.205
639.751	20.557	1497.094	1439.638
640.766	20.585	1494.764	1437.454
641.780	20.651	1493.287	1436.408
642.795	20.535	1492.455	1434.474
643.809	20.617	1492.037	1434.578
644.824	20.578	1491.459	1433.532
645.839	20.430	1490.823	1431.525
646.853	20.460	1489.199	1430.039
647.868	20.523	1487.350	1428.614
648.882	20.350	1486.219	1425.924
649.897	20.473	1485.176	1425.768
650.912	20.453	1483.552	1423.878
651.926	20.388	1482.280	1421.947
652.941	20.099	1480.565	1417.755
653.955	19.844	1479.186	1414.171
654.970	19.592	1477.000	1409.846
655.985	19.795	1475.463	1409.877
656.999	19.800	1474.601	1408.924
658.014	20.003	1473.907	1409.754
659.028	20.084	1473.203	1409.574
660.043	20.429	1472.401	1411.457
661.058	20.327	1471.367	1409.466
662.072	20.425	1470.937	1409.683
663.087	20.304	1469.818	1407.457
664.101	20.346	1469.202	1407.040
665.116	20.435	1468.206	1406.644
666.131	20.640	1465.946	1405.973
667.145	20.572	1465.376	1404.704
668.160	20.683	1464.913	1404.998
669.174	20.820	1463.708	1404.780
670.189	20.632	1462.930	1402.344
671.204	20.673	1461.321	1400.963
672.218	20.573	1461.145	1399.817
673.233	20.681	1459.578	1399.024
674.247	20.890	1458.356	1399.370
675.262	20.877	1457.689	1398.456
676.276	20.753	1457.180	1396.804
677.291	20.816	1455.056	1395.108
678.306	20.511	1453.883	1391.365
679.320	20.421	1452.646	1389.287
680.335	20.787	1452.081	1391.524
681.349	20.855	1451.776	1391.606
682.364	20.681	1450.699	1389.018
683.379	20.860	1448.588	1388.259
684.393	20.668	1447.896	1385.893
685.408	20.769	1446.522	1385.220
686.422	20.847	1445.385	1384.589
687.437	20.770	1445.516	1383.937
688.452	20.902	1445.586	1384.890
689.466	20.725	1443.032	1380.865
690.481	20.554	1441.193	1377.582
691.495	20.300	1440.459	1374.691
692.510	19.851	1438.728	1369.305
693.525	19.570	1437.102	1365.362
694.539	19.858	1436.509	1366.920
695.554	20.294	1437.281	1370.952
696.568	20.763	1436.175	1373.456
697.583	20.937	1434.854	1373.406
698.598	20.983	1433.926	1372.715
699.612	20.933	1433.014	1371.284
700.627	20.967	1431.818	1370.241
701.641	20.867	1430.216	1367.755
702.656	20.996	1428.855	1367.306
703.671	21.118	1429.008	1368.254
704.685	21.072	1428.640	1367.375
705.700	21.067	1426.783	1365.398
706.714	20.900	1424.469	1361.704
707.729	20.635	1423.568	1358.599
708.744	20.591	1422.650	1357.220
709.758	20.477	1421.326	1354.897
710.773	20.385	1419.561	1352.335
711.787	20.136	1418.562	1349.273
712.802	20.239	1416.818	1348.257
713.816	20.623	1415.870	1350.185
714.831	20.824	1415.347	1351.094
715.846	20.909	1415.271	1351.526
716.860	20.991	1413.790	1350.584
717.875	20.994	1412.413	1349.131
718.889	20.914	1411.448	1347.426
719.904	20.838	1410.322	1345.603
720.919	21.070	1408.592	1345.592
721.933	21.085	1408.828	1345.772
722.948	21.032	1408.132	1344.535
723.962	20.985	1407.194	1343.114
724.977	21.217	1406.107	1343.708
725.992	21.244	1404.794	1342.501
727.006	21.170	1403.142	1340.191
728.021	21.272	1401.766	1339.506
729.035	21.297	1400.928	1338.735
730.050	21.207	1399.868	1336.872
731.065	21.221	1399.033	1336.018
732.079	21.310	1397.922	1335.480
733.094	21.209	1396.545	1333.232
734.108	21.070	1395.111	1330.636
735.123	21.165	1393.530	1329.698
736.138	21.016	1393.240	1328.120
737.152	21.145	1392.311	1328.061
738.167	21.310	1391.245	1328.151
739.181	21.292	1390.592	1327.231
740.196	21.180	1390.086	1325.733
741.211	21.100	1389.390	1324.301
742.225	21.051	1388.547	1322.966
743.240	21.105	1386.668	1321.425
744.254	21.333	1384.990	1321.398
745.269	21.339	1384.056	1320.398
746.284	21.100	1384.141	1318.504
747.298	21.059	1381.980	1315.978
748.313	20.670	1380.499	1311.464
749.327	20.109	1379.410	1306.024
750.342	19.851	1377.946	1302.531
751.356	19.817	1375.977	1300.258
752.371	20.070	1375.474	1301.535
753.386	20.761	1375.948	1307.043
754.400	21.060	1375.732	1308.935
755.415	21.228	1374.662	1309.026
756.429	21.335	1373.338	1308.419
757.444	21.284	1372.240	1306.832
758.459	21.240	1371.879	1306.002
759.473	21.378	1371.017	1306.062
760.488	21.402	1370.174	1305.278
761.502	21.412	1368.292	1303.409
762.517	21.310	1366.609	1300.880
763.532	21.114	1365.419	1298.133
764.546	21.040	1363.186	1295.298
765.561	20.500	1363.108	1291.040
766.575	20.259	1361.251	1287.326
767.590	20.174	1359.928	1285.290
768.605	20.586	1358.795	1287.131
769.619	20.941	1358.273	1289.121
770.634	21.038	1357.724	1289.169
771.648	21.322	1357.054	1290.483
772.663	21.346	1356.973	1290.430
773.678	21.422	1356.076	1289.990
774.692	21.390	1355.563	1289.109
775.707	21.560	1354.295	1289.003
776.721	21.610	1353.767	1288.723
777.736	21.561	1352.664	1287.152
778.751	21.419	1351.570	1284.910
779.765	21.582	1349.566	1284.053
780.780	21.436	1349.247	1282.517
781.794	21.502	1348.045	1281.712
782.809	21.312	1346.878	1279.044
783.824	21.210	1346.152	1277.452
784.838	20.770	1343.692	1271.742
785.853	20.274	1342.537	1266.855
786.867	20.487	1342.516	1268.243
787.882	20.718	1342.146	1269.434
788.897	20.902	1341.436	1269.965
789.911	21.149	1340.609	1270.834
790.926	21.185	1339.854	1270.233
791.940	21.263	1338.531	1269.394
792.955	21.223	1337.287	1267.768
793.969	21.452	1335.773	1267.856
794.984	21.340	1335.601	1266.719
795.999	21.443	1334.367	1266.146
797.013	21.607	1332.149	1265.087
798.028	21.299	1331.544	1262.126
799.042	21.533	1330.921	1263.079
800.057	21.610	1330.244	1262.846
801.072	21.748	1328.254	1261.801
802.086	21.639	1327.459	1260.105
803.101	21.523	1326.318	1258.035
804.115	21.643	1325.792	1258.255
805.130	21.596	1324.699	1256.723
806.145	21.607	1323.568	1255.578
807.159	21.612	1321.755	1253.745
808.174	21.465	1320.251	1251.117
809.188	21.420	1318.459	1248.939
810.203	21.170	1317.062	1245.675
811.218	21.026	1315.748	1243.253
812.232	20.655	1313.976	1238.776
813.247	20.292	1313.893	1235.947
814.261	20.760	1314.114	1239.363
815.276	21.107	1312.996	1240.640
816.291	21.338	1312.286	1241.468
817.305	21.569	1311.369	1242.096
818.320	21.634	1309.911	1241.030
819.334	21.556	1308.447	1238.944
820.349	21.652	1306.875	1237.986
821.364	21.527	1305.598	1235.742
822.378	21.698	1304.256	1235.535
823.393	21.704	1302.642	1233.903
824.407	21.684	1302.284	1233.277
825.422	21.540	1301.411	1231.284
826.437	21.614	1300.230	1230.539
827.451	21.496	1297.221	1226.712
828.466	20.787	1295.324	1219.781
829.480	20.503	1293.798	1216.200
830.495	20.789	1292.904	1217.226
831.509	21.179	1292.890	1219.807
832.524	21.229	1293.022	1220.134
833.539	21.487	1291.944	1220.782
834.553	21.512	1290.681	1219.620
835.568	21.589	1290.051	1219.415
836.582	21.674	1289.055	1218.920
837.597	21.793	1287.249	1217.899
838.612	21.783	1284.995	1215.551
839.626	21.600	1283.876	1213.074
840.641	21.408	1282.929	1210.700
841.655	21.222	1281.854	1208.247
842.670	20.740	1280.424	1203.400
843.685	20.357	1279.140	1199.394
844.699	21.008	1278.027	1202.719
845.714	21.353	1277.682	1204.644
846.728	21.476	1277.458	1205.139
847.743	21.551	1276.926	1205.009
848.758	21.697	1275.505	1204.537
849.772	21.755	1274.322	1203.675
850.787	21.561	1273.618	1201.525
851.801	21.513	1272.329	1199.836
852.816	21.595	1270.156	1198.208
853.831	21.469	1269.094	1196.199
854.845	21.540	1267.217	1194.770
855.860	21.375	1265.609	1191.979
856.874	21.162	1264.437	1189.279
857.889	20.940	1262.890	1186.164
858.904	20.620	1261.269	1182.313
859.918	20.435	1259.306	1179.070
860.933	20.343	1257.943	1177.025
861.947	20.687	1258.076	1179.349
862.962	20.939	1257.392	1180.287
863.977	21.053	1255.998	1179.607
864.991	21.232	1256.058	1180.739
866.006	21.281	1255.953	1180.834
867.020	21.522	1254.330	1180.801
868.035	21.499	1253.635	1179.851
869.049	21.709	1252.237	1179.814
870.064	21.702	1251.705	1179.123
871.079	21.713	1250.340	1177.775
872.093	21.614	1250.219	1176.848
873.108	21.672	1248.762	1175.727
874.122	21.520	1246.688	1172.607
875.137	21.158	1245.773	1169.170
876.152	21.013	1245.064	1167.390
877.166	21.196	1244.042	1167.520
878.181	21.310	1243.341	1167.492
879.195	21.731	1242.774	1169.647
880.210	21.627	1242.383	1168.436
881.225	21.561	1241.016	1166.571
882.239	21.800	1239.753	1166.843
883.254	21.706	1239.112	1165.475
884.268	21.622	1238.754	1164.436
885.283	21.794	1236.898	1163.699
886.298	21.626	1235.082	1160.731
887.312	21.564	1234.848	1159.962
888.327	21.667	1233.926	1159.642
889.341	21.740	1231.972	1158.148
890.356	21.707	1231.118	1156.991
891.371	21.665	1230.942	1156.409
892.385	21.431	1230.555	1154.353
893.400	21.418	1228.831	1152.508
894.414	21.242	1227.748	1150.190
895.429	20.995	1226.260	1147.029
896.444	20.554	1223.224	1141.143
897.458	20.262	1221.461	1137.434
898.473	20.552	1221.962	1139.676
899.487	20.974	1221.650	1142.027
900.502	21.473	1221.104	1144.663
901.517	21.453	1220.131	1143.487
902.531	21.600	1219.021	1143.275
903.546	21.668	1218.661	1143.241
904.560	21.741	1217.955	1142.923
905.575	21.786	1216.961	1142.149
906.589	21.801	1216.257	1141.447
907.604	21.667	1215.239	1139.478
