DTS Sentinel unit serial number:	SN409020Multiplexer serial number:	ORYXHardware model number:	OX4-SRSoftware version number:	ORYX F/W v3.00 Oryx Data Collector v3.7.2.0data status	okinstallation	HaddamTimeLapsedifferential loss correction	single-endedforward channel	channel 3reverse channel	N/Adate	2011/06/22time	11:01:01forward acquisition time	30.00reverse acquisition time	0.00gamma	498.7831k internal	0.1771k external	0.1771temperature offset calibration	1.0074default loss term (dB/km)	0.3790temperature slope calibration	1.3530multiplexer offset coefficient	1.0000multiplexer slope coefficient	1.0000fibre end	0.00T internal ref (°C)	29.75T ext. ref 1 (°C)	24.80T ext. ref 2 (°C)	-0.10length (m)	temperature (°C)	Stokes	anti-Stokes-747.200	348.129	-0.157	-0.409
-746.185	15.703	0.162	0.167
-745.171	486.600	0.120	-0.362
-744.156	800.000	0.051	-0.237
-743.142	-122.576	-0.141	0.030
-742.127	116.112	0.131	0.212
-741.112	38.518	-0.297	-0.348
-740.098	250.801	0.203	0.455
-739.083	-43.490	0.063	0.042
-738.069	-99.136	-0.050	-0.017
-737.054	-11.167	-0.308	0.266
-736.039	-200.000	0.049	0.551
-735.025	344.577	-0.252	0.652
-734.010	226.973	-0.126	0.270
-732.996	402.118	-0.125	-0.347
-731.981	-160.293	1.061	0.074
-730.966	-115.058	0.425	-0.105
-729.952	-193.651	-0.646	0.007
-728.937	386.340	-0.053	-0.145
-727.923	-84.467	-0.082	0.034
-726.908	-16.241	-0.230	0.192
-725.894	-200.000	-0.058	-0.350
-724.879	126.316	-0.135	0.224
-723.864	-34.307	-0.311	-0.223
-722.850	44.708	0.091	0.110
-721.835	-200.000	0.029	0.285
-720.821	14.770	0.202	0.208
-719.806	134.636	0.110	0.188
-718.791	-106.206	-0.244	-0.071
-717.777	452.589	0.054	-0.158
-716.762	338.121	-0.182	-0.467
-715.748	-6.543	0.151	0.135
-714.733	90.171	-0.065	0.095
-713.718	279.871	-0.280	0.659
-712.704	-200.000	0.005	0.218
-711.689	-200.000	0.030	0.267
-710.675	-25.111	0.377	-0.293
-709.660	-59.091	-0.300	0.169
-708.645	555.890	-0.170	0.541
-707.631	9.696	0.235	-0.233
-706.616	-200.000	0.010	-0.207
-705.602	-104.946	-0.136	0.041
-704.587	-121.157	0.304	0.066
-703.572	-200.000	-0.003	-0.175
-702.558	-193.433	0.441	0.005
-701.543	-29.131	0.388	-0.291
-700.529	-200.000	-0.042	-0.356
-699.514	-110.513	-0.069	-0.019
-698.499	57.475	-0.165	-0.212
-697.485	88.538	-0.047	-0.068
-696.470	219.282	-0.058	0.123
-695.456	-104.484	-0.275	0.083
-694.441	-200.000	0.012	-0.181
-693.426	-64.891	0.530	-0.280
-692.412	-200.000	-0.001	-0.331
-691.397	177.543	-0.113	-0.217
-690.383	-19.608	0.403	-0.326
-689.368	-57.120	0.173	0.100
-688.354	-149.367	0.370	-0.038
-687.339	-200.000	-0.043	0.287
-686.324	-200.000	0.021	0.317
-685.310	22.614	-0.259	0.277
-684.295	281.794	-0.112	0.264
-683.281	-71.393	0.247	-0.121
-682.266	131.893	0.130	0.220
-681.251	-108.779	-0.095	0.026
-680.237	-200.000	0.033	0.297
-679.222	-200.000	0.021	0.165
-678.208	34.903	0.239	-0.274
-677.193	-57.897	0.333	0.190
-676.178	-142.219	0.074	0.010
-675.164	-200.000	0.040	0.286
-674.149	-200.000	-0.031	-0.218
-673.135	17.278	0.190	-0.197
-672.120	-50.969	0.233	0.143
-671.105	-200.000	-0.055	0.469
-670.091	369.179	0.154	0.410
-669.076	31.878	-0.186	0.210
-668.062	-81.573	0.254	-0.109
-667.047	-193.498	0.118	0.001
-666.032	321.565	0.048	-0.120
-665.018	-110.680	0.441	-0.118
-664.003	-129.175	-0.376	0.068
-662.989	-72.180	0.261	-0.126
-661.974	402.665	0.202	0.558
-660.959	48.460	-0.072	-0.088
-659.945	-3.290	0.224	-0.204
-658.930	-200.000	0.003	-0.172
-657.916	-62.604	0.538	0.291
-656.901	800.000	0.040	0.199
-655.886	-72.323	-0.330	0.159
-654.872	260.117	-0.064	-0.145
-653.857	19.463	0.188	-0.198
-652.843	-181.292	0.142	0.004
-651.828	2.146	0.265	-0.251
-650.814	-25.391	0.274	-0.212
-649.799	-80.583	0.297	0.129
-648.784	800.000	-0.022	-0.109
-647.770	-61.667	0.249	-0.136
-646.755	-78.985	-0.184	-0.081
-645.741	-200.000	0.000	0.048
-644.726	173.326	0.282	0.533
-643.711	-13.407	-0.537	-0.455
-642.697	-30.205	-0.169	0.126
-641.682	-132.671	-0.455	0.076
-640.668	-200.000	-0.075	0.540
-639.653	-56.497	-0.036	0.021
-638.638	-66.388	-0.223	0.115
-637.624	-99.665	-0.175	-0.057
-636.609	-168.111	-0.382	-0.019
-635.595	-29.631	0.247	0.184
-634.580	-21.184	-0.203	-0.162
-633.565	105.374	-0.114	-0.177
-632.551	474.189	0.103	0.304
-631.536	-82.638	-0.210	-0.089
-630.522	122.140	-0.190	-0.311
-629.507	59.282	-0.245	0.316
-628.492	-102.034	-0.448	-0.140
-627.478	-172.423	-0.229	0.009
-626.463	53.106	0.170	-0.212
-625.449	81.327	0.071	0.101
-624.434	-25.187	0.161	-0.124
-623.419	51.199	-0.191	-0.238
-622.405	205.453	-0.170	0.345
-621.390	633.344	0.121	-0.403
-620.376	105.342	0.151	-0.234
-619.361	-46.361	-0.276	0.177
-618.346	249.108	-0.151	0.336
-617.332	-116.292	-0.118	0.028
-616.317	-95.701	0.264	0.092
-615.303	-122.023	-0.193	0.041
-614.288	-200.000	0.016	-0.263
-613.273	103.696	0.135	-0.208
-612.259	-200.000	0.045	0.310
-611.244	-61.494	0.319	0.174
-610.230	11.010	-0.181	-0.180
-609.215	-34.265	0.279	-0.199
-608.201	-0.886	-0.022	0.021
-607.186	-200.000	-0.012	0.569
-606.171	-147.503	-0.165	0.018
-605.157	142.072	0.145	-0.252
-604.142	800.000	0.062	0.256
-603.128	-117.193	0.064	-0.015
-602.113	-161.939	-0.144	0.009
-601.098	-140.573	-0.531	0.071
-600.084	41.086	0.387	0.457
-599.069	-120.939	0.159	-0.035
-598.055	-115.606	0.233	0.057
-597.040	-28.555	-0.526	-0.395
-596.025	-200.000	0.035	-0.697
-595.011	-36.860	0.315	-0.220
-593.996	8.154	-0.272	0.267
-592.982	-3.796	0.082	-0.074
-591.967	189.333	0.148	-0.291
-590.952	800.000	-0.032	0.150
-589.938	-112.900	0.608	0.156
-588.923	-7.320	0.239	-0.211
-587.909	-200.000	0.062	-0.379
-586.894	-48.869	0.203	-0.127
-585.879	216.751	-0.221	-0.460
-584.865	142.670	0.208	-0.361
-583.850	-9.351	-0.184	0.160
-582.836	140.661	0.312	-0.539
-581.821	43.756	-0.044	-0.052
-580.806	-7.984	-0.244	-0.214
-579.792	-84.905	-0.497	-0.203
-578.777	226.913	-0.077	-0.164
-577.763	29.289	0.115	0.128
-576.748	-72.303	-0.253	0.122
-575.733	63.986	0.112	0.148
-574.719	-146.557	-0.434	-0.049
-573.704	-17.623	-0.335	-0.275
-572.690	77.313	-0.113	-0.157
-571.675	-102.083	0.150	-0.047
-570.661	-105.167	0.384	0.114
-569.646	-200.000	-0.036	-0.370
-568.631	-200.000	0.028	-0.224
-567.617	-30.421	0.101	-0.075
-566.602	-71.251	-0.348	-0.170
-565.588	285.012	-0.045	0.107
-564.573	800.000	-0.018	-0.087
-563.558	-200.000	0.017	0.160
-562.544	76.719	0.236	0.327
-561.529	22.865	-0.275	0.294
-560.515	2.567	-0.240	-0.227
-559.500	-28.786	-0.273	-0.204
-558.485	-200.000	0.019	0.310
-557.471	-200.000	-0.076	0.459
-556.456	50.362	-0.157	0.194
-555.442	800.000	0.045	-0.210
-554.427	-114.425	-0.268	0.067
-553.412	394.085	-0.137	-0.373
-552.398	800.000	0.031	0.164
-551.383	358.671	-0.061	0.160
-550.369	-138.928	-0.189	0.026
-549.354	182.595	0.139	-0.269
-548.339	-4.352	-0.061	-0.055
-547.325	36.566	0.054	0.062
-546.310	800.000	0.207	-0.823
-545.296	-95.293	-0.236	-0.082
-544.281	-136.163	0.022	-0.003
-543.266	-57.796	-0.140	0.079
-542.252	-73.663	-0.368	0.174
-541.237	5.553	-0.139	0.134
-540.223	-145.890	-0.278	0.032
-539.208	-50.148	0.074	-0.045
-538.193	-182.202	0.270	-0.006
-537.179	-131.750	0.052	-0.009
-536.164	-156.834	-0.308	0.024
-535.150	800.000	-0.037	-0.169
-534.135	329.105	0.170	0.427
-533.121	-130.586	0.203	-0.035
-532.106	-13.728	-0.438	-0.368
-531.091	800.000	-0.027	-0.122
-530.077	-164.780	0.494	-0.029
-529.062	173.215	0.139	-0.261
-528.048	-119.569	-0.502	-0.112
-527.033	-38.432	0.445	0.306
-526.018	110.011	-0.140	0.219
-525.004	-24.123	-0.262	0.203
-523.989	-200.000	-0.090	0.669
-522.975	612.373	0.069	0.225
-521.960	-200.000	-0.003	-0.050
-520.945	-200.000	0.003	0.295
-519.931	-126.803	-0.405	0.077
-518.916	-176.582	-0.321	-0.011
-517.902	-123.632	0.329	-0.067
-516.887	188.168	0.172	-0.336
-515.872	-44.772	-0.326	0.211
-514.858	99.628	0.098	0.148
-513.843	-62.190	0.100	-0.054
-512.829	-42.053	0.257	0.171
-511.814	21.246	0.174	-0.184
-510.799	27.836	-0.284	0.311
-509.785	489.768	-0.103	-0.308
-508.770	274.487	0.112	-0.259
-507.756	-168.549	0.422	-0.021
-506.741	757.678	-0.078	-0.275
-505.726	-158.879	-0.572	0.042
-504.712	16.005	-0.219	0.224
-503.697	55.463	-0.271	0.342
-502.683	-149.754	-0.506	-0.051
-501.668	-64.571	0.184	-0.097
-500.653	-200.000	-0.030	0.282
-499.639	236.309	-0.122	-0.264
-498.624	-105.055	-0.706	-0.209
-497.610	49.628	0.155	-0.190
-496.595	800.000	-0.132	0.512
-495.581	522.605	-0.104	0.319
-494.566	412.723	-0.139	-0.386
-493.551	148.878	0.184	0.325
-492.537	193.922	0.256	-0.505
-491.522	-125.452	0.317	-0.062
-490.508	-5.746	-0.411	0.365
-489.493	-139.922	-0.068	0.009
-488.478	538.950	-0.234	-0.728
-487.464	106.164	0.129	0.199
-486.449	-41.187	0.141	-0.095
-485.435	568.313	-0.071	0.225
-484.420	-54.781	-0.502	-0.294
-483.405	404.307	-0.151	-0.415
-482.391	-200.000	0.033	0.196
-481.376	-122.224	-0.299	0.063
-480.362	-9.471	-0.160	-0.139
-479.347	-63.668	0.160	0.085
-478.332	800.000	0.019	0.074
-477.318	800.000	-0.036	-0.150
-476.303	43.125	0.212	-0.252
-475.289	-119.228	0.342	-0.077
-474.274	-90.122	0.357	0.134
-473.259	-128.834	0.248	0.045
-472.245	47.423	-0.155	0.188
-471.230	20.107	-0.312	-0.327
-470.216	510.025	0.010	0.030
-469.201	223.115	-0.077	-0.161
-468.186	-35.856	-0.300	-0.211
-467.172	177.298	-0.141	0.268
-466.157	-114.852	-0.353	-0.087
-465.143	-9.045	-0.429	0.373
-464.128	-170.609	-0.238	0.011
-463.113	-200.000	-0.073	0.427
-462.099	-105.770	-0.319	0.093
-461.084	-99.731	-0.146	-0.047
-460.070	-73.563	0.141	-0.067
-459.055	154.533	-0.068	0.123
-458.040	14.717	-0.254	-0.258
-457.026	-26.724	0.122	0.092
-456.011	23.563	0.197	-0.211
-454.997	-31.837	0.086	0.063
-453.982	108.649	0.110	-0.171
-452.968	-10.860	0.120	-0.102
-451.953	81.401	-0.169	-0.238
-450.938	113.539	-0.425	-0.671
-449.924	-103.183	-0.518	0.158
-448.909	-17.981	0.149	-0.121
-447.895	-139.503	0.282	0.039
-446.880	-97.398	0.345	0.116
-445.865	-50.477	-0.217	0.132
-444.851	-63.230	0.173	-0.092
-443.836	-39.886	-0.215	-0.145
-442.822	-200.000	0.038	-0.274
-441.807	-143.165	0.146	0.018
-440.792	-44.943	0.505	-0.326
-439.778	-6.738	0.329	-0.291
-438.763	95.718	-0.258	0.383
-437.749	-64.121	-0.543	0.286
-436.734	-36.661	0.164	-0.114
-435.719	519.154	-0.069	0.212
-434.705	-43.348	-0.387	-0.254
-433.690	-160.125	0.336	0.023
-432.676	90.921	0.230	-0.336
-431.661	14.606	0.190	-0.193
-430.646	22.498	0.456	-0.484
-429.632	-130.364	0.325	-0.057
-428.617	-200.000	-0.022	-0.151
-427.603	-57.023	0.256	-0.146
-426.588	-29.625	-0.247	0.183
-425.573	-59.156	0.359	0.200
-424.559	-80.021	-0.162	-0.070
-423.544	294.943	0.107	-0.256
-422.530	800.000	-0.044	-0.231
-421.515	800.000	-0.076	-0.360
-420.500	-200.000	-0.006	-0.315
-419.486	43.508	0.028	0.034
-418.471	-200.000	-0.005	-0.129
-417.457	-45.432	-0.464	0.298
-416.442	139.193	-0.163	-0.279
-415.428	-49.172	0.269	0.166
-414.413	-82.524	-0.312	-0.131
-413.398	265.234	0.224	0.507
-412.384	404.019	-0.077	-0.212
-411.369	800.000	0.019	0.093
-410.355	-37.909	-0.296	0.204
-409.340	47.461	-0.083	-0.100
-408.325	-139.076	-0.382	0.053
-407.311	-151.504	0.165	0.016
-406.296	355.587	0.097	0.252
-405.282	-37.242	0.161	0.111
-404.267	-10.841	0.048	0.041
-403.252	-126.889	0.282	-0.053
-402.238	-10.578	0.087	0.074
-401.223	-186.794	-0.175	0.003
-400.209	-155.865	0.562	0.046
-399.194	-60.055	0.084	-0.046
-398.179	196.371	0.160	-0.317
-397.165	137.091	-0.151	0.256
-396.150	-48.015	0.277	-0.173
-395.136	-68.277	0.181	0.091
-394.121	-76.056	-0.338	-0.154
-393.106	-109.845	0.020	-0.005
-392.092	189.947	-0.069	0.135
-391.077	-155.748	-0.310	-0.025
-390.063	491.410	0.090	-0.269
-389.048	-22.227	0.090	0.071
-388.033	6.424	0.367	-0.353
-387.019	7.864	-0.228	0.221
-386.004	205.779	-0.179	0.361
-384.990	420.082	0.097	0.269
-383.975	-200.000	0.014	0.465
-382.960	-200.000	0.072	-0.497
-381.946	-69.845	-0.521	-0.257
-380.931	-109.889	-0.332	0.090
-379.917	-200.000	0.020	-0.487
-378.902	800.000	-0.064	0.252
-377.888	69.331	0.110	0.147
-376.873	-101.832	0.223	-0.069
-375.858	-31.197	0.503	0.366
-374.844	-76.263	0.277	0.126
-373.829	275.206	-0.136	0.313
-372.815	800.000	0.005	0.023
-371.800	-63.378	-0.222	0.118
-370.785	-63.537	0.713	0.377
-369.771	255.241	0.129	0.287
-368.756	351.443	-0.011	0.029
-367.742	-127.590	-0.288	-0.054
-366.727	-97.698	0.616	0.205
-365.712	-200.000	-0.002	0.128
-364.698	-53.333	0.399	-0.236
-363.683	97.320	-0.235	-0.349
-362.669	150.912	0.125	-0.220
-361.654	800.000	0.041	0.171
-360.639	-99.468	0.264	-0.085
-359.625	-198.962	-0.233	0.002
-358.610	800.000	-0.068	0.271
-357.596	-81.156	0.231	-0.098
-356.581	505.012	-0.022	0.065
-355.566	-64.914	-0.642	0.335
-354.552	-12.862	-0.217	0.183
-353.537	-187.308	-0.051	-0.001
-352.523	285.300	0.236	-0.551
-351.508	23.416	-0.105	-0.112
-350.493	-144.556	-0.269	0.032
-349.479	-200.000	0.006	-0.092
-348.464	-200.000	0.039	-0.368
-347.450	346.760	-0.048	-0.124
-346.435	-39.050	0.054	0.037
-345.420	31.981	0.204	-0.228
-344.406	91.615	0.373	-0.542
-343.391	-135.210	-0.153	0.024
-342.377	-95.513	-0.556	0.192
-341.362	-171.301	-0.130	0.006
-340.348	-42.867	-0.408	0.267
-339.333	73.038	-0.215	0.291
-338.318	307.903	0.049	0.118
-337.304	800.000	-0.060	-0.301
-336.289	-11.534	-0.194	-0.165
-335.275	-57.884	0.370	-0.208
-334.260	-65.698	0.460	-0.238
-333.245	2.097	0.165	0.154
-332.231	-200.000	-0.007	-0.595
-331.216	250.834	-0.246	-0.542
-330.202	124.854	-0.132	-0.215
-329.187	219.290	-0.209	0.433
-328.172	598.540	0.056	-0.180
-327.158	-10.554	-0.690	0.590
-326.143	-200.000	0.001	0.219
-325.129	-45.947	0.397	0.252
-324.114	468.706	-0.061	-0.177
-323.099	364.735	-0.161	-0.421
-322.085	9.879	0.206	0.202
-321.070	-83.296	0.640	0.264
-320.056	155.631	0.065	-0.115
-319.041	585.001	-0.110	-0.351
-318.026	-200.000	-0.021	-0.399
-317.012	-16.069	-0.180	0.147
-315.997	-200.000	-0.058	0.383
-314.983	-200.000	0.027	0.515
-313.968	-105.857	-0.281	0.081
-312.953	-80.726	-0.126	-0.054
-311.939	-65.235	0.468	0.242
-310.924	-200.000	0.010	0.085
-309.910	2.588	-0.125	0.117
-308.895	76.563	0.231	0.317
-307.880	40.493	-0.178	0.207
-306.866	59.836	0.462	-0.589
-305.851	517.251	-0.127	0.385
-304.837	-115.123	0.475	0.115
-303.822	13.670	0.136	0.136
-302.807	24.873	0.246	0.263
-301.793	686.212	0.128	0.433
-300.778	203.902	0.095	-0.190
-299.764	46.560	-0.101	0.121
-298.749	-26.986	-0.311	-0.234
-297.735	232.663	-0.139	0.295
-296.720	-154.244	0.585	-0.050
-295.705	-146.624	0.601	0.067
-294.691	-35.463	-0.186	-0.130
-293.676	140.928	0.203	-0.346
-292.662	-122.663	0.443	0.092
-291.647	100.533	-0.063	-0.094
-290.632	-84.427	0.338	-0.137
-289.618	313.820	0.129	0.316
-288.603	44.149	-0.252	0.299
-287.589	0.742	0.192	-0.177
-286.574	-200.000	0.076	0.766
-285.559	731.308	-0.047	0.162
-284.545	22.758	-0.318	-0.336
-283.530	-200.000	-0.027	-0.437
-282.516	58.508	0.127	-0.160
-281.501	-60.592	0.342	-0.187
-280.486	-45.787	0.427	0.272
-279.472	141.455	-0.213	-0.365
-278.457	503.595	0.110	0.330
-277.443	-29.725	0.162	0.119
-276.428	800.000	-0.086	-0.444
-275.413	207.051	-0.248	0.500
-274.399	-105.212	-0.193	0.056
-273.384	-144.105	0.391	0.047
-272.370	53.435	-0.248	0.307
-271.355	800.000	0.045	0.180
-270.340	-112.584	-0.050	0.013
-269.326	-144.794	0.087	-0.010
-268.311	800.000	0.041	0.219
-267.297	67.888	-0.179	-0.237
-266.282	88.824	0.324	-0.465
-265.267	43.594	0.508	-0.599
-264.253	800.000	-0.010	0.040
-263.238	-107.105	-0.073	0.021
-262.224	-124.142	-0.072	0.014
-261.209	258.562	-0.163	-0.363
-260.195	266.536	-0.103	0.233
-259.180	304.175	-0.101	-0.244
-258.165	-88.661	0.453	-0.173
-257.151	206.400	0.118	0.237
-256.136	445.295	0.111	-0.316
-255.122	800.000	0.031	-0.163
-254.107	77.347	-0.346	-0.475
-253.092	800.000	0.129	0.543
-252.078	63.512	0.362	0.469
-251.063	55.208	0.116	0.145
-250.049	-97.278	-0.288	0.096
-249.034	-149.613	-0.295	-0.030
-248.019	-81.973	0.135	-0.057
-247.005	-200.000	-0.019	0.615
-245.990	-103.888	0.269	0.081
-244.976	-77.607	0.385	0.171
-243.961	-67.752	0.482	0.242
-242.946	-78.360	-0.305	0.134
-241.932	-200.000	0.080	-0.550
-240.917	-110.397	0.284	0.075
-239.903	-137.634	-0.284	0.041
-238.888	50.252	-0.120	-0.146
-237.873	-147.083	0.357	-0.039
-236.859	97.101	0.088	0.130
-235.844	-69.689	0.056	0.028
-234.830	-200.000	0.009	0.168
-233.815	-29.471	0.201	-0.148
-232.800	-69.686	0.365	0.179
-231.786	321.384	0.224	0.551
-230.771	-200.000	0.024	-0.188
-229.757	-34.665	-0.176	0.124
-228.742	-136.649	-0.302	-0.044
-227.727	-104.312	0.413	0.122
-226.713	390.559	0.169	-0.454
-225.698	-135.294	-0.157	0.024
-224.684	-154.002	-0.156	0.013
-223.669	260.321	-0.189	0.421
-222.655	-43.154	0.429	0.279
-221.640	-200.000	0.012	0.083
-220.625	800.000	0.082	-0.383
-219.611	800.000	0.025	-0.123
-218.596	-179.462	0.464	-0.013
-217.582	-125.967	0.479	-0.092
-216.567	359.064	-0.091	0.235
-215.552	148.210	0.144	-0.251
-214.538	212.724	0.171	0.348
-213.523	-110.758	0.331	0.087
-212.509	-60.498	-0.448	0.244
-211.494	-200.000	0.015	-0.319
-210.479	350.803	-0.061	-0.157
-209.465	-136.663	0.245	0.036
-208.450	52.895	-0.088	-0.108
-207.436	-47.873	-0.064	0.040
-206.421	-32.767	-0.168	0.120
-205.406	449.041	-0.090	0.258
-204.392	-200.000	0.022	-0.237
-203.377	-81.448	0.322	0.136
-202.363	-70.248	-0.272	-0.132
-201.348	253.651	0.093	0.205
-200.333	545.461	0.078	-0.241
-199.319	711.338	0.085	0.289
-198.304	800.000	0.086	0.326
-197.290	-103.790	0.411	-0.123
-196.275	32.672	0.256	0.284
-195.260	66.113	0.087	0.114
-194.246	-196.325	-0.078	-0.001
-193.231	-22.725	0.253	-0.196
-192.217	800.000	0.050	0.227
-191.202	225.226	-0.142	0.297
-190.187	112.507	0.374	-0.583
-189.173	-10.776	0.087	0.074
-188.158	-47.566	0.416	0.259
-187.144	11.285	-0.086	-0.084
-186.129	92.302	-0.122	-0.177
-185.114	-200.000	-0.006	-0.065
-184.100	-93.672	0.212	-0.075
-183.085	322.052	0.061	-0.149
-182.071	-110.417	0.821	-0.218
-181.056	41.511	0.350	0.407
-180.042	512.689	-0.176	0.531
-179.027	-128.857	-0.339	-0.061
-178.012	-30.642	-0.358	0.260
-176.998	-59.308	0.249	0.137
-175.983	-37.729	-0.414	-0.282
-174.969	-80.617	0.351	0.149
-173.954	-200.000	-0.032	-0.278
-172.939	745.903	0.121	0.422
-171.925	71.401	0.134	0.179
-170.910	374.555	0.176	0.464
-169.896	-53.823	0.193	0.113
-168.881	-130.296	-0.630	0.109
-167.866	46.406	-0.267	-0.318
-166.852	-96.367	0.162	0.055
-165.837	-133.816	-0.714	-0.113
-164.823	800.000	-0.045	0.254
-163.808	-46.898	0.409	0.256
-162.793	-61.021	0.235	-0.127
-161.779	-124.220	-0.332	-0.066
-160.764	-73.077	-0.601	0.282
-159.750	-70.951	-0.412	-0.198
-158.735	37.738	-0.259	0.295
-157.720	-35.664	-0.375	0.261
-156.706	-46.095	-0.431	-0.272
-155.691	-2.274	0.254	-0.229
-154.677	-150.793	-0.450	0.043
-153.662	90.043	0.171	-0.245
-152.647	-160.982	0.325	-0.022
-151.633	-89.836	0.196	0.073
-150.618	-83.469	-0.320	0.131
-149.604	-185.293	0.315	-0.006
-148.589	22.412	0.320	-0.336
-147.574	-60.711	0.362	-0.196
-146.560	-161.286	0.235	0.015
-145.545	-109.696	-0.210	-0.056
-144.531	800.000	0.081	0.370
-143.516	314.038	0.064	-0.155
-142.502	-11.630	0.392	-0.330
-141.487	-200.000	-0.053	0.429
-140.472	187.798	0.043	0.082
-139.458	800.000	0.035	-0.155
-138.443	-200.000	-0.007	-0.313
-137.429	-41.631	0.341	-0.224
-136.414	-200.000	-0.057	-0.360
-135.399	-83.404	-0.338	0.138
-134.385	-146.102	-0.065	-0.007
-133.370	-111.049	0.071	-0.019
-132.356	-200.000	0.040	-0.590
-131.341	-131.995	0.150	0.025
-130.326	24.742	0.568	-0.603
-129.312	-153.680	-0.286	-0.025
-128.297	48.691	0.007	-0.008
-127.283	-145.143	-0.216	0.025
-126.268	-11.540	-0.561	0.472
-125.253	60.227	-0.358	0.454
-124.239	-38.329	0.168	-0.114
-123.224	-1.079	-0.612	-0.555
-122.210	341.631	-0.034	0.087
-121.195	72.884	0.093	-0.125
-120.180	-68.962	0.126	0.062
-119.166	-138.357	-0.459	0.064
-118.151	-180.017	-0.402	-0.011
-117.137	-200.000	-0.024	-0.282
-116.122	-159.543	0.093	0.007
-115.107	348.645	0.170	0.433
-114.093	-55.746	-0.380	-0.217
-113.078	800.000	-0.055	0.269
-112.064	-200.000	0.070	0.405
-111.049	-95.571	0.840	-0.287
-110.034	-12.939	0.107	0.089
-109.020	719.339	-0.035	0.121
-108.005	107.339	0.297	-0.454
-106.991	-49.642	-0.114	0.069
-105.976	71.988	0.160	-0.213
-104.962	-57.183	-0.386	0.217
-103.947	122.295	-0.300	0.481
-102.932	68.348	-0.102	-0.134
-101.918	-133.909	-0.430	-0.068
-100.903	100.904	0.171	0.256
-99.889	-105.593	0.187	-0.054
-98.874	-200.000	-0.008	0.598
-97.859	219.822	0.136	0.279
-96.845	-200.000	0.018	0.156
-95.830	-16.978	-0.280	0.226
-94.816	-155.314	0.562	-0.046
-93.801	-131.666	0.246	-0.041
-92.786	-147.143	0.143	-0.015
-91.772	117.502	0.195	0.307
-90.757	800.000	-0.062	-0.291
-89.743	-200.000	-0.006	0.444
-88.728	800.000	-0.082	-0.323
-87.713	463.766	-0.046	0.133
-86.699	-131.025	0.190	-0.032
-85.684	-74.146	-0.366	-0.169
-84.670	169.223	-0.017	0.031
-83.655	133.440	-0.290	-0.482
-82.640	-107.486	0.358	0.100
-81.626	169.900	-0.305	-0.559
-80.611	101.751	0.170	0.254
-79.597	717.399	0.054	0.184
-78.582	-99.863	-0.107	-0.034
-77.567	43.061	-0.293	-0.342
-76.553	-162.823	-0.279	-0.017
-75.538	-105.784	-0.453	-0.130
-74.524	-41.614	-0.094	0.062
-73.509	223.989	0.185	0.385
-72.494	661.104	0.168	-0.557
-71.480	-54.767	0.399	0.230
-70.465	43.671	0.291	-0.341
-69.451	36.398	0.035	-0.039
-68.436	800.000	0.112	0.611
-67.422	272.437	0.075	-0.170
-66.407	294.364	-0.112	-0.263
-65.392	-12.729	0.232	-0.193
-64.378	-200.000	-0.006	-0.273
-63.363	-105.279	-0.332	-0.096
-62.349	18.259	0.226	-0.230
-61.334	-12.550	-2.169	-1.808
-60.319	200.471	0.704	1.388
-59.305	265.815	-3.309	-7.411
-58.290	40.469	4.037	4.651
-57.276	327.228	4.141	10.196
-56.261	-200.000	19.822	290.050
-55.246	394.382	1250.722	3347.582
-54.232	55.883	2844.798	3529.898
-53.217	66.777	2707.430	3526.549
-52.203	42.778	2439.202	2841.941
-51.188	38.786	2098.321	2395.784
-50.173	31.808	1980.197	2179.599
-49.159	30.606	1970.001	2154.297
-48.144	30.147	1965.860	2144.348
-47.130	30.170	1962.757	2141.151
-46.115	30.058	1961.831	2138.749
-45.100	29.959	1960.770	2136.367
-44.086	29.996	1958.452	2134.186
-43.071	30.005	1957.160	2132.799
-42.057	29.969	1955.577	2130.571
-41.042	30.048	1953.689	2129.344
-40.027	29.944	1952.736	2127.016
-39.013	30.021	1950.813	2125.726
-37.998	29.916	1949.381	2122.870
-36.984	29.824	1949.171	2121.495
-35.969	29.846	1947.484	2119.832
-34.954	29.785	1946.259	2117.707
-33.940	29.919	1944.708	2117.473
-32.925	29.953	1942.756	2115.665
-31.911	29.875	1942.113	2113.976
-30.896	29.893	1940.793	2112.668
-29.881	29.773	1940.107	2110.456
-28.867	29.898	1938.333	2109.876
-27.852	29.850	1936.628	2107.389
-26.838	29.898	1935.366	2106.476
-25.823	29.818	1934.208	2104.217
-24.809	29.645	1933.038	2100.891
-23.794	29.721	1932.949	2101.577
-22.779	29.836	1930.097	2099.706
-21.765	29.655	1929.434	2096.834
-20.750	29.737	1927.512	2095.596
-19.736	29.762	1926.455	2094.656
-18.721	29.741	1924.966	2092.711
-17.706	29.597	1924.506	2090.483
-16.692	29.821	1922.736	2091.028
-15.677	29.743	1921.720	2088.955
-14.663	29.612	1920.720	2086.297
-13.648	29.682	1918.697	2084.810
-12.633	29.653	1917.702	2083.323
-11.619	29.699	1915.862	2081.760
-10.604	29.639	1915.168	2080.245
-9.590	29.581	1913.980	2078.207
-8.575	29.707	1912.618	2078.073
-7.560	29.477	1912.454	2075.217
-6.546	29.618	1910.446	2074.541
-5.531	29.535	1909.263	2072.237
-4.517	29.498	1908.270	2070.670
-3.502	29.635	1906.838	2070.574
-2.487	29.579	1905.628	2068.552
-1.473	29.629	1901.471	2064.512
-0.458	29.248	1883.019	2040.156
0.556	25.261	2028.216	2136.953
1.571	23.873	2238.069	2339.421
2.586	24.830	2281.093	2397.007
3.600	25.067	2284.112	2403.086
4.615	25.381	2283.827	2406.730
5.629	25.419	2281.199	2404.186
6.644	25.355	2280.899	2402.718
7.659	25.576	2278.594	2402.970
8.673	25.398	2276.608	2398.206
9.688	24.629	2282.161	2393.420
10.702	23.099	2361.429	2454.921
11.717	22.165	2430.363	2512.868
12.731	12.783	2404.377	2351.687
13.746	2.477	2375.139	2176.149
14.761	0.485	2369.996	2142.764
15.775	0.366	2367.552	2138.588
16.790	0.345	2365.901	2136.551
17.804	0.251	2364.256	2133.462
18.819	0.323	2362.521	2132.669
19.834	0.232	2361.804	2130.474
20.848	0.281	2360.848	2130.061
21.863	0.248	2359.204	2127.847
22.877	0.198	2358.090	2125.875
23.892	0.130	2355.177	2122.033
24.907	0.340	2351.562	2121.490
25.921	0.245	2350.385	2118.832
26.936	0.259	2348.099	2116.721
27.950	0.370	2345.490	2115.681
28.965	0.289	2343.839	2112.799
29.980	0.272	2342.288	2110.907
30.994	0.372	2340.016	2110.011
32.009	5.735	2357.925	2201.778
33.023	18.500	2397.461	2420.693
34.038	24.777	2410.208	2522.538
35.053	25.883	2410.475	2538.195
36.067	25.879	2406.939	2534.102
37.082	25.687	2404.936	2528.981
38.096	25.751	2404.570	2529.191
39.111	26.232	2401.750	2532.711
40.126	26.600	2402.119	2537.977
41.140	27.036	2402.081	2543.776
42.155	26.917	2398.739	2538.265
43.169	26.804	2397.888	2535.468
44.184	26.891	2394.100	2532.376
45.199	26.628	2391.870	2526.026
46.213	26.310	2391.409	2520.784
47.228	26.497	2388.929	2520.489
48.242	26.437	2386.510	2516.799
49.257	26.362	2385.302	2514.176
50.271	26.517	2384.226	2514.899
51.286	26.683	2381.440	2513.975
52.301	26.387	2378.662	2506.624
53.315	25.820	2376.248	2495.878
54.330	24.855	2372.754	2478.485
55.344	24.326	2368.079	2465.950
56.359	24.255	2363.271	2459.667
57.374	24.072	2362.058	2455.577
58.388	24.082	2359.426	2452.680
59.403	24.478	2355.868	2454.163
60.417	24.651	2353.633	2453.933
61.432	24.736	2352.094	2453.204
62.447	24.548	2350.107	2448.252
63.461	24.469	2348.025	2444.707
64.476	24.567	2346.238	2443.899
65.490	24.888	2346.232	2448.011
66.505	25.356	2347.627	2455.600
67.520	25.907	2348.440	2463.739
68.534	26.166	2346.060	2464.501
69.549	26.514	2343.568	2466.353
70.563	26.651	2343.060	2467.396
71.578	26.612	2340.429	2463.806
72.593	26.638	2338.734	2462.073
73.607	26.809	2337.288	2462.594
74.622	26.868	2335.911	2461.657
75.636	26.710	2332.261	2455.360
76.651	26.737	2329.972	2453.028
77.666	26.788	2328.649	2452.032
78.680	26.732	2327.292	2449.547
79.695	27.011	2325.726	2451.396
80.709	27.129	2324.919	2451.854
81.724	27.123	2323.740	2450.234
82.739	27.073	2319.926	2445.241
83.753	27.047	2317.167	2441.683
84.768	26.706	2315.845	2435.392
85.782	26.608	2314.536	2432.407
86.797	26.686	2311.433	2429.901
87.812	26.540	2310.322	2426.477
88.826	26.501	2308.005	2423.232
89.841	26.570	2306.260	2422.031
90.855	26.845	2303.806	2422.859
91.870	26.748	2302.176	2419.553
92.884	26.654	2301.009	2416.786
93.899	26.764	2299.907	2416.809
94.914	26.247	2297.795	2407.369
95.928	25.153	2293.755	2388.220
96.943	24.785	2290.999	2380.145
97.957	25.695	2291.536	2392.577
98.972	26.283	2291.253	2399.847
99.987	26.282	2287.202	2395.312
101.001	26.424	2284.907	2394.507
102.016	26.456	2283.396	2393.069
103.030	26.369	2281.634	2389.771
104.045	26.674	2279.138	2390.919
105.060	26.808	2278.675	2391.920
106.074	26.735	2276.453	2388.338
107.089	26.514	2274.101	2382.656
108.103	26.685	2273.879	2384.402
109.118	26.668	2271.676	2381.592
110.133	26.779	2269.502	2380.484
111.147	26.814	2268.684	2379.810
112.162	26.858	2266.754	2378.078
113.176	26.625	2264.416	2372.272
114.191	26.684	2262.505	2370.761
115.206	26.748	2260.840	2369.570
116.220	26.705	2258.014	2365.764
117.235	26.585	2256.272	2362.083
118.249	26.582	2254.571	2359.975
119.264	26.819	2253.464	2361.643
120.279	26.927	2252.095	2361.334
121.293	26.797	2248.871	2355.975
122.308	26.781	2247.474	2354.022
123.322	26.640	2246.039	2350.401
124.337	26.124	2244.013	2341.268
125.352	25.351	2239.875	2326.614
126.366	25.207	2239.120	2323.674
127.381	26.055	2238.256	2333.528
128.395	26.467	2237.691	2338.017
129.410	26.815	2235.754	2340.224
130.424	26.795	2233.938	2337.789
131.439	26.647	2232.589	2334.176
132.454	26.710	2230.535	2332.571
133.468	26.683	2227.610	2328.876
134.483	26.623	2226.151	2326.297
135.497	26.557	2225.042	2324.015
136.512	26.703	2222.436	2322.888
137.527	26.615	2221.053	2320.029
138.541	26.556	2219.565	2317.449
139.556	26.411	2218.735	2314.437
140.570	26.709	2216.265	2315.405
141.585	26.599	2214.391	2311.758
142.600	26.582	2214.002	2310.858
143.614	26.548	2211.793	2307.841
144.629	26.736	2210.156	2308.263
145.643	26.485	2208.138	2302.669
146.658	26.519	2204.577	2299.122
147.673	26.500	2204.278	2298.290
148.687	26.649	2203.132	2298.714
149.702	26.562	2202.240	2296.406
150.716	26.556	2200.279	2294.013
151.731	26.721	2200.439	2296.004
152.746	26.936	2199.192	2297.165
153.760	26.154	2196.041	2283.654
154.775	24.900	2191.500	2262.744
155.789	24.442	2189.079	2254.157
156.804	25.362	2188.174	2264.624
157.819	26.045	2186.688	2271.463
158.833	26.411	2185.053	2274.114
159.848	26.581	2184.029	2274.924
160.862	26.945	2182.533	2277.686
161.877	27.090	2181.663	2278.336
162.892	27.002	2181.895	2277.192
163.906	27.130	2180.348	2276.922
164.921	27.122	2178.027	2274.126
165.935	26.995	2175.731	2269.857
166.950	26.872	2173.521	2265.737
167.964	26.740	2170.200	2260.356
168.979	26.677	2168.451	2257.469
169.994	26.771	2168.742	2258.679
171.008	26.923	2166.242	2257.704
172.023	26.730	2164.967	2253.693
173.037	26.734	2163.765	2252.220
174.052	26.705	2161.816	2249.560
175.067	26.619	2160.691	2247.048
176.081	26.782	2158.018	2246.031
177.096	26.807	2156.907	2244.917
178.110	26.680	2154.389	2240.453
179.125	26.753	2153.172	2239.818
180.140	26.833	2152.712	2240.071
181.154	26.828	2151.006	2237.962
182.169	26.629	2149.492	2233.653
183.183	25.989	2146.551	2222.405
184.198	24.990	2141.842	2204.916
185.213	24.587	2141.386	2199.196
186.227	25.948	2142.819	2217.236
187.242	26.546	2141.597	2223.086
188.256	26.553	2140.128	2221.388
189.271	26.794	2139.849	2223.798
190.286	26.896	2138.404	2223.296
191.300	26.694	2135.173	2217.189
192.315	26.644	2133.658	2214.730
193.329	26.818	2133.152	2216.072
194.344	26.995	2131.002	2215.756
195.359	26.960	2130.991	2215.044
196.373	27.031	2129.022	2213.601
197.388	27.053	2125.799	2210.258
198.402	26.797	2123.672	2204.653
199.417	26.701	2120.179	2199.596
200.432	26.766	2119.026	2198.923
201.446	26.840	2118.890	2199.421
202.461	26.755	2117.790	2196.980
203.475	26.673	2115.010	2192.837
204.490	26.587	2112.287	2188.699
205.504	26.707	2109.919	2187.439
206.519	26.469	2108.277	2182.596
207.534	26.535	2106.474	2181.272
208.548	26.570	2105.205	2180.120
209.563	26.297	2102.858	2174.125
210.577	26.309	2101.540	2172.642
211.592	26.289	2102.023	2172.637
212.607	25.783	2098.901	2163.050
213.621	24.432	2093.043	2140.483
214.636	24.309	2093.411	2139.109
215.650	25.690	2095.427	2157.575
216.665	26.383	2094.037	2164.217
217.680	26.543	2092.896	2164.712
218.694	26.744	2091.725	2165.658
219.709	26.629	2089.808	2162.025
220.723	26.729	2089.183	2162.318
221.738	26.930	2086.985	2162.194
222.753	26.819	2084.494	2158.034
223.767	26.736	2083.496	2155.748
224.782	26.496	2080.416	2149.442
225.796	26.542	2079.614	2148.895
226.811	26.676	2078.791	2149.387
227.826	27.020	2076.882	2151.250
228.840	27.020	2075.916	2150.001
229.855	26.922	2074.505	2147.113
230.869	26.938	2072.352	2144.816
231.884	26.771	2071.606	2141.803
232.899	26.648	2068.865	2137.259
233.913	26.675	2067.985	2136.416
234.928	26.650	2067.555	2135.416
235.942	26.694	2065.964	2134.038
236.957	26.768	2063.894	2132.517
237.972	26.708	2062.434	2130.049
238.986	26.800	2061.039	2129.431
240.001	26.839	2059.640	2128.194
241.015	26.361	2057.615	2120.217
242.030	26.155	2055.583	2115.442
243.045	25.273	2051.586	2100.706
244.059	25.105	2050.683	2097.548
245.074	26.078	2050.640	2108.687
246.088	26.602	2048.238	2112.117
247.103	26.614	2047.564	2111.312
248.117	26.846	2046.207	2112.376
249.132	26.896	2046.061	2112.550
250.147	26.731	2042.619	2106.822
251.161	26.524	2040.402	2101.860
252.176	26.692	2039.030	2102.157
253.190	26.543	2037.255	2098.344
254.205	26.398	2034.250	2093.304
255.220	26.397	2033.452	2092.220
256.234	26.284	2033.035	2090.227
257.249	26.256	2031.842	2088.430
258.263	26.384	2030.189	2087.963
259.278	26.311	2028.390	2085.015
260.293	26.223	2026.921	2082.244
261.307	26.413	2025.872	2083.114
262.322	26.549	2023.976	2082.489
263.336	26.331	2020.997	2076.656
264.351	26.220	2019.413	2073.503
265.366	26.335	2019.395	2074.555
266.380	26.406	2018.082	2073.783
267.395	26.174	2015.695	2068.403
268.409	26.244	2014.111	2067.335
269.424	26.736	2013.995	2072.627
270.439	26.792	2013.353	2072.365
271.453	26.371	2009.574	2063.396
272.468	24.978	2005.129	2042.627
273.482	24.616	2003.992	2037.086
274.497	25.793	2004.165	2050.488
275.512	26.587	2002.665	2057.791
276.526	26.574	2000.818	2055.491
277.541	26.378	1999.352	2051.513
278.555	26.328	1997.718	2049.017
279.570	26.119	1994.708	2043.308
280.585	26.007	1993.236	2040.283
281.599	26.352	1992.499	2043.202
282.614	26.459	1991.485	2043.131
283.628	26.364	1989.897	2040.176
284.643	26.329	1989.091	2038.709
285.657	26.371	1987.840	2037.662
286.672	26.277	1986.086	2034.561
287.687	26.034	1983.501	2028.917
288.701	26.007	1982.595	2027.444
289.716	26.039	1980.997	2025.923
290.730	25.972	1979.045	2022.937
291.745	26.100	1978.182	2023.256
292.760	26.173	1977.414	2023.051
293.774	26.224	1976.879	2022.832
294.789	26.649	1977.092	2027.586
295.803	26.645	1974.438	2024.579
296.818	26.745	1972.978	2023.961
297.833	26.856	1971.759	2023.713
298.847	26.842	1970.585	2022.106
299.862	26.824	1968.876	2019.914
300.876	26.526	1965.854	2013.240
301.891	25.140	1961.834	1993.404
302.906	25.059	1960.710	1991.124
303.920	26.398	1962.870	2008.038
304.935	26.576	1960.876	2007.743
305.949	26.665	1959.857	2007.446
306.964	27.043	1958.095	2009.603
307.979	26.951	1955.698	2005.886
308.993	26.367	1952.521	1995.903
310.008	26.022	1951.400	1990.694
311.022	26.133	1949.798	1990.051
312.037	26.288	1948.214	1989.911
313.052	25.984	1945.718	1983.761
314.066	25.503	1943.624	1976.074
315.081	25.224	1941.216	1970.318
316.095	25.085	1939.959	1967.268
317.110	25.088	1939.456	1966.558
318.125	25.516	1938.536	1970.106
319.139	25.995	1938.501	1975.108
320.154	26.317	1936.989	1976.872
321.168	26.133	1935.740	1973.341
322.183	26.322	1934.696	1974.114
323.197	26.549	1933.356	1975.001
324.212	26.506	1930.750	1971.628
325.227	26.438	1930.429	1970.320
326.241	26.561	1928.080	1969.039
327.256	26.654	1926.623	1968.330
328.270	26.568	1926.161	1966.685
329.285	26.526	1926.581	1966.410
330.300	26.209	1924.446	1960.543
331.314	24.863	1919.382	1940.495
332.329	24.668	1918.319	1937.060
333.343	26.073	1918.220	1952.018
334.358	26.644	1918.284	1958.054
335.373	26.866	1917.196	1959.118
336.387	26.809	1915.393	1956.425
337.402	26.688	1913.950	1953.410
338.416	26.614	1912.028	1950.414
339.431	26.810	1910.820	1951.062
340.446	27.156	1908.767	1952.472
341.460	27.044	1906.925	1949.145
342.475	26.604	1905.397	1942.609
343.489	26.237	1902.250	1935.219
344.504	26.079	1901.319	1932.339
345.519	26.097	1899.010	1929.954
346.533	25.933	1896.162	1925.069
347.548	25.904	1895.707	1924.057
348.562	26.096	1894.480	1924.648
349.577	26.103	1894.365	1924.370
350.592	26.019	1892.937	1921.795
351.606	26.019	1891.815	1920.421
352.621	25.941	1889.811	1917.328
353.635	26.141	1888.313	1917.713
354.650	26.063	1888.653	1916.996
355.665	26.314	1886.882	1917.645
356.679	26.514	1885.635	1918.282
357.694	26.593	1883.975	1917.205
358.708	26.693	1883.707	1917.762
359.723	26.329	1880.892	1910.795
360.738	24.980	1876.724	1892.029
361.752	25.036	1876.488	1892.150
362.767	26.263	1876.050	1904.494
363.781	26.590	1875.269	1906.940
364.796	26.501	1874.849	1905.340
365.810	26.602	1873.279	1904.589
366.825	26.620	1871.980	1903.229
367.840	26.745	1871.421	1903.751
368.854	26.608	1870.358	1900.991
369.869	26.645	1869.345	1900.125
370.883	26.644	1867.455	1897.973
371.898	26.207	1864.557	1890.196
372.913	26.163	1862.505	1887.435
373.927	26.293	1861.557	1887.614
374.942	26.452	1860.376	1887.856
375.956	26.489	1858.892	1886.511
376.971	26.318	1856.382	1881.951
377.986	25.910	1853.760	1874.801
379.000	25.972	1853.820	1875.288
380.015	26.509	1852.948	1879.789
381.029	26.750	1851.971	1881.080
382.044	26.920	1850.652	1881.288
383.059	26.868	1848.512	1878.355
384.073	26.739	1845.919	1874.146
385.088	26.435	1845.218	1870.054
386.102	26.346	1844.400	1868.073
387.117	26.420	1842.212	1866.401
388.132	26.398	1842.129	1865.874
389.146	26.138	1841.399	1862.210
390.161	24.939	1836.137	1844.260
391.175	24.816	1833.842	1840.468
392.190	26.096	1832.906	1852.526
393.205	26.460	1832.308	1855.446
394.219	26.498	1830.849	1854.138
395.234	26.448	1829.610	1852.152
396.248	26.390	1828.086	1849.795
397.263	26.359	1825.054	1846.184
398.278	26.190	1823.509	1842.668
399.292	26.100	1823.006	1841.011
400.307	26.412	1822.798	1843.780
401.321	26.569	1821.276	1843.632
402.336	26.043	1818.301	1835.016
403.350	25.627	1816.467	1828.699
404.365	26.009	1816.089	1832.002
405.380	26.059	1813.921	1830.107
406.394	25.743	1812.168	1824.901
407.409	25.588	1810.638	1821.560
408.423	25.552	1808.889	1819.222
409.438	25.586	1807.365	1817.817
410.453	25.879	1807.034	1820.240
411.467	26.217	1808.218	1824.640
412.482	26.527	1807.269	1826.613
413.496	26.680	1805.738	1826.395
414.511	26.496	1803.377	1821.928
415.526	26.537	1801.181	1819.908
416.540	26.772	1800.644	1821.519
417.555	26.800	1799.046	1819.971
418.569	26.391	1798.806	1815.381
419.584	26.289	1798.683	1814.014
420.599	26.400	1797.626	1813.845
421.613	26.205	1796.561	1810.592
422.628	26.273	1794.932	1809.417
423.642	26.533	1793.266	1810.134
424.657	26.392	1792.065	1807.293
425.672	26.120	1790.127	1802.388
426.686	26.242	1789.690	1802.955
427.701	26.535	1788.707	1804.688
428.715	26.637	1787.067	1803.836
429.730	26.873	1785.659	1804.556
430.745	27.020	1784.401	1804.540
431.759	26.562	1782.852	1798.193
432.774	25.443	1780.050	1783.991
433.788	24.166	1776.679	1767.670
434.803	23.728	1774.899	1761.316
435.818	23.761	1773.501	1760.052
436.832	23.709	1773.233	1759.051
437.847	22.730	1764.540	1740.517
438.861	12.899	1737.472	1617.156
439.876	2.378	1718.152	1495.984
440.890	0.495	1713.113	1472.958
441.905	0.367	1712.741	1471.201
442.920	0.356	1711.552	1469.896
443.934	0.259	1709.477	1466.985
444.949	0.237	1708.189	1465.492
445.963	0.187	1707.825	1464.516
446.978	0.197	1707.271	1463.963
447.993	0.250	1705.448	1462.741
449.007	0.278	1702.724	1460.507
450.022	0.304	1700.968	1459.080
451.036	0.511	1700.495	1460.506
452.051	1.622	1703.646	1473.860
453.066	8.630	1723.186	1559.420
454.080	19.955	1743.790	1689.571
455.095	23.553	1749.709	1730.452
456.109	24.742	1751.551	1743.722
457.124	24.998	1750.735	1745.208
458.139	24.769	1749.376	1741.412
459.153	24.693	1748.216	1739.301
460.168	24.677	1745.777	1736.506
461.182	24.687	1744.130	1734.761
462.197	24.753	1742.395	1733.473
463.212	24.798	1741.540	1732.852
464.226	24.692	1741.009	1731.080
465.241	24.919	1738.668	1730.754
466.255	24.850	1738.081	1729.291
467.270	24.989	1736.326	1728.686
468.285	24.858	1735.079	1725.973
469.299	24.968	1734.271	1726.026
470.314	25.004	1732.332	1724.234
471.328	24.843	1731.203	1721.349
472.343	24.866	1730.533	1720.705
473.358	24.956	1728.835	1719.676
474.372	25.091	1727.133	1719.083
475.387	25.149	1726.671	1718.974
476.401	25.019	1724.508	1715.365
477.416	24.790	1722.676	1711.130
478.430	24.802	1721.978	1710.345
479.445	24.861	1720.934	1709.675
480.460	24.971	1720.104	1709.702
481.474	25.047	1719.155	1709.286
482.489	24.959	1717.597	1706.687
483.503	24.978	1715.924	1705.004
484.518	24.828	1714.115	1701.567
485.533	25.005	1712.716	1701.662
486.547	24.755	1711.176	1697.542
487.562	24.754	1709.210	1695.377
488.576	24.715	1708.567	1694.171
489.591	24.927	1706.858	1694.288
490.606	24.992	1706.394	1694.245
491.620	25.003	1704.587	1692.354
492.635	24.905	1702.896	1689.542
493.649	24.766	1701.221	1686.359
494.664	24.740	1700.351	1685.047
495.679	24.859	1699.450	1685.077
496.693	24.878	1697.979	1683.602
497.708	24.903	1697.170	1682.830
498.722	24.850	1695.556	1680.528
499.737	25.054	1693.566	1680.274
500.752	24.933	1692.817	1678.197
501.766	24.990	1691.538	1677.262
502.781	25.138	1688.947	1675.888
503.795	25.053	1687.365	1673.312
504.810	24.980	1687.033	1672.103
505.825	25.053	1686.259	1671.816
506.839	24.972	1685.467	1670.076
507.854	24.908	1684.077	1667.896
508.868	24.741	1681.856	1663.936
509.883	24.677	1681.217	1662.506
510.898	24.643	1680.240	1661.018
511.912	24.549	1678.313	1658.039
512.927	24.672	1675.685	1656.396
513.941	24.853	1674.666	1656.873
514.956	25.005	1673.999	1657.425
515.971	25.139	1672.811	1657.295
516.985	24.995	1672.135	1655.094
518.000	24.904	1671.257	1653.178
519.014	24.689	1669.913	1649.659
520.029	24.789	1668.395	1648.889
521.043	24.746	1666.269	1646.195
522.058	24.755	1664.821	1644.650
523.073	24.694	1664.340	1643.417
524.087	24.684	1663.355	1642.147
525.102	24.703	1661.808	1640.598
526.116	25.042	1660.914	1642.649
527.131	24.966	1659.957	1640.805
528.146	25.029	1658.758	1640.006
529.160	24.880	1657.174	1636.872
530.175	24.967	1656.065	1636.379
531.189	24.934	1654.996	1634.820
532.204	24.885	1653.905	1633.100
533.219	24.824	1652.944	1631.396
534.233	24.966	1651.427	1631.007
535.248	24.828	1650.720	1628.846
536.262	24.715	1649.445	1626.364
537.277	24.783	1648.334	1625.696
538.292	24.877	1646.291	1624.344
539.306	24.868	1644.288	1622.086
540.321	24.774	1643.237	1620.003
541.335	24.753	1641.538	1617.939
542.350	24.831	1640.164	1617.099
543.365	24.981	1637.925	1616.066
544.379	24.883	1637.215	1614.280
545.394	24.792	1636.589	1612.640
546.408	24.743	1635.861	1611.294
547.423	24.887	1634.447	1611.009
548.438	24.901	1633.489	1609.994
549.452	25.025	1631.783	1609.245
550.467	24.814	1630.814	1606.189
551.481	24.871	1629.741	1605.455
552.496	24.857	1628.556	1603.971
553.511	24.860	1626.763	1602.042
554.525	24.798	1626.321	1600.855
555.540	24.661	1626.475	1599.580
556.554	24.713	1624.354	1597.768
557.569	24.809	1622.502	1596.618
558.583	24.885	1620.643	1595.277
559.598	24.809	1619.431	1593.218
560.613	24.893	1618.986	1593.342
561.627	24.647	1617.867	1589.851
562.642	24.611	1615.124	1586.639
563.656	24.484	1614.017	1584.234
564.671	24.414	1613.062	1582.481
565.686	24.537	1611.997	1582.338
566.700	24.579	1610.861	1581.412
567.715	24.673	1609.882	1581.095
568.729	24.793	1608.519	1580.631
569.744	25.010	1606.867	1580.743
570.759	24.982	1605.342	1578.809
571.773	24.984	1604.349	1577.658
572.788	24.845	1603.348	1575.255
573.802	24.664	1602.133	1572.274
574.817	24.485	1599.978	1568.394
575.832	24.294	1598.405	1564.976
576.846	24.609	1597.197	1566.387
577.861	24.594	1596.342	1565.228
578.875	24.734	1595.084	1565.039
579.890	24.697	1594.364	1563.813
580.905	24.643	1593.709	1562.511
581.919	24.639	1592.796	1561.396
582.934	24.763	1591.649	1561.168
583.948	24.559	1590.655	1558.217
584.963	24.560	1589.109	1556.530
585.978	24.650	1587.713	1555.759
586.992	24.563	1587.237	1554.349
588.007	24.456	1586.029	1552.041
589.021	24.644	1584.642	1552.143
590.036	24.455	1583.416	1549.106
591.051	24.542	1582.345	1548.635
592.065	24.703	1579.884	1547.437
593.080	24.513	1578.872	1544.614
594.094	24.668	1577.339	1544.274
595.109	24.732	1576.119	1543.451
596.123	24.685	1575.669	1542.420
597.138	24.775	1573.870	1541.246
598.153	24.682	1572.495	1538.916
599.167	24.685	1570.755	1537.051
600.182	24.536	1569.991	1534.834
601.196	24.663	1569.147	1534.920
602.211	24.642	1567.929	1533.369
603.226	24.425	1566.924	1530.327
604.240	24.538	1565.054	1529.295
605.255	24.524	1563.504	1527.477
606.269	24.615	1562.714	1527.305
607.284	24.584	1562.160	1526.312
608.299	24.478	1561.051	1524.137
609.313	24.566	1559.489	1523.180
610.328	24.612	1558.194	1522.125
611.342	24.610	1556.560	1520.334
612.357	24.410	1555.770	1517.671
613.372	24.511	1554.579	1517.187
614.386	24.429	1553.332	1515.090
615.401	24.382	1552.838	1514.024
616.415	24.497	1551.512	1513.533
617.430	24.256	1550.804	1510.610
618.445	24.203	1549.317	1508.527
619.459	24.216	1548.712	1507.869
620.474	24.476	1547.731	1508.942
621.488	24.716	1547.171	1510.256
622.503	24.981	1545.573	1510.764
623.518	24.676	1544.301	1506.750
624.532	24.528	1542.614	1503.672
625.547	24.349	1541.186	1500.586
626.561	24.254	1540.288	1498.727
627.576	24.141	1538.788	1496.138
628.591	24.560	1538.070	1498.793
629.605	24.868	1537.254	1500.416
630.620	24.816	1536.619	1499.181
631.634	24.954	1535.403	1498.973
632.649	25.008	1534.326	1498.194
633.663	24.771	1532.189	1493.946
634.678	24.496	1530.604	1489.911
635.693	24.367	1528.778	1486.876
636.707	24.121	1527.066	1482.971
637.722	24.026	1526.162	1481.120
638.736	24.124	1525.019	1480.653
639.751	24.265	1524.128	1480.790
640.766	24.233	1523.118	1479.364
641.780	24.378	1521.658	1478.976
642.795	24.325	1521.170	1477.885
643.809	24.202	1520.776	1476.301
644.824	24.319	1520.028	1476.376
645.839	24.458	1518.497	1475.868
646.853	24.602	1516.631	1475.066
647.868	24.488	1515.112	1472.468
648.882	24.459	1513.995	1470.966
649.897	24.601	1512.646	1470.654
650.912	24.358	1511.236	1467.098
651.926	24.475	1510.556	1467.228
652.941	24.381	1509.840	1465.581
653.955	24.388	1508.005	1463.687
654.970	24.390	1505.530	1461.125
655.985	24.425	1504.175	1459.923
656.999	24.228	1503.319	1457.294
658.014	24.213	1502.232	1455.948
659.028	24.304	1501.144	1455.462
660.043	24.357	1500.813	1455.408
661.058	24.474	1499.052	1454.482
662.072	24.335	1498.975	1453.097
663.087	24.463	1497.501	1452.539
664.101	24.346	1496.045	1449.994
665.116	24.299	1494.921	1448.346
666.131	24.204	1494.586	1447.071
667.145	24.360	1492.785	1446.427
668.160	24.302	1490.797	1443.861
669.174	24.225	1489.659	1441.955
670.189	24.233	1489.038	1441.253
671.204	24.312	1488.337	1441.037
672.218	24.453	1487.322	1441.030
673.233	24.399	1485.672	1438.818
674.247	24.279	1484.369	1436.414
675.262	24.123	1483.853	1434.481
676.276	24.143	1482.334	1433.000
677.291	24.104	1482.250	1432.431
678.306	24.357	1481.191	1433.282
679.320	24.289	1479.493	1430.915
680.335	24.111	1478.443	1428.294
681.349	23.999	1478.448	1427.228
682.364	24.278	1476.363	1427.288
683.379	24.150	1475.353	1425.113
684.393	23.993	1473.832	1422.210
685.408	23.931	1472.660	1420.416
686.422	23.983	1472.377	1420.388
687.437	23.879	1471.511	1418.548
688.452	23.830	1470.283	1416.799
689.466	23.892	1468.404	1415.320
690.481	23.930	1467.632	1414.710
691.495	24.241	1467.204	1416.614
692.510	24.637	1467.006	1419.416
693.525	24.676	1465.210	1417.812
694.539	24.564	1464.058	1415.637
695.554	24.014	1463.331	1410.390
696.568	23.781	1461.424	1406.523
697.583	23.753	1460.159	1404.916
698.598	23.835	1459.313	1404.591
699.612	23.866	1457.200	1402.634
700.627	23.874	1456.116	1401.485
701.641	23.885	1455.218	1400.539
702.656	23.931	1454.412	1399.956
703.671	23.828	1454.227	1398.794
704.685	23.939	1453.151	1398.473
705.700	24.102	1451.632	1398.129
706.714	24.165	1450.513	1397.380
707.729	24.161	1448.642	1395.383
708.744	24.225	1447.407	1394.527
709.758	24.163	1446.003	1392.522
710.773	24.069	1445.445	1391.078
711.787	24.010	1444.284	1389.335
712.802	24.141	1443.047	1389.002
713.816	24.360	1442.006	1389.552
714.831	24.247	1440.858	1387.396
715.846	24.130	1439.474	1384.977
716.860	24.020	1438.435	1382.957
717.875	24.045	1437.299	1381.892
718.889	23.959	1436.640	1380.425
719.904	23.982	1435.466	1379.311
720.919	23.758	1434.488	1376.456
721.933	23.847	1433.219	1375.771
722.948	23.785	1432.337	1374.273
723.962	23.694	1431.176	1372.288
724.977	23.873	1429.630	1372.030
725.992	23.740	1428.856	1370.095
727.006	23.854	1428.071	1370.064
728.021	23.794	1426.238	1367.672
729.035	23.813	1425.231	1366.691
730.050	23.788	1424.207	1365.353
731.065	23.854	1422.811	1364.362
732.079	23.693	1422.271	1362.439
733.094	23.745	1420.998	1361.457
734.108	23.850	1420.433	1361.563
735.123	23.961	1417.923	1359.845
736.138	24.016	1416.907	1359.130
737.152	23.923	1415.668	1357.063
738.167	23.922	1414.614	1355.885
739.181	23.745	1413.889	1353.672
740.196	23.883	1412.479	1353.215
741.211	23.784	1412.534	1352.350
742.225	23.770	1411.774	1351.349
743.240	23.766	1409.579	1349.057
744.254	23.714	1408.286	1347.267
745.269	23.525	1407.250	1344.669
746.284	23.564	1406.726	1344.304
747.298	23.744	1406.371	1345.175
748.313	24.008	1405.797	1346.475
749.327	24.251	1405.176	1347.568
750.342	24.585	1404.727	1349.509
751.356	24.668	1403.803	1349.087
752.371	24.552	1401.922	1346.246
753.386	24.047	1399.747	1340.173
754.400	23.753	1398.051	1336.163
755.415	23.787	1397.282	1335.525
756.429	23.856	1395.699	1334.374
757.444	23.776	1394.661	1332.617
758.459	23.794	1393.665	1331.641
759.473	23.748	1392.930	1330.436
760.488	23.817	1390.735	1328.701
761.502	23.657	1390.363	1326.984
762.517	23.685	1389.491	1326.203
763.532	23.912	1387.998	1326.320
764.546	23.984	1387.059	1325.803
765.561	23.822	1386.653	1324.044
766.575	23.949	1385.538	1323.769
767.590	23.906	1384.815	1322.598
768.605	24.086	1383.069	1322.117
769.619	23.904	1382.433	1319.995
770.634	23.759	1381.193	1317.567
771.648	23.647	1379.414	1314.884
772.663	23.554	1378.517	1313.178
773.678	23.497	1378.371	1312.460
774.692	23.855	1377.147	1313.799
775.707	23.625	1376.578	1311.390
776.721	23.609	1375.818	1310.384
777.736	23.504	1374.047	1307.765
778.751	23.638	1373.166	1307.766
779.765	23.677	1372.583	1307.337
780.780	23.467	1372.078	1305.150
781.794	23.675	1370.488	1305.018
782.809	23.546	1368.803	1302.304
783.824	23.549	1367.732	1301.152
784.838	23.763	1366.874	1301.753
785.853	24.097	1367.543	1304.700
786.867	24.082	1366.799	1303.722
787.882	23.817	1365.266	1300.150
788.897	23.742	1363.925	1298.167
789.911	23.523	1362.689	1295.234
790.926	23.454	1360.948	1292.916
791.940	23.489	1359.729	1291.858
792.955	23.390	1358.504	1289.814
793.969	23.436	1356.677	1288.265
794.984	23.501	1356.267	1288.195
795.999	23.434	1355.690	1287.005
797.013	23.436	1353.934	1285.197
798.028	23.565	1352.538	1284.655
799.042	23.551	1351.933	1283.830
800.057	23.304	1351.078	1281.069
801.072	23.450	1349.203	1280.194
802.086	23.395	1347.701	1278.218
803.101	23.265	1347.525	1276.952
804.115	23.275	1346.805	1276.195
805.130	23.375	1345.145	1275.192
806.145	23.363	1343.930	1273.799
807.159	23.544	1342.383	1273.486
808.174	23.635	1341.631	1273.275
809.188	23.601	1341.183	1272.455
810.203	23.713	1339.257	1271.283
811.218	23.769	1337.554	1269.914
812.232	23.783	1336.363	1268.733
813.247	23.630	1336.026	1267.163
814.261	23.684	1336.032	1267.403
815.276	23.603	1334.702	1265.407
816.291	23.385	1332.994	1262.078
817.305	23.325	1331.435	1260.024
818.320	23.274	1329.907	1258.065
819.334	23.312	1329.001	1257.322
820.349	23.317	1327.487	1255.778
821.364	23.280	1325.790	1253.761
822.378	23.309	1324.777	1252.855
823.393	23.370	1323.160	1251.614
824.407	23.293	1322.144	1249.953
825.422	23.364	1321.215	1249.429
826.437	23.261	1320.764	1248.123
827.451	23.248	1319.051	1246.267
828.466	23.794	1318.710	1249.651
829.480	23.995	1317.767	1250.028
830.495	23.877	1314.800	1246.233
831.509	23.535	1313.104	1242.068
832.524	23.193	1312.671	1239.107
833.539	23.200	1312.499	1238.843
834.553	23.100	1310.946	1236.530
835.568	23.145	1309.293	1235.137
836.582	23.250	1308.530	1235.002
837.597	23.341	1307.151	1234.194
838.612	23.134	1306.099	1231.601
839.626	23.334	1305.095	1231.909
840.641	23.565	1303.867	1232.216
841.655	23.539	1303.681	1231.706
842.670	23.525	1302.795	1230.626
843.685	23.668	1301.744	1230.480
844.699	23.680	1299.731	1228.520
845.714	23.520	1298.175	1225.785
846.728	23.557	1296.687	1224.494
847.743	23.238	1296.151	1221.624
848.758	23.286	1294.605	1220.356
849.772	23.086	1293.994	1218.248
850.787	22.896	1292.724	1215.593
851.801	23.145	1290.882	1215.438
852.816	23.234	1289.809	1214.891
853.831	23.184	1288.809	1213.465
854.845	23.120	1286.548	1210.748
855.860	23.189	1285.123	1209.736
856.874	23.271	1284.160	1209.248
857.889	23.557	1283.459	1210.403
858.904	23.773	1283.486	1211.763
859.918	24.220	1281.915	1213.194
860.933	24.109	1280.659	1211.105
861.947	23.814	1279.307	1207.666
862.962	23.539	1277.418	1203.862
863.977	23.319	1276.094	1200.971
864.991	23.190	1275.560	1199.445
866.006	23.126	1275.335	1198.655
867.020	23.273	1272.975	1197.296
868.035	23.163	1271.993	1195.479
869.049	23.237	1271.146	1195.044
870.064	23.122	1270.497	1193.510
871.079	23.160	1269.696	1192.869
872.093	23.096	1268.974	1191.617
873.108	23.265	1267.915	1191.623
874.122	23.455	1266.593	1191.519
875.137	23.363	1267.166	1191.298
876.152	23.525	1265.896	1191.056
877.166	23.569	1263.389	1188.850
878.181	23.332	1262.234	1186.021
879.195	23.251	1261.648	1184.785
880.210	23.109	1260.513	1182.628
881.225	23.166	1259.485	1181.901
882.239	23.307	1258.497	1181.781
883.254	23.129	1257.397	1179.414
884.268	23.069	1256.933	1178.432
885.283	23.180	1255.757	1177.931
886.298	23.140	1253.906	1175.787
887.312	23.040	1252.942	1174.077
888.327	23.026	1252.184	1173.133
889.341	23.199	1250.099	1172.193
890.356	23.154	1250.009	1171.668
891.371	23.081	1249.637	1170.689
892.385	23.044	1249.526	1170.204
893.400	23.018	1248.402	1168.836
894.414	23.230	1246.914	1168.711
895.429	23.438	1245.986	1169.078
896.444	23.918	1245.764	1171.912
897.458	24.262	1244.933	1173.265
898.473	24.033	1243.565	1170.322
899.487	23.531	1241.821	1165.226
900.502	23.337	1239.982	1162.080
901.517	23.075	1238.642	1158.963
902.531	23.270	1237.164	1158.726
903.546	23.034	1236.866	1156.751
904.560	23.120	1235.916	1156.290
905.575	23.153	1235.368	1155.855
906.589	23.192	1234.540	1155.201
907.604	23.167	1234.140	1154.521
