DTS Sentinel unit serial number:	SN409020Multiplexer serial number:	ORYXHardware model number:	OX4-SRSoftware version number:	ORYX F/W v3.00 Oryx Data Collector v3.7.2.0data status	okinstallation	HaddamTimeLapsedifferential loss correction	single-endedforward channel	channel 3reverse channel	N/Adate	2011/06/21time	20:21:16forward acquisition time	30.00reverse acquisition time	0.00gamma	498.7831k internal	0.1779k external	0.1779temperature offset calibration	1.0074default loss term (dB/km)	0.3790temperature slope calibration	1.3530multiplexer offset coefficient	1.0000multiplexer slope coefficient	1.0000fibre end	0.00T internal ref (°C)	30.75T ext. ref 1 (°C)	22.65T ext. ref 2 (°C)	0.02length (m)	temperature (°C)	Stokes	anti-Stokes-747.200	800.000	-0.110	-0.460
-746.185	800.000	0.092	0.491
-745.171	440.170	-0.259	0.743
-744.156	447.723	-0.183	0.529
-743.142	-116.308	-0.195	0.047
-742.127	-200.000	0.066	0.782
-741.112	-182.363	-0.210	-0.005
-740.098	-106.791	-0.422	-0.122
-739.083	-70.599	-0.167	0.082
-738.069	-200.000	0.023	0.345
-737.054	117.980	0.081	0.130
-736.039	-35.517	-0.386	0.273
-735.025	-62.909	-0.163	0.088
-734.010	-7.410	-0.539	-0.476
-732.996	36.887	0.204	0.235
-731.981	-28.320	0.365	0.275
-730.966	-200.000	0.024	0.375
-729.952	32.513	-0.103	0.116
-728.937	166.662	-0.080	0.149
-727.923	-120.466	-0.413	0.091
-726.908	-30.639	0.215	0.159
-725.894	199.716	-0.209	-0.420
-724.879	-27.244	0.150	-0.114
-723.864	100.988	0.151	-0.230
-722.850	-200.000	0.109	-0.000
-721.835	-97.564	0.176	-0.059
-720.821	26.069	-0.043	0.047
-719.806	-93.508	-0.367	-0.132
-718.791	-171.751	0.362	0.015
-717.777	-190.398	-0.074	0.001
-716.762	292.291	0.182	-0.436
-715.748	168.303	-0.275	-0.513
-714.733	-200.000	0.004	-0.404
-713.718	-71.674	-0.097	-0.047
-712.704	-121.746	-0.541	0.116
-711.689	149.598	0.066	0.118
-710.675	587.614	-0.141	-0.455
-709.660	124.602	0.148	-0.244
-708.645	-136.468	0.240	-0.036
-707.631	800.000	-0.132	0.549
-706.616	-25.834	-0.073	0.056
-705.602	-168.308	0.034	0.002
-704.587	-117.968	-0.449	0.104
-703.572	-80.834	-0.297	-0.128
-702.558	-200.000	-0.001	-0.014
-701.543	7.661	-0.132	-0.129
-700.529	-85.000	-0.331	0.135
-699.514	121.377	0.275	-0.448
-698.499	717.884	-0.144	0.501
-697.485	123.758	0.096	-0.158
-696.470	189.632	-0.210	-0.412
-695.456	111.664	-0.291	-0.460
-694.441	-114.080	0.332	-0.083
-693.426	11.355	-0.190	0.189
-692.412	-200.000	0.013	0.536
-691.397	304.821	-0.097	0.236
-690.383	-22.011	-0.404	-0.320
-689.368	-4.774	-0.169	-0.152
-688.354	2.569	0.137	0.130
-687.339	-200.000	-0.009	-0.195
-686.324	-123.740	-0.456	-0.093
-685.310	164.793	-0.053	-0.097
-684.295	-139.193	0.254	0.035
-683.281	-200.000	0.005	0.445
-682.266	-89.455	-0.360	0.137
-681.251	-44.468	0.107	0.069
-680.237	-6.467	0.023	0.020
-679.222	167.563	0.152	-0.283
-678.208	-138.892	-0.508	0.071
-677.193	-117.140	-0.538	-0.127
-676.178	-111.157	0.170	-0.045
-675.164	800.000	-0.051	-0.254
-674.149	-200.000	-0.005	-0.225
-673.135	-59.044	0.476	-0.267
-672.120	187.388	0.049	-0.095
-671.105	-13.611	-0.125	0.106
-670.091	-133.463	0.450	0.073
-669.076	68.103	0.089	-0.120
-668.062	357.184	0.096	-0.252
-667.047	275.777	0.020	-0.048
-666.032	-200.000	0.012	0.408
-665.018	-25.878	-0.130	0.100
-664.003	800.000	0.145	0.585
-662.989	174.948	0.066	-0.124
-661.974	-54.128	0.580	-0.343
-660.959	83.866	-0.266	-0.378
-659.945	90.610	-0.242	-0.354
-658.930	-63.018	-0.265	-0.142
-657.916	-200.000	0.032	-0.497
-656.901	-200.000	0.403	0.001
-655.886	-87.287	0.038	0.015
-654.872	800.000	-0.019	0.095
-653.857	-200.000	-0.017	-0.285
-652.843	-63.884	-0.202	0.107
-651.828	211.421	-0.139	0.286
-650.814	-70.403	-0.210	0.103
-649.799	-149.049	0.570	0.059
-648.784	9.731	-0.043	0.042
-647.770	-65.812	0.157	-0.082
-646.755	-200.000	-0.023	-0.302
-645.741	800.000	0.078	-0.341
-644.726	-41.773	0.412	0.275
-643.711	-147.219	0.554	0.061
-642.697	-200.000	-0.001	0.246
-641.682	-167.511	-0.324	0.017
-640.668	-95.971	0.208	-0.072
-639.653	59.108	0.170	0.218
-638.638	136.307	-0.250	0.425
-637.624	800.000	-0.132	0.525
-636.609	128.882	-0.312	0.518
-635.595	-23.394	-0.249	0.194
-634.580	-200.000	-0.001	-0.129
-633.565	-35.401	0.085	0.060
-632.551	100.296	-0.074	-0.112
-631.536	-120.115	0.070	-0.016
-630.522	-200.000	-0.035	-0.730
-629.507	-82.490	0.042	-0.018
-628.492	-90.359	0.215	0.081
-627.478	-133.642	-0.490	-0.079
-626.463	290.827	0.190	-0.451
-625.449	48.020	0.167	-0.204
-624.434	-82.825	0.231	0.097
-623.419	-162.437	-0.170	0.011
-622.405	176.180	0.069	-0.131
-621.390	89.028	-0.084	-0.122
-620.376	-4.786	0.313	0.281
-619.361	-39.550	-0.308	0.209
-618.346	-136.939	-0.598	0.088
-617.332	-50.857	-0.137	0.083
-616.317	113.437	-0.113	-0.179
-615.303	175.878	0.129	-0.243
-614.288	-84.969	0.178	-0.072
-613.273	324.019	-0.187	-0.466
-612.259	519.842	-0.148	-0.454
-611.244	-126.986	-0.108	0.021
-610.230	-32.904	0.207	-0.150
-609.215	-81.599	0.350	-0.149
-608.201	-44.141	0.258	0.168
-607.186	-162.839	-0.518	-0.032
-606.171	-97.251	-0.291	-0.098
-605.157	-81.850	0.544	-0.230
-604.142	-200.000	-0.028	0.199
-603.128	-125.779	0.362	0.070
-602.113	97.156	0.269	-0.402
-601.098	3.254	-0.442	-0.418
-600.084	-74.078	0.127	0.060
-599.069	90.953	0.279	0.407
-598.055	231.446	0.145	-0.309
-597.040	216.489	-0.159	-0.329
-596.025	223.845	0.126	0.265
-595.011	-145.750	-0.230	0.026
-593.996	-126.737	0.130	-0.025
-592.982	111.388	0.238	0.373
-591.967	-91.561	0.340	0.125
-590.952	209.041	0.117	-0.239
-589.938	-54.001	-0.060	0.035
-588.923	-200.000	0.052	-0.345
-587.909	-134.969	-0.346	0.054
-586.894	-19.214	-0.199	-0.161
-585.879	-158.604	0.443	0.033
-584.865	-200.000	-0.018	0.468
-583.850	-200.000	0.033	0.538
-582.836	-85.216	-0.085	0.034
-581.821	37.276	0.296	-0.340
-580.806	61.361	-0.150	0.194
-579.792	-166.867	-0.239	0.013
-578.777	-157.706	0.497	-0.038
-577.763	154.650	0.038	0.068
-576.748	-45.512	-0.175	-0.113
-575.733	383.609	0.065	-0.174
-574.719	-150.334	-0.197	-0.019
-573.704	-41.418	-0.221	-0.148
-572.690	-33.795	-0.109	0.078
-571.675	423.761	0.153	-0.430
-570.661	-93.272	-0.567	-0.203
-569.646	-151.702	0.470	0.044
-568.631	-48.486	0.252	-0.157
-567.617	-180.202	-0.213	-0.006
-566.602	-75.773	-0.211	0.097
-565.588	-200.000	-0.021	0.526
-564.573	319.193	-0.269	0.665
-563.558	7.599	0.209	0.202
-562.544	-121.701	-0.324	-0.069
-561.529	1.175	-0.103	-0.095
-560.515	214.956	-0.109	0.225
-559.500	-27.423	0.213	-0.160
-558.485	45.289	0.031	-0.037
-557.471	66.244	0.055	-0.073
-556.456	50.201	-0.212	-0.260
-555.442	162.577	-0.254	0.464
-554.427	114.250	0.130	-0.206
-553.412	-51.384	-0.237	0.143
-552.398	-118.913	0.143	-0.032
-551.383	-17.010	-0.142	0.116
-550.369	-125.096	0.250	0.049
-549.354	493.264	0.167	-0.500
-548.339	-3.460	0.296	0.267
-547.325	564.896	0.035	-0.112
-546.310	-200.000	-0.013	-0.154
-545.296	243.236	-0.175	-0.382
-544.281	346.249	-0.215	-0.552
-543.266	602.650	-0.100	-0.325
-542.252	186.651	-0.072	0.139
-541.237	44.601	-0.256	-0.306
-540.223	-182.906	-0.546	0.012
-539.208	-48.955	-0.161	0.100
-538.193	-15.042	0.258	0.214
-537.179	-51.126	0.062	-0.038
-536.164	-200.000	-0.004	0.213
-535.150	263.937	-0.054	0.123
-534.135	284.366	0.353	0.827
-533.121	65.267	0.017	0.023
-532.106	-119.899	-0.203	0.045
-531.091	67.452	-0.143	-0.189
-530.077	-12.056	-0.274	-0.232
-529.062	-37.828	-0.219	-0.151
-528.048	-159.613	-0.134	0.009
-527.033	250.039	0.207	-0.458
-526.018	-119.396	0.213	-0.048
-525.004	-200.000	-0.017	-0.209
-523.989	104.505	0.272	-0.416
-522.975	506.686	-0.083	-0.252
-521.960	-200.000	-0.007	0.055
-520.945	-137.043	0.054	-0.008
-519.931	-25.662	-0.301	0.230
-518.916	-176.110	-0.350	0.012
-517.902	-56.319	-0.389	0.223
-516.887	-105.461	0.060	0.018
-515.872	-65.420	-0.335	-0.174
-514.858	-111.702	-0.368	0.096
-513.843	-75.844	-0.761	-0.348
-512.829	-30.711	0.260	0.190
-511.814	224.512	0.041	-0.087
-510.799	738.239	-0.148	0.516
-509.785	-54.020	-0.146	-0.086
-508.770	-82.833	-0.277	0.115
-507.756	-200.000	-0.003	0.066
-506.741	87.041	0.094	-0.135
-505.726	150.446	0.283	0.498
-504.712	-177.871	-0.225	-0.007
-503.697	99.509	0.147	-0.220
-502.683	-98.703	-0.242	-0.079
-501.668	540.699	-0.148	0.460
-500.653	-200.000	0.010	-0.122
-499.639	196.587	-0.323	0.639
-498.624	-200.000	0.019	0.183
-497.610	110.258	0.029	0.045
-496.595	86.364	0.177	0.252
-495.581	-81.380	0.472	-0.200
-494.566	-161.513	0.471	-0.031
-493.551	182.419	0.200	0.383
-492.537	800.000	0.050	-0.197
-491.522	124.739	-0.380	-0.620
-490.508	-30.493	0.171	-0.125
-489.493	-200.000	0.011	0.144
-488.478	-193.970	-0.387	-0.004
-487.464	800.000	-0.111	0.426
-486.449	-123.651	-0.550	-0.112
-485.435	-56.373	0.525	-0.301
-484.420	-55.758	0.226	-0.130
-483.405	-82.998	-0.294	0.122
-482.391	-23.927	0.045	-0.035
-481.376	19.796	0.430	-0.448
-480.362	-139.293	-0.167	-0.023
-479.347	455.483	-0.084	0.242
-478.332	-62.417	0.192	0.103
-477.318	-72.711	0.520	-0.247
-476.303	-200.000	-0.048	-0.379
-475.289	-200.000	0.027	0.187
-474.274	338.219	-0.158	-0.399
-473.259	-153.890	0.458	0.040
-472.245	-35.932	0.172	-0.120
-471.230	800.000	-0.156	-0.581
-470.216	-119.824	-0.470	0.104
-469.201	-75.353	0.050	0.023
-468.186	96.196	-0.175	0.259
-467.172	-150.693	-0.173	-0.017
-466.157	800.000	0.206	0.855
-465.143	-112.833	-0.202	-0.051
-464.128	91.265	-0.128	-0.186
-463.113	50.182	-0.208	-0.254
-462.099	-55.543	-0.321	-0.185
-461.084	-200.000	0.034	0.482
-460.070	39.041	0.016	-0.019
-459.055	-135.129	0.477	-0.074
-458.040	-116.498	0.507	-0.120
-457.026	-159.875	-0.550	-0.038
-456.011	-58.840	-0.078	0.043
-454.997	-45.978	0.264	-0.168
-453.982	84.296	-0.114	-0.161
-452.968	-119.712	-0.308	0.068
-451.953	-68.694	-0.432	-0.215
-450.938	33.827	0.321	-0.361
-449.924	157.181	-0.238	0.427
-448.909	800.000	0.081	-0.306
-447.895	-70.303	0.262	0.128
-446.880	268.995	0.150	0.341
-445.865	-200.000	-0.022	0.570
-444.851	118.516	0.194	0.309
-443.836	-200.000	-0.024	-0.178
-442.822	-39.856	-0.205	-0.138
-441.807	787.634	-0.056	-0.200
-440.792	-96.947	0.412	-0.139
-439.778	-117.816	0.366	-0.084
-438.763	126.168	-0.206	-0.337
-437.749	-149.295	0.323	0.033
-436.734	506.332	0.090	0.272
-435.719	-26.809	0.329	-0.248
-434.705	-124.717	-0.132	-0.026
-433.690	800.000	-0.017	0.082
-432.676	-50.164	0.454	0.276
-431.661	-88.123	0.276	-0.106
-430.646	304.280	-0.086	0.208
-429.632	-143.722	0.449	-0.054
-428.617	-110.309	0.387	-0.103
-427.603	-100.788	-0.526	0.166
-426.588	449.863	-0.056	-0.160
-425.573	2.298	0.115	-0.107
-424.559	1.752	0.514	-0.478
-423.544	-142.150	0.598	0.076
-422.530	-111.388	0.097	0.025
-421.515	-200.000	-0.017	0.359
-420.500	102.421	0.256	0.387
-419.486	-200.000	0.496	0.002
-418.471	291.262	-0.138	0.325
-417.457	649.066	-0.069	-0.228
-416.442	28.853	-0.259	-0.283
-415.428	-3.791	-0.050	-0.045
-414.413	800.000	0.087	-0.486
-413.398	40.566	-0.083	0.097
-412.384	-182.020	-0.457	-0.011
-411.369	-124.587	0.543	0.108
-410.355	-151.914	0.329	-0.031
-409.340	17.077	0.105	-0.108
-408.325	-183.691	0.292	-0.006
-407.311	800.000	-0.079	-0.363
-406.296	800.000	0.077	-0.358
-405.282	800.000	-0.051	0.274
-404.267	-84.841	-0.398	-0.160
-403.252	-67.674	0.291	0.146
-402.238	-21.384	0.175	-0.137
-401.223	-127.717	-0.249	-0.046
-400.209	-44.449	-0.434	0.279
-399.194	-200.000	0.036	0.251
-398.179	-141.918	0.409	-0.052
-397.165	12.123	0.494	0.490
-396.150	-76.595	0.224	0.101
-395.136	800.000	-0.107	0.408
-394.121	-176.953	-0.659	0.021
-393.106	259.463	0.184	0.411
-392.092	-141.479	0.171	0.022
-391.077	-111.391	-0.400	0.104
-390.063	303.053	-0.092	0.221
-389.048	800.000	-0.008	0.043
-388.033	77.725	0.107	0.147
-387.019	-4.251	0.285	0.254
-386.004	-42.247	-0.293	0.192
-384.990	-149.028	0.094	-0.010
-383.975	-172.983	0.087	0.003
-382.960	800.000	0.056	-0.235
-381.946	-157.395	0.180	0.014
-380.931	81.034	-0.117	-0.164
-379.917	140.580	0.261	0.446
-378.902	-95.176	-0.123	0.043
-377.888	52.588	0.244	-0.301
-376.873	-60.414	-0.300	0.164
-375.858	800.000	-0.073	-0.264
-374.844	-73.033	0.295	0.139
-373.829	-97.401	0.368	-0.123
-372.815	-187.642	0.546	0.009
-371.800	412.414	0.103	0.282
-370.785	-200.000	-0.035	0.318
-369.771	-83.855	0.297	0.121
-368.756	85.667	0.138	-0.196
-367.742	5.981	0.221	0.210
-366.727	800.000	-0.068	-0.386
-365.712	242.118	-0.131	0.282
-364.698	315.188	0.139	-0.340
-363.683	-98.366	-0.434	-0.143
-362.669	-131.200	-0.913	0.155
-361.654	-82.511	0.245	0.102
-360.639	-188.359	0.205	-0.003
-359.625	-40.312	-0.078	-0.052
-358.610	-77.522	-0.285	-0.127
-357.596	-70.951	-0.223	-0.108
-356.581	-200.000	0.005	-0.048
-355.566	139.920	0.148	0.252
-354.552	-144.489	-0.375	0.044
-353.537	115.738	0.181	-0.285
-352.523	91.827	-0.062	0.090
-351.508	-171.145	0.221	-0.009
-350.493	283.361	0.204	-0.473
-349.479	-21.548	0.131	-0.102
-348.464	800.000	-0.099	0.402
-347.450	283.764	0.053	0.123
-346.435	443.292	-0.128	0.362
-345.420	63.940	0.150	0.194
-344.406	-23.549	-0.266	-0.205
-343.391	-58.291	0.305	0.170
-342.377	-200.000	0.019	-0.217
-341.362	221.383	-0.159	0.330
-340.348	-19.054	0.118	-0.094
-339.333	800.000	0.064	-0.300
-338.318	-45.692	-0.130	-0.083
-337.304	-28.194	-0.160	0.119
-336.289	266.329	-0.149	0.336
-335.275	115.658	-0.084	-0.132
-334.260	-95.932	-0.327	0.111
-333.245	-172.938	-0.452	0.018
-332.231	-26.601	-0.093	0.070
-331.216	-32.781	-0.061	0.043
-330.202	56.208	-0.148	0.185
-329.187	35.004	0.275	-0.310
-328.172	-120.290	0.338	0.074
-327.158	-2.732	0.313	-0.281
-326.143	800.000	-0.069	0.347
-325.129	800.000	0.048	-0.243
-324.114	486.870	-0.099	-0.293
-323.099	611.209	-0.097	-0.314
-322.085	800.000	0.081	-0.331
-321.070	-99.740	-0.167	0.053
-320.056	-105.715	-0.107	0.031
-319.041	800.000	0.096	0.386
-318.026	-74.266	0.335	0.155
-317.012	-132.871	-0.295	0.048
-315.997	-123.430	0.261	-0.053
-314.983	-134.465	0.338	0.053
-313.968	800.000	0.062	-0.226
-312.953	-200.000	-0.034	0.385
-311.939	10.290	-0.157	0.153
-310.924	34.266	0.034	-0.039
-309.910	136.418	0.266	-0.447
-308.895	-25.154	-0.480	-0.365
-307.880	-92.473	-0.616	-0.221
-306.866	800.000	0.016	-0.080
-305.851	-76.266	-0.387	-0.175
-304.837	800.000	-0.083	0.417
-303.822	800.000	0.039	0.196
-302.807	-117.604	-0.296	0.068
-301.793	-54.938	-0.462	0.267
-300.778	-29.196	-0.190	0.139
-299.764	355.387	0.110	0.284
-298.749	-200.000	-0.035	0.268
-297.735	-200.000	0.013	0.405
-296.720	-168.099	0.357	0.018
-295.705	-100.042	0.179	-0.057
-294.691	-200.000	-0.009	-0.304
-293.676	43.896	0.189	0.222
-292.662	-17.419	-0.331	-0.267
-291.647	-24.860	0.105	0.080
-290.632	308.276	-0.104	-0.250
-289.618	75.427	0.208	0.282
-288.603	657.288	-0.093	0.308
-287.589	-51.780	-0.313	0.187
-286.574	-60.361	-0.282	0.154
-285.559	159.831	0.151	0.271
-284.545	-61.899	0.169	0.091
-283.530	260.726	0.157	0.350
-282.516	30.546	-0.196	0.215
-281.501	49.412	-0.214	0.259
-280.486	-164.871	0.466	-0.026
-279.472	-8.706	-0.248	0.214
-278.457	346.700	-0.248	-0.628
-277.443	-200.000	0.025	-0.598
-276.428	800.000	0.128	0.495
-275.413	-12.073	0.087	0.073
-274.399	-115.184	-0.571	0.138
-273.384	-200.000	-0.005	-0.061
-272.370	-200.000	0.023	0.174
-271.355	-177.519	0.247	0.008
-270.340	-63.247	0.060	-0.032
-269.326	-133.978	-0.277	0.044
-268.311	-200.000	-0.003	0.211
-267.297	-47.241	-0.153	0.095
-266.282	-72.611	-0.318	-0.150
-265.267	4.677	-0.118	-0.111
-264.253	-105.739	0.446	-0.129
-263.238	-118.127	-0.098	-0.022
-262.224	156.528	-0.329	0.585
-261.209	-115.833	-0.308	-0.073
-260.195	243.023	-0.269	0.581
-259.180	54.142	0.051	0.063
-258.165	-10.195	0.251	0.213
-257.151	140.960	0.260	0.441
-256.136	215.682	-0.071	0.145
-255.122	-107.341	0.347	0.097
-254.107	-124.430	0.330	-0.065
-253.092	-13.669	0.277	-0.230
-252.078	-200.000	-0.006	-0.457
-251.063	-102.774	0.323	0.098
-250.049	-42.299	-0.182	0.119
-249.034	-115.640	-0.337	0.080
-248.019	-200.000	0.028	0.178
-247.005	-143.921	-0.370	0.044
-245.990	-9.091	0.323	-0.277
-244.976	-159.956	0.353	0.024
-243.961	800.000	-0.092	0.445
-242.946	-200.000	-0.045	-0.362
-241.932	-200.000	0.054	0.331
-240.917	54.040	-0.058	-0.071
-239.903	-200.000	0.044	-0.469
-238.888	-16.211	0.021	-0.017
-237.873	-177.035	0.398	-0.013
-236.859	651.845	-0.111	-0.368
-235.844	800.000	0.052	0.188
-234.830	-83.266	-0.541	-0.221
-233.815	341.172	-0.175	-0.440
-232.800	170.396	0.327	0.602
-231.786	81.301	-0.204	-0.283
-230.771	-141.877	-0.221	0.028
-229.757	156.845	0.101	-0.179
-228.742	800.000	-0.123	-0.493
-227.727	-39.708	-0.612	-0.409
-226.713	-119.756	0.139	0.031
-225.698	-102.581	0.148	0.045
-224.684	72.713	-0.089	0.120
-223.669	-61.006	0.389	0.210
-222.655	236.800	0.137	-0.292
-221.640	43.560	0.127	-0.149
-220.625	-39.658	0.284	-0.190
-219.611	-200.000	0.004	0.075
-218.596	-122.283	0.819	0.170
-217.582	-58.574	0.031	0.017
-216.567	-41.071	0.166	0.110
-215.552	651.668	-0.170	0.561
-214.538	-4.602	-0.084	0.074
-213.523	118.857	-0.107	0.170
-212.509	-200.000	0.003	-0.625
-211.494	334.783	0.175	-0.436
-210.479	800.000	0.065	-0.331
-209.465	-57.896	-0.364	-0.203
-208.450	197.515	0.090	0.176
-207.436	165.002	0.028	0.050
-206.421	-60.858	-0.464	0.250
-205.406	-48.610	0.065	-0.040
-204.392	167.346	0.138	-0.251
-203.377	638.665	0.067	0.218
-202.363	39.148	0.178	0.204
-201.348	658.389	0.096	-0.318
-200.333	-125.617	-0.377	-0.073
-199.319	-70.948	-0.358	-0.172
-198.304	50.260	-0.193	0.233
-197.290	-200.000	0.015	0.273
-196.275	203.816	-0.026	0.052
-195.260	-0.017	-0.264	0.240
-194.246	-84.334	-0.429	0.173
-193.231	-200.000	0.052	-0.435
-192.217	105.394	-0.281	0.426
-191.202	70.989	-0.200	-0.266
-190.187	-200.000	0.020	-0.151
-189.173	-200.000	0.042	-0.363
-188.158	-200.000	0.026	-0.332
-187.144	-68.735	0.278	0.137
-186.129	92.600	-0.251	0.363
-185.114	-200.000	0.339	-0.002
-184.100	-155.445	0.565	0.046
-183.085	463.428	0.160	-0.459
-182.071	-83.978	-0.087	-0.035
-181.056	-93.103	0.631	-0.224
-180.042	-97.612	0.576	-0.190
-179.027	197.358	-0.135	-0.264
-178.012	-52.508	0.106	-0.063
-176.998	219.633	0.196	0.402
-175.983	-88.949	-0.601	-0.226
-174.969	311.231	-0.093	0.224
-173.954	-42.167	0.254	0.165
-172.939	-200.000	0.039	0.231
-171.925	-91.455	-0.505	0.183
-170.910	-140.957	-0.115	-0.015
-169.896	552.945	0.077	-0.239
-168.881	141.594	0.120	-0.203
-167.866	-128.980	0.176	-0.031
-166.852	400.042	-0.070	-0.190
-165.837	-11.893	-0.244	-0.204
-164.823	126.999	-0.191	0.310
-163.808	41.116	0.252	-0.291
-162.793	34.614	0.063	0.070
-161.779	140.176	0.140	0.236
-160.764	-200.000	-0.045	-0.391
-159.750	-73.870	-0.338	-0.156
-158.735	-102.746	-0.224	-0.068
-157.720	-200.000	-0.038	-0.725
-156.706	71.605	-0.154	0.205
-155.691	198.804	0.229	0.449
-154.677	-112.580	0.067	-0.017
-153.662	-52.478	-0.031	0.018
-152.647	256.452	-0.160	-0.352
-151.633	-119.515	-0.140	0.031
-150.618	-200.000	-0.002	0.731
-149.604	430.396	0.202	0.560
-148.589	-76.878	0.257	0.114
-147.574	-96.336	-0.737	0.248
-146.560	-200.000	-0.024	0.369
-145.545	184.117	-0.188	-0.356
-144.531	-200.000	-0.021	0.184
-143.516	179.028	-0.075	0.141
-142.502	-60.580	-0.362	0.196
-141.487	318.499	-0.091	-0.221
-140.472	18.782	0.512	-0.523
-139.458	800.000	-0.028	-0.108
-138.443	-25.854	-0.135	-0.101
-137.429	-200.000	-0.040	-0.333
-136.414	-109.007	0.315	0.085
-135.399	-200.000	-0.358	-0.002
-134.385	-147.639	0.086	-0.009
-133.370	-159.192	0.500	0.035
-132.356	231.260	0.179	0.375
-131.341	-200.000	-0.016	-0.149
-130.326	61.060	0.067	0.085
-129.312	-166.818	-0.469	0.024
-128.297	144.750	-0.171	0.292
-127.283	800.000	-0.065	-0.288
-126.268	-20.806	-0.058	-0.046
-125.253	1.336	-0.380	-0.348
-124.239	800.000	-0.031	0.169
-123.224	189.020	0.396	-0.759
-122.210	752.805	-0.083	0.288
-121.195	-200.000	0.025	0.375
-120.180	-149.049	0.336	-0.034
-119.166	-135.459	0.205	-0.031
-118.151	14.786	0.155	-0.155
-117.137	-200.000	-0.052	-0.364
-116.122	-156.713	-0.145	0.011
-115.107	67.102	-0.157	-0.204
-114.093	-74.827	0.169	0.077
-113.078	-86.331	-0.339	0.132
-112.064	703.953	0.033	-0.113
-111.049	-112.517	-0.542	-0.137
-110.034	-200.000	0.008	-0.210
-109.020	-200.000	0.005	0.046
-108.005	-110.152	-0.294	-0.078
-106.991	-37.834	-0.388	0.263
-105.976	-59.546	-0.106	0.058
-104.962	-128.242	-0.348	-0.063
-103.947	-200.000	0.021	0.192
-102.932	-24.989	0.380	0.287
-101.918	59.776	0.147	0.185
-100.903	800.000	-0.039	-0.208
-99.889	-93.290	-0.231	-0.081
-98.874	-120.190	0.087	-0.019
-97.859	-86.033	0.423	-0.166
-96.845	-63.968	0.659	-0.342
-95.830	-175.749	0.082	0.003
-94.816	9.698	-0.204	0.197
-93.801	-169.831	-0.426	0.019
-92.786	-200.000	0.026	0.235
-91.772	-60.077	0.434	0.235
-90.757	-84.572	-0.174	-0.069
-89.743	-5.775	0.380	-0.331
-88.728	-200.000	-0.017	-0.271
-87.713	-200.000	-0.004	0.023
-86.699	80.947	0.139	-0.192
-85.684	-83.747	-0.229	-0.092
-84.670	-90.226	-0.152	0.056
-83.655	800.000	0.155	-0.549
-82.640	67.813	0.328	-0.428
-81.626	-127.142	0.318	-0.059
-80.611	154.532	0.137	-0.240
-79.597	-122.281	-0.734	-0.151
-78.582	-112.910	0.172	-0.043
-77.567	-65.244	0.317	-0.162
-76.553	800.000	-0.100	-0.438
-75.538	131.724	0.180	0.295
-74.524	800.000	0.097	0.428
-73.509	9.294	-0.056	-0.053
-72.494	-9.113	-0.075	-0.064
-71.480	-123.102	0.568	-0.115
-70.465	33.975	-0.326	-0.362
-69.451	-28.850	0.167	0.122
-68.436	-12.863	0.559	0.463
-67.422	95.664	-0.247	0.359
-66.407	7.582	0.124	0.118
-65.392	800.000	0.081	-0.350
-64.378	14.481	-0.096	-0.095
-63.363	-147.686	0.526	-0.056
-62.349	-143.029	-0.343	0.042
-61.334	-12.433	-2.236	-1.856
-60.319	-34.151	0.971	0.677
-59.305	236.760	-3.343	-7.069
-58.290	16.674	3.538	3.559
-57.276	456.996	3.758	10.674
-56.261	-200.000	19.340	267.356
-55.246	399.909	1241.118	3326.549
-54.232	55.535	2859.884	3526.207
-53.217	54.452	2728.173	3346.849
-52.203	39.103	2458.492	2798.413
-51.188	37.339	2115.125	2385.722
-50.173	32.823	1993.945	2196.261
-49.159	31.462	1983.227	2168.508
-48.144	31.173	1978.843	2160.275
-47.130	31.156	1976.270	2157.179
-46.115	31.021	1975.503	2154.685
-45.100	31.036	1973.883	2153.013
-44.086	31.056	1971.699	2150.776
-43.071	31.046	1970.363	2149.112
-42.057	30.926	1969.487	2146.685
-41.042	30.976	1967.710	2145.245
-40.027	30.960	1966.274	2143.407
-39.013	31.026	1964.812	2142.491
-37.998	30.980	1962.758	2139.634
-36.984	31.017	1962.163	2139.326
-35.969	30.914	1961.197	2137.005
-34.954	30.826	1960.154	2134.763
-33.940	30.880	1958.698	2133.720
-32.925	30.909	1957.093	2132.216
-31.911	30.877	1955.779	2130.330
-30.896	30.826	1954.401	2128.167
-29.881	30.838	1953.467	2127.195
-28.867	30.775	1952.480	2125.321
-27.852	30.847	1949.389	2122.688
-26.838	30.775	1948.403	2120.709
-25.823	30.824	1947.072	2119.739
-24.809	30.780	1945.967	2117.948
-23.794	30.708	1944.296	2115.219
-22.779	30.714	1943.202	2114.017
-21.765	30.802	1941.560	2113.151
-20.750	30.791	1940.198	2111.460
-19.736	30.713	1940.258	2110.549
-18.721	30.590	1939.408	2108.146
-17.706	30.733	1937.591	2107.715
-16.692	30.624	1936.857	2105.584
-15.677	30.595	1935.580	2103.791
-14.663	30.667	1932.769	2101.471
-13.648	30.665	1931.564	2100.055
-12.633	30.613	1930.638	2098.374
-11.619	30.786	1928.519	2097.944
-10.604	30.679	1927.642	2095.691
-9.590	30.638	1926.865	2094.308
-8.575	30.584	1925.286	2091.893
-7.560	30.581	1924.780	2091.230
-6.546	30.583	1923.556	2089.834
-5.531	30.569	1922.283	2088.207
-4.517	30.595	1920.368	2086.342
-3.502	30.570	1919.594	2085.138
-2.487	30.629	1918.747	2084.793
-1.473	30.605	1915.518	2080.935
-0.458	29.984	1893.378	2049.895
0.556	25.032	2033.893	2130.147
1.571	22.981	2246.112	2325.029
2.586	23.947	2290.409	2383.619
3.600	24.005	2293.710	2387.550
4.615	24.038	2293.420	2387.408
5.629	24.019	2290.662	2383.991
6.644	23.899	2289.261	2380.630
7.659	23.996	2287.166	2379.473
8.673	24.226	2284.645	2379.656
9.688	23.808	2292.371	2381.787
10.702	21.829	2368.807	2433.332
11.717	19.157	2434.815	2462.483
12.731	9.380	2410.194	2297.539
13.746	1.408	2388.668	2162.986
14.761	0.343	2384.201	2143.452
15.775	0.211	2382.356	2139.655
16.790	0.156	2381.019	2137.413
17.804	0.053	2379.656	2134.470
18.819	0.244	2378.653	2136.035
19.834	0.038	2377.111	2131.456
20.848	0.092	2375.507	2130.541
21.863	0.162	2373.217	2129.218
22.877	0.179	2370.843	2127.078
23.892	0.139	2368.756	2124.387
24.907	0.084	2367.485	2122.206
25.921	-0.019	2366.048	2119.209
26.936	0.049	2363.015	2117.199
27.950	0.036	2360.281	2114.314
28.965	0.106	2358.575	2113.523
29.980	0.127	2356.483	2111.689
30.994	0.198	2355.229	2111.320
32.009	4.497	2370.185	2185.352
33.023	15.278	2402.099	2368.317
34.038	19.821	2408.076	2438.449
35.053	19.898	2404.910	2436.028
36.067	19.900	2402.664	2433.491
37.082	19.837	2400.525	2430.145
38.096	19.839	2399.274	2428.623
39.111	19.968	2396.865	2427.715
40.126	20.142	2394.883	2427.855
41.140	20.167	2393.983	2427.014
42.155	20.193	2392.580	2425.659
43.169	20.230	2389.871	2423.143
44.184	20.086	2386.638	2417.554
45.199	20.061	2384.077	2414.331
46.213	20.153	2383.640	2414.885
47.228	20.177	2382.708	2413.978
48.242	20.182	2380.512	2411.545
49.257	20.258	2378.991	2410.776
50.271	20.418	2376.195	2409.883
51.286	20.070	2373.892	2402.404
52.301	19.914	2372.127	2398.156
53.315	20.827	2376.248	2414.776
54.330	23.787	2383.560	2463.221
55.344	25.590	2385.044	2489.566
56.359	25.825	2382.387	2489.759
57.374	25.892	2380.866	2488.811
58.388	25.935	2378.577	2486.710
59.403	25.653	2374.771	2478.528
60.417	25.423	2370.643	2470.751
61.432	25.354	2369.192	2467.987
62.447	25.525	2367.815	2468.622
63.461	25.699	2365.401	2468.211
64.476	25.790	2363.143	2466.813
65.490	25.642	2361.568	2462.828
66.505	24.960	2357.313	2448.731
67.520	22.719	2349.890	2409.983
68.534	20.586	2341.123	2371.500
69.549	19.920	2335.584	2356.500
70.563	19.780	2333.029	2351.724
71.578	19.607	2332.197	2348.240
72.593	19.768	2329.771	2347.718
73.607	20.103	2328.170	2350.382
74.622	19.987	2326.785	2347.131
75.636	19.961	2323.194	2342.874
76.651	19.764	2320.855	2337.552
77.666	19.837	2319.593	2336.995
78.680	19.848	2316.606	2333.859
79.695	19.608	2314.333	2328.036
80.709	19.506	2313.960	2325.997
81.724	19.672	2310.363	2324.344
82.739	19.513	2307.917	2319.460
83.753	19.581	2305.738	2317.912
84.768	19.576	2304.161	2315.978
85.782	19.481	2303.648	2313.909
86.797	19.583	2300.541	2311.882
87.812	19.408	2299.156	2307.862
88.826	19.620	2297.382	2308.656
89.841	19.572	2295.060	2305.401
90.855	19.498	2293.381	2302.448
91.870	19.609	2290.014	2300.269
92.884	19.462	2289.587	2297.608
93.899	19.556	2287.857	2296.845
94.914	20.233	2291.026	2308.809
95.928	22.640	2298.541	2348.378
96.943	23.781	2297.404	2362.196
97.957	21.328	2287.234	2318.779
98.972	19.694	2280.487	2289.918
99.987	19.715	2276.626	2286.046
101.001	19.546	2274.698	2281.597
102.016	19.520	2273.232	2279.506
103.030	19.544	2270.074	2276.376
104.045	19.619	2266.161	2273.183
105.060	19.593	2264.585	2270.981
106.074	19.567	2264.151	2269.931
107.089	19.769	2261.496	2269.668
108.103	19.584	2261.460	2266.909
109.118	19.533	2259.756	2264.265
110.133	19.633	2258.911	2264.467
111.147	19.747	2255.430	2262.205
112.162	19.696	2254.705	2260.525
113.176	19.853	2252.293	2259.909
114.191	19.790	2251.314	2257.823
115.206	19.815	2249.668	2256.230
116.220	19.950	2246.583	2254.639
117.235	19.879	2245.125	2251.978
118.249	19.955	2243.314	2250.877
119.264	19.865	2242.031	2248.144
120.279	19.799	2239.648	2244.631
121.293	19.831	2238.393	2243.513
122.308	19.796	2237.232	2241.636
123.322	19.768	2234.833	2238.600
124.337	20.145	2236.459	2244.869
125.352	22.789	2245.222	2287.883
126.366	23.635	2243.737	2297.112
127.381	21.083	2232.514	2252.273
128.395	19.744	2226.936	2229.033
129.410	19.737	2224.255	2225.993
130.424	19.708	2222.295	2223.396
131.439	19.761	2220.948	2222.461
132.454	19.812	2219.518	2221.427
133.468	19.943	2217.082	2220.405
134.483	20.000	2215.755	2219.552
135.497	20.110	2214.004	2218.947
136.512	19.866	2212.063	2213.604
137.527	19.832	2210.066	2210.893
138.541	19.830	2208.329	2208.872
139.556	19.624	2207.909	2205.539
140.570	19.684	2206.029	2204.176
141.585	19.590	2204.357	2201.032
142.600	19.555	2203.036	2199.004
143.614	19.466	2201.530	2196.090
144.629	19.489	2197.821	2192.433
145.643	19.471	2196.820	2190.935
146.658	19.570	2194.562	2189.679
147.673	19.486	2192.162	2185.961
148.687	19.445	2191.495	2184.513
149.702	19.420	2190.661	2183.099
150.716	19.506	2188.897	2182.166
151.731	19.443	2188.607	2180.825
152.746	19.560	2187.464	2180.911
153.760	20.290	2190.348	2192.792
154.775	22.941	2197.770	2233.693
155.789	24.011	2196.521	2245.749
156.804	21.475	2185.546	2202.201
157.819	19.680	2178.439	2172.124
158.833	19.487	2174.446	2165.450
159.848	19.458	2172.554	2162.936
160.862	19.621	2171.206	2163.394
161.877	19.685	2170.719	2163.447
162.892	19.674	2169.793	2162.138
163.906	19.832	2167.680	2161.747
164.921	19.618	2165.691	2156.830
165.935	19.568	2163.726	2153.977
166.950	19.733	2162.804	2154.872
167.964	19.929	2159.015	2153.294
168.979	19.629	2158.183	2148.458
169.994	19.582	2156.392	2145.822
171.008	19.540	2154.169	2142.837
172.023	19.525	2153.417	2141.642
173.037	19.736	2152.533	2143.138
174.052	19.812	2151.249	2142.544
175.067	19.787	2149.581	2140.315
176.081	19.701	2148.599	2138.013
177.096	19.782	2147.659	2137.838
178.110	19.930	2144.752	2136.519
179.125	19.783	2144.400	2134.085
180.140	19.806	2142.194	2131.922
181.154	19.795	2141.108	2130.452
182.169	19.984	2140.353	2131.787
183.183	20.606	2143.408	2142.275
184.198	23.500	2150.585	2185.090
185.213	24.147	2147.651	2189.839
186.227	21.190	2138.014	2143.328
187.242	19.982	2132.758	2122.929
188.256	19.805	2129.475	2117.229
189.271	19.683	2128.895	2114.886
190.286	19.640	2126.837	2112.064
191.300	19.671	2124.543	2109.919
192.315	19.710	2123.286	2108.897
193.329	19.843	2122.672	2109.665
194.344	20.063	2121.411	2110.853
195.359	20.069	2120.044	2109.306
196.373	19.857	2117.592	2104.026
197.388	19.822	2114.669	2100.445
198.402	19.715	2112.848	2097.080
199.417	19.709	2110.828	2094.748
200.432	19.702	2108.624	2092.226
201.446	19.620	2107.661	2090.020
202.461	19.696	2105.318	2088.369
203.475	19.693	2103.673	2086.460
204.490	19.568	2102.310	2083.338
205.504	19.536	2099.751	2080.170
206.519	19.576	2096.846	2077.526
207.534	19.512	2095.620	2075.284
208.548	19.591	2094.478	2074.862
209.563	19.664	2093.197	2074.220
210.577	19.573	2092.684	2072.370
211.592	19.626	2091.956	2072.036
212.607	20.897	2096.204	2091.347
213.621	23.918	2104.230	2135.618
214.636	23.654	2099.132	2127.011
215.650	20.777	2089.510	2082.473
216.665	19.797	2084.915	2065.885
217.680	19.738	2082.349	2062.383
218.694	19.444	2081.439	2057.714
219.709	19.469	2078.813	2055.169
220.723	19.482	2077.932	2054.205
221.738	19.709	2075.523	2054.294
222.753	19.741	2074.325	2053.242
223.767	19.755	2072.469	2051.325
224.782	19.744	2070.857	2049.358
225.796	19.633	2070.153	2047.087
226.811	19.764	2067.503	2045.786
227.826	19.711	2066.556	2043.978
228.840	19.743	2065.083	2042.651
229.855	19.650	2064.038	2040.269
230.869	19.769	2062.063	2039.482
231.884	19.795	2060.702	2038.198
232.899	19.750	2059.620	2036.351
233.913	19.721	2058.449	2034.607
234.928	19.814	2056.694	2033.725
235.942	19.754	2055.136	2031.235
236.957	19.794	2053.991	2030.333
237.972	19.781	2052.840	2028.795
238.986	19.709	2050.843	2025.737
240.001	19.549	2049.612	2022.399
241.015	19.614	2048.481	2021.801
242.030	20.342	2051.238	2032.857
243.045	23.180	2057.131	2071.900
244.059	23.829	2054.717	2076.842
245.074	21.125	2044.391	2034.515
246.088	19.938	2039.374	2015.398
247.103	19.995	2038.253	2014.718
248.117	19.990	2037.156	2013.331
249.132	19.835	2034.968	2009.116
250.147	19.819	2032.453	2006.212
251.161	19.847	2031.506	2005.363
252.176	20.124	2029.242	2006.112
253.190	20.038	2028.575	2004.215
254.205	20.014	2026.503	2001.642
255.220	20.017	2025.069	2000.020
256.234	19.839	2025.310	1997.959
257.249	19.823	2023.102	1995.356
258.263	19.746	2021.190	1992.334
259.278	19.709	2019.626	1990.125
260.293	19.663	2018.258	1988.014
261.307	19.629	2016.706	1985.846
262.322	19.581	2015.279	1983.656
263.336	19.442	2012.681	1979.255
264.351	19.363	2011.161	1976.612
265.366	19.452	2009.538	1975.808
266.380	19.465	2008.418	1974.617
267.395	19.464	2006.580	1972.562
268.409	19.403	2004.999	1970.077
269.424	19.422	2003.916	1968.989
270.439	19.466	2003.145	1968.505
271.453	20.545	2006.020	1983.469
272.468	23.475	2011.915	2022.708
273.482	23.932	2007.375	2023.129
274.497	20.921	1998.122	1979.244
275.512	19.642	1993.520	1959.876
276.526	19.599	1990.776	1956.450
277.541	19.462	1989.249	1953.167
278.555	19.357	1987.662	1950.176
279.570	19.364	1985.373	1947.772
280.585	19.424	1985.658	1948.507
281.599	19.593	1983.908	1948.472
282.614	19.692	1982.659	1948.135
283.628	19.854	1981.870	1948.961
284.643	19.950	1980.541	1948.504
285.657	20.165	1980.065	1950.231
286.672	20.288	1978.551	1949.902
287.687	20.069	1976.642	1945.310
288.701	19.992	1974.839	1942.434
289.716	20.007	1973.830	1941.384
290.730	20.113	1972.025	1940.568
291.745	20.151	1971.190	1939.941
292.760	19.980	1970.280	1936.885
293.774	19.827	1968.788	1933.471
294.789	19.954	1966.912	1932.819
295.803	19.959	1964.627	1930.399
296.818	19.765	1963.359	1926.757
297.833	19.769	1962.269	1925.497
298.847	19.676	1960.933	1922.913
299.862	19.767	1959.735	1922.527
300.876	20.578	1961.439	1933.042
301.891	23.499	1968.517	1972.492
302.906	24.087	1966.361	1976.651
303.920	21.226	1956.811	1935.006
304.935	19.999	1952.064	1916.442
305.949	19.941	1949.717	1913.255
306.964	19.764	1948.849	1910.208
307.979	19.802	1946.701	1908.297
308.993	19.962	1944.807	1907.990
310.008	20.114	1943.348	1908.006
311.022	20.272	1942.882	1909.071
312.037	20.232	1941.482	1907.030
313.052	20.373	1939.467	1906.374
314.066	20.330	1938.244	1904.471
315.081	20.261	1937.644	1902.892
316.095	20.223	1935.200	1899.841
317.110	20.016	1932.666	1894.858
318.125	19.810	1931.994	1891.700
319.139	19.824	1931.116	1890.769
320.154	19.865	1928.891	1888.814
321.168	19.663	1927.413	1884.929
322.183	19.818	1925.125	1884.158
323.197	19.633	1924.580	1881.380
324.212	19.525	1921.873	1877.328
325.227	19.396	1920.460	1874.318
326.241	19.228	1919.788	1871.600
327.256	19.418	1917.635	1871.344
328.270	19.475	1917.231	1871.345
329.285	19.474	1916.643	1870.541
330.300	20.356	1921.088	1884.282
331.314	23.565	1926.536	1924.444
332.329	23.748	1921.667	1921.344
333.343	20.704	1912.991	1879.450
334.358	19.466	1909.065	1861.948
335.373	19.449	1906.967	1859.487
336.387	19.401	1904.758	1856.590
337.402	19.327	1903.871	1854.702
338.416	19.436	1902.254	1854.093
339.431	19.579	1900.983	1854.166
340.446	19.650	1898.730	1852.514
341.460	19.711	1897.609	1851.862
342.475	19.826	1896.439	1851.732
343.489	19.868	1895.513	1851.061
344.504	20.013	1893.605	1850.532
345.519	19.974	1892.626	1848.936
346.533	20.051	1891.827	1848.758
347.548	20.163	1891.445	1849.359
348.562	20.574	1889.860	1851.993
349.577	20.749	1889.766	1853.552
350.592	20.718	1888.376	1851.632
351.606	20.387	1886.392	1845.935
352.621	20.204	1883.659	1841.085
353.635	19.921	1881.970	1836.201
354.650	19.895	1880.629	1834.392
355.665	19.702	1878.675	1830.215
356.679	19.674	1877.724	1828.766
357.694	19.657	1876.748	1827.421
358.708	19.675	1875.225	1825.904
359.723	20.881	1879.542	1842.718
360.738	24.038	1884.679	1881.129
361.752	23.809	1880.184	1873.993
362.767	20.938	1871.354	1834.638
363.781	20.111	1866.971	1821.393
364.796	19.799	1865.558	1816.502
365.810	19.851	1863.811	1815.132
366.825	19.696	1862.672	1812.164
367.840	19.639	1861.973	1810.676
368.854	19.714	1861.785	1811.061
369.869	19.701	1859.900	1808.878
370.883	19.879	1858.457	1809.130
371.898	20.146	1857.453	1810.732
372.913	19.989	1855.918	1807.379
373.927	20.040	1855.671	1807.450
374.942	20.145	1854.074	1806.777
375.956	19.918	1852.370	1802.527
376.971	20.082	1849.954	1801.674
377.986	19.748	1848.252	1796.310
379.000	19.736	1846.754	1794.521
380.015	19.757	1845.218	1793.036
381.029	19.686	1843.782	1790.683
382.044	19.739	1841.501	1788.804
383.059	19.570	1840.007	1785.385
384.073	19.513	1838.985	1783.589
385.088	19.577	1838.064	1783.139
386.102	19.600	1835.873	1781.043
387.117	19.536	1834.243	1778.589
388.132	19.475	1835.124	1778.588
389.146	20.369	1838.874	1791.294
390.161	23.465	1843.759	1827.965
391.175	23.673	1836.902	1823.098
392.190	20.759	1828.043	1784.120
393.205	19.794	1824.608	1770.630
394.219	19.743	1822.291	1767.641
395.234	19.516	1821.513	1764.347
396.248	19.542	1819.382	1762.335
397.263	19.641	1816.871	1760.709
398.278	19.735	1815.732	1760.353
399.292	19.646	1814.227	1757.772
400.307	19.598	1814.457	1757.299
401.321	19.765	1813.784	1758.137
402.336	19.713	1812.429	1756.087
403.350	19.687	1810.511	1753.751
404.365	19.959	1809.286	1755.128
405.380	20.342	1808.848	1758.394
406.394	20.056	1807.749	1754.197
407.409	19.980	1806.342	1751.856
408.423	20.070	1805.144	1751.402
409.438	20.053	1802.856	1748.798
410.453	19.911	1802.136	1746.450
411.467	20.025	1801.559	1746.830
412.482	19.891	1799.153	1742.933
413.496	19.865	1797.262	1740.629
414.511	19.852	1795.767	1738.843
415.526	19.925	1793.778	1737.448
416.540	19.679	1791.871	1732.918
417.555	19.864	1790.412	1733.154
418.569	19.980	1791.084	1734.766
419.584	19.907	1791.654	1734.374
420.599	19.975	1790.669	1733.902
421.613	19.828	1789.888	1731.457
422.628	19.811	1787.567	1728.831
423.642	19.654	1785.639	1725.192
424.657	19.629	1784.578	1723.704
425.672	19.711	1783.475	1723.260
426.686	19.704	1781.999	1721.555
427.701	19.777	1781.034	1721.147
428.715	19.985	1779.485	1721.519
429.730	20.193	1778.451	1722.392
430.745	20.102	1777.069	1719.936
431.759	20.133	1776.695	1719.686
432.774	20.472	1776.934	1723.087
433.788	20.775	1776.739	1725.714
434.803	20.989	1775.952	1726.870
435.818	20.894	1775.262	1725.050
436.832	20.973	1774.947	1725.320
437.847	20.408	1767.039	1711.834
438.861	11.936	1744.567	1606.647
439.876	2.339	1726.302	1495.648
440.890	0.372	1721.550	1472.054
441.905	0.296	1720.261	1470.038
442.920	0.196	1719.463	1468.193
443.934	0.085	1718.227	1465.875
444.949	0.157	1716.750	1465.148
445.963	0.228	1715.510	1464.604
446.978	0.184	1715.305	1463.828
447.993	0.244	1713.640	1462.819
449.007	0.175	1711.257	1459.933
450.022	0.260	1709.506	1459.097
451.036	0.256	1708.242	1457.798
452.051	1.205	1713.422	1471.298
453.066	9.984	1733.625	1574.793
454.080	19.360	1749.113	1680.957
455.095	21.960	1754.359	1711.308
456.109	23.471	1756.808	1728.309
457.124	23.979	1756.391	1732.672
458.139	24.000	1755.338	1731.627
459.153	23.950	1754.428	1730.034
460.168	24.001	1752.412	1728.340
461.182	23.888	1750.607	1725.248
462.197	23.863	1748.407	1722.631
463.212	23.792	1746.289	1719.647
464.226	23.769	1745.800	1718.733
465.241	24.036	1745.618	1720.948
466.255	24.270	1745.094	1722.498
467.270	24.388	1743.198	1721.566
468.285	23.892	1741.703	1715.077
469.299	23.723	1740.578	1712.124
470.314	24.118	1737.896	1713.102
471.328	24.179	1737.003	1712.606
472.343	24.049	1736.862	1711.005
473.358	24.244	1734.545	1710.396
474.372	24.178	1734.137	1709.155
475.387	23.977	1732.119	1705.030
476.401	23.931	1730.279	1702.569
477.416	23.807	1729.221	1700.135
478.430	24.188	1728.105	1702.486
479.445	23.924	1726.358	1698.036
480.460	23.737	1725.093	1694.790
481.474	23.880	1724.587	1695.464
482.489	24.241	1724.442	1698.572
483.503	24.616	1722.769	1700.315
484.518	24.580	1722.142	1699.142
485.533	24.483	1720.923	1696.815
486.547	24.459	1719.273	1694.756
487.562	25.022	1719.048	1699.696
488.576	24.918	1717.287	1696.762
489.591	24.902	1714.775	1693.931
490.606	24.597	1713.946	1690.006
491.620	24.625	1712.047	1688.194
492.635	25.183	1710.713	1691.973
493.649	25.170	1709.615	1690.563
494.664	24.561	1707.057	1682.065
495.679	23.757	1704.861	1672.094
496.693	23.930	1703.574	1672.270
497.708	24.443	1703.306	1676.653
498.722	24.885	1703.371	1680.687
499.737	24.934	1701.162	1678.771
500.752	24.673	1699.772	1674.735
501.766	24.288	1698.614	1669.770
502.781	24.537	1696.699	1670.031
503.795	24.684	1694.605	1669.148
504.810	24.589	1694.561	1668.018
505.825	24.696	1694.339	1668.606
506.839	24.650	1693.208	1666.859
507.854	24.636	1691.585	1664.930
508.868	24.676	1689.834	1663.384
509.883	24.602	1688.767	1661.440
510.898	24.795	1687.911	1662.200
511.912	24.476	1686.081	1657.222
512.927	24.329	1683.022	1652.654
513.941	24.327	1682.276	1651.701
514.956	24.191	1681.126	1649.108
515.971	24.396	1680.317	1650.024
516.985	24.516	1678.592	1649.248
518.000	24.565	1678.291	1649.205
519.014	24.692	1678.284	1650.178
520.029	24.902	1675.924	1649.605
521.043	24.889	1673.627	1647.033
522.058	24.666	1672.768	1643.927
523.073	24.787	1672.833	1644.914
524.087	25.284	1673.095	1649.569
525.102	25.215	1670.940	1646.607
526.116	24.633	1669.209	1639.343
527.131	24.593	1667.850	1637.444
528.146	25.194	1667.997	1642.925
529.160	25.318	1666.898	1642.780
530.175	25.466	1665.625	1642.689
531.189	25.642	1664.248	1642.753
532.204	25.764	1662.637	1642.088
533.219	25.357	1660.837	1636.385
534.233	24.570	1659.496	1627.658
535.248	24.905	1658.921	1629.968
536.262	25.557	1660.008	1636.811
537.277	25.676	1658.361	1636.074
538.292	25.384	1655.534	1630.433
539.306	25.410	1653.476	1628.447
540.321	25.375	1651.923	1626.404
541.335	24.996	1650.525	1621.382
542.350	25.407	1650.038	1624.443
543.365	25.800	1648.288	1626.100
544.379	25.851	1647.092	1625.181
545.394	25.869	1646.604	1624.672
546.408	25.472	1642.922	1617.252
547.423	24.712	1640.910	1608.211
548.438	24.575	1640.026	1605.912
549.452	24.943	1639.851	1608.879
550.467	25.171	1639.974	1610.865
551.481	25.190	1639.128	1610.010
552.496	25.535	1638.366	1612.174
553.511	25.986	1637.671	1615.365
554.525	25.797	1637.080	1612.883
555.540	25.814	1636.036	1611.817
556.554	26.090	1634.003	1612.097
557.569	25.905	1632.186	1608.454
558.583	25.539	1631.211	1604.020
559.598	25.530	1629.201	1601.771
560.613	25.471	1628.070	1599.936
561.627	25.500	1627.684	1599.632
562.642	25.707	1625.631	1599.265
563.656	25.897	1625.532	1600.677
564.671	25.879	1624.482	1599.291
565.686	25.772	1622.770	1596.458
566.700	25.456	1620.173	1590.898
567.715	25.373	1618.337	1588.171
568.729	25.280	1616.101	1584.963
569.744	25.061	1615.278	1582.021
570.759	25.164	1614.328	1581.817
571.773	25.183	1613.904	1581.377
572.788	25.482	1613.159	1583.102
573.802	25.625	1610.826	1581.890
574.817	25.720	1609.515	1581.250
575.832	25.825	1610.104	1582.571
576.846	25.892	1608.455	1581.349
577.861	25.859	1606.999	1579.441
578.875	25.906	1606.802	1579.468
579.890	26.356	1606.272	1582.718
580.905	26.350	1605.038	1581.265
581.919	26.386	1605.033	1581.387
582.934	26.706	1604.474	1583.458
583.948	26.645	1602.938	1581.220
584.963	26.480	1600.316	1576.992
585.978	25.850	1598.603	1569.602
586.992	26.078	1598.306	1571.125
588.007	26.519	1597.705	1574.198
589.021	25.774	1594.360	1564.211
590.036	25.003	1592.949	1555.908
591.051	25.799	1592.743	1562.471
592.065	26.301	1592.195	1566.122
593.080	26.592	1590.950	1567.238
594.094	26.578	1588.934	1564.945
595.109	25.901	1586.101	1556.094
596.123	25.460	1583.979	1550.004
597.138	25.865	1584.443	1553.786
598.153	26.276	1583.302	1556.037
599.167	26.257	1581.595	1554.008
600.182	26.263	1581.627	1553.904
601.196	26.317	1580.683	1553.258
602.211	26.236	1579.639	1551.346
603.226	26.548	1578.835	1553.060
604.240	26.749	1577.263	1553.066
605.255	26.895	1576.664	1553.547
606.269	26.788	1575.362	1551.158
607.284	26.677	1573.987	1548.658
608.299	26.748	1572.628	1547.746
609.313	26.345	1570.836	1542.341
610.328	26.434	1570.035	1542.136
611.342	26.542	1568.686	1541.553
612.357	26.760	1567.214	1541.780
613.372	26.772	1566.945	1541.438
614.386	26.436	1565.560	1537.016
615.401	26.677	1565.025	1538.367
616.415	26.545	1563.927	1535.979
617.430	26.474	1563.484	1534.755
618.445	26.637	1561.938	1534.439
619.459	26.606	1559.434	1531.532
620.474	26.156	1558.279	1526.395
621.488	25.690	1556.007	1520.032
622.503	25.394	1554.848	1516.203
623.518	25.830	1555.441	1520.300
624.532	26.475	1554.509	1524.670
625.547	26.581	1553.421	1524.324
626.561	26.905	1553.258	1526.723
627.576	26.959	1551.763	1525.527
628.591	26.546	1549.411	1519.545
629.605	26.301	1547.560	1515.481
630.620	26.159	1546.217	1512.794
631.634	25.661	1545.730	1507.938
632.649	26.021	1544.587	1509.674
633.663	26.376	1543.716	1511.627
634.678	26.683	1543.670	1513.980
635.693	27.089	1541.215	1514.793
636.707	26.912	1541.044	1512.960
637.722	27.042	1540.174	1513.014
638.736	27.365	1538.759	1514.139
639.751	27.327	1537.463	1512.372
640.766	27.212	1535.896	1509.685
641.780	27.254	1534.989	1508.967
642.795	27.100	1533.872	1506.402
643.809	27.315	1533.681	1507.825
644.824	27.315	1532.825	1506.803
645.839	27.194	1531.794	1504.606
646.853	27.277	1530.721	1504.056
647.868	27.100	1528.564	1500.294
648.882	27.058	1527.288	1498.512
649.897	27.024	1525.934	1496.726
650.912	27.193	1524.125	1496.167
651.926	27.078	1523.302	1494.229
652.941	26.956	1521.312	1491.091
653.955	26.346	1519.124	1483.741
654.970	25.737	1516.237	1475.724
655.985	25.666	1514.634	1473.401
656.999	25.702	1513.834	1472.743
658.014	26.264	1513.566	1476.926
659.028	26.667	1513.380	1479.874
660.043	27.130	1512.985	1483.116
661.058	27.295	1512.191	1483.511
662.072	27.235	1511.358	1482.023
663.087	27.172	1510.134	1480.134
664.101	27.076	1509.140	1478.193
665.116	27.194	1507.940	1477.808
666.131	27.329	1506.582	1477.400
667.145	27.274	1506.067	1476.270
668.160	27.563	1504.811	1477.218
669.174	27.774	1503.345	1477.316
670.189	27.592	1502.715	1475.038
671.204	27.464	1502.064	1473.183
672.218	27.427	1500.650	1471.320
673.233	27.741	1499.549	1472.616
674.247	27.937	1498.709	1473.199
675.262	27.855	1498.473	1472.131
676.276	27.903	1497.039	1470.930
677.291	27.622	1495.032	1466.516
678.306	27.322	1493.625	1462.532
679.320	27.222	1492.357	1460.312
680.335	27.473	1492.692	1462.486
681.349	27.595	1492.169	1462.788
682.364	27.586	1490.432	1460.836
683.379	27.578	1488.822	1459.018
684.393	27.357	1487.288	1455.560
685.408	27.431	1486.036	1454.760
686.422	27.337	1484.834	1452.654
687.437	27.248	1484.985	1451.912
688.452	27.420	1484.776	1452.917
689.466	27.294	1482.219	1449.230
690.481	27.240	1480.230	1446.679
691.495	27.017	1479.552	1444.060
692.510	26.737	1476.823	1438.987
693.525	26.271	1474.756	1433.091
694.539	26.344	1475.124	1433.858
695.554	27.147	1475.295	1440.253
696.568	27.433	1474.254	1441.338
697.583	27.499	1473.697	1441.145
698.598	27.642	1473.483	1441.905
699.612	27.683	1472.546	1441.137
700.627	27.783	1471.165	1440.408
701.641	27.897	1469.871	1439.868
702.656	27.798	1468.812	1437.875
703.671	28.179	1468.621	1440.537
704.685	28.109	1468.084	1439.285
705.700	28.001	1466.335	1436.539
706.714	27.655	1464.487	1431.832
707.729	27.499	1463.162	1429.132
708.744	27.552	1461.243	1427.506
709.758	27.395	1460.260	1425.136
710.773	26.770	1457.970	1417.824
711.787	26.528	1456.652	1414.466
712.802	27.101	1455.602	1417.772
713.816	27.365	1455.356	1419.434
714.831	27.640	1454.479	1420.564
715.846	27.801	1453.788	1420.982
716.860	27.785	1453.084	1419.999
717.875	27.904	1451.726	1419.432
718.889	27.602	1450.260	1415.468
719.904	27.789	1449.089	1415.617
720.919	27.901	1448.520	1415.764
721.933	27.913	1447.747	1414.933
722.948	27.878	1447.054	1413.814
723.962	27.887	1445.759	1412.450
724.977	28.086	1444.503	1412.596
725.992	28.144	1443.533	1411.926
727.006	28.084	1442.514	1410.299
728.021	28.164	1440.866	1409.137
729.035	28.220	1440.213	1408.761
730.050	28.306	1439.065	1408.132
731.065	28.081	1438.130	1405.314
732.079	28.123	1436.921	1404.292
733.094	28.131	1435.127	1402.433
734.108	28.088	1433.405	1400.251
735.123	28.037	1432.112	1398.423
736.138	28.047	1431.584	1397.820
737.152	28.205	1430.776	1398.077
738.167	28.282	1429.282	1397.037
739.181	28.381	1428.205	1396.578
740.196	28.324	1428.031	1395.804
741.211	28.214	1426.897	1393.687
742.225	28.004	1426.404	1391.431
743.240	28.098	1424.667	1390.290
744.254	28.088	1422.793	1388.221
745.269	27.926	1421.938	1385.979
746.284	27.656	1421.454	1383.288
747.298	27.507	1420.374	1380.933
748.313	27.358	1417.947	1377.272
749.327	27.156	1416.747	1374.409
750.342	26.782	1414.983	1369.694
751.356	26.501	1413.371	1365.838
752.371	26.591	1413.532	1366.510
753.386	27.371	1413.971	1372.686
754.400	27.833	1413.897	1375.955
755.415	28.187	1412.322	1376.936
756.429	28.376	1411.179	1377.084
757.444	28.336	1410.011	1375.479
758.459	28.369	1409.570	1375.130
759.473	28.377	1408.361	1373.849
760.488	28.240	1406.720	1371.050
761.502	28.209	1405.603	1369.568
762.517	28.013	1404.667	1367.019
763.532	28.160	1402.843	1366.180
764.546	27.813	1401.242	1361.860
765.561	27.252	1399.076	1355.386
766.575	26.411	1396.930	1346.851
767.590	26.359	1396.064	1345.470
768.605	27.071	1395.951	1350.522
769.619	27.784	1395.499	1355.247
770.634	27.908	1394.956	1355.481
771.648	28.153	1394.139	1356.353
772.663	28.271	1393.211	1356.165
773.678	28.377	1393.140	1356.725
774.692	28.422	1392.575	1356.347
775.707	28.338	1392.167	1355.158
776.721	28.453	1390.883	1354.604
777.736	28.539	1389.422	1353.659
778.751	28.313	1389.208	1351.606
779.765	28.504	1387.316	1351.019
780.780	28.292	1386.643	1348.638
781.794	28.364	1385.691	1348.081
782.809	28.175	1383.884	1344.765
783.824	27.815	1382.336	1340.442
784.838	27.436	1380.016	1335.243
785.853	26.984	1378.695	1330.470
786.867	27.343	1378.917	1333.175
787.882	27.467	1378.655	1333.671
788.897	27.603	1377.857	1333.738
789.911	27.627	1377.007	1332.935
790.926	27.835	1375.834	1333.168
791.940	28.085	1374.386	1333.435
792.955	28.153	1372.968	1332.400
793.969	28.112	1372.547	1331.529
794.984	28.288	1371.918	1332.044
795.999	28.475	1371.083	1332.441
797.013	28.666	1369.072	1331.722
798.028	28.621	1367.800	1329.997
799.042	28.483	1367.912	1328.946
800.057	28.542	1366.879	1328.212
801.072	28.498	1365.154	1326.054
802.086	28.508	1364.118	1324.960
803.101	28.509	1362.723	1323.456
804.115	28.534	1361.794	1322.576
805.130	28.488	1360.944	1321.259
806.145	28.422	1359.428	1319.149
807.159	28.146	1357.963	1315.575
808.174	28.233	1357.037	1315.150
809.188	28.357	1355.365	1314.271
810.203	28.198	1353.230	1310.897
811.218	27.777	1351.558	1306.093
812.232	27.217	1349.525	1299.944
813.247	26.762	1348.795	1295.822
814.261	27.419	1349.335	1300.904
815.276	28.278	1348.740	1306.340
816.291	28.157	1348.096	1304.690
817.305	28.150	1347.404	1303.816
818.320	28.171	1346.051	1302.501
819.334	28.311	1345.378	1302.693
820.349	28.643	1343.816	1303.397
821.364	28.534	1342.425	1301.112
822.378	28.675	1341.262	1300.837
823.393	28.566	1339.278	1297.976
824.407	28.464	1338.513	1296.360
825.422	28.425	1338.073	1295.498
826.437	28.322	1336.631	1293.214
827.451	28.045	1333.880	1288.436
828.466	27.366	1332.280	1281.930
829.480	27.157	1330.901	1278.978
830.495	27.512	1329.064	1279.562
831.509	27.789	1328.688	1281.003
832.524	27.933	1328.661	1281.836
833.539	28.306	1327.538	1283.230
834.553	28.477	1326.018	1282.813
835.568	28.422	1325.322	1281.598
836.582	28.634	1324.200	1281.844
837.597	28.684	1322.586	1280.479
838.612	28.497	1320.918	1277.401
839.626	28.246	1320.033	1274.637
840.641	27.941	1318.881	1271.239
841.655	27.767	1317.793	1268.827
842.670	27.056	1315.292	1261.302
843.685	26.404	1313.478	1254.866
844.699	27.274	1313.235	1260.549
845.714	27.878	1312.610	1264.003
846.728	28.030	1311.815	1264.137
847.743	28.062	1311.684	1264.087
848.758	28.180	1311.061	1264.149
849.772	28.333	1309.476	1263.532
850.787	28.390	1308.082	1262.434
851.801	28.405	1306.630	1260.983
852.816	28.567	1305.571	1260.928
853.831	28.286	1304.708	1258.009
854.845	28.105	1303.084	1255.043
855.860	27.965	1301.094	1252.010
856.874	27.661	1300.186	1248.892
857.889	27.751	1298.274	1247.528
858.904	27.821	1296.301	1245.959
859.918	27.205	1294.749	1240.099
860.933	26.880	1293.593	1236.618
861.947	27.319	1292.984	1238.895
862.962	27.426	1292.528	1239.040
863.977	27.635	1290.852	1238.709
864.991	27.810	1290.852	1239.757
866.006	28.084	1290.336	1240.985
867.020	28.160	1288.931	1239.998
868.035	28.357	1288.067	1240.365
869.049	28.532	1287.500	1240.860
870.064	28.549	1286.552	1239.913
871.079	28.525	1285.196	1238.295
872.093	28.286	1284.456	1235.812
873.108	28.186	1282.994	1233.579
874.122	28.063	1281.263	1230.931
875.137	27.414	1280.485	1225.648
876.152	27.277	1279.479	1223.614
877.166	27.373	1278.283	1222.973
878.181	27.649	1276.991	1223.453
879.195	27.913	1276.733	1224.836
880.210	28.158	1276.029	1225.665
881.225	28.301	1275.560	1226.034
882.239	28.316	1274.124	1224.604
883.254	28.278	1273.854	1223.941
884.268	28.298	1272.696	1222.818
885.283	28.419	1271.175	1222.022
886.298	28.539	1269.553	1221.117
887.312	28.359	1268.942	1219.178
888.327	28.493	1267.862	1218.890
889.341	28.352	1266.548	1216.542
890.356	28.185	1265.854	1214.617
891.371	28.244	1264.899	1213.951
892.385	28.149	1264.055	1212.358
893.400	27.909	1263.173	1209.772
894.414	27.662	1261.694	1206.568
895.429	27.662	1259.298	1204.134
896.444	26.964	1256.907	1197.076
897.458	26.680	1255.665	1193.871
898.473	27.006	1255.752	1195.970
899.487	27.431	1255.911	1198.790
900.502	27.770	1254.932	1199.949
901.517	27.991	1253.509	1199.908
902.531	28.205	1253.002	1200.687
903.546	28.332	1252.622	1201.021
904.560	28.356	1251.847	1200.289
905.575	28.308	1250.688	1198.723
906.589	28.107	1249.954	1196.551
907.604	27.946	1249.417	1194.834
