DTS Sentinel unit serial number:	SN409020Multiplexer serial number:	ORYXHardware model number:	OX4-SRSoftware version number:	ORYX F/W v3.00 Oryx Data Collector v3.7.2.0data status	okinstallation	HaddamTimeLapsedifferential loss correction	single-endedforward channel	channel 3reverse channel	N/Adate	2011/06/21time	23:11:16forward acquisition time	30.00reverse acquisition time	0.00gamma	498.7831k internal	0.1753k external	0.1753temperature offset calibration	1.0074default loss term (dB/km)	0.3790temperature slope calibration	1.3530multiplexer offset coefficient	1.0000multiplexer slope coefficient	1.0000fibre end	0.00T internal ref (°C)	23.37T ext. ref 1 (°C)	19.04T ext. ref 2 (°C)	0.05length (m)	temperature (°C)	Stokes	anti-Stokes-747.200	-198.593	0.130	0.001
-746.185	590.290	-0.113	0.371
-745.171	104.287	0.147	-0.229
-744.156	33.403	0.226	0.260
-743.142	-121.285	-0.269	-0.059
-742.127	183.849	-0.150	0.296
-741.112	800.000	-0.113	-0.611
-740.098	12.951	-0.157	0.161
-739.083	26.197	0.213	-0.236
-738.069	281.280	0.254	0.606
-737.054	-200.000	-0.045	-0.321
-736.039	-106.526	-0.510	0.150
-735.025	27.879	0.201	0.224
-734.010	12.253	0.446	0.455
-732.996	113.080	-0.162	-0.260
-731.981	-96.452	0.149	-0.052
-730.966	0.558	-0.459	-0.435
-729.952	-20.145	-0.278	0.227
-728.937	-118.613	0.441	0.103
-727.923	16.417	-0.351	0.367
-726.908	-120.423	0.334	0.075
-725.894	-136.814	0.655	-0.099
-724.879	-200.000	0.051	0.384
-723.864	-188.954	-0.394	-0.006
-722.850	-148.197	-0.111	-0.012
-721.835	102.685	0.088	-0.137
-720.821	-126.127	-0.261	0.051
-719.806	-200.000	0.003	0.478
-718.791	210.459	-0.160	0.335
-717.777	165.886	0.124	0.234
-716.762	24.050	-0.219	-0.240
-715.748	-9.021	0.299	0.265
-714.733	-60.629	0.251	0.140
-713.718	-105.829	0.184	0.055
-712.704	2.762	0.041	-0.040
-711.689	-157.721	-0.177	0.014
-710.675	525.449	-0.123	-0.387
-709.660	131.642	0.137	0.233
-708.645	8.933	0.366	-0.366
-707.631	72.054	-0.298	0.411
-706.616	769.216	-0.082	0.297
-705.602	31.533	0.310	0.353
-704.587	-113.068	-0.207	0.054
-703.572	231.720	-0.178	0.388
-702.558	25.862	0.142	0.157
-701.543	94.151	-0.234	-0.352
-700.529	-200.000	-0.005	-0.161
-699.514	-45.191	-0.324	0.213
-698.499	-49.400	0.449	-0.283
-697.485	26.072	-0.209	-0.231
-696.470	278.675	-0.220	-0.520
-695.456	-117.435	-0.119	0.028
-694.441	-56.782	-0.291	-0.170
-693.426	-200.000	0.026	-0.266
-692.412	-200.000	0.009	0.123
-691.397	-113.820	0.008	0.002
-690.383	-23.742	-0.358	-0.284
-689.368	19.949	0.208	-0.222
-688.354	-105.284	0.335	0.100
-687.339	-103.578	0.277	-0.085
-686.324	800.000	0.117	0.440
-685.310	-168.277	-0.244	-0.012
-684.295	167.092	-0.082	0.155
-683.281	-200.000	-0.001	0.072
-682.266	-108.856	0.384	0.108
-681.251	-200.000	0.044	0.392
-680.237	-200.000	0.013	-0.189
-679.222	-200.000	0.035	-0.350
-678.208	214.422	0.094	0.197
-677.193	131.900	0.044	0.075
-676.178	800.000	-0.073	-0.295
-675.164	-24.414	-0.248	0.195
-674.149	13.559	-0.141	0.145
-673.135	-64.095	0.358	0.193
-672.120	-30.765	-0.190	0.142
-671.105	-162.084	0.162	0.011
-670.091	-141.167	0.166	-0.022
-669.076	22.931	0.145	-0.158
-668.062	800.000	0.109	0.587
-667.047	-200.000	-0.023	0.507
-666.032	-56.617	0.461	0.269
-665.018	-200.000	-0.031	0.272
-664.003	-32.693	0.339	-0.249
-662.989	-92.893	0.200	-0.073
-661.974	-95.743	-0.298	-0.105
-660.959	-88.274	-0.230	-0.091
-659.945	-179.934	-0.310	-0.009
-658.930	-200.000	0.062	-0.455
-657.916	-122.861	-0.237	0.050
-656.901	20.148	-0.203	0.216
-655.886	-200.000	0.013	0.377
-654.872	728.885	0.072	-0.254
-653.857	-200.000	0.044	-0.451
-652.843	-137.186	-0.504	0.075
-651.828	499.551	-0.145	0.445
-650.814	681.870	-0.022	-0.075
-649.799	-148.040	-0.367	0.040
-648.784	-28.225	0.180	-0.137
-647.770	19.226	0.106	-0.112
-646.755	21.000	0.229	-0.245
-645.741	800.000	0.134	-0.525
-644.726	-200.000	-0.037	0.398
-643.711	-78.545	-0.334	-0.150
-642.697	24.972	0.183	-0.201
-641.682	145.819	0.184	-0.326
-640.668	-200.000	0.082	-0.558
-639.653	-30.541	-0.334	-0.249
-638.638	800.000	0.006	-0.023
-637.624	352.850	-0.069	0.182
-636.609	-7.496	-0.104	0.093
-635.595	85.201	0.117	-0.170
-634.580	647.870	0.053	-0.179
-633.565	376.343	-0.088	0.239
-632.551	355.259	0.015	-0.039
-631.536	76.889	-0.255	0.358
-630.522	-200.000	0.027	0.314
-629.507	-95.548	-0.264	-0.093
-628.492	117.686	-0.396	0.646
-627.478	298.414	0.147	0.358
-626.463	14.613	0.256	0.264
-625.449	-27.539	-0.319	-0.244
-624.434	114.678	-0.039	0.063
-623.419	800.000	-0.068	0.278
-622.405	-35.722	-0.142	0.101
-621.390	-17.251	0.084	-0.070
-620.376	75.664	-0.072	0.101
-619.361	-73.456	0.221	0.106
-618.346	336.604	-0.038	0.097
-617.332	123.928	0.239	-0.397
-616.317	166.226	0.231	-0.432
-615.303	-2.831	0.239	0.220
-614.288	-82.487	0.054	-0.023
-613.273	504.548	-0.053	0.163
-612.259	-67.302	-0.211	-0.109
-611.244	-200.000	0.014	-0.107
-610.230	-86.921	-0.287	0.115
-609.215	-117.978	-0.313	0.073
-608.201	-11.913	0.263	0.227
-607.186	-76.414	0.476	-0.220
-606.171	-200.000	0.047	0.287
-605.157	-200.000	0.016	-0.252
-604.142	800.000	0.053	0.261
-603.128	800.000	-0.108	-0.418
-602.113	-63.583	0.410	-0.221
-601.098	-86.967	0.344	-0.138
-600.084	-200.000	0.026	-0.291
-599.069	-200.000	-0.738	-0.001
-598.055	105.828	-0.228	-0.356
-597.040	-118.083	0.084	0.020
-596.025	447.704	-0.093	0.271
-595.011	490.253	0.069	-0.209
-593.996	-200.000	-0.025	-0.329
-592.982	-23.427	0.232	0.183
-591.967	-200.000	0.041	-0.453
-590.952	-72.498	-0.309	0.150
-589.938	-19.296	-0.285	-0.233
-588.923	800.000	-0.021	-0.118
-587.909	-7.923	-0.223	0.198
-586.894	19.027	0.224	0.237
-585.879	-122.288	0.539	0.115
-584.865	-77.890	0.334	0.151
-583.850	32.169	-0.131	0.149
-582.836	-116.054	0.432	0.105
-581.821	304.150	0.129	0.316
-580.806	-97.562	-0.317	0.108
-579.792	-200.000	0.009	0.279
-578.777	-156.388	0.280	-0.023
-577.763	800.000	-0.066	0.369
-576.748	119.431	0.260	-0.426
-575.733	-74.320	-0.242	-0.115
-574.719	164.942	-0.160	-0.298
-573.704	57.484	0.282	0.363
-572.690	-128.730	-0.267	0.049
-571.675	-70.674	0.557	0.276
-570.661	-94.813	0.381	0.135
-569.646	-96.643	-0.534	-0.184
-568.631	550.039	0.074	0.235
-567.617	800.000	-0.031	0.165
-566.602	109.958	0.298	-0.471
-565.588	732.169	-0.122	-0.432
-564.573	136.450	0.194	0.334
-563.558	-200.000	-0.001	-0.278
-562.544	26.188	0.059	0.065
-561.529	-200.000	0.007	-0.215
-560.515	-108.105	0.466	0.132
-559.500	800.000	-0.066	-0.302
-558.485	800.000	-0.113	-0.477
-557.471	-76.187	-0.154	-0.071
-556.456	138.285	0.074	0.128
-555.442	150.967	-0.244	0.438
-554.427	-136.974	-0.594	-0.089
-553.412	-101.675	-0.168	-0.053
-552.398	-18.522	0.224	-0.184
-551.383	196.588	0.051	-0.102
-550.369	-123.052	-0.230	0.048
-549.354	-35.461	-0.014	0.010
-548.339	-70.095	0.122	0.061
-547.325	-72.161	0.339	-0.165
-546.310	-51.586	-0.207	-0.127
-545.296	37.339	-0.319	-0.372
-544.281	800.000	-0.021	0.097
-543.266	53.271	0.124	0.157
-542.252	-83.374	0.294	-0.124
-541.237	-72.939	0.606	0.292
-540.223	-101.658	-0.145	-0.046
-539.208	-15.621	-0.470	-0.394
-538.193	-93.272	-0.460	-0.167
-537.179	25.755	0.176	0.192
-536.164	184.938	0.271	0.530
-535.150	-69.280	0.141	0.071
-534.135	-200.000	0.046	-0.000
-533.121	584.147	0.063	-0.203
-532.106	-3.685	0.402	0.367
-531.091	-200.000	-0.023	0.221
-530.077	800.000	-0.019	0.082
-529.062	-39.683	0.508	0.349
-528.048	-46.468	-0.203	-0.131
-527.033	-79.757	0.198	0.087
-526.018	579.886	-0.141	0.457
-525.004	-45.784	-0.094	-0.061
-523.989	18.504	0.494	0.519
-522.975	800.000	-0.028	0.139
-521.960	334.437	-0.210	0.537
-520.945	-69.464	-0.294	0.147
-519.931	-114.068	-0.244	0.062
-518.916	-138.811	-0.158	0.022
-517.902	-75.121	-0.146	-0.068
-516.887	242.471	0.071	0.156
-515.872	84.245	-0.137	-0.198
-514.858	-174.345	0.316	0.012
-513.843	115.718	0.324	0.522
-512.829	319.058	-0.090	0.226
-511.814	82.153	0.350	0.500
-510.799	7.142	-0.398	0.391
-509.785	-120.431	-0.791	0.175
-508.770	-200.000	-0.030	0.287
-507.756	88.187	-0.330	-0.481
-506.741	-200.000	-0.015	0.420
-505.726	-200.000	-0.015	-0.093
-504.712	800.000	0.029	0.136
-503.697	-46.390	-0.165	0.106
-502.683	74.688	0.209	0.290
-501.668	-65.174	0.419	0.221
-500.653	-12.403	0.315	0.270
-499.639	800.000	-0.081	0.351
-498.624	149.908	0.077	0.138
-497.610	-111.695	0.231	-0.061
-496.595	-200.000	0.029	-0.345
-495.581	-200.000	0.219	-0.001
-494.566	-38.802	-0.106	-0.073
-493.551	-97.199	0.101	0.035
-492.537	-115.273	-0.284	0.070
-491.522	-200.000	-0.023	0.148
-490.508	-200.000	0.006	1.018
-489.493	290.014	-0.096	0.229
-488.478	-83.003	-0.297	-0.125
-487.464	-114.836	-0.112	0.028
-486.449	-120.620	0.669	0.148
-485.435	-7.641	0.386	-0.342
-484.420	-1.516	0.107	-0.099
-483.405	-48.607	-0.422	0.266
-482.391	-99.299	0.324	-0.107
-481.376	-160.146	-0.413	-0.029
-480.362	-200.000	0.162	0.000
-479.347	140.365	0.139	0.242
-478.332	441.697	0.052	-0.149
-477.318	95.300	0.181	-0.271
-476.303	-162.259	0.463	0.030
-475.289	179.295	0.012	0.024
-474.274	11.611	0.440	-0.442
-473.259	114.215	-0.213	-0.341
-472.245	21.738	-0.015	-0.016
-471.230	-102.058	0.233	-0.073
-470.216	800.000	0.084	-0.461
-469.201	289.121	0.105	0.250
-468.186	-92.558	-0.118	-0.043
-467.172	-53.206	0.100	-0.060
-466.157	800.000	0.113	-0.452
-465.143	-119.493	0.366	-0.083
-464.128	-35.721	0.497	0.352
-463.113	-200.000	0.021	0.297
-462.099	-200.000	0.093	0.763
-461.084	-70.041	-0.482	-0.240
-460.070	125.430	-0.519	-0.861
-459.055	60.297	-0.265	-0.344
-458.040	60.508	0.128	0.167
-457.026	87.359	0.246	-0.357
-456.011	141.227	0.250	0.435
-454.997	209.599	0.070	-0.145
-453.982	-119.336	0.218	-0.049
-452.968	100.768	0.119	0.181
-451.953	-90.461	0.219	-0.083
-450.938	-18.837	-0.340	0.277
-449.924	-78.309	-0.203	0.091
-448.909	-114.960	-0.172	-0.043
-447.895	523.875	-0.073	-0.225
-446.880	-95.150	0.451	-0.158
-445.865	800.000	-0.007	-0.041
-444.851	800.000	0.070	-0.347
-443.836	-12.359	-0.297	0.254
-442.822	-158.325	-0.158	-0.012
-441.807	-200.000	-0.011	0.312
-440.792	8.199	-0.308	-0.303
-439.778	-200.000	0.015	-0.278
-438.763	131.375	-0.194	0.328
-437.749	11.135	-0.026	-0.026
-436.734	-160.018	-0.185	-0.013
-435.719	466.767	0.083	-0.245
-434.705	707.747	0.023	0.079
-433.690	-110.966	0.383	-0.102
-432.676	-42.062	0.206	0.138
-431.661	175.262	0.104	0.198
-430.646	-76.686	0.443	-0.203
-429.632	-15.107	0.100	0.084
-428.617	-55.179	0.224	-0.132
-427.603	-87.467	-0.274	0.108
-426.588	122.938	0.078	0.128
-425.573	-200.000	0.024	-0.657
-424.559	-200.000	-0.032	-0.375
-423.544	-132.022	-0.296	0.050
-422.530	-92.446	-0.246	-0.090
-421.515	-117.299	0.268	-0.063
-420.500	219.918	-0.189	0.398
-419.486	-108.209	0.432	-0.121
-418.471	-61.772	-0.293	0.160
-417.457	488.557	0.195	-0.587
-416.442	-3.352	0.238	-0.217
-415.428	55.311	-0.143	-0.182
-414.413	-91.114	-0.401	0.150
-413.398	-61.643	-0.227	-0.124
-412.384	140.546	-0.188	0.327
-411.369	-69.196	-0.190	0.095
-410.355	124.839	-0.130	0.215
-409.340	80.274	-0.515	0.727
-408.325	-100.693	0.300	0.096
-407.311	-13.103	0.131	0.111
-406.296	800.000	-0.044	-0.165
-405.282	-53.711	0.486	-0.289
-404.267	-64.190	0.392	-0.209
-403.252	-106.833	-0.413	-0.119
-402.238	65.323	-0.054	-0.071
-401.223	-16.855	0.379	-0.313
-400.209	32.849	-0.352	0.399
-399.194	-144.314	0.036	0.004
-398.179	403.847	0.073	-0.202
-397.165	-70.704	-0.581	-0.286
-396.150	110.149	-0.131	-0.206
-395.136	-117.384	-0.797	0.188
-394.121	203.927	-0.304	0.618
-393.106	130.137	0.206	-0.346
-392.092	-191.468	-0.470	0.006
-391.077	562.793	0.046	0.148
-390.063	-60.046	-0.274	0.152
-389.048	-127.792	-0.332	0.062
-388.033	-200.000	0.031	0.250
-387.019	-90.387	0.291	0.110
-386.004	-85.402	-0.253	-0.103
-384.990	-166.200	0.536	0.029
-383.975	166.541	0.445	0.827
-382.960	-126.706	-0.111	0.021
-381.946	800.000	0.068	-0.250
-380.931	-109.025	0.298	0.083
-379.917	-101.638	-0.357	-0.113
-378.902	417.781	-0.094	-0.263
-377.888	-166.690	-0.377	-0.020
-376.873	2.956	-0.333	-0.316
-375.858	209.041	0.123	0.252
-374.844	147.153	-0.138	0.244
-373.829	-104.212	0.142	-0.043
-372.815	-135.561	0.095	-0.015
-371.800	-69.800	-0.160	0.079
-370.785	-200.000	0.047	-0.806
-369.771	106.228	-0.309	-0.479
-368.756	-128.255	0.467	-0.086
-367.742	-14.199	0.361	0.304
-366.727	-166.860	-0.359	-0.019
-365.712	-83.369	-0.206	-0.086
-364.698	381.184	-0.072	0.195
-363.683	423.797	-0.134	0.378
-362.669	-178.131	0.339	-0.010
-361.654	336.283	0.113	-0.287
-360.639	597.499	-0.086	-0.282
-359.625	-20.731	0.064	0.051
-358.610	-0.745	-0.203	0.188
-357.596	-62.696	0.215	-0.116
-356.581	33.428	-0.161	0.183
-355.566	-200.000	-0.070	0.497
-354.552	-68.775	-0.479	0.241
-353.537	-166.901	-0.277	0.015
-352.523	-76.789	-0.181	0.082
-351.508	-200.000	0.012	0.260
-350.493	-134.373	0.606	0.096
-349.479	-116.355	0.199	-0.048
-348.464	-200.000	-0.059	0.565
-347.450	43.589	0.384	-0.459
-346.435	-46.903	0.360	-0.229
-345.420	-38.090	-0.406	-0.281
-344.406	-153.980	-0.567	0.050
-343.391	31.677	0.202	0.227
-342.377	-76.581	0.672	-0.307
-341.362	-134.140	-0.521	0.083
-340.348	-52.070	-0.423	-0.256
-339.333	-170.181	0.546	0.025
-338.318	-200.000	-0.032	-0.272
-337.304	-65.270	-0.565	-0.296
-336.289	224.433	0.212	0.450
-335.275	-145.386	-0.563	0.066
-334.260	123.194	0.012	0.019
-333.245	-177.361	0.382	-0.012
-332.231	-54.782	0.311	-0.183
-331.216	-200.000	-0.006	0.146
-330.202	-127.906	-0.077	0.014
-329.187	-108.091	-0.312	0.088
-328.172	-70.603	-0.413	-0.203
-327.158	-200.000	0.055	-0.505
-326.143	-10.009	0.204	-0.177
-325.129	-176.806	0.446	-0.015
-324.114	356.631	0.041	0.107
-323.099	-96.882	0.335	-0.114
-322.085	83.461	-0.211	-0.301
-321.070	800.000	0.048	0.209
-320.056	-106.678	0.346	0.100
-319.041	-73.370	0.104	-0.049
-318.026	-117.373	-0.281	-0.066
-317.012	558.870	-0.062	-0.197
-315.997	800.000	-0.095	-0.478
-314.983	-118.204	0.303	0.070
-313.968	-200.000	-0.008	-0.108
-312.953	-57.124	0.252	0.145
-311.939	-19.719	-0.257	-0.207
-310.924	326.986	-0.054	-0.135
-309.910	-113.274	0.253	-0.064
-308.895	-117.099	0.306	0.072
-307.880	-130.682	-0.543	-0.094
-306.866	143.009	0.152	0.263
-305.851	614.375	0.035	0.114
-304.837	-44.371	0.187	0.122
-303.822	-200.000	0.045	0.515
-302.807	800.000	0.044	0.219
-301.793	-5.397	0.357	0.319
-300.778	-41.357	-0.147	-0.099
-299.764	488.974	-0.127	0.380
-298.749	-11.066	-0.112	-0.096
-297.735	397.968	-0.105	-0.287
-296.720	-200.000	-0.054	-0.414
-295.705	686.459	0.054	0.187
-294.691	-2.094	0.338	-0.310
-293.676	-182.216	0.341	0.008
-292.662	-70.571	-0.383	0.188
-291.647	-88.641	0.126	-0.049
-290.632	-200.000	0.029	0.365
-289.618	212.166	0.067	-0.138
-288.603	-152.581	0.334	0.031
-287.589	-119.342	-0.455	0.102
-286.574	-200.000	0.029	-0.246
-285.559	800.000	0.073	-0.366
-284.545	284.912	-0.224	-0.528
-283.530	800.000	-0.173	-0.659
-282.516	-140.555	0.619	0.083
-281.501	-68.332	-0.208	0.105
-280.486	-163.500	0.291	0.018
-279.472	227.964	0.051	0.109
-278.457	800.000	-0.064	-0.249
-277.443	344.044	0.011	-0.028
-276.428	202.910	-0.232	0.468
-275.413	109.165	-0.039	0.062
-274.399	-97.868	0.272	-0.091
-273.384	10.163	-0.319	0.315
-272.370	108.660	0.091	-0.142
-271.355	-150.025	-0.159	0.016
-270.340	-48.771	0.491	-0.306
-269.326	83.736	-0.217	-0.308
-268.311	-53.701	-0.270	-0.160
-267.297	-14.419	-0.295	-0.247
-266.282	-200.000	-0.018	0.127
-265.267	-78.712	-0.563	-0.249
-264.253	800.000	-0.104	-0.380
-263.238	407.600	-0.232	-0.641
-262.224	-200.000	-0.022	-0.337
-261.209	34.218	0.077	-0.088
-260.195	-200.000	0.044	0.675
-259.180	85.015	-0.200	0.285
-258.165	-168.657	-0.031	-0.002
-257.151	-200.000	0.008	0.266
-256.136	-149.583	-0.217	0.022
-255.122	-145.306	0.308	-0.036
-254.107	307.070	0.171	-0.417
-253.092	-37.716	-0.154	0.106
-252.078	-169.734	0.063	0.003
-251.063	-1.300	-0.066	-0.060
-250.049	142.679	0.151	-0.262
-249.034	-19.875	-0.398	0.320
-248.019	415.402	0.087	-0.244
-247.005	-130.757	-0.254	-0.044
-245.990	-77.714	-0.397	-0.178
-244.976	-40.373	0.589	0.397
-243.961	-86.094	0.114	0.046
-242.946	635.588	-0.142	-0.472
-241.932	-116.678	0.634	0.150
-240.917	314.594	-0.060	-0.148
-239.903	-164.133	-0.147	0.009
-238.888	-200.000	0.034	0.434
-237.873	-130.394	-0.426	0.074
-236.859	730.209	-0.026	-0.091
-235.844	25.271	-0.317	0.342
-234.830	-200.000	0.039	-0.274
-233.815	57.566	-0.252	-0.321
-232.800	134.672	-0.226	0.382
-231.786	-81.242	-0.342	0.146
-230.771	13.427	0.013	0.013
-229.757	722.580	-0.081	0.283
-228.742	-107.343	-0.179	0.051
-227.727	-104.519	0.482	0.144
-226.713	-123.992	0.500	0.101
-225.698	-62.047	-0.252	-0.136
-224.684	-140.204	-0.350	-0.047
-223.669	361.474	0.112	0.292
-222.655	-160.838	-0.332	0.022
-221.640	-200.000	0.072	-0.431
-220.625	-161.665	0.218	-0.014
-219.611	-132.619	0.245	-0.040
-218.596	2.735	-0.360	-0.339
-217.582	-13.408	0.245	0.206
-216.567	-200.000	0.007	0.572
-215.552	176.727	-0.165	0.313
-214.538	124.795	0.190	-0.311
-213.523	538.181	-0.173	-0.536
-212.509	800.000	0.087	0.389
-211.494	37.798	-0.320	-0.369
-210.479	-200.000	0.045	0.396
-209.465	-200.000	-0.017	-0.398
-208.450	553.038	-0.034	-0.108
-207.436	-174.798	-0.339	-0.012
-206.421	-144.639	0.259	0.031
-205.406	-83.494	0.323	0.134
-204.392	-87.174	-0.321	0.126
-203.377	-48.810	0.378	-0.235
-202.363	77.336	0.270	-0.373
-201.348	-45.902	0.248	-0.158
-200.333	-12.135	-0.111	0.094
-199.319	19.281	0.076	0.079
-198.304	-113.127	-0.458	-0.116
-197.290	-110.875	0.378	-0.100
-196.275	-47.938	-0.259	-0.162
-195.260	-200.000	-0.005	0.176
-194.246	20.277	0.121	0.127
-193.231	-121.282	0.155	0.033
-192.217	-200.000	-0.014	0.123
-191.202	-34.576	0.132	0.093
-190.187	800.000	0.074	-0.335
-189.173	33.088	0.207	-0.233
-188.158	21.536	-0.405	-0.427
-187.144	-67.237	0.636	-0.324
-186.129	800.000	0.062	-0.321
-185.114	-200.000	-0.008	-0.143
-184.100	800.000	0.130	0.540
-183.085	-2.980	-0.251	0.227
-182.071	-5.624	-0.071	-0.063
-181.056	-47.741	-0.426	0.267
-180.042	-49.102	-0.377	0.233
-179.027	-200.000	0.049	0.292
-178.012	-56.357	-0.030	-0.017
-176.998	800.000	-0.043	0.170
-175.983	-106.478	0.379	0.109
-174.969	53.567	0.156	-0.195
-173.954	175.528	0.148	0.280
-172.939	3.714	0.167	0.158
-171.925	-139.372	0.785	-0.108
-170.910	-87.195	-0.198	0.078
-169.896	109.584	-0.088	0.137
-168.881	-45.584	-0.361	0.231
-167.866	800.000	-0.033	-0.165
-166.852	-200.000	0.026	-0.406
-165.837	13.894	0.207	-0.209
-164.823	-93.867	-0.328	0.116
-163.808	-88.944	0.104	-0.040
-162.793	-164.879	-0.260	-0.015
-161.779	-127.874	-0.195	-0.036
-160.764	681.595	0.106	-0.362
-159.750	-200.000	-0.043	0.296
-158.735	-109.316	-0.406	-0.111
-157.720	76.561	0.276	0.380
-156.706	65.914	-0.233	0.307
-155.691	-200.000	-0.032	-0.358
-154.677	-98.360	0.086	0.028
-153.662	800.000	0.003	-0.013
-152.647	-141.152	0.076	0.010
-151.633	-100.089	0.068	0.022
-150.618	-20.005	0.408	0.326
-149.604	61.423	0.233	0.301
-148.589	-25.438	-0.171	0.131
-147.574	127.645	-0.111	-0.183
-146.560	188.028	0.100	-0.194
-145.545	-84.723	0.805	-0.327
-144.531	311.983	0.117	0.285
-143.516	-48.401	0.254	-0.158
-142.502	-77.718	-0.487	0.217
-141.487	-112.816	0.334	0.085
-140.472	-200.000	-0.007	-0.132
-139.458	-200.000	0.011	-0.386
-138.443	314.376	0.076	-0.186
-137.429	17.621	0.442	-0.455
-136.414	117.809	0.121	-0.194
-135.399	-52.765	-0.301	-0.179
-134.385	313.325	0.026	-0.064
-133.370	217.523	0.112	0.233
-132.356	-151.095	-0.335	0.032
-131.341	18.633	-0.451	-0.467
-130.326	-41.346	0.316	0.210
-129.312	-200.000	-0.008	-0.132
-128.297	155.062	-0.085	0.152
-127.283	-48.253	0.136	0.085
-126.268	-200.000	0.043	-0.410
-125.253	118.877	-0.265	-0.424
-124.239	12.592	-0.246	-0.246
-123.224	-143.660	0.161	0.020
-122.210	-200.000	-0.021	-0.246
-121.195	-81.254	0.284	0.121
-120.180	-200.000	-0.041	0.556
-119.166	-200.000	-0.061	0.614
-118.151	124.606	0.205	-0.335
-117.137	-146.923	0.168	-0.019
-116.122	-84.481	-0.134	-0.054
-115.107	34.790	0.136	0.154
-114.093	28.957	0.128	-0.141
-113.078	-153.610	-0.584	0.051
-112.064	-189.813	-0.398	0.006
-111.049	-128.171	0.167	-0.031
-110.034	-109.035	0.413	0.113
-109.020	84.051	0.325	0.460
-108.005	62.798	-0.228	-0.295
-106.991	-43.818	0.296	0.193
-105.976	-134.145	0.243	-0.038
-104.962	-179.594	-0.658	0.018
-103.947	392.307	-0.109	-0.294
-102.932	-127.040	0.504	-0.095
-101.918	-57.315	-0.229	-0.130
-100.903	337.905	0.139	0.352
-99.889	-62.623	-0.082	0.044
-98.874	800.000	0.053	0.205
-97.859	-124.493	0.207	-0.041
-96.845	800.000	-0.116	0.456
-95.830	-176.178	-0.537	0.018
-94.816	-200.000	-0.030	-0.193
-93.801	120.345	-0.188	-0.302
-92.786	-146.908	0.507	-0.056
-91.772	800.000	0.065	0.294
-90.757	-101.555	-0.541	0.169
-89.743	800.000	0.063	0.317
-88.728	562.160	0.063	-0.199
-87.713	-48.866	0.479	-0.296
-86.699	339.803	-0.270	-0.685
-85.684	140.305	0.059	0.101
-84.670	-26.752	-0.152	-0.115
-83.655	-200.000	-0.057	-0.437
-82.640	-200.000	0.049	-0.381
-81.626	-200.000	-0.039	-0.509
-80.611	-93.885	-0.375	0.133
-79.597	-152.985	-0.427	-0.038
-78.582	2.699	0.172	0.161
-77.567	-77.284	0.299	0.134
-76.553	-40.328	-0.060	-0.040
-75.538	-99.315	0.356	0.115
-74.524	12.134	-0.556	0.553
-73.509	258.275	-0.199	-0.444
-72.494	209.114	0.222	-0.450
-71.480	-54.808	-0.211	0.123
-70.465	-23.956	-0.298	-0.230
-69.451	18.304	-0.298	0.307
-68.436	53.883	0.105	-0.131
-67.422	-105.123	0.049	0.014
-66.407	386.551	0.169	-0.454
-65.392	-200.000	-0.039	-0.295
-64.378	-104.066	0.150	-0.045
-63.363	-11.863	-0.184	0.156
-62.349	-200.000	-0.011	0.144
-61.334	14.651	-2.595	-2.618
-60.319	202.718	0.826	1.654
-59.305	255.066	-3.522	-7.820
-58.290	50.552	4.100	5.013
-57.276	402.641	3.683	10.049
-56.261	-200.000	22.463	315.732
-55.246	361.860	1291.061	3359.430
-54.232	53.110	2844.737	3519.853
-53.217	51.788	2664.381	3276.134
-52.203	32.758	2394.556	2676.087
-51.188	28.552	2059.679	2250.024
-50.173	25.187	1945.454	2085.891
-49.159	24.184	1933.528	2061.373
-48.144	23.654	1930.008	2051.385
-47.130	23.580	1927.789	2048.079
-46.115	23.682	1925.071	2046.290
-45.100	23.566	1924.445	2044.206
-44.086	23.464	1923.180	2041.601
-43.071	23.556	1920.753	2040.002
-42.057	23.592	1919.152	2038.643
-41.042	23.600	1918.438	2037.895
-40.027	23.588	1916.319	2035.426
-39.013	23.631	1915.339	2034.791
-37.998	23.654	1913.247	2032.761
-36.984	23.527	1912.370	2030.289
-35.969	23.599	1911.094	2029.675
-34.954	23.568	1910.135	2028.221
-33.940	23.434	1909.525	2025.949
-32.925	23.569	1907.030	2024.771
-31.911	23.414	1906.785	2022.653
-30.896	23.470	1905.344	2021.688
-29.881	23.427	1904.006	2019.700
-28.867	23.446	1902.181	2017.903
-27.852	23.558	1900.547	2017.370
-26.838	23.432	1898.599	2013.775
-25.823	23.375	1898.013	2012.433
-24.809	23.396	1897.285	2011.819
-23.794	23.385	1895.531	2009.753
-22.779	23.311	1894.348	2007.573
-21.765	23.400	1891.807	2005.812
-20.750	23.434	1891.761	2006.072
-19.736	23.341	1890.539	2003.644
-18.721	23.363	1889.737	2002.963
-17.706	23.414	1888.089	2001.708
-16.692	23.339	1886.555	1999.156
-15.677	23.230	1885.872	1997.115
-14.663	23.264	1885.297	1996.815
-13.648	23.211	1882.870	1993.569
-12.633	23.276	1881.869	1993.160
-11.619	23.313	1880.302	1991.845
-10.604	23.263	1879.043	1989.861
-9.590	23.109	1878.998	1987.999
-8.575	23.296	1876.743	1987.639
-7.560	23.195	1876.555	1986.220
-6.546	23.143	1874.472	1983.350
-5.531	23.177	1873.782	1982.925
-4.517	23.224	1872.941	1982.490
-3.502	23.118	1872.127	1980.355
-2.487	23.233	1870.171	1979.495
-1.473	23.414	1866.118	1977.157
-0.458	23.119	1848.835	1955.499
0.556	19.800	1995.496	2058.635
1.571	18.459	2199.348	2250.975
2.586	19.210	2238.180	2300.528
3.600	19.184	2241.570	2303.390
4.615	19.149	2240.537	2301.580
5.629	19.128	2238.518	2298.946
6.644	19.087	2236.596	2296.151
7.659	19.071	2235.200	2294.225
8.673	19.244	2232.870	2293.870
9.688	19.005	2241.313	2299.063
10.702	18.201	2321.974	2370.326
11.717	16.696	2386.450	2414.297
12.731	8.047	2365.651	2269.595
13.746	1.075	2347.469	2152.591
14.761	0.134	2343.623	2135.381
15.775	0.049	2341.845	2132.303
16.790	0.113	2340.043	2131.311
17.804	-0.041	2339.193	2128.094
18.819	-0.008	2337.860	2127.090
19.834	-0.030	2336.611	2125.389
20.848	-0.121	2335.631	2122.950
21.863	0.004	2332.929	2122.018
22.877	0.060	2331.513	2121.268
23.892	0.026	2328.967	2118.218
24.907	-0.056	2326.687	2114.731
25.921	-0.014	2325.868	2114.334
26.936	0.016	2322.988	2111.883
27.950	-0.028	2319.973	2108.258
28.965	-0.049	2317.941	2105.873
29.980	0.099	2316.534	2106.425
30.994	0.132	2314.817	2105.080
32.009	4.255	2327.264	2174.332
33.023	13.732	2355.430	2335.039
34.038	17.685	2360.860	2396.105
35.053	17.732	2358.246	2393.820
36.067	17.711	2356.001	2390.964
37.082	17.710	2353.815	2388.441
38.096	17.813	2351.903	2387.665
39.111	17.957	2349.978	2387.448
40.126	18.045	2347.945	2386.328
41.140	18.108	2345.770	2384.715
42.155	18.134	2345.018	2384.031
43.169	18.146	2342.949	2381.807
44.184	18.054	2338.904	2376.133
45.199	17.821	2337.787	2371.459
46.213	17.976	2336.317	2371.841
47.228	18.064	2335.645	2372.103
48.242	17.960	2335.144	2369.868
49.257	18.094	2333.016	2369.282
50.271	18.328	2328.921	2368.092
51.286	18.101	2326.907	2362.611
52.301	17.757	2324.472	2355.090
53.315	18.612	2328.315	2370.576
54.330	21.333	2334.480	2414.407
55.344	22.938	2336.307	2438.293
56.359	23.225	2332.830	2438.348
57.374	23.237	2332.145	2437.506
58.388	23.377	2329.755	2436.653
59.403	23.136	2325.013	2428.071
60.417	22.837	2320.888	2419.364
61.432	22.948	2320.185	2419.857
62.447	23.068	2319.217	2420.214
63.461	23.257	2317.960	2421.217
64.476	23.360	2315.856	2420.139
65.490	23.121	2313.351	2413.950
66.505	22.313	2309.916	2399.008
67.520	20.383	2302.260	2364.385
68.534	18.507	2293.986	2330.004
69.549	17.920	2289.948	2317.610
70.563	17.926	2287.850	2315.298
71.578	18.041	2286.198	2314.912
72.593	18.084	2283.969	2312.954
73.607	18.111	2283.253	2312.328
74.622	18.135	2280.611	2309.702
75.636	17.997	2276.805	2303.700
76.651	17.866	2275.615	2300.445
77.666	17.948	2273.450	2299.083
78.680	17.929	2270.736	2295.808
79.695	17.810	2268.509	2291.672
80.709	17.691	2268.016	2289.298
81.724	17.648	2266.113	2286.529
82.739	17.645	2263.040	2283.107
83.753	17.708	2260.079	2280.695
84.768	17.600	2259.837	2278.732
85.782	17.595	2258.214	2276.755
86.797	17.483	2256.520	2273.263
87.812	17.516	2255.062	2271.972
88.826	17.750	2253.202	2272.954
89.841	17.790	2249.520	2269.501
90.855	17.737	2247.131	2266.119
91.870	17.855	2246.087	2266.371
92.884	17.795	2245.134	2264.340
93.899	17.804	2243.532	2262.571
94.914	18.354	2245.987	2272.108
95.928	20.642	2252.939	2309.436
96.943	21.510	2250.302	2318.029
97.957	19.290	2240.768	2278.462
98.972	17.907	2236.659	2255.652
99.987	17.831	2233.244	2250.932
101.001	17.781	2230.360	2247.089
102.016	17.730	2228.370	2244.150
103.030	17.791	2224.873	2241.163
104.045	17.721	2222.550	2237.636
105.060	17.630	2221.035	2234.636
106.074	17.672	2219.779	2233.665
107.089	17.738	2218.118	2232.586
108.103	17.792	2216.399	2231.302
109.118	17.865	2214.801	2230.380
110.133	17.850	2213.982	2229.092
111.147	17.861	2211.177	2226.149
112.162	17.778	2210.038	2223.650
113.176	17.866	2208.657	2223.144
114.191	17.976	2206.444	2222.087
115.206	17.977	2204.803	2220.188
116.220	17.982	2203.076	2218.241
117.235	17.999	2200.875	2215.984
118.249	18.020	2199.024	2214.136
119.264	17.970	2197.410	2211.595
120.279	17.887	2194.905	2207.726
121.293	17.911	2193.665	2206.524
122.308	17.899	2192.469	2204.897
123.322	17.851	2191.067	2202.604
124.337	18.311	2192.072	2209.324
125.352	20.787	2199.276	2248.492
126.366	21.324	2196.897	2252.760
127.381	18.937	2187.050	2211.567
128.395	17.989	2181.074	2193.034
129.410	17.689	2180.351	2188.171
130.424	17.697	2178.549	2186.195
131.439	17.856	2177.338	2186.771
132.454	17.986	2175.124	2185.963
133.468	18.037	2173.087	2184.304
134.483	18.160	2171.069	2183.590
135.497	18.088	2170.432	2181.772
136.512	18.045	2168.089	2178.600
137.527	18.025	2164.845	2174.819
138.541	17.909	2164.657	2172.892
139.556	17.847	2163.360	2170.539
140.570	17.793	2162.678	2168.909
141.585	17.833	2160.155	2166.625
142.600	17.840	2158.337	2164.626
143.614	17.798	2157.109	2162.609
144.629	17.704	2153.687	2157.720
145.643	17.650	2154.048	2157.139
146.658	17.732	2152.210	2156.083
147.673	17.680	2149.668	2152.614
148.687	17.726	2148.168	2151.444
149.702	17.702	2148.398	2151.102
150.716	17.717	2147.410	2150.045
151.731	17.664	2146.987	2148.693
152.746	17.876	2143.980	2148.108
153.760	18.459	2146.541	2157.803
154.775	20.953	2153.202	2195.858
155.789	21.714	2151.763	2203.748
156.804	19.524	2140.762	2164.648
157.819	17.951	2134.715	2138.497
158.833	17.867	2131.802	2134.261
159.848	17.737	2129.466	2130.034
160.862	17.806	2129.379	2130.558
161.877	17.906	2127.511	2129.696
162.892	18.005	2126.672	2129.837
163.906	17.779	2125.920	2126.003
164.921	17.866	2123.131	2124.048
165.935	17.844	2121.184	2121.570
166.950	18.008	2120.163	2122.335
167.964	17.983	2118.169	2119.782
168.979	17.955	2115.218	2116.222
169.994	17.860	2113.288	2112.857
171.008	17.861	2111.713	2111.039
172.023	17.717	2110.576	2107.862
173.037	17.799	2109.868	2107.925
174.052	17.939	2107.969	2107.501
175.067	17.941	2106.820	2106.135
176.081	17.916	2106.080	2104.829
177.096	17.907	2104.655	2103.035
178.110	17.929	2103.248	2101.653
179.125	17.927	2101.538	2099.667
180.140	17.921	2099.555	2097.363
181.154	17.895	2098.504	2095.747
182.169	18.100	2097.740	2097.259
183.183	18.783	2099.717	2107.414
184.198	21.338	2106.759	2145.800
185.213	21.887	2103.688	2149.175
186.227	19.176	2094.186	2105.933
187.242	18.132	2090.321	2088.981
188.256	17.858	2088.396	2083.451
189.271	17.672	2086.488	2079.015
190.286	17.732	2084.495	2077.518
191.300	17.840	2083.463	2077.556
192.315	17.943	2080.849	2075.956
193.329	17.863	2080.554	2074.444
194.344	18.165	2079.814	2077.145
195.359	18.031	2078.994	2074.440
196.373	18.074	2075.479	2071.209
197.388	17.964	2072.440	2066.587
198.402	17.965	2070.382	2064.297
199.417	17.923	2068.563	2061.734
200.432	17.824	2067.410	2059.137
201.446	18.002	2066.665	2060.302
202.461	17.882	2064.292	2056.239
203.475	17.865	2062.065	2053.571
204.490	17.696	2060.917	2050.140
205.504	17.648	2058.429	2046.841
206.519	17.636	2056.615	2044.639
207.534	17.723	2055.203	2044.038
208.548	17.719	2054.020	2042.568
209.563	17.786	2052.919	2042.046
210.577	17.939	2051.270	2041.993
211.592	17.876	2051.143	2040.868
212.607	19.155	2055.490	2060.338
213.621	22.014	2062.353	2101.420
214.636	21.541	2056.487	2089.521
215.650	18.762	2047.571	2046.963
216.665	17.964	2043.540	2033.137
217.680	17.887	2041.554	2029.999
218.694	17.719	2040.174	2026.378
219.709	17.632	2038.250	2023.183
220.723	17.722	2037.778	2023.545
221.738	17.719	2036.215	2021.711
222.753	17.947	2033.304	2021.298
223.767	17.864	2033.153	2019.916
224.782	17.894	2030.768	2017.658
225.796	17.994	2029.593	2017.438
226.811	18.008	2028.755	2016.532
227.826	17.882	2027.076	2013.124
228.840	17.907	2024.893	2011.011
229.855	17.907	2023.406	2009.301
230.869	17.930	2022.124	2008.057
231.884	17.909	2020.479	2005.941
232.899	17.810	2019.871	2003.917
233.913	17.930	2017.665	2002.907
234.928	18.006	2016.017	2001.924
235.942	18.029	2014.023	1999.980
236.957	18.003	2012.593	1998.015
237.972	17.874	2011.416	1995.087
238.986	17.840	2011.021	1994.056
240.001	17.838	2009.521	1992.316
241.015	17.999	2007.919	1992.377
242.030	18.598	2009.869	2001.094
243.045	20.993	2014.471	2033.543
244.059	21.304	2011.365	2033.807
245.074	18.953	2003.103	1997.788
246.088	18.180	1999.298	1984.740
247.103	18.256	1997.854	1983.955
248.117	18.107	1996.064	1980.202
249.132	17.849	1995.129	1976.043
250.147	17.853	1993.175	1973.910
251.161	17.989	1991.204	1973.304
252.176	18.238	1990.590	1975.351
253.190	18.277	1988.919	1973.904
254.205	18.285	1986.835	1971.699
255.220	18.138	1985.382	1968.317
256.234	18.194	1984.809	1968.166
257.249	18.101	1983.537	1965.595
258.263	18.110	1982.264	1964.200
259.278	18.053	1981.049	1962.106
260.293	18.015	1979.253	1959.652
261.307	17.851	1976.540	1954.839
262.322	17.738	1974.499	1951.282
263.336	17.894	1973.060	1951.429
264.351	17.613	1971.682	1946.607
265.366	17.538	1970.374	1944.215
266.380	17.742	1968.603	1944.572
267.395	17.694	1967.160	1942.371
268.409	17.628	1966.157	1940.389
269.424	17.754	1963.813	1939.277
270.439	17.728	1963.978	1938.917
271.453	18.709	1965.625	1951.527
272.468	21.330	1970.723	1986.338
273.482	21.403	1967.636	1983.822
274.497	18.933	1958.382	1946.184
275.512	17.886	1953.551	1929.259
276.526	17.655	1951.997	1924.872
277.541	17.773	1949.222	1923.241
278.555	17.715	1948.353	1921.499
279.570	17.688	1947.313	1919.942
280.585	17.793	1945.455	1919.063
281.599	17.810	1944.684	1918.268
282.614	17.912	1943.719	1918.240
283.628	18.085	1943.514	1919.754
284.643	18.181	1943.002	1920.103
285.657	18.267	1941.431	1919.296
286.672	18.400	1939.543	1918.699
287.687	18.311	1937.530	1915.474
288.701	18.275	1936.421	1913.743
289.716	18.215	1934.637	1911.075
290.730	18.348	1933.414	1911.136
291.745	18.405	1932.097	1910.245
292.760	18.521	1931.178	1910.402
293.774	18.253	1930.865	1906.864
294.789	18.155	1928.885	1903.586
295.803	17.932	1926.704	1898.711
296.818	18.088	1925.498	1899.039
297.833	18.005	1924.108	1896.515
298.847	17.996	1921.939	1894.046
299.862	18.008	1921.254	1893.278
300.876	18.710	1922.685	1902.281
301.891	21.279	1928.917	1936.891
302.906	21.753	1926.242	1939.243
303.920	18.969	1917.763	1899.614
304.935	18.143	1914.173	1886.673
305.949	18.001	1911.910	1882.645
306.964	17.984	1910.061	1880.407
307.979	17.994	1908.648	1878.903
308.993	18.287	1907.452	1880.736
310.008	18.471	1906.042	1881.150
311.022	18.467	1904.873	1879.730
312.037	18.294	1903.147	1875.895
313.052	18.431	1902.915	1876.954
314.066	18.806	1901.628	1879.577
315.081	18.487	1899.704	1873.948
316.095	18.385	1897.270	1870.205
317.110	18.159	1895.571	1865.823
318.125	18.067	1894.465	1863.506
319.139	18.183	1892.894	1863.006
320.154	18.199	1891.772	1861.854
321.168	18.156	1889.524	1858.955
322.183	18.060	1888.206	1856.387
323.197	17.974	1886.359	1853.401
324.212	17.816	1884.308	1849.444
325.227	17.708	1882.853	1846.619
326.241	17.745	1880.472	1844.473
327.256	17.617	1880.565	1842.945
328.270	17.565	1880.374	1841.973
329.285	17.597	1879.769	1841.511
330.300	18.483	1883.516	1854.595
331.314	21.643	1888.501	1893.691
332.329	21.576	1882.458	1886.674
333.343	18.753	1874.239	1847.726
334.358	17.729	1870.692	1832.944
335.373	17.595	1868.865	1829.487
336.387	17.536	1867.393	1827.191
337.402	17.546	1865.580	1825.305
338.416	17.753	1864.625	1826.384
339.431	17.839	1863.672	1826.152
340.446	17.847	1862.186	1824.574
341.460	17.825	1861.428	1823.373
342.475	17.979	1860.655	1824.049
343.489	18.154	1858.423	1823.522
344.504	18.172	1857.504	1822.590
345.519	18.228	1856.334	1821.823
346.533	18.358	1854.454	1821.147
347.548	18.787	1854.558	1825.622
348.562	19.509	1854.713	1833.269
349.577	19.454	1853.934	1831.687
350.592	18.852	1850.754	1821.913
351.606	18.600	1848.548	1816.843
352.621	18.468	1846.557	1813.266
353.635	18.234	1845.542	1809.567
354.650	18.133	1843.868	1806.630
355.665	18.073	1841.851	1803.806
356.679	18.146	1840.384	1802.921
357.694	18.172	1839.463	1802.083
358.708	17.900	1838.061	1797.614
359.723	19.047	1841.995	1813.403
360.738	21.824	1847.360	1847.925
361.752	21.339	1842.003	1837.227
362.767	18.828	1834.634	1803.193
363.781	18.170	1830.632	1792.120
364.796	17.965	1830.019	1789.152
365.810	17.978	1827.897	1786.999
366.825	17.894	1826.815	1784.838
367.840	18.149	1825.736	1786.248
368.854	18.025	1825.266	1784.273
369.869	18.255	1824.800	1786.018
370.883	19.035	1824.337	1793.527
371.898	19.324	1823.005	1795.027
372.913	18.638	1820.931	1785.598
373.927	18.673	1819.896	1784.734
374.942	18.767	1819.034	1784.663
375.956	18.599	1816.929	1780.632
376.971	18.277	1814.479	1774.657
377.986	18.000	1812.572	1769.697
379.000	17.942	1811.114	1767.453
380.015	18.042	1809.334	1766.553
381.029	17.959	1807.712	1763.888
382.044	17.847	1806.604	1761.433
383.059	17.945	1803.781	1759.490
384.073	17.767	1803.025	1756.699
385.088	17.709	1802.407	1755.282
386.102	17.645	1800.296	1752.355
387.117	17.693	1799.060	1751.445
388.132	17.659	1798.454	1750.294
389.146	18.637	1802.311	1763.942
390.161	21.613	1806.496	1798.603
391.175	21.342	1799.890	1789.025
392.190	18.433	1791.992	1751.125
393.205	17.886	1788.585	1741.969
394.219	17.891	1786.241	1739.528
395.234	17.794	1785.622	1737.732
396.248	17.795	1784.771	1736.701
397.263	17.855	1782.597	1734.997
398.278	17.823	1780.931	1732.832
399.292	17.840	1779.313	1731.225
400.307	17.728	1779.260	1729.825
401.321	17.890	1777.969	1730.018
402.336	17.983	1776.186	1729.022
403.350	17.975	1774.581	1727.173
404.365	18.202	1774.692	1729.379
405.380	18.666	1774.817	1734.007
406.394	18.720	1773.378	1732.943
407.409	18.707	1771.431	1730.702
408.423	18.640	1770.129	1728.541
409.438	18.695	1768.401	1727.200
410.453	18.719	1768.214	1727.051
411.467	18.497	1766.998	1723.419
412.482	18.129	1764.437	1716.996
413.496	18.099	1763.152	1715.244
414.511	18.063	1760.844	1712.433
415.526	18.064	1758.915	1710.361
416.540	18.080	1757.400	1708.842
417.555	18.045	1756.304	1707.223
418.569	18.138	1756.493	1708.131
419.584	18.278	1756.587	1709.424
420.599	18.199	1755.355	1707.231
421.613	18.206	1753.740	1705.525
422.628	17.944	1752.678	1701.662
423.642	17.748	1751.364	1698.218
424.657	17.840	1749.065	1696.708
425.672	18.015	1747.439	1696.677
426.686	18.091	1745.946	1695.782
427.701	18.018	1744.851	1693.786
428.715	18.141	1743.569	1693.564
429.730	18.310	1741.849	1693.371
430.745	18.099	1741.755	1690.981
431.759	18.052	1741.120	1689.692
432.774	18.238	1741.235	1691.450
433.788	18.608	1741.828	1695.497
434.803	18.855	1740.465	1696.424
435.818	18.917	1739.707	1696.093
436.832	18.803	1738.922	1694.001
437.847	17.914	1732.632	1678.880
438.861	10.103	1711.261	1581.454
439.876	1.743	1696.072	1485.509
440.890	0.231	1692.265	1467.194
441.905	0.159	1690.356	1464.658
442.920	0.231	1689.002	1464.017
443.934	0.152	1688.152	1462.334
444.949	0.100	1687.285	1460.893
445.963	0.051	1686.544	1459.607
446.978	0.064	1686.248	1459.300
447.993	0.028	1684.924	1457.630
449.007	0.104	1682.292	1455.914
450.022	0.055	1680.553	1453.758
451.036	0.142	1678.556	1452.708
452.051	1.168	1683.243	1466.567
453.066	9.275	1701.157	1561.397
454.080	17.349	1713.793	1651.930
455.095	18.853	1716.553	1669.093
456.109	19.297	1716.001	1672.688
457.124	19.634	1714.998	1674.798
458.139	19.685	1714.101	1674.212
459.153	19.658	1714.501	1674.142
460.168	19.738	1712.394	1672.665
461.182	19.732	1710.330	1670.382
462.197	19.605	1708.845	1667.508
463.212	19.611	1706.891	1665.461
464.226	19.747	1705.625	1665.335
465.241	19.818	1705.106	1665.319
466.255	19.896	1704.557	1665.338
467.270	19.912	1703.051	1663.827
468.285	19.623	1700.807	1658.645
469.299	19.547	1700.045	1656.969
470.314	19.713	1697.955	1656.334
471.328	19.908	1696.204	1656.301
472.343	19.775	1696.131	1654.754
473.358	19.854	1694.922	1654.134
474.372	19.768	1693.599	1651.818
475.387	19.512	1692.510	1648.099
476.401	19.530	1690.319	1645.943
477.416	19.531	1688.978	1644.454
478.430	19.604	1688.424	1644.413
479.445	19.557	1686.871	1642.252
480.460	19.476	1685.157	1639.615
481.474	19.582	1684.397	1639.688
482.489	19.847	1683.270	1640.921
483.503	19.957	1681.940	1640.484
484.518	19.887	1681.836	1639.515
485.533	19.818	1679.779	1636.658
486.547	19.924	1678.108	1635.837
487.562	20.101	1676.959	1636.208
488.576	20.017	1675.889	1634.165
489.591	19.884	1674.838	1631.687
490.606	19.869	1672.656	1629.223
491.620	19.806	1671.908	1627.708
492.635	20.134	1670.378	1629.123
493.649	20.415	1669.360	1630.584
494.664	19.994	1667.596	1624.695
495.679	19.583	1665.752	1618.834
496.693	19.592	1664.960	1617.958
497.708	19.864	1664.283	1619.659
498.722	20.116	1663.312	1620.891
499.737	20.256	1661.753	1620.499
500.752	19.902	1660.317	1615.584
501.766	19.781	1658.716	1612.697
502.781	19.929	1657.587	1612.788
503.795	20.010	1655.841	1611.652
504.810	19.955	1655.159	1610.285
505.825	20.075	1654.900	1610.965
506.839	20.161	1653.079	1609.797
507.854	20.144	1652.376	1608.763
508.868	20.112	1650.719	1606.656
509.883	20.166	1648.522	1604.830
510.898	20.255	1648.064	1605.022
511.912	20.127	1646.519	1602.139
512.927	19.864	1645.286	1598.301
513.941	19.890	1643.526	1596.638
514.956	19.828	1641.026	1593.445
515.971	19.702	1640.540	1591.617
516.985	19.854	1639.579	1591.904
518.000	19.943	1638.984	1591.958
519.014	20.065	1638.734	1592.648
520.029	20.208	1637.190	1592.275
521.043	20.211	1635.685	1590.655
522.058	20.202	1633.939	1588.679
523.073	20.392	1633.521	1589.835
524.087	20.600	1632.965	1591.017
525.102	20.533	1630.857	1588.159
526.116	20.248	1629.165	1583.698
527.131	20.078	1628.657	1581.454
528.146	20.345	1628.473	1583.544
529.160	20.500	1627.252	1583.578
530.175	20.419	1625.837	1581.274
531.189	20.528	1625.192	1581.452
532.204	20.506	1623.786	1579.694
533.219	20.385	1621.561	1576.239
534.233	20.119	1620.669	1572.759
535.248	20.368	1619.790	1573.982
536.262	20.501	1619.508	1574.732
537.277	20.450	1617.869	1572.486
538.292	20.262	1615.257	1568.054
539.306	20.138	1614.114	1565.633
540.321	20.206	1612.542	1564.532
541.335	20.140	1611.293	1562.537
542.350	20.373	1609.606	1562.828
543.365	20.493	1608.762	1562.905
544.379	20.509	1607.736	1561.864
545.394	20.439	1606.930	1560.261
546.408	20.161	1605.179	1555.863
547.423	20.084	1603.289	1553.152
548.438	20.189	1601.943	1552.608
549.452	20.290	1601.727	1553.125
550.467	20.366	1600.164	1552.107
551.481	20.314	1599.378	1550.690
552.496	20.627	1598.710	1552.661
553.511	20.796	1598.196	1553.497
554.525	20.724	1597.452	1551.946
555.540	20.744	1597.024	1551.520
556.554	20.884	1595.005	1550.621
557.569	20.835	1593.276	1548.319
558.583	20.643	1592.002	1545.186
559.598	20.483	1590.544	1542.151
560.613	20.696	1589.411	1542.774
561.627	20.719	1588.358	1541.766
562.642	20.646	1587.532	1540.133
563.656	20.956	1586.412	1541.618
564.671	21.023	1584.790	1540.449
565.686	20.846	1583.602	1537.539
566.700	20.638	1581.575	1533.545
567.715	20.572	1579.810	1531.068
568.729	20.265	1578.423	1526.828
569.744	20.048	1576.504	1522.866
570.759	20.063	1575.534	1521.881
571.773	20.149	1575.146	1522.089
572.788	20.430	1574.349	1523.614
573.802	20.726	1572.683	1524.421
574.817	20.729	1571.841	1523.453
575.832	20.857	1571.206	1523.779
576.846	20.945	1569.288	1522.503
577.861	20.781	1567.950	1519.589
578.875	20.962	1567.924	1520.966
579.890	21.056	1566.945	1520.660
580.905	21.090	1565.690	1519.555
581.919	21.094	1565.404	1519.137
582.934	21.278	1564.839	1520.012
583.948	21.208	1563.463	1517.884
584.963	21.029	1562.093	1514.809
585.978	20.786	1560.666	1511.128
586.992	20.810	1560.682	1511.171
588.007	20.953	1559.230	1510.824
589.021	20.585	1556.859	1505.150
590.036	20.231	1554.469	1499.583
591.051	20.506	1553.772	1501.118
592.065	20.673	1553.157	1501.790
593.080	20.899	1550.830	1501.319
594.094	20.971	1549.520	1500.496
595.109	20.663	1547.855	1496.041
596.123	20.366	1546.191	1491.690
597.138	20.838	1546.297	1495.685
598.153	21.045	1544.875	1495.920
599.167	20.968	1543.920	1494.154
600.182	21.092	1543.445	1494.579
601.196	21.205	1542.291	1494.254
602.211	21.014	1541.035	1491.215
603.226	21.306	1539.367	1491.937
604.240	21.248	1538.598	1490.514
605.255	21.429	1537.281	1490.608
606.269	21.404	1536.110	1489.079
607.284	21.319	1534.961	1487.061
608.299	21.083	1534.610	1484.528
609.313	21.070	1532.982	1482.658
610.328	21.119	1531.774	1481.730
611.342	21.166	1530.373	1480.601
612.357	21.350	1530.099	1481.732
613.372	21.380	1528.505	1480.259
614.386	21.233	1527.447	1477.809
615.401	21.317	1526.893	1477.813
616.415	21.190	1527.063	1476.715
617.430	21.430	1525.303	1476.876
618.445	21.432	1523.621	1475.088
619.459	21.278	1522.876	1472.888
620.474	20.879	1520.948	1467.471
621.488	20.573	1518.303	1462.152
622.503	20.286	1517.476	1458.755
623.518	20.582	1517.443	1461.053
624.532	21.033	1517.190	1464.444
625.547	21.429	1515.484	1465.960
626.561	21.529	1515.402	1466.543
627.576	21.692	1514.236	1466.613
628.591	21.132	1511.407	1458.990
629.605	20.691	1510.475	1454.214
630.620	20.577	1508.597	1451.277
631.634	20.292	1507.439	1447.600
632.649	20.529	1506.626	1448.626
633.663	20.696	1505.983	1449.235
634.678	20.973	1505.647	1451.056
635.693	21.547	1504.024	1454.117
636.707	21.445	1503.412	1452.497
637.722	21.676	1502.513	1453.383
638.736	21.903	1501.035	1453.673
639.751	21.852	1500.359	1452.414
640.766	21.660	1498.768	1449.105
641.780	21.766	1497.308	1448.400
642.795	21.664	1496.411	1446.512
643.809	21.705	1495.915	1446.200
644.824	21.573	1495.177	1444.222
645.839	21.607	1493.745	1442.946
646.853	21.669	1492.688	1442.261
647.868	21.723	1490.760	1440.675
648.882	21.587	1489.871	1438.520
649.897	21.481	1488.316	1435.973
650.912	21.486	1486.897	1434.475
651.926	21.403	1486.162	1432.905
652.941	21.112	1484.241	1428.494
653.955	20.864	1481.693	1423.827
654.970	20.660	1479.309	1419.694
655.985	20.660	1478.050	1418.314
656.999	20.662	1477.452	1417.589
658.014	20.964	1475.884	1418.386
659.028	21.089	1475.766	1419.127
660.043	21.148	1475.955	1419.622
661.058	21.346	1474.870	1420.023
662.072	21.507	1474.170	1420.492
663.087	21.474	1473.202	1419.121
664.101	21.381	1472.453	1417.469
665.116	21.631	1470.787	1417.733
666.131	21.632	1470.541	1417.334
667.145	21.642	1469.495	1416.240
668.160	21.867	1468.396	1416.834
669.174	22.069	1466.454	1416.427
670.189	22.015	1465.595	1414.993
671.204	21.698	1464.544	1411.247
672.218	21.575	1463.860	1409.420
673.233	22.071	1462.770	1412.209
674.247	22.030	1462.228	1411.185
675.262	22.234	1461.139	1411.617
676.276	22.091	1459.970	1409.163
677.291	21.854	1459.254	1406.392
678.306	21.698	1457.337	1403.120
679.320	21.659	1456.453	1401.788
680.335	21.944	1456.308	1403.773
681.349	22.059	1455.300	1403.554
682.364	22.004	1453.633	1401.344
683.379	21.936	1452.409	1399.450
684.393	21.945	1451.160	1398.150
685.408	22.010	1450.529	1397.893
686.422	21.935	1449.053	1395.708
687.437	21.922	1448.837	1395.223
688.452	22.151	1447.919	1396.003
689.466	21.966	1446.112	1392.621
690.481	21.907	1444.623	1390.546
691.495	21.500	1443.094	1385.674
692.510	20.955	1440.413	1378.600
693.525	20.788	1438.687	1375.457
694.539	21.007	1438.576	1376.924
695.554	21.642	1439.342	1382.532
696.568	21.978	1439.002	1384.704
697.583	22.041	1438.725	1384.769
698.598	22.057	1437.696	1383.740
699.612	22.322	1435.985	1384.026
700.627	22.250	1435.464	1382.790
701.641	22.136	1433.778	1380.095
702.656	22.115	1432.365	1378.408
703.671	22.353	1432.723	1380.467
704.685	22.259	1431.949	1378.810
705.700	22.220	1430.444	1376.894
706.714	22.028	1428.874	1373.710
707.729	21.891	1426.820	1370.495
708.744	21.705	1425.456	1367.556
709.758	21.652	1423.299	1364.911
710.773	21.322	1422.201	1361.110
711.787	21.257	1420.235	1358.555
712.802	21.435	1419.122	1358.724
713.816	21.545	1419.798	1360.065
714.831	21.938	1419.070	1362.269
715.846	22.085	1417.684	1361.920
716.860	22.221	1416.260	1361.455
717.875	22.250	1415.505	1360.789
718.889	22.211	1414.860	1359.701
719.904	22.139	1414.206	1358.353
720.919	22.200	1413.347	1357.841
721.933	22.365	1412.389	1358.032
722.948	22.390	1411.401	1357.114
723.962	22.288	1410.962	1355.740
724.977	22.341	1409.820	1354.895
725.992	22.495	1408.027	1354.195
727.006	22.461	1406.440	1352.245
728.021	22.536	1405.386	1351.648
729.035	22.471	1404.352	1349.992
730.050	22.565	1402.855	1349.118
731.065	22.444	1402.394	1347.577
732.079	22.474	1401.719	1346.997
733.094	22.467	1399.992	1345.122
734.108	22.331	1398.876	1342.848
735.123	22.422	1397.364	1341.937
736.138	22.422	1396.515	1340.956
737.152	22.517	1395.350	1340.402
738.167	22.630	1395.140	1340.903
739.181	22.615	1394.378	1339.899
740.196	22.697	1393.160	1339.192
741.211	22.593	1392.230	1337.347
742.225	22.421	1391.314	1334.995
743.240	22.370	1390.034	1333.221
744.254	22.467	1388.416	1332.243
745.269	22.540	1387.623	1331.879
746.284	22.522	1385.988	1330.012
747.298	22.157	1384.866	1326.011
748.313	21.849	1383.081	1321.813
749.327	21.434	1381.459	1316.963
750.342	21.073	1379.814	1312.506
751.356	20.798	1378.824	1309.328
752.371	21.041	1378.582	1310.778
753.386	21.803	1378.972	1316.746
754.400	22.326	1378.737	1320.308
755.415	22.497	1378.401	1321.123
756.429	22.631	1376.941	1320.573
757.444	22.470	1375.512	1317.836
758.459	22.488	1374.867	1317.196
759.473	22.657	1374.089	1317.560
760.488	22.884	1372.284	1317.374
761.502	22.849	1370.951	1315.676
762.517	22.675	1369.808	1313.120
763.532	22.521	1367.535	1309.629
764.546	22.250	1366.039	1306.019
765.561	21.641	1365.189	1300.505
766.575	21.139	1363.625	1295.117
767.590	21.270	1362.226	1294.610
768.605	21.611	1362.056	1296.827
769.619	21.974	1361.766	1299.102
770.634	22.187	1360.911	1299.713
771.648	22.741	1359.971	1302.775
772.663	22.694	1359.518	1301.829
773.678	22.847	1358.948	1302.266
774.692	22.994	1357.655	1301.959
775.707	22.837	1357.691	1300.676
776.721	22.721	1357.105	1299.100
777.736	22.919	1355.678	1299.045
778.751	22.846	1354.662	1297.377
779.765	22.809	1353.849	1296.168
780.780	22.708	1352.751	1294.218
781.794	22.620	1351.616	1292.325
782.809	22.629	1350.589	1291.257
783.824	22.460	1349.131	1288.469
784.838	22.211	1345.786	1283.286
785.853	21.351	1344.873	1275.960
786.867	21.647	1345.203	1278.286
787.882	21.872	1344.976	1279.570
788.897	22.169	1344.590	1281.226
789.911	22.358	1343.715	1281.622
790.926	22.531	1342.166	1281.259
791.940	22.586	1341.070	1280.460
792.955	22.745	1340.057	1280.500
793.969	22.763	1339.046	1279.514
794.984	22.753	1338.416	1278.685
795.999	22.913	1337.888	1279.192
797.013	22.967	1336.012	1277.635
798.028	22.900	1334.965	1275.992
799.042	22.779	1334.411	1274.437
800.057	22.991	1333.668	1275.111
801.072	22.998	1331.787	1273.210
802.086	22.992	1330.004	1271.307
803.101	23.020	1328.992	1270.390
804.115	22.934	1328.681	1269.321
805.130	22.958	1328.359	1269.033
806.145	23.037	1327.056	1268.211
807.159	22.976	1324.735	1265.403
808.174	22.855	1323.299	1263.008
809.188	22.683	1322.147	1260.518
810.203	22.456	1320.233	1256.919
811.218	22.164	1318.228	1252.765
812.232	21.832	1316.403	1248.509
813.247	21.432	1316.617	1245.696
814.261	21.909	1316.554	1248.901
815.276	22.615	1315.560	1252.854
816.291	22.879	1314.725	1253.793
817.305	22.880	1313.949	1252.912
818.320	22.955	1313.290	1252.667
819.334	22.783	1312.657	1250.685
820.349	22.976	1310.813	1250.155
821.364	23.179	1308.432	1249.174
822.378	23.070	1307.741	1247.592
823.393	23.073	1306.291	1246.077
824.407	23.125	1305.055	1245.118
825.422	23.159	1304.101	1244.303
826.437	23.115	1303.227	1243.007
827.451	22.588	1301.136	1237.148
828.466	22.049	1298.712	1230.900
829.480	21.652	1297.654	1226.951
830.495	21.949	1296.380	1227.690
831.509	22.267	1296.760	1230.139
832.524	22.705	1295.949	1232.301
833.539	22.798	1295.356	1232.242
834.553	23.125	1293.862	1232.966
835.568	23.031	1292.721	1231.066
836.582	23.085	1291.996	1230.611
837.597	23.082	1290.261	1228.786
838.612	23.000	1288.942	1226.810
839.626	22.928	1287.783	1225.060
840.641	22.557	1286.421	1221.034
841.655	22.082	1285.048	1216.284
842.670	21.924	1282.648	1212.768
843.685	21.393	1282.115	1208.429
844.699	22.188	1281.135	1212.877
845.714	22.545	1280.925	1215.008
846.728	22.730	1280.534	1215.770
847.743	22.952	1279.882	1216.549
848.758	23.105	1278.458	1216.101
849.772	23.283	1277.926	1216.679
850.787	23.079	1276.479	1213.753
851.801	23.142	1275.264	1212.885
852.816	23.113	1273.479	1210.845
853.831	23.022	1272.341	1208.990
854.845	22.904	1271.079	1206.837
855.860	22.672	1269.278	1203.388
856.874	22.575	1267.461	1200.859
857.889	22.257	1265.329	1196.524
858.904	21.900	1263.541	1192.249
859.918	21.636	1261.771	1188.638
860.933	21.311	1260.746	1185.315
861.947	21.748	1260.938	1188.332
862.962	22.233	1259.846	1190.458
863.977	22.389	1258.857	1190.442
864.991	22.562	1258.958	1191.573
866.006	22.764	1258.987	1192.830
867.020	23.149	1257.646	1194.025
868.035	23.146	1256.697	1192.965
869.049	23.208	1256.172	1192.742
870.064	23.277	1254.603	1191.577
871.079	23.125	1254.054	1189.884
872.093	23.073	1253.087	1188.473
873.108	23.059	1252.333	1187.524
874.122	22.720	1250.614	1183.465
875.137	22.244	1249.740	1179.291
876.152	22.174	1247.958	1176.993
877.166	22.393	1246.380	1176.834
878.181	22.716	1245.865	1178.380
879.195	22.972	1245.992	1180.079
880.210	23.170	1245.522	1180.821
881.225	23.327	1244.295	1180.563
882.239	23.331	1243.378	1179.579
883.254	23.281	1242.505	1178.278
884.268	23.134	1242.295	1176.952
885.283	23.141	1240.628	1175.280
886.298	23.117	1239.273	1173.699
887.312	23.190	1237.859	1172.704
888.327	23.260	1236.672	1171.905
889.341	23.176	1235.894	1170.465
890.356	23.146	1234.919	1169.206
891.371	23.039	1233.934	1167.425
892.385	22.845	1233.364	1165.456
893.400	22.973	1232.528	1165.373
894.414	22.753	1230.763	1162.110
895.429	22.377	1228.592	1157.440
896.444	21.739	1225.849	1150.507
897.458	21.366	1224.478	1146.625
898.473	21.684	1225.066	1149.132
899.487	22.182	1225.678	1152.855
900.502	22.521	1225.198	1154.500
901.517	22.854	1223.660	1155.102
902.531	23.065	1222.893	1155.625
903.546	23.166	1222.386	1155.671
904.560	23.020	1221.905	1154.119
905.575	23.241	1220.514	1154.113
906.589	23.111	1219.967	1152.608
907.604	22.981	1218.968	1150.673
