DTS Sentinel unit serial number:	SN409020Multiplexer serial number:	ORYXHardware model number:	OX4-SRSoftware version number:	ORYX F/W v3.00 Oryx Data Collector v3.7.2.0data status	okinstallation	HaddamTimeLapsedifferential loss correction	single-endedforward channel	channel 3reverse channel	N/Adate	2011/06/21time	14:26:18forward acquisition time	30.00reverse acquisition time	0.00gamma	498.7831k internal	0.1830k external	0.1830temperature offset calibration	1.0074default loss term (dB/km)	0.3790temperature slope calibration	1.3530multiplexer offset coefficient	1.0000multiplexer slope coefficient	1.0000fibre end	0.00T internal ref (°C)	38.84T ext. ref 1 (°C)	29.19T ext. ref 2 (°C)	0.24length (m)	temperature (°C)	Stokes	anti-Stokes-747.200	50.421	-0.313	-0.377
-746.185	186.711	0.087	-0.165
-745.171	192.869	-0.209	-0.403
-744.156	-29.273	0.366	-0.266
-743.142	-72.779	0.183	-0.085
-742.127	225.919	-0.170	0.352
-741.112	800.000	0.062	0.306
-740.098	-70.049	0.668	0.322
-739.083	228.457	0.032	0.067
-738.069	-200.000	0.026	0.811
-737.054	-200.000	-0.029	-0.258
-736.039	-78.579	-0.249	0.108
-735.025	48.766	-0.293	-0.349
-734.010	-200.000	-0.015	-0.143
-732.996	-17.694	0.515	0.410
-731.981	768.231	0.203	0.705
-730.966	-179.265	0.152	-0.004
-729.952	547.632	-0.140	-0.427
-728.937	-200.000	0.015	-0.315
-727.923	125.881	0.227	-0.365
-726.908	-102.411	0.263	-0.080
-725.894	336.752	0.186	0.461
-724.879	139.097	-0.250	-0.419
-723.864	305.200	0.072	-0.170
-722.850	-63.081	0.305	-0.159
-721.835	-200.000	-0.003	-0.487
-720.821	46.148	0.196	-0.230
-719.806	-121.191	-0.188	0.040
-718.791	-168.800	-0.613	0.029
-717.777	-182.026	-0.226	-0.005
-716.762	-82.808	-0.276	-0.113
-715.748	41.124	-0.104	-0.119
-714.733	4.857	0.358	0.334
-713.718	-137.687	-0.603	-0.085
-712.704	-39.021	-0.264	0.176
-711.689	78.169	0.196	-0.266
-710.675	-200.000	-0.003	-0.578
-709.660	-150.955	0.461	0.044
-708.645	-129.726	-0.186	0.032
-707.631	-200.000	0.007	-0.343
-706.616	787.071	0.040	-0.139
-705.602	-182.788	-0.657	0.015
-704.587	195.341	-0.152	-0.294
-703.572	381.727	0.118	0.310
-702.558	-200.000	0.065	-0.485
-701.543	-200.000	-0.013	-0.098
-700.529	-58.976	-0.470	0.257
-699.514	-69.686	0.443	0.214
-698.499	12.676	-0.165	0.161
-697.485	-153.486	0.061	-0.005
-696.470	-191.682	0.061	-0.001
-695.456	-71.053	0.290	-0.138
-694.441	10.639	-0.202	-0.195
-693.426	183.026	-0.198	0.372
-692.412	-184.070	-0.122	0.003
-691.397	-76.937	-0.240	0.106
-690.383	-137.891	-0.186	-0.026
-689.368	-12.624	0.044	0.037
-688.354	28.850	0.190	0.204
-687.339	-51.635	0.438	-0.258
-686.324	-96.737	0.152	-0.050
-685.310	-200.000	-0.021	0.689
-684.295	-55.409	0.152	-0.086
-683.281	39.914	0.098	-0.112
-682.266	-152.502	-0.229	-0.021
-681.251	-79.927	-0.248	-0.105
-680.237	-200.000	0.006	-0.144
-679.222	134.949	0.130	-0.214
-678.208	-87.965	-0.164	-0.062
-677.193	-27.203	-0.342	-0.252
-676.178	-64.175	-0.439	0.226
-675.164	-37.905	0.273	-0.184
-674.149	37.790	-0.199	-0.224
-673.135	-200.000	0.084	-0.634
-672.120	37.061	0.297	0.333
-671.105	-190.162	-0.248	0.003
-670.091	-53.296	-0.265	-0.153
-669.076	76.925	-0.232	-0.313
-668.062	-52.748	-0.634	0.369
-667.047	43.604	-0.201	0.234
-666.032	185.652	0.127	-0.241
-665.018	800.000	-0.088	-0.382
-664.003	-200.000	-0.035	0.234
-662.989	-157.348	-0.377	0.028
-661.974	-65.219	0.138	0.070
-660.959	-146.594	0.429	-0.047
-659.945	-200.000	-0.048	-0.317
-658.930	-70.544	-0.175	-0.083
-657.916	-164.023	-0.465	-0.027
-656.901	-104.066	0.361	-0.106
-655.886	390.859	-0.120	0.317
-654.872	-113.480	-0.372	-0.092
-653.857	77.968	0.071	-0.096
-652.843	-61.349	-0.095	-0.051
-651.828	-147.575	-0.374	0.039
-650.814	34.257	-0.324	0.358
-649.799	-131.216	-0.330	-0.055
-648.784	61.945	0.199	-0.251
-647.770	-119.025	0.174	0.038
-646.755	398.211	0.083	0.221
-645.741	-68.559	-0.190	-0.093
-644.726	-157.365	-0.202	-0.015
-643.711	-73.158	-0.244	0.113
-642.697	196.319	0.302	0.583
-641.682	-89.363	0.080	0.030
-640.668	99.786	0.294	0.431
-639.653	-200.000	0.065	-0.474
-638.638	-200.000	-0.006	-0.045
-637.624	-200.000	0.012	0.134
-636.609	-91.311	0.383	-0.138
-635.595	-136.708	0.174	-0.025
-634.580	-157.945	-0.178	0.013
-633.565	95.497	0.244	-0.352
-632.551	-108.335	0.178	0.048
-631.536	-200.000	0.052	0.302
-630.522	250.336	-0.013	-0.027
-629.507	-86.243	-0.534	0.207
-628.492	60.383	-0.166	-0.208
-627.478	-77.576	-0.241	-0.105
-626.463	155.029	0.080	0.139
-625.449	-55.205	-0.179	-0.102
-624.434	54.818	-0.134	-0.163
-623.419	137.068	-0.144	-0.238
-622.405	-19.280	-0.254	0.199
-621.390	-127.884	-0.243	-0.044
-620.376	28.479	-0.201	-0.215
-619.361	79.964	0.023	0.032
-618.346	800.000	0.035	-0.189
-617.332	635.366	-0.065	-0.209
-616.317	-110.795	-0.496	-0.128
-615.303	800.000	-0.015	0.062
-614.288	-57.045	0.308	-0.171
-613.273	-94.922	0.266	0.090
-612.259	319.354	0.044	0.106
-611.244	138.025	-0.199	0.330
-610.230	19.043	-0.081	-0.082
-609.215	-200.000	-0.086	-0.570
-608.201	-144.053	-0.198	0.023
-607.186	800.000	0.066	-0.294
-606.171	1.210	-0.393	0.356
-605.157	-200.000	-0.034	0.205
-604.142	9.081	0.432	0.412
-603.128	439.836	0.057	0.159
-602.113	-122.155	-0.277	0.057
-601.098	-200.000	0.027	0.194
-600.084	-200.000	-0.082	0.685
-599.069	93.301	-0.255	0.365
-598.055	-132.594	-0.607	0.097
-597.040	800.000	0.156	0.591
-596.025	0.595	-0.454	0.410
-595.011	-150.480	0.199	0.019
-593.996	-141.694	0.469	0.059
-592.982	94.929	-0.089	-0.128
-591.967	800.000	0.017	-0.072
-590.952	-188.423	-0.504	0.008
-589.938	-200.000	0.024	-0.148
-588.923	-10.812	0.172	-0.143
-587.909	800.000	0.102	-0.455
-586.894	-26.778	-0.113	0.084
-585.879	-28.949	0.353	0.256
-584.865	-82.243	0.307	0.126
-583.850	-13.364	-0.252	-0.206
-582.836	35.214	-0.148	-0.164
-581.821	-67.363	0.395	0.195
-580.806	-200.000	0.012	0.157
-579.792	-99.416	0.539	0.170
-578.777	54.772	-0.211	0.258
-577.763	49.304	0.402	-0.478
-576.748	529.039	-0.073	0.218
-575.733	182.082	-0.039	-0.073
-574.719	-70.798	-0.462	-0.219
-573.704	-22.088	0.563	-0.431
-572.690	-66.732	0.717	-0.357
-571.675	52.435	0.191	-0.231
-570.661	-115.641	0.486	0.114
-569.646	41.518	0.143	-0.163
-568.631	-81.380	-0.311	0.129
-567.617	-137.593	0.218	0.031
-566.602	87.265	0.233	0.326
-565.588	-161.022	-0.486	-0.032
-564.573	-42.177	-0.285	0.184
-563.558	800.000	0.023	0.104
-562.544	-130.691	-0.201	0.034
-561.529	-29.811	-0.440	0.316
-560.515	800.000	-0.088	-0.385
-559.500	-36.286	-0.323	0.219
-558.485	292.472	0.102	0.236
-557.471	372.167	0.121	-0.312
-556.456	220.713	0.147	-0.298
-555.442	-82.166	0.276	0.113
-554.427	-12.844	0.445	0.365
-553.412	-80.628	-0.277	-0.116
-552.398	137.203	-0.313	-0.517
-551.383	117.428	0.063	-0.098
-550.369	-200.000	0.023	-0.445
-549.354	-108.773	-0.197	-0.053
-548.339	618.720	0.111	-0.355
-547.325	-200.000	0.024	-0.257
-546.310	139.811	0.091	0.151
-545.296	-85.812	0.142	-0.055
-544.281	-200.000	-0.022	0.294
-543.266	-45.679	0.136	-0.085
-542.252	-12.138	0.298	-0.246
-541.237	-30.520	-0.263	-0.187
-540.223	-108.883	0.118	0.032
-539.208	485.945	-0.090	0.261
-538.193	40.043	-0.036	-0.041
-537.179	-10.642	-0.039	0.033
-536.164	513.302	0.088	-0.260
-535.150	800.000	0.152	0.560
-534.135	43.441	0.247	0.285
-533.121	-82.205	0.018	0.007
-532.106	213.430	0.084	0.168
-531.091	-141.954	0.324	-0.040
-530.077	800.000	0.009	0.042
-529.062	-200.000	0.039	0.434
-528.048	-110.573	-0.120	0.031
-527.033	-89.168	0.240	0.089
-526.018	-82.801	-0.220	-0.089
-525.004	440.565	0.102	-0.283
-523.989	60.840	-0.160	-0.201
-522.975	69.869	-0.190	-0.247
-521.960	-66.020	-0.303	-0.152
-520.945	-73.222	-0.217	-0.100
-519.931	322.908	0.049	0.117
-518.916	800.000	0.055	-0.193
-517.902	-92.540	0.225	0.079
-516.887	444.646	-0.170	0.472
-515.872	800.000	0.070	-0.279
-514.858	-99.776	0.249	0.078
-513.843	40.328	0.300	-0.341
-512.829	71.326	-0.111	-0.145
-511.814	37.804	0.170	0.190
-510.799	-120.989	0.278	0.058
-509.785	800.000	0.101	-0.411
-508.770	800.000	-0.121	-0.612
-507.756	-67.668	0.210	-0.103
-506.741	35.215	-0.228	0.252
-505.726	159.219	0.197	0.345
-504.712	-140.880	0.440	0.056
-503.697	-131.889	-0.283	0.046
-502.683	110.879	-0.349	0.529
-501.668	63.611	-0.265	-0.335
-500.653	32.528	0.242	0.263
-499.639	107.424	-0.102	-0.153
-498.624	-110.210	0.407	-0.106
-497.610	-180.126	0.596	0.016
-496.595	-196.266	-0.130	0.001
-495.581	-154.183	-0.391	0.033
-494.566	133.610	0.103	0.169
-493.551	104.933	0.130	-0.193
-492.537	-200.000	-0.031	-0.362
-491.522	-131.219	0.274	0.045
-490.508	-56.295	-0.394	-0.220
-489.493	354.586	-0.129	0.324
-488.478	608.768	0.076	-0.241
-487.464	-118.581	0.127	-0.028
-486.449	79.307	0.223	-0.301
-485.435	-80.123	-0.580	0.244
-484.420	-169.497	-0.234	-0.011
-483.405	-35.188	-0.240	0.164
-482.391	99.430	0.148	-0.216
-481.376	-200.000	0.035	-0.240
-480.362	82.261	-0.173	-0.236
-479.347	-200.000	0.019	0.111
-478.332	-200.000	0.061	-0.382
-477.318	-74.704	0.468	-0.211
-476.303	29.608	0.486	-0.521
-475.289	85.341	-0.132	0.182
-474.274	22.727	0.077	-0.080
-473.259	-97.938	0.291	0.094
-472.245	43.164	-0.179	0.206
-471.230	148.279	0.364	-0.620
-470.216	536.359	0.085	-0.254
-469.201	16.110	-0.087	0.086
-468.186	203.587	-0.065	-0.126
-467.172	18.291	0.190	-0.191
-466.157	-119.630	0.040	0.009
-465.143	-135.636	-0.375	-0.055
-464.128	-200.000	-0.031	0.492
-463.113	-30.228	0.332	0.237
-462.099	-75.890	-0.164	-0.073
-461.084	-13.186	-0.232	-0.189
-460.070	-1.669	-0.367	-0.325
-459.055	162.686	-0.252	-0.445
-458.040	-164.303	0.211	0.012
-457.026	-109.208	0.112	-0.030
-456.011	172.265	0.039	0.070
-454.997	123.190	0.363	0.573
-453.982	17.951	0.181	-0.181
-452.968	-3.442	-0.307	-0.269
-451.953	-152.500	0.143	-0.013
-450.938	-120.490	0.441	-0.093
-449.924	451.938	-0.087	-0.243
-448.909	653.807	-0.075	-0.242
-447.895	140.314	0.019	-0.031
-446.880	-180.170	-0.587	-0.015
-445.865	3.517	0.228	0.209
-444.851	-75.293	0.348	-0.155
-443.836	-46.060	-0.427	-0.264
-442.822	-200.000	-0.017	-0.204
-441.807	-99.036	-0.284	0.090
-440.792	800.000	-0.051	0.257
-439.778	454.053	0.049	0.138
-438.763	71.845	0.237	0.310
-437.749	-16.253	0.060	0.048
-436.734	-200.000	-0.013	-0.191
-435.719	141.638	-0.188	-0.313
-434.705	-51.201	-0.158	0.092
-433.690	-96.957	-0.121	0.039
-432.676	-200.000	0.128	0.803
-431.661	-44.876	-0.249	0.155
-430.646	-200.000	-0.073	0.441
-429.632	249.818	-0.121	-0.259
-428.617	-87.487	-0.368	-0.139
-427.603	-200.000	-0.035	-0.493
-426.588	-200.000	0.103	0.000
-425.573	-98.498	-0.259	-0.083
-424.559	-124.643	-0.341	0.066
-423.544	47.397	-0.514	0.602
-422.530	3.166	0.386	0.352
-421.515	-200.000	0.008	0.464
-420.500	194.906	0.140	0.267
-419.486	61.149	0.037	-0.046
-418.471	96.556	-0.378	0.544
-417.457	-197.405	-0.337	0.003
-416.442	349.119	-0.018	-0.044
-415.428	-21.609	-0.340	0.259
-414.413	-91.739	0.535	0.190
-413.398	-200.000	0.002	-0.111
-412.384	50.497	0.146	-0.173
-411.369	-127.010	-0.059	-0.011
-410.355	415.792	0.197	0.531
-409.340	-156.628	0.399	0.031
-408.325	12.460	-0.193	0.186
-407.311	800.000	0.049	-0.190
-406.296	64.416	0.249	-0.315
-405.282	23.793	0.101	0.104
-404.267	3.285	-0.097	-0.089
-403.252	-128.735	-0.299	0.052
-402.238	-200.000	0.013	0.350
-401.223	-148.238	-0.346	0.035
-400.209	-200.000	0.012	-0.119
-399.194	153.673	0.164	-0.283
-398.179	-63.928	0.302	-0.154
-397.165	238.777	-0.251	0.526
-396.150	-142.916	-0.437	0.053
-395.136	74.487	0.076	0.101
-394.121	211.482	-0.122	0.242
-393.106	-56.749	-0.303	-0.168
-392.092	-200.000	0.024	-0.306
-391.077	-200.000	0.013	0.206
-390.063	128.353	-0.087	-0.139
-389.048	-108.488	0.121	0.032
-388.033	60.970	-0.410	-0.510
-387.019	-116.494	-0.122	0.028
-386.004	-47.585	0.345	-0.209
-384.990	-136.106	-0.323	-0.047
-383.975	-200.000	-0.022	0.162
-382.960	-136.702	0.538	0.077
-381.946	-93.050	0.102	0.035
-380.931	390.000	-0.006	0.016
-379.917	800.000	-0.088	0.424
-378.902	629.854	-0.183	0.584
-377.888	-77.233	0.270	0.117
-376.873	37.937	0.231	-0.257
-375.858	-13.969	0.220	-0.177
-374.844	337.335	-0.122	-0.298
-373.829	800.000	0.076	-0.359
-372.815	-34.816	-0.392	0.268
-371.800	238.065	-0.108	0.226
-370.785	-156.470	-0.054	-0.004
-369.771	-104.659	-0.479	-0.137
-368.756	222.130	-0.223	0.451
-367.742	75.246	0.184	0.243
-366.727	-74.605	0.233	0.105
-365.712	-148.500	0.522	-0.053
-364.698	126.565	-0.182	0.289
-363.683	-139.471	0.428	-0.057
-362.669	-153.801	0.297	0.025
-361.654	139.902	-0.108	-0.179
-360.639	-5.583	-0.034	0.029
-359.625	53.599	0.380	-0.456
-358.610	-87.524	0.418	0.157
-357.596	-140.085	-0.136	0.018
-356.581	349.655	0.161	0.399
-355.566	71.003	0.143	-0.186
-354.552	58.164	0.106	0.130
-353.537	49.887	-0.326	0.385
-352.523	-136.416	-0.333	0.048
-351.508	-15.971	-0.072	0.057
-350.493	800.000	0.139	0.610
-349.479	-130.632	0.215	0.036
-348.464	-200.000	0.227	0.001
-347.450	-95.647	-0.082	-0.027
-346.435	-49.260	0.397	-0.237
-345.420	-200.000	0.099	0.567
-344.406	-200.000	-0.011	-0.422
-343.391	100.523	-0.158	-0.230
-342.377	-148.897	-0.267	0.027
-341.362	242.348	-0.158	-0.332
-340.348	-103.778	0.269	-0.078
-339.333	-73.621	-0.229	-0.104
-338.318	271.683	-0.202	-0.447
-337.304	-200.000	0.011	-0.103
-336.289	-70.712	-0.470	-0.221
-335.275	-7.698	-0.321	0.271
-334.260	80.150	-0.062	-0.083
-333.245	716.065	-0.043	0.142
-332.231	800.000	-0.108	-0.538
-331.216	8.282	0.236	-0.221
-330.202	-0.052	-0.083	-0.074
-329.187	-46.756	-0.270	-0.165
-328.172	800.000	-0.054	0.208
-327.158	-200.000	-0.027	-0.586
-326.143	241.060	-0.192	-0.401
-325.129	-100.235	-0.424	0.131
-324.114	117.047	-0.126	0.194
-323.099	242.166	-0.150	0.314
-322.085	-103.764	-0.184	-0.053
-321.070	-166.134	-0.351	0.018
-320.056	288.381	0.257	0.584
-319.041	800.000	0.049	-0.226
-318.026	-38.456	0.327	0.216
-317.012	-8.707	-0.190	-0.160
-315.997	-105.099	-0.301	-0.085
-314.983	197.120	-0.198	0.378
-313.968	-148.988	0.702	0.070
-312.953	135.237	-0.227	-0.369
-311.939	-20.965	-0.129	-0.099
-310.924	800.000	0.021	0.112
-309.910	-81.826	0.363	-0.148
-308.895	-82.937	0.207	0.083
-307.880	52.581	-0.031	0.037
-306.866	405.041	-0.119	0.316
-305.851	-69.233	-0.195	0.093
-304.837	214.501	-0.213	0.423
-303.822	-130.423	0.201	0.034
-302.807	-200.000	-0.042	0.430
-301.793	94.331	-0.144	0.204
-300.778	94.114	0.313	-0.445
-299.764	-123.180	-0.103	-0.020
-298.749	-9.725	0.305	0.254
-297.735	-184.246	0.386	-0.008
-296.720	29.270	-0.196	0.208
-295.705	204.756	0.135	-0.262
-294.691	-44.049	0.142	0.089
-293.676	-54.913	0.219	-0.123
-292.662	-186.939	-0.229	-0.004
-291.647	-200.000	0.043	0.253
-290.632	76.161	-0.047	-0.062
-289.618	-119.824	0.135	-0.029
-288.603	143.835	0.155	0.259
-287.589	125.089	-0.062	-0.098
-286.574	-61.790	0.292	0.152
-285.559	-123.942	-0.254	-0.049
-284.545	800.000	-0.036	-0.132
-283.530	67.558	0.087	0.111
-282.516	-93.509	-0.358	-0.123
-281.501	-200.000	-0.015	-0.607
-280.486	519.353	0.080	0.235
-279.472	-152.197	-0.245	0.022
-278.457	-88.964	-0.053	0.019
-277.443	-68.477	-0.447	-0.215
-276.428	-125.623	0.383	0.072
-275.413	-198.878	0.189	0.001
-274.399	-96.589	-0.132	0.043
-273.384	800.000	0.133	0.483
-272.370	-96.458	-0.196	0.064
-271.355	800.000	-0.024	-0.132
-270.340	221.857	-0.125	0.252
-269.326	343.945	-0.205	0.504
-268.311	-88.911	-0.442	-0.162
-267.297	-119.895	0.065	0.014
-266.282	-98.238	0.569	0.181
-265.267	27.834	0.263	0.276
-264.253	-78.846	0.219	-0.093
-263.238	-117.248	0.481	-0.108
-262.224	176.748	-0.110	0.201
-261.209	794.303	-0.118	-0.408
-260.195	59.480	0.142	-0.174
-259.180	-60.820	0.165	-0.087
-258.165	105.810	0.350	-0.517
-257.151	-163.023	0.697	0.041
-256.136	-71.963	-0.067	-0.031
-255.122	-37.346	-0.596	-0.396
-254.107	22.444	-0.147	-0.150
-253.092	-88.439	0.282	0.104
-252.078	72.656	-0.200	0.260
-251.063	-200.000	-0.009	-0.131
-250.049	-111.388	0.315	-0.079
-249.034	-175.574	0.468	-0.016
-248.019	-50.797	0.360	0.210
-247.005	-72.360	-0.047	0.022
-245.990	-11.600	-0.200	-0.163
-244.976	48.812	-0.189	0.221
-243.961	-4.230	0.310	-0.267
-242.946	-104.036	0.152	-0.044
-241.932	-97.889	-0.228	0.073
-240.917	270.171	-0.116	0.256
-239.903	-122.956	-0.366	0.073
-238.888	-143.199	-0.244	-0.029
-237.873	-95.282	-0.247	-0.082
-236.859	230.522	0.131	0.268
-235.844	33.901	0.093	-0.101
-234.830	-66.124	0.266	-0.132
-233.815	-200.000	0.011	0.501
-232.800	202.162	-0.093	-0.180
-231.786	-58.188	-0.141	-0.076
-230.771	-200.000	-0.002	0.478
-229.757	-200.000	-0.031	-0.207
-228.742	32.131	-0.290	0.312
-227.727	-200.000	-0.011	0.628
-226.713	800.000	0.046	0.201
-225.698	-47.482	-0.349	0.210
-224.684	290.694	0.192	-0.435
-223.669	-119.706	0.354	0.076
-222.655	101.560	-0.382	0.556
-221.640	28.456	-0.266	-0.280
-220.625	81.616	0.222	0.300
-219.611	132.765	0.255	0.410
-218.596	-7.191	-0.242	0.204
-217.582	-99.985	0.234	-0.072
-216.567	-76.977	-0.141	-0.061
-215.552	800.000	-0.103	-0.367
-214.538	786.184	-0.106	-0.363
-213.523	199.183	-0.126	-0.241
-212.509	641.136	-0.041	0.131
-211.494	-200.000	0.011	-0.799
-210.479	52.205	-0.228	-0.271
-209.465	-47.147	-0.242	0.146
-208.450	-159.705	0.427	0.029
-207.436	64.374	-0.322	0.404
-206.421	800.000	-0.068	-0.301
-205.406	213.171	-0.083	-0.163
-204.392	-200.000	0.078	-0.447
-203.377	-200.000	0.014	-0.274
-202.363	795.155	0.005	0.016
-201.348	-55.177	-0.458	0.256
-200.333	-200.000	-0.002	0.171
-199.319	143.442	0.280	0.465
-198.304	80.792	0.120	0.161
-197.290	-22.851	-0.469	-0.352
-196.275	-83.369	0.120	-0.047
-195.260	-158.840	-0.177	0.012
-194.246	57.493	0.025	0.031
-193.231	800.000	-0.075	-0.302
-192.217	800.000	0.059	-0.286
-191.202	-1.539	0.394	0.345
-190.187	-109.135	0.201	0.053
-189.173	504.112	-0.041	-0.118
-188.158	84.603	0.432	0.589
-187.144	161.238	0.202	-0.353
-186.129	-118.646	0.349	0.076
-185.114	-163.560	0.226	0.013
-184.100	-117.167	-0.141	-0.032
-183.085	109.691	0.141	-0.210
-182.071	-19.673	0.514	0.395
-181.056	67.746	0.304	0.387
-180.042	53.154	-0.069	-0.083
-179.027	-136.699	0.326	0.046
-178.012	604.912	-0.110	-0.343
-176.998	130.436	0.243	-0.387
-175.983	133.977	0.069	-0.111
-174.969	197.755	-0.045	0.086
-173.954	443.923	-0.063	-0.173
-172.939	2.026	-0.143	-0.128
-171.925	432.413	0.165	-0.446
-170.910	-36.617	0.115	0.076
-169.896	-136.844	-0.187	-0.026
-168.881	99.599	-0.412	0.594
-167.866	-25.259	-0.234	-0.172
-166.852	-200.000	-0.026	0.145
-165.837	-200.000	0.060	-0.384
-164.823	90.511	0.435	-0.605
-163.808	-138.167	0.024	0.003
-162.793	-99.204	-0.098	0.031
-161.779	-119.841	-0.500	-0.106
-160.764	800.000	-0.106	-0.426
-159.750	-0.718	0.407	0.358
-158.735	-115.776	0.237	-0.055
-157.720	-40.819	-0.170	0.109
-156.706	552.348	0.191	0.574
-155.691	45.972	-0.182	0.210
-154.677	455.614	0.209	-0.579
-153.662	-177.071	-0.719	-0.022
-152.647	-200.000	-0.020	-0.155
-151.633	422.213	-0.267	-0.714
-150.618	-136.243	0.458	0.066
-149.604	-120.645	0.290	0.060
-148.589	40.621	0.269	-0.301
-147.574	-46.289	0.377	-0.230
-146.560	-106.989	0.128	-0.035
-145.545	-139.396	0.132	-0.017
-144.531	383.213	0.100	0.256
-143.516	800.000	-0.023	0.119
-142.502	-90.490	0.110	0.039
-141.487	-109.375	0.199	-0.052
-140.472	-126.477	-0.252	0.046
-139.458	-5.210	0.298	0.254
-138.443	-110.790	-0.276	0.070
-137.429	307.746	0.256	-0.594
-136.414	-106.580	-0.489	-0.134
-135.399	-124.744	-0.256	0.049
-134.385	264.058	0.100	0.216
-133.370	-183.235	0.542	-0.012
-132.356	-109.965	-0.304	-0.078
-131.341	188.249	-0.198	-0.368
-130.326	-34.796	0.155	-0.105
-129.312	-41.490	-0.176	0.112
-128.297	-3.105	0.220	0.191
-127.283	-158.192	-0.365	0.026
-126.268	-157.947	0.108	0.008
-125.253	-147.645	0.189	-0.019
-124.239	190.036	0.098	-0.183
-123.224	-71.615	-0.147	-0.068
-122.210	71.379	0.176	0.227
-121.195	-120.980	0.227	-0.047
-120.180	142.458	0.102	0.169
-119.166	-99.837	-0.157	-0.048
-118.151	-160.597	0.193	-0.013
-117.137	-63.098	0.215	0.110
-116.122	659.185	0.017	0.054
-115.107	-200.000	-0.037	-0.243
-114.093	270.200	0.055	0.121
-113.078	-26.190	0.173	0.126
-112.064	77.873	-0.128	-0.169
-111.049	-200.000	0.032	0.267
-110.034	-105.567	0.405	0.113
-109.020	-131.733	-0.091	-0.015
-108.005	76.490	0.089	-0.117
-106.991	-36.504	0.472	0.314
-105.976	38.761	-0.133	-0.147
-104.962	365.057	0.046	-0.115
-103.947	92.515	-0.122	0.171
-102.932	-99.755	-0.592	-0.183
-101.918	-200.000	-0.118	0.691
-100.903	68.623	0.277	-0.353
-99.889	-12.286	0.203	-0.164
-98.874	321.209	-0.125	0.295
-97.859	-90.275	0.540	-0.193
-96.845	-23.746	0.655	-0.485
-95.830	33.741	-0.172	-0.185
-94.816	164.931	0.241	0.422
-93.801	800.000	0.095	-0.358
-92.786	800.000	-0.076	0.331
-91.772	-200.000	-0.030	0.373
-90.757	401.178	0.077	0.202
-89.743	-110.903	0.373	-0.094
-88.728	32.344	0.088	0.094
-87.713	-48.002	0.097	-0.058
-86.699	-200.000	-0.029	-0.195
-85.684	-35.952	-0.402	0.269
-84.670	-200.000	-0.042	0.295
-83.655	-200.000	0.070	-0.531
-82.640	-51.364	-0.221	-0.128
-81.626	-51.764	-0.610	-0.351
-80.611	0.501	-0.284	-0.251
-79.597	-18.868	-0.356	0.274
-78.582	299.600	-0.130	-0.299
-77.567	-46.709	-0.241	0.146
-76.553	-200.000	-0.007	-0.125
-75.538	-152.274	0.346	0.031
-74.524	-155.200	-0.328	0.026
-73.509	-166.245	0.203	-0.010
-72.494	-185.553	0.361	-0.007
-71.480	-200.000	-0.010	0.083
-70.465	-200.000	-0.041	0.474
-69.451	-60.150	0.296	-0.156
-68.436	-113.516	0.489	0.118
-67.422	-95.013	0.179	0.060
-66.407	-59.726	-0.367	0.194
-65.392	74.501	-0.119	-0.155
-64.378	-67.360	0.366	0.177
-63.363	-58.464	0.333	0.178
-62.349	-103.472	0.582	-0.168
-61.334	66.624	-0.966	-1.217
-60.319	50.943	0.199	0.233
-59.305	290.700	-2.430	-5.486
-58.290	-25.812	2.329	1.695
-57.276	401.426	3.779	9.863
-56.261	-200.000	11.218	189.125
-55.246	541.026	1084.557	3213.200
-54.232	72.047	2724.606	3511.636
-53.217	75.897	2681.212	3511.082
-52.203	76.990	2417.504	3179.781
-51.188	42.525	2064.478	2324.225
-50.173	42.333	1927.952	2168.346
-49.159	40.018	1916.413	2130.245
-48.144	39.510	1912.623	2120.453
-47.130	39.253	1910.098	2114.789
-46.115	39.246	1908.310	2112.650
-45.100	39.249	1906.889	2111.028
-44.086	39.208	1905.551	2109.013
-43.071	39.161	1904.201	2106.935
-42.057	39.173	1902.363	2104.948
-41.042	39.156	1901.602	2103.837
-40.027	39.145	1900.528	2102.452
-39.013	39.113	1898.614	2099.900
-37.998	39.079	1897.230	2097.922
-36.984	39.066	1896.376	2096.759
-35.969	38.917	1895.462	2094.069
-34.954	38.979	1893.951	2092.977
-33.940	39.061	1893.040	2092.762
-32.925	39.165	1890.926	2091.457
-31.911	39.083	1889.536	2088.956
-30.896	38.910	1888.835	2086.252
-29.881	39.051	1887.039	2085.693
-28.867	38.837	1887.116	2083.411
-27.852	38.863	1884.961	2081.229
-26.838	38.934	1882.609	2079.300
-25.823	38.826	1881.521	2076.866
-24.809	38.829	1880.384	2075.568
-23.794	38.988	1878.955	2075.593
-22.779	38.871	1877.688	2072.867
-21.765	38.815	1876.911	2071.330
-20.750	38.817	1875.507	2069.722
-19.736	38.715	1874.404	2067.341
-18.721	38.734	1872.939	2065.846
-17.706	38.717	1871.923	2064.467
-16.692	38.797	1870.379	2063.521
-15.677	38.714	1869.678	2061.789
-14.663	38.758	1868.240	2060.589
-13.648	38.651	1867.026	2058.037
-12.633	38.855	1865.172	2058.070
-11.619	38.630	1864.735	2055.129
-10.604	38.704	1863.107	2054.037
-9.590	38.631	1862.672	2052.704
-8.575	38.803	1860.362	2051.888
-7.560	38.679	1859.881	2049.964
-6.546	38.590	1859.582	2048.627
-5.531	38.736	1857.447	2047.727
-4.517	38.670	1856.488	2045.896
-3.502	38.834	1855.595	2046.545
-2.487	38.745	1855.218	2045.116
-1.473	38.830	1852.251	2042.658
-0.458	38.868	1831.040	2019.578
0.556	34.033	1954.551	2089.947
1.571	32.318	2170.427	2299.447
2.586	34.222	2221.096	2376.763
3.600	34.591	2223.522	2383.707
4.615	34.969	2223.658	2388.307
5.629	34.669	2221.365	2381.796
6.644	34.654	2220.710	2380.630
7.659	34.953	2219.036	2382.292
8.673	35.508	2218.260	2388.106
9.688	34.664	2220.917	2380.111
10.702	29.972	2282.626	2385.369
11.717	25.391	2342.535	2386.652
12.731	13.164	2311.869	2192.952
13.746	2.270	2282.953	2021.077
14.761	0.627	2277.479	1994.206
15.775	0.387	2276.220	1989.673
16.790	0.265	2275.074	1986.820
17.804	0.305	2274.148	1986.308
18.819	0.246	2273.166	1984.430
19.834	0.477	2270.077	1984.545
20.848	0.287	2269.726	1981.496
21.863	0.266	2268.609	1980.009
22.877	0.389	2265.248	1978.461
23.892	0.338	2263.748	1976.233
24.907	0.282	2261.865	1973.620
25.921	0.353	2259.445	1972.198
26.936	0.327	2256.972	1969.464
27.950	0.320	2255.496	1967.859
28.965	0.327	2253.254	1965.757
29.980	0.301	2251.657	1963.789
30.994	0.481	2250.157	1964.597
32.009	6.689	2271.503	2064.830
33.023	21.662	2315.909	2304.377
34.038	29.357	2331.903	2422.037
35.053	31.079	2332.492	2445.078
36.067	30.950	2329.623	2440.084
37.082	30.323	2325.880	2427.629
38.096	30.390	2325.150	2427.453
39.111	31.287	2325.287	2439.091
40.126	32.184	2326.723	2452.071
41.140	32.848	2326.549	2460.308
42.155	32.127	2322.112	2445.888
43.169	31.800	2319.905	2438.995
44.184	32.271	2318.347	2443.215
45.199	32.425	2316.554	2443.045
46.213	32.355	2315.277	2440.496
47.228	32.033	2313.653	2434.296
48.242	31.992	2311.717	2431.433
49.257	32.034	2310.011	2429.892
50.271	32.256	2308.366	2430.759
51.286	32.079	2304.362	2423.954
52.301	31.469	2302.994	2414.310
53.315	31.958	2304.611	2422.066
54.330	32.941	2305.369	2435.320
55.344	32.936	2302.445	2431.877
56.359	33.104	2298.911	2430.019
57.374	32.685	2297.031	2422.334
58.388	32.288	2292.661	2412.315
59.403	32.683	2289.932	2414.249
60.417	33.189	2289.914	2420.443
61.432	33.654	2288.879	2425.037
62.447	33.215	2285.936	2415.994
63.461	32.939	2282.939	2409.000
64.476	32.666	2280.178	2402.304
65.490	33.561	2281.610	2414.994
66.505	34.128	2282.000	2422.371
67.520	33.763	2278.293	2413.485
68.534	31.800	2270.583	2380.003
69.549	31.159	2266.809	2367.581
70.563	31.261	2264.453	2366.144
71.578	31.473	2262.475	2366.484
72.593	31.537	2261.551	2366.056
73.607	31.667	2260.044	2365.841
74.622	31.554	2258.824	2362.854
75.636	31.218	2254.576	2353.859
76.651	31.321	2252.552	2352.771
77.666	31.412	2251.551	2352.601
78.680	31.674	2249.187	2353.157
79.695	31.950	2249.272	2356.452
80.709	32.122	2247.328	2356.297
81.724	31.959	2245.294	2351.828
82.739	31.927	2242.718	2348.449
83.753	31.806	2241.192	2345.045
84.768	31.526	2239.012	2338.971
85.782	31.300	2236.959	2333.706
86.797	31.253	2234.323	2330.088
87.812	31.001	2232.396	2324.637
88.826	30.919	2229.462	2320.285
89.841	31.119	2228.295	2321.296
90.855	31.229	2226.656	2320.680
91.870	30.776	2223.405	2311.358
92.884	30.656	2222.456	2308.597
93.899	31.063	2222.370	2313.311
94.914	31.278	2223.111	2316.486
95.928	32.111	2225.291	2328.865
96.943	32.569	2223.702	2332.625
97.957	31.700	2217.918	2315.496
98.972	31.034	2213.308	2302.137
99.987	30.778	2209.206	2294.429
101.001	30.743	2207.391	2291.837
102.016	30.665	2205.977	2289.121
103.030	30.840	2204.236	2289.207
104.045	31.060	2202.971	2290.334
105.060	31.441	2200.695	2292.391
106.074	31.445	2200.169	2291.620
107.089	31.352	2196.877	2286.767
108.103	31.230	2196.217	2284.311
109.118	31.407	2196.100	2286.091
110.133	31.656	2194.472	2287.183
111.147	31.597	2191.269	2282.851
112.162	31.412	2190.210	2279.205
113.176	31.487	2188.370	2277.938
114.191	31.439	2187.019	2275.666
115.206	31.428	2184.575	2272.713
116.220	31.270	2183.071	2268.948
117.235	31.285	2180.641	2266.337
118.249	31.223	2178.422	2263.008
119.264	31.434	2177.826	2264.679
120.279	31.421	2176.097	2262.461
121.293	31.599	2174.487	2262.679
122.308	31.614	2173.195	2261.246
123.322	31.356	2171.836	2256.425
124.337	31.259	2170.931	2254.040
125.352	32.686	2174.268	2274.555
126.366	33.732	2174.309	2287.001
127.381	32.109	2167.189	2259.630
128.395	31.143	2163.567	2243.918
129.410	31.381	2160.554	2243.388
130.424	31.195	2158.748	2239.007
131.439	31.220	2156.836	2237.058
132.454	31.066	2155.424	2233.467
133.468	31.371	2153.585	2234.967
134.483	31.552	2153.222	2236.496
135.497	31.853	2151.994	2238.563
136.512	32.012	2149.749	2237.872
137.527	31.923	2146.888	2233.553
138.541	31.349	2145.910	2225.409
139.556	31.076	2143.378	2219.250
140.570	30.998	2142.029	2216.652
141.585	31.086	2139.796	2215.129
142.600	31.098	2139.380	2214.569
143.614	31.050	2136.987	2211.262
144.629	31.125	2137.033	2211.937
145.643	31.102	2134.465	2208.742
146.658	30.860	2132.683	2203.754
147.673	30.825	2128.534	2198.783
148.687	30.942	2128.380	2199.759
149.702	31.073	2127.942	2200.595
150.716	31.129	2127.118	2200.138
151.731	31.172	2126.622	2199.868
152.746	31.411	2125.394	2201.171
153.760	31.070	2124.601	2196.043
154.775	31.589	2125.630	2202.986
155.789	31.872	2124.198	2204.583
156.804	31.212	2118.345	2190.466
157.819	30.806	2114.026	2180.962
158.833	30.970	2111.707	2180.236
159.848	31.196	2110.435	2181.324
160.862	31.245	2109.241	2180.393
161.877	31.370	2108.527	2180.864
162.892	31.568	2109.232	2183.656
163.906	31.921	2107.829	2186.081
164.921	32.011	2106.083	2185.065
165.935	32.019	2104.163	2182.905
166.950	31.801	2102.387	2178.246
167.964	31.417	2099.471	2170.482
168.979	31.259	2096.366	2165.175
169.994	31.378	2096.044	2165.974
171.008	31.468	2093.691	2164.330
172.023	31.287	2092.728	2160.972
173.037	31.642	2091.304	2163.361
174.052	31.823	2090.807	2164.689
175.067	31.683	2088.716	2160.640
176.081	31.504	2087.304	2156.847
177.096	31.417	2086.313	2154.558
178.110	31.212	2084.502	2150.054
179.125	31.335	2082.725	2149.394
180.140	31.740	2082.246	2153.324
181.154	31.819	2081.450	2153.157
182.169	31.699	2080.010	2150.023
183.183	31.799	2080.386	2151.301
184.198	32.987	2081.455	2165.851
185.213	32.845	2077.908	2160.276
186.227	31.886	2074.142	2145.078
187.242	31.590	2071.887	2139.092
188.256	31.425	2070.533	2135.539
189.271	31.605	2068.490	2135.242
190.286	31.757	2067.031	2135.222
191.300	31.624	2064.061	2130.373
192.315	31.207	2061.612	2122.834
193.329	31.487	2062.114	2126.293
194.344	31.948	2061.130	2130.281
195.359	32.296	2060.544	2133.398
196.373	32.432	2058.721	2132.808
197.388	31.976	2055.577	2124.107
198.402	31.716	2052.571	2117.783
199.417	31.555	2050.390	2113.458
200.432	31.611	2049.207	2112.621
201.446	31.434	2048.188	2109.314
202.461	31.304	2045.431	2104.744
203.475	31.142	2043.533	2100.702
204.490	31.136	2041.918	2098.730
205.504	31.294	2039.730	2098.008
206.519	31.201	2037.468	2094.380
207.534	31.350	2035.602	2093.896
208.548	31.649	2034.506	2095.881
209.563	31.041	2032.194	2086.411
210.577	31.008	2031.354	2084.932
211.592	31.767	2032.030	2093.900
212.607	31.607	2031.482	2091.296
213.621	30.612	2029.002	2077.322
214.636	30.934	2028.352	2080.024
215.650	31.454	2026.100	2083.288
216.665	31.422	2024.380	2080.908
217.680	31.545	2023.719	2081.354
218.694	31.612	2022.293	2080.389
219.709	31.486	2020.361	2076.752
220.723	31.580	2019.928	2077.101
221.738	31.912	2017.940	2078.516
222.753	32.035	2015.462	2077.074
223.767	31.686	2013.568	2070.995
224.782	31.398	2011.479	2065.409
225.796	31.278	2010.451	2062.767
226.811	31.773	2008.843	2066.359
227.826	31.880	2008.511	2066.953
228.840	31.812	2006.381	2063.771
229.855	31.555	2004.969	2059.230
230.869	31.318	2001.781	2053.088
231.884	30.904	2000.859	2047.323
232.899	31.013	2000.261	2047.671
233.913	31.340	2000.199	2050.969
234.928	31.514	1999.164	2051.578
235.942	31.781	1997.126	2052.183
236.957	31.779	1995.340	2050.085
237.972	31.760	1994.357	2048.619
238.986	31.762	1993.220	2047.228
240.001	31.612	1991.681	2043.753
241.015	31.517	1990.439	2041.191
242.030	31.818	1991.538	2045.378
243.045	33.129	1993.375	2061.395
244.059	33.801	1992.445	2067.546
245.074	32.765	1985.110	2048.391
246.088	31.910	1982.449	2036.075
247.103	31.898	1981.557	2034.784
248.117	31.971	1979.816	2033.538
249.132	31.855	1977.546	2029.701
250.147	31.739	1975.051	2025.640
251.161	31.461	1973.459	2020.752
252.176	31.678	1971.600	2020.956
253.190	31.508	1969.656	2016.877
254.205	31.559	1968.350	2015.850
255.220	31.727	1967.381	2016.435
256.234	31.804	1966.174	2015.796
257.249	31.680	1964.349	2012.345
258.263	31.416	1963.671	2008.559
259.278	31.686	1963.286	2010.832
260.293	31.648	1961.916	2008.778
261.307	31.576	1959.501	2005.286
262.322	31.473	1957.869	2002.275
263.336	31.091	1955.276	1995.277
264.351	30.956	1953.250	1991.516
265.366	31.152	1951.795	1991.898
266.380	31.331	1951.899	1993.684
267.395	31.109	1949.921	1989.050
268.409	31.132	1948.253	1987.354
269.424	31.565	1948.063	1991.557
270.439	31.873	1947.160	1993.692
271.453	32.092	1946.931	1995.556
272.468	32.656	1947.557	2001.986
273.482	32.513	1944.875	1997.463
274.497	31.660	1940.294	1983.444
275.512	31.477	1937.374	1978.273
276.526	31.375	1935.399	1974.932
277.541	31.395	1932.782	1972.244
278.555	31.262	1930.993	1968.771
279.570	31.051	1928.805	1964.071
280.585	31.020	1927.938	1962.626
281.599	31.072	1927.132	1962.117
282.614	31.449	1925.617	1964.322
283.628	31.723	1925.567	1966.925
284.643	32.020	1925.766	1970.030
285.657	32.126	1924.167	1969.279
286.672	31.925	1922.257	1964.970
287.687	31.828	1920.339	1961.756
288.701	31.600	1918.657	1957.409
289.716	31.549	1917.357	1955.306
290.730	31.819	1915.938	1956.458
291.745	31.999	1914.130	1956.267
292.760	31.987	1912.928	1954.683
293.774	31.747	1912.152	1951.137
294.789	31.707	1912.139	1950.469
295.803	31.647	1909.851	1947.279
296.818	31.708	1908.967	1946.780
297.833	31.937	1908.552	1948.520
298.847	32.109	1907.021	1948.518
299.862	31.999	1905.556	1945.640
300.876	32.351	1905.068	1948.576
301.891	33.172	1906.053	1957.894
302.906	32.932	1903.225	1952.266
303.920	32.218	1900.483	1941.810
304.935	31.842	1896.987	1934.104
305.949	31.819	1895.603	1932.219
306.964	32.284	1895.505	1936.706
307.979	32.229	1892.684	1933.021
308.993	31.661	1889.238	1923.412
310.008	31.497	1888.119	1920.353
311.022	31.908	1888.046	1924.282
312.037	31.916	1886.366	1922.422
313.052	31.813	1884.486	1919.216
314.066	31.640	1882.078	1914.752
315.081	31.640	1881.764	1914.210
316.095	31.668	1880.886	1913.378
317.110	31.609	1878.421	1910.036
318.125	31.483	1875.829	1905.882
319.139	31.277	1875.410	1903.111
320.154	31.659	1874.561	1905.933
321.168	31.609	1872.977	1903.587
322.183	31.623	1872.265	1902.772
323.197	31.857	1871.958	1904.627
324.212	32.044	1869.180	1903.476
325.227	31.619	1866.941	1896.645
326.241	31.550	1866.220	1894.981
327.256	31.808	1865.043	1896.185
328.270	31.601	1864.477	1893.272
329.285	31.716	1864.000	1893.731
330.300	32.025	1864.111	1896.754
331.314	32.122	1863.427	1896.823
332.329	32.240	1862.068	1896.406
333.343	32.042	1858.797	1890.840
334.358	31.938	1856.591	1887.323
335.373	32.102	1854.832	1886.964
336.387	32.055	1853.384	1884.789
337.402	31.895	1851.875	1881.420
338.416	31.870	1850.545	1879.589
339.431	32.043	1848.535	1879.064
340.446	32.327	1847.342	1880.485
341.460	32.251	1846.647	1878.788
342.475	32.301	1844.613	1876.995
343.489	31.840	1841.618	1869.104
344.504	31.551	1840.739	1865.091
345.519	31.777	1839.203	1865.569
346.533	31.842	1837.157	1863.920
347.548	31.792	1835.597	1861.622
348.562	31.773	1834.232	1859.818
349.577	31.907	1835.425	1862.151
350.592	32.050	1834.506	1862.419
351.606	32.346	1833.249	1863.871
352.621	32.418	1831.235	1862.312
353.635	32.112	1829.123	1856.898
354.650	31.810	1827.758	1852.294
355.665	31.700	1826.036	1849.234
356.679	31.869	1825.131	1849.776
357.694	31.885	1824.114	1848.685
358.708	31.932	1822.705	1847.497
359.723	32.162	1823.023	1849.872
360.738	32.164	1821.067	1847.688
361.752	31.957	1819.137	1843.467
362.767	31.714	1815.877	1837.546
363.781	31.570	1814.194	1834.204
364.796	31.715	1813.347	1834.556
365.810	31.635	1811.930	1832.117
366.825	31.241	1809.784	1825.856
367.840	31.326	1809.075	1825.751
368.854	31.295	1807.730	1823.871
369.869	31.243	1806.125	1821.523
370.883	31.301	1804.261	1819.999
371.898	31.209	1803.505	1818.116
372.913	31.520	1802.849	1820.280
373.927	31.663	1801.053	1819.648
374.942	31.658	1800.495	1818.817
375.956	31.837	1799.327	1819.167
376.971	31.528	1796.269	1812.841
377.986	31.496	1795.987	1812.033
379.000	31.683	1795.823	1813.474
380.015	32.050	1794.534	1815.518
381.029	32.103	1792.084	1813.338
382.044	31.897	1790.532	1809.556
383.059	32.073	1789.116	1809.607
384.073	31.721	1787.995	1804.855
385.088	31.695	1786.532	1802.912
386.102	31.831	1785.998	1803.468
387.117	32.054	1785.216	1804.617
388.132	32.111	1784.257	1803.982
389.146	32.102	1784.169	1803.587
390.161	32.113	1782.500	1801.792
391.175	32.211	1779.066	1799.052
392.190	31.954	1775.174	1792.434
393.205	31.570	1773.291	1786.635
394.219	31.834	1771.264	1786.902
395.234	31.544	1770.420	1783.058
396.248	31.502	1768.664	1780.674
397.263	31.451	1766.893	1778.193
398.278	31.220	1765.225	1774.092
399.292	31.127	1763.017	1770.782
400.307	31.579	1764.181	1776.049
401.321	31.796	1763.154	1776.872
402.336	31.712	1761.472	1774.164
403.350	31.715	1759.818	1772.309
404.365	32.075	1758.539	1774.230
405.380	32.229	1758.244	1775.190
406.394	32.047	1756.915	1771.904
407.409	31.624	1755.418	1766.170
408.423	31.546	1753.292	1763.080
409.438	31.710	1751.883	1763.004
410.453	31.511	1750.979	1759.999
411.467	31.443	1750.150	1758.319
412.482	31.727	1748.536	1759.170
413.496	31.698	1748.264	1758.411
414.511	31.700	1746.080	1756.019
415.526	31.700	1743.664	1753.380
416.540	32.173	1743.060	1757.011
417.555	32.076	1741.401	1754.220
418.569	31.852	1740.952	1751.455
419.584	31.881	1741.428	1751.992
420.599	31.912	1740.611	1751.253
421.613	31.500	1738.510	1745.070
422.628	31.448	1737.346	1743.200
423.642	31.945	1736.266	1746.560
424.657	31.966	1734.083	1744.358
425.672	31.359	1732.599	1736.979
426.686	31.681	1731.821	1739.000
427.701	31.876	1731.200	1739.985
428.715	32.229	1730.498	1742.364
429.730	32.773	1729.751	1746.465
430.745	33.146	1729.208	1749.185
431.759	33.152	1727.796	1747.596
432.774	32.228	1724.640	1735.624
433.788	29.797	1719.027	1707.247
434.803	28.280	1714.659	1688.651
435.818	28.002	1713.640	1684.868
436.832	27.759	1713.256	1682.039
437.847	27.051	1706.812	1668.974
438.861	17.813	1678.888	1557.129
439.876	4.165	1654.096	1409.846
440.890	0.823	1647.605	1373.670
441.905	0.396	1646.033	1368.308
442.920	0.319	1645.184	1366.731
443.934	0.274	1643.799	1365.010
444.949	0.333	1641.756	1363.683
445.963	0.319	1640.964	1362.741
446.978	0.340	1640.976	1362.770
447.993	0.273	1640.262	1361.408
449.007	0.418	1636.820	1359.705
450.022	0.328	1635.060	1357.263
451.036	0.329	1634.150	1356.352
452.051	1.452	1640.054	1371.286
453.066	12.293	1666.557	1492.781
454.080	24.955	1686.977	1627.305
455.095	29.015	1694.905	1671.925
456.109	31.948	1699.798	1703.367
457.124	33.338	1700.308	1716.346
458.139	32.163	1697.086	1702.197
459.153	31.374	1694.429	1692.148
460.168	31.161	1692.673	1688.257
461.182	31.346	1691.874	1688.942
462.197	31.513	1690.445	1688.823
463.212	31.371	1689.117	1686.014
464.226	31.491	1687.965	1685.746
465.241	31.721	1687.852	1687.516
466.255	31.999	1687.289	1689.264
467.270	32.044	1685.365	1687.543
468.285	32.006	1683.964	1685.600
469.299	32.139	1682.782	1685.408
470.314	32.451	1681.708	1686.941
471.328	32.556	1681.093	1687.073
472.343	32.687	1680.463	1687.420
473.358	32.974	1678.494	1687.818
474.372	32.990	1678.558	1687.822
475.387	33.481	1678.144	1691.610
476.401	33.577	1676.282	1690.394
477.416	33.306	1674.777	1686.242
478.430	33.376	1672.938	1684.816
479.445	33.493	1671.665	1684.376
480.460	33.294	1670.823	1681.552
481.474	33.149	1670.073	1679.303
482.489	33.560	1669.402	1682.096
483.503	33.379	1667.379	1678.241
484.518	32.883	1665.528	1671.765
485.533	33.183	1665.022	1673.727
486.547	33.459	1663.659	1674.608
487.562	33.270	1662.313	1671.371
488.576	33.470	1661.834	1672.466
489.591	33.947	1660.623	1675.269
490.606	34.063	1659.314	1674.776
491.620	34.044	1657.777	1672.863
492.635	33.941	1656.022	1669.975
493.649	33.400	1653.531	1662.498
494.664	32.795	1651.491	1654.911
495.679	32.468	1650.140	1650.477
496.693	32.519	1648.012	1648.597
497.708	32.762	1647.174	1649.705
498.722	32.852	1646.689	1649.806
499.737	32.973	1645.875	1649.856
500.752	32.947	1643.958	1647.517
501.766	32.615	1642.188	1642.637
502.781	32.771	1640.359	1641.976
503.795	32.674	1638.841	1639.410
504.810	32.366	1638.034	1635.709
505.825	32.474	1637.500	1635.928
506.839	32.404	1635.629	1633.253
507.854	32.348	1634.604	1631.542
508.868	32.365	1632.020	1628.921
509.883	31.890	1631.263	1623.833
510.898	31.872	1630.029	1622.258
511.912	31.762	1627.004	1618.099
512.927	31.444	1624.962	1613.117
513.941	31.357	1624.264	1611.475
514.956	32.021	1625.276	1618.044
515.971	33.109	1625.702	1627.693
516.985	32.751	1623.183	1621.884
518.000	31.835	1621.280	1611.880
519.014	31.729	1619.748	1609.245
520.029	31.677	1617.225	1606.099
521.043	31.597	1616.182	1604.184
522.058	31.589	1615.112	1602.852
523.073	31.621	1614.080	1601.918
524.087	31.875	1614.311	1604.141
525.102	31.981	1612.810	1603.365
526.116	32.058	1612.277	1603.307
527.131	32.385	1611.205	1604.852
528.146	32.436	1611.087	1604.981
529.160	32.509	1609.914	1604.239
530.175	32.773	1608.662	1605.063
531.189	32.934	1607.913	1605.500
532.204	32.929	1607.006	1604.355
533.219	32.861	1606.075	1602.651
534.233	32.939	1604.858	1601.918
535.248	33.084	1603.607	1601.705
536.262	33.200	1603.043	1601.946
537.277	33.695	1603.027	1605.945
538.292	34.059	1601.855	1607.671
539.306	34.003	1600.318	1605.461
540.321	33.798	1597.818	1601.028
541.335	33.304	1596.191	1595.021
542.350	33.681	1595.438	1597.269
543.365	34.015	1594.730	1599.192
544.379	34.207	1592.943	1598.833
545.394	33.956	1591.433	1595.009
546.408	33.469	1589.388	1588.660
547.423	33.159	1587.597	1584.073
548.438	32.922	1586.862	1581.156
549.452	33.188	1586.069	1582.411
550.467	33.267	1585.055	1581.878
551.481	33.098	1583.761	1578.977
552.496	33.050	1582.430	1577.054
553.511	32.841	1581.572	1574.262
554.525	32.768	1579.825	1571.722
555.540	32.630	1578.646	1569.204
556.554	32.576	1577.623	1567.550
557.569	32.458	1575.757	1564.524
558.583	32.226	1574.559	1561.207
559.598	32.265	1573.180	1559.982
560.613	32.355	1572.023	1559.391
561.627	32.263	1571.041	1557.469
562.642	32.151	1568.432	1553.763
563.656	31.775	1566.345	1548.386
564.671	31.531	1565.148	1544.993
565.686	31.465	1564.093	1543.219
566.700	31.492	1562.421	1541.610
567.715	31.757	1561.026	1542.246
568.729	32.007	1561.494	1544.585
569.744	32.616	1561.275	1549.223
570.759	33.063	1559.895	1551.356
571.773	32.518	1558.318	1545.107
572.788	31.994	1556.614	1538.915
573.802	31.836	1554.483	1535.325
574.817	31.598	1552.417	1531.146
575.832	31.653	1550.736	1529.753
576.846	31.850	1550.460	1530.912
577.861	32.208	1550.435	1533.650
578.875	32.372	1549.552	1533.933
579.890	32.244	1548.723	1531.878
580.905	32.463	1548.179	1532.948
581.919	32.660	1547.403	1533.610
582.934	32.730	1546.386	1532.996
583.948	32.684	1545.332	1531.387
584.963	32.658	1544.201	1529.868
585.978	32.838	1543.099	1530.062
586.992	32.960	1542.668	1530.448
588.007	32.992	1542.336	1530.191
589.021	33.145	1540.475	1529.413
590.036	32.497	1538.188	1521.693
591.051	32.668	1538.026	1522.743
592.065	33.018	1537.097	1524.480
593.080	33.239	1535.543	1524.545
594.094	33.394	1534.429	1524.514
595.109	33.341	1532.594	1522.078
596.123	33.117	1530.696	1518.205
597.138	33.091	1530.482	1517.594
598.153	33.183	1528.124	1515.816
599.167	33.086	1526.938	1513.677
600.182	32.989	1526.233	1512.017
601.196	32.955	1525.339	1510.678
602.211	33.013	1523.723	1509.366
603.226	32.620	1521.948	1504.270
604.240	32.741	1520.590	1503.721
605.255	32.704	1519.603	1502.268
606.269	32.568	1518.366	1499.773
607.284	32.382	1517.153	1496.909
608.299	32.259	1515.284	1493.906
609.313	32.406	1513.450	1493.094
610.328	32.305	1512.378	1491.048
611.342	32.104	1511.181	1488.089
612.357	31.998	1510.173	1486.079
613.372	31.927	1509.127	1484.303
614.386	32.012	1507.775	1483.474
615.401	31.895	1507.380	1481.974
616.415	31.622	1505.777	1478.058
617.430	31.397	1504.709	1475.050
618.445	31.310	1503.620	1473.112
619.459	31.264	1502.292	1471.271
620.474	31.559	1500.932	1472.101
621.488	32.186	1501.934	1477.862
622.503	33.076	1502.497	1485.276
623.518	32.367	1499.045	1476.091
624.532	31.516	1496.373	1466.583
625.547	31.271	1495.257	1463.383
626.561	31.121	1493.758	1460.560
627.576	30.915	1492.817	1457.849
628.591	31.494	1492.958	1462.365
629.605	32.241	1492.893	1467.990
630.620	32.749	1492.343	1471.261
631.634	33.702	1493.131	1479.334
632.649	33.571	1492.094	1477.104
633.663	32.810	1488.916	1467.832
634.678	31.822	1485.913	1456.981
635.693	31.273	1482.533	1449.210
636.707	31.073	1481.186	1446.159
637.722	30.918	1480.225	1443.842
638.736	31.146	1479.509	1444.750
639.751	31.636	1478.896	1447.786
640.766	31.760	1477.830	1447.531
641.780	31.687	1476.323	1445.316
642.795	31.696	1476.587	1445.474
643.809	32.022	1476.289	1447.534
644.824	32.170	1476.120	1448.339
645.839	32.342	1475.536	1448.927
646.853	32.302	1473.768	1446.707
647.868	32.277	1473.110	1445.700
648.882	32.598	1472.067	1446.982
649.897	32.782	1469.996	1446.187
650.912	32.589	1469.581	1444.123
651.926	32.696	1468.292	1443.503
652.941	32.796	1466.768	1442.600
653.955	32.510	1464.815	1438.309
654.970	32.059	1462.508	1432.418
655.985	31.679	1461.355	1428.207
656.999	31.395	1459.074	1423.633
658.014	31.481	1458.548	1423.604
659.028	31.669	1458.508	1424.836
660.043	32.272	1458.696	1429.457
661.058	32.639	1457.423	1430.836
662.072	32.721	1456.540	1430.424
663.087	32.728	1455.462	1429.250
664.101	32.575	1453.748	1426.232
665.116	32.571	1452.618	1424.919
666.131	32.385	1451.344	1422.088
667.145	32.455	1449.864	1421.002
668.160	32.264	1447.757	1417.317
669.174	32.016	1446.203	1413.747
670.189	31.910	1446.011	1412.591
671.204	32.076	1445.356	1413.034
672.218	32.110	1444.499	1412.288
673.233	32.228	1443.090	1411.631
674.247	31.785	1441.766	1406.821
675.262	31.602	1439.907	1403.464
676.276	31.374	1439.333	1401.019
677.291	31.416	1439.860	1401.679
678.306	31.908	1438.105	1403.507
679.320	31.901	1436.146	1401.374
680.335	31.300	1435.005	1395.581
681.349	31.396	1434.266	1395.412
682.364	31.429	1432.599	1393.873
683.379	31.320	1430.960	1391.297
684.393	31.161	1429.878	1388.885
685.408	31.141	1428.423	1387.156
686.422	31.071	1427.907	1385.966
687.437	30.946	1426.559	1383.562
688.452	30.565	1425.432	1379.464
689.466	30.625	1423.955	1378.311
690.481	30.674	1422.772	1377.370
691.495	31.162	1422.979	1381.034
692.510	32.208	1425.294	1390.901
693.525	33.271	1424.678	1398.035
694.539	32.824	1421.505	1391.443
695.554	31.265	1418.784	1377.066
696.568	30.597	1416.779	1370.013
697.583	30.426	1415.391	1367.239
698.598	30.592	1414.918	1367.849
699.612	30.603	1413.813	1366.693
700.627	30.566	1412.819	1365.300
701.641	31.146	1411.423	1368.064
702.656	31.281	1411.070	1368.550
703.671	31.266	1410.581	1367.805
704.685	31.266	1410.044	1367.116
705.700	31.547	1410.053	1369.031
706.714	31.662	1409.171	1368.857
707.729	31.963	1407.868	1369.637
708.744	31.997	1406.719	1368.601
709.758	31.906	1404.539	1365.654
710.773	31.258	1402.511	1358.780
711.787	31.081	1401.471	1356.313
712.802	31.554	1400.612	1358.775
713.816	31.845	1400.521	1360.644
714.831	32.029	1399.533	1360.867
715.846	31.827	1397.338	1357.101
716.860	31.658	1395.977	1354.387
717.875	31.593	1395.585	1353.368
718.889	31.726	1395.125	1353.729
719.904	31.466	1394.103	1350.691
720.919	31.520	1392.315	1349.187
721.933	31.394	1390.853	1346.692
722.948	31.339	1389.411	1344.736
723.962	31.206	1388.722	1342.952
724.977	31.094	1387.453	1340.754
725.992	31.123	1386.167	1339.561
727.006	31.355	1385.289	1340.221
728.021	31.134	1384.289	1337.501
729.035	30.935	1382.833	1334.501
730.050	31.017	1381.727	1333.866
731.065	31.063	1380.974	1333.313
732.079	30.832	1379.622	1330.186
733.094	30.892	1378.105	1328.994
734.108	31.131	1377.014	1329.499
735.123	31.082	1375.377	1327.404
736.138	30.856	1374.329	1324.619
737.152	30.816	1373.244	1323.130
738.167	30.729	1372.119	1321.266
739.181	30.635	1371.597	1319.932
740.196	30.672	1370.423	1318.910
741.211	30.534	1369.328	1316.719
742.225	30.582	1368.527	1316.129
743.240	30.448	1367.319	1313.856
744.254	30.313	1365.818	1311.303
745.269	30.231	1363.986	1308.805
746.284	30.165	1363.397	1307.613
747.298	30.270	1363.206	1308.016
748.313	30.604	1363.147	1310.173
749.327	31.239	1364.190	1315.513
750.342	32.216	1365.268	1323.318
751.356	33.054	1365.422	1329.233
752.371	32.842	1361.975	1324.223
753.386	31.303	1358.855	1310.191
754.400	30.433	1356.638	1301.776
755.415	30.573	1355.208	1301.233
756.429	30.627	1354.053	1300.349
757.444	30.909	1353.372	1301.512
758.459	30.608	1352.913	1298.806
759.473	30.555	1350.997	1296.438
760.488	30.846	1349.296	1296.688
761.502	30.708	1348.697	1294.994
762.517	30.998	1347.686	1295.896
763.532	31.240	1346.833	1296.605
764.546	31.080	1346.152	1294.682
765.561	30.763	1345.062	1291.270
766.575	30.500	1343.594	1287.870
767.590	30.464	1342.499	1286.420
768.605	30.930	1342.258	1289.276
769.619	31.166	1341.163	1289.709
770.634	31.284	1340.055	1289.308
771.648	30.796	1338.381	1284.159
772.663	30.678	1336.977	1281.843
773.678	30.386	1336.800	1279.495
774.692	30.558	1336.045	1279.810
775.707	30.727	1334.855	1279.688
776.721	30.443	1334.120	1276.865
777.736	30.314	1332.675	1274.438
778.751	30.252	1331.948	1273.165
779.765	30.374	1331.080	1273.020
780.780	30.096	1330.040	1269.958
781.794	30.325	1328.873	1270.273
782.809	30.140	1328.090	1268.101
783.824	29.957	1326.459	1265.133
784.838	30.391	1326.400	1267.907
785.853	31.639	1327.081	1276.969
786.867	31.430	1326.129	1274.462
787.882	30.707	1323.796	1267.126
788.897	30.419	1322.345	1263.612
789.911	30.181	1321.137	1260.684
790.926	29.951	1319.587	1257.484
791.940	30.045	1317.689	1256.161
792.955	29.813	1316.514	1253.310
793.969	29.707	1315.935	1251.888
794.984	30.002	1314.548	1252.426
795.999	30.020	1314.238	1252.106
797.013	29.908	1312.744	1249.771
798.028	30.099	1310.912	1249.172
799.042	30.122	1310.399	1248.688
800.057	29.965	1309.942	1247.042
801.072	30.201	1308.462	1247.076
802.086	30.212	1307.187	1245.784
803.101	30.157	1305.692	1243.840
804.115	29.954	1305.449	1242.095
805.130	30.108	1304.647	1242.220
806.145	30.079	1303.676	1240.947
807.159	30.165	1302.380	1240.150
808.174	30.462	1301.559	1241.213
809.188	30.630	1300.782	1241.450
810.203	30.576	1299.454	1239.675
811.218	30.365	1297.877	1236.605
812.232	30.247	1296.751	1234.596
813.247	30.059	1295.518	1232.016
814.261	30.245	1295.775	1233.357
815.276	30.287	1295.085	1232.832
816.291	30.309	1292.786	1230.648
817.305	30.227	1291.277	1228.517
818.320	29.743	1290.854	1224.747
819.334	30.042	1289.265	1225.076
820.349	29.964	1288.228	1223.426
821.364	29.822	1286.849	1221.028
822.378	30.012	1284.865	1220.260
823.393	29.788	1283.140	1216.994
824.407	29.797	1282.173	1215.992
825.422	29.673	1281.663	1214.539
826.437	29.643	1281.698	1214.228
827.451	29.555	1280.448	1212.324
828.466	30.280	1280.441	1216.954
829.480	31.243	1279.579	1222.329
830.495	30.720	1276.376	1215.691
831.509	30.017	1274.371	1209.023
832.524	29.543	1273.553	1204.995
833.539	29.586	1272.607	1204.233
834.553	29.588	1270.836	1202.427
835.568	29.500	1270.330	1201.229
836.582	29.524	1269.651	1200.601
837.597	29.699	1268.423	1200.438
838.612	29.773	1267.113	1199.536
839.626	29.944	1266.184	1199.630
840.641	29.946	1265.804	1199.140
841.655	30.015	1265.232	1198.900
842.670	29.942	1263.521	1196.660
843.685	29.820	1262.257	1194.531
844.699	29.875	1261.159	1193.705
845.714	30.037	1260.140	1193.646
846.728	29.725	1259.162	1190.559
847.743	29.793	1257.777	1189.545
848.758	29.579	1256.828	1187.126
849.772	29.652	1255.796	1186.477
850.787	29.572	1253.862	1183.995
851.801	29.586	1252.522	1182.676
852.816	29.452	1251.556	1180.763
853.831	29.437	1250.012	1179.070
854.845	29.298	1248.644	1176.743
855.860	29.409	1247.484	1176.220
856.874	29.645	1246.439	1176.606
857.889	29.915	1246.721	1178.461
858.904	30.493	1246.403	1181.712
859.918	31.324	1245.343	1185.873
860.933	31.786	1244.537	1187.904
861.947	31.108	1242.608	1181.610
862.962	30.210	1240.387	1173.649
863.977	29.975	1239.233	1170.919
864.991	29.612	1238.139	1167.441
866.006	29.455	1237.389	1165.601
867.020	29.497	1235.359	1163.811
868.035	29.325	1234.283	1161.572
869.049	29.339	1233.721	1160.990
870.064	29.478	1233.193	1161.231
871.079	29.490	1232.302	1160.333
872.093	29.470	1231.961	1159.745
873.108	29.578	1230.849	1159.243
874.122	29.652	1229.615	1158.406
875.137	29.456	1229.078	1156.529
876.152	29.593	1228.271	1156.492
877.166	29.597	1226.721	1154.918
878.181	29.469	1225.367	1152.706
879.195	29.355	1224.234	1150.785
880.210	29.387	1223.522	1150.177
881.225	29.280	1223.196	1149.064
882.239	29.426	1221.720	1148.450
883.254	29.420	1220.855	1147.466
884.268	29.279	1219.732	1145.392
885.283	29.464	1218.441	1145.197
886.298	29.506	1217.066	1144.026
887.312	29.322	1215.814	1141.567
888.327	29.436	1215.140	1141.509
889.341	29.340	1213.833	1139.546
890.356	29.417	1212.847	1138.966
891.371	29.387	1213.067	1138.848
892.385	29.314	1212.164	1137.413
893.400	29.537	1211.101	1137.658
894.414	29.573	1210.660	1137.331
895.429	29.985	1210.157	1139.268
896.444	31.144	1210.807	1146.909
897.458	32.268	1210.423	1153.349
898.473	31.609	1208.287	1147.114
899.487	30.469	1205.589	1137.404
900.502	29.728	1204.060	1131.271
901.517	29.338	1202.428	1127.206
902.531	29.400	1200.768	1125.898
903.546	29.463	1200.168	1125.583
904.560	29.443	1199.631	1124.824
905.575	29.232	1198.953	1122.759
906.589	29.372	1197.894	1122.492
907.604	29.365	1197.261	1121.721
