DTS Sentinel unit serial number:	SN409020Multiplexer serial number:	ORYXHardware model number:	OX4-SRSoftware version number:	ORYX F/W v3.00 Oryx Data Collector v3.7.2.0data status	okinstallation	HaddamTimeLapsedifferential loss correction	single-endedforward channel	channel 3reverse channel	N/Adate	2011/06/21time	14:46:17forward acquisition time	30.00reverse acquisition time	0.00gamma	498.7831k internal	0.1816k external	0.1816temperature offset calibration	1.0074default loss term (dB/km)	0.3790temperature slope calibration	1.3530multiplexer offset coefficient	1.0000multiplexer slope coefficient	1.0000fibre end	0.00T internal ref (°C)	38.37T ext. ref 1 (°C)	29.28T ext. ref 2 (°C)	0.23length (m)	temperature (°C)	Stokes	anti-Stokes-747.200	-43.642	0.401	-0.258
-746.185	-200.000	-0.041	0.268
-745.171	-59.582	-0.365	-0.200
-744.156	-120.404	0.302	0.065
-743.142	-20.187	-0.219	-0.172
-742.127	-110.692	0.414	0.109
-741.112	277.557	-0.179	-0.409
-740.098	-119.764	-0.265	-0.058
-739.083	74.729	0.200	0.270
-738.069	-76.639	0.186	-0.083
-737.054	-47.756	-0.305	-0.189
-736.039	-13.047	0.219	-0.182
-735.025	9.571	0.187	-0.181
-734.010	-37.511	0.233	-0.159
-732.996	99.986	0.299	0.445
-731.981	83.075	0.270	-0.377
-730.966	-137.940	-0.299	-0.042
-729.952	-26.300	-0.163	-0.122
-728.937	56.450	-0.076	-0.095
-727.923	176.470	0.053	0.100
-726.908	-28.168	-0.312	-0.230
-725.894	-157.301	-0.371	-0.028
-724.879	45.414	-0.199	0.235
-723.864	-47.228	-0.329	0.204
-722.850	-27.437	0.083	-0.062
-721.835	2.957	0.193	-0.179
-720.821	-11.278	-0.294	-0.248
-719.806	-25.753	0.255	0.192
-718.791	40.020	-0.159	-0.182
-717.777	79.165	-0.221	0.304
-716.762	800.000	-0.117	0.493
-715.748	-91.923	-0.334	0.121
-714.733	17.107	-0.139	0.141
-713.718	271.903	-0.055	0.124
-712.704	183.183	-0.142	0.269
-711.689	-200.000	0.008	-0.318
-710.675	7.788	0.279	-0.267
-709.660	800.000	0.104	0.423
-708.645	-164.521	0.221	-0.013
-707.631	-200.000	0.007	0.200
-706.616	64.111	-0.258	0.332
-705.602	140.412	-0.071	-0.120
-704.587	-40.035	0.326	0.217
-703.572	-106.252	-0.244	0.070
-702.558	-28.195	-0.138	0.101
-701.543	-200.000	-0.016	-0.676
-700.529	125.956	-0.172	0.279
-699.514	-46.658	-0.292	-0.182
-698.499	-28.181	0.458	-0.338
-697.485	-33.759	0.276	-0.194
-696.470	800.000	0.072	0.397
-695.456	-128.046	-0.347	0.063
-694.441	58.983	-0.148	0.186
-693.426	-200.000	-0.010	0.121
-692.412	104.638	-0.074	-0.112
-691.397	800.000	-0.045	-0.225
-690.383	-200.000	-0.010	0.133
-689.368	-150.132	-0.387	0.038
-688.354	800.000	-0.110	-0.509
-687.339	123.554	0.119	-0.191
-686.324	305.567	-0.141	-0.336
-685.310	-38.721	-0.445	-0.299
-684.295	-200.000	0.030	0.317
-683.281	-200.000	-0.039	0.326
-682.266	-152.324	-0.216	0.020
-681.251	38.159	-0.186	0.212
-680.237	-131.202	0.195	-0.033
-679.222	-9.122	0.290	-0.247
-678.208	-117.600	0.393	-0.090
-677.193	-60.585	0.167	-0.090
-676.178	340.914	0.138	-0.346
-675.164	216.073	-0.116	-0.236
-674.149	-12.580	-0.071	-0.059
-673.135	58.409	-0.211	0.265
-672.120	-200.000	-0.052	0.361
-671.105	-77.239	-0.210	-0.093
-670.091	-200.000	-0.023	-0.189
-669.076	216.924	-0.181	-0.370
-668.062	24.497	0.218	0.230
-667.047	-78.987	-0.210	-0.091
-666.032	224.724	-0.135	-0.280
-665.018	-157.359	0.486	-0.037
-664.003	-107.851	0.155	0.043
-662.989	-200.000	0.060	-0.396
-661.974	106.539	-0.146	-0.221
-660.959	279.551	0.160	0.365
-659.945	260.491	-0.106	0.234
-658.930	-4.974	0.291	0.256
-657.916	-200.000	-0.009	0.234
-656.901	-76.569	-0.301	0.134
-655.886	92.182	0.082	0.118
-654.872	-158.401	0.584	-0.043
-653.857	68.153	-0.328	0.429
-652.843	-96.714	-0.351	0.117
-651.828	212.014	-0.116	-0.233
-650.814	-4.480	0.255	0.225
-649.799	-125.942	0.197	-0.038
-648.784	-172.799	0.160	0.006
-647.770	-83.007	-0.282	0.115
-646.755	-145.491	-0.724	-0.082
-645.741	-151.980	-0.562	-0.052
-644.726	730.122	0.043	-0.149
-643.711	-200.000	-0.030	0.203
-642.697	-200.000	0.015	-0.428
-641.682	-63.773	-0.347	0.181
-640.668	129.562	0.044	0.072
-639.653	-36.194	0.259	-0.178
-638.638	514.085	-0.116	-0.348
-637.624	-90.490	-0.365	-0.134
-636.609	-141.996	-0.246	-0.031
-635.595	-200.000	-0.044	-0.275
-634.580	-117.610	0.336	-0.077
-633.565	-105.272	0.363	-0.105
-632.551	800.000	0.031	-0.166
-631.536	-138.344	0.230	-0.032
-630.522	-200.000	0.029	0.469
-629.507	-200.000	0.040	0.252
-628.492	800.000	0.076	-0.402
-627.478	43.439	-0.037	-0.043
-626.463	-171.826	0.060	-0.002
-625.449	259.000	0.099	0.219
-624.434	119.721	-0.074	-0.116
-623.419	-98.488	0.220	0.071
-622.405	-58.836	-0.187	-0.103
-621.390	-116.294	0.215	0.050
-620.376	116.608	0.055	-0.085
-619.361	153.680	0.174	0.304
-618.346	800.000	-0.029	0.144
-617.332	-33.722	-0.473	-0.332
-616.317	-39.817	0.104	0.069
-615.303	295.712	0.102	0.239
-614.288	201.801	-0.285	-0.562
-613.273	800.000	0.063	0.348
-612.259	639.009	-0.032	-0.103
-611.244	-113.828	0.311	0.076
-610.230	43.122	-0.446	-0.519
-609.215	84.335	-0.233	-0.325
-608.201	-57.529	-0.126	0.070
-607.186	-139.669	-0.226	0.030
-606.171	243.745	-0.145	-0.311
-605.157	313.405	0.142	0.341
-604.142	89.593	-0.034	-0.049
-603.128	-118.987	-0.312	-0.069
-602.113	-200.000	-0.040	0.248
-601.098	17.134	0.362	-0.365
-600.084	-60.299	-0.497	-0.268
-599.069	305.812	-0.078	-0.185
-598.055	-141.243	0.200	-0.026
-597.040	673.104	-0.113	0.374
-596.025	-35.348	0.169	0.116
-595.011	-45.546	-0.384	-0.241
-593.996	-131.291	-0.107	0.018
-592.982	101.134	0.077	0.114
-591.967	-70.084	-0.441	-0.213
-590.952	-181.627	-0.151	0.004
-589.938	-162.986	0.604	-0.037
-588.923	-110.941	-0.130	0.034
-587.909	-200.000	-0.022	-0.497
-586.894	402.021	0.098	0.265
-585.879	212.041	-0.236	0.476
-584.865	7.383	-0.367	0.349
-583.850	-22.095	-0.125	-0.097
-582.836	26.293	-0.188	-0.200
-581.821	-78.320	0.392	0.170
-580.806	513.890	0.092	0.275
-579.792	-107.328	-0.162	0.045
-578.777	-43.620	-0.389	-0.249
-577.763	420.449	-0.082	-0.224
-576.748	419.576	-0.030	-0.081
-575.733	368.123	-0.156	-0.402
-574.719	96.782	0.061	0.090
-573.704	-40.441	0.451	-0.297
-572.690	-113.863	-0.580	-0.142
-571.675	-200.000	-0.017	0.271
-570.661	257.966	0.126	0.278
-569.646	800.000	0.048	-0.250
-568.631	102.826	0.142	-0.212
-567.617	321.222	0.070	0.170
-566.602	344.535	-0.085	-0.213
-565.588	8.079	0.549	-0.523
-564.573	87.751	-0.326	-0.459
-563.558	-173.338	0.312	0.012
-562.544	-114.531	0.216	-0.052
-561.529	-200.000	0.054	-0.416
-560.515	64.487	0.054	-0.070
-559.500	-200.000	0.012	-0.519
-558.485	-168.033	-0.135	0.007
-557.471	-77.800	-0.118	0.052
-556.456	800.000	-0.037	-0.187
-555.442	596.096	-0.070	0.220
-554.427	-101.819	-0.510	0.156
-553.412	-200.000	-0.014	0.172
-552.398	67.119	-0.106	-0.137
-551.383	13.145	-0.109	-0.107
-550.369	305.782	-0.072	-0.170
-549.354	-117.065	-0.281	0.065
-548.339	-200.000	0.046	-0.344
-547.325	300.771	0.097	-0.229
-546.310	13.093	-0.269	0.265
-545.296	157.482	-0.159	0.281
-544.281	617.691	0.187	0.599
-543.266	-70.429	-0.713	0.342
-542.252	-200.000	-0.033	-0.372
-541.237	50.755	0.457	0.550
-540.223	-82.623	0.583	-0.239
-539.208	153.789	0.340	0.593
-538.193	258.462	-0.152	0.333
-537.179	-200.000	-0.009	0.218
-536.164	-3.016	0.386	0.342
-535.150	-32.291	0.183	-0.130
-534.135	49.370	0.142	-0.170
-533.121	-200.000	-0.042	-0.382
-532.106	-176.367	0.458	0.015
-531.091	-200.000	0.011	-0.169
-530.077	-8.756	-0.095	0.081
-529.062	-68.579	-0.256	0.125
-528.048	-30.653	0.233	-0.167
-527.033	-136.975	0.424	-0.061
-526.018	-180.314	-0.153	0.004
-525.004	-17.036	-0.105	-0.084
-523.989	-76.764	0.356	-0.158
-522.975	-97.148	-0.387	-0.128
-521.960	-200.000	0.056	-0.334
-520.945	-113.953	0.265	-0.065
-519.931	-198.475	0.120	0.001
-518.916	148.420	-0.113	0.194
-517.902	-32.500	-0.306	0.216
-516.887	177.262	0.172	0.319
-515.872	-200.000	-0.051	0.352
-514.858	-200.000	0.026	-0.194
-513.843	800.000	-0.069	-0.269
-512.829	800.000	-0.120	-0.530
-511.814	52.892	-0.240	0.291
-510.799	800.000	-0.028	-0.159
-509.785	-200.000	-0.005	-0.314
-508.770	-74.183	-0.403	-0.184
-507.756	77.073	0.113	-0.152
-506.741	800.000	0.041	0.192
-505.726	-15.130	0.129	-0.105
-504.712	800.000	0.060	-0.261
-503.697	-2.977	0.121	-0.108
-502.683	144.390	-0.069	-0.118
-501.668	166.852	0.174	0.314
-500.653	115.563	-0.160	-0.249
-499.639	-200.000	-0.036	-0.266
-498.624	-113.999	0.198	0.048
-497.610	-92.687	0.365	0.129
-496.595	-64.894	-0.129	-0.066
-495.581	573.448	-0.157	-0.489
-494.566	-114.206	-0.486	0.118
-493.551	199.322	-0.208	-0.406
-492.537	-50.906	0.139	-0.083
-491.522	800.000	0.020	-0.104
-490.508	-148.434	-0.261	0.027
-489.493	-200.000	-0.002	0.193
-488.478	280.412	-0.046	-0.104
-487.464	437.777	0.051	-0.143
-486.449	145.775	0.066	0.112
-485.435	-15.851	0.196	0.158
-484.420	-26.937	-0.380	-0.281
-483.405	-114.455	0.111	-0.027
-482.391	-155.304	0.144	-0.012
-481.376	-200.000	0.032	-0.330
-480.362	-132.914	-0.127	-0.020
-479.347	800.000	-0.094	-0.347
-478.332	-50.740	-0.183	-0.109
-477.318	-200.000	-0.048	0.299
-476.303	266.625	0.169	0.375
-475.289	84.430	0.239	0.331
-474.274	-114.022	0.201	0.049
-473.259	686.439	0.055	-0.182
-472.245	-25.637	0.269	-0.201
-471.230	-200.000	0.054	-0.312
-470.216	-157.101	0.346	0.026
-469.201	-140.572	-0.402	-0.052
-468.186	19.368	-0.208	-0.212
-467.172	800.000	-0.063	-0.223
-466.157	223.545	-0.082	0.169
-465.143	-200.000	0.019	0.305
-464.128	285.031	-0.164	0.376
-463.113	-200.000	-0.000	0.094
-462.099	-200.000	0.004	0.596
-461.084	34.023	0.246	0.271
-460.070	-5.495	-0.386	0.335
-459.055	50.559	-0.239	0.287
-458.040	800.000	-0.129	-0.630
-457.026	-38.441	0.162	0.108
-456.011	150.154	0.199	0.343
-454.997	23.397	-0.151	-0.157
-453.982	99.153	0.176	0.257
-452.968	0.558	0.258	0.234
-451.953	-24.676	0.169	-0.127
-450.938	377.973	0.059	0.155
-449.924	21.372	-0.042	0.043
-448.909	130.859	0.156	-0.253
-447.895	-79.341	0.446	-0.190
-446.880	800.000	-0.085	-0.321
-445.865	607.590	0.054	-0.170
-444.851	-29.784	-0.336	0.242
-443.836	800.000	-0.072	-0.285
-442.822	-200.000	-0.003	-0.456
-441.807	-200.000	-0.044	0.272
-440.792	-91.701	0.291	0.104
-439.778	63.150	-0.121	-0.154
-438.763	199.593	0.182	0.354
-437.749	-41.295	-0.621	-0.404
-436.734	-200.000	0.004	-0.386
-435.719	800.000	0.035	-0.140
-434.705	-108.116	-0.283	0.077
-433.690	-139.902	-0.443	0.059
-432.676	270.970	0.091	-0.204
-431.661	296.534	-0.055	-0.129
-430.646	-49.835	0.192	0.115
-429.632	-140.586	0.334	0.043
-428.617	-103.747	-0.152	0.045
-427.603	-96.992	0.397	-0.131
-426.588	-124.113	0.054	-0.011
-425.573	72.834	-0.402	0.531
-424.559	800.000	-0.045	0.201
-423.544	-94.048	0.265	-0.092
-422.530	-9.283	0.235	-0.199
-421.515	-150.077	-0.231	-0.022
-420.500	-37.262	0.174	0.118
-419.486	-31.709	0.101	-0.072
-418.471	223.490	-0.246	-0.503
-417.457	-200.000	-0.008	-0.206
-416.442	-64.177	0.371	0.191
-415.428	-0.090	0.269	0.242
-414.413	-73.508	-0.388	0.178
-413.398	12.501	-0.369	-0.360
-412.384	-200.000	0.043	-0.402
-411.369	57.338	0.313	0.386
-410.355	-13.770	0.688	0.562
-409.340	-26.452	0.289	0.214
-408.325	-43.953	-0.084	0.053
-407.311	147.687	-0.142	0.242
-406.296	800.000	-0.056	-0.268
-405.282	-105.454	0.353	0.101
-404.267	-87.202	-0.079	0.030
-403.252	-200.000	0.037	0.274
-402.238	800.000	-0.100	0.379
-401.223	-102.373	-0.142	0.043
-400.209	42.232	-0.283	0.324
-399.194	800.000	0.033	0.147
-398.179	-42.165	0.160	0.103
-397.165	-111.021	0.119	-0.031
-396.150	800.000	0.115	0.438
-395.136	800.000	0.109	-0.439
-394.121	-172.787	0.400	0.016
-393.106	-119.111	0.685	-0.150
-392.092	-92.128	-0.228	0.081
-391.077	-200.000	-0.009	0.174
-390.063	-200.000	-0.003	0.123
-389.048	82.437	-0.206	0.283
-388.033	715.117	0.050	-0.168
-387.019	-200.000	-0.025	0.312
-386.004	33.484	-0.105	0.115
-384.990	231.088	-0.198	-0.410
-383.975	-144.050	-0.258	-0.030
-382.960	100.565	0.194	-0.286
-381.946	581.778	-0.114	-0.355
-380.931	800.000	0.062	-0.309
-379.917	-96.700	0.500	-0.165
-378.902	90.712	0.307	-0.434
-377.888	-96.528	-0.710	0.235
-376.873	-200.000	0.019	-0.244
-375.858	800.000	0.054	0.259
-374.844	-42.390	0.265	0.170
-373.829	-139.834	-0.041	0.005
-372.815	2.243	-0.181	0.165
-371.800	-15.262	-0.036	-0.029
-370.785	800.000	-0.039	0.209
-369.771	-80.324	0.433	-0.182
-368.756	57.541	0.214	0.264
-367.742	333.095	0.095	0.233
-366.727	-142.307	0.434	0.054
-365.712	51.548	0.203	-0.244
-364.698	20.429	-0.219	-0.223
-363.683	-183.418	0.344	-0.007
-362.669	-110.515	0.032	0.008
-361.654	-61.647	0.214	-0.113
-360.639	243.483	-0.253	0.537
-359.625	679.860	-0.098	0.324
-358.610	-200.000	0.007	0.272
-357.596	-200.000	0.020	-0.224
-356.581	15.328	0.268	0.265
-355.566	234.948	0.033	-0.068
-354.552	117.455	0.095	0.148
-353.537	-200.000	-0.003	-0.023
-352.523	373.036	-0.055	-0.141
-351.508	307.481	0.243	-0.573
-350.493	127.379	0.035	-0.056
-349.479	408.462	0.091	0.245
-348.464	-16.211	-0.290	0.232
-347.450	-41.757	-0.173	0.111
-346.435	-186.518	0.533	0.009
-345.420	462.496	0.030	-0.085
-344.406	-97.512	-0.218	-0.071
-343.391	-21.970	-0.192	-0.147
-342.377	-75.910	0.286	-0.127
-341.362	-22.511	-0.456	-0.348
-340.348	-97.519	0.107	-0.035
-339.333	172.021	0.048	0.087
-338.318	-101.584	-0.103	-0.031
-337.304	97.419	0.214	0.310
-336.289	800.000	-0.065	0.249
-335.275	800.000	-0.042	0.229
-334.260	-85.819	-0.453	0.176
-333.245	-86.786	-0.416	0.159
-332.231	-135.984	0.537	-0.079
-331.216	-10.262	0.377	0.315
-330.202	-36.453	-0.231	-0.156
-329.187	92.019	-0.066	0.094
-328.172	-200.000	0.032	0.330
-327.158	-153.684	-0.338	-0.029
-326.143	-62.088	0.146	0.076
-325.129	149.094	0.159	0.272
-324.114	-62.032	-0.082	-0.043
-323.099	49.078	-0.195	0.231
-322.085	229.315	-0.095	0.197
-321.070	-200.000	0.021	-0.244
-320.056	270.503	0.180	0.401
-319.041	53.528	0.240	-0.291
-318.026	-104.989	0.109	-0.031
-317.012	-89.870	-0.314	0.115
-315.997	258.028	-0.099	-0.215
-314.983	262.273	0.114	0.251
-313.968	-122.124	0.082	-0.017
-312.953	800.000	-0.083	0.295
-311.939	-200.000	0.004	0.247
-310.924	-124.681	0.176	-0.034
-309.910	-189.179	0.236	-0.003
-308.895	516.073	0.132	0.391
-307.880	28.770	-0.095	-0.101
-306.866	-49.348	0.158	0.095
-305.851	-200.000	-0.015	-0.262
-304.837	-41.096	0.359	0.233
-303.822	-200.000	0.005	0.311
-302.807	418.457	0.093	0.250
-301.793	-192.832	0.192	-0.002
-300.778	-200.000	0.002	0.015
-299.764	-79.158	-0.332	-0.141
-298.749	88.607	0.173	-0.242
-297.735	254.782	-0.142	0.306
-296.720	-85.792	-0.168	-0.065
-295.705	-130.113	0.242	0.041
-294.691	-73.005	-0.324	-0.149
-293.676	33.042	0.165	0.180
-292.662	-115.943	0.121	0.028
-291.647	-44.288	-0.371	-0.233
-290.632	800.000	0.075	-0.361
-289.618	231.707	0.167	-0.346
-288.603	-73.862	-0.621	-0.283
-287.589	314.558	-0.266	0.634
-286.574	-200.000	-0.023	0.481
-285.559	-172.357	-0.071	-0.003
-284.545	-127.011	0.633	-0.116
-283.530	-121.684	0.269	-0.056
-282.516	-129.288	-0.187	0.032
-281.501	-200.000	0.075	-0.455
-280.486	100.992	-0.033	0.048
-279.472	426.860	-0.059	0.161
-278.457	359.758	0.086	-0.217
-277.443	-31.797	-0.336	-0.237
-276.428	-200.000	-0.369	0.001
-275.413	244.698	-0.209	-0.443
-274.399	104.853	0.177	0.262
-273.384	-131.194	0.084	0.014
-272.370	-73.547	-0.528	0.241
-271.355	442.667	-0.040	-0.110
-270.340	-200.000	-0.043	0.290
-269.326	-125.656	0.172	-0.032
-268.311	5.262	0.312	-0.289
-267.297	-55.492	0.557	0.313
-266.282	190.393	0.341	0.646
-265.267	-186.046	0.582	-0.011
-264.253	800.000	0.057	0.305
-263.238	-133.540	-0.061	0.010
-262.224	800.000	0.037	-0.147
-261.209	800.000	-0.051	0.201
-260.195	-14.260	0.252	0.204
-259.180	800.000	0.065	0.297
-258.165	800.000	-0.106	0.560
-257.151	323.625	0.097	0.233
-256.136	-148.028	-0.559	-0.058
-255.122	-200.000	0.109	0.660
-254.107	800.000	-0.087	-0.320
-253.092	-95.884	-0.140	0.047
-252.078	508.942	-0.048	-0.141
-251.063	97.624	-0.210	0.303
-250.049	-0.298	-0.294	0.262
-249.034	-85.150	0.204	0.080
-248.019	221.517	0.147	-0.297
-247.005	-36.789	-0.449	0.302
-245.990	-9.359	0.054	-0.045
-244.976	-77.245	-0.383	0.167
-243.961	6.984	0.078	0.073
-242.946	-147.741	-0.649	-0.068
-241.932	89.035	0.129	0.180
-240.917	800.000	0.074	0.343
-239.903	-111.246	-0.171	0.044
-238.888	87.293	-0.196	-0.273
-237.873	-41.844	0.261	-0.167
-236.859	3.862	0.121	0.111
-235.844	-140.386	-0.675	0.087
-234.830	-135.671	-0.349	-0.051
-233.815	800.000	-0.154	0.559
-232.800	285.203	-0.138	0.313
-231.786	37.044	0.116	0.129
-230.771	-200.000	0.021	-0.474
-229.757	-25.113	0.181	0.134
-228.742	155.513	0.027	0.047
-227.727	176.195	-0.088	0.160
-226.713	-58.152	-0.181	-0.099
-225.698	-103.172	0.380	-0.112
-224.684	-72.203	0.177	0.082
-223.669	158.826	-0.159	-0.277
-222.655	122.627	-0.159	-0.249
-221.640	-165.161	-0.319	-0.017
-220.625	800.000	0.031	-0.170
-219.611	165.229	0.081	-0.144
-218.596	-200.000	0.006	-0.159
-217.582	-133.918	0.158	0.024
-216.567	-134.948	-0.220	0.033
-215.552	-163.013	-0.397	0.024
-214.538	40.244	0.070	0.079
-213.523	-50.786	-0.199	0.117
-212.509	-37.192	0.260	-0.174
-211.494	624.824	-0.121	-0.385
-210.479	-200.000	-0.007	0.039
-209.465	-88.472	0.222	-0.082
-208.450	129.478	0.322	-0.517
-207.436	-152.193	0.238	-0.021
-206.421	-112.607	0.313	0.078
-205.406	255.356	0.208	0.448
-204.392	-200.000	-0.030	0.210
-203.377	-189.502	-0.175	0.002
-202.363	-29.557	-0.108	-0.078
-201.348	-200.000	0.027	-0.227
-200.333	-108.829	0.548	0.146
-199.319	-13.312	-0.294	-0.239
-198.304	588.589	-0.211	0.657
-197.290	-6.601	-0.098	-0.083
-196.275	-42.287	0.189	-0.121
-195.260	-200.000	-0.021	0.132
-194.246	-136.750	0.580	-0.083
-193.231	-118.683	0.345	-0.076
-192.217	84.187	0.020	-0.027
-191.202	-200.000	-0.065	-0.553
-190.187	304.803	0.044	0.103
-189.173	-11.971	0.257	-0.210
-188.158	-43.483	0.187	-0.118
-187.144	-119.574	-0.180	-0.039
-186.129	-181.433	-0.821	0.020
-185.114	-156.284	-0.076	-0.006
-184.100	-4.506	-0.148	-0.128
-183.085	155.200	0.163	-0.281
-182.071	-155.749	0.402	-0.032
-181.056	-200.000	-0.049	-0.304
-180.042	-97.404	0.376	-0.122
-179.027	-108.428	0.173	-0.046
-178.012	-31.882	-0.324	0.227
-176.998	19.767	0.121	-0.122
-175.983	-68.160	-0.143	0.070
-174.969	-200.000	0.026	-0.272
-173.954	-62.419	-0.287	0.149
-172.939	272.388	0.083	0.184
-171.925	-147.881	0.530	0.055
-170.910	-200.000	0.018	-0.148
-169.896	-113.106	-0.257	0.063
-168.881	-200.000	-0.008	-0.155
-167.866	128.657	0.168	0.268
-166.852	178.025	0.039	-0.071
-165.837	-7.695	-0.095	0.081
-164.823	-200.000	-0.125	-0.000
-163.808	-81.292	-0.073	0.030
-162.793	401.356	-0.070	0.184
-161.779	-200.000	0.002	-0.278
-160.764	800.000	-0.079	-0.366
-159.750	-122.957	0.215	-0.043
-158.735	-133.130	0.569	0.089
-157.720	-120.449	-0.486	-0.103
-156.706	-200.000	0.016	0.192
-155.691	-166.670	-0.251	-0.013
-154.677	-200.000	-0.020	-0.132
-153.662	-200.000	-0.020	0.189
-152.647	338.404	-0.219	-0.536
-151.633	51.347	0.305	0.362
-150.618	-176.039	-0.237	-0.008
-149.604	27.637	0.132	-0.139
-148.589	-154.706	0.498	-0.041
-147.574	-31.590	0.363	-0.255
-146.560	87.649	0.069	0.096
-145.545	-96.125	0.171	-0.056
-144.531	-81.681	0.300	0.123
-143.516	-126.896	0.135	0.025
-142.502	-39.122	-0.548	-0.360
-141.487	32.043	-0.070	-0.075
-140.472	-200.000	-0.003	-0.186
-139.458	-5.088	0.104	-0.089
-138.443	17.424	0.183	0.182
-137.429	-92.100	-0.376	0.132
-136.414	-3.406	-0.410	0.357
-135.399	-97.918	-0.624	0.200
-134.385	15.473	0.381	0.374
-133.370	471.672	-0.105	0.297
-132.356	-153.296	-0.380	-0.033
-131.341	-200.000	-0.018	-0.321
-130.326	800.000	-0.058	0.264
-129.312	392.478	0.098	-0.255
-128.297	800.000	-0.076	-0.333
-127.283	24.708	0.180	0.186
-126.268	-200.000	0.081	-0.465
-125.253	800.000	-0.041	-0.223
-124.239	20.310	-0.078	-0.079
-123.224	-200.000	-0.010	0.118
-122.210	800.000	-0.065	0.346
-121.195	13.532	-0.075	0.072
-120.180	-200.000	-0.072	0.413
-119.166	380.717	0.044	0.113
-118.151	45.281	-0.181	0.209
-117.137	-129.350	-0.223	0.038
-116.122	-168.478	0.364	0.017
-115.107	-87.614	0.338	-0.127
-114.093	-153.355	0.533	0.046
-113.078	-194.562	0.188	-0.002
-112.064	-102.474	-0.059	-0.017
-111.049	-200.000	0.006	-0.211
-110.034	20.018	0.140	-0.141
-109.020	8.333	0.309	-0.290
-108.005	-200.000	-0.018	-0.251
-106.991	-200.000	0.018	-0.494
-105.976	301.482	-0.114	0.265
-104.962	-200.000	-0.009	0.069
-103.947	800.000	-0.064	0.229
-102.932	-200.000	0.022	0.498
-101.918	-43.414	0.158	0.100
-100.903	-200.000	0.014	0.217
-99.889	-147.623	-0.221	0.023
-98.874	-26.866	-0.068	-0.050
-97.859	-200.000	-0.022	0.122
-96.845	800.000	0.125	0.572
-95.830	-109.632	-0.238	-0.062
-94.816	-93.969	-0.398	0.136
-93.801	-200.000	-0.033	0.242
-92.786	142.380	-0.221	0.368
-91.772	-200.000	0.062	0.420
-90.757	497.563	0.053	0.153
-89.743	81.045	0.328	0.442
-88.728	165.552	-0.108	0.192
-87.713	-25.920	-0.246	-0.180
-86.699	-200.000	0.049	-0.407
-85.684	-120.443	0.110	0.023
-84.670	188.923	0.176	-0.330
-83.655	73.530	-0.183	-0.239
-82.640	152.158	0.081	-0.138
-81.626	-38.172	0.624	0.412
-80.611	-68.997	-0.453	-0.217
-79.597	-200.000	-0.020	0.323
-78.582	-41.641	0.309	0.197
-77.567	155.541	-0.036	0.062
-76.553	-129.056	-0.285	0.049
-75.538	-64.140	-0.226	-0.115
-74.524	-121.209	0.236	0.049
-73.509	-197.413	0.387	-0.003
-72.494	19.372	0.213	0.213
-71.480	-200.000	-0.005	0.116
-70.465	252.925	0.278	0.593
-69.451	-35.749	-0.170	-0.115
-68.436	61.683	-0.169	0.210
-67.422	-200.000	-0.005	-0.185
-66.407	255.105	-0.083	0.178
-65.392	121.194	-0.210	-0.327
-64.378	-194.917	-0.158	-0.001
-63.363	-41.383	0.240	0.154
-62.349	-2.458	-0.439	0.383
-61.334	-51.413	-1.331	-0.774
-60.319	227.822	0.357	0.727
-59.305	264.054	-2.810	-6.118
-58.290	24.337	2.603	2.682
-57.276	674.779	3.168	10.315
-56.261	-200.000	12.605	193.247
-55.246	491.998	1121.330	3219.226
-54.232	66.109	2772.694	3511.593
-53.217	71.419	2709.881	3510.550
-52.203	59.376	2440.230	2999.643
-51.188	46.700	2082.175	2411.698
-50.173	41.325	1945.872	2194.458
-49.159	39.323	1934.743	2159.760
-48.144	38.849	1930.960	2150.222
-47.130	38.780	1929.093	2147.302
-46.115	38.799	1927.313	2145.441
-45.100	38.853	1924.982	2143.354
-44.086	38.743	1924.682	2141.731
-43.071	38.616	1922.359	2137.675
-42.057	38.577	1921.099	2135.759
-41.042	38.672	1919.946	2135.427
-40.027	38.685	1917.982	2133.299
-39.013	38.753	1916.789	2132.636
-37.998	38.615	1915.479	2129.586
-36.984	38.556	1914.387	2127.640
-35.969	38.530	1913.504	2126.288
-34.954	38.554	1912.010	2124.812
-33.940	38.581	1911.098	2124.009
-32.925	38.600	1908.957	2121.755
-31.911	38.426	1909.299	2120.152
-30.896	38.459	1907.449	2118.374
-29.881	38.431	1905.685	2116.022
-28.867	38.358	1904.637	2113.986
-27.852	38.451	1902.457	2112.492
-26.838	38.345	1901.190	2109.847
-25.823	38.353	1899.872	2108.393
-24.809	38.323	1899.612	2107.687
-23.794	38.421	1898.123	2107.011
-22.779	38.408	1895.998	2104.429
-21.765	38.447	1895.064	2103.733
-20.750	38.444	1892.998	2101.328
-19.736	38.373	1892.570	2099.999
-18.721	38.356	1890.808	2097.775
-17.706	38.247	1890.089	2095.727
-16.692	38.275	1888.698	2094.398
-15.677	38.247	1887.920	2093.154
-14.663	38.208	1886.540	2091.113
-13.648	38.307	1884.799	2090.169
-12.633	38.208	1884.358	2088.534
-11.619	38.262	1882.733	2087.227
-10.604	38.250	1881.594	2085.755
-9.590	38.353	1879.644	2084.612
-8.575	38.256	1879.032	2082.814
-7.560	38.215	1878.478	2081.677
-6.546	38.191	1877.234	2079.960
-5.531	38.187	1875.958	2078.421
-4.517	38.130	1874.803	2076.447
-3.502	38.212	1873.664	2075.983
-2.487	38.331	1872.314	2075.677
-1.473	38.273	1869.445	2071.793
-0.458	38.190	1848.831	2047.989
0.556	33.635	1976.278	2125.218
1.571	31.924	2194.127	2337.777
2.586	33.846	2242.529	2413.652
3.600	33.869	2245.777	2417.150
4.615	34.163	2244.363	2419.092
5.629	34.085	2242.827	2416.156
6.644	34.077	2241.439	2414.260
7.659	34.223	2239.768	2414.043
8.673	34.470	2238.468	2415.498
9.688	33.817	2241.568	2410.218
10.702	29.932	2307.353	2429.522
11.717	26.008	2370.381	2442.298
12.731	13.307	2336.732	2235.793
13.746	2.212	2308.101	2058.530
14.761	0.527	2302.877	2030.844
15.775	0.378	2300.443	2026.446
16.790	0.342	2299.337	2024.736
17.804	0.327	2297.889	2023.022
18.819	0.358	2296.643	2022.102
19.834	0.345	2294.630	2019.913
20.848	0.226	2294.044	2017.548
21.863	0.276	2292.514	2016.639
22.877	0.262	2290.566	2014.494
23.892	0.193	2288.352	2011.378
24.907	0.272	2285.119	2009.357
25.921	0.188	2284.202	2007.178
26.936	0.173	2282.135	2004.928
27.950	0.132	2280.516	2002.715
28.965	0.226	2277.409	2001.003
29.980	0.231	2276.873	2000.360
30.994	0.373	2274.679	2000.085
32.009	6.739	2296.634	2104.661
33.023	22.625	2343.277	2362.811
34.038	31.408	2364.010	2502.210
35.053	33.280	2366.990	2530.258
36.067	33.457	2363.681	2528.785
37.082	33.016	2359.612	2518.226
38.096	32.887	2358.452	2514.961
39.111	33.371	2358.127	2520.794
40.126	33.936	2357.180	2527.027
41.140	34.659	2357.286	2536.501
42.155	34.110	2354.312	2525.676
43.169	33.652	2350.910	2515.616
44.184	34.068	2348.877	2518.676
45.199	34.188	2347.254	2518.228
46.213	33.872	2345.359	2511.698
47.228	33.596	2343.927	2506.195
48.242	33.623	2341.507	2503.666
49.257	33.663	2340.390	2502.711
50.271	34.121	2339.074	2507.069
51.286	33.866	2336.135	2500.243
52.301	33.469	2333.614	2491.999
53.315	33.393	2334.131	2491.242
54.330	33.058	2330.089	2482.218
55.344	32.330	2324.435	2466.302
56.359	32.258	2321.146	2461.561
57.374	31.998	2317.948	2454.465
58.388	31.477	2315.341	2444.560
59.403	31.881	2312.919	2447.014
60.417	32.352	2312.246	2452.191
61.432	32.634	2310.827	2454.077
62.447	32.273	2307.934	2445.990
63.461	31.904	2305.504	2438.301
64.476	31.671	2302.865	2432.183
65.490	32.484	2303.457	2443.128
66.505	33.295	2304.974	2455.019
67.520	33.364	2302.229	2452.698
68.534	31.927	2295.668	2426.752
69.549	31.537	2290.968	2416.432
70.563	31.339	2290.252	2412.806
71.578	31.632	2287.944	2413.890
72.593	31.969	2287.911	2417.929
73.607	32.345	2288.020	2422.628
74.622	32.350	2285.215	2419.439
75.636	31.994	2281.004	2410.087
76.651	31.801	2279.658	2405.895
77.666	32.025	2277.285	2405.990
78.680	31.994	2275.036	2402.920
79.695	32.109	2273.828	2402.839
80.709	32.234	2272.318	2402.565
81.724	32.317	2271.243	2402.195
82.739	32.470	2269.963	2402.521
83.753	32.594	2267.821	2401.559
84.768	32.371	2265.096	2395.531
85.782	32.140	2263.873	2390.995
86.797	32.026	2261.683	2386.933
87.812	31.644	2258.814	2378.746
88.826	31.367	2256.154	2372.123
89.841	31.573	2255.004	2373.263
90.855	32.166	2253.458	2378.905
91.870	31.569	2250.412	2367.803
92.884	31.289	2248.824	2362.300
93.899	31.700	2248.232	2366.618
94.914	31.498	2248.168	2363.690
95.928	31.595	2247.010	2363.431
96.943	31.514	2244.683	2359.669
97.957	31.485	2241.767	2355.956
98.972	31.385	2239.284	2351.802
99.987	31.055	2234.926	2342.771
101.001	31.188	2233.667	2342.852
102.016	31.438	2232.142	2344.117
103.030	31.494	2229.884	2342.178
104.045	31.811	2230.002	2346.008
105.060	32.470	2228.656	2352.590
106.074	32.484	2227.564	2351.331
107.089	32.217	2223.407	2343.321
108.103	32.111	2223.490	2341.800
109.118	32.469	2223.107	2345.600
110.133	32.375	2220.694	2341.601
111.147	32.071	2217.734	2334.394
112.162	32.055	2215.795	2331.882
113.176	32.039	2213.341	2328.816
114.191	32.046	2211.723	2326.927
115.206	31.967	2210.326	2324.195
116.220	31.959	2207.993	2321.359
117.235	31.843	2205.343	2316.854
118.249	31.862	2203.896	2315.293
119.264	32.088	2203.021	2316.900
120.279	32.038	2202.341	2315.293
121.293	31.824	2199.739	2309.625
122.308	31.718	2197.051	2305.217
123.322	31.445	2195.555	2299.989
124.337	31.399	2194.461	2297.999
125.352	32.032	2197.360	2308.598
126.366	33.023	2196.253	2319.396
127.381	32.285	2191.296	2304.788
128.395	31.788	2187.520	2294.422
129.410	31.897	2186.296	2294.215
130.424	32.008	2184.328	2293.228
131.439	31.931	2183.361	2291.004
132.454	31.867	2180.602	2287.044
133.468	32.046	2178.493	2286.751
134.483	32.143	2176.504	2285.579
135.497	31.924	2176.390	2282.506
136.512	32.282	2173.822	2283.912
137.527	32.271	2172.235	2281.829
138.541	31.824	2169.843	2273.595
139.556	31.599	2168.747	2269.433
140.570	31.629	2167.177	2267.889
141.585	31.780	2165.230	2267.420
142.600	32.074	2164.979	2270.457
143.614	32.038	2163.718	2268.431
144.629	32.437	2162.673	2271.900
145.643	32.083	2159.863	2264.387
146.658	31.674	2156.500	2255.636
147.673	31.322	2154.252	2248.765
148.687	31.641	2153.062	2251.109
149.702	31.824	2152.395	2252.347
150.716	31.684	2151.546	2249.506
151.731	31.731	2151.042	2249.268
152.746	32.173	2150.360	2253.618
153.760	31.423	2148.628	2242.496
154.775	31.151	2146.170	2236.384
155.789	31.115	2144.133	2233.566
156.804	31.075	2141.665	2230.243
157.819	31.113	2138.019	2226.638
158.833	31.326	2136.897	2227.758
159.848	31.942	2135.009	2232.889
160.862	32.148	2135.488	2235.588
161.877	32.334	2134.564	2236.577
162.892	32.560	2134.872	2239.331
163.906	32.882	2134.051	2242.052
164.921	33.086	2131.797	2241.848
165.935	33.093	2129.820	2239.584
166.950	32.879	2126.915	2233.711
167.964	32.336	2124.142	2224.086
168.979	32.007	2122.813	2218.519
169.994	32.164	2120.794	2218.003
171.008	32.121	2119.283	2215.645
172.023	31.925	2117.733	2211.445
173.037	32.259	2116.374	2213.709
174.052	32.241	2115.475	2212.288
175.067	32.058	2114.120	2208.448
176.081	32.087	2111.362	2205.645
177.096	32.112	2110.676	2204.961
178.110	31.954	2108.443	2200.502
179.125	31.833	2107.729	2198.063
180.140	32.113	2106.894	2200.230
181.154	32.254	2105.624	2200.294
182.169	32.160	2103.603	2196.823
183.183	32.174	2102.643	2195.713
184.198	32.277	2102.098	2196.090
185.213	31.976	2098.599	2188.644
186.227	31.992	2098.117	2188.068
187.242	32.025	2095.411	2185.377
188.256	31.929	2093.658	2182.155
189.271	32.295	2092.417	2184.884
190.286	32.478	2091.384	2185.680
191.300	32.096	2087.806	2177.221
192.315	31.845	2085.607	2171.750
193.329	32.217	2085.644	2175.861
194.344	32.652	2085.179	2180.175
195.359	32.836	2084.546	2181.390
196.373	33.052	2083.186	2182.218
197.388	32.930	2080.275	2177.485
198.402	32.446	2076.810	2167.997
199.417	32.407	2075.493	2165.911
200.432	32.632	2074.392	2167.108
201.446	32.746	2072.869	2166.569
202.461	32.423	2070.398	2160.009
203.475	31.853	2067.527	2150.180
204.490	31.652	2065.052	2145.031
205.504	31.722	2063.273	2143.740
206.519	31.511	2060.920	2138.607
207.534	31.500	2059.894	2137.165
208.548	31.924	2059.335	2141.194
209.563	31.446	2056.033	2132.025
210.577	31.236	2055.239	2128.545
211.592	32.052	2056.003	2138.431
212.607	31.664	2054.286	2131.951
213.621	30.153	2049.919	2109.891
214.636	30.336	2048.675	2110.444
215.650	31.111	2048.793	2119.170
216.665	31.574	2048.057	2123.441
217.680	32.131	2047.434	2128.885
218.694	32.335	2046.647	2130.139
219.709	31.975	2044.120	2123.158
220.723	32.139	2043.384	2123.996
221.738	32.648	2042.806	2128.922
222.753	32.619	2040.081	2125.503
223.767	32.260	2038.705	2119.743
224.782	31.974	2035.295	2112.711
225.796	31.985	2034.128	2111.376
226.811	32.592	2034.219	2118.077
227.826	32.833	2033.281	2119.565
228.840	32.936	2031.990	2119.133
229.855	32.482	2030.068	2111.753
230.869	32.038	2026.909	2103.214
231.884	31.494	2024.158	2093.990
232.899	31.825	2022.477	2095.716
233.913	32.044	2022.292	2097.738
234.928	32.288	2021.562	2099.470
235.942	32.401	2021.171	2100.077
236.957	32.386	2019.180	2097.590
237.972	32.372	2018.672	2096.656
238.986	32.318	2017.748	2094.844
240.001	32.119	2014.891	2089.398
241.015	31.844	2013.107	2084.224
242.030	32.342	2013.412	2089.855
243.045	32.722	2012.943	2093.359
244.059	32.891	2011.738	2093.746
245.074	32.685	2008.082	2087.391
246.088	32.191	2005.085	2078.536
247.103	32.200	2002.922	2076.143
248.117	32.231	2001.881	2075.159
249.132	32.287	1999.827	2073.406
250.147	32.264	1997.786	2070.785
251.161	31.943	1995.506	2064.625
252.176	32.058	1993.943	2064.026
253.190	32.101	1991.532	2061.758
254.205	32.026	1990.624	2059.749
255.220	32.301	1990.356	2062.260
256.234	32.210	1988.714	2059.310
257.249	32.016	1988.059	2056.250
258.263	32.233	1987.155	2057.452
259.278	32.444	1987.039	2059.413
260.293	32.361	1985.174	2056.311
261.307	32.165	1983.256	2051.929
262.322	32.169	1981.108	2049.504
263.336	31.572	1977.549	2039.047
264.351	31.319	1975.150	2033.563
265.366	31.586	1973.794	2034.837
266.380	31.838	1973.597	2037.148
267.395	31.538	1971.462	2031.421
268.409	31.380	1970.268	2028.224
269.424	31.752	1969.679	2031.431
270.439	31.919	1969.451	2032.778
271.453	32.023	1968.317	2032.496
272.468	31.974	1965.894	2029.216
273.482	31.702	1963.126	2023.163
274.497	31.385	1959.869	2016.127
275.512	31.641	1957.376	2016.091
276.526	31.767	1955.177	2014.948
277.541	31.673	1954.027	2012.510
278.555	31.513	1953.117	2009.604
279.570	31.192	1950.461	2003.160
280.585	31.073	1948.830	1999.963
281.599	31.422	1948.602	2003.259
282.614	31.935	1948.076	2007.998
283.628	32.566	1948.608	2015.092
284.643	32.953	1948.791	2019.196
285.657	32.878	1947.047	2016.342
286.672	32.729	1945.609	2013.012
287.687	32.558	1942.958	2008.203
288.701	32.089	1941.351	2001.272
289.716	31.987	1939.339	1997.871
290.730	32.263	1938.300	1999.516
291.745	32.708	1936.982	2002.662
292.760	32.219	1935.556	1995.733
293.774	31.738	1934.978	1989.766
294.789	32.212	1933.755	1993.321
295.803	32.497	1932.059	1994.372
296.818	32.238	1931.082	1990.366
297.833	32.411	1929.290	1990.119
298.847	32.517	1927.888	1989.567
299.862	32.616	1926.870	1989.325
300.876	32.735	1926.060	1989.513
301.891	32.885	1924.543	1989.297
302.906	32.188	1922.322	1979.384
303.920	32.251	1921.625	1979.100
304.935	32.358	1920.425	1978.762
305.949	32.476	1917.508	1976.762
306.964	32.841	1916.434	1979.270
307.979	32.513	1913.810	1972.868
308.993	31.436	1910.296	1957.682
310.008	31.536	1908.274	1956.428
311.022	32.133	1908.560	1962.755
312.037	32.417	1908.298	1965.230
313.052	32.237	1906.439	1961.192
314.066	31.947	1903.239	1954.631
315.081	32.048	1903.307	1955.526
316.095	32.196	1901.802	1955.294
317.110	32.106	1900.064	1952.336
318.125	31.906	1897.797	1947.681
319.139	31.719	1896.662	1944.337
320.154	32.127	1895.854	1947.527
321.168	32.193	1893.858	1945.926
322.183	32.422	1893.153	1947.359
323.197	32.396	1892.807	1946.497
324.212	32.197	1890.222	1941.541
325.227	31.718	1888.421	1934.481
326.241	31.721	1886.370	1932.187
327.256	31.918	1885.085	1932.678
328.270	31.643	1884.128	1928.611
329.285	31.807	1884.093	1930.046
330.300	31.948	1883.669	1930.840
331.314	31.340	1881.368	1921.971
332.329	31.542	1880.363	1922.801
333.343	31.893	1878.789	1924.577
334.358	32.140	1877.159	1925.225
335.373	32.379	1875.693	1925.951
336.387	32.400	1873.953	1924.147
337.402	32.158	1872.884	1920.329
338.416	32.107	1869.742	1916.357
339.431	32.166	1868.639	1915.608
340.446	32.654	1868.427	1920.152
341.460	32.763	1867.313	1919.898
342.475	32.959	1866.222	1920.551
343.489	32.351	1862.758	1910.554
344.504	31.933	1861.542	1904.807
345.519	32.063	1860.089	1904.418
346.533	32.255	1857.943	1903.947
347.548	32.161	1856.804	1901.599
348.562	32.226	1855.090	1900.277
349.577	32.365	1855.662	1902.045
350.592	32.727	1854.240	1904.042
351.606	32.638	1853.858	1902.512
352.621	32.419	1850.675	1896.802
353.635	32.148	1848.876	1891.990
354.650	31.746	1847.934	1886.730
355.665	31.654	1845.348	1882.935
356.679	31.746	1844.444	1882.713
357.694	32.000	1843.586	1884.173
358.708	32.307	1843.538	1887.001
359.723	32.407	1842.946	1887.171
360.738	31.551	1840.343	1875.663
361.752	31.331	1838.358	1871.205
362.767	31.999	1836.751	1876.053
363.781	32.370	1834.897	1877.660
364.796	32.559	1834.166	1878.587
365.810	32.172	1832.569	1872.849
366.825	31.826	1830.855	1867.404
367.840	31.744	1829.412	1864.893
368.854	31.465	1826.968	1859.390
369.869	31.475	1825.864	1858.146
370.883	31.746	1824.773	1859.516
371.898	31.645	1824.863	1858.376
372.913	32.097	1823.350	1861.112
373.927	32.106	1821.807	1859.408
374.942	32.023	1821.456	1858.004
375.956	32.140	1819.481	1856.921
376.971	31.958	1816.491	1851.843
377.986	31.894	1815.662	1850.149
379.000	32.278	1815.467	1853.534
380.015	32.406	1813.655	1852.724
381.029	32.283	1811.273	1848.860
382.044	32.168	1810.579	1846.788
383.059	32.377	1808.628	1846.639
384.073	31.931	1807.023	1840.384
385.088	31.820	1806.639	1838.677
386.102	32.161	1805.268	1840.422
387.117	32.166	1804.436	1839.403
388.132	32.341	1803.595	1840.049
389.146	32.117	1803.114	1837.129
390.161	31.491	1799.725	1827.311
391.175	31.480	1797.219	1824.442
392.190	31.737	1793.507	1822.967
393.205	31.718	1791.621	1820.653
394.219	31.705	1791.123	1819.799
395.234	31.714	1790.663	1819.201
396.248	31.754	1788.633	1817.316
397.263	31.733	1785.641	1813.846
398.278	31.632	1783.914	1810.894
399.292	31.515	1782.996	1808.611
400.307	32.197	1784.502	1816.552
401.321	32.464	1783.745	1818.153
402.336	32.381	1781.527	1814.873
403.350	32.323	1779.740	1812.273
404.365	32.648	1780.212	1815.685
405.380	32.954	1778.738	1816.922
406.394	32.684	1777.090	1812.412
407.409	32.320	1774.729	1806.274
408.423	32.215	1772.240	1802.511
409.438	32.059	1770.824	1799.357
410.453	31.942	1770.357	1797.537
411.467	31.997	1769.261	1796.739
412.482	31.954	1767.757	1794.588
413.496	32.158	1767.696	1796.267
414.511	32.348	1765.564	1795.713
415.526	32.308	1762.925	1792.426
416.540	32.415	1762.540	1792.845
417.555	32.321	1761.080	1790.249
418.569	31.919	1760.583	1785.679
419.584	32.221	1760.591	1788.363
420.599	32.161	1759.733	1786.709
421.613	31.822	1758.005	1781.506
422.628	31.801	1756.788	1779.855
423.642	32.447	1756.489	1785.498
424.657	32.548	1754.193	1783.920
425.672	31.763	1751.833	1773.831
426.686	32.178	1751.854	1777.587
427.701	32.458	1751.481	1779.659
428.715	32.876	1750.491	1782.410
429.730	33.672	1750.146	1789.395
430.745	34.136	1751.102	1794.559
431.759	34.410	1750.662	1796.493
432.774	33.980	1748.220	1789.700
433.788	31.536	1739.669	1757.691
434.803	28.876	1734.262	1726.934
435.818	28.313	1733.078	1720.234
436.832	28.292	1732.350	1719.110
437.847	27.554	1725.407	1705.075
438.861	17.863	1697.452	1587.120
439.876	4.112	1671.547	1435.364
440.890	0.634	1664.516	1396.858
441.905	0.395	1663.159	1393.334
442.920	0.363	1662.294	1392.151
443.934	0.342	1660.889	1390.612
444.949	0.318	1659.962	1389.445
445.963	0.240	1659.109	1387.840
446.978	0.151	1659.021	1386.777
447.993	0.299	1658.312	1387.387
449.007	0.171	1655.260	1383.487
450.022	0.318	1652.424	1382.310
451.036	0.276	1651.593	1381.062
452.051	1.409	1657.884	1396.625
453.066	12.999	1685.623	1528.233
454.080	26.496	1707.615	1674.427
455.095	29.969	1713.708	1712.552
456.109	31.850	1717.583	1733.725
457.124	32.780	1716.860	1741.427
458.139	31.971	1714.214	1731.033
459.153	31.304	1712.438	1722.851
460.168	31.246	1711.272	1720.929
461.182	31.627	1710.190	1723.167
462.197	32.256	1708.810	1727.377
463.212	32.187	1708.373	1726.099
464.226	32.330	1707.668	1726.498
465.241	32.483	1706.886	1726.911
466.255	32.641	1705.508	1726.766
467.270	32.621	1703.895	1724.737
468.285	32.714	1702.705	1724.180
469.299	32.930	1702.287	1725.536
470.314	33.270	1700.860	1727.002
471.328	33.379	1698.946	1725.852
472.343	33.373	1698.971	1725.621
473.358	33.354	1698.038	1724.291
474.372	33.349	1696.222	1722.198
475.387	33.724	1696.680	1725.882
476.401	33.809	1694.943	1724.683
477.416	33.370	1693.131	1718.634
478.430	33.487	1691.882	1718.222
479.445	33.867	1691.044	1720.625
480.460	33.682	1690.506	1718.186
481.474	33.643	1689.582	1716.694
482.489	33.601	1687.939	1714.431
483.503	33.427	1685.081	1709.750
484.518	33.047	1683.540	1704.532
485.533	33.438	1682.830	1707.149
486.547	33.633	1680.721	1706.572
487.562	33.008	1679.662	1699.643
488.576	33.379	1678.737	1701.856
489.591	33.885	1678.708	1706.195
490.606	34.032	1677.436	1706.017
491.620	34.016	1676.333	1704.551
492.635	33.820	1672.741	1698.928
493.649	33.101	1670.284	1689.771
494.664	32.737	1670.002	1686.017
495.679	33.074	1668.410	1687.232
496.693	33.056	1667.319	1685.764
497.708	33.053	1666.168	1684.376
498.722	32.917	1664.555	1681.324
499.737	33.158	1663.499	1682.216
500.752	33.338	1662.069	1682.169
501.766	33.184	1660.622	1679.132
502.781	33.185	1658.966	1677.265
503.795	33.153	1657.742	1675.540
504.810	33.247	1656.457	1674.876
505.825	32.835	1655.736	1670.289
506.839	32.730	1653.343	1666.738
507.854	32.691	1652.520	1665.362
508.868	32.809	1649.861	1663.533
509.883	32.348	1648.873	1658.248
510.898	31.977	1647.736	1653.619
511.912	31.686	1645.277	1648.378
512.927	31.427	1643.326	1643.941
513.941	31.357	1641.228	1641.032
514.956	31.828	1641.342	1645.105
515.971	32.597	1641.615	1651.964
516.985	32.154	1639.408	1645.645
518.000	31.619	1637.608	1638.933
519.014	31.493	1636.141	1636.159
520.029	31.349	1634.552	1633.110
521.043	31.373	1633.504	1632.075
522.058	31.472	1632.209	1631.460
523.073	31.675	1631.693	1632.520
524.087	31.750	1631.002	1632.295
525.102	31.908	1630.217	1632.698
526.116	32.485	1629.939	1637.266
527.131	32.772	1628.785	1638.417
528.146	32.799	1627.550	1637.216
529.160	32.690	1626.747	1635.260
530.175	32.814	1626.673	1636.075
531.189	32.991	1625.393	1636.126
532.204	33.065	1623.674	1634.847
533.219	33.055	1623.014	1633.900
534.233	33.165	1622.488	1634.134
535.248	33.103	1620.377	1631.274
536.262	32.594	1619.950	1626.231
537.277	33.135	1619.645	1630.421
538.292	33.725	1618.222	1633.903
539.306	33.875	1616.289	1633.051
540.321	33.557	1613.857	1627.655
541.335	32.794	1612.531	1619.538
542.350	33.051	1612.389	1621.421
543.365	33.590	1610.617	1624.088
544.379	33.711	1610.072	1624.383
545.394	33.608	1607.877	1621.092
546.408	33.125	1606.339	1615.199
547.423	33.042	1605.781	1613.733
548.438	33.318	1605.025	1615.143
549.452	33.440	1602.240	1613.198
550.467	33.370	1600.579	1610.734
551.481	33.080	1600.174	1607.649
552.496	32.942	1599.009	1605.113
553.511	32.784	1597.657	1602.208
554.525	32.797	1596.802	1601.274
555.540	32.594	1596.272	1598.821
556.554	32.570	1594.709	1596.854
557.569	32.746	1591.412	1594.859
558.583	32.467	1589.856	1590.738
559.598	32.376	1589.558	1589.481
560.613	32.362	1588.900	1588.512
561.627	32.284	1587.040	1585.805
562.642	32.218	1584.953	1582.968
563.656	31.724	1582.839	1576.486
564.671	31.442	1581.172	1572.258
565.686	31.449	1579.762	1570.723
566.700	31.220	1579.198	1568.042
567.715	31.432	1577.341	1567.801
568.729	31.709	1576.784	1569.394
569.744	32.266	1576.566	1573.673
570.759	32.492	1575.427	1574.251
571.773	32.098	1573.651	1568.978
572.788	31.768	1572.264	1564.635
573.802	31.539	1569.908	1560.185
574.817	31.385	1567.261	1556.079
575.832	31.178	1567.668	1554.567
576.846	31.734	1566.892	1558.259
577.861	32.219	1566.723	1561.960
578.875	32.092	1565.910	1559.900
579.890	32.347	1564.990	1560.925
580.905	32.210	1564.478	1559.089
581.919	32.496	1563.791	1560.600
582.934	32.705	1562.628	1560.990
583.948	32.648	1560.956	1558.659
584.963	32.452	1559.456	1555.346
585.978	32.586	1559.192	1556.006
586.992	32.490	1558.287	1554.123
588.007	32.634	1557.642	1554.486
589.021	32.574	1555.887	1552.054
590.036	31.909	1552.784	1543.273
591.051	32.269	1553.175	1546.453
592.065	32.747	1551.839	1548.891
593.080	32.968	1550.534	1549.227
594.094	33.145	1549.659	1549.626
595.109	32.945	1548.297	1546.425
596.123	33.262	1546.980	1547.536
597.138	33.244	1545.940	1546.162
598.153	32.834	1544.310	1540.977
599.167	32.688	1542.067	1537.364
600.182	32.491	1541.127	1534.626
601.196	32.628	1540.647	1535.091
602.211	32.677	1539.570	1534.228
603.226	32.341	1537.700	1529.435
604.240	32.480	1536.797	1529.492
605.255	32.550	1535.447	1528.535
606.269	32.378	1534.313	1525.819
607.284	32.168	1532.369	1522.000
608.299	31.951	1531.298	1518.986
609.313	32.173	1530.005	1519.323
610.328	32.150	1528.465	1517.426
611.342	32.047	1526.389	1514.352
612.357	31.917	1525.927	1512.658
613.372	31.840	1525.008	1510.942
614.386	31.807	1523.201	1508.699
615.401	31.807	1522.858	1508.184
616.415	31.627	1521.759	1505.461
617.430	31.349	1520.256	1501.549
618.445	31.029	1518.609	1497.159
619.459	30.982	1518.223	1496.215
620.474	31.371	1516.679	1497.655
621.488	31.789	1516.994	1501.146
622.503	32.830	1516.872	1509.227
623.518	32.043	1514.290	1500.157
624.532	31.354	1512.290	1492.466
625.547	31.156	1510.628	1489.060
626.561	31.004	1509.308	1486.359
627.576	30.917	1508.737	1484.925
628.591	31.377	1507.830	1487.533
629.605	32.032	1507.576	1492.345
630.620	32.402	1508.006	1495.548
631.634	33.101	1507.872	1500.813
632.649	33.088	1506.547	1499.214
633.663	32.556	1503.482	1491.755
634.678	31.720	1501.126	1482.584
635.693	31.122	1498.947	1475.502
636.707	31.048	1496.904	1472.731
637.722	30.907	1495.309	1469.866
638.736	30.977	1495.125	1470.065
639.751	31.449	1494.889	1473.399
640.766	31.676	1493.458	1473.603
641.780	31.352	1492.737	1470.153
642.795	31.617	1491.593	1470.945
643.809	31.751	1491.111	1471.355
644.824	31.801	1491.396	1471.855
645.839	32.175	1490.848	1474.087
646.853	31.920	1489.401	1470.472
647.868	32.144	1487.702	1470.381
648.882	32.190	1486.344	1469.224
649.897	32.470	1484.819	1469.741
650.912	32.289	1483.566	1466.899
651.926	32.395	1482.702	1466.702
652.941	32.448	1481.964	1466.209
653.955	32.194	1480.570	1462.668
654.970	31.606	1478.037	1455.399
655.985	31.313	1475.007	1449.959
656.999	31.151	1473.809	1447.340
658.014	31.128	1473.411	1446.599
659.028	31.582	1473.155	1449.708
660.043	32.055	1474.196	1454.242
661.058	32.423	1472.727	1455.485
662.072	32.458	1470.705	1453.582
663.087	32.445	1469.111	1451.733
664.101	32.151	1468.556	1448.734
665.116	32.107	1467.628	1447.302
666.131	31.982	1466.559	1445.106
667.145	32.077	1465.463	1444.591
668.160	32.054	1463.584	1442.383
669.174	31.701	1461.350	1437.288
670.189	31.916	1460.578	1438.017
671.204	32.042	1460.503	1438.737
672.218	31.976	1459.104	1436.683
673.233	31.901	1458.124	1434.965
674.247	31.759	1456.550	1432.160
675.262	31.519	1455.463	1429.072
676.276	31.442	1454.391	1427.261
677.291	31.403	1453.338	1425.757
678.306	31.884	1451.859	1427.814
679.320	31.809	1451.409	1426.629
680.335	31.290	1450.134	1421.239
681.349	31.377	1448.910	1420.532
682.364	31.392	1448.047	1419.626
683.379	31.213	1446.332	1416.413
684.393	31.099	1444.606	1413.685
685.408	31.001	1444.037	1412.217
686.422	31.087	1442.810	1411.502
687.437	31.053	1441.565	1409.855
688.452	30.604	1441.103	1405.820
689.466	30.728	1439.515	1405.043
690.481	30.739	1438.668	1404.134
691.495	31.008	1439.082	1406.407
692.510	32.191	1439.578	1415.694
693.525	33.083	1438.482	1421.192
694.539	32.556	1436.197	1414.782
695.554	31.272	1434.114	1402.875
696.568	30.658	1432.306	1396.309
697.583	30.558	1431.092	1394.202
698.598	30.659	1430.183	1393.916
699.612	30.756	1428.785	1393.114
700.627	30.841	1427.828	1392.655
701.641	31.079	1426.660	1393.136
702.656	31.225	1425.798	1393.219
703.671	31.039	1425.855	1391.715
704.685	31.404	1425.608	1394.043
705.700	31.434	1424.921	1393.430
706.714	31.577	1422.928	1392.386
707.729	31.683	1422.097	1392.197
708.744	31.965	1420.503	1392.569
709.758	31.770	1419.261	1389.737
710.773	31.240	1417.090	1383.498
711.787	30.896	1416.144	1379.843
712.802	31.615	1415.150	1384.057
713.816	31.858	1415.137	1385.685
714.831	31.851	1414.421	1384.770
715.846	31.786	1412.545	1382.284
716.860	31.622	1411.378	1379.762
717.875	31.768	1410.125	1379.451
718.889	31.614	1409.007	1377.056
719.904	31.483	1407.428	1374.379
720.919	31.372	1407.072	1373.045
721.933	31.305	1406.058	1371.395
722.948	31.151	1404.662	1368.736
723.962	31.119	1403.557	1367.262
724.977	31.136	1402.030	1365.733
725.992	31.056	1401.338	1364.312
727.006	31.351	1400.233	1365.238
728.021	31.269	1398.559	1362.843
729.035	31.091	1397.469	1360.313
730.050	31.081	1396.051	1358.691
731.065	31.129	1394.933	1357.791
732.079	30.922	1393.542	1354.765
733.094	31.027	1393.171	1355.007
734.108	31.295	1391.526	1355.199
735.123	31.150	1389.918	1352.419
736.138	31.079	1388.653	1350.505
737.152	30.893	1388.087	1348.441
738.167	30.910	1386.248	1346.616
739.181	30.911	1386.036	1346.259
740.196	30.795	1385.478	1344.715
741.211	30.647	1384.598	1342.621
742.225	30.656	1383.256	1341.228
743.240	30.836	1381.111	1340.290
744.254	30.567	1380.115	1337.221
745.269	30.438	1379.249	1335.288
746.284	30.328	1378.221	1333.338
747.298	30.421	1377.623	1333.269
748.313	30.792	1377.224	1335.399
749.327	31.522	1378.206	1341.456
750.342	32.228	1378.935	1347.091
751.356	32.808	1378.571	1350.755
752.371	32.608	1375.901	1346.536
753.386	31.369	1372.783	1334.440
754.400	30.630	1370.698	1326.957
755.415	30.579	1369.801	1325.566
756.429	30.806	1368.534	1325.806
757.444	31.040	1367.443	1326.260
758.459	30.920	1366.444	1324.273
759.473	30.833	1365.727	1322.804
760.488	30.853	1364.743	1321.834
761.502	30.660	1362.999	1318.610
762.517	30.958	1362.329	1319.923
763.532	31.309	1361.605	1321.565
764.546	31.298	1360.552	1320.303
765.561	30.898	1359.469	1316.254
766.575	30.508	1357.840	1311.756
767.590	30.357	1356.542	1309.276
768.605	31.020	1355.658	1312.958
769.619	31.192	1355.549	1313.910
770.634	31.225	1353.961	1312.447
771.648	31.085	1352.569	1309.955
772.663	30.827	1351.269	1306.715
773.678	30.591	1351.181	1304.809
774.692	30.745	1350.636	1305.215
775.707	30.829	1349.537	1304.587
776.721	30.621	1348.713	1302.169
777.736	30.619	1347.103	1300.446
778.751	30.578	1346.574	1299.496
779.765	30.567	1345.265	1297.996
780.780	30.386	1344.519	1295.854
781.794	30.475	1343.549	1295.385
782.809	30.395	1341.999	1293.179
783.824	30.237	1340.533	1290.501
784.838	30.510	1340.470	1292.197
785.853	31.595	1341.116	1300.250
786.867	31.561	1339.786	1298.567
787.882	31.045	1338.095	1293.176
788.897	30.715	1336.682	1289.359
789.911	30.289	1335.517	1285.118
790.926	30.131	1334.260	1282.651
791.940	30.096	1332.857	1280.910
792.955	30.144	1331.415	1279.702
793.969	29.920	1330.400	1277.017
794.984	30.015	1329.780	1276.931
795.999	30.191	1328.788	1277.040
797.013	30.279	1327.411	1276.171
798.028	30.271	1325.953	1274.565
799.042	30.421	1324.529	1274.075
800.057	30.339	1324.062	1272.910
801.072	30.194	1322.909	1270.652
802.086	30.346	1321.310	1270.011
803.101	30.397	1320.054	1268.997
804.115	30.334	1320.186	1268.544
805.130	30.365	1319.085	1267.546
806.145	30.322	1318.086	1266.137
807.159	30.334	1316.283	1264.338
808.174	30.654	1315.485	1265.608
809.188	30.846	1314.544	1265.864
810.203	30.790	1313.462	1264.286
811.218	30.566	1312.158	1261.355
812.232	30.402	1310.595	1258.585
813.247	30.237	1309.298	1256.063
814.261	30.474	1309.391	1257.618
815.276	30.672	1308.921	1258.363
816.291	30.517	1307.023	1255.332
817.305	30.323	1305.864	1252.750
818.320	30.222	1304.042	1250.171
819.334	30.303	1302.955	1249.530
820.349	30.262	1301.876	1248.070
821.364	30.125	1300.540	1245.708
822.378	30.255	1299.033	1244.994
823.393	30.110	1297.696	1242.590
824.407	30.085	1296.659	1241.281
825.422	30.110	1296.186	1240.843
826.437	30.001	1295.367	1239.179
827.451	29.936	1294.034	1237.320
828.466	30.629	1294.006	1241.795
829.480	31.564	1292.850	1246.807
830.495	30.968	1290.301	1240.216
831.509	30.170	1289.045	1233.526
832.524	29.958	1287.828	1230.791
833.539	29.980	1286.609	1229.632
834.553	29.839	1285.321	1227.311
835.568	29.793	1283.809	1225.411
836.582	30.062	1283.104	1226.387
837.597	30.079	1281.734	1225.038
838.612	30.228	1280.300	1224.511
839.626	30.216	1279.689	1223.701
840.641	30.349	1278.850	1223.635
841.655	30.271	1278.502	1222.637
842.670	30.055	1277.454	1220.058
843.685	29.754	1275.916	1216.457
844.699	30.166	1274.743	1217.913
845.714	30.186	1273.383	1216.601
846.728	30.094	1272.647	1215.147
847.743	29.920	1271.743	1212.987
848.758	30.065	1269.992	1212.126
849.772	29.953	1269.145	1210.437
850.787	29.833	1267.901	1208.317
851.801	29.924	1266.421	1207.358
852.816	29.801	1265.230	1205.278
853.831	29.881	1264.287	1204.757
854.845	29.884	1262.301	1202.742
855.860	29.799	1261.087	1200.885
856.874	29.864	1260.027	1200.157
857.889	30.221	1259.998	1202.313
858.904	30.882	1259.780	1206.261
859.918	31.465	1259.514	1209.653
860.933	31.740	1258.066	1209.902
861.947	31.243	1256.272	1204.810
862.962	30.374	1254.373	1197.215
863.977	30.178	1252.689	1194.201
864.991	29.953	1251.754	1191.711
866.006	29.818	1250.771	1189.760
867.020	29.818	1248.550	1187.502
868.035	29.786	1247.530	1186.180
869.049	29.704	1247.609	1185.586
870.064	29.741	1247.063	1185.170
871.079	29.926	1246.207	1185.398
872.093	29.642	1245.755	1183.005
873.108	29.923	1243.576	1182.597
874.122	29.960	1242.360	1181.535
875.137	29.708	1242.337	1179.754
876.152	29.821	1241.531	1179.571
877.166	29.878	1239.390	1177.763
878.181	29.810	1237.518	1175.406
879.195	29.761	1237.603	1175.034
880.210	29.747	1237.054	1174.286
881.225	29.690	1235.941	1172.723
882.239	29.939	1234.380	1172.687
883.254	29.861	1233.302	1171.029
884.268	29.853	1232.261	1169.849
885.283	29.715	1231.643	1168.244
886.298	29.865	1230.073	1167.565
887.312	29.567	1229.241	1164.749
888.327	29.638	1228.388	1164.252
889.341	29.625	1226.848	1162.569
890.356	29.678	1226.128	1162.081
891.371	29.693	1226.019	1161.936
892.385	29.771	1225.057	1161.375
893.400	29.776	1224.755	1160.980
894.414	29.787	1223.592	1159.810
895.429	30.181	1222.984	1161.577
896.444	31.294	1223.287	1168.731
897.458	32.200	1222.577	1173.602
898.473	31.752	1220.814	1168.963
899.487	30.599	1219.039	1159.900
900.502	30.012	1216.899	1154.046
901.517	29.653	1214.948	1149.814
902.531	29.490	1214.636	1148.363
903.546	29.549	1213.543	1147.558
904.560	29.534	1212.238	1146.096
905.575	29.662	1211.345	1145.914
906.589	29.637	1211.041	1145.330
907.604	29.508	1210.806	1144.166
