DTS Sentinel unit serial number:	SN409020Multiplexer serial number:	ORYXHardware model number:	OX4-SRSoftware version number:	ORYX F/W v3.00 Oryx Data Collector v3.7.2.0data status	okinstallation	HaddamTimeLapsedifferential loss correction	single-endedforward channel	channel 3reverse channel	N/Adate	2011/06/21time	13:41:17forward acquisition time	30.00reverse acquisition time	0.00gamma	498.7831k internal	0.1814k external	0.1814temperature offset calibration	1.0074default loss term (dB/km)	0.3790temperature slope calibration	1.3530multiplexer offset coefficient	1.0000multiplexer slope coefficient	1.0000fibre end	0.00T internal ref (°C)	34.97T ext. ref 1 (°C)	30.18T ext. ref 2 (°C)	0.22length (m)	temperature (°C)	Stokes	anti-Stokes-747.200	62.740	-0.150	-0.193
-746.185	-123.812	-0.457	0.092
-745.171	-132.541	-0.651	0.106
-744.156	111.562	-0.097	0.150
-743.142	-200.000	0.019	0.405
-742.127	168.820	-0.122	0.224
-741.112	800.000	-0.032	-0.158
-740.098	113.186	-0.093	0.145
-739.083	-14.803	-0.204	-0.167
-738.069	138.557	0.107	-0.180
-737.054	-66.077	0.427	-0.217
-736.039	-200.000	-0.029	0.204
-735.025	-5.345	-0.384	0.338
-734.010	315.287	-0.192	-0.466
-732.996	-39.015	0.104	-0.070
-731.981	-148.877	0.254	-0.026
-730.966	-149.777	0.250	0.025
-729.952	800.000	-0.079	0.323
-728.937	11.673	0.112	0.110
-727.923	-87.493	-0.610	-0.235
-726.908	-21.439	-0.239	0.186
-725.894	-200.000	-0.052	0.370
-724.879	-12.841	0.126	-0.105
-723.864	81.357	0.211	-0.292
-722.850	-63.822	0.154	0.081
-721.835	341.996	0.106	-0.268
-720.821	173.008	-0.311	-0.575
-719.806	-69.435	-0.236	0.116
-718.791	745.472	-0.084	0.292
-717.777	165.065	-0.208	0.378
-716.762	800.000	-0.140	0.672
-715.748	-178.813	0.306	0.009
-714.733	-200.000	0.012	-0.406
-713.718	67.663	0.271	0.355
-712.704	-141.828	-0.188	0.024
-711.689	-96.331	0.654	0.220
-710.675	16.567	0.081	-0.082
-709.660	-75.174	-0.022	-0.010
-708.645	-41.612	0.445	0.292
-707.631	326.873	-0.207	-0.509
-706.616	464.062	-0.150	-0.431
-705.602	-200.000	-0.111	-0.659
-704.587	12.254	-0.175	-0.172
-703.572	-200.000	-0.043	-0.352
-702.558	-109.481	-0.351	0.094
-701.543	114.280	0.150	-0.234
-700.529	-200.000	-0.006	0.037
-699.514	-2.431	-0.127	0.113
-698.499	-200.000	-0.033	-0.316
-697.485	60.742	-0.129	-0.164
-696.470	300.250	0.042	-0.099
-695.456	-74.624	0.360	-0.165
-694.441	74.331	-0.298	-0.401
-693.426	-81.254	-0.284	0.119
-692.412	-56.264	-0.206	0.117
-691.397	68.933	0.148	0.194
-690.383	-200.000	-0.009	0.278
-689.368	265.462	-0.048	0.107
-688.354	-83.007	-0.207	-0.085
-687.339	457.028	0.109	0.310
-686.324	45.006	-0.277	0.327
-685.310	730.340	-0.157	0.541
-684.295	587.324	-0.083	-0.262
-683.281	72.659	-0.012	0.016
-682.266	-30.485	0.353	0.256
-681.251	48.480	-0.193	0.232
-680.237	154.551	0.168	-0.296
-679.222	-139.054	-0.272	0.037
-678.208	-200.000	-0.035	0.364
-677.193	-95.875	0.151	-0.051
-676.178	-91.238	-0.299	-0.109
-675.164	-13.350	-0.152	0.126
-674.149	293.288	0.162	0.379
-673.135	-5.707	0.258	-0.226
-672.120	-73.233	0.292	-0.136
-671.105	368.005	0.043	0.111
-670.091	-60.335	0.626	0.340
-669.076	-132.673	0.089	0.015
-668.062	-47.233	-0.200	0.124
-667.047	-28.393	0.433	-0.319
-666.032	-110.709	-0.239	-0.063
-665.018	-87.373	0.162	0.063
-664.003	-200.000	-0.043	0.508
-662.989	-200.000	0.034	0.237
-661.974	-30.022	0.183	-0.133
-660.959	-14.658	-0.210	0.173
-659.945	20.219	-0.126	0.130
-658.930	42.159	0.380	0.442
-657.916	-117.706	0.476	0.109
-656.901	-96.968	0.303	-0.101
-655.886	-51.461	-0.199	0.118
-654.872	-87.957	-0.619	-0.236
-653.857	-200.000	0.015	0.502
-652.843	102.898	-0.101	0.152
-651.828	-24.795	-0.553	0.419
-650.814	-200.000	0.038	-0.322
-649.799	-47.588	0.101	0.062
-648.784	391.136	0.149	-0.398
-647.770	-37.054	0.246	0.168
-646.755	-144.283	0.095	-0.011
-645.741	7.096	-0.280	-0.267
-644.726	-74.445	-0.133	0.061
-643.711	623.351	-0.092	-0.299
-642.697	-6.664	0.254	-0.221
-641.682	-101.754	0.142	-0.044
-640.668	407.743	-0.077	-0.208
-639.653	59.672	-0.174	0.220
-638.638	223.714	0.075	0.155
-637.624	103.798	0.195	-0.292
-636.609	-200.000	-0.012	-0.303
-635.595	579.773	0.078	-0.244
-634.580	-200.000	0.034	0.343
-633.565	-171.859	0.252	0.010
-632.551	179.762	-0.272	0.511
-631.536	123.868	0.201	0.323
-630.522	-125.248	0.355	-0.069
-629.507	-200.000	-0.038	-0.246
-628.492	800.000	-0.028	-0.116
-627.478	-200.000	-0.065	0.436
-626.463	-152.381	-0.365	-0.033
-625.449	-200.000	-0.027	-0.332
-624.434	-15.849	-0.199	0.162
-623.419	-42.145	0.231	-0.151
-622.405	1.279	0.173	-0.158
-621.390	-200.000	0.049	0.561
-620.376	87.842	0.206	-0.292
-619.361	-60.472	0.104	0.056
-618.346	-21.982	-0.377	-0.292
-617.332	-200.000	-0.016	0.208
-616.317	-58.167	-0.389	-0.215
-615.303	342.654	-0.085	-0.213
-614.288	-69.452	0.156	-0.076
-613.273	-24.945	-0.375	-0.283
-612.259	136.573	0.247	-0.413
-611.244	-200.000	-0.021	0.262
-610.230	-64.182	-0.160	0.083
-609.215	58.129	0.107	-0.134
-608.201	-4.507	-0.391	-0.344
-607.186	-38.322	0.267	-0.180
-606.171	283.024	0.135	-0.310
-605.157	319.470	0.070	-0.171
-604.142	332.475	0.093	0.231
-603.128	85.518	0.244	-0.342
-602.113	-200.000	0.071	-0.488
-601.098	63.316	0.163	0.208
-600.084	66.311	-0.150	-0.195
-599.069	94.615	-0.198	-0.287
-598.055	-37.069	-0.272	-0.185
-597.040	-77.324	0.161	0.071
-596.025	77.500	0.200	-0.271
-595.011	-79.615	-0.482	-0.206
-593.996	-141.920	-0.331	0.042
-592.982	-31.165	-0.532	-0.381
-591.967	154.801	0.159	0.279
-590.952	-200.000	0.072	-0.519
-589.938	800.000	-0.178	-0.651
-588.923	440.405	-0.116	-0.326
-587.909	75.963	-0.262	-0.353
-586.894	347.699	-0.080	-0.203
-585.879	-113.337	0.592	0.147
-584.865	649.010	0.111	0.365
-583.850	-200.000	-0.033	0.401
-582.836	-72.826	0.311	-0.145
-581.821	5.148	0.385	0.361
-580.806	159.923	-0.173	-0.307
-579.792	188.512	0.112	0.213
-578.777	65.229	-0.220	0.284
-577.763	-200.000	-0.021	0.196
-576.748	-200.000	-0.020	0.216
-575.733	-35.096	-0.070	-0.048
-574.719	-63.463	0.294	0.153
-573.704	607.978	0.103	0.330
-572.690	-35.706	0.118	0.081
-571.675	-2.380	-0.035	-0.031
-570.661	59.127	-0.067	0.085
-569.646	121.273	0.348	-0.553
-568.631	-67.187	0.745	0.372
-567.617	366.606	0.096	-0.249
-566.602	-138.648	0.249	0.034
-565.588	-200.000	0.006	0.310
-564.573	800.000	0.058	-0.231
-563.558	182.392	0.101	-0.191
-562.544	800.000	0.011	-0.048
-561.529	-84.092	-0.327	-0.131
-560.515	-200.000	0.039	0.229
-559.500	-112.909	0.215	0.054
-558.485	137.152	0.137	-0.229
-557.471	79.730	-0.208	0.284
-556.456	385.428	0.081	0.214
-555.442	-200.000	-0.028	-0.503
-554.427	-112.000	-0.073	-0.019
-553.412	-139.669	-0.302	0.041
-552.398	287.449	-0.170	-0.393
-551.383	-64.249	-0.443	-0.229
-550.369	295.473	0.191	0.446
-549.354	800.000	0.078	-0.281
-548.339	70.950	0.201	-0.266
-547.325	-25.039	-0.141	-0.107
-546.310	-47.783	-0.466	0.287
-545.296	-15.527	0.375	0.304
-544.281	-200.000	0.014	0.242
-543.266	2.024	0.305	-0.279
-542.252	-80.809	-0.234	0.098
-541.237	15.922	0.278	0.278
-540.223	-56.853	-0.310	0.174
-539.208	266.143	-0.282	0.628
-538.193	-152.921	-0.396	-0.035
-537.179	152.023	0.117	-0.203
-536.164	642.050	-0.073	-0.239
-535.150	103.044	0.135	0.202
-534.135	157.554	-0.032	-0.056
-533.121	214.889	0.196	-0.396
-532.106	-123.479	-0.176	-0.035
-531.091	278.694	0.068	-0.154
-530.077	79.652	-0.296	-0.405
-529.062	51.672	0.171	0.207
-528.048	-97.575	-0.556	-0.183
-527.033	-167.538	0.488	-0.024
-526.018	21.281	-0.366	0.378
-525.004	-41.888	-0.321	0.209
-523.989	-200.000	-0.044	0.464
-522.975	0.012	-0.472	0.427
-521.960	-200.000	0.001	0.100
-520.945	-116.729	-0.208	-0.048
-519.931	-163.176	0.216	0.013
-518.916	29.093	0.199	-0.215
-517.902	153.246	0.194	-0.339
-516.887	-88.781	-0.375	0.141
-515.872	314.124	-0.206	-0.496
-514.858	-200.000	-0.022	-0.481
-513.843	-86.854	-0.704	-0.272
-512.829	131.604	0.262	-0.429
-511.814	401.198	-0.086	-0.230
-510.799	-148.233	0.635	0.066
-509.785	6.526	0.323	0.305
-508.770	-13.849	0.192	0.158
-507.756	74.157	0.020	0.027
-506.741	-83.146	0.324	0.132
-505.726	800.000	0.065	-0.228
-504.712	-61.141	-0.359	-0.192
-503.697	-79.238	0.248	-0.106
-502.683	192.814	-0.190	-0.365
-501.668	148.281	0.073	0.126
-500.653	335.293	0.148	0.367
-499.639	91.836	0.107	0.153
-498.624	-121.308	-0.070	0.015
-497.610	217.767	0.181	0.368
-496.595	-119.504	-0.357	-0.078
-495.581	-61.865	0.260	0.138
-494.566	-146.366	0.498	0.055
-493.551	257.971	-0.035	0.076
-492.537	-42.333	0.110	-0.071
-491.522	385.792	-0.089	-0.234
-490.508	-26.196	0.302	-0.225
-489.493	296.712	-0.075	-0.174
-488.478	2.149	0.237	-0.217
-487.464	-102.346	0.090	-0.027
-486.449	92.708	-0.133	-0.191
-485.435	800.000	0.069	-0.314
-484.420	275.508	0.045	-0.101
-483.405	97.510	0.149	-0.218
-482.391	-54.944	0.433	0.247
-481.376	800.000	-0.025	0.125
-480.362	-81.373	0.426	-0.177
-479.347	-22.313	0.294	0.226
-478.332	-1.503	-0.207	0.185
-477.318	-111.860	-0.278	0.071
-476.303	-200.000	0.002	0.072
-475.289	-200.000	0.027	0.207
-474.274	49.436	-0.140	-0.167
-473.259	325.133	-0.174	0.423
-472.245	-85.862	-0.208	0.081
-471.230	-132.002	-0.564	-0.092
-470.216	-111.066	-0.027	0.007
-469.201	555.313	-0.131	0.403
-468.186	292.463	-0.044	0.103
-467.172	800.000	-0.153	-0.595
-466.157	-56.365	-0.236	-0.132
-465.143	-140.873	-0.195	-0.025
-464.128	-89.514	0.305	0.113
-463.113	717.855	0.092	-0.311
-462.099	-91.355	0.051	0.018
-461.084	800.000	0.035	-0.185
-460.070	-200.000	0.021	0.305
-459.055	-108.296	0.190	-0.052
-458.040	362.631	-0.060	0.154
-457.026	693.703	-0.120	0.403
-456.011	27.589	-0.414	0.442
-454.997	-200.000	-0.002	-0.041
-453.982	-200.000	0.082	0.541
-452.968	-200.000	-0.042	0.256
-451.953	90.286	-0.102	-0.145
-450.938	-47.076	-0.077	0.047
-449.924	0.810	-0.161	0.146
-448.909	208.516	-0.175	-0.348
-447.895	19.847	0.022	-0.023
-446.880	800.000	0.036	-0.166
-445.865	-200.000	0.049	-0.325
-444.851	137.386	-0.060	-0.100
-443.836	-72.144	0.253	-0.118
-442.822	-9.525	0.248	-0.209
-441.807	-114.775	0.203	0.049
-440.792	69.638	0.222	-0.290
-439.778	-200.000	-0.008	-0.257
-438.763	-102.334	-0.681	-0.206
-437.749	102.622	-0.269	-0.400
-436.734	-17.116	-0.210	0.168
-435.719	-66.816	-0.362	0.181
-434.705	122.128	-0.090	-0.142
-433.690	800.000	-0.087	0.370
-432.676	87.878	0.049	-0.069
-431.661	86.181	0.204	-0.285
-430.646	800.000	0.075	-0.294
-429.632	609.865	0.040	-0.126
-428.617	343.447	-0.116	-0.290
-427.603	28.942	-0.108	0.116
-426.588	800.000	0.050	-0.188
-425.573	97.910	-0.111	-0.162
-424.559	-200.000	0.007	-0.225
-423.544	16.371	0.223	0.222
-422.530	24.322	0.327	-0.342
-421.515	-20.307	-0.183	0.143
-420.500	-23.148	-0.224	0.170
-419.486	36.229	0.192	-0.214
-418.471	-28.675	-0.315	0.229
-417.457	83.830	-0.196	-0.272
-416.442	188.562	0.155	-0.294
-415.428	-107.208	0.285	0.079
-414.413	-62.235	-0.324	-0.170
-413.398	-46.325	-0.059	-0.037
-412.384	-200.000	-0.012	0.302
-411.369	-136.904	-0.142	0.020
-410.355	96.138	0.419	0.607
-409.340	-200.000	-0.111	0.774
-408.325	-143.595	-0.365	0.043
-407.311	98.906	-0.247	0.361
-406.296	800.000	0.073	0.321
-405.282	217.812	-0.268	-0.543
-404.267	800.000	0.046	0.193
-403.252	-70.013	0.161	-0.077
-402.238	-144.297	-0.400	-0.047
-401.223	128.655	-0.099	-0.160
-400.209	676.924	0.139	0.458
-399.194	-71.647	0.193	-0.091
-398.179	583.721	-0.135	-0.423
-397.165	-200.000	-0.003	0.178
-396.150	-25.375	0.431	-0.322
-395.136	493.212	-0.124	0.362
-394.121	-200.000	0.020	0.289
-393.106	176.353	0.128	0.236
-392.092	-97.217	-0.161	0.053
-391.077	453.195	-0.081	0.229
-390.063	-35.727	0.307	-0.210
-389.048	77.085	0.071	-0.096
-388.033	69.740	0.225	-0.293
-387.019	-85.769	-0.301	-0.118
-386.004	-55.169	-0.221	-0.126
-384.990	-144.006	0.133	-0.016
-383.975	-76.636	0.490	-0.216
-382.960	-87.595	-0.215	0.082
-381.946	-200.000	-0.024	0.192
-380.931	14.287	0.379	0.373
-379.917	32.515	0.396	0.432
-378.902	-194.822	0.153	-0.001
-377.888	800.000	-0.059	0.237
-376.873	78.880	-0.073	-0.099
-375.858	93.527	-0.177	-0.253
-374.844	139.395	0.156	-0.261
-373.829	336.844	0.061	0.150
-372.815	15.563	-0.262	-0.260
-371.800	-95.020	-0.150	-0.051
-370.785	-200.000	-0.040	-0.378
-369.771	800.000	-0.067	0.318
-368.756	33.363	-0.406	0.445
-367.742	-62.778	-0.307	0.160
-366.727	800.000	-0.034	0.155
-365.712	-5.028	0.404	0.351
-364.698	800.000	-0.105	-0.475
-363.683	57.123	0.117	-0.144
-362.669	-49.325	0.328	0.197
-361.654	800.000	0.018	-0.080
-360.639	-54.887	0.367	0.209
-359.625	-8.281	0.224	0.191
-358.610	-79.548	0.462	-0.196
-357.596	-200.000	-0.036	0.223
-356.581	-200.000	0.063	-0.380
-355.566	-200.000	0.030	-0.276
-354.552	166.059	-0.182	-0.326
-353.537	-113.334	-0.231	0.057
-352.523	46.186	-0.053	0.062
-351.508	10.597	0.272	0.262
-350.493	485.967	-0.093	0.269
-349.479	-85.461	-0.129	-0.050
-348.464	-151.233	-0.574	-0.054
-347.450	-118.420	0.501	0.111
-346.435	11.235	0.164	-0.159
-345.420	-28.800	0.040	0.029
-344.406	800.000	-0.022	-0.081
-343.391	-8.827	-0.321	-0.271
-342.377	-81.624	0.158	0.065
-341.362	-200.000	0.011	-0.148
-340.348	-188.579	-0.193	-0.003
-339.333	18.401	-0.046	0.046
-338.318	432.909	0.081	-0.222
-337.304	-4.858	-0.159	-0.138
-336.289	-101.884	0.164	-0.050
-335.275	-73.769	0.371	0.170
-334.260	-161.135	0.444	0.029
-333.245	-200.000	0.001	-0.025
-332.231	800.000	0.055	-0.245
-331.216	439.484	0.038	0.106
-330.202	-129.157	-0.378	-0.066
-329.187	28.084	-0.120	0.128
-328.172	-46.347	0.116	-0.072
-327.158	131.196	0.158	0.257
-326.143	-166.849	-0.467	-0.024
-325.129	800.000	-0.021	-0.087
-324.114	-140.633	0.070	0.009
-323.099	800.000	-0.058	-0.228
-322.085	-158.438	-0.180	-0.013
-321.070	-170.520	-0.382	-0.017
-320.056	271.950	-0.100	-0.223
-319.041	152.719	0.134	0.231
-318.026	81.180	-0.061	0.083
-317.012	-4.700	-0.113	0.098
-315.997	-102.473	0.227	0.068
-314.983	-123.548	0.468	0.093
-313.968	-21.325	-0.296	-0.227
-312.953	89.927	0.195	-0.275
-311.939	118.216	-0.336	0.524
-310.924	-91.422	0.040	0.014
-309.910	-200.000	-0.001	0.149
-308.895	-19.422	-0.332	0.259
-307.880	-118.965	-0.059	-0.013
-306.866	-70.883	-0.315	0.149
-305.851	800.000	-0.018	0.070
-304.837	61.070	0.196	0.246
-303.822	-200.000	0.012	-0.231
-302.807	78.233	0.161	-0.217
-301.793	-200.000	0.008	0.074
-300.778	-43.990	0.453	0.286
-299.764	-50.546	0.383	-0.227
-298.749	-48.234	0.263	0.159
-297.735	229.877	-0.201	0.415
-296.720	184.056	-0.263	-0.492
-295.705	486.649	0.068	-0.197
-294.691	-22.228	-0.279	0.213
-293.676	2.849	-0.343	0.314
-292.662	-82.414	0.423	-0.172
-291.647	-200.000	-0.012	-0.544
-290.632	-199.533	0.446	-0.003
-289.618	-113.545	0.187	0.046
-288.603	-93.690	0.180	0.062
-287.589	-135.999	-0.079	-0.012
-286.574	168.230	0.090	-0.162
-285.559	-183.548	-0.132	0.003
-284.545	-200.000	-0.009	-0.374
-283.530	-56.347	-0.533	0.297
-282.516	-155.880	-0.264	0.021
-281.501	303.460	0.229	0.538
-280.486	68.100	0.286	-0.370
-279.472	507.523	-0.173	-0.507
-278.457	-134.057	0.253	-0.039
-277.443	-92.867	0.152	-0.053
-276.428	34.304	0.253	0.278
-275.413	40.063	0.204	0.231
-274.399	-0.796	0.067	-0.060
-273.384	-122.989	-0.313	0.063
-272.370	-3.467	0.120	-0.105
-271.355	412.130	-0.051	-0.138
-270.340	-183.347	-0.216	-0.005
-269.326	800.000	0.113	0.501
-268.311	92.416	0.205	0.291
-267.297	800.000	0.031	0.112
-266.282	447.984	-0.243	0.676
-265.267	309.028	0.180	0.424
-264.253	52.459	-0.193	-0.232
-263.238	666.148	0.071	0.231
-262.224	-110.109	0.391	0.102
-261.209	800.000	-0.047	0.166
-260.195	-142.810	0.274	0.033
-259.180	-14.858	0.032	0.026
-258.165	48.447	0.127	0.150
-257.151	119.543	-0.137	0.214
-256.136	-200.000	0.028	-0.199
-255.122	252.441	0.041	0.088
-254.107	378.874	0.081	-0.209
-253.092	-83.186	-0.297	0.119
-252.078	73.418	-0.057	0.075
-251.063	800.000	-0.020	-0.076
-250.049	58.459	-0.148	0.183
-249.034	800.000	0.066	0.365
-248.019	123.641	0.076	0.119
-247.005	-18.441	-0.090	0.071
-245.990	341.740	-0.117	-0.288
-244.976	193.497	0.090	0.172
-243.961	800.000	-0.102	-0.556
-242.946	800.000	-0.064	-0.346
-241.932	-0.030	-0.189	0.169
-240.917	-49.563	0.267	-0.159
-239.903	128.932	-0.096	0.154
-238.888	-12.416	-0.243	-0.199
-237.873	-27.559	0.203	0.148
-236.859	-161.424	0.420	0.027
-235.844	56.928	-0.122	0.150
-234.830	-200.000	0.027	0.259
-233.815	-168.722	0.267	0.012
-232.800	-58.936	-0.080	-0.043
-231.786	-200.000	-0.027	-0.208
-230.771	-96.648	-0.125	0.041
-229.757	-174.298	0.363	0.013
-228.742	17.048	0.348	-0.346
-227.727	238.576	0.085	-0.179
-226.713	-200.000	0.012	0.323
-225.698	263.174	-0.167	0.366
-224.684	-152.558	-0.048	0.004
-223.669	-6.718	-0.450	0.384
-222.655	-90.317	-0.028	-0.010
-221.640	76.613	0.184	0.245
-220.625	-176.268	0.271	0.009
-219.611	-134.587	-0.239	0.036
-218.596	246.169	0.060	-0.128
-217.582	25.718	0.141	0.147
-216.567	27.734	-0.393	-0.416
-215.552	-78.627	-0.231	-0.099
-214.538	-169.870	-0.067	-0.003
-213.523	800.000	0.075	0.364
-212.509	-11.271	-0.213	-0.176
-211.494	-27.089	0.224	-0.164
-210.479	-30.247	-0.234	-0.167
-209.465	-200.000	-0.085	-0.538
-208.450	-129.731	0.120	-0.021
-207.436	-51.101	-0.593	-0.348
-206.421	-21.545	0.101	0.077
-205.406	-75.383	-0.452	0.201
-204.392	223.422	0.107	-0.217
-203.377	-46.862	0.230	-0.141
-202.363	100.148	-0.108	0.157
-201.348	108.433	-0.198	-0.297
-200.333	-33.479	0.388	-0.268
-199.319	39.815	0.333	0.375
-198.304	800.000	-0.089	0.388
-197.290	14.553	-0.125	-0.122
-196.275	-178.454	-0.650	-0.019
-195.260	-135.392	-0.257	-0.038
-194.246	12.831	-0.269	-0.261
-193.231	-53.765	0.419	-0.239
-192.217	265.443	0.188	0.414
-191.202	-200.000	-0.535	0.001
-190.187	-43.792	-0.105	0.066
-189.173	22.694	-0.122	0.125
-188.158	58.364	0.159	0.195
-187.144	-178.084	0.377	0.011
-186.129	-86.844	-0.205	-0.078
-185.114	800.000	-0.063	0.248
-184.100	46.950	-0.247	0.288
-183.085	-58.056	-0.693	0.378
-182.071	14.096	-0.090	0.087
-181.056	-43.026	0.090	0.057
-180.042	266.964	-0.066	0.145
-179.027	170.191	-0.208	-0.374
-178.012	-89.626	0.249	-0.091
-176.998	800.000	-0.092	0.392
-175.983	-77.420	0.108	0.047
-174.969	350.030	-0.110	-0.273
-173.954	-200.000	-0.345	0.000
-172.939	2.321	0.298	0.270
-171.925	-200.000	0.071	0.605
-170.910	-118.806	0.033	-0.007
-169.896	-110.040	0.320	0.083
-168.881	421.735	0.154	0.416
-167.866	92.197	-0.111	0.157
-166.852	-28.653	0.071	-0.051
-165.837	-110.466	0.880	0.227
-164.823	-200.000	0.014	0.083
-163.808	2.031	-0.261	0.236
-162.793	25.046	-0.134	-0.140
-161.779	89.914	0.139	-0.195
-160.764	-118.640	0.266	0.058
-159.750	-182.444	-0.203	-0.005
-158.735	251.688	0.141	0.302
-157.720	40.266	0.204	0.230
-156.706	-57.583	-0.121	0.066
-155.691	-0.270	0.407	-0.362
-154.677	103.642	-0.201	-0.297
-153.662	-26.246	-0.201	-0.148
-152.647	325.573	0.133	0.320
-151.633	228.062	0.275	0.562
-150.618	175.867	0.152	0.277
-149.604	93.764	0.234	-0.333
-148.589	-17.425	0.351	-0.276
-147.574	68.769	-0.295	0.380
-146.560	-200.000	-0.022	-0.458
-145.545	-61.032	-0.122	0.064
-144.531	72.556	0.097	-0.127
-143.516	50.568	0.239	-0.283
-142.502	15.495	0.168	-0.166
-141.487	-77.990	-0.275	-0.118
-140.472	-105.030	-0.334	0.095
-139.458	-135.811	-0.342	0.050
-138.443	-200.000	0.013	0.122
-137.429	-74.156	-0.172	0.078
-136.414	12.735	-0.335	0.324
-135.399	-97.596	0.367	0.119
-134.385	49.744	0.162	0.191
-133.370	96.267	0.049	-0.071
-132.356	-200.000	0.036	0.306
-131.341	800.000	0.042	0.222
-130.326	-88.631	0.037	0.014
-129.312	-58.424	0.423	0.229
-128.297	-200.000	0.051	0.455
-127.283	-115.209	0.051	-0.012
-126.268	-86.041	-0.321	-0.123
-125.253	-123.013	-0.651	0.130
-124.239	-12.974	0.410	-0.334
-123.224	77.000	0.211	-0.281
-122.210	-200.000	-0.032	-0.204
-121.195	-43.426	-0.278	0.175
-120.180	-93.560	0.139	0.048
-119.166	494.484	0.034	0.098
-118.151	-22.100	-0.284	-0.215
-117.137	327.307	0.181	-0.435
-116.122	-142.478	-0.212	-0.026
-115.107	171.905	0.122	-0.220
-114.093	800.000	0.138	-0.491
-113.078	-16.796	0.258	-0.204
-112.064	-103.367	0.372	-0.109
-111.049	-30.443	0.301	-0.213
-110.034	-63.879	-0.385	0.196
-109.020	730.678	0.088	-0.297
-108.005	-200.000	-0.018	-0.131
-106.991	-200.000	0.017	-0.212
-105.976	-170.407	-0.298	0.013
-104.962	-110.468	-0.727	-0.187
-103.947	-31.325	-0.213	-0.150
-102.932	217.264	-0.214	-0.429
-101.918	-200.000	0.008	-0.053
-100.903	-133.401	0.195	-0.030
-99.889	43.869	-0.397	0.455
-98.874	224.020	-0.121	-0.245
-97.859	10.685	0.328	-0.312
-96.845	-137.572	-0.340	-0.047
-95.830	129.110	-0.239	-0.382
-94.816	-145.646	0.160	0.018
-93.801	20.633	0.199	-0.201
-92.786	-115.672	0.241	0.056
-91.772	585.063	-0.038	-0.117
-90.757	-66.771	-0.562	0.277
-89.743	-63.481	-0.505	0.259
-88.728	15.402	-0.329	0.322
-87.713	-72.582	-0.600	-0.276
-86.699	-137.467	0.238	0.033
-85.684	168.049	0.100	0.179
-84.670	10.132	0.111	-0.106
-83.655	-18.314	0.341	0.266
-82.640	65.010	-0.305	-0.385
-81.626	66.566	-0.180	0.229
-80.611	24.993	0.404	0.419
-79.597	-46.873	0.093	0.057
-78.582	-2.271	0.284	-0.248
-77.567	200.481	-0.148	0.284
-76.553	-200.000	-0.008	-0.280
-75.538	127.331	-0.107	0.171
-74.524	403.701	-0.201	0.530
-73.509	800.000	-0.033	-0.130
-72.494	60.988	-0.204	-0.253
-71.480	800.000	-0.115	-0.464
-70.465	-28.069	0.269	0.194
-69.451	103.269	-0.144	0.212
-68.436	-6.173	0.484	-0.413
-67.422	13.502	0.176	0.171
-66.407	800.000	0.103	-0.436
-65.392	118.347	0.060	0.092
-64.378	-54.629	0.408	-0.230
-63.363	7.966	0.278	-0.260
-62.349	-50.121	-0.051	-0.030
-61.334	-39.355	-1.116	-0.729
-60.319	163.309	0.324	0.570
-59.305	263.700	-2.620	-5.708
-58.290	30.438	2.754	2.938
-57.276	508.948	3.494	10.187
-56.261	-200.000	12.505	205.675
-55.246	483.712	1139.245	3251.026
-54.232	63.498	2800.832	3510.920
-53.217	71.083	2710.181	3509.897
-52.203	64.487	2440.620	3072.452
-51.188	40.834	2092.515	2356.702
-50.173	38.278	1960.735	2179.597
-49.159	36.027	1949.618	2142.033
-48.144	35.599	1945.256	2132.380
-47.130	35.433	1942.655	2127.589
-46.115	35.176	1941.569	2123.458
-45.100	35.169	1939.444	2120.974
-44.086	35.221	1937.502	2119.341
-43.071	35.200	1936.940	2118.406
-42.057	35.193	1935.290	2116.437
-41.042	35.168	1934.019	2114.695
-40.027	35.242	1931.742	2112.938
-39.013	35.233	1930.757	2111.678
-37.998	35.152	1929.274	2109.078
-36.984	35.148	1928.138	2107.704
-35.969	35.087	1927.878	2106.662
-34.954	35.114	1926.142	2104.982
-33.940	35.076	1925.688	2103.975
-32.925	35.157	1923.566	2102.477
-31.911	35.171	1921.318	2100.084
-30.896	35.206	1920.017	2098.962
-29.881	34.965	1919.678	2095.861
-28.867	35.024	1918.584	2095.230
-27.852	35.091	1916.543	2093.652
-26.838	34.945	1915.059	2090.344
-25.823	34.935	1913.898	2088.892
-24.809	35.104	1912.129	2088.722
-23.794	34.952	1911.744	2086.551
-22.779	34.958	1910.150	2084.797
-21.765	34.901	1909.265	2083.121
-20.750	34.833	1908.152	2081.086
-19.736	34.910	1906.794	2080.362
-18.721	35.035	1904.928	2079.614
-17.706	34.885	1904.049	2076.926
-16.692	34.809	1903.150	2075.036
-15.677	35.028	1901.504	2075.547
-14.663	34.851	1900.002	2071.900
-13.648	35.014	1899.061	2072.566
-12.633	34.953	1898.009	2070.677
-11.619	34.816	1897.333	2068.357
-10.604	34.834	1895.404	2066.375
-9.590	34.823	1893.655	2064.262
-8.575	34.789	1893.344	2063.472
-7.560	34.861	1891.382	2062.036
-6.546	34.711	1890.198	2059.034
-5.531	34.795	1889.871	2059.505
-4.517	34.881	1888.507	2058.866
-3.502	34.924	1887.345	2057.990
-2.487	34.859	1886.988	2056.812
-1.473	35.139	1882.973	2055.382
-0.458	35.583	1865.649	2041.132
0.556	33.006	2000.081	2146.029
1.571	32.906	2222.889	2383.548
2.586	35.233	2273.044	2467.184
3.600	35.330	2276.338	2471.721
4.615	35.614	2276.821	2475.629
5.629	35.663	2274.521	2473.467
6.644	35.720	2272.768	2471.998
7.659	35.812	2270.671	2470.616
8.673	36.079	2270.511	2473.582
9.688	35.377	2272.530	2466.418
10.702	30.886	2335.984	2475.162
11.717	26.204	2398.358	2476.582
12.731	13.343	2363.138	2264.084
13.746	2.176	2334.422	2083.830
14.761	0.601	2328.093	2056.397
15.775	0.383	2326.862	2052.076
16.790	0.262	2325.632	2049.088
17.804	0.258	2323.618	2047.019
18.819	0.289	2322.433	2046.157
19.834	0.247	2321.321	2044.353
20.848	0.244	2319.833	2042.750
21.863	0.293	2317.815	2041.403
22.877	0.211	2316.757	2039.103
23.892	0.267	2313.905	2037.113
24.907	0.226	2311.804	2034.465
25.921	0.196	2310.468	2032.647
26.936	0.228	2307.677	2030.377
27.950	0.187	2305.726	2027.856
28.965	0.209	2303.228	2025.714
29.980	0.218	2301.955	2024.472
30.994	0.280	2300.377	2023.688
32.009	6.793	2323.957	2132.811
33.023	25.420	2381.666	2442.464
34.038	40.489	2422.693	2691.849
35.053	45.630	2433.053	2773.261
36.067	45.598	2427.358	2765.999
37.082	44.128	2422.559	2740.261
38.096	44.406	2422.987	2744.192
39.111	46.076	2425.718	2769.622
40.126	47.545	2427.987	2791.785
41.140	49.169	2432.042	2818.111
42.155	48.635	2426.114	2803.703
43.169	47.491	2423.185	2784.543
44.184	47.433	2419.829	2779.563
45.199	47.232	2416.381	2772.565
46.213	46.323	2412.372	2755.400
47.228	45.730	2409.961	2744.335
48.242	46.150	2409.425	2749.045
49.257	45.909	2405.738	2741.283
50.271	46.584	2407.028	2751.491
51.286	47.107	2404.539	2755.324
52.301	46.439	2401.800	2742.911
53.315	45.960	2398.061	2731.904
54.330	39.909	2374.009	2623.706
55.344	33.551	2353.802	2516.558
56.359	32.673	2349.420	2499.869
57.374	32.214	2345.755	2489.555
58.388	31.649	2342.048	2477.811
59.403	32.408	2341.238	2486.753
60.417	34.234	2343.839	2513.462
61.432	34.616	2341.855	2516.103
62.447	33.402	2337.533	2495.097
63.461	32.916	2333.791	2484.367
64.476	32.488	2330.593	2475.015
65.490	33.960	2335.654	2499.566
66.505	38.459	2350.170	2574.475
67.520	43.723	2363.048	2658.016
68.534	44.338	2361.924	2664.546
69.549	45.088	2361.334	2673.435
70.563	45.719	2360.619	2680.607
71.578	46.082	2359.750	2684.073
72.593	46.536	2359.658	2689.601
73.607	47.173	2359.170	2697.087
74.622	46.756	2355.862	2687.521
75.636	45.377	2349.991	2662.470
76.651	46.089	2350.395	2671.917
77.666	46.316	2348.822	2672.781
78.680	46.249	2347.425	2669.999
79.695	47.951	2350.817	2695.755
80.709	49.650	2353.991	2721.231
81.724	49.968	2352.923	2723.804
82.739	49.626	2348.167	2713.530
83.753	48.288	2342.506	2689.316
84.768	47.583	2337.839	2674.495
85.782	46.422	2333.723	2654.429
86.797	45.911	2331.341	2644.780
87.812	45.913	2328.262	2640.997
88.826	45.794	2326.280	2636.894
89.841	46.136	2326.071	2640.760
90.855	46.589	2322.380	2642.094
91.870	45.894	2320.422	2630.605
92.884	45.745	2320.123	2628.024
93.899	46.962	2322.083	2645.611
94.914	45.718	2315.872	2622.239
95.928	40.215	2296.763	2529.832
96.943	36.936	2287.725	2477.524
97.957	41.245	2301.069	2547.210
98.972	45.013	2308.386	2603.469
99.987	45.139	2305.075	2601.037
101.001	45.418	2303.512	2602.532
102.016	45.504	2301.881	2601.471
103.030	46.169	2301.673	2609.425
104.045	47.270	2302.122	2623.665
105.060	47.964	2300.869	2630.748
106.074	47.484	2297.558	2620.556
107.089	46.858	2296.003	2610.503
108.103	47.161	2295.405	2613.362
109.118	47.298	2294.243	2613.474
110.133	47.444	2292.002	2612.454
111.147	47.070	2289.037	2604.026
112.162	46.571	2286.169	2594.136
113.176	46.424	2283.505	2588.950
114.191	46.720	2283.183	2592.011
115.206	46.711	2280.456	2588.496
116.220	46.099	2276.423	2575.896
117.235	45.779	2273.626	2568.395
118.249	45.641	2271.473	2563.917
119.264	46.018	2272.098	2569.062
120.279	46.419	2271.414	2573.015
121.293	46.303	2268.197	2567.611
122.308	45.807	2264.775	2557.213
123.322	45.647	2263.824	2553.833
124.337	45.437	2261.415	2548.181
125.352	41.925	2248.741	2489.764
126.366	41.166	2249.630	2480.949
127.381	43.956	2252.488	2518.726
128.395	44.954	2252.963	2531.417
129.410	45.894	2254.209	2544.230
130.424	46.198	2252.250	2545.506
131.439	45.798	2249.343	2536.937
132.454	45.435	2247.361	2529.886
133.468	45.695	2245.455	2530.669
134.483	46.032	2243.708	2532.582
135.497	46.317	2242.868	2534.852
136.512	46.561	2242.165	2536.776
137.527	46.281	2238.676	2529.072
138.541	45.666	2237.472	2519.803
139.556	45.471	2235.558	2514.943
140.570	45.522	2234.548	2514.134
141.585	46.273	2234.287	2522.801
142.600	46.635	2234.243	2526.915
143.614	46.546	2232.685	2523.746
144.629	47.103	2230.426	2527.742
145.643	47.240	2228.631	2527.089
146.658	46.648	2227.399	2518.130
147.673	46.667	2225.433	2515.829
148.687	47.393	2225.559	2524.582
149.702	47.268	2222.892	2519.715
150.716	46.619	2220.204	2508.434
151.731	46.345	2218.908	2503.317
152.746	46.399	2217.651	2502.266
153.760	44.290	2208.530	2465.970
154.775	38.247	2190.144	2371.715
155.789	34.982	2183.352	2324.281
156.804	39.705	2195.303	2394.529
157.819	44.579	2202.826	2461.934
158.833	45.777	2204.374	2477.934
159.848	46.996	2204.910	2493.045
160.862	47.622	2205.138	2500.601
161.877	47.719	2204.199	2500.409
162.892	47.983	2203.357	2502.351
163.906	48.178	2204.067	2505.214
164.921	48.642	2202.970	2509.275
165.935	48.697	2200.412	2506.729
166.950	48.288	2197.050	2497.664
167.964	47.226	2193.077	2480.059
168.979	46.841	2189.119	2470.656
169.994	46.768	2187.441	2467.592
171.008	47.069	2187.506	2470.981
172.023	47.202	2185.507	2470.033
173.037	47.237	2184.667	2469.207
174.052	47.484	2183.897	2470.996
175.067	47.646	2182.858	2471.476
176.081	47.574	2181.589	2468.870
177.096	46.934	2178.507	2457.438
178.110	46.010	2174.545	2441.630
179.125	46.211	2173.359	2442.409
180.140	47.071	2174.125	2453.253
181.154	47.060	2172.620	2451.121
182.169	46.323	2169.527	2438.566
183.183	44.580	2160.887	2407.856
184.198	39.697	2143.316	2330.191
185.213	37.028	2140.409	2295.047
186.227	42.723	2155.559	2378.997
187.242	45.848	2158.971	2419.612
188.256	46.030	2158.024	2420.427
189.271	46.520	2158.448	2426.410
190.286	47.105	2157.858	2432.375
191.300	46.554	2153.004	2420.110
192.315	45.873	2149.751	2408.131
193.329	46.501	2149.772	2415.280
194.344	47.367	2150.940	2426.514
195.359	47.921	2150.987	2432.794
196.373	47.831	2149.414	2429.662
197.388	47.414	2146.675	2421.385
198.402	46.934	2142.019	2410.211
199.417	46.336	2138.408	2398.846
200.432	46.719	2138.286	2402.908
201.446	47.279	2137.937	2408.793
202.461	46.918	2134.843	2400.794
203.475	46.537	2131.465	2392.260
204.490	46.311	2129.927	2387.614
205.504	46.959	2129.448	2394.349
206.519	46.571	2125.871	2385.521
207.534	46.269	2124.498	2380.182
208.548	46.812	2124.532	2386.252
209.563	45.745	2118.793	2367.137
210.577	44.996	2115.719	2354.732
211.592	46.168	2118.196	2370.811
212.607	43.834	2106.915	2330.947
213.621	35.338	2085.310	2208.936
214.636	35.308	2089.779	2213.054
215.650	41.432	2103.144	2298.158
216.665	44.345	2106.498	2335.268
217.680	45.691	2108.300	2352.543
218.694	46.231	2109.226	2359.520
219.709	46.515	2108.826	2362.073
220.723	47.095	2108.764	2368.396
221.738	47.269	2106.710	2367.811
222.753	46.784	2102.593	2357.330
223.767	46.286	2099.838	2348.242
224.782	46.214	2098.094	2345.193
225.796	46.301	2096.846	2344.506
226.811	46.818	2097.447	2350.821
227.826	47.027	2096.609	2351.991
228.840	47.260	2094.769	2352.316
229.855	46.956	2092.424	2345.931
230.869	46.029	2088.301	2330.450
231.884	44.940	2083.060	2311.924
232.899	44.960	2083.266	2312.099
233.913	45.540	2083.382	2318.561
234.928	46.013	2083.357	2323.641
235.942	46.672	2084.040	2331.617
236.957	47.064	2083.388	2335.070
237.972	46.881	2081.115	2330.158
238.986	46.830	2079.907	2327.958
240.001	46.417	2077.887	2320.728
241.015	45.785	2073.016	2307.863
242.030	45.062	2070.400	2296.501
243.045	42.181	2058.117	2250.151
244.059	39.752	2055.218	2219.289
245.074	43.414	2062.299	2268.113
246.088	45.067	2063.208	2287.481
247.103	45.125	2060.902	2285.312
248.117	45.363	2059.644	2286.311
249.132	45.607	2058.971	2288.032
250.147	45.591	2056.340	2284.655
251.161	45.596	2055.957	2284.015
252.176	45.653	2055.292	2283.639
253.190	46.002	2053.418	2285.195
254.205	46.413	2052.512	2288.505
255.220	47.091	2053.186	2296.565
256.234	47.477	2053.022	2300.411
257.249	46.657	2050.088	2287.707
258.263	46.387	2048.564	2282.720
259.278	46.882	2047.983	2287.320
260.293	47.052	2046.701	2287.502
261.307	46.856	2044.325	2282.389
262.322	47.009	2042.349	2281.610
263.336	46.693	2039.697	2274.874
264.351	45.836	2036.446	2261.480
265.366	45.932	2035.571	2261.303
266.380	46.394	2035.189	2265.724
267.395	45.558	2030.884	2251.417
268.409	45.224	2029.015	2245.386
269.424	46.067	2030.402	2255.973
270.439	46.433	2029.856	2259.134
271.453	44.531	2020.148	2227.147
272.468	39.162	2005.443	2151.801
273.482	37.004	2002.854	2125.020
274.497	41.402	2011.746	2182.732
275.512	44.789	2015.426	2223.707
276.526	45.192	2014.503	2226.840
277.541	45.165	2012.997	2224.613
278.555	45.372	2013.044	2226.667
279.570	45.208	2010.299	2221.568
280.585	44.829	2007.233	2213.778
281.599	44.737	2005.471	2210.566
282.614	44.842	2005.558	2211.549
283.628	45.699	2007.160	2222.393
284.643	46.647	2008.078	2233.481
285.657	46.976	2007.358	2235.995
286.672	46.694	2004.804	2229.819
287.687	46.856	2003.462	2229.812
288.701	46.583	2001.471	2224.367
289.716	46.389	1999.515	2219.831
290.730	46.216	1997.217	2215.134
291.745	45.996	1995.777	2210.898
292.760	45.960	1993.589	2207.821
293.774	45.729	1993.244	2204.672
294.789	45.672	1992.394	2202.853
295.803	45.816	1989.657	2201.115
296.818	45.987	1988.256	2201.144
297.833	46.238	1986.967	2202.155
298.847	46.653	1987.735	2207.219
299.862	46.909	1985.712	2207.460
300.876	45.663	1979.714	2187.159
301.891	40.689	1963.175	2115.521
302.906	36.493	1957.612	2064.335
303.920	41.827	1970.107	2134.705
304.935	44.940	1972.626	2170.555
305.949	45.218	1973.037	2173.727
306.964	46.485	1974.138	2188.223
307.979	46.645	1972.134	2187.445
308.993	45.511	1967.913	2170.421
310.008	45.421	1966.880	2168.061
311.022	46.167	1967.575	2176.519
312.037	46.498	1965.054	2176.989
313.052	46.104	1963.706	2171.044
314.066	45.951	1961.112	2166.297
315.081	45.840	1959.453	2163.029
316.095	45.592	1956.955	2157.385
317.110	45.849	1956.744	2159.616
318.125	46.117	1957.144	2162.640
319.139	46.488	1956.912	2166.048
320.154	46.742	1955.446	2166.846
321.168	46.754	1954.141	2165.268
322.183	46.704	1951.083	2161.091
323.197	46.279	1949.751	2154.881
324.212	45.985	1947.376	2148.901
325.227	45.663	1944.259	2141.829
326.241	45.346	1942.432	2136.228
327.256	45.520	1940.775	2135.971
328.270	46.027	1941.093	2141.383
329.285	46.096	1940.250	2140.922
330.300	44.448	1933.610	2116.114
331.314	38.008	1917.018	2030.619
332.329	36.310	1916.487	2012.041
333.343	42.480	1928.479	2089.188
334.358	46.323	1934.224	2135.370
335.373	46.844	1933.987	2140.277
336.387	46.581	1932.051	2135.143
337.402	46.520	1929.972	2131.959
338.416	46.499	1928.939	2130.340
339.431	46.481	1927.124	2127.890
340.446	47.317	1926.561	2135.696
341.460	47.517	1926.011	2136.902
342.475	47.769	1923.911	2136.924
343.489	46.800	1920.737	2123.127
344.504	46.567	1919.923	2119.566
345.519	46.767	1918.205	2119.475
346.533	46.768	1915.792	2116.570
347.548	46.646	1914.352	2113.472
348.562	46.358	1912.906	2108.656
349.577	46.798	1912.884	2112.902
350.592	46.980	1912.044	2113.594
351.606	46.981	1911.436	2112.682
352.621	47.710	1911.094	2119.541
353.635	47.746	1909.166	2117.515
354.650	46.998	1906.177	2106.283
355.665	46.650	1903.006	2098.967
356.679	46.386	1900.893	2093.693
357.694	45.745	1899.376	2085.210
358.708	45.855	1898.199	2084.801
359.723	44.662	1890.200	2063.618
360.738	38.083	1873.764	1978.678
361.752	36.939	1875.909	1969.033
362.767	42.752	1885.398	2038.198
363.781	44.880	1887.780	2062.205
364.796	46.137	1889.336	2076.433
365.810	46.053	1887.469	2073.280
366.825	45.573	1885.713	2066.240
367.840	45.894	1885.647	2069.179
368.854	45.873	1884.436	2067.388
369.869	45.845	1881.576	2063.716
370.883	45.685	1879.739	2059.842
371.898	45.562	1879.510	2058.093
372.913	45.986	1878.101	2060.590
373.927	46.067	1877.827	2060.860
374.942	46.505	1877.287	2064.435
375.956	46.616	1875.604	2063.451
376.971	46.114	1872.101	2054.305
377.986	46.408	1872.182	2057.105
379.000	47.010	1871.576	2062.238
380.015	47.417	1871.667	2066.176
381.029	46.880	1868.579	2057.137
382.044	46.622	1867.178	2052.773
383.059	46.852	1864.840	2052.252
384.073	46.144	1861.522	2041.286
385.088	45.332	1859.732	2030.973
386.102	45.774	1859.992	2035.428
387.117	46.666	1861.121	2045.324
388.132	46.909	1859.604	2045.834
389.146	45.220	1851.332	2019.716
390.161	38.223	1832.601	1929.892
391.175	36.331	1831.476	1909.688
392.190	43.053	1843.980	1989.501
393.205	45.772	1846.429	2018.874
394.219	45.857	1844.157	2016.985
395.234	45.447	1843.179	2011.627
396.248	45.458	1842.001	2010.208
397.263	45.710	1839.240	2009.437
398.278	45.142	1835.773	1999.818
399.292	44.739	1835.806	1995.651
400.307	46.065	1838.960	2011.905
401.321	46.593	1837.777	2015.566
402.336	45.857	1834.835	2004.873
403.350	45.895	1833.554	2003.603
404.365	46.679	1833.539	2011.044
405.380	47.778	1834.550	2022.681
406.394	47.908	1834.001	2023.106
407.409	46.903	1829.767	2008.376
408.423	46.391	1826.955	2000.046
409.438	46.554	1826.065	2000.424
410.453	46.711	1825.783	2001.409
411.467	46.726	1825.193	2000.668
412.482	47.273	1826.102	2006.754
413.496	47.632	1824.023	2007.730
414.511	46.816	1820.419	1995.590
415.526	46.838	1818.644	1993.619
416.540	47.889	1818.671	2003.614
417.555	47.818	1816.319	2000.088
418.569	46.638	1814.340	1986.247
419.584	47.076	1816.047	1992.127
420.599	47.605	1814.663	1995.489
421.613	46.382	1811.267	1979.694
422.628	45.626	1808.818	1969.481
423.642	47.039	1811.878	1986.244
424.657	47.900	1809.417	1991.611
425.672	46.075	1804.780	1968.709
426.686	46.035	1804.864	1968.175
427.701	46.725	1803.877	1973.509
428.715	47.728	1805.351	1984.529
429.730	49.102	1806.868	1999.168
430.745	49.696	1806.251	2003.947
431.759	48.967	1803.647	1993.832
432.774	46.768	1793.909	1961.833
433.788	37.678	1770.098	1849.290
434.803	29.968	1755.728	1760.706
435.818	28.809	1753.041	1746.740
436.832	28.658	1752.597	1744.642
437.847	28.090	1746.372	1732.831
438.861	18.960	1717.453	1617.991
439.876	4.644	1690.171	1457.992
440.890	0.636	1683.202	1414.141
441.905	0.351	1681.547	1409.902
442.920	0.265	1679.856	1407.509
443.934	0.230	1678.959	1406.259
444.949	0.346	1677.121	1405.639
445.963	0.237	1676.597	1404.007
446.978	0.236	1676.465	1403.719
447.993	0.349	1674.936	1403.326
449.007	0.338	1672.366	1400.904
450.022	0.340	1670.314	1399.034
451.036	0.342	1669.105	1397.876
452.051	1.068	1674.525	1409.032
453.066	11.504	1701.152	1529.971
454.080	25.166	1724.186	1680.049
455.095	29.625	1731.816	1729.342
456.109	31.500	1735.063	1750.036
457.124	32.345	1734.471	1757.164
458.139	31.684	1732.097	1748.346
459.153	31.093	1731.184	1741.671
460.168	31.205	1729.029	1740.353
461.182	31.394	1727.498	1740.370
462.197	31.476	1726.795	1740.220
463.212	31.579	1725.712	1739.885
464.226	31.952	1723.852	1741.277
465.241	31.946	1722.821	1739.972
466.255	31.949	1722.968	1739.940
467.270	31.766	1720.950	1735.989
468.285	32.053	1719.311	1736.802
469.299	32.422	1718.320	1739.023
470.314	32.558	1717.533	1739.274
471.328	32.651	1716.193	1738.572
472.343	32.785	1716.395	1739.810
473.358	33.032	1715.718	1741.208
474.372	32.967	1714.770	1739.434
475.387	33.354	1713.578	1741.594
476.401	33.409	1712.513	1740.810
477.416	32.890	1710.213	1733.480
478.430	32.634	1708.530	1729.202
479.445	33.101	1708.253	1733.027
480.460	33.459	1707.312	1735.156
481.474	33.342	1705.962	1732.500
482.489	33.245	1704.888	1730.315
483.503	32.938	1701.715	1724.065
484.518	32.699	1699.670	1719.597
485.533	32.860	1699.421	1720.612
486.547	32.803	1697.148	1717.588
487.562	32.030	1695.018	1708.154
488.576	32.326	1694.341	1709.971
489.591	32.776	1694.278	1713.818
490.606	33.179	1694.169	1717.180
491.620	33.292	1692.956	1716.780
492.635	32.905	1689.450	1709.491
493.649	32.403	1687.207	1702.453
494.664	32.502	1686.546	1702.490
495.679	32.754	1685.962	1703.986
496.693	32.767	1684.167	1702.080
497.708	32.587	1682.779	1698.842
498.722	32.309	1681.002	1694.326
499.737	32.279	1679.352	1692.195
500.752	32.353	1677.984	1691.276
501.766	32.499	1676.233	1690.633
502.781	32.170	1674.529	1685.743
503.795	32.169	1673.462	1684.459
504.810	32.204	1672.232	1683.336
505.825	32.043	1670.980	1680.424
506.839	31.832	1669.625	1676.963
507.854	31.801	1668.536	1675.391
508.868	31.786	1666.046	1672.556
509.883	31.496	1664.294	1667.992
510.898	31.075	1663.132	1662.862
511.912	30.997	1661.095	1659.925
512.927	31.004	1659.890	1658.586
513.941	30.902	1658.965	1656.553
514.956	31.362	1658.408	1659.903
515.971	32.069	1657.392	1664.993
516.985	31.599	1655.917	1659.124
518.000	31.125	1653.974	1652.762
519.014	30.933	1652.433	1649.318
520.029	30.927	1650.208	1646.846
521.043	30.977	1649.004	1645.892
522.058	31.196	1648.489	1647.123
523.073	31.157	1647.653	1645.739
524.087	30.741	1646.621	1640.833
525.102	30.941	1645.334	1641.124
526.116	31.505	1645.060	1645.641
527.131	31.861	1644.159	1647.690
528.146	31.675	1642.747	1644.429
529.160	31.701	1641.461	1643.182
530.175	31.598	1640.995	1641.607
531.189	31.845	1640.293	1642.885
532.204	31.807	1638.540	1640.600
533.219	32.076	1638.380	1642.606
534.233	32.529	1638.978	1646.993
535.248	32.584	1637.400	1645.695
536.262	32.174	1635.499	1639.987
537.277	32.298	1634.526	1639.903
538.292	32.552	1633.576	1640.984
539.306	32.557	1631.710	1638.956
540.321	32.326	1629.173	1634.193
541.335	31.743	1627.388	1627.114
542.350	32.128	1625.834	1628.726
543.365	32.452	1625.322	1630.837
544.379	32.524	1624.171	1630.113
545.394	32.415	1622.846	1627.644
546.408	32.379	1621.930	1626.216
547.423	32.562	1621.530	1627.214
548.438	32.720	1620.317	1627.172
549.452	32.619	1618.562	1624.338
550.467	32.416	1616.958	1620.777
551.481	32.315	1615.411	1618.155
552.496	31.988	1614.670	1614.396
553.511	31.600	1612.635	1608.817
554.525	31.430	1610.625	1605.150
555.540	31.342	1609.663	1603.244
556.554	31.339	1608.994	1602.358
557.569	31.323	1607.658	1600.700
558.583	31.348	1605.334	1598.410
559.598	31.225	1604.275	1596.101
560.613	31.141	1603.419	1594.337
561.627	31.193	1601.240	1592.432
562.642	30.770	1599.199	1586.585
563.656	30.460	1596.749	1581.309
564.671	30.384	1595.630	1579.365
565.686	30.333	1595.047	1578.164
566.700	30.551	1593.844	1578.646
567.715	30.560	1592.712	1577.409
568.729	30.831	1592.415	1579.240
569.744	31.315	1592.004	1582.761
570.759	31.389	1590.079	1581.289
571.773	31.228	1587.960	1577.631
572.788	30.797	1586.751	1572.576
573.802	30.597	1585.189	1569.144
574.817	30.369	1583.361	1565.219
575.832	30.142	1581.707	1561.474
576.846	30.536	1580.891	1563.810
577.861	30.875	1580.784	1566.386
578.875	31.055	1580.099	1567.037
579.890	31.045	1578.503	1565.188
580.905	31.128	1577.493	1564.694
581.919	31.077	1577.368	1563.960
582.934	31.157	1576.910	1563.987
583.948	31.131	1575.397	1562.083
584.963	31.160	1574.483	1561.231
585.978	31.657	1573.648	1564.394
586.992	31.740	1572.911	1564.170
588.007	31.516	1572.141	1561.337
589.021	31.552	1570.842	1560.158
590.036	31.098	1568.497	1553.849
591.051	30.998	1567.546	1551.881
592.065	31.374	1565.982	1553.290
593.080	31.446	1564.940	1552.673
594.094	31.708	1563.784	1553.522
595.109	31.872	1562.135	1553.064
596.123	32.386	1561.258	1556.283
597.138	32.057	1559.736	1551.848
598.153	31.588	1558.489	1546.528
599.167	31.618	1556.894	1545.009
600.182	31.618	1555.957	1543.895
601.196	31.553	1555.191	1542.408
602.211	31.496	1553.303	1539.879
603.226	31.205	1551.486	1535.485
604.240	31.229	1549.947	1533.978
605.255	31.187	1548.577	1532.095
606.269	30.971	1548.772	1530.321
607.284	30.765	1546.758	1526.447
608.299	30.799	1544.942	1524.751
609.313	30.781	1543.637	1523.137
610.328	30.600	1542.479	1520.321
611.342	30.635	1540.586	1518.560
612.357	30.631	1538.956	1516.745
613.372	30.481	1538.486	1514.869
614.386	30.526	1536.922	1513.511
615.401	30.265	1536.430	1510.713
616.415	30.052	1535.766	1508.134
617.430	30.002	1534.148	1505.962
618.445	29.955	1532.279	1503.557
619.459	29.861	1531.567	1501.915
620.474	30.110	1531.052	1503.258
621.488	30.613	1531.645	1507.760
622.503	31.520	1530.916	1514.250
623.518	30.975	1528.084	1506.840
624.532	30.050	1526.261	1497.353
625.547	29.955	1523.488	1493.682
626.561	29.829	1522.368	1491.383
627.576	29.468	1522.025	1487.943
628.591	30.000	1522.442	1492.483
629.605	30.485	1521.835	1495.633
630.620	31.135	1521.008	1499.895
631.634	31.897	1520.776	1505.639
632.649	31.813	1519.389	1503.412
633.663	31.090	1517.348	1495.387
634.678	30.417	1514.561	1487.046
635.693	29.899	1511.914	1480.109
636.707	29.771	1509.601	1476.642
637.722	29.426	1509.429	1473.528
638.736	29.757	1508.617	1475.211
639.751	29.970	1508.057	1476.195
640.766	30.094	1506.718	1475.696
641.780	30.151	1505.788	1475.068
642.795	30.199	1505.160	1474.655
643.809	30.561	1504.420	1476.651
644.824	30.569	1503.853	1475.979
645.839	30.740	1503.860	1477.177
646.853	30.801	1502.217	1475.870
647.868	30.903	1500.665	1474.983
648.882	31.023	1499.816	1474.920
649.897	31.206	1498.342	1474.751
650.912	31.193	1496.976	1473.128
651.926	31.088	1496.546	1471.695
652.941	31.050	1495.053	1469.752
653.955	30.948	1492.857	1466.606
654.970	30.543	1490.859	1461.268
655.985	30.325	1488.373	1456.938
656.999	30.036	1487.331	1453.463
658.014	29.869	1486.797	1451.450
659.028	30.115	1486.093	1452.525
660.043	30.765	1486.842	1458.207
661.058	31.070	1485.891	1459.499
662.072	31.026	1484.629	1457.742
663.087	31.210	1483.408	1457.814
664.101	31.118	1481.834	1455.365
665.116	30.931	1480.379	1452.303
666.131	30.986	1479.074	1451.275
667.145	30.935	1477.833	1449.487
668.160	30.613	1476.572	1445.562
669.174	30.302	1474.769	1441.195
670.189	30.327	1473.627	1440.101
671.204	30.548	1473.592	1441.622
672.218	30.443	1472.327	1439.388
673.233	30.447	1470.773	1437.728
674.247	30.299	1468.904	1434.584
675.262	30.132	1467.854	1432.084
676.276	30.092	1466.789	1430.570
677.291	30.074	1466.036	1429.525
678.306	30.263	1465.685	1430.475
679.320	30.315	1463.970	1429.032
680.335	30.015	1462.475	1425.081
681.349	29.966	1461.913	1423.985
682.364	30.007	1460.805	1423.050
683.379	29.866	1459.167	1420.197
684.393	29.709	1458.100	1417.778
685.408	29.713	1456.804	1416.376
686.422	29.719	1455.378	1414.866
687.437	29.598	1454.027	1412.460
688.452	29.334	1453.204	1409.456
689.466	29.383	1451.416	1407.935
690.481	29.457	1450.427	1407.369
691.495	29.611	1451.025	1408.967
692.510	30.545	1452.210	1417.109
693.525	31.546	1451.549	1423.955
694.539	31.159	1448.682	1418.020
695.554	29.882	1446.246	1405.720
696.568	29.341	1444.276	1399.513
697.583	29.165	1442.928	1396.694
698.598	29.227	1442.518	1396.606
699.612	29.239	1441.562	1395.606
700.627	29.340	1439.949	1394.640
701.641	29.797	1439.228	1397.247
702.656	29.966	1438.890	1398.039
703.671	29.683	1438.318	1395.165
704.685	29.797	1437.813	1395.374
705.700	29.980	1436.515	1395.331
706.714	30.288	1435.604	1396.612
707.729	30.711	1434.546	1398.611
708.744	30.819	1432.748	1397.505
709.758	30.621	1431.635	1394.763
710.773	29.953	1430.489	1388.445
711.787	29.735	1428.833	1385.032
712.802	30.149	1427.481	1386.670
713.816	30.481	1427.731	1389.238
714.831	30.509	1427.288	1388.851
715.846	30.468	1425.449	1386.587
716.860	30.178	1423.780	1382.626
717.875	30.361	1422.584	1382.670
718.889	30.490	1422.108	1383.007
719.904	30.267	1421.149	1380.239
720.919	30.349	1419.135	1378.733
721.933	30.061	1418.322	1375.626
722.948	30.046	1416.996	1374.068
723.962	30.027	1416.049	1372.837
724.977	29.922	1414.523	1370.417
725.992	29.712	1413.524	1367.725
727.006	29.854	1412.125	1367.261
728.021	29.781	1410.423	1364.904
729.035	29.667	1409.573	1363.075
730.050	29.709	1408.442	1362.130
731.065	29.724	1407.006	1360.686
732.079	29.521	1406.431	1358.466
733.094	29.524	1405.748	1357.672
734.108	29.834	1404.095	1358.199
735.123	29.734	1402.131	1355.397
736.138	29.515	1401.057	1352.584
737.152	29.493	1400.560	1351.779
738.167	29.548	1398.445	1349.986
739.181	29.508	1397.440	1348.560
740.196	29.425	1397.149	1347.504
741.211	29.187	1396.584	1345.051
742.225	29.177	1396.007	1344.261
743.240	29.101	1394.123	1341.729
744.254	29.177	1391.809	1339.898
745.269	28.985	1390.880	1337.443
746.284	28.919	1389.992	1335.943
747.298	29.137	1389.289	1336.699
748.313	29.310	1389.609	1338.108
749.327	29.824	1389.781	1341.863
750.342	30.548	1390.137	1347.325
751.356	31.289	1389.582	1352.024
752.371	31.088	1387.870	1348.733
753.386	30.032	1384.516	1337.653
754.400	29.239	1382.597	1329.884
755.415	29.248	1381.476	1328.712
756.429	29.399	1380.469	1328.680
757.444	29.436	1379.682	1328.031
758.459	29.509	1378.144	1326.918
759.473	29.550	1377.283	1326.229
760.488	29.605	1376.024	1325.254
761.502	29.411	1375.545	1323.234
762.517	29.617	1374.966	1324.003
763.532	30.002	1373.433	1325.137
764.546	30.074	1371.932	1324.052
765.561	29.764	1370.656	1320.437
766.575	29.378	1369.876	1316.754
767.590	29.105	1368.867	1313.668
768.605	29.580	1368.953	1317.001
769.619	30.113	1367.681	1319.439
770.634	30.148	1366.249	1318.147
771.648	29.862	1364.922	1314.665
772.663	29.427	1363.798	1310.319
773.678	29.320	1363.113	1308.745
774.692	29.397	1361.541	1307.626
775.707	29.474	1361.004	1307.505
776.721	29.298	1360.200	1305.324
777.736	29.140	1358.760	1302.661
778.751	29.070	1357.941	1301.220
779.765	29.161	1356.299	1300.138
780.780	28.981	1355.711	1298.140
781.794	28.992	1355.684	1298.034
782.809	28.770	1353.855	1294.556
783.824	28.766	1352.536	1293.111
784.838	28.991	1352.374	1294.400
785.853	30.110	1352.460	1302.233
786.867	30.041	1351.382	1300.549
787.882	29.376	1350.331	1294.696
788.897	29.045	1348.581	1290.531
789.911	28.869	1347.075	1287.693
790.926	28.753	1345.074	1284.811
791.940	28.674	1343.430	1282.531
792.955	28.619	1342.343	1280.955
793.969	28.571	1341.304	1279.476
794.984	28.590	1341.407	1279.550
795.999	28.651	1340.370	1278.838
797.013	28.714	1338.087	1276.950
798.028	28.768	1336.584	1275.737
799.042	28.870	1336.082	1275.819
800.057	28.697	1336.001	1274.376
801.072	28.937	1333.857	1273.852
802.086	28.939	1332.908	1272.808
803.101	28.852	1332.076	1271.257
804.115	28.901	1330.705	1270.134
805.130	28.970	1329.947	1269.736
806.145	28.987	1329.635	1269.408
807.159	29.054	1328.152	1268.306
808.174	29.308	1327.176	1268.976
809.188	29.329	1326.741	1268.553
810.203	29.574	1325.062	1268.488
811.218	29.544	1323.960	1267.075
812.232	29.330	1322.554	1264.105
813.247	28.888	1321.216	1259.633
814.261	29.159	1321.404	1261.526
815.276	29.499	1320.248	1262.607
816.291	29.242	1318.576	1259.090
817.305	29.033	1317.349	1256.336
818.320	28.931	1315.543	1253.765
819.334	28.768	1314.596	1251.597
820.349	28.820	1313.564	1250.821
821.364	28.765	1311.378	1248.214
822.378	28.709	1310.420	1246.767
823.393	28.775	1308.495	1245.242
824.407	28.682	1307.422	1243.438
825.422	28.625	1307.287	1242.772
826.437	28.526	1306.543	1241.241
827.451	28.412	1305.271	1239.105
828.466	29.060	1305.055	1243.155
829.480	29.861	1303.843	1247.284
830.495	29.251	1301.065	1240.350
831.509	28.673	1299.734	1235.025
832.524	28.469	1298.619	1232.440
833.539	28.431	1297.262	1230.752
834.553	28.429	1295.806	1229.210
835.568	28.317	1294.896	1227.441
836.582	28.464	1293.488	1226.951
837.597	28.651	1292.378	1227.008
838.612	28.737	1291.684	1226.775
839.626	28.862	1290.403	1226.250
840.641	29.109	1289.912	1227.295
841.655	29.124	1289.374	1226.735
842.670	28.900	1288.321	1224.092
843.685	28.814	1286.986	1222.100
844.699	28.919	1285.952	1221.675
845.714	28.979	1284.206	1220.266
846.728	28.933	1282.935	1218.608
847.743	28.763	1282.283	1216.711
848.758	28.690	1281.290	1215.137
849.772	28.555	1279.603	1212.497
850.787	28.642	1278.070	1211.472
851.801	28.301	1277.347	1208.381
852.816	28.444	1275.927	1207.840
853.831	28.310	1274.657	1205.609
854.845	28.300	1272.671	1203.519
855.860	28.392	1270.778	1202.190
856.874	28.490	1270.013	1201.968
857.889	28.777	1270.380	1204.063
858.904	29.234	1270.200	1206.763
859.918	29.697	1269.539	1209.034
860.933	30.127	1268.338	1210.565
861.947	29.621	1266.807	1205.643
862.962	28.976	1264.781	1199.345
863.977	28.774	1263.098	1196.281
864.991	28.542	1262.000	1193.581
866.006	28.284	1261.689	1191.462
867.020	28.396	1259.802	1190.264
868.035	28.305	1258.327	1188.136
869.049	28.192	1258.344	1187.273
870.064	28.418	1256.954	1187.294
871.079	28.492	1255.724	1186.471
872.093	28.396	1255.652	1185.633
873.108	28.525	1254.684	1185.414
874.122	28.596	1253.697	1184.800
875.137	28.511	1253.741	1184.150
876.152	28.586	1253.252	1184.036
877.166	28.656	1250.665	1181.898
878.181	28.471	1249.022	1179.014
879.195	28.314	1248.184	1177.067
880.210	28.389	1246.999	1176.291
881.225	28.338	1245.967	1174.847
882.239	28.366	1245.135	1174.102
883.254	28.330	1244.231	1172.878
884.268	28.259	1243.155	1171.267
885.283	28.549	1241.850	1171.761
886.298	28.260	1240.621	1168.606
887.312	28.280	1239.743	1167.770
888.327	28.304	1238.946	1167.029
889.341	28.199	1237.210	1164.585
890.356	28.190	1236.870	1164.066
891.371	28.338	1236.344	1164.381
892.385	28.284	1235.340	1162.952
893.400	28.283	1234.564	1162.071
894.414	28.262	1233.970	1161.242
895.429	28.703	1232.924	1162.926
896.444	29.684	1233.184	1169.271
897.458	30.670	1232.762	1174.995
898.473	30.170	1230.938	1169.948
899.487	29.064	1229.462	1161.393
900.502	28.600	1226.707	1155.715
901.517	28.385	1224.662	1152.296
902.531	28.407	1223.503	1151.204
903.546	28.172	1223.173	1149.269
904.560	28.249	1222.843	1149.308
905.575	28.100	1222.693	1148.091
906.589	28.201	1221.812	1147.761
907.604	28.251	1220.748	1146.940
