DTS Sentinel unit serial number:	SN409020Multiplexer serial number:	ORYXHardware model number:	OX4-SRSoftware version number:	ORYX F/W v3.00 Oryx Data Collector v3.7.2.0data status	okinstallation	HaddamTimeLapsedifferential loss correction	single-endedforward channel	channel 3reverse channel	N/Adate	2011/06/21time	17:51:17forward acquisition time	30.00reverse acquisition time	0.00gamma	498.7831k internal	0.1834k external	0.1834temperature offset calibration	1.0074default loss term (dB/km)	0.3790temperature slope calibration	1.3530multiplexer offset coefficient	1.0000multiplexer slope coefficient	1.0000fibre end	0.00T internal ref (°C)	35.69T ext. ref 1 (°C)	30.32T ext. ref 2 (°C)	0.27length (m)	temperature (°C)	Stokes	anti-Stokes-747.200	-88.366	-0.053	0.020
-746.185	-200.000	0.003	0.494
-745.171	-48.825	0.215	-0.130
-744.156	511.553	0.208	0.617
-743.142	-200.000	0.001	0.158
-742.127	-200.000	-0.011	0.459
-741.112	-55.951	-0.295	-0.166
-740.098	-200.000	-0.076	0.434
-739.083	346.445	0.158	-0.396
-738.069	-30.954	-0.231	-0.165
-737.054	-13.137	-0.329	0.270
-736.039	319.377	-0.136	0.328
-735.025	-4.159	-0.261	0.229
-734.010	442.383	-0.034	0.095
-732.996	-200.000	0.005	0.114
-731.981	-132.010	-0.621	-0.102
-730.966	-108.439	-0.454	-0.123
-729.952	103.790	0.230	0.344
-728.937	264.581	-0.236	-0.524
-727.923	95.252	0.076	0.110
-726.908	-53.148	-0.235	-0.136
-725.894	-82.982	-0.261	0.106
-724.879	-1.098	0.058	-0.052
-723.864	214.528	0.119	-0.240
-722.850	-51.333	-0.178	-0.105
-721.835	800.000	0.089	-0.320
-720.821	-129.916	0.212	0.036
-719.806	176.379	0.124	-0.229
-718.791	21.101	0.246	0.253
-717.777	-98.910	0.278	0.089
-716.762	-139.992	-0.215	0.028
-715.748	-36.013	-0.134	0.092
-714.733	114.160	0.213	0.329
-713.718	171.275	-0.262	0.477
-712.704	-200.000	-0.008	0.307
-711.689	-96.847	-0.184	0.061
-710.675	-91.673	-0.340	0.122
-709.660	-200.000	-0.037	-0.332
-708.645	-122.281	0.230	-0.047
-707.631	800.000	0.022	0.114
-706.616	136.161	0.256	-0.424
-705.602	23.888	0.266	-0.277
-704.587	-55.988	-0.414	-0.233
-703.572	-85.333	0.209	-0.082
-702.558	-18.134	0.065	-0.052
-701.543	-85.838	0.525	-0.205
-700.529	135.281	0.065	-0.107
-699.514	-129.162	0.168	0.029
-698.499	-59.385	-0.361	-0.196
-697.485	243.173	0.138	-0.293
-696.470	-47.832	-0.189	-0.116
-695.456	-200.000	0.091	0.632
-694.441	-42.314	-0.533	0.343
-693.426	-90.737	-0.253	0.092
-692.412	-133.588	-0.357	-0.056
-691.397	-200.000	0.012	0.358
-690.383	138.430	0.303	0.505
-689.368	-82.114	-0.161	-0.066
-688.354	-80.423	-0.806	-0.339
-687.339	-149.373	-0.294	0.029
-686.324	-39.380	0.184	0.122
-685.310	-48.948	0.369	-0.223
-684.295	-189.287	-0.166	-0.002
-683.281	-114.186	-0.553	0.134
-682.266	104.335	-0.232	0.347
-681.251	-48.956	-0.489	-0.296
-680.237	-24.787	-0.387	-0.290
-679.222	142.948	0.177	0.298
-678.208	-200.000	0.032	0.198
-677.193	-149.740	-0.236	-0.023
-676.178	-106.427	0.091	-0.025
-675.164	-86.693	-0.250	-0.096
-674.149	64.394	0.088	-0.112
-673.135	800.000	0.113	-0.409
-672.120	-200.000	-0.042	0.340
-671.105	800.000	0.052	0.280
-670.091	371.071	0.057	-0.148
-669.076	521.828	0.016	-0.049
-668.062	42.534	0.400	-0.461
-667.047	88.956	-0.277	-0.391
-666.032	172.050	0.254	-0.462
-665.018	-200.000	0.022	0.211
-664.003	-91.032	-0.122	0.044
-662.989	-98.385	-0.253	-0.081
-661.974	-158.874	-0.164	-0.012
-660.959	-200.000	0.042	0.406
-659.945	107.242	0.286	-0.431
-658.930	-66.735	-0.349	-0.174
-657.916	-49.995	0.460	-0.275
-656.901	179.825	0.190	-0.354
-655.886	-200.000	0.015	-0.393
-654.872	-43.913	-0.488	-0.309
-653.857	4.777	-0.308	0.286
-652.843	-8.265	-0.188	-0.160
-651.828	64.581	-0.216	-0.276
-650.814	-60.129	-0.301	-0.162
-649.799	6.623	0.109	0.102
-648.784	-2.338	-0.185	0.164
-647.770	44.468	-0.275	-0.319
-646.755	-200.000	-0.059	-0.555
-645.741	63.127	-0.139	0.176
-644.726	800.000	-0.049	-0.241
-643.711	-72.134	0.358	0.167
-642.697	265.604	0.132	0.292
-641.682	-200.000	0.003	-0.451
-640.668	-200.000	-0.047	-0.291
-639.653	382.485	0.297	0.774
-638.638	-164.348	-0.573	0.033
-637.624	800.000	0.055	-0.291
-636.609	-17.098	0.037	0.029
-635.595	519.667	-0.203	0.605
-634.580	25.221	0.114	-0.120
-633.565	-98.784	-0.049	-0.016
-632.551	-0.095	-0.325	0.292
-631.536	59.845	-0.230	-0.287
-630.522	-83.330	-0.506	0.204
-629.507	-98.345	-0.549	-0.177
-628.492	412.773	-0.046	0.124
-627.478	-100.396	0.366	-0.114
-626.463	385.236	-0.045	0.118
-625.449	-102.175	-0.102	0.031
-624.434	-200.000	0.058	0.506
-623.419	-94.669	-0.065	0.022
-622.405	-121.092	-0.463	-0.097
-621.390	-63.540	-0.619	-0.319
-620.376	198.439	0.076	-0.146
-619.361	783.867	0.114	0.398
-618.346	-64.114	-0.268	0.138
-617.332	-155.417	0.378	0.031
-616.317	-18.908	0.127	-0.099
-615.303	219.396	0.054	0.109
-614.288	141.215	-0.035	-0.058
-613.273	19.045	0.203	-0.206
-612.259	-61.920	-0.226	-0.119
-611.244	800.000	-0.046	0.209
-610.230	1.132	-0.147	0.133
-609.215	800.000	0.019	0.077
-608.201	800.000	-0.082	0.446
-607.186	-56.551	0.106	-0.059
-606.171	800.000	0.080	-0.334
-605.157	-80.647	0.257	-0.108
-604.142	800.000	-0.114	-0.433
-603.128	800.000	-0.096	-0.467
-602.113	-67.791	0.261	-0.128
-601.098	-123.921	0.303	0.060
-600.084	-35.338	-0.111	0.076
-599.069	-170.443	-0.371	-0.016
-598.055	-24.628	-0.146	-0.109
-597.040	-200.000	0.030	0.464
-596.025	531.630	0.193	0.578
-595.011	-150.973	0.041	0.004
-593.996	-52.886	0.127	-0.073
-592.982	-200.000	0.032	-0.265
-591.967	800.000	-0.015	-0.071
-590.952	54.773	-0.337	-0.410
-589.938	171.891	-0.188	-0.342
-588.923	-36.101	-0.267	-0.181
-587.909	800.000	-0.005	-0.021
-586.894	587.354	-0.078	-0.243
-585.879	40.799	-0.153	-0.174
-584.865	-44.598	-0.103	-0.065
-583.850	29.783	-0.307	0.330
-582.836	12.919	0.217	0.212
-581.821	-102.540	-0.103	-0.031
-580.806	-144.455	-0.184	-0.021
-579.792	312.708	0.086	0.203
-578.777	-92.482	0.244	-0.086
-577.763	294.996	0.096	0.223
-576.748	355.141	0.181	0.456
-575.733	-200.000	0.008	0.248
-574.719	-91.230	-0.511	0.184
-573.704	69.341	-0.018	0.024
-572.690	553.025	0.088	-0.267
-571.675	-34.839	-0.303	0.208
-570.661	39.673	0.307	0.347
-569.646	316.600	0.116	-0.277
-568.631	-50.793	-0.173	0.102
-567.617	56.489	-0.060	-0.074
-566.602	-55.476	0.249	-0.140
-565.588	-100.146	-0.231	0.072
-564.573	-200.000	0.479	0.002
-563.558	233.698	0.336	-0.700
-562.544	412.306	0.223	-0.600
-561.529	-94.286	0.065	0.022
-560.515	-72.942	0.170	0.078
-559.500	-114.413	-0.170	-0.041
-558.485	800.000	0.047	-0.252
-557.471	59.724	-0.231	-0.287
-556.456	800.000	-0.161	-0.619
-555.442	270.760	-0.337	-0.749
-554.427	80.017	0.067	-0.091
-553.412	-140.275	-0.136	-0.018
-552.398	33.380	-0.310	-0.339
-551.383	282.258	-0.165	-0.373
-550.369	-92.620	0.171	0.060
-549.354	800.000	0.035	-0.172
-548.339	-89.002	0.316	-0.117
-547.325	-166.279	0.335	0.018
-546.310	435.173	-0.029	0.081
-545.296	-8.011	0.278	-0.236
-544.281	235.345	0.106	-0.221
-543.266	-93.049	0.392	0.137
-542.252	-167.175	0.155	0.008
-541.237	-108.168	0.607	0.164
-540.223	-200.000	0.021	0.133
-539.208	28.117	-0.419	-0.444
-538.193	800.000	-0.103	-0.536
-537.179	239.346	0.137	0.288
-536.164	-21.384	0.140	-0.107
-535.150	-142.486	0.502	0.061
-534.135	304.238	-0.087	-0.204
-533.121	13.926	0.145	-0.142
-532.106	-102.533	0.459	0.137
-531.091	-116.524	0.494	-0.114
-530.077	329.940	0.156	-0.378
-529.062	-28.948	-0.059	-0.042
-528.048	-32.679	0.384	0.268
-527.033	-200.000	-0.058	0.418
-526.018	-39.700	0.508	-0.333
-525.004	234.689	-0.079	-0.165
-523.989	44.991	0.118	-0.136
-522.975	-81.298	-0.353	-0.146
-521.960	-118.358	0.259	-0.057
-520.945	220.235	0.205	-0.414
-519.931	23.139	-0.516	-0.532
-518.916	56.991	-0.060	0.074
-517.902	-6.826	-0.263	0.225
-516.887	-65.711	-0.611	-0.307
-515.872	800.000	0.038	0.172
-514.858	-46.647	0.079	0.048
-513.843	-127.215	0.258	0.047
-512.829	-96.261	-0.192	-0.064
-511.814	-124.300	0.147	-0.029
-510.799	25.514	0.108	0.112
-509.785	284.451	0.170	0.385
-508.770	800.000	0.041	0.172
-507.756	-136.756	-0.486	0.070
-506.741	62.847	0.238	0.300
-505.726	-140.081	0.384	0.050
-504.712	464.959	-0.075	0.211
-503.697	-63.264	-0.188	0.097
-502.683	57.437	0.274	0.337
-501.668	127.224	-0.279	0.446
-500.653	800.000	0.082	0.305
-499.639	-200.000	-0.072	-0.599
-498.624	-149.026	0.092	-0.009
-497.610	-25.886	0.115	-0.085
-496.595	-118.474	-0.280	-0.062
-495.581	800.000	0.068	-0.296
-494.566	-93.535	-0.302	-0.104
-493.551	-71.750	-0.429	-0.200
-492.537	186.345	-0.070	-0.130
-491.522	182.888	0.209	-0.389
-490.508	609.304	-0.113	-0.358
-489.493	713.210	-0.023	0.077
-488.478	212.524	0.229	-0.455
-487.464	-55.407	0.191	-0.108
-486.449	-49.615	-0.199	-0.119
-485.435	-90.998	-0.244	-0.088
-484.420	-24.613	0.397	-0.296
-483.405	-200.000	-0.028	-0.514
-482.391	95.548	0.174	-0.250
-481.376	5.143	-0.171	-0.158
-480.362	-200.000	-0.023	-0.163
-479.347	-150.353	-0.088	0.008
-478.332	-116.850	-0.240	0.055
-477.318	-179.351	-0.341	0.009
-476.303	800.000	-0.097	-0.446
-475.289	128.541	-0.210	-0.336
-474.274	74.877	-0.131	-0.173
-473.259	-200.000	-0.288	-0.001
-472.245	-200.000	0.032	-0.269
-471.230	315.747	0.146	-0.347
-470.216	-200.000	-0.035	-0.222
-469.201	-123.887	-0.297	0.058
-468.186	-107.487	-0.197	0.054
-467.172	-200.000	-0.028	-0.203
-466.157	297.651	0.120	-0.278
-465.143	-129.916	-0.248	-0.042
-464.128	95.364	-0.097	0.139
-463.113	-88.010	0.309	0.116
-462.099	800.000	0.054	-0.233
-461.084	-113.638	-0.343	-0.083
-460.070	335.802	-0.078	0.191
-459.055	-59.946	0.142	0.076
-458.040	29.752	-0.298	-0.319
-457.026	451.551	0.150	-0.417
-456.011	207.325	-0.035	-0.069
-454.997	372.297	-0.029	0.073
-453.982	-45.566	0.410	0.254
-452.968	43.804	-0.169	0.194
-451.953	-200.000	-0.012	0.121
-450.938	-200.000	-0.016	0.443
-449.924	800.000	-0.047	-0.171
-448.909	476.686	-0.051	-0.146
-447.895	800.000	-0.127	0.549
-446.880	656.459	-0.024	0.077
-445.865	-65.010	0.213	-0.108
-444.851	69.966	0.155	0.200
-443.836	-38.469	-0.315	0.208
-442.822	71.650	-0.132	0.172
-441.807	141.084	0.121	0.201
-440.792	-101.473	-0.155	-0.047
-439.778	251.949	-0.012	-0.025
-438.763	21.961	0.252	-0.257
-437.749	291.006	0.166	0.380
-436.734	222.052	0.228	0.462
-435.719	-200.000	-0.069	0.000
-434.705	113.328	-0.265	0.404
-433.690	-116.465	-0.053	0.012
-432.676	-110.523	-0.498	0.128
-431.661	-27.010	0.145	-0.106
-430.646	50.649	-0.223	0.265
-429.632	160.667	-0.120	-0.211
-428.617	-200.000	0.017	0.441
-427.603	-200.000	-0.011	0.111
-426.588	800.000	-0.111	-0.461
-425.573	-200.000	0.108	-0.677
-424.559	280.289	-0.231	0.519
-423.544	-200.000	-0.041	-0.569
-422.530	-71.177	0.232	-0.109
-421.515	800.000	-0.039	0.153
-420.500	800.000	-0.080	-0.355
-419.486	15.736	0.184	0.181
-418.471	-37.027	0.336	-0.225
-417.457	179.147	0.215	0.395
-416.442	32.814	-0.226	-0.245
-415.428	-200.000	0.009	-0.252
-414.413	-131.920	0.492	-0.080
-413.398	149.088	-0.176	-0.298
-412.384	708.859	-0.074	0.245
-411.369	3.187	-0.130	0.118
-410.355	-133.008	0.164	-0.026
-409.340	800.000	0.110	-0.399
-408.325	-200.000	0.001	-0.013
-407.311	322.531	-0.164	0.392
-406.296	-92.530	-0.082	0.029
-405.282	145.067	0.081	-0.136
-404.267	-132.620	-0.387	0.061
-403.252	-200.000	0.064	-0.373
-402.238	-200.000	-0.013	0.337
-401.223	16.784	0.085	-0.084
-400.209	-136.259	0.418	-0.060
-399.194	415.223	0.063	0.168
-398.179	430.249	0.032	0.087
-397.165	-124.574	0.302	0.058
-396.150	89.755	0.245	0.342
-395.136	31.949	0.177	0.190
-394.121	800.000	-0.052	0.214
-393.106	-83.203	-0.311	-0.124
-392.092	-186.916	0.182	-0.003
-391.077	800.000	-0.084	0.440
-390.063	499.497	-0.028	-0.081
-389.048	-133.913	0.247	-0.038
-388.033	-153.177	0.185	0.016
-387.019	-109.288	0.507	-0.134
-386.004	-121.290	0.320	-0.066
-384.990	-96.937	0.239	-0.078
-383.975	-9.949	-0.205	0.170
-382.960	-200.000	-0.005	0.061
-381.946	224.637	-0.191	-0.387
-380.931	552.072	0.148	-0.447
-379.917	178.297	-0.079	0.144
-378.902	86.548	0.090	-0.124
-377.888	179.426	-0.251	-0.460
-376.873	800.000	0.151	-0.597
-375.858	14.872	0.031	0.030
-374.844	-97.278	0.314	-0.102
-373.829	-45.843	-0.046	-0.028
-372.815	-136.504	0.178	-0.026
-371.800	-37.275	0.123	0.082
-370.785	-200.000	-0.015	-0.200
-369.771	-79.071	0.410	0.173
-368.756	-102.086	-0.081	-0.024
-367.742	31.677	-0.105	-0.113
-366.727	-12.890	0.142	-0.115
-365.712	-95.994	-0.317	-0.105
-364.698	-55.555	-0.562	-0.314
-363.683	68.015	-0.271	0.347
-362.669	-129.791	-0.270	-0.046
-361.654	29.675	-0.201	0.214
-360.639	27.132	-0.146	-0.153
-359.625	-169.572	0.218	0.010
-358.610	-53.313	-0.199	0.114
-357.596	108.453	0.245	-0.366
-356.581	-185.161	-0.280	0.005
-355.566	91.960	-0.141	-0.199
-354.552	-134.462	-0.195	-0.030
-353.537	32.514	-0.018	0.019
-352.523	177.050	-0.084	-0.153
-351.508	-200.000	-0.043	-0.289
-350.493	273.436	0.051	-0.113
-349.479	-115.015	-0.241	0.057
-348.464	800.000	-0.051	0.178
-347.450	800.000	0.015	-0.066
-346.435	-158.976	0.736	0.051
-345.420	603.535	0.088	0.274
-344.406	-62.411	-0.356	0.184
-343.391	-200.000	0.023	0.518
-342.377	800.000	-0.201	0.830
-341.362	-95.384	-0.270	0.090
-340.348	5.272	-0.377	-0.347
-339.333	-57.380	-0.135	-0.074
-338.318	35.934	-0.161	-0.177
-337.304	566.448	-0.047	-0.142
-336.289	800.000	0.032	-0.146
-335.275	366.919	0.134	0.338
-334.260	-71.870	0.218	-0.101
-333.245	800.000	0.047	0.201
-332.231	184.054	-0.225	-0.416
-331.216	-53.317	-0.237	-0.135
-330.202	321.021	-0.054	0.129
-329.187	8.648	-0.380	-0.357
-328.172	36.342	0.088	-0.097
-327.158	-29.814	-0.102	0.072
-326.143	800.000	-0.133	0.636
-325.129	-98.264	0.548	-0.175
-324.114	17.118	0.256	-0.253
-323.099	13.367	-0.151	0.146
-322.085	-200.000	-0.040	0.576
-321.070	244.955	-0.144	0.303
-320.056	-61.728	0.044	0.023
-319.041	-174.166	-0.315	0.011
-318.026	-200.000	-0.014	-0.237
-317.012	94.359	0.206	0.293
-315.997	-73.734	-0.186	0.084
-314.983	62.027	-0.114	0.141
-313.968	15.094	-0.168	-0.164
-312.953	-55.625	-0.076	-0.042
-311.939	-124.659	-0.403	-0.077
-310.924	-200.000	0.085	0.608
-309.910	191.634	0.248	0.467
-308.895	-200.000	0.068	0.452
-307.880	-200.000	-0.000	0.205
-306.866	-69.882	0.194	-0.092
-305.851	-15.869	0.155	0.123
-304.837	19.187	-0.345	0.345
-303.822	53.012	0.196	-0.234
-302.807	-5.507	0.300	-0.256
-301.793	-154.009	0.528	0.044
-300.778	18.144	-0.051	-0.051
-299.764	-42.870	-0.210	0.132
-298.749	-95.689	-0.438	-0.145
-297.735	13.396	0.181	-0.175
-296.720	185.340	0.109	0.202
-295.705	-95.826	-0.082	0.027
-294.691	62.747	0.100	0.124
-293.676	9.119	-0.181	0.170
-292.662	207.482	-0.053	0.104
-291.647	589.614	0.201	-0.620
-290.632	36.598	0.393	-0.432
-289.618	-79.621	0.325	-0.136
-288.603	-77.121	-0.144	0.062
-287.589	-87.921	-0.326	-0.121
-286.574	11.610	-0.296	0.282
-285.559	-110.079	0.199	0.051
-284.545	2.734	0.246	0.222
-283.530	415.565	-0.168	0.448
-282.516	50.256	-0.052	0.061
-281.501	-29.137	0.302	-0.216
-280.486	23.080	-0.196	-0.200
-279.472	66.295	0.030	-0.037
-278.457	199.629	-0.167	0.321
-277.443	627.170	0.069	0.219
-276.428	-24.271	0.421	-0.312
-275.413	27.953	-0.122	0.128
-274.399	-33.391	0.143	-0.098
-273.384	-200.000	0.020	-0.368
-272.370	59.566	0.372	-0.458
-271.355	-31.383	0.519	0.363
-270.340	246.559	0.097	0.205
-269.326	800.000	-0.060	0.276
-268.311	376.229	-0.084	-0.215
-267.297	-127.153	0.122	0.022
-266.282	-11.616	-0.194	0.158
-265.267	97.621	0.146	0.210
-264.253	10.167	0.179	-0.169
-263.238	-68.086	-0.456	0.220
-262.224	-70.950	-0.119	-0.056
-261.209	14.292	0.183	0.177
-260.195	-151.244	-0.459	0.042
-259.180	241.728	-0.145	0.302
-258.165	309.869	0.209	-0.488
-257.151	800.000	0.080	-0.327
-256.136	492.208	0.146	-0.417
-255.122	-142.185	0.403	0.049
-254.107	-160.258	-0.186	-0.012
-253.092	432.300	0.202	0.549
-252.078	-142.792	0.264	-0.032
-251.063	92.831	-0.261	0.367
-250.049	474.797	-0.019	0.054
-249.034	-188.433	-0.298	-0.005
-248.019	73.789	-0.070	0.092
-247.005	-85.504	0.198	-0.076
-245.990	31.876	-0.593	-0.635
-244.976	12.214	-0.103	-0.098
-243.961	-24.510	0.206	-0.153
-242.946	208.350	-0.017	0.034
-241.932	-48.761	-0.556	0.331
-240.917	-141.461	0.443	-0.055
-239.903	-122.605	0.261	-0.052
-238.888	94.301	0.339	0.479
-237.873	77.725	0.296	-0.393
-236.859	266.985	-0.129	-0.282
-235.844	36.202	0.069	-0.076
-234.830	-119.644	0.273	0.058
-233.815	-119.209	0.476	0.102
-232.800	-200.000	-0.001	0.009
-231.786	-41.519	-0.341	-0.217
-230.771	800.000	0.019	0.069
-229.757	-24.135	0.282	0.209
-228.742	-53.480	0.082	0.047
-227.727	43.868	-0.243	0.276
-226.713	-10.449	0.085	0.070
-225.698	800.000	-0.078	-0.337
-224.684	54.287	-0.433	0.519
-223.669	5.830	0.340	0.312
-222.655	-47.549	-0.211	0.127
-221.640	172.782	-0.276	0.496
-220.625	222.909	-0.108	-0.217
-219.611	-200.000	0.022	0.520
-218.596	479.332	-0.125	0.355
-217.582	800.000	-0.100	0.387
-216.567	800.000	-0.050	0.215
-215.552	185.687	0.143	-0.265
-214.538	-77.411	-0.297	0.128
-213.523	62.289	-0.189	0.235
-212.509	-49.872	-0.065	0.038
-211.494	453.021	-0.155	0.427
-210.479	-26.298	-0.284	0.206
-209.465	-95.217	0.417	0.139
-208.450	39.379	-0.296	-0.329
-207.436	392.756	0.177	0.459
-206.421	-26.091	-0.177	-0.129
-205.406	7.527	0.167	-0.155
-204.392	-121.348	-0.228	0.047
-203.377	800.000	-0.077	-0.366
-202.363	75.076	-0.200	-0.262
-201.348	-35.677	-0.262	-0.176
-200.333	447.047	0.070	0.191
-199.319	-200.000	0.052	0.487
-198.304	-174.276	0.226	0.008
-197.290	45.586	0.223	-0.256
-196.275	236.981	0.212	-0.438
-195.260	35.771	0.080	-0.087
-194.246	-200.000	0.034	0.219
-193.231	39.205	-0.167	0.186
-192.217	255.044	-0.137	0.292
-191.202	-112.311	-0.189	-0.047
-190.187	-93.415	0.169	0.058
-189.173	76.586	-0.341	0.449
-188.158	-127.552	0.393	-0.070
-187.144	364.354	0.180	0.452
-186.129	33.657	-0.154	0.167
-185.114	260.324	-0.095	0.204
-184.100	-37.394	0.232	-0.154
-183.085	-109.320	0.328	0.086
-182.071	-105.108	0.485	0.137
-181.056	-11.205	0.118	0.096
-180.042	-200.000	-0.043	0.324
-179.027	448.773	0.085	0.235
-178.012	800.000	0.047	0.170
-176.998	-71.741	-0.237	0.109
-175.983	800.000	0.100	0.358
-174.969	388.843	0.096	0.247
-173.954	800.000	0.097	0.451
-172.939	704.456	0.056	-0.186
-171.925	-200.000	0.047	0.294
-170.910	108.156	-0.266	-0.395
-169.896	89.323	0.117	0.162
-168.881	419.579	-0.122	0.326
-167.866	-200.000	-0.051	0.295
-166.852	-11.116	0.229	0.187
-165.837	29.779	0.546	-0.577
-164.823	-64.181	0.295	-0.149
-163.808	4.205	0.187	0.170
-162.793	192.879	0.113	-0.212
-161.779	308.630	-0.093	0.216
-160.764	-6.232	0.355	0.300
-159.750	-107.680	0.122	0.033
-158.735	-81.992	0.378	-0.152
-157.720	-104.457	-0.496	-0.141
-156.706	-149.659	-0.577	0.056
-155.691	-93.244	0.270	0.092
-154.677	-200.000	0.004	-0.280
-153.662	800.000	-0.063	0.278
-152.647	66.089	0.056	-0.070
-151.633	90.095	0.181	0.252
-150.618	77.474	-0.068	-0.090
-149.604	-197.058	0.199	0.002
-148.589	-200.000	-0.024	0.257
-147.574	-128.640	-0.164	-0.028
-146.560	-200.000	-0.099	0.759
-145.545	177.622	-0.402	0.728
-144.531	-63.759	0.161	0.081
-143.516	-66.466	0.258	0.126
-142.502	215.493	-0.129	-0.255
-141.487	800.000	-0.029	0.158
-140.472	383.996	0.227	0.581
-139.458	-200.000	-0.024	0.135
-138.443	-108.174	-0.168	0.045
-137.429	-117.373	-0.358	0.080
-136.414	-72.333	-0.213	0.097
-135.399	-138.930	-0.425	0.057
-134.385	800.000	0.086	-0.369
-133.370	-56.334	-0.250	-0.137
-132.356	-200.000	-0.270	0.001
-131.341	670.154	0.061	-0.197
-130.326	33.162	-0.138	-0.149
-129.312	-152.773	-0.238	-0.021
-128.297	-66.824	0.080	-0.039
-127.283	-22.374	0.236	0.177
-126.268	800.000	-0.034	0.178
-125.253	-84.113	-0.533	-0.208
-124.239	-200.000	-0.069	0.593
-123.224	-134.161	0.281	-0.042
-122.210	-200.000	0.026	0.421
-121.195	31.058	0.251	-0.267
-120.180	-200.000	0.005	0.400
-119.166	82.272	0.092	0.124
-118.151	-4.033	0.259	0.222
-117.137	-27.918	0.163	0.117
-116.122	-200.000	-0.005	0.249
-115.107	-35.752	0.396	0.265
-114.093	-200.000	-0.005	0.169
-113.078	-103.343	0.139	0.040
-112.064	-200.000	-0.005	-0.379
-111.049	51.478	0.372	-0.437
-110.034	53.562	-0.237	-0.281
-109.020	60.764	0.505	-0.620
-108.005	-200.000	0.074	0.444
-106.991	-166.996	-0.151	-0.008
-105.976	-60.522	-0.045	0.024
-104.962	-85.858	-0.584	0.223
-103.947	-118.656	-0.453	0.098
-102.932	478.982	-0.196	0.552
-101.918	-87.170	0.199	-0.075
-100.903	33.139	-0.320	0.344
-99.889	-200.000	0.014	0.442
-98.874	-132.718	-0.521	-0.082
-97.859	-200.000	-0.029	-0.393
-96.845	-69.458	0.301	-0.142
-95.830	800.000	0.176	-0.912
-94.816	54.428	-0.122	0.145
-93.801	-91.719	-0.262	-0.092
-92.786	-200.000	-0.005	-0.505
-91.772	43.373	0.170	-0.192
-90.757	-143.065	0.365	-0.043
-89.743	369.862	-0.207	0.522
-88.728	-105.393	-0.622	0.174
-87.713	-102.564	-0.302	0.088
-86.699	-131.865	-0.239	-0.038
-85.684	-40.427	0.058	-0.037
-84.670	99.470	0.068	-0.098
-83.655	-2.718	-0.180	0.156
-82.640	127.389	-0.303	-0.477
-81.626	-81.304	-0.333	-0.135
-80.611	120.347	0.195	-0.301
-79.597	135.653	-0.061	0.098
-78.582	-200.000	-0.014	-0.277
-77.567	-68.755	-0.249	-0.119
-76.553	310.976	0.115	0.268
-75.538	800.000	-0.092	0.326
-74.524	-125.785	-0.284	0.053
-73.509	-64.292	-0.330	0.165
-72.494	76.330	-0.280	0.367
-71.480	23.254	0.200	0.203
-70.465	-27.385	-0.519	0.372
-69.451	-89.724	-0.324	-0.117
-68.436	30.789	0.410	0.433
-67.422	-61.008	0.260	0.135
-66.407	-83.666	0.336	0.132
-65.392	-143.953	-0.457	-0.053
-64.378	800.000	0.088	0.353
-63.363	-200.000	0.017	0.100
-62.349	-119.948	-0.218	0.046
-61.334	44.899	-1.308	-1.488
-60.319	-45.263	0.483	0.295
-59.305	256.691	-2.655	-5.652
-58.290	-7.635	3.247	2.707
-57.276	410.164	3.888	10.225
-56.261	-200.000	13.171	208.037
-55.246	509.269	1129.425	3257.466
-54.232	69.574	2773.923	3531.074
-53.217	76.882	2690.798	3530.790
-52.203	90.819	2425.801	3361.443
-51.188	35.708	2082.278	2259.410
-50.173	38.384	1952.785	2148.418
-49.159	36.939	1941.703	2120.262
-48.144	36.486	1937.120	2110.200
-47.130	36.146	1934.613	2103.663
-46.115	36.076	1933.679	2101.796
-45.100	36.016	1932.487	2099.753
-44.086	35.860	1931.856	2097.284
-43.071	35.990	1929.015	2095.531
-42.057	35.968	1927.915	2094.019
-41.042	35.900	1926.517	2091.668
-40.027	36.005	1924.694	2090.751
-39.013	35.888	1923.428	2088.023
-37.998	35.890	1921.879	2086.275
-36.984	35.807	1921.509	2084.892
-35.969	35.747	1920.345	2082.891
-34.954	35.858	1919.276	2082.857
-33.940	35.801	1918.690	2081.513
-32.925	35.841	1916.139	2079.107
-31.911	35.782	1914.832	2076.958
-30.896	35.593	1915.031	2075.037
-29.881	35.679	1912.313	2072.952
-28.867	35.724	1911.410	2072.374
-27.852	35.719	1909.531	2070.196
-26.838	35.729	1907.661	2068.199
-25.823	35.818	1906.148	2067.436
-24.809	35.754	1905.447	2065.901
-23.794	35.695	1904.046	2063.664
-22.779	35.669	1903.119	2062.303
-21.765	35.739	1901.900	2061.651
-20.750	35.778	1900.315	2060.268
-19.736	35.714	1899.940	2059.098
-18.721	35.644	1898.884	2057.117
-17.706	35.658	1897.298	2055.461
-16.692	35.639	1895.784	2053.542
-15.677	35.657	1894.461	2052.222
-14.663	35.631	1893.470	2050.788
-13.648	35.678	1891.765	2049.362
-12.633	35.596	1891.095	2047.670
-11.619	35.580	1889.432	2045.617
-10.604	35.608	1887.965	2044.253
-9.590	35.552	1887.152	2042.692
-8.575	35.434	1886.263	2040.382
-7.560	35.644	1883.929	2040.021
-6.546	35.448	1884.176	2038.121
-5.531	35.604	1882.266	2037.638
-4.517	35.510	1881.408	2035.616
-3.502	35.520	1880.804	2034.992
-2.487	35.544	1880.084	2034.386
-1.473	35.797	1876.235	2032.835
-0.458	36.476	1858.030	2020.164
0.556	33.419	1991.747	2118.587
1.571	32.253	2207.873	2333.657
2.586	33.873	2256.460	2405.368
3.600	33.914	2258.487	2407.751
4.615	33.910	2258.349	2407.269
5.629	33.945	2255.225	2404.091
6.644	34.039	2254.596	2404.334
7.659	34.130	2252.423	2402.884
8.673	34.253	2250.223	2401.805
9.688	33.369	2254.578	2394.931
10.702	29.853	2322.525	2420.673
11.717	25.754	2382.941	2427.917
12.731	13.191	2350.026	2225.079
13.746	2.031	2320.314	2046.848
14.761	0.381	2314.683	2019.445
15.775	0.210	2312.237	2014.765
16.790	0.196	2310.936	2013.206
17.804	0.220	2308.658	2011.294
18.819	0.095	2309.117	2009.781
19.834	0.159	2307.358	2008.869
20.848	0.167	2305.812	2007.382
21.863	0.136	2303.827	2005.007
22.877	0.200	2302.302	2004.286
23.892	0.203	2299.298	2001.475
24.907	0.106	2297.637	1998.499
25.921	0.152	2295.242	1996.784
26.936	0.147	2293.042	1994.572
27.950	0.063	2291.223	1991.627
28.965	0.118	2289.547	1990.671
29.980	0.237	2287.257	1990.021
30.994	0.355	2285.272	1989.623
32.009	6.726	2307.851	2094.192
33.023	22.892	2358.092	2358.214
34.038	31.401	2376.473	2490.841
35.053	32.409	2377.028	2504.618
36.067	32.424	2374.109	2501.441
37.082	32.029	2370.886	2492.476
38.096	32.048	2369.290	2490.760
39.111	32.766	2368.238	2498.917
40.126	32.879	2366.717	2498.517
41.140	33.196	2365.436	2501.079
42.155	32.831	2361.693	2491.987
43.169	32.299	2358.535	2481.292
44.184	32.544	2356.621	2482.234
45.199	32.190	2353.426	2473.889
46.213	31.685	2352.383	2465.812
47.228	31.683	2350.559	2463.572
48.242	31.992	2349.567	2466.328
49.257	32.221	2349.298	2468.771
50.271	32.421	2346.936	2468.633
51.286	32.370	2343.421	2463.962
52.301	31.865	2341.270	2454.771
53.315	31.239	2337.525	2442.316
54.330	29.752	2330.982	2415.674
55.344	28.536	2325.961	2394.240
56.359	28.632	2322.414	2391.566
57.374	28.566	2319.785	2387.703
58.388	28.280	2317.286	2381.114
59.403	28.179	2313.559	2375.678
60.417	28.282	2311.559	2374.681
61.432	28.714	2310.148	2378.574
62.447	28.525	2307.269	2372.867
63.461	28.325	2305.753	2368.425
64.476	28.272	2303.422	2365.067
65.490	28.719	2303.692	2370.855
66.505	28.992	2302.574	2372.966
67.520	29.745	2305.148	2385.093
68.534	31.099	2306.602	2403.868
69.549	31.668	2304.092	2408.321
70.563	31.786	2301.449	2406.791
71.578	31.891	2300.717	2407.094
72.593	32.392	2300.105	2412.628
73.607	32.456	2298.816	2411.816
74.622	32.158	2296.396	2405.154
75.636	32.030	2292.590	2399.232
76.651	32.036	2290.192	2396.516
77.666	32.490	2290.248	2402.115
78.680	32.373	2288.728	2398.725
79.695	32.069	2284.855	2390.493
80.709	31.165	2281.043	2374.664
81.724	30.974	2279.641	2370.483
82.739	31.916	2279.788	2382.377
83.753	32.688	2279.726	2391.879
84.768	32.456	2276.971	2385.750
85.782	32.126	2275.758	2379.985
86.797	32.086	2273.583	2376.924
87.812	31.735	2270.927	2369.403
88.826	31.805	2268.333	2367.294
89.841	32.320	2267.602	2372.785
90.855	32.393	2264.801	2370.495
91.870	31.600	2261.408	2356.631
92.884	31.684	2259.767	2355.696
93.899	32.059	2259.246	2359.615
94.914	31.069	2256.590	2344.062
95.928	29.083	2250.136	2312.025
96.943	28.794	2247.130	2305.014
97.957	30.777	2251.863	2334.627
98.972	32.190	2253.054	2353.387
99.987	31.986	2249.323	2346.637
101.001	31.918	2246.821	2342.903
102.016	32.063	2245.233	2342.786
103.030	31.852	2242.208	2336.703
104.045	31.782	2239.755	2332.994
105.060	32.212	2239.127	2337.433
106.074	32.454	2237.635	2338.616
107.089	31.998	2234.996	2329.890
108.103	31.764	2233.059	2324.680
109.118	32.079	2231.519	2326.720
110.133	32.329	2230.565	2328.556
111.147	32.263	2228.432	2325.237
112.162	32.367	2226.825	2324.572
113.176	32.304	2224.628	2321.215
114.191	31.902	2222.456	2313.681
115.206	31.904	2219.936	2310.809
116.220	32.136	2219.516	2312.964
117.235	31.939	2217.426	2308.082
118.249	31.912	2214.104	2304.008
119.264	32.035	2213.717	2304.853
120.279	31.879	2211.893	2300.755
121.293	31.867	2208.983	2297.303
122.308	31.877	2207.896	2296.024
123.322	31.738	2206.639	2292.730
124.337	30.717	2201.478	2274.550
125.352	29.228	2197.056	2251.441
126.366	29.602	2197.757	2256.479
127.381	31.513	2199.854	2281.821
128.395	32.572	2199.819	2294.494
129.410	32.323	2197.936	2289.199
130.424	32.147	2195.309	2284.043
131.439	32.259	2193.520	2283.279
132.454	31.995	2189.891	2276.008
133.468	32.167	2188.506	2276.389
134.483	32.036	2188.406	2274.422
135.497	32.146	2187.051	2274.075
136.512	32.572	2185.110	2276.968
137.527	32.620	2184.173	2276.293
138.541	32.515	2182.634	2273.153
139.556	32.422	2181.776	2270.853
140.570	32.388	2180.109	2268.438
141.585	32.069	2176.770	2260.827
142.600	31.994	2175.138	2257.952
143.614	32.086	2174.075	2257.693
144.629	32.282	2172.975	2258.654
145.643	32.074	2171.394	2254.230
146.658	31.886	2167.507	2247.651
147.673	31.460	2164.169	2238.803
148.687	31.546	2163.340	2238.707
149.702	31.713	2161.899	2238.959
150.716	31.960	2161.647	2241.390
151.731	32.486	2163.240	2249.100
152.746	32.650	2161.544	2249.031
153.760	31.364	2157.124	2228.758
154.775	29.069	2150.210	2193.886
155.789	28.314	2147.488	2181.817
156.804	30.184	2149.191	2205.659
157.819	31.651	2147.381	2221.047
158.833	31.690	2147.396	2221.261
159.848	32.187	2147.037	2226.546
160.862	32.319	2145.846	2226.620
161.877	32.476	2145.939	2228.317
162.892	32.828	2145.592	2231.882
163.906	33.212	2145.011	2235.565
164.921	33.203	2142.459	2232.529
165.935	32.831	2138.536	2223.776
166.950	32.404	2136.066	2215.881
167.964	32.208	2133.624	2210.764
168.979	32.029	2131.260	2205.940
169.994	31.908	2131.052	2204.035
171.008	31.845	2127.807	2199.671
172.023	31.675	2127.235	2196.808
173.037	32.114	2126.549	2201.013
174.052	32.126	2124.007	2198.254
175.067	31.972	2121.370	2193.463
176.081	31.947	2120.804	2192.320
177.096	32.191	2120.628	2194.734
178.110	32.061	2118.299	2190.542
179.125	31.945	2116.862	2187.433
180.140	32.048	2117.148	2188.667
181.154	32.584	2116.550	2194.069
182.169	32.744	2114.372	2193.415
183.183	31.857	2110.653	2178.946
184.198	29.677	2103.140	2145.517
185.213	29.158	2101.796	2137.842
186.227	31.226	2107.086	2167.114
187.242	32.045	2105.700	2174.974
188.256	32.081	2103.706	2173.079
189.271	32.317	2102.982	2174.811
190.286	32.272	2101.076	2172.060
191.300	31.854	2098.376	2164.156
192.315	31.907	2096.487	2162.568
193.329	32.304	2095.918	2166.321
194.344	32.677	2095.099	2169.530
195.359	32.447	2094.503	2165.993
196.373	32.686	2092.060	2165.970
197.388	32.560	2089.477	2161.574
198.402	32.295	2087.358	2156.071
199.417	32.266	2085.244	2153.294
200.432	32.576	2082.709	2153.990
201.446	32.503	2082.687	2152.863
202.461	32.028	2079.412	2143.775
203.475	31.784	2077.085	2138.318
204.490	32.012	2076.050	2139.608
205.504	32.244	2074.255	2140.161
206.519	32.056	2071.773	2135.199
207.534	32.334	2071.850	2138.193
208.548	32.706	2070.721	2141.023
209.563	31.910	2067.519	2128.378
210.577	32.023	2067.041	2128.920
211.592	32.736	2067.563	2137.335
212.607	31.562	2061.485	2117.444
213.621	28.358	2054.363	2073.495
214.636	28.523	2053.440	2074.194
215.650	31.488	2059.861	2114.174
216.665	32.861	2060.562	2130.240
217.680	32.890	2058.642	2128.323
218.694	32.729	2056.357	2123.880
219.709	32.098	2053.426	2113.473
220.723	32.180	2053.121	2113.834
221.738	32.792	2054.054	2121.453
222.753	33.149	2051.356	2122.451
223.767	32.930	2048.870	2117.148
224.782	32.724	2044.652	2110.223
225.796	32.488	2044.988	2107.658
226.811	32.897	2045.521	2112.559
227.826	32.872	2042.748	2109.168
228.840	32.352	2040.120	2100.362
229.855	32.349	2038.328	2098.229
230.869	32.027	2036.392	2092.379
231.884	32.131	2035.071	2091.941
232.899	32.279	2034.957	2093.222
233.913	32.467	2034.106	2094.202
234.928	32.761	2032.916	2096.010
235.942	32.524	2029.671	2089.776
236.957	32.031	2028.091	2082.393
237.972	32.349	2027.783	2085.373
238.986	32.223	2026.614	2082.519
240.001	32.148	2024.637	2079.411
241.015	32.073	2022.748	2076.390
242.030	31.992	2021.239	2073.688
243.045	30.076	2014.898	2045.701
244.059	29.690	2013.885	2040.135
245.074	31.909	2016.256	2066.907
246.088	32.623	2013.978	2072.225
247.103	32.609	2013.643	2071.480
248.117	32.797	2014.125	2073.800
249.132	32.916	2011.128	2071.779
250.147	32.383	2007.932	2062.376
251.161	32.095	2005.582	2056.543
252.176	32.313	2005.020	2058.111
253.190	32.088	2001.947	2052.249
254.205	32.168	2000.134	2051.023
255.220	32.224	1999.167	2050.397
256.234	31.855	1998.127	2045.038
257.249	31.852	1996.305	2042.897
258.263	32.060	1996.545	2045.173
259.278	32.266	1995.390	2045.998
260.293	32.357	1994.400	2045.732
261.307	32.349	1991.599	2042.527
262.322	32.351	1988.823	2039.464
263.336	31.919	1986.438	2032.063
264.351	31.841	1985.678	2030.195
265.366	32.335	1986.748	2036.422
266.380	32.675	1985.715	2038.824
267.395	32.410	1983.628	2033.562
268.409	32.242	1981.828	2029.644
269.424	32.660	1980.197	2032.261
270.439	32.479	1980.828	2030.699
271.453	31.996	1976.872	2021.178
272.468	29.530	1967.859	1985.107
273.482	28.645	1966.580	1974.016
274.497	30.911	1968.924	2000.621
275.512	32.161	1969.396	2014.348
276.526	32.513	1967.441	2015.896
277.541	32.188	1964.934	2009.589
278.555	31.776	1963.704	2003.673
279.570	31.891	1962.807	2003.750
280.585	31.792	1960.813	2000.416
281.599	31.802	1959.126	1998.554
282.614	31.403	1954.522	1989.352
283.628	29.046	1947.331	1956.645
284.643	27.548	1944.536	1937.601
285.657	27.352	1941.551	1932.307
286.672	27.166	1940.185	1928.730
287.687	27.005	1939.068	1925.672
288.701	27.444	1937.942	1929.000
289.716	27.663	1936.993	1930.161
290.730	26.960	1935.325	1920.783
291.745	27.935	1935.280	1930.879
292.760	28.777	1935.660	1939.972
293.774	30.370	1940.616	1961.630
294.789	32.212	1942.779	1983.143
295.803	32.667	1942.066	1987.004
296.818	32.551	1940.794	1984.242
297.833	32.920	1940.307	1987.406
298.847	32.777	1938.497	1983.808
299.862	32.702	1936.035	1980.260
300.876	32.152	1932.617	1970.723
301.891	29.941	1927.099	1941.583
302.906	29.478	1925.393	1934.760
303.920	31.477	1929.719	1959.949
304.935	32.983	1930.078	1975.930
305.949	33.153	1927.940	1975.293
306.964	33.075	1926.062	1972.320
307.979	32.230	1921.875	1958.947
308.993	29.515	1912.857	1921.164
310.008	26.849	1905.360	1885.593
311.022	26.483	1902.373	1878.585
312.037	26.676	1901.852	1879.864
313.052	26.423	1900.557	1875.722
314.066	26.154	1897.775	1869.950
315.081	26.310	1896.410	1870.005
316.095	26.647	1895.703	1872.585
317.110	26.829	1895.327	1873.879
318.125	26.749	1894.823	1872.328
319.139	26.844	1893.511	1871.792
320.154	26.887	1891.069	1869.597
321.168	26.725	1890.919	1867.551
322.183	28.207	1893.974	1885.705
323.197	31.241	1899.117	1922.048
324.212	32.394	1899.402	1934.027
325.227	32.160	1897.600	1929.540
326.241	32.211	1896.423	1928.647
327.256	32.393	1895.797	1929.648
328.270	32.237	1894.273	1926.258
329.285	32.325	1893.452	1926.101
330.300	31.564	1891.409	1915.966
331.314	29.130	1883.510	1882.759
332.329	28.760	1882.691	1877.910
333.343	31.033	1885.400	1903.740
334.358	32.098	1885.313	1914.352
335.373	32.415	1884.835	1916.883
336.387	33.136	1884.715	1923.911
337.402	32.891	1883.604	1920.039
338.416	32.772	1880.754	1915.688
339.431	32.824	1879.498	1914.709
340.446	32.423	1874.056	1904.860
341.460	29.275	1865.289	1863.781
342.475	27.414	1861.070	1840.452
343.489	27.071	1858.551	1834.261
344.504	26.821	1856.913	1829.893
345.519	26.767	1855.969	1828.193
346.533	26.635	1852.746	1823.468
347.548	26.463	1851.617	1820.400
348.562	26.589	1850.438	1820.293
349.577	26.660	1849.884	1820.242
350.592	26.826	1849.079	1820.909
351.606	26.912	1847.060	1819.577
352.621	26.494	1845.512	1813.619
353.635	26.282	1844.687	1810.456
354.650	27.546	1847.652	1825.895
355.665	30.721	1852.967	1862.934
356.679	32.200	1854.445	1879.075
357.694	32.332	1853.991	1879.717
358.708	32.836	1853.696	1884.254
359.723	32.080	1849.788	1872.483
360.738	29.351	1842.551	1837.639
361.752	29.520	1843.050	1839.614
362.767	31.988	1846.983	1868.052
363.781	32.630	1845.517	1872.753
364.796	33.101	1844.930	1876.640
365.810	32.920	1842.965	1872.611
366.825	31.677	1836.837	1853.803
367.840	28.376	1828.511	1812.415
368.854	26.431	1824.390	1788.806
369.869	26.502	1822.146	1787.098
370.883	26.624	1821.435	1787.393
371.898	26.592	1820.307	1785.751
372.913	26.662	1818.994	1784.943
373.927	26.591	1817.764	1782.828
374.942	26.806	1817.361	1784.346
375.956	27.157	1817.343	1787.580
376.971	27.473	1814.232	1787.422
377.986	27.125	1811.719	1781.306
379.000	26.902	1810.790	1777.987
380.015	27.172	1810.977	1780.615
381.029	29.422	1815.887	1807.409
382.044	32.450	1819.904	1841.015
383.059	32.865	1819.328	1844.294
384.073	32.516	1818.206	1839.513
385.088	32.682	1818.116	1840.830
386.102	32.626	1815.918	1837.832
387.117	32.562	1813.597	1834.642
388.132	32.534	1813.346	1833.885
389.146	31.938	1810.401	1824.864
390.161	29.213	1803.763	1791.364
391.175	28.900	1800.407	1784.765
392.190	30.689	1802.077	1803.662
393.205	32.122	1802.248	1817.566
394.219	32.493	1801.420	1820.121
395.234	32.137	1799.057	1814.059
396.248	32.168	1797.158	1812.231
397.263	32.240	1796.507	1812.058
398.278	32.377	1794.483	1811.126
399.292	32.100	1792.253	1805.979
400.307	30.665	1787.544	1787.171
401.321	28.240	1780.886	1756.938
402.336	27.236	1778.253	1744.456
403.350	27.299	1776.516	1743.152
404.365	27.738	1775.911	1746.568
405.380	27.622	1774.126	1743.488
406.394	26.921	1772.010	1734.466
407.409	26.610	1769.570	1728.886
408.423	26.531	1767.374	1725.785
409.438	26.334	1765.803	1722.151
410.453	26.230	1765.378	1720.541
411.467	26.564	1764.228	1722.402
412.482	26.790	1764.570	1724.689
413.496	29.409	1770.936	1755.800
414.511	32.147	1775.087	1785.921
415.526	32.969	1773.653	1792.107
416.540	33.001	1771.580	1790.097
417.555	32.894	1771.284	1788.566
418.569	32.448	1769.621	1782.433
419.584	32.034	1768.882	1777.533
420.599	32.186	1769.207	1779.092
421.613	32.542	1768.484	1781.536
422.628	32.768	1767.708	1782.693
423.642	33.085	1765.897	1783.663
424.657	32.085	1762.074	1770.112
425.672	31.834	1761.382	1766.826
426.686	32.570	1761.495	1773.698
427.701	32.384	1759.665	1769.886
428.715	32.418	1758.051	1768.373
429.730	32.899	1757.206	1771.850
430.745	33.360	1757.768	1776.556
431.759	33.718	1757.753	1779.705
432.774	34.007	1756.185	1780.625
433.788	31.156	1747.565	1744.921
434.803	28.351	1741.466	1712.311
435.818	27.907	1740.987	1707.468
436.832	27.917	1740.110	1706.491
437.847	27.000	1732.787	1690.535
438.861	17.136	1704.366	1571.324
439.876	3.817	1679.094	1425.084
440.890	0.546	1672.379	1388.992
441.905	0.238	1670.452	1384.385
442.920	0.162	1669.212	1382.484
443.934	0.071	1668.654	1381.023
444.949	0.117	1668.011	1380.751
445.963	0.068	1666.838	1379.160
446.978	-0.002	1666.212	1377.836
447.993	0.003	1665.229	1376.901
449.007	0.084	1662.727	1375.414
450.022	0.247	1659.909	1374.409
451.036	0.235	1658.473	1372.947
452.051	1.526	1666.084	1390.960
453.066	13.419	1694.045	1524.827
454.080	25.480	1713.135	1654.105
455.095	28.116	1718.671	1683.679
456.109	30.374	1722.349	1707.989
457.124	31.274	1722.209	1715.958
458.139	30.649	1719.128	1706.921
459.153	29.907	1717.845	1698.599
460.168	29.936	1715.650	1696.496
461.182	30.194	1715.389	1698.414
462.197	30.573	1714.141	1700.461
463.212	30.981	1713.280	1703.145
464.226	31.424	1713.619	1707.352
465.241	31.567	1714.128	1708.963
466.255	31.748	1712.331	1708.628
467.270	31.854	1710.908	1707.978
468.285	31.957	1711.099	1708.899
469.299	32.301	1710.051	1710.799
470.314	32.428	1707.715	1709.421
471.328	32.458	1706.805	1708.578
472.343	32.406	1705.953	1707.042
473.358	32.280	1704.970	1704.705
474.372	32.211	1702.736	1701.639
475.387	32.479	1702.424	1703.562
476.401	32.434	1700.077	1700.602
477.416	31.814	1697.817	1692.511
478.430	31.915	1696.992	1692.401
479.445	32.020	1695.255	1691.420
480.460	31.723	1693.718	1687.000
481.474	32.041	1693.378	1689.330
482.489	32.674	1693.579	1695.056
483.503	32.622	1691.239	1692.041
484.518	32.328	1689.465	1687.409
485.533	32.475	1688.752	1687.825
486.547	32.117	1687.948	1683.589
487.562	31.753	1685.178	1677.354
488.576	32.124	1684.200	1679.516
489.591	32.543	1683.720	1682.597
490.606	32.649	1682.302	1681.929
491.620	32.794	1681.953	1682.680
492.635	32.990	1679.641	1681.927
493.649	32.496	1676.787	1674.445
494.664	31.886	1675.667	1667.679
495.679	31.945	1674.843	1667.181
496.693	31.980	1674.254	1666.713
497.708	32.362	1673.853	1669.523
498.722	32.686	1672.980	1671.339
499.737	32.781	1671.826	1670.835
500.752	32.863	1669.758	1669.295
501.766	32.946	1668.658	1668.737
502.781	33.038	1667.070	1667.765
503.795	33.034	1665.295	1665.750
504.810	32.808	1664.421	1662.675
505.825	32.816	1663.862	1661.993
506.839	32.423	1661.208	1655.660
507.854	32.050	1659.248	1650.217
508.868	31.759	1657.438	1645.648
509.883	30.771	1654.593	1633.920
510.898	30.401	1651.879	1627.782
511.912	30.139	1650.078	1623.507
512.927	30.013	1648.007	1620.169
513.941	29.869	1647.016	1617.731
514.956	30.437	1646.428	1621.945
515.971	31.276	1645.702	1628.394
516.985	30.644	1644.025	1621.004
518.000	30.197	1642.559	1615.454
519.014	29.910	1641.292	1611.500
520.029	29.862	1639.596	1609.228
521.043	29.938	1638.206	1608.334
522.058	29.998	1636.774	1607.257
523.073	30.147	1635.755	1607.367
524.087	30.193	1635.658	1607.479
525.102	30.611	1636.194	1611.455
526.116	31.666	1636.470	1620.713
527.131	32.238	1636.527	1625.553
528.146	32.412	1636.391	1626.740
529.160	32.642	1635.536	1627.690
530.175	32.847	1635.129	1628.871
531.189	32.976	1633.351	1628.019
532.204	32.885	1631.442	1625.137
533.219	32.631	1630.006	1621.313
534.233	32.436	1629.119	1618.555
535.248	31.991	1626.124	1611.543
536.262	31.841	1625.748	1609.680
537.277	32.403	1626.394	1614.980
538.292	32.760	1624.743	1616.221
539.306	32.906	1622.366	1614.923
540.321	32.390	1620.170	1608.105
541.335	31.779	1618.190	1600.702
542.350	32.291	1617.282	1604.011
543.365	32.760	1616.984	1607.541
544.379	32.832	1616.357	1607.345
545.394	32.831	1614.558	1605.351
546.408	32.300	1613.168	1599.239
547.423	32.413	1611.656	1598.514
548.438	32.540	1610.523	1598.285
549.452	32.543	1610.039	1597.634
550.467	32.381	1608.495	1594.533
551.481	32.602	1607.670	1595.408
552.496	32.652	1606.544	1594.524
553.511	32.470	1605.992	1592.238
554.525	32.761	1604.822	1593.356
555.540	32.516	1603.898	1590.168
556.554	32.705	1602.797	1590.488
557.569	32.623	1600.551	1587.380
558.583	32.152	1597.708	1580.381
559.598	31.952	1595.915	1576.731
560.613	31.789	1594.839	1574.105
561.627	31.331	1593.809	1569.033
562.642	30.826	1590.688	1561.518
563.656	30.257	1587.800	1553.707
564.671	30.002	1585.662	1549.283
565.686	29.867	1585.062	1547.382
566.700	29.856	1584.042	1546.110
567.715	29.862	1582.407	1544.378
568.729	30.026	1581.565	1544.750
569.744	30.792	1580.744	1550.169
570.759	30.797	1580.068	1549.363
571.773	30.277	1578.844	1543.634
572.788	30.039	1576.577	1539.245
573.802	30.045	1574.115	1536.710
574.817	29.839	1573.302	1534.014
575.832	29.905	1572.001	1533.109
576.846	30.514	1572.936	1538.906
577.861	31.461	1572.965	1546.629
578.875	31.737	1572.757	1548.531
579.890	32.153	1572.679	1551.726
580.905	32.282	1571.802	1551.747
581.919	32.359	1571.260	1551.661
582.934	32.275	1571.207	1550.730
583.948	32.249	1568.947	1548.099
584.963	32.102	1567.149	1544.928
585.978	32.130	1565.351	1543.199
586.992	31.582	1564.036	1537.193
588.007	31.669	1563.427	1537.132
589.021	31.454	1561.491	1533.272
590.036	30.589	1559.123	1523.636
591.051	31.166	1558.183	1527.284
592.065	31.660	1558.023	1531.005
593.080	31.762	1556.910	1530.569
594.094	31.938	1555.681	1530.622
595.109	32.160	1554.445	1531.041
596.123	32.401	1554.306	1532.697
597.138	32.693	1552.921	1533.529
598.153	32.381	1550.609	1528.514
599.167	31.929	1548.761	1522.830
600.182	31.692	1547.358	1519.329
601.196	31.865	1546.670	1519.888
602.211	32.309	1546.172	1522.831
603.226	32.054	1544.442	1518.871
604.240	32.184	1543.923	1519.233
605.255	32.209	1542.280	1517.638
606.269	32.049	1541.805	1515.687
607.284	31.916	1540.393	1513.043
608.299	31.742	1538.557	1509.647
609.313	31.664	1535.952	1506.284
610.328	31.283	1534.898	1501.990
611.342	31.374	1533.331	1501.010
612.357	31.294	1532.502	1499.370
613.372	30.919	1530.953	1494.658
614.386	30.589	1529.385	1490.288
615.401	30.594	1528.970	1489.743
616.415	30.335	1527.164	1485.724
617.430	29.808	1525.395	1479.584
618.445	29.864	1523.288	1477.815
619.459	29.701	1522.282	1475.354
620.474	29.832	1521.605	1475.570
621.488	30.209	1521.808	1478.615
622.503	31.002	1521.221	1484.217
623.518	30.440	1518.944	1477.329
624.532	29.703	1516.523	1468.914
625.547	29.572	1515.302	1466.504
626.561	29.527	1514.816	1465.498
627.576	29.632	1512.666	1464.080
628.591	29.824	1511.996	1464.787
629.605	30.132	1511.710	1466.785
630.620	30.618	1511.781	1470.540
631.634	31.480	1511.553	1476.989
632.649	31.436	1510.135	1475.080
633.663	30.685	1507.319	1466.210
634.678	29.968	1504.729	1457.838
635.693	29.738	1502.878	1454.050
636.707	29.578	1501.192	1450.985
637.722	29.559	1500.917	1450.396
638.736	30.017	1501.418	1454.320
639.751	30.669	1501.371	1459.248
640.766	30.831	1500.007	1459.021
641.780	31.001	1498.585	1458.798
642.795	31.430	1498.598	1462.010
643.809	31.495	1498.244	1462.004
644.824	31.540	1497.925	1461.868
645.839	31.824	1497.645	1463.653
646.853	31.748	1496.047	1461.321
647.868	31.489	1494.000	1457.118
648.882	31.631	1492.259	1456.352
649.897	31.349	1490.570	1452.330
650.912	31.277	1488.340	1449.420
651.926	31.177	1487.648	1447.794
652.941	31.284	1487.295	1448.110
653.955	31.090	1485.312	1444.494
654.970	30.324	1482.349	1435.488
655.985	30.004	1479.966	1430.523
656.999	29.726	1478.728	1426.998
658.014	29.843	1477.743	1426.787
659.028	30.443	1477.950	1431.465
660.043	30.891	1478.009	1434.820
661.058	31.187	1477.106	1436.062
662.072	31.119	1476.665	1434.937
663.087	31.336	1475.154	1434.970
664.101	30.998	1474.491	1431.542
665.116	31.171	1473.005	1431.262
666.131	31.341	1472.275	1431.692
667.145	31.450	1471.156	1431.270
668.160	31.194	1469.909	1427.923
669.174	30.937	1467.655	1423.590
670.189	31.230	1466.887	1424.922
671.204	31.630	1467.088	1428.013
672.218	31.504	1465.329	1425.160
673.233	31.422	1463.904	1422.977
674.247	31.397	1462.613	1421.367
675.262	30.810	1462.044	1416.151
676.276	30.761	1460.323	1413.946
677.291	30.962	1460.579	1415.557
678.306	31.596	1459.443	1419.122
679.320	31.233	1458.127	1414.909
680.335	30.647	1456.503	1408.702
681.349	30.741	1456.478	1409.226
682.364	30.859	1454.997	1408.521
683.379	30.635	1452.346	1404.089
684.393	30.295	1450.899	1399.941
685.408	30.117	1450.219	1397.764
686.422	30.006	1448.983	1395.569
687.437	29.729	1447.367	1391.751
688.452	29.217	1446.198	1386.588
689.466	29.466	1444.138	1386.328
690.481	29.340	1443.452	1384.550
691.495	29.554	1442.909	1385.476
692.510	30.242	1443.997	1391.548
693.525	31.384	1442.884	1398.902
694.539	30.803	1440.634	1392.194
695.554	29.693	1438.299	1381.437
696.568	29.363	1436.612	1377.176
697.583	29.341	1435.880	1376.141
698.598	29.684	1435.363	1378.052
699.612	29.866	1434.464	1378.386
700.627	30.054	1433.479	1378.679
701.641	30.495	1433.644	1381.970
702.656	30.850	1431.725	1382.607
703.671	30.512	1432.433	1380.605
704.685	30.655	1432.062	1381.147
705.700	30.857	1430.011	1380.505
706.714	30.637	1428.433	1377.183
707.729	30.586	1427.090	1375.344
708.744	30.519	1425.613	1373.259
709.758	30.248	1423.790	1369.323
710.773	29.644	1421.558	1362.541
711.787	29.569	1420.657	1360.962
712.802	30.308	1419.835	1365.476
713.816	30.483	1419.298	1366.088
714.831	30.633	1418.904	1366.657
715.846	30.497	1417.080	1363.729
716.860	30.499	1415.701	1362.255
717.875	30.416	1414.953	1360.762
718.889	30.416	1413.909	1359.592
719.904	30.278	1412.957	1357.504
720.919	30.227	1411.689	1355.747
721.933	30.080	1410.682	1353.536
722.948	30.041	1409.338	1351.797
723.962	30.142	1408.831	1351.889
724.977	30.095	1407.926	1350.520
725.992	30.256	1407.200	1350.838
727.006	30.757	1406.032	1353.216
728.021	30.517	1404.366	1349.701
729.035	30.548	1403.099	1348.549
730.050	30.387	1403.289	1347.396
731.065	30.457	1402.220	1346.717
732.079	30.175	1400.689	1343.030
733.094	30.452	1399.121	1343.382
734.108	30.836	1397.866	1344.804
735.123	30.665	1396.359	1341.954
736.138	30.526	1394.850	1339.336
737.152	30.229	1394.323	1336.522
738.167	30.191	1393.209	1335.016
739.181	30.276	1392.620	1334.909
740.196	30.373	1391.575	1334.443
741.211	30.316	1390.599	1332.937
742.225	29.994	1389.788	1329.679
743.240	29.847	1388.322	1327.055
744.254	29.679	1386.971	1324.397
745.269	29.515	1385.028	1321.201
746.284	29.286	1383.943	1318.361
747.298	29.342	1382.501	1317.236
748.313	29.428	1381.586	1316.819
749.327	29.680	1381.786	1318.661
750.342	30.422	1382.928	1324.921
751.356	31.199	1382.350	1329.774
752.371	31.135	1380.019	1326.913
753.386	29.924	1377.528	1315.712
754.400	29.773	1376.524	1313.522
755.415	29.986	1375.917	1314.300
756.429	30.259	1375.050	1315.264
757.444	30.402	1374.130	1315.242
758.459	30.338	1372.438	1313.012
759.473	30.122	1370.857	1309.808
760.488	29.824	1368.967	1305.732
761.502	29.654	1368.475	1303.902
762.517	29.752	1367.860	1303.852
763.532	30.082	1366.715	1304.940
764.546	29.882	1364.783	1301.524
765.561	29.238	1363.790	1295.872
766.575	28.856	1362.490	1291.782
767.590	29.051	1361.108	1291.696
768.605	29.530	1360.616	1294.451
769.619	29.642	1360.385	1294.867
770.634	29.804	1359.591	1295.092
771.648	29.748	1357.076	1292.152
772.663	29.564	1356.768	1290.411
773.678	29.758	1356.087	1290.967
774.692	30.127	1355.427	1292.778
775.707	30.011	1355.707	1292.075
776.721	30.124	1354.577	1291.634
777.736	29.869	1353.295	1288.471
778.751	30.021	1352.391	1288.518
779.765	29.812	1351.451	1286.011
780.780	29.966	1351.025	1286.529
781.794	30.206	1349.823	1286.898
782.809	29.746	1347.824	1281.640
783.824	29.147	1346.534	1276.089
784.838	29.395	1345.603	1276.779
785.853	30.254	1345.295	1282.303
786.867	29.771	1344.685	1278.211
787.882	29.219	1343.588	1273.189
788.897	29.136	1342.259	1271.200
789.911	29.011	1340.528	1268.541
790.926	29.132	1338.762	1267.557
791.940	29.125	1338.116	1266.741
792.955	29.460	1336.728	1267.589
793.969	29.278	1336.649	1266.110
794.984	29.321	1336.051	1265.687
795.999	29.834	1334.835	1267.917
797.013	29.908	1332.988	1266.520
798.028	29.842	1331.615	1264.608
799.042	29.981	1330.641	1264.487
800.057	29.875	1329.801	1262.814
801.072	29.754	1328.657	1260.743
802.086	29.907	1327.050	1260.117
803.101	29.831	1326.025	1258.473
804.115	29.772	1325.639	1257.549
805.130	29.773	1324.131	1255.978
806.145	29.685	1322.751	1253.917
807.159	29.416	1321.841	1251.073
808.174	29.468	1321.119	1250.596
809.188	29.689	1319.805	1250.703
810.203	29.422	1318.545	1247.544
811.218	29.456	1316.188	1245.394
812.232	28.887	1314.937	1240.205
813.247	28.690	1314.026	1237.865
814.261	29.007	1314.536	1240.343
815.276	29.335	1313.470	1241.410
816.291	29.400	1312.017	1240.331
817.305	29.237	1310.807	1237.936
818.320	29.371	1309.774	1237.715
819.334	29.620	1309.067	1238.575
820.349	29.620	1307.876	1237.301
821.364	29.525	1306.674	1235.379
822.378	29.544	1305.289	1234.047
823.393	29.540	1303.532	1232.214
824.407	29.606	1302.814	1231.831
825.422	29.504	1301.857	1230.093
826.437	29.577	1300.680	1229.323
827.451	29.193	1298.929	1224.954
828.466	29.519	1298.735	1226.804
829.480	30.043	1297.164	1228.670
830.495	29.770	1293.962	1223.672
831.509	29.303	1293.915	1220.376
832.524	29.124	1293.485	1218.631
833.539	29.350	1292.178	1218.756
834.553	29.589	1290.860	1218.956
835.568	29.458	1290.037	1217.164
836.582	29.463	1288.960	1216.036
837.597	29.602	1287.725	1215.640
838.612	29.519	1285.679	1213.014
839.626	29.210	1284.731	1209.936
840.641	29.183	1283.305	1208.274
841.655	29.111	1282.337	1206.744
842.670	28.777	1281.781	1203.871
843.685	28.662	1280.355	1201.635
844.699	28.816	1279.604	1201.801
845.714	29.137	1277.822	1202.087
846.728	28.968	1277.237	1200.283
847.743	29.111	1276.580	1200.463
848.758	29.235	1275.943	1200.532
849.772	29.321	1275.202	1200.249
850.787	29.333	1273.430	1198.520
851.801	29.269	1272.961	1197.518
852.816	29.201	1271.886	1195.921
853.831	29.331	1269.672	1194.541
854.845	29.385	1267.865	1193.047
855.860	29.156	1266.423	1190.058
856.874	29.036	1265.256	1188.042
857.889	29.127	1264.554	1187.831
858.904	29.598	1263.736	1189.974
859.918	30.184	1262.712	1192.652
860.933	30.293	1262.208	1192.742
861.947	29.708	1260.955	1187.635
862.962	29.286	1258.875	1182.813
863.977	29.211	1257.300	1180.709
864.991	29.205	1256.574	1179.847
866.006	29.121	1256.095	1178.714
867.020	29.124	1255.520	1178.055
868.035	29.266	1253.765	1177.183
869.049	29.394	1252.751	1176.910
870.064	29.491	1251.932	1176.617
871.079	29.207	1251.971	1174.697
872.093	28.977	1251.023	1172.191
873.108	28.957	1249.763	1170.745
874.122	28.886	1247.945	1168.444
875.137	28.733	1246.963	1166.413
876.152	28.815	1245.769	1165.676
877.166	28.704	1244.387	1163.536
878.181	28.677	1243.455	1162.355
879.195	28.890	1243.195	1163.326
880.210	28.983	1242.486	1163.117
881.225	29.188	1242.168	1163.979
882.239	29.112	1240.607	1161.895
883.254	29.281	1239.983	1162.247
884.268	29.195	1239.050	1160.684
885.283	29.317	1237.636	1159.997
886.298	29.468	1235.620	1158.920
887.312	29.396	1234.493	1157.272
888.327	29.352	1233.977	1156.373
889.341	29.315	1232.450	1154.570
890.356	29.386	1231.651	1154.126
891.371	29.168	1231.873	1152.829
892.385	29.226	1231.430	1152.639
893.400	29.159	1230.182	1150.914
894.414	29.322	1228.411	1150.140
895.429	29.338	1227.557	1149.300
896.444	30.043	1227.867	1153.869
897.458	30.874	1227.157	1158.264
898.473	30.348	1224.943	1152.749
899.487	29.580	1223.009	1146.004
900.502	29.290	1221.534	1142.681
901.517	29.079	1220.866	1140.602
902.531	29.150	1220.459	1140.529
903.546	29.160	1219.325	1139.392
904.560	29.280	1218.459	1139.192
905.575	29.168	1217.827	1137.772
906.589	28.951	1217.018	1135.532
907.604	29.188	1215.801	1135.729
