DTS Sentinel unit serial number:	SN409020Multiplexer serial number:	ORYXHardware model number:	OX4-SRSoftware version number:	ORYX F/W v3.00 Oryx Data Collector v3.7.2.0data status	okinstallation	HaddamTimeLapsedifferential loss correction	single-endedforward channel	channel 3reverse channel	N/Adate	2011/06/22time	09:41:17forward acquisition time	30.00reverse acquisition time	0.00gamma	498.7831k internal	0.1796k external	0.1796temperature offset calibration	1.0074default loss term (dB/km)	0.3790temperature slope calibration	1.3530multiplexer offset coefficient	1.0000multiplexer slope coefficient	1.0000fibre end	0.00T internal ref (°C)	27.94T ext. ref 1 (°C)	23.77T ext. ref 2 (°C)	0.19length (m)	temperature (°C)	Stokes	anti-Stokes-747.200	-182.869	-0.355	0.008
-746.185	16.465	-0.065	-0.066
-745.171	-124.553	0.395	-0.079
-744.156	-200.000	-0.060	0.389
-743.142	800.000	0.014	-0.068
-742.127	-103.804	0.138	0.042
-741.112	-104.293	-0.247	-0.074
-740.098	587.959	0.224	0.719
-739.083	-110.755	-0.745	-0.198
-738.069	800.000	0.014	-0.063
-737.054	-39.600	0.074	-0.050
-736.039	-119.017	-0.014	0.003
-735.025	-21.190	-0.112	0.089
-734.010	-71.508	0.252	0.121
-732.996	-38.793	-0.117	-0.080
-731.981	-157.732	-0.092	-0.007
-730.966	-103.462	-0.257	-0.078
-729.952	-47.526	-0.327	0.205
-728.937	120.639	-0.061	0.098
-727.923	127.749	0.059	0.097
-726.908	20.698	-0.295	-0.309
-725.894	-104.393	-0.197	0.059
-724.879	-200.000	0.013	0.419
-723.864	-200.000	0.000	0.055
-722.850	-107.639	0.406	0.114
-721.835	-97.506	-0.361	0.121
-720.821	-95.876	-0.081	0.028
-719.806	57.744	0.350	-0.443
-718.791	185.133	-0.112	0.215
-717.777	-119.113	0.154	0.035
-716.762	800.000	-0.041	-0.152
-715.748	477.354	0.075	0.220
-714.733	-2.177	0.222	-0.202
-713.718	-46.956	-0.241	-0.152
-712.704	-56.017	-0.231	-0.133
-711.689	-158.409	-0.130	-0.010
-710.675	716.054	0.061	-0.209
-709.660	-25.537	-0.540	-0.412
-708.645	-20.914	0.256	0.203
-707.631	-200.000	0.018	0.277
-706.616	-106.178	-0.403	-0.116
-705.602	800.000	-0.065	-0.258
-704.587	-36.963	0.424	-0.293
-703.572	174.740	-0.352	-0.660
-702.558	29.402	-0.303	-0.333
-701.543	-200.000	0.024	0.172
-700.529	-80.845	0.432	0.185
-699.514	61.617	0.200	0.258
-698.499	-123.384	-0.287	-0.059
-697.485	800.000	0.038	0.144
-696.470	168.105	-0.042	0.077
-695.456	-200.000	-0.028	-0.185
-694.441	-62.756	-0.280	-0.149
-693.426	-110.672	0.068	0.018
-692.412	-200.000	0.044	-0.481
-691.397	800.000	0.091	-0.345
-690.383	422.052	-0.187	-0.523
-689.368	-200.000	0.028	-0.198
-688.354	-200.000	0.069	-0.723
-687.339	-125.827	0.613	-0.118
-686.324	72.376	0.100	-0.135
-685.310	-159.705	0.305	-0.021
-684.295	-200.000	0.045	-0.538
-683.281	185.534	-0.099	-0.191
-682.266	445.876	0.065	0.186
-681.251	139.305	0.127	-0.216
-680.237	-200.000	-0.032	0.223
-679.222	-182.220	-0.426	-0.010
-678.208	482.993	0.059	0.173
-677.193	-109.323	0.313	-0.085
-676.178	-200.000	0.079	0.455
-675.164	66.999	-0.392	0.516
-674.149	-58.570	0.243	0.136
-673.135	-118.530	-0.121	-0.027
-672.120	213.040	-0.224	0.458
-671.105	-59.254	0.567	0.314
-670.091	128.765	0.265	-0.438
-669.076	123.512	0.078	-0.126
-668.062	-34.933	-0.375	-0.264
-667.047	-114.953	0.218	-0.053
-666.032	242.543	-0.190	-0.412
-665.018	-81.661	0.436	0.184
-664.003	36.630	0.193	-0.221
-662.989	175.786	0.286	0.537
-661.974	-38.262	0.156	-0.106
-660.959	-106.527	0.310	0.089
-659.945	-84.540	-0.288	-0.117
-658.930	102.143	-0.189	0.285
-657.916	99.803	-0.185	-0.276
-656.901	182.372	0.135	-0.258
-655.886	-54.066	-0.309	0.181
-654.872	-170.383	0.171	-0.008
-653.857	-118.710	0.426	0.096
-652.843	-93.397	-0.373	0.133
-651.828	800.000	-0.027	0.125
-650.814	-7.293	0.394	-0.344
-649.799	-118.268	0.117	0.027
-648.784	68.307	0.203	0.269
-647.770	126.335	0.168	-0.275
-646.755	-127.104	-0.151	0.028
-645.741	-200.000	-0.057	0.385
-644.726	15.013	0.166	0.167
-643.711	32.752	-0.332	0.371
-642.697	169.205	0.124	0.229
-641.682	-200.000	0.009	0.378
-640.668	-74.870	-0.597	-0.275
-639.653	-12.882	0.211	-0.177
-638.638	-167.725	0.704	0.035
-637.624	574.856	0.137	0.434
-636.609	-18.434	-0.213	-0.171
-635.595	-50.911	-0.105	-0.063
-634.580	29.339	-0.324	0.355
-633.565	-200.000	-0.003	-0.394
-632.551	-13.218	0.175	-0.146
-631.536	28.276	0.346	0.377
-630.522	57.390	-0.197	-0.248
-629.507	-0.151	0.274	0.252
-628.492	-200.000	-0.002	-0.183
-627.478	-55.015	-0.207	-0.120
-626.463	-146.325	-0.225	-0.025
-625.449	-167.394	0.256	0.013
-624.434	-65.444	-0.180	0.093
-623.419	60.314	0.172	0.219
-622.405	800.000	-0.046	-0.233
-621.390	-100.600	0.206	-0.065
-620.376	-76.032	0.442	-0.201
-619.361	-39.625	-0.060	-0.040
-618.346	-200.000	0.010	0.226
-617.332	-70.326	-0.385	-0.187
-616.317	-144.763	-0.190	0.022
-615.303	-131.783	-0.212	0.035
-614.288	168.701	-0.286	-0.526
-613.273	-26.671	-0.324	-0.244
-612.259	-50.546	0.317	-0.192
-611.244	-13.637	-0.084	-0.070
-610.230	-187.554	0.376	-0.006
-609.215	172.718	-0.189	-0.352
-608.201	36.154	0.159	-0.181
-607.186	294.130	0.194	0.459
-606.171	800.000	-0.017	-0.088
-605.157	-21.146	0.242	-0.190
-604.142	-98.791	0.138	-0.045
-603.128	48.085	-0.261	-0.314
-602.113	82.232	-0.240	-0.335
-601.098	-45.074	0.175	0.112
-600.084	-200.000	-0.041	-0.387
-599.069	320.365	0.112	0.275
-598.055	-10.846	-0.075	-0.063
-597.040	15.534	0.103	-0.104
-596.025	-50.033	0.135	-0.082
-595.011	800.000	-0.052	0.210
-593.996	-200.000	-0.070	0.426
-592.982	685.150	0.089	-0.300
-591.967	-57.895	0.462	-0.259
-590.952	33.440	0.201	0.225
-589.938	-129.608	-0.046	0.008
-588.923	-35.966	-0.210	-0.146
-587.909	-1.736	-0.387	0.350
-586.894	191.731	-0.014	-0.028
-585.879	499.557	0.137	-0.408
-584.865	-123.139	0.236	-0.048
-583.850	42.656	0.333	0.391
-582.836	266.089	-0.064	0.145
-581.821	425.626	0.083	0.230
-580.806	-64.588	-0.567	0.295
-579.792	124.301	0.164	-0.265
-578.777	-60.042	0.535	-0.293
-577.763	-200.000	-0.043	0.290
-576.748	-151.566	-0.219	-0.021
-575.733	-69.476	0.106	0.052
-574.719	-35.254	-0.354	0.247
-573.704	-111.840	-0.682	0.176
-572.690	-89.864	0.035	0.013
-571.675	166.004	0.244	-0.445
-570.661	-47.011	0.419	0.262
-569.646	426.190	0.084	0.235
-568.631	-156.646	0.560	0.044
-567.617	800.000	0.037	0.180
-566.602	-94.828	-0.528	0.183
-565.588	-200.000	-0.001	0.110
-564.573	-67.843	-0.041	-0.021
-563.558	-64.670	-0.085	0.044
-562.544	-200.000	-0.006	-0.078
-561.529	35.186	-0.316	0.356
-560.515	244.632	0.122	-0.265
-559.500	-102.874	0.096	-0.029
-558.485	145.915	0.290	-0.502
-557.471	-50.257	-0.520	-0.315
-556.456	-0.725	0.253	-0.230
-555.442	-200.000	-0.055	0.667
-554.427	-109.743	-0.138	0.037
-553.412	-65.027	0.133	-0.069
-552.398	22.068	-0.029	-0.030
-551.383	228.256	-0.138	-0.290
-550.369	71.578	-0.346	-0.463
-549.354	800.000	0.050	-0.227
-548.339	-97.659	0.381	0.126
-547.325	260.740	0.172	-0.384
-546.310	800.000	-0.078	0.297
-545.296	69.965	0.099	0.132
-544.281	-89.262	0.187	-0.070
-543.266	-116.558	0.508	0.119
-542.252	-110.856	-0.347	0.091
-541.237	31.237	-0.110	-0.122
-540.223	239.959	-0.092	0.198
-539.208	-200.000	0.000	-0.095
-538.193	-177.187	-0.400	0.013
-537.179	-119.402	-0.140	0.031
-536.164	-53.648	-0.196	-0.114
-535.150	-133.813	0.284	0.045
-534.135	263.615	-0.228	-0.512
-533.121	-200.000	-0.035	0.368
-532.106	-200.000	0.005	-0.058
-531.091	100.005	-0.194	0.290
-530.077	-200.000	-0.008	0.298
-529.062	-55.150	-0.258	-0.149
-528.048	-119.467	-0.231	0.051
-527.033	509.318	0.214	0.643
-526.018	-122.963	0.201	0.041
-525.004	-114.967	0.161	-0.039
-523.989	800.000	0.123	-0.443
-522.975	13.066	0.111	-0.110
-521.960	-64.871	0.658	0.340
-520.945	146.799	0.133	-0.230
-519.931	126.609	0.091	-0.148
-518.916	-11.320	0.091	0.077
-517.902	800.000	-0.081	-0.368
-516.887	118.063	0.267	-0.424
-515.872	-126.169	-0.133	0.025
-514.858	-129.040	0.364	0.065
-513.843	299.809	0.126	0.299
-512.829	-200.000	-0.023	0.256
-511.814	-77.154	-0.517	0.230
-510.799	-62.563	-0.370	-0.196
-509.785	-145.509	-0.180	0.020
-508.770	-98.131	-0.148	0.049
-507.756	-147.394	0.348	0.037
-506.741	-159.515	0.685	0.048
-505.726	-94.528	-0.334	-0.116
-504.712	120.694	-0.156	0.249
-503.697	-79.820	0.087	0.037
-502.683	239.497	-0.055	-0.118
-501.668	-13.917	0.417	0.345
-500.653	-11.057	-0.325	0.274
-499.639	-192.824	-0.228	-0.003
-498.624	-103.304	-0.035	0.011
-497.610	5.118	0.320	0.303
-496.595	123.503	-0.186	-0.299
-495.581	-154.569	-0.315	-0.027
-494.566	-198.586	0.087	0.001
-493.551	319.984	0.066	-0.161
-492.537	-42.626	0.197	0.128
-491.522	45.103	-0.291	-0.344
-490.508	-61.342	-0.231	-0.124
-489.493	22.281	0.288	-0.302
-488.478	-91.734	0.104	0.038
-487.464	159.967	-0.225	-0.403
-486.449	99.935	-0.307	-0.457
-485.435	-37.942	-0.072	0.049
-484.420	59.422	-0.177	-0.224
-483.405	-27.645	0.053	-0.039
-482.391	111.140	-0.036	0.056
-481.376	-93.811	0.175	-0.062
-480.362	387.411	0.035	0.093
-479.347	-9.634	-0.095	-0.081
-478.332	800.000	0.054	-0.292
-477.318	-200.000	0.017	0.160
-476.303	672.216	0.106	0.353
-475.289	-11.856	0.263	-0.221
-474.274	-77.258	0.091	-0.041
-473.259	-125.524	-0.173	-0.033
-472.245	44.145	-0.313	-0.368
-471.230	115.407	0.181	-0.284
-470.216	-200.000	0.026	0.175
-469.201	-123.453	-0.643	0.130
-468.186	-32.880	-0.376	0.267
-467.172	303.486	0.174	-0.414
-466.157	30.589	0.191	-0.210
-465.143	-200.000	0.009	-0.361
-464.128	-51.098	-0.070	0.042
-463.113	35.145	0.267	-0.300
-462.099	-200.000	-0.017	-0.206
-461.084	-40.109	-0.274	-0.182
-460.070	-28.617	-0.314	-0.231
-459.055	800.000	-0.029	-0.155
-458.040	-34.123	-0.162	-0.114
-457.026	169.076	-0.194	0.355
-456.011	800.000	0.039	0.167
-454.997	-40.325	0.718	-0.477
-453.982	-27.858	-0.288	-0.214
-452.968	0.598	0.198	-0.181
-451.953	-105.006	0.223	0.065
-450.938	165.179	-0.157	0.286
-449.924	24.530	-0.153	-0.162
-448.909	-200.000	-0.047	-0.281
-447.895	169.725	-0.156	-0.286
-446.880	800.000	0.040	0.144
-445.865	800.000	0.139	0.501
-444.851	-46.135	0.230	0.144
-443.836	-80.880	-0.304	0.129
-442.822	-200.000	0.015	0.350
-441.807	800.000	0.056	-0.318
-440.792	-200.000	0.066	-0.538
-439.778	16.632	0.170	0.172
-438.763	-44.925	0.052	-0.033
-437.749	-200.000	0.009	-0.137
-436.734	134.004	0.084	0.140
-435.719	103.074	0.287	-0.431
-434.705	-127.002	-0.405	0.075
-433.690	-74.761	-0.017	-0.008
-432.676	248.574	-0.176	-0.382
-431.661	410.672	-0.121	-0.331
-430.646	-164.776	-0.583	-0.033
-429.632	317.479	-0.216	-0.526
-428.617	-48.121	0.373	-0.230
-427.603	125.575	0.198	0.320
-426.588	-90.914	-0.302	0.111
-425.573	341.845	-0.075	-0.188
-424.559	-78.517	0.247	0.108
-423.544	-69.220	0.310	0.152
-422.530	-76.166	-0.221	0.099
-421.515	-117.469	-0.204	0.047
-420.500	-200.000	-0.017	0.136
-419.486	-162.838	0.195	0.012
-418.471	-44.665	0.225	0.143
-417.457	-200.000	-0.044	-0.318
-416.442	-200.000	-0.052	0.335
-415.428	-99.019	-0.153	0.049
-414.413	-200.000	0.001	0.146
-413.398	-109.562	-0.045	0.012
-412.384	-36.203	-0.317	-0.219
-411.369	270.897	-0.095	0.214
-410.355	-200.000	0.038	0.420
-409.340	58.878	0.282	-0.355
-408.325	48.217	-0.189	-0.226
-407.311	321.102	0.066	-0.162
-406.296	62.864	0.148	0.190
-405.282	65.882	0.126	0.163
-404.267	-134.246	0.257	-0.040
-403.252	800.000	0.050	-0.179
-402.238	185.408	0.081	-0.155
-401.223	-123.778	0.173	-0.035
-400.209	266.253	-0.067	-0.150
-399.194	-67.654	0.360	0.179
-398.179	321.445	0.024	0.059
-397.165	-100.815	0.368	0.115
-396.150	244.226	0.090	0.194
-395.136	-44.056	-0.335	0.215
-394.121	-34.125	-0.358	-0.251
-393.106	-87.801	-0.504	-0.193
-392.092	10.632	0.235	0.228
-391.077	-200.000	-0.001	0.194
-390.063	68.701	0.228	0.299
-389.048	161.620	-0.082	0.146
-388.033	-16.059	0.367	-0.298
-387.019	206.687	0.267	-0.534
-386.004	-200.000	-0.014	-0.192
-384.990	116.539	-0.256	-0.402
-383.975	-159.668	-0.522	-0.036
-382.960	38.870	-0.166	-0.189
-381.946	-99.313	-0.054	-0.017
-380.931	-43.199	-0.477	-0.308
-379.917	74.365	0.095	-0.128
-378.902	-200.000	0.026	-0.349
-377.888	-63.665	0.341	-0.178
-376.873	-200.000	0.018	-0.162
-375.858	-46.524	-0.240	0.150
-374.844	6.241	0.069	-0.065
-373.829	-46.607	-0.207	0.129
-372.815	407.501	0.044	-0.120
-371.800	-105.084	0.579	-0.168
-370.785	-200.000	0.016	-0.191
-369.771	-91.128	0.163	-0.059
-368.756	-200.000	0.013	-0.394
-367.742	800.000	-0.092	-0.462
-366.727	556.875	0.146	-0.452
-365.712	-117.602	-0.111	0.025
-364.698	550.836	-0.180	0.553
-363.683	-112.381	-0.332	0.084
-362.669	56.557	0.313	-0.389
-361.654	42.700	0.014	0.016
-360.639	-200.000	-0.007	0.180
-359.625	318.170	0.096	-0.232
-358.610	81.862	-0.224	0.310
-357.596	-1.963	0.182	-0.163
-356.581	705.249	-0.110	0.374
-355.566	-14.773	-0.244	0.200
-354.552	-100.476	-0.412	0.129
-353.537	-75.944	0.354	0.159
-352.523	-132.482	-0.026	0.004
-351.508	195.346	0.137	-0.267
-350.493	209.146	-0.072	-0.145
-349.479	-30.547	-0.156	-0.112
-348.464	144.823	0.157	0.268
-347.450	-110.278	0.304	-0.080
-346.435	88.475	-0.210	-0.298
-345.420	-200.000	-0.085	0.602
-344.406	618.586	0.119	0.383
-343.391	-46.177	-0.159	-0.100
-342.377	623.204	-0.173	-0.558
-341.362	-116.745	-0.313	-0.073
-340.348	-19.862	-0.242	0.191
-339.333	-31.588	-0.282	0.201
-338.318	72.212	0.121	-0.161
-337.304	-154.316	0.247	0.021
-336.289	64.144	0.077	-0.099
-335.275	-180.326	0.642	-0.017
-334.260	-8.561	0.255	-0.218
-333.245	-76.754	-0.323	0.143
-332.231	-157.589	0.090	-0.007
-331.216	-200.000	0.015	0.311
-330.202	97.892	-0.244	0.358
-329.187	-125.966	0.185	0.035
-328.172	-26.463	0.343	0.255
-327.158	-79.342	0.347	0.149
-326.143	-200.000	-0.034	0.266
-325.129	51.292	-0.218	0.263
-324.114	-66.847	-0.324	-0.163
-323.099	25.068	-0.029	0.030
-322.085	-200.000	0.002	-0.103
-321.070	72.420	-0.089	0.119
-320.056	243.768	-0.071	-0.153
-319.041	-100.046	-0.345	0.109
-318.026	107.375	0.210	-0.319
-317.012	-74.308	-0.124	0.057
-315.997	49.894	-0.205	0.247
-314.983	-95.951	0.208	0.070
-313.968	222.276	0.193	0.396
-312.953	-50.147	-0.173	-0.104
-311.939	30.376	0.190	-0.206
-310.924	-33.116	0.090	0.063
-309.910	-0.524	0.223	0.201
-308.895	-17.450	-0.271	-0.217
-307.880	-200.000	0.069	0.506
-306.866	800.000	0.085	0.349
-305.851	141.180	-0.215	0.364
-304.837	-200.000	0.008	0.321
-303.822	-117.049	-0.161	0.037
-302.807	-23.834	-0.143	0.109
-301.793	-40.708	0.123	0.081
-300.778	494.097	-0.110	0.324
-299.764	-18.412	-0.073	0.058
-298.749	-173.410	-0.447	-0.017
-297.735	58.047	-0.246	-0.307
-296.720	152.205	-0.307	0.534
-295.705	129.692	0.129	0.210
-294.691	401.135	-0.081	0.216
-293.676	-129.194	0.480	0.084
-292.662	-20.335	-0.459	0.359
-291.647	-133.129	0.071	0.011
-290.632	-176.305	0.259	0.008
-289.618	86.157	0.069	0.096
-288.603	40.069	0.054	0.062
-287.589	-45.363	0.263	0.166
-286.574	-93.855	-0.487	0.170
-285.559	-72.757	0.191	0.089
-284.545	653.536	0.039	-0.127
-283.530	159.961	-0.215	0.382
-282.516	320.722	-0.096	-0.232
-281.501	259.934	0.155	0.342
-280.486	-29.435	0.162	-0.118
-279.472	18.933	-0.277	-0.282
-278.457	800.000	0.073	-0.403
-277.443	-57.896	0.267	0.148
-276.428	97.553	0.178	-0.261
-275.413	33.038	-0.518	0.571
-274.399	-156.954	-0.183	0.014
-273.384	161.403	0.168	-0.300
-272.370	-62.639	0.677	0.356
-271.355	-130.244	0.451	-0.077
-270.340	-121.201	0.236	-0.050
-269.326	-18.761	-0.305	0.241
-268.311	105.402	-0.089	-0.134
-267.297	-160.582	0.643	-0.043
-266.282	800.000	-0.050	-0.199
-265.267	800.000	0.090	-0.425
-264.253	-85.233	0.375	-0.148
-263.238	-106.219	-0.343	-0.097
-262.224	0.996	0.167	0.152
-261.209	-56.204	-0.328	-0.185
-260.195	254.939	0.195	0.425
-259.180	-26.033	0.398	0.297
-258.165	-146.008	-0.393	0.044
-257.151	0.996	0.276	0.251
-256.136	-68.811	0.166	-0.081
-255.122	800.000	-0.074	0.288
-254.107	-200.000	0.003	-0.092
-253.092	-65.980	-0.196	0.099
-252.078	528.143	0.062	0.186
-251.063	-98.875	-0.658	0.211
-250.049	-200.000	-0.038	-0.511
-249.034	-2.041	-0.152	0.135
-248.019	-47.407	-0.176	0.108
-247.005	-200.000	-0.055	0.368
-245.990	-57.241	0.282	-0.157
-244.976	-116.515	0.224	-0.052
-243.961	11.615	0.382	0.372
-242.946	65.317	0.209	-0.269
-241.932	289.092	-0.044	-0.101
-240.917	-200.000	-0.041	0.254
-239.903	-164.660	0.031	-0.002
-238.888	-200.000	-0.003	0.359
-237.873	23.865	0.207	0.216
-236.859	496.569	0.123	0.362
-235.844	-200.000	0.054	0.564
-234.830	96.711	0.209	0.304
-233.815	-57.061	0.140	-0.078
-232.800	7.364	0.280	-0.266
-231.786	-155.401	-0.238	0.019
-230.771	800.000	-0.058	-0.311
-229.757	-140.303	-0.375	0.049
-228.742	-30.288	0.193	0.139
-227.727	-141.190	-0.452	-0.058
-226.713	554.309	0.052	-0.160
-225.698	423.283	0.032	-0.088
-224.684	556.774	0.041	0.125
-223.669	-71.588	0.143	0.068
-222.655	118.804	0.128	-0.201
-221.640	-106.861	-0.056	0.016
-220.625	-128.414	0.312	-0.056
-219.611	-200.000	0.002	-0.277
-218.596	-121.509	0.374	0.078
-217.582	-200.000	0.040	0.311
-216.567	800.000	0.099	-0.452
-215.552	-70.913	-0.336	0.160
-214.538	-0.538	0.245	0.220
-213.523	-21.250	-0.286	0.222
-212.509	-54.556	-0.478	0.274
-211.494	121.357	-0.095	-0.150
-210.479	36.044	0.153	-0.171
-209.465	-2.463	0.094	-0.083
-208.450	-32.195	-0.254	0.179
-207.436	24.325	-0.305	0.319
-206.421	-149.958	0.084	0.008
-205.406	67.104	-0.261	0.338
-204.392	-110.191	-0.228	0.060
-203.377	800.000	-0.040	-0.203
-202.363	-57.172	-0.176	-0.098
-201.348	41.433	0.260	-0.298
-200.333	-122.566	-0.122	0.025
-199.319	329.506	-0.249	0.610
-198.304	132.763	0.089	0.145
-197.290	799.434	-0.033	0.117
-196.275	60.689	-0.026	-0.032
-195.260	800.000	-0.043	0.189
-194.246	-200.000	0.033	-0.228
-193.231	-31.635	0.261	0.185
-192.217	145.346	-0.089	0.152
-191.202	800.000	0.062	0.304
-190.187	-158.727	-0.501	0.036
-189.173	140.328	-0.187	-0.313
-188.158	800.000	0.036	-0.136
-187.144	-38.082	-0.365	-0.245
-186.129	3.622	0.305	0.281
-185.114	-60.507	0.135	0.072
-184.100	227.036	0.098	0.203
-183.085	-110.255	-0.094	0.025
-182.071	-75.733	-0.228	-0.102
-181.056	32.694	0.110	-0.120
-180.042	170.049	-0.057	0.103
-179.027	-113.998	0.462	-0.113
-178.012	-200.000	-0.051	0.307
-176.998	-167.990	0.494	0.024
-175.983	800.000	-0.074	0.271
-174.969	-200.000	0.034	-0.702
-173.954	56.589	-0.238	0.294
-172.939	-172.115	-0.333	0.013
-171.925	79.002	-0.268	-0.364
-170.910	-104.845	-0.487	-0.141
-169.896	48.182	-0.140	-0.165
-168.881	-43.385	0.433	-0.276
-167.866	800.000	0.060	-0.312
-166.852	-106.312	0.174	-0.049
-165.837	-12.614	0.228	0.188
-164.823	110.875	0.302	-0.461
-163.808	171.602	0.097	0.178
-162.793	-124.132	0.104	-0.020
-161.779	-158.592	-0.212	0.015
-160.764	219.613	-0.066	-0.134
-159.750	123.569	0.119	-0.190
-158.735	-124.304	0.082	0.016
-157.720	-78.510	0.311	-0.134
-156.706	-188.400	0.426	0.007
-155.691	-200.000	-0.051	-0.291
-154.677	-200.000	-0.058	-0.343
-153.662	-153.104	-0.185	0.016
-152.647	-23.845	-0.212	0.161
-151.633	800.000	-0.059	0.329
-150.618	-110.415	-0.345	0.090
-149.604	312.800	-0.180	-0.429
-148.589	14.170	-0.176	-0.173
-147.574	-130.529	-0.684	-0.116
-146.560	-91.916	0.265	0.095
-145.545	34.322	-0.198	-0.218
-144.531	-84.165	0.163	0.065
-143.516	90.494	-0.025	0.035
-142.502	-32.007	0.520	0.367
-141.487	2.441	0.087	0.080
-140.472	133.650	-0.418	-0.686
-139.458	-63.142	0.119	0.062
-138.443	-174.520	-0.133	-0.005
-137.429	-11.390	0.356	-0.296
-136.414	105.032	0.189	0.283
-135.399	-89.685	0.160	-0.059
-134.385	-128.241	-0.228	0.041
-133.370	89.520	0.160	0.226
-132.356	14.288	0.235	0.231
-131.341	3.289	0.140	0.128
-130.326	-200.000	0.154	0.962
-129.312	14.907	-0.342	0.338
-128.297	-5.764	0.228	0.197
-127.283	93.335	0.273	0.390
-126.268	-92.907	-0.502	-0.176
-125.253	77.428	0.234	0.315
-124.239	-165.556	-0.183	0.010
-123.224	105.988	-0.458	0.686
-122.210	-12.844	0.384	-0.316
-121.195	-200.000	-0.022	0.140
-120.180	-42.207	0.345	-0.222
-119.166	-157.448	0.098	0.007
-118.151	-21.951	-0.144	0.111
-117.137	395.625	-0.116	-0.307
-116.122	102.720	-0.274	0.406
-115.107	800.000	0.026	0.131
-114.093	800.000	-0.052	-0.192
-113.078	800.000	0.101	-0.378
-112.064	76.809	-0.394	-0.529
-111.049	267.597	0.144	-0.319
-110.034	321.504	0.104	0.252
-109.020	-30.526	-0.236	0.169
-108.005	147.406	-0.067	-0.114
-106.991	-200.000	0.055	0.366
-105.976	-200.000	0.006	0.157
-104.962	-57.571	0.235	-0.130
-103.947	733.185	-0.041	-0.138
-102.932	-99.453	0.298	-0.094
-101.918	-86.241	-0.206	0.080
-100.903	-200.000	-0.042	0.344
-99.889	67.828	0.288	0.372
-98.874	-43.136	0.351	-0.224
-97.859	-200.000	0.525	-0.001
-96.845	800.000	0.080	0.374
-95.830	-66.543	0.310	-0.155
-94.816	-200.000	-0.060	-0.368
-93.801	-19.352	-0.526	-0.411
-92.786	530.355	-0.181	-0.544
-91.772	14.133	-0.102	-0.100
-90.757	-69.928	-0.382	-0.183
-89.743	532.143	0.125	-0.377
-88.728	12.591	0.390	0.380
-87.713	-142.836	0.393	-0.048
-86.699	62.617	-0.069	-0.087
-85.684	-138.635	-0.326	0.045
-84.670	-134.729	0.294	-0.045
-83.655	-104.464	0.366	-0.106
-82.640	-148.811	0.176	0.018
-81.626	542.655	-0.128	0.387
-80.611	-80.549	-0.238	0.100
-79.597	-110.427	0.396	-0.103
-78.582	-134.864	-0.157	-0.024
-77.567	-56.379	-0.144	0.080
-76.553	-95.709	0.436	0.146
-75.538	-68.113	-0.370	-0.181
-74.524	800.000	-0.105	-0.392
-73.509	-85.311	0.312	0.122
-72.494	-78.745	-0.135	-0.058
-71.480	-4.341	-0.210	-0.183
-70.465	62.058	-0.172	-0.216
-69.451	355.890	0.031	0.078
-68.436	-137.895	-0.293	-0.041
-67.422	-200.000	0.011	0.065
-66.407	-200.000	-0.002	0.266
-65.392	39.497	0.182	0.206
-64.378	-21.195	0.126	-0.097
-63.363	697.180	-0.101	0.338
-62.349	-72.673	0.188	-0.087
-61.334	12.649	-1.872	-1.821
-60.319	300.789	0.685	1.602
-59.305	299.465	-2.936	-6.848
-58.290	14.218	4.099	4.026
-57.276	504.783	3.602	10.570
-56.261	-200.000	17.294	270.929
-55.246	421.614	1224.293	3327.367
-54.232	59.815	2831.042	3526.602
-53.217	70.241	2703.351	3524.106
-52.203	46.577	2437.112	2853.090
-51.188	37.639	2097.166	2347.312
-50.173	30.255	1977.742	2128.763
-49.159	28.794	1967.485	2100.864
-48.144	28.506	1962.662	2092.320
-47.130	28.314	1960.539	2087.774
-46.115	28.249	1959.195	2085.520
-45.100	28.357	1957.444	2084.809
-44.086	28.193	1956.430	2081.772
-43.071	28.207	1954.232	2079.505
-42.057	28.184	1953.057	2077.910
-41.042	28.245	1951.992	2077.393
-40.027	28.244	1949.664	2074.818
-39.013	28.136	1948.949	2072.744
-37.998	28.198	1946.587	2070.863
-36.984	28.143	1946.162	2069.705
-35.969	28.058	1945.018	2067.437
-34.954	28.158	1942.729	2066.053
-33.940	28.132	1942.046	2064.955
-32.925	27.995	1941.166	2062.383
-31.911	27.993	1940.056	2061.095
-30.896	28.032	1938.625	2059.935
-29.881	27.952	1937.411	2057.658
-28.867	27.992	1936.073	2056.613
-27.852	28.016	1934.667	2055.300
-26.838	27.919	1932.833	2052.181
-25.823	27.994	1931.429	2051.455
-24.809	27.931	1930.119	2049.275
-23.794	27.949	1928.613	2047.798
-22.779	27.854	1927.427	2045.378
-21.765	27.905	1925.592	2043.924
-20.750	27.840	1924.805	2042.280
-19.736	27.874	1924.261	2042.006
-18.721	27.960	1922.384	2040.897
-17.706	27.918	1921.404	2039.306
-16.692	27.796	1920.727	2037.135
-15.677	27.901	1919.206	2036.624
-14.663	27.871	1917.295	2034.178
-13.648	27.854	1915.726	2032.240
-12.633	27.810	1914.469	2030.334
-11.619	27.944	1913.084	2030.282
-10.604	27.793	1912.091	2027.455
-9.590	27.874	1911.699	2027.872
-8.575	27.888	1910.107	2026.252
-7.560	27.896	1908.768	2024.842
-6.546	27.876	1907.189	2022.864
-5.531	27.630	1906.914	2019.758
-4.517	27.723	1905.371	2019.074
-3.502	27.811	1904.562	2019.116
-2.487	27.894	1902.824	2018.113
-1.473	27.872	1900.012	2014.813
-0.458	27.973	1880.697	1995.351
0.556	24.851	2025.754	2099.932
1.571	24.070	2238.738	2310.261
2.586	25.201	2282.138	2369.791
3.600	25.177	2284.743	2371.892
4.615	25.279	2283.439	2371.603
5.629	25.259	2281.812	2369.369
6.644	25.289	2279.886	2367.477
7.659	25.422	2277.616	2366.598
8.673	25.330	2276.203	2363.633
9.688	24.790	2283.025	2363.261
10.702	23.286	2360.863	2422.881
11.717	21.682	2427.411	2468.182
12.731	11.029	2399.486	2289.587
13.746	1.776	2373.959	2135.041
14.761	0.381	2369.125	2110.806
15.775	0.249	2367.775	2107.499
16.790	0.252	2365.776	2105.514
17.804	0.154	2363.987	2102.285
18.819	0.117	2364.039	2101.568
19.834	0.183	2361.799	2100.247
20.848	0.026	2361.148	2097.212
21.863	0.151	2358.011	2095.933
22.877	0.178	2355.952	2094.231
23.892	0.159	2353.950	2091.935
24.907	0.215	2351.826	2090.572
25.921	0.036	2350.301	2086.468
26.936	0.070	2348.624	2085.215
27.950	0.075	2345.990	2082.686
28.965	0.169	2343.639	2081.665
29.980	0.076	2342.953	2079.506
30.994	0.249	2340.307	2079.313
32.009	5.525	2358.310	2168.690
33.023	19.477	2401.680	2405.020
34.038	27.254	2419.582	2531.957
35.053	29.316	2421.006	2561.978
36.067	29.147	2418.158	2556.309
37.082	28.523	2414.295	2543.220
38.096	28.253	2412.758	2537.539
39.111	28.783	2411.246	2543.024
40.126	29.403	2411.258	2551.349
41.140	29.962	2411.499	2559.063
42.155	29.759	2409.010	2553.306
43.169	29.277	2406.089	2543.225
44.184	29.483	2404.103	2543.674
45.199	29.437	2401.041	2539.492
46.213	28.985	2398.946	2530.714
47.228	29.044	2398.871	2531.158
48.242	29.386	2397.266	2533.877
49.257	29.577	2395.049	2533.872
50.271	29.597	2394.497	2533.258
51.286	29.811	2391.717	2532.961
52.301	29.407	2390.080	2525.364
53.315	28.170	2383.502	2501.124
54.330	25.167	2372.262	2447.901
55.344	23.426	2364.311	2415.579
56.359	23.208	2360.088	2407.999
57.374	23.091	2358.601	2404.589
58.388	23.033	2356.216	2401.085
59.403	23.199	2353.810	2400.605
60.417	23.420	2352.345	2401.835
61.432	23.648	2349.564	2401.803
62.447	23.486	2348.382	2398.113
63.461	23.573	2345.594	2396.151
64.476	23.535	2343.279	2392.990
65.490	23.874	2344.210	2398.257
66.505	24.772	2346.752	2412.742
67.520	26.710	2351.561	2443.699
68.534	28.402	2355.492	2470.448
69.549	29.492	2354.447	2483.797
70.563	29.795	2352.410	2485.446
71.578	29.660	2351.253	2482.105
72.593	29.644	2349.004	2479.222
73.607	29.691	2347.969	2478.465
74.622	29.771	2345.271	2476.404
75.636	29.433	2342.703	2468.843
76.651	29.449	2340.093	2466.007
77.666	29.788	2338.492	2468.581
78.680	30.060	2337.807	2471.214
79.695	30.488	2337.452	2476.279
80.709	30.850	2337.568	2480.946
81.724	31.169	2334.977	2482.159
82.739	31.094	2331.881	2477.571
83.753	30.706	2331.023	2471.194
84.768	30.602	2327.868	2466.163
85.782	30.180	2326.495	2458.788
86.797	30.121	2324.123	2455.206
87.812	30.036	2321.207	2450.702
88.826	29.987	2319.920	2448.401
89.841	30.264	2317.395	2449.116
90.855	30.458	2315.499	2449.386
91.870	30.067	2313.662	2441.970
92.884	30.059	2311.813	2439.623
93.899	30.319	2310.362	2441.236
94.914	29.175	2306.364	2421.619
95.928	25.814	2296.003	2366.147
96.943	24.543	2291.465	2344.436
97.957	27.469	2299.094	2390.625
98.972	29.782	2301.250	2423.090
99.987	29.814	2300.066	2421.965
101.001	29.967	2296.760	2420.213
102.016	30.189	2295.200	2421.183
103.030	30.362	2294.006	2421.913
104.045	30.277	2291.222	2417.566
105.060	30.564	2288.949	2418.630
106.074	30.343	2287.753	2414.193
107.089	30.114	2285.700	2408.749
108.103	30.154	2284.621	2407.840
109.118	30.182	2282.657	2405.851
110.133	30.374	2282.060	2407.434
111.147	30.851	2279.784	2410.952
112.162	30.724	2278.564	2407.722
113.176	30.293	2274.302	2397.341
114.191	30.028	2272.836	2392.063
115.206	29.978	2271.550	2389.770
116.220	29.958	2268.368	2385.881
117.235	29.664	2265.743	2379.030
118.249	29.601	2264.113	2376.226
119.264	29.849	2262.549	2377.501
120.279	29.887	2260.846	2375.912
121.293	29.632	2258.928	2370.321
122.308	29.763	2257.201	2369.925
123.322	29.700	2255.718	2367.262
124.337	28.722	2251.154	2349.617
125.352	25.927	2241.062	2302.974
126.366	25.452	2239.342	2294.830
127.381	27.931	2245.210	2332.434
128.395	29.188	2245.835	2348.927
129.410	29.646	2244.783	2353.404
130.424	29.790	2244.226	2354.380
131.439	29.745	2240.641	2349.763
132.454	29.610	2239.326	2346.376
133.468	29.695	2237.565	2345.340
134.483	29.858	2236.375	2345.891
135.497	29.783	2234.414	2342.603
136.512	29.950	2232.405	2342.333
137.527	30.105	2230.845	2342.390
138.541	30.033	2230.963	2341.318
139.556	29.977	2228.963	2338.223
140.570	30.052	2228.106	2338.002
141.585	30.163	2225.726	2336.621
142.600	30.106	2224.383	2334.212
143.614	30.069	2222.088	2331.062
144.629	30.221	2221.230	2331.801
145.643	30.265	2219.456	2330.216
146.658	30.222	2217.900	2327.755
147.673	30.426	2216.290	2328.368
148.687	30.520	2213.641	2326.488
149.702	30.092	2212.887	2320.025
150.716	29.953	2211.196	2316.226
151.731	30.127	2210.263	2317.160
152.746	30.363	2210.017	2319.593
153.760	28.958	2204.344	2295.753
154.775	25.544	2192.725	2240.683
155.789	24.262	2189.083	2220.658
156.804	27.108	2195.597	2262.687
157.819	29.360	2197.105	2292.137
158.833	30.017	2196.515	2299.442
159.848	30.535	2195.317	2304.372
160.862	30.627	2193.601	2303.440
161.877	30.652	2193.412	2303.284
162.892	30.679	2191.959	2301.818
163.906	30.617	2190.756	2299.507
164.921	30.636	2188.893	2297.506
165.935	30.532	2186.482	2293.419
166.950	30.389	2184.043	2288.812
167.964	30.048	2181.124	2281.254
168.979	30.231	2178.892	2280.910
169.994	30.449	2178.180	2282.591
171.008	30.434	2176.938	2280.830
172.023	30.205	2175.424	2276.139
173.037	30.241	2173.692	2274.510
174.052	29.961	2171.268	2268.247
175.067	29.916	2170.314	2266.424
176.081	30.001	2168.733	2265.550
177.096	29.989	2166.883	2263.194
178.110	29.722	2164.050	2256.687
179.125	29.693	2162.927	2254.894
180.140	29.891	2162.903	2257.025
181.154	29.967	2160.170	2254.836
182.169	29.580	2157.472	2247.017
183.183	28.212	2153.121	2225.511
184.198	25.164	2142.917	2177.557
185.213	24.664	2142.406	2170.679
186.227	27.916	2149.929	2217.795
187.242	29.550	2151.492	2239.088
188.256	29.783	2151.046	2241.194
189.271	30.049	2150.455	2243.540
190.286	30.186	2148.480	2242.881
191.300	30.083	2145.313	2238.053
192.315	29.970	2142.487	2233.468
193.329	30.008	2141.698	2232.835
194.344	30.152	2140.811	2233.389
195.359	30.309	2140.819	2235.036
196.373	30.433	2138.637	2233.986
197.388	30.283	2135.668	2228.808
198.402	30.224	2134.122	2226.211
199.417	30.224	2130.711	2222.388
200.432	30.141	2129.766	2220.136
201.446	30.294	2129.281	2221.208
202.461	30.459	2128.305	2221.907
203.475	30.333	2125.326	2217.023
204.490	30.310	2124.141	2215.239
205.504	30.447	2121.493	2213.853
206.519	30.167	2119.151	2207.799
207.534	30.154	2116.514	2204.630
208.548	30.126	2116.449	2203.965
209.563	29.916	2113.850	2198.490
210.577	29.741	2111.980	2194.193
211.592	29.864	2111.043	2194.419
212.607	28.218	2105.548	2168.858
213.621	24.637	2093.970	2114.180
214.636	24.612	2096.199	2115.878
215.650	28.186	2102.560	2164.620
216.665	29.635	2103.863	2182.925
217.680	29.915	2103.333	2185.444
218.694	30.457	2101.961	2190.179
219.709	30.459	2100.227	2188.135
220.723	30.228	2099.782	2184.673
221.738	30.429	2098.009	2184.946
222.753	30.395	2094.947	2181.097
223.767	30.185	2095.099	2178.519
224.782	30.033	2091.305	2172.509
225.796	30.073	2090.421	2171.808
226.811	30.161	2089.172	2171.289
227.826	30.289	2088.027	2171.347
228.840	30.275	2085.588	2168.384
229.855	30.232	2084.363	2166.349
230.869	30.373	2082.755	2166.072
231.884	30.112	2080.642	2160.554
232.899	29.947	2079.789	2157.475
233.913	29.868	2078.659	2155.117
234.928	29.993	2076.995	2154.600
235.942	30.151	2075.215	2154.336
236.957	30.112	2073.822	2152.179
237.972	30.133	2071.949	2150.229
238.986	30.022	2070.300	2146.963
240.001	30.100	2068.201	2145.441
241.015	29.718	2066.141	2138.600
242.030	28.673	2062.363	2122.303
243.045	25.888	2052.562	2079.711
244.059	25.173	2052.242	2070.836
245.074	28.324	2057.750	2112.745
246.088	29.625	2057.749	2127.561
247.103	29.695	2055.938	2126.241
248.117	29.861	2055.235	2127.181
249.132	30.109	2054.581	2129.119
250.147	30.167	2052.506	2127.381
251.161	29.886	2049.996	2121.282
252.176	29.689	2047.303	2115.976
253.190	28.328	2041.715	2094.322
254.205	27.074	2035.879	2073.708
255.220	27.002	2035.921	2072.668
256.234	27.537	2035.675	2078.307
257.249	27.700	2035.473	2079.719
258.263	27.517	2033.887	2075.755
259.278	27.083	2030.866	2067.467
260.293	27.103	2030.922	2067.502
261.307	28.788	2033.563	2089.224
262.322	30.167	2035.925	2107.164
263.336	30.249	2033.356	2105.188
264.351	30.182	2030.420	2101.136
265.366	30.292	2029.955	2101.649
266.380	30.464	2028.936	2102.300
267.395	29.996	2027.186	2094.921
268.409	30.034	2025.409	2093.266
269.424	30.532	2023.961	2097.166
270.439	30.588	2023.126	2096.681
271.453	29.099	2016.010	2072.221
272.468	25.318	2005.367	2018.395
273.482	24.762	2005.601	2012.111
274.497	28.246	2011.383	2057.099
275.512	29.986	2012.717	2077.863
276.526	30.319	2010.032	2078.588
277.541	30.081	2008.595	2074.171
278.555	30.155	2007.826	2073.967
279.570	30.078	2005.386	2070.331
280.585	29.804	2004.221	2065.805
281.599	30.046	2002.584	2066.582
282.614	29.811	1999.606	2060.639
283.628	28.142	1994.069	2036.028
284.643	27.252	1992.777	2024.508
285.657	27.375	1991.344	2024.185
286.672	27.358	1989.216	2021.589
287.687	27.178	1986.870	2016.954
288.701	27.047	1985.498	2013.868
289.716	26.938	1983.245	2010.128
290.730	26.957	1980.635	2007.453
291.745	27.045	1980.475	2008.021
292.760	26.976	1979.549	2006.084
293.774	27.235	1980.396	2009.580
294.789	28.603	1982.274	2026.443
295.803	29.463	1981.829	2035.282
296.818	29.867	1981.195	2038.858
297.833	29.980	1980.736	2039.398
298.847	30.173	1978.448	2038.929
299.862	29.916	1977.606	2034.975
300.876	29.004	1971.584	2018.486
301.891	25.777	1962.330	1973.289
302.906	24.916	1962.999	1964.238
303.920	28.306	1969.867	2008.317
304.935	29.680	1968.909	2022.217
305.949	29.696	1967.368	2020.571
306.964	30.155	1966.315	2024.287
307.979	29.832	1964.400	2018.536
308.993	29.106	1960.047	2005.865
310.008	27.870	1955.261	1987.219
311.022	27.275	1952.950	1978.137
312.037	27.270	1951.337	1976.202
313.052	26.875	1947.677	1967.963
314.066	26.523	1945.979	1962.174
315.081	26.402	1944.290	1958.918
316.095	26.147	1942.829	1954.438
317.110	26.415	1942.116	1956.393
318.125	26.891	1941.023	1960.235
319.139	27.069	1940.604	1961.509
320.154	27.369	1940.490	1964.418
321.168	27.442	1940.251	1964.725
322.183	28.743	1941.471	1979.836
323.197	30.095	1942.842	1995.638
324.212	30.309	1942.038	1996.893
325.227	30.330	1940.929	1995.740
326.241	30.523	1939.114	1995.721
327.256	30.522	1937.239	1993.534
328.270	30.400	1935.723	1990.424
329.285	30.119	1936.192	1987.639
330.300	28.940	1930.353	1968.735
331.314	25.148	1920.399	1917.672
332.329	24.756	1919.929	1912.762
333.343	28.213	1926.868	1956.663
334.358	30.114	1927.384	1977.365
335.373	30.371	1925.718	1978.164
336.387	30.430	1924.027	1976.820
337.402	30.741	1923.219	1979.080
338.416	30.431	1921.841	1974.111
339.431	30.266	1920.585	1970.833
340.446	30.557	1918.597	1971.653
341.460	29.279	1912.975	1952.044
342.475	27.560	1907.727	1928.191
343.489	27.128	1904.994	1920.612
344.504	26.962	1903.461	1917.076
345.519	27.021	1901.188	1915.181
346.533	26.908	1898.954	1911.508
347.548	26.867	1898.622	1910.514
348.562	27.045	1898.069	1911.609
349.577	26.897	1896.026	1907.754
350.592	26.397	1895.031	1901.249
351.606	26.369	1893.818	1899.503
352.621	26.464	1891.655	1898.108
353.635	27.687	1894.414	1913.555
354.650	28.926	1895.220	1927.201
355.665	29.439	1895.325	1932.483
356.679	29.854	1895.016	1936.296
357.694	30.008	1893.601	1936.244
358.708	30.167	1891.708	1935.748
359.723	28.997	1885.517	1916.933
360.738	25.266	1876.851	1868.918
361.752	25.598	1879.138	1874.456
362.767	28.892	1884.209	1913.814
363.781	29.705	1883.307	1921.168
364.796	29.699	1881.334	1918.860
365.810	29.680	1882.527	1919.647
366.825	29.981	1881.540	1921.555
367.840	30.069	1880.059	1920.726
368.854	29.504	1877.086	1911.578
369.869	28.059	1871.442	1890.599
370.883	26.737	1867.868	1873.043
371.898	26.273	1865.182	1865.304
372.913	26.409	1865.193	1866.511
373.927	26.860	1864.088	1869.849
374.942	26.901	1862.576	1868.536
375.956	26.934	1860.761	1866.832
376.971	26.740	1857.842	1861.680
377.986	26.455	1855.409	1856.076
379.000	26.839	1856.432	1860.841
380.015	28.732	1860.488	1884.231
381.029	30.225	1860.465	1899.362
382.044	30.405	1860.074	1900.585
383.059	30.684	1858.370	1901.479
384.073	30.490	1856.824	1897.680
385.088	29.955	1854.493	1889.586
386.102	29.813	1852.368	1885.737
387.117	29.861	1850.283	1883.883
388.132	29.785	1849.630	1882.210
389.146	28.695	1846.621	1867.789
390.161	25.162	1837.063	1821.893
391.175	24.845	1836.694	1818.075
392.190	28.269	1839.690	1855.772
393.205	29.318	1839.711	1866.255
394.219	29.636	1840.135	1869.695
395.234	29.890	1838.755	1870.643
396.248	29.945	1836.777	1868.966
397.263	29.926	1834.660	1866.394
398.278	29.821	1832.643	1863.058
399.292	29.609	1832.526	1860.576
400.307	29.838	1831.906	1862.041
401.321	29.709	1828.018	1856.560
402.336	27.679	1822.233	1830.010
403.350	26.624	1819.192	1816.107
404.365	27.119	1819.477	1821.166
405.380	27.477	1818.125	1823.202
406.394	27.070	1816.043	1816.797
407.409	26.581	1813.978	1809.602
408.423	26.570	1811.678	1806.981
409.438	26.714	1811.796	1808.334
410.453	28.009	1813.852	1823.162
411.467	28.948	1814.758	1833.268
412.482	29.653	1814.834	1840.187
413.496	29.987	1814.018	1842.480
414.511	29.730	1811.914	1837.549
415.526	29.772	1810.490	1836.302
416.540	30.334	1809.073	1840.256
417.555	30.081	1808.318	1836.748
418.569	29.344	1807.429	1828.279
419.584	29.560	1807.146	1829.929
420.599	29.856	1806.703	1832.209
421.613	29.767	1805.225	1829.597
422.628	29.808	1804.239	1828.786
423.642	30.073	1802.238	1829.176
424.657	29.938	1800.322	1825.674
425.672	29.359	1796.860	1816.209
426.686	29.567	1796.350	1817.541
427.701	29.834	1796.253	1819.864
428.715	30.045	1794.949	1820.407
429.730	30.216	1794.492	1821.410
430.745	30.090	1793.238	1818.677
431.759	29.310	1789.513	1807.004
432.774	27.651	1784.501	1785.411
433.788	25.336	1778.461	1756.428
434.803	24.401	1776.333	1744.923
435.818	24.290	1775.968	1743.264
436.832	24.328	1775.339	1742.816
437.847	23.370	1766.533	1724.594
438.861	13.460	1738.766	1601.381
439.876	2.567	1718.179	1477.098
440.890	0.498	1713.622	1452.992
441.905	0.222	1712.195	1448.947
442.920	0.207	1711.031	1447.641
443.934	0.191	1709.391	1445.922
444.949	0.165	1707.876	1444.223
445.963	0.259	1706.760	1444.009
446.978	0.193	1707.018	1443.422
447.993	0.129	1705.336	1441.210
449.007	0.134	1702.898	1439.024
450.022	0.230	1700.574	1437.804
451.036	0.213	1699.954	1436.944
452.051	0.733	1702.771	1444.148
453.066	9.093	1725.554	1544.397
454.080	20.525	1744.544	1672.393
455.095	23.463	1748.364	1704.278
456.109	23.757	1748.745	1707.291
457.124	23.741	1747.268	1705.491
458.139	23.650	1746.161	1703.329
459.153	23.688	1745.661	1703.001
460.168	23.788	1744.127	1702.267
461.182	23.924	1742.878	1702.152
462.197	24.010	1741.496	1701.427
463.212	24.156	1740.845	1701.984
464.226	24.327	1739.295	1701.904
465.241	24.224	1737.475	1698.936
466.255	24.088	1736.404	1696.379
467.270	23.970	1735.052	1693.729
468.285	24.254	1734.495	1695.697
469.299	24.391	1733.419	1695.758
470.314	24.513	1731.013	1694.361
471.328	24.410	1730.237	1692.416
472.343	24.491	1729.185	1691.956
473.358	24.473	1727.878	1690.302
474.372	24.430	1726.878	1688.711
475.387	24.512	1725.400	1687.842
476.401	24.547	1723.570	1686.182
477.416	24.246	1721.810	1681.405
478.430	23.981	1721.345	1678.243
479.445	24.423	1720.666	1681.571
480.460	24.851	1718.865	1683.657
481.474	24.732	1718.214	1681.692
482.489	24.541	1716.135	1677.645
483.503	24.020	1713.720	1670.172
484.518	24.010	1711.837	1668.043
485.533	24.003	1711.351	1667.310
486.547	23.816	1709.046	1663.102
487.562	23.500	1706.102	1657.068
488.576	23.583	1706.092	1657.641
489.591	23.827	1705.476	1659.133
490.606	24.156	1704.557	1661.125
491.620	24.215	1701.882	1658.870
492.635	23.849	1699.481	1652.916
493.649	23.403	1699.121	1648.195
494.664	23.867	1699.183	1652.395
495.679	24.561	1698.246	1657.765
496.693	24.469	1697.196	1655.681
497.708	24.163	1695.886	1651.352
498.722	23.791	1693.390	1645.264
499.737	23.911	1692.017	1644.853
500.752	24.038	1690.901	1644.753
501.766	24.313	1689.445	1645.691
502.781	24.197	1687.572	1642.595
503.795	24.239	1687.062	1642.285
504.810	24.147	1685.794	1640.009
505.825	23.950	1684.658	1636.882
506.839	23.892	1682.484	1634.036
507.854	23.939	1680.845	1632.684
508.868	23.683	1679.910	1629.218
509.883	23.536	1678.390	1626.199
510.898	23.433	1676.091	1622.825
511.912	23.525	1675.190	1622.605
512.927	23.556	1673.886	1621.435
513.941	23.372	1672.995	1618.683
514.956	23.590	1671.189	1618.743
515.971	23.623	1669.233	1616.960
516.985	23.518	1668.819	1615.403
518.000	23.414	1667.541	1613.024
519.014	23.175	1666.095	1609.247
520.029	23.210	1663.250	1606.628
521.043	23.153	1662.860	1605.532
522.058	23.295	1663.063	1606.833
523.073	23.490	1661.327	1606.737
524.087	23.189	1659.726	1602.264
525.102	23.247	1658.637	1601.541
526.116	23.705	1658.564	1605.450
527.131	24.049	1657.402	1607.254
528.146	23.637	1655.688	1601.661
529.160	23.501	1654.185	1598.780
530.175	23.475	1653.422	1597.619
531.189	23.401	1651.653	1595.049
532.204	23.309	1650.021	1592.450
533.219	23.634	1650.347	1595.512
534.233	24.079	1649.843	1598.850
535.248	23.845	1647.720	1594.491
536.262	23.210	1645.550	1586.479
537.277	23.130	1644.773	1584.825
538.292	23.414	1643.805	1586.257
539.306	23.477	1642.260	1585.141
540.321	23.210	1640.651	1580.999
541.335	23.027	1639.029	1577.608
542.350	23.265	1637.325	1577.913
543.365	23.375	1635.651	1577.097
544.379	23.295	1633.948	1574.544
545.394	23.171	1632.828	1572.177
546.408	23.325	1632.786	1573.320
547.423	24.015	1633.002	1579.498
548.438	24.066	1632.351	1579.136
549.452	23.885	1629.547	1574.625
550.467	23.682	1627.895	1571.027
551.481	23.435	1627.689	1568.444
552.496	23.315	1625.676	1565.252
553.511	23.144	1623.500	1561.459
554.525	23.071	1622.553	1559.711
555.540	23.114	1621.805	1559.183
556.554	23.097	1620.548	1557.637
557.569	23.215	1618.796	1556.815
558.583	23.330	1617.841	1556.719
559.598	23.281	1616.596	1554.908
560.613	23.096	1616.032	1552.548
561.627	23.067	1614.177	1550.326
562.642	22.760	1611.997	1545.340
563.656	22.617	1610.130	1542.109
564.671	22.565	1609.293	1540.667
565.686	22.592	1607.866	1539.354
566.700	22.827	1606.714	1540.127
567.715	22.795	1605.829	1538.813
568.729	22.855	1603.955	1537.355
569.744	22.911	1603.110	1536.850
570.759	22.968	1602.163	1536.257
571.773	23.076	1600.818	1535.727
572.788	22.820	1599.713	1532.252
573.802	22.885	1597.640	1530.651
574.817	22.716	1596.275	1527.687
575.832	22.497	1594.951	1524.333
576.846	22.705	1593.756	1524.820
577.861	22.994	1592.402	1525.844
578.875	22.918	1592.199	1524.809
579.890	22.907	1590.439	1522.842
580.905	22.693	1589.660	1520.067
581.919	22.661	1589.056	1519.032
582.934	22.667	1587.566	1517.471
583.948	22.532	1586.686	1515.281
584.963	22.580	1585.701	1514.579
585.978	22.948	1584.813	1516.725
586.992	22.800	1584.061	1514.547
588.007	22.608	1581.896	1510.639
589.021	22.715	1580.745	1510.285
590.036	22.823	1579.700	1510.033
591.051	22.782	1578.795	1508.629
592.065	22.770	1576.306	1505.968
593.080	22.594	1575.198	1503.221
594.094	22.693	1573.656	1502.418
595.109	23.008	1573.175	1504.476
596.123	23.487	1572.208	1507.470
597.138	23.269	1570.381	1503.670
598.153	22.907	1568.576	1498.680
599.167	22.788	1567.903	1496.837
600.182	22.848	1566.838	1496.156
601.196	22.624	1565.495	1492.785
602.211	22.743	1564.178	1492.364
603.226	22.459	1562.493	1488.165
604.240	22.629	1561.036	1488.042
605.255	22.591	1559.567	1486.141
606.269	22.535	1559.046	1484.998
607.284	22.738	1557.324	1484.891
608.299	22.529	1556.374	1482.043
609.313	22.694	1555.821	1482.732
610.328	22.589	1554.179	1480.106
611.342	22.519	1553.244	1478.447
612.357	22.410	1551.792	1475.973
613.372	22.445	1550.423	1474.789
614.386	22.528	1549.290	1474.234
615.401	22.387	1549.335	1472.906
616.415	22.254	1547.724	1470.089
617.430	22.206	1546.163	1468.025
618.445	22.150	1545.367	1466.622
619.459	22.204	1544.184	1465.779
620.474	22.429	1543.984	1467.299
621.488	22.706	1543.034	1468.538
622.503	22.927	1541.069	1468.335
623.518	22.504	1540.326	1463.919
624.532	22.331	1538.354	1460.426
625.547	22.290	1537.024	1458.644
626.561	22.183	1535.511	1456.144
627.576	21.996	1534.888	1453.829
628.591	22.306	1534.196	1455.573
629.605	22.520	1533.750	1456.756
630.620	22.548	1532.612	1455.731
631.634	22.724	1531.588	1456.046
632.649	22.749	1530.269	1454.830
633.663	22.592	1528.220	1451.406
634.678	22.294	1526.488	1447.119
635.693	22.025	1525.501	1443.788
636.707	22.065	1523.348	1441.913
637.722	21.883	1522.050	1439.007
638.736	22.051	1521.173	1439.392
639.751	22.148	1520.176	1439.074
640.766	22.282	1519.035	1438.924
641.780	22.167	1518.050	1436.871
642.795	22.261	1517.725	1437.167
643.809	22.365	1517.266	1437.413
644.824	22.275	1516.218	1435.506
645.839	22.442	1514.999	1435.549
646.853	22.453	1513.732	1434.274
647.868	22.314	1511.334	1430.691
648.882	22.292	1510.768	1429.801
649.897	22.429	1509.472	1429.526
650.912	22.349	1507.534	1426.867
651.926	22.250	1506.897	1425.288
652.941	22.314	1506.234	1425.007
653.955	22.476	1504.584	1424.592
654.970	22.533	1502.571	1422.975
655.985	22.398	1501.342	1420.554
656.999	22.422	1499.693	1419.012
658.014	22.326	1498.676	1417.105
659.028	22.410	1497.478	1416.483
660.043	22.271	1498.020	1415.704
661.058	22.274	1495.544	1413.213
662.072	22.353	1494.105	1412.321
663.087	22.264	1493.511	1410.878
664.101	22.398	1492.939	1411.247
665.116	22.322	1491.979	1409.559
666.131	22.226	1490.283	1407.018
667.145	22.401	1488.584	1406.647
668.160	22.156	1487.511	1403.497
669.174	22.109	1485.998	1401.527
670.189	22.159	1484.954	1400.773
671.204	22.201	1484.608	1400.615
672.218	22.141	1483.951	1399.348
673.233	22.168	1481.960	1397.517
674.247	22.028	1480.434	1394.799
675.262	21.852	1479.556	1392.397
676.276	22.118	1478.542	1393.395
677.291	22.172	1477.767	1392.930
678.306	22.390	1477.309	1394.071
679.320	22.345	1475.336	1391.683
680.335	22.090	1474.663	1388.852
681.349	22.178	1473.328	1388.130
682.364	22.104	1472.390	1386.494
683.379	22.017	1471.387	1384.690
684.393	21.889	1470.195	1382.389
685.408	21.883	1469.014	1381.071
686.422	22.060	1468.029	1381.372
687.437	21.950	1467.433	1379.777
688.452	21.725	1465.974	1376.463
689.466	21.912	1463.935	1375.860
690.481	21.932	1463.040	1375.014
691.495	21.996	1463.046	1375.357
692.510	22.420	1462.935	1378.423
693.525	22.622	1460.851	1377.883
694.539	22.307	1459.951	1374.400
695.554	22.015	1458.994	1371.043
696.568	21.743	1457.261	1367.114
697.583	21.811	1455.891	1366.204
698.598	21.741	1454.887	1364.548
699.612	21.818	1453.850	1364.013
700.627	21.682	1452.912	1361.911
701.641	22.075	1451.364	1363.356
702.656	21.972	1450.359	1361.449
703.671	21.908	1449.600	1360.072
704.685	21.979	1449.075	1359.974
705.700	21.947	1448.151	1358.692
706.714	21.987	1446.057	1356.881
707.729	21.948	1445.520	1355.909
708.744	22.059	1444.069	1355.247
709.758	22.026	1442.800	1353.636
710.773	22.072	1441.929	1353.011
711.787	22.142	1441.043	1352.564
712.802	22.181	1439.754	1351.490
713.816	22.310	1437.867	1350.551
714.831	22.006	1437.500	1347.705
715.846	21.855	1436.108	1345.075
716.860	21.878	1435.138	1344.182
717.875	21.819	1433.822	1342.334
718.889	22.003	1432.166	1342.034
719.904	21.922	1431.197	1340.346
720.919	21.880	1430.334	1339.050
721.933	21.699	1429.706	1336.914
722.948	21.814	1428.544	1336.554
723.962	21.714	1427.338	1334.502
724.977	21.688	1426.013	1332.900
725.992	21.722	1425.018	1332.073
727.006	21.901	1423.621	1331.973
728.021	21.847	1421.948	1329.837
729.035	21.860	1421.404	1329.264
730.050	21.713	1420.544	1327.182
731.065	21.776	1419.486	1326.519
732.079	21.800	1417.997	1325.152
733.094	21.666	1417.388	1323.406
734.108	21.923	1415.913	1323.814
735.123	21.932	1414.100	1322.034
736.138	21.925	1413.396	1321.159
737.152	21.761	1412.443	1318.870
738.167	21.738	1411.257	1317.434
739.181	21.724	1410.821	1316.761
740.196	21.880	1408.994	1316.073
741.211	21.827	1408.333	1314.903
742.225	21.840	1407.092	1313.686
743.240	21.637	1406.025	1311.005
744.254	21.694	1404.466	1309.817
745.269	21.554	1403.502	1307.717
746.284	21.448	1403.552	1306.812
747.298	21.616	1402.450	1306.887
748.313	21.907	1401.872	1308.375
749.327	22.063	1401.182	1308.743
750.342	22.432	1400.594	1310.796
751.356	22.414	1399.995	1309.942
752.371	22.339	1398.036	1307.393
753.386	21.917	1395.935	1302.127
754.400	21.710	1394.926	1299.489
755.415	21.666	1393.911	1298.055
756.429	21.694	1392.340	1296.645
757.444	21.821	1391.155	1296.331
758.459	21.811	1390.035	1295.057
759.473	21.659	1389.222	1293.019
760.488	21.637	1388.030	1291.593
761.502	21.525	1387.055	1289.699
762.517	21.632	1385.656	1289.038
763.532	21.696	1384.748	1288.513
764.546	21.749	1384.110	1288.155
765.561	21.874	1383.586	1288.433
766.575	22.003	1383.189	1288.868
767.590	22.230	1381.800	1289.091
768.605	21.934	1380.458	1285.505
769.619	21.917	1378.417	1283.321
770.634	21.830	1376.638	1280.875
771.648	21.580	1376.198	1278.477
772.663	21.558	1375.127	1277.165
773.678	21.724	1374.155	1277.326
774.692	21.542	1373.976	1275.673
775.707	21.607	1373.257	1275.330
776.721	21.650	1372.013	1274.338
777.736	21.532	1370.845	1272.235
778.751	21.657	1369.619	1271.863
779.765	21.758	1368.159	1271.090
780.780	21.555	1368.159	1269.454
781.794	21.774	1367.410	1270.208
782.809	21.582	1366.251	1267.577
783.824	21.550	1364.738	1265.788
784.838	21.519	1364.475	1265.172
785.853	22.079	1363.535	1268.212
786.867	21.963	1363.324	1267.024
787.882	21.730	1362.070	1264.019
788.897	21.684	1361.134	1262.666
789.911	21.494	1359.340	1259.471
790.926	21.471	1357.650	1257.590
791.940	21.508	1356.158	1256.327
792.955	21.333	1355.325	1254.137
793.969	21.268	1355.032	1253.253
794.984	21.378	1353.885	1252.829
795.999	21.221	1353.214	1250.932
797.013	21.616	1350.686	1251.285
798.028	21.595	1349.263	1249.662
799.042	21.356	1348.816	1247.387
800.057	21.555	1347.626	1247.564
801.072	21.563	1345.736	1245.720
802.086	21.417	1345.406	1244.218
803.101	21.321	1344.441	1242.497
804.115	21.358	1343.771	1241.994
805.130	21.249	1342.815	1240.178
806.145	21.356	1341.217	1239.322
807.159	21.432	1339.247	1237.888
808.174	21.533	1338.597	1237.861
809.188	21.490	1337.839	1236.705
810.203	21.731	1335.701	1236.288
811.218	21.682	1334.919	1235.074
812.232	21.918	1333.846	1235.603
813.247	21.877	1333.296	1234.653
814.261	21.717	1332.335	1232.483
815.276	21.642	1330.431	1230.044
816.291	21.395	1330.239	1227.977
817.305	21.344	1328.430	1225.806
818.320	21.440	1326.958	1224.977
819.334	21.389	1325.731	1223.339
820.349	21.322	1324.623	1221.693
821.364	21.468	1322.346	1220.470
822.378	21.421	1321.426	1219.147
823.393	21.342	1320.070	1217.198
824.407	21.192	1319.770	1215.730
825.422	21.312	1318.772	1215.503
826.437	21.288	1317.791	1214.287
827.451	21.433	1316.136	1213.627
828.466	21.753	1315.010	1214.670
829.480	22.095	1313.628	1215.626
830.495	21.724	1311.620	1211.047
831.509	21.444	1310.443	1207.870
832.524	21.424	1309.676	1206.880
833.539	21.399	1308.298	1205.297
834.553	21.280	1307.129	1203.247
835.568	21.302	1305.786	1202.022
836.582	21.326	1305.110	1201.425
837.597	21.313	1303.827	1200.009
838.612	21.424	1302.248	1199.174
839.626	21.562	1300.857	1198.702
840.641	21.621	1300.240	1198.398
841.655	21.672	1300.237	1198.597
842.670	21.883	1299.660	1199.377
843.685	22.000	1298.399	1198.871
844.699	21.874	1296.926	1196.500
845.714	21.671	1295.138	1193.323
846.728	21.440	1294.612	1191.113
847.743	21.369	1293.066	1189.061
848.758	21.356	1291.631	1187.510
849.772	21.311	1290.606	1186.118
850.787	21.283	1289.148	1184.448
851.801	21.168	1287.856	1182.337
852.816	21.285	1286.708	1181.933
853.831	21.269	1285.258	1180.353
854.845	21.233	1283.263	1178.139
855.860	21.118	1282.318	1176.346
856.874	21.222	1281.401	1176.067
857.889	21.556	1280.538	1177.394
858.904	21.687	1280.199	1177.831
859.918	21.815	1278.346	1176.849
860.933	21.896	1276.848	1175.870
861.947	21.814	1275.799	1174.213
862.962	21.636	1274.513	1171.692
863.977	21.398	1273.532	1169.050
864.991	21.354	1272.029	1167.238
866.006	21.155	1272.029	1165.759
867.020	21.225	1270.370	1164.568
868.035	21.144	1269.624	1163.205
869.049	21.177	1267.916	1161.722
870.064	21.375	1267.133	1162.188
871.079	21.233	1266.458	1160.482
872.093	21.397	1265.790	1160.823
873.108	21.381	1264.910	1159.773
874.122	21.515	1263.608	1159.330
875.137	21.623	1263.666	1159.963
876.152	21.739	1262.506	1159.536
877.166	21.850	1260.402	1158.197
878.181	21.409	1259.210	1154.043
879.195	21.370	1258.520	1153.013
880.210	21.269	1257.428	1151.201
881.225	21.268	1256.404	1150.122
882.239	21.151	1255.546	1148.427
883.254	21.313	1254.187	1148.112
884.268	21.429	1253.129	1147.777
885.283	21.373	1252.573	1146.759
886.298	21.181	1250.757	1143.691
887.312	21.351	1249.435	1143.467
888.327	21.275	1248.661	1142.119
889.341	21.209	1247.875	1140.830
890.356	21.106	1247.429	1139.611
891.371	21.290	1247.466	1140.717
892.385	21.204	1246.470	1139.108
893.400	21.193	1245.425	1137.943
894.414	21.330	1243.488	1136.931
895.429	21.565	1242.407	1137.344
896.444	21.912	1242.082	1139.176
897.458	22.422	1240.775	1141.165
898.473	21.925	1239.835	1136.925
899.487	21.569	1239.057	1133.756
900.502	21.441	1236.714	1130.648
901.517	21.352	1235.263	1128.608
902.531	21.309	1234.727	1127.707
903.546	21.332	1233.756	1126.832
904.560	21.416	1232.849	1126.414
905.575	21.314	1232.341	1125.155
906.589	21.405	1231.074	1124.447
907.604	21.466	1230.639	1124.312
