DTS Sentinel unit serial number:	SN409020Multiplexer serial number:	ORYXHardware model number:	OX4-SRSoftware version number:	ORYX F/W v3.00 Oryx Data Collector v3.7.2.0data status	okinstallation	HaddamTimeLapsedifferential loss correction	single-endedforward channel	channel 3reverse channel	N/Adate	2011/06/21time	19:46:17forward acquisition time	30.00reverse acquisition time	0.00gamma	498.7831k internal	0.1793k external	0.1793temperature offset calibration	1.0074default loss term (dB/km)	0.3790temperature slope calibration	1.3530multiplexer offset coefficient	1.0000multiplexer slope coefficient	1.0000fibre end	0.00T internal ref (°C)	33.25T ext. ref 1 (°C)	24.85T ext. ref 2 (°C)	0.23length (m)	temperature (°C)	Stokes	anti-Stokes-747.200	-61.284	-0.093	0.051
-746.185	-200.000	0.071	0.519
-745.171	-28.576	0.249	0.186
-744.156	-69.628	0.068	0.034
-743.142	-132.520	0.157	0.026
-742.127	254.890	0.123	0.275
-741.112	18.516	-0.158	-0.163
-740.098	235.955	-0.333	0.717
-739.083	-141.687	0.472	0.061
-738.069	528.808	0.182	0.559
-737.054	-72.983	-0.420	-0.199
-736.039	476.544	-0.163	-0.479
-735.025	-117.685	0.454	0.105
-734.010	-101.272	-0.235	0.074
-732.996	219.945	-0.164	-0.343
-731.981	-19.324	-0.035	0.028
-730.966	-104.030	0.204	0.061
-729.952	38.004	0.174	-0.201
-728.937	-55.077	-0.371	-0.216
-727.923	217.793	-0.088	-0.183
-726.908	-46.981	-0.038	0.024
-725.894	56.454	0.145	0.182
-724.879	212.126	0.106	-0.218
-723.864	-96.243	-0.332	0.113
-722.850	-200.000	-0.036	0.263
-721.835	585.143	0.120	0.385
-720.821	-153.115	0.716	-0.064
-719.806	229.562	-0.086	-0.183
-718.791	78.716	-0.220	-0.306
-717.777	-200.000	-0.060	0.432
-716.762	-109.130	0.194	0.053
-715.748	335.223	0.057	0.144
-714.733	564.268	0.034	-0.107
-713.718	136.278	0.173	-0.293
-712.704	-169.939	-0.454	0.021
-711.689	26.712	-0.227	0.246
-710.675	185.394	0.191	0.368
-709.660	-6.340	-0.202	0.179
-708.645	121.885	0.008	-0.013
-707.631	166.446	-0.115	0.211
-706.616	31.100	0.312	-0.347
-705.602	88.994	-0.144	0.208
-704.587	-137.555	-0.469	0.068
-703.572	-181.959	-0.366	0.009
-702.558	800.000	-0.130	-0.546
-701.543	-31.375	-0.493	0.359
-700.529	-51.949	0.213	-0.128
-699.514	2.999	0.147	0.138
-698.499	-153.806	0.917	0.080
-697.485	-106.036	-0.193	0.056
-696.470	76.585	0.368	-0.506
-695.456	-122.257	-0.344	-0.072
-694.441	-200.000	0.021	0.361
-693.426	-100.316	-0.378	-0.121
-692.412	1.586	0.350	-0.326
-691.397	252.762	0.260	-0.576
-690.383	-68.784	-0.388	-0.194
-689.368	-13.353	0.351	0.295
-688.354	-150.613	-0.082	0.008
-687.339	-85.162	0.353	0.142
-686.324	188.040	0.188	0.364
-685.310	350.194	-0.114	0.293
-684.295	-102.147	-0.579	-0.179
-683.281	-190.929	0.327	-0.004
-682.266	412.005	-0.094	-0.260
-681.251	-134.682	-0.196	0.031
-680.237	90.490	-0.076	-0.111
-679.222	90.716	-0.057	-0.082
-678.208	-53.774	0.352	-0.207
-677.193	-200.000	-0.003	0.345
-676.178	40.446	-0.175	0.204
-675.164	539.863	-0.121	-0.374
-674.149	-124.652	0.269	-0.053
-673.135	800.000	0.053	-0.208
-672.120	554.160	-0.105	-0.328
-671.105	-148.491	0.091	0.009
-670.091	59.938	-0.329	-0.421
-669.076	-77.753	0.563	-0.251
-668.062	6.718	0.432	-0.416
-667.047	-17.797	0.220	-0.178
-666.032	-75.602	0.407	0.186
-665.018	-153.917	0.199	-0.017
-664.003	-82.075	-0.386	-0.162
-662.989	78.697	-0.103	0.143
-661.974	-98.593	-0.384	-0.126
-660.959	9.786	-0.532	-0.521
-659.945	-39.509	0.159	0.108
-658.930	423.472	-0.040	-0.111
-657.916	-200.000	-0.017	0.472
-656.901	498.046	0.069	0.208
-655.886	-200.000	0.009	-0.067
-654.872	-148.451	-0.090	-0.009
-653.857	800.000	-0.050	-0.278
-652.843	800.000	0.061	0.338
-651.828	-135.553	-0.084	-0.013
-650.814	-73.668	-0.141	-0.066
-649.799	800.000	0.111	-0.474
-648.784	12.222	0.341	-0.339
-647.770	240.331	0.039	-0.084
-646.755	-200.000	-0.015	0.193
-645.741	-52.530	0.253	0.150
-644.726	-146.732	0.217	-0.024
-643.711	728.580	0.130	0.451
-642.697	176.985	0.132	-0.249
-641.682	-176.021	-0.199	0.007
-640.668	9.438	0.114	-0.111
-639.653	-122.252	-0.396	0.083
-638.638	-156.141	-0.527	-0.042
-637.624	-91.762	0.131	0.048
-636.609	-149.889	-0.232	-0.023
-635.595	-200.000	0.046	0.307
-634.580	-61.906	0.061	0.033
-633.565	-59.629	0.332	-0.184
-632.551	-12.067	0.277	0.234
-631.536	226.612	-0.141	0.297
-630.522	-132.807	-0.316	0.052
-629.507	-200.000	-0.004	0.245
-628.492	800.000	0.049	-0.222
-627.478	-128.525	0.347	0.063
-626.463	136.689	-0.100	0.170
-625.449	-18.193	-0.231	-0.186
-624.434	131.075	-0.176	-0.292
-623.419	179.587	0.253	-0.479
-622.405	30.126	0.072	-0.079
-621.390	-5.938	-0.364	-0.321
-620.376	129.529	0.148	-0.245
-619.361	-144.234	0.291	0.035
-618.346	-107.032	-0.237	-0.067
-617.332	-65.217	-0.481	-0.249
-616.317	-80.124	0.446	0.192
-615.303	412.491	-0.134	0.370
-614.288	35.583	-0.298	0.338
-613.273	-200.000	0.000	-0.075
-612.259	42.964	-0.028	-0.033
-611.244	308.083	0.110	-0.267
-610.230	-200.000	0.044	0.265
-609.215	-86.162	-0.501	-0.198
-608.201	493.547	-0.042	-0.125
-607.186	190.083	0.152	0.295
-606.171	249.195	0.068	0.148
-605.157	-200.000	0.011	0.210
-604.142	136.715	0.239	-0.404
-603.128	-126.116	-0.495	-0.095
-602.113	326.060	-0.111	-0.275
-601.098	-25.694	-0.288	-0.219
-600.084	-40.110	-0.450	-0.301
-599.069	769.498	-0.183	-0.647
-598.055	581.245	0.075	-0.238
-597.040	129.008	-0.077	0.127
-596.025	10.669	-0.234	0.230
-595.011	221.113	0.079	-0.164
-593.996	800.000	0.066	-0.318
-592.982	-20.001	-0.406	0.323
-591.967	-138.246	-0.343	-0.048
-590.952	-200.000	0.067	0.565
-589.938	122.491	0.057	0.093
-588.923	-44.856	-0.201	0.129
-587.909	-79.913	-0.396	0.171
-586.894	89.332	-0.121	0.174
-585.879	79.608	0.224	-0.311
-584.865	249.820	0.054	-0.119
-583.850	-34.049	-0.579	-0.410
-582.836	-200.000	-0.067	-0.524
-581.821	-200.000	-0.050	-0.499
-580.806	-36.582	-0.205	-0.142
-579.792	48.044	-0.103	0.124
-578.777	-200.000	0.052	0.521
-577.763	431.284	0.114	0.320
-576.748	-94.653	-0.314	-0.109
-575.733	-149.140	-0.325	-0.033
-574.719	-200.000	0.013	0.188
-573.704	301.933	0.185	0.443
-572.690	158.723	0.088	-0.158
-571.675	24.541	-0.271	-0.289
-570.661	-85.985	0.409	-0.162
-569.646	513.200	-0.080	-0.242
-568.631	-137.672	0.404	0.058
-567.617	296.387	0.051	-0.121
-566.602	-79.222	0.197	-0.086
-565.588	-32.771	-0.152	0.108
-564.573	711.169	-0.209	0.716
-563.558	-26.902	-0.174	0.131
-562.544	-137.665	0.366	-0.052
-561.529	3.497	0.242	-0.227
-560.515	-109.987	0.594	-0.159
-559.500	176.149	0.197	-0.369
-558.485	57.182	0.179	-0.225
-557.471	341.161	0.024	0.061
-556.456	118.900	0.317	0.506
-555.442	104.751	0.112	-0.170
-554.427	192.447	0.179	0.348
-553.412	154.881	0.127	-0.225
-552.398	-29.509	-0.148	-0.108
-551.383	-37.319	0.036	0.025
-550.369	51.962	-0.384	-0.471
-549.354	-2.569	-0.200	-0.181
-548.339	-200.000	-0.012	0.373
-547.325	-121.235	0.491	-0.105
-546.310	-24.181	0.105	0.081
-545.296	350.835	0.113	0.289
-544.281	-65.580	-0.308	-0.158
-543.266	-177.560	0.510	-0.016
-542.252	-69.246	-0.463	-0.228
-541.237	-200.000	0.012	0.325
-540.223	-69.198	-0.187	0.092
-539.208	-60.046	-0.202	0.111
-538.193	-119.103	0.209	0.047
-537.179	-74.369	0.231	0.107
-536.164	62.460	0.166	-0.214
-535.150	800.000	0.070	-0.379
-534.135	36.697	-0.044	-0.050
-533.121	-153.520	0.270	-0.024
-532.106	642.947	0.076	-0.249
-531.091	-200.000	-0.029	0.555
-530.077	296.766	0.238	0.563
-529.062	-138.171	-0.409	0.058
-528.048	67.838	-0.073	-0.097
-527.033	-85.860	0.378	0.150
-526.018	-30.935	0.333	-0.242
-525.004	-200.000	-0.031	-0.216
-523.989	-200.000	0.025	-0.718
-522.975	297.350	0.084	-0.198
-521.960	228.389	0.063	-0.133
-520.945	-200.000	-0.004	-0.079
-519.931	800.000	-0.032	-0.145
-518.916	556.382	-0.104	0.325
-517.902	157.269	-0.107	-0.191
-516.887	-141.420	-0.311	0.040
-515.872	103.293	0.168	-0.253
-514.858	-145.079	0.750	-0.087
-513.843	106.017	0.045	-0.069
-512.829	-121.216	-0.079	-0.017
-511.814	-61.430	0.560	-0.302
-510.799	510.904	-0.125	-0.376
-509.785	-172.229	0.399	-0.016
-508.770	-200.000	-0.014	0.213
-507.756	-53.937	0.504	-0.295
-506.741	-200.000	0.000	-0.127
-505.726	8.840	0.049	0.048
-504.712	-200.000	0.022	0.231
-503.697	-27.976	0.099	0.074
-502.683	686.979	0.076	-0.255
-501.668	-148.388	-0.473	0.049
-500.653	-183.842	-0.237	0.005
-499.639	32.898	0.194	-0.216
-498.624	-64.039	0.140	-0.073
-497.610	-200.000	0.070	-0.430
-496.595	-186.773	-0.713	-0.013
-495.581	-37.302	0.350	-0.240
-494.566	-118.841	-0.352	0.079
-493.551	-63.471	-0.345	-0.182
-492.537	-200.000	0.027	0.617
-491.522	-60.244	0.101	-0.055
-490.508	-22.048	0.257	-0.201
-489.493	-153.220	-0.599	-0.053
-488.478	50.342	0.292	-0.355
-487.464	17.216	0.215	0.219
-486.449	201.283	-0.153	-0.304
-485.435	-200.000	-0.352	0.001
-484.420	-155.296	0.429	0.035
-483.405	438.708	0.071	0.201
-482.391	-70.508	0.168	-0.081
-481.376	-40.784	0.306	0.203
-480.362	21.745	-0.243	0.254
-479.347	14.261	0.089	-0.089
-478.332	128.260	0.150	-0.245
-477.318	-109.918	0.379	0.101
-476.303	568.101	-0.077	-0.242
-475.289	-177.359	0.579	-0.018
-474.274	253.933	0.239	-0.526
-473.259	794.010	-0.145	-0.515
-472.245	-83.495	-0.384	0.157
-471.230	-101.727	-0.364	-0.112
-470.216	-80.566	-0.321	0.137
-469.201	-78.991	0.428	-0.186
-468.186	-73.875	0.385	-0.179
-467.172	32.078	0.360	-0.398
-466.157	163.757	-0.117	0.211
-465.143	-152.576	0.408	-0.037
-464.128	-128.732	0.326	0.058
-463.113	-57.528	-0.258	-0.145
-462.099	-45.708	0.123	0.078
-461.084	636.749	0.019	0.062
-460.070	174.323	-0.070	0.131
-459.055	-200.000	0.031	0.348
-458.040	302.399	-0.115	0.275
-457.026	-117.362	-0.239	-0.055
-456.011	800.000	0.020	0.089
-454.997	22.768	0.451	-0.474
-453.982	83.176	-0.276	-0.386
-452.968	576.269	-0.017	-0.052
-451.953	-162.029	0.182	-0.012
-450.938	-58.589	-0.147	0.081
-449.924	771.161	-0.067	0.236
-448.909	800.000	0.010	-0.045
-447.895	-51.801	-0.328	-0.196
-446.880	-2.745	0.161	-0.144
-445.865	-76.590	0.732	0.328
-444.851	-133.299	-0.142	-0.023
-443.836	81.901	-0.108	0.150
-442.822	-197.675	-0.143	0.001
-441.807	-102.784	0.153	0.047
-440.792	-38.291	0.195	0.132
-439.778	-75.423	0.357	-0.162
-438.763	-81.237	-0.218	-0.092
-437.749	-14.965	-0.174	0.143
-436.734	90.711	-0.212	-0.305
-435.719	-100.975	0.040	0.012
-434.705	-149.286	0.172	-0.017
-433.690	-124.171	-0.283	-0.056
-432.676	16.810	0.259	-0.263
-431.661	-6.221	0.554	-0.484
-430.646	43.400	-0.177	-0.207
-429.632	-200.000	0.005	0.099
-428.617	-161.250	-0.269	-0.018
-427.603	9.833	-0.181	-0.175
-426.588	490.955	-0.098	-0.289
-425.573	-170.702	0.464	0.020
-424.559	-89.315	0.279	0.105
-423.544	-130.129	0.067	0.012
-422.530	-200.000	-0.034	-0.285
-421.515	134.953	-0.315	0.526
-420.500	-104.287	-0.300	-0.089
-419.486	-50.881	0.230	-0.138
-418.471	104.457	-0.079	-0.119
-417.457	332.114	0.099	0.246
-416.442	-11.028	0.302	-0.255
-415.428	800.000	0.049	-0.223
-414.413	-35.809	-0.437	-0.303
-413.398	800.000	-0.115	0.611
-412.384	-200.000	0.006	0.338
-411.369	-169.007	0.071	-0.003
-410.355	-137.680	-0.619	0.088
-409.340	-52.485	0.334	0.197
-408.325	-149.555	0.323	-0.032
-407.311	35.220	0.380	-0.427
-406.296	86.680	0.146	0.206
-405.282	-86.567	0.350	0.137
-404.267	307.077	-0.204	-0.489
-403.252	-200.000	-0.024	0.258
-402.238	-107.962	0.415	0.115
-401.223	19.503	-0.025	0.026
-400.209	89.618	-0.120	0.171
-399.194	-200.000	0.001	0.214
-398.179	-200.000	0.016	0.181
-397.165	255.209	0.098	0.216
-396.150	800.000	-0.065	0.295
-395.136	-58.093	-0.145	0.081
-394.121	-69.120	-0.104	0.051
-393.106	-81.940	-0.424	-0.176
-392.092	109.114	0.047	0.072
-391.077	127.228	0.092	-0.150
-390.063	-59.910	-0.383	-0.209
-389.048	20.600	0.354	0.367
-388.033	751.092	0.084	0.292
-387.019	164.389	-0.183	0.331
-386.004	-61.903	-0.226	0.120
-384.990	800.000	-0.137	0.496
-383.975	-200.000	-0.019	0.206
-382.960	-200.000	-0.026	0.349
-381.946	-200.000	-0.013	0.331
-380.931	800.000	-0.036	0.201
-379.917	-127.903	-0.474	0.086
-378.902	-188.393	-0.467	0.007
-377.888	-51.052	0.121	-0.073
-376.873	-200.000	0.025	0.194
-375.858	800.000	-0.066	0.256
-374.844	-200.000	-0.024	-0.296
-373.829	-117.588	0.177	0.040
-372.815	-191.501	-0.162	-0.002
-371.800	-72.869	-0.429	0.201
-370.785	-124.037	-0.227	0.045
-369.771	800.000	0.038	-0.188
-368.756	-33.644	0.290	0.204
-367.742	-200.000	0.004	0.104
-366.727	37.745	0.280	0.318
-365.712	-111.354	-0.209	-0.054
-364.698	-104.386	-0.150	-0.044
-363.683	-116.793	-0.548	0.127
-362.669	423.934	0.152	0.421
-361.654	-200.000	-0.056	0.549
-360.639	40.731	0.185	-0.213
-359.625	25.707	0.175	0.187
-358.610	-82.851	-0.237	0.097
-357.596	56.475	0.156	-0.194
-356.581	-38.808	-0.221	0.149
-355.566	504.983	-0.077	-0.230
-354.552	-40.645	-0.169	0.112
-353.537	102.062	0.316	0.473
-352.523	65.555	-0.219	0.284
-351.508	-200.000	0.039	0.371
-350.493	-122.344	-0.268	-0.055
-349.479	-78.478	-0.204	-0.089
-348.464	-200.000	0.030	-0.332
-347.450	35.376	0.557	0.625
-346.435	-116.860	0.480	-0.111
-345.420	-112.805	-0.065	0.016
-344.406	69.766	0.118	0.156
-343.391	-137.616	-0.314	0.045
-342.377	-133.144	0.221	-0.035
-341.362	-15.619	0.132	0.107
-340.348	-200.000	0.035	0.399
-339.333	800.000	0.102	0.494
-338.318	173.093	0.097	-0.180
-337.304	-65.686	0.098	-0.050
-336.289	118.400	-0.092	-0.146
-335.275	129.309	0.184	0.301
-334.260	-28.853	0.257	0.188
-333.245	298.196	-0.081	0.190
-332.231	68.974	0.268	-0.352
-331.216	-64.735	-0.334	0.172
-330.202	-41.730	-0.128	-0.084
-329.187	-200.000	0.015	-0.229
-328.172	-5.672	0.322	0.282
-327.158	203.567	-0.146	0.290
-326.143	620.275	0.092	-0.298
-325.129	418.345	0.134	0.369
-324.114	-53.239	-0.212	-0.124
-323.099	-40.835	-0.123	0.081
-322.085	-184.945	-0.130	0.003
-321.070	-124.805	-0.202	0.039
-320.056	486.876	-0.100	-0.294
-319.041	-42.167	-0.142	-0.092
-318.026	-200.000	-0.023	0.156
-317.012	800.000	0.032	-0.135
-315.997	-74.556	-0.265	-0.121
-314.983	800.000	-0.057	0.234
-313.968	-137.498	-0.182	-0.026
-312.953	-149.617	-0.408	-0.041
-311.939	263.098	0.075	-0.168
-310.924	-58.050	0.516	-0.286
-309.910	-120.793	-0.131	-0.028
-308.895	-135.513	0.045	-0.007
-307.880	-36.296	-0.545	-0.374
-306.866	177.404	-0.074	0.138
-305.851	670.400	-0.104	-0.344
-304.837	800.000	0.043	-0.159
-303.822	160.306	-0.032	0.058
-302.807	559.834	-0.186	-0.575
-301.793	224.791	-0.090	0.187
-300.778	-133.365	0.274	-0.044
-299.764	-200.000	-0.005	-0.620
-298.749	2.510	-0.204	-0.188
-297.735	465.930	0.077	0.221
-296.720	-200.000	0.019	-0.491
-295.705	-200.000	-0.042	-0.421
-294.691	130.205	0.095	0.156
-293.676	414.113	-0.084	0.228
-292.662	-122.746	-0.142	0.029
-291.647	-165.315	0.159	-0.009
-290.632	-87.730	0.219	-0.084
-289.618	695.575	-0.084	0.282
-288.603	115.601	0.142	0.222
-287.589	-109.644	0.252	0.067
-286.574	-94.029	-0.125	-0.044
-285.559	36.413	0.210	0.236
-284.545	107.556	-0.128	0.194
-283.530	-200.000	-0.097	0.713
-282.516	355.812	-0.084	0.214
-281.501	-40.460	-0.430	0.284
-280.486	69.640	-0.294	-0.386
-279.472	25.072	-0.070	-0.074
-278.457	-200.000	0.028	-0.435
-277.443	-136.995	0.706	0.102
-276.428	-130.348	-0.197	0.034
-275.413	402.152	-0.091	-0.246
-274.399	113.518	-0.019	-0.030
-273.384	-185.196	-0.148	-0.003
-272.370	-32.869	0.308	-0.218
-271.355	76.124	-0.205	-0.277
-270.340	51.298	0.263	-0.318
-269.326	40.529	0.197	-0.226
-268.311	-200.000	-0.000	-0.119
-267.297	-113.689	-0.200	0.049
-266.282	-41.063	-0.533	-0.350
-265.267	-104.657	0.692	-0.202
-264.253	283.407	0.125	0.286
-263.238	-124.291	-0.733	0.145
-262.224	-45.681	-0.402	-0.253
-261.209	-200.000	0.039	-0.279
-260.195	215.041	0.260	-0.527
-259.180	-78.391	-0.159	-0.069
-258.165	204.434	-0.077	0.153
-257.151	-115.734	-0.169	-0.040
-256.136	800.000	-0.110	0.429
-255.122	-45.593	-0.242	0.152
-254.107	-77.579	-0.252	-0.111
-253.092	800.000	-0.022	-0.118
-252.078	-85.694	0.422	0.166
-251.063	13.920	0.180	0.178
-250.049	-41.406	-0.022	0.014
-249.034	-9.451	-0.430	-0.365
-248.019	-121.878	0.581	0.121
-247.005	35.574	-0.307	0.343
-245.990	235.976	-0.217	0.458
-244.976	63.956	0.121	0.155
-243.961	-200.000	0.034	-0.283
-242.946	-37.366	0.619	0.419
-241.932	111.123	0.163	0.251
-240.917	-40.991	-0.274	0.180
-239.903	-114.808	-0.320	-0.077
-238.888	800.000	-0.086	0.484
-237.873	-200.000	-0.016	0.107
-236.859	400.523	-0.120	0.321
-235.844	-36.641	0.190	0.130
-234.830	68.242	-0.304	0.397
-233.815	-200.000	-0.048	0.541
-232.800	-172.070	-0.702	-0.028
-231.786	-147.440	-0.408	-0.043
-230.771	22.261	0.259	0.269
-229.757	-200.000	0.025	-0.212
-228.742	98.867	0.186	-0.274
-227.727	22.893	0.228	0.238
-226.713	-29.268	0.548	0.398
-225.698	225.145	0.126	0.259
-224.684	336.734	0.193	-0.479
-223.669	33.359	0.378	-0.417
-222.655	7.721	0.279	0.265
-221.640	-107.796	0.462	0.127
-220.625	-22.776	0.325	-0.249
-219.611	229.710	0.007	0.015
-218.596	124.321	-0.176	0.283
-217.582	-126.274	-0.548	0.103
-216.567	585.971	-0.100	0.315
-215.552	-200.000	0.045	0.269
-214.538	151.064	0.224	-0.389
-213.523	61.601	-0.381	0.483
-212.509	-11.426	0.154	0.129
-211.494	69.581	0.117	-0.153
-210.479	172.793	0.168	-0.309
-209.465	-111.683	0.233	0.060
-208.450	-25.236	0.254	0.191
-207.436	800.000	0.028	-0.098
-206.421	-109.403	0.322	0.086
-205.406	599.331	0.051	0.162
-204.392	188.767	0.224	-0.427
-203.377	-120.391	0.370	-0.079
-202.363	251.834	-0.130	0.283
-201.348	307.845	0.021	-0.049
-200.333	431.210	0.126	0.349
-199.319	530.016	-0.115	0.346
-198.304	-116.220	-0.406	-0.095
-197.290	293.143	-0.206	0.480
-196.275	-3.356	0.179	-0.158
-195.260	20.393	0.086	0.088
-194.246	-97.327	-0.663	-0.218
-193.231	24.498	0.182	0.191
-192.217	-200.000	-0.012	0.164
-191.202	112.925	-0.078	-0.121
-190.187	89.475	0.200	-0.284
-189.173	186.856	-0.182	0.345
-188.158	-82.524	-0.181	-0.074
-187.144	94.004	0.082	0.119
-186.129	800.000	-0.121	-0.533
-185.114	178.478	-0.144	0.269
-184.100	-78.189	0.311	-0.135
-183.085	31.794	-0.387	0.423
-182.071	-200.000	-0.078	0.512
-181.056	8.445	-0.247	-0.236
-180.042	-200.000	0.015	-0.490
-179.027	287.397	0.078	-0.179
-178.012	-70.890	0.111	-0.053
-176.998	-162.275	0.453	0.028
-175.983	134.224	-0.180	-0.297
-174.969	-200.000	0.005	-0.156
-173.954	800.000	-0.097	0.347
-172.939	-33.268	-0.250	0.176
-171.925	40.807	0.021	-0.024
-170.910	800.000	-0.110	0.411
-169.896	-52.102	-0.366	0.215
-168.881	800.000	-0.058	0.279
-167.866	259.183	-0.109	-0.239
-166.852	171.660	0.096	0.176
-165.837	-164.789	0.049	0.003
-164.823	737.086	0.104	-0.356
-163.808	-48.089	0.187	-0.115
-162.793	-55.566	-0.053	-0.030
-161.779	-117.173	-0.452	-0.103
-160.764	-200.000	-0.038	-0.580
-159.750	-51.213	0.139	-0.082
-158.735	-69.648	0.427	-0.206
-157.720	-95.928	-0.021	-0.007
-156.706	800.000	0.050	-0.277
-155.691	-14.467	-0.339	0.277
-154.677	-51.074	-0.330	-0.196
-153.662	-29.996	0.631	-0.454
-152.647	-164.253	0.119	-0.007
-151.633	2.158	-0.183	-0.167
-150.618	-118.311	0.194	-0.043
-149.604	-200.000	0.107	-0.640
-148.589	5.414	0.173	0.162
-147.574	44.198	-0.327	-0.380
-146.560	-200.000	-0.079	-0.464
-145.545	49.461	0.093	0.110
-144.531	-131.162	-0.499	0.083
-143.516	-8.414	0.049	-0.042
-142.502	229.020	0.193	-0.401
-141.487	-116.096	0.307	-0.072
-140.472	-44.548	0.403	-0.254
-139.458	-109.677	0.325	-0.086
-138.443	731.819	0.030	0.104
-137.429	87.477	0.120	0.169
-136.414	-128.040	-0.160	0.029
-135.399	2.226	-0.310	-0.284
-134.385	-135.342	-0.126	0.019
-133.370	-124.992	-0.161	-0.031
-132.356	45.894	0.365	-0.428
-131.341	378.338	-0.019	0.049
-130.326	-32.862	0.123	-0.087
-129.312	747.210	-0.149	0.510
-128.297	800.000	0.084	-0.315
-127.283	-110.008	0.071	-0.019
-126.268	-150.731	0.053	-0.005
-125.253	-33.644	0.050	0.035
-124.239	-155.599	0.204	-0.016
-123.224	-71.556	-0.315	-0.149
-122.210	235.801	-0.214	-0.449
-121.195	150.137	-0.125	0.215
-120.180	-18.406	-0.315	0.248
-119.166	-200.000	-0.004	0.071
-118.151	-86.710	0.305	0.118
-117.137	-25.062	0.506	0.379
-116.122	-57.527	-0.374	-0.207
-115.107	800.000	-0.022	-0.099
-114.093	52.785	0.356	-0.431
-113.078	-145.378	0.220	-0.025
-112.064	136.290	0.073	0.120
-111.049	266.116	-0.151	0.335
-110.034	-41.987	0.662	0.428
-109.020	-164.413	0.589	0.034
-108.005	-156.928	0.214	0.016
-106.991	65.836	-0.255	0.327
-105.976	-129.947	-0.085	0.015
-104.962	-130.007	0.276	0.047
-103.947	-200.000	-0.034	-0.483
-102.932	-9.783	0.241	0.203
-101.918	-59.514	0.384	-0.208
-100.903	-200.000	0.010	-0.140
-99.889	-200.000	0.020	-0.262
-98.874	-51.917	-0.093	-0.054
-97.859	-200.000	0.034	0.497
-96.845	-12.137	-0.388	-0.321
-95.830	-156.198	-0.397	-0.031
-94.816	276.907	0.195	0.440
-93.801	-200.000	0.163	-0.001
-92.786	-112.385	-0.637	0.160
-91.772	-89.923	0.416	-0.153
-90.757	258.736	-0.146	0.320
-89.743	236.704	-0.072	0.152
-88.728	99.444	0.318	0.466
-87.713	800.000	-0.073	-0.273
-86.699	15.656	-0.224	0.223
-85.684	-9.145	-0.502	0.424
-84.670	23.877	0.042	0.044
-83.655	-109.323	0.365	0.097
-82.640	-124.938	0.436	0.084
-81.626	-183.721	0.192	0.004
-80.611	-200.000	-0.019	0.205
-79.597	-1.219	-0.374	0.334
-78.582	52.515	-0.113	-0.136
-77.567	-185.227	0.331	0.006
-76.553	800.000	-0.095	0.426
-75.538	416.674	0.146	-0.395
-74.524	-168.030	0.239	0.012
-73.509	-84.143	-0.333	0.133
-72.494	-25.302	-0.193	0.144
-71.480	-52.565	0.293	0.171
-70.465	-49.435	0.412	0.247
-69.451	73.079	-0.237	0.314
-68.436	-22.735	0.421	-0.321
-67.422	543.276	-0.034	0.104
-66.407	122.212	-0.177	-0.280
-65.392	-10.216	0.251	-0.211
-64.378	-67.096	0.361	0.179
-63.363	57.510	0.207	-0.256
-62.349	188.324	0.199	-0.377
-61.334	28.788	-1.676	-1.794
-60.319	-54.276	0.768	0.439
-59.305	239.026	-3.066	-6.464
-58.290	11.470	3.788	3.666
-57.276	452.416	3.849	10.804
-56.261	-200.000	16.047	238.656
-55.246	424.394	1206.357	3293.924
-54.232	58.543	2841.585	3525.786
-53.217	66.872	2726.246	3509.457
-52.203	40.189	2455.266	2789.369
-51.188	40.133	2106.009	2391.812
-50.173	35.444	1978.515	2193.217
-49.159	34.102	1967.680	2165.783
-48.144	33.668	1963.543	2156.183
-47.130	33.645	1960.889	2152.922
-46.115	33.674	1959.390	2151.519
-45.100	33.663	1958.289	2150.098
-44.086	33.641	1956.630	2147.944
-43.071	33.437	1956.209	2145.071
-42.057	33.501	1953.796	2143.067
-41.042	33.581	1951.619	2141.505
-40.027	33.461	1950.827	2139.186
-39.013	33.491	1948.881	2137.307
-37.998	33.586	1946.933	2136.162
-36.984	33.297	1947.117	2133.003
-35.969	33.396	1945.948	2132.769
-34.954	33.395	1944.392	2130.964
-33.940	33.458	1942.766	2129.813
-32.925	33.449	1941.468	2128.197
-31.911	33.426	1940.833	2127.161
-30.896	33.328	1939.749	2124.780
-29.881	33.433	1937.776	2123.719
-28.867	33.299	1936.954	2121.223
-27.852	33.208	1935.222	2118.222
-26.838	33.243	1933.161	2116.275
-25.823	33.221	1932.861	2115.609
-24.809	33.274	1930.699	2113.756
-23.794	33.291	1929.702	2112.770
-22.779	33.243	1927.713	2109.967
-21.765	33.244	1926.735	2108.827
-20.750	33.302	1925.179	2107.693
-19.736	33.129	1925.001	2105.477
-18.721	33.300	1922.916	2105.027
-17.706	33.214	1922.450	2103.468
-16.692	33.041	1921.104	2099.980
-15.677	33.167	1919.548	2099.603
-14.663	33.268	1917.561	2098.470
-13.648	33.109	1916.293	2095.225
-12.633	33.308	1914.850	2095.790
-11.619	33.253	1913.607	2093.734
-10.604	33.107	1912.705	2091.040
-9.590	33.077	1911.773	2089.601
-8.575	33.089	1910.200	2087.932
-7.560	33.036	1908.927	2085.870
-6.546	32.997	1909.034	2085.470
-5.531	33.054	1907.459	2084.298
-4.517	32.984	1906.552	2082.449
-3.502	33.110	1904.898	2081.958
-2.487	33.187	1903.862	2081.595
-1.473	33.315	1899.824	2078.503
-0.458	32.833	1878.789	2050.148
0.556	27.920	2012.879	2126.310
1.571	25.672	2224.944	2320.931
2.586	26.882	2269.724	2383.352
3.600	26.821	2273.813	2386.559
4.615	26.905	2272.330	2385.818
5.629	26.867	2269.079	2381.629
6.644	26.842	2267.516	2379.365
7.659	26.902	2266.230	2378.520
8.673	26.998	2265.304	2378.537
9.688	26.490	2271.057	2377.575
10.702	23.882	2343.113	2417.130
11.717	21.120	2407.713	2444.648
12.731	10.699	2382.777	2273.083
13.746	1.630	2358.053	2122.498
14.761	0.314	2353.362	2099.602
15.775	0.097	2351.720	2094.846
16.790	0.102	2349.387	2092.591
17.804	0.022	2348.739	2090.637
18.819	0.106	2347.455	2090.427
19.834	0.071	2345.535	2087.970
20.848	0.106	2343.976	2086.831
21.863	0.122	2342.610	2085.587
22.877	0.044	2340.384	2082.265
23.892	0.101	2338.487	2081.115
24.907	0.025	2336.093	2077.689
25.921	0.098	2334.050	2076.633
26.936	0.059	2331.966	2073.987
27.950	0.072	2328.941	2071.223
28.965	0.085	2326.709	2069.182
29.980	0.114	2326.309	2068.969
30.994	0.180	2324.738	2068.235
32.009	5.661	2342.118	2159.557
33.023	17.450	2377.562	2356.971
34.038	22.237	2384.928	2430.660
35.053	22.306	2383.737	2430.122
36.067	22.458	2380.000	2428.121
37.082	22.261	2377.623	2422.687
38.096	22.249	2376.105	2420.678
39.111	22.473	2373.093	2420.414
40.126	22.525	2371.153	2418.856
41.140	22.615	2370.337	2418.976
42.155	22.646	2368.166	2416.902
43.169	22.500	2366.977	2413.388
44.184	22.492	2363.559	2409.512
45.199	22.333	2361.487	2404.924
46.213	22.392	2360.997	2404.947
47.228	22.480	2359.470	2404.310
48.242	22.555	2358.476	2404.038
49.257	22.802	2356.653	2405.268
50.271	22.979	2354.017	2404.724
51.286	22.989	2352.225	2402.737
52.301	22.858	2350.724	2399.127
53.315	23.483	2352.427	2409.108
54.330	25.168	2357.492	2437.055
55.344	26.393	2356.907	2452.867
56.359	26.613	2353.824	2452.354
57.374	26.503	2352.381	2449.063
58.388	26.537	2349.479	2446.213
59.403	26.401	2345.117	2439.536
60.417	26.196	2340.816	2431.994
61.432	26.229	2340.366	2431.679
62.447	26.158	2339.488	2429.523
63.461	26.303	2337.633	2429.268
64.476	26.386	2335.899	2428.297
65.490	26.440	2333.502	2426.236
66.505	25.807	2330.619	2414.421
67.520	24.377	2326.668	2390.796
68.534	23.734	2320.141	2375.156
69.549	23.472	2316.109	2367.226
70.563	23.093	2313.471	2359.177
71.578	23.281	2311.180	2359.078
72.593	23.347	2309.396	2357.848
73.607	23.022	2308.013	2351.817
74.622	23.069	2306.493	2350.608
75.636	23.423	2304.427	2352.952
76.651	23.385	2301.909	2349.581
77.666	23.501	2300.233	2349.145
78.680	23.260	2297.114	2342.466
79.695	22.923	2294.443	2334.989
80.709	22.527	2292.110	2327.081
81.724	22.396	2289.620	2322.541
82.739	22.593	2288.800	2324.032
83.753	23.153	2288.501	2330.871
84.768	23.060	2286.488	2327.315
85.782	23.200	2285.543	2327.917
86.797	23.094	2283.607	2324.267
87.812	22.999	2280.508	2319.593
88.826	23.348	2279.854	2323.252
89.841	23.435	2276.494	2320.694
90.855	23.285	2273.634	2315.523
91.870	23.328	2272.563	2314.723
92.884	23.235	2271.350	2311.991
93.899	23.183	2269.811	2309.464
94.914	23.267	2270.761	2311.255
95.928	24.374	2273.832	2328.638
96.943	25.073	2271.842	2335.477
97.957	23.899	2266.491	2314.348
98.972	23.204	2261.910	2300.315
99.987	23.332	2258.622	2298.366
101.001	23.301	2255.335	2294.350
102.016	23.353	2254.502	2293.895
103.030	23.087	2251.218	2286.828
104.045	22.823	2247.764	2279.620
105.060	23.009	2246.253	2280.228
106.074	23.149	2245.319	2280.816
107.089	23.097	2243.649	2278.181
108.103	22.701	2241.355	2270.456
109.118	22.811	2240.316	2270.545
110.133	22.934	2238.830	2270.356
111.147	23.204	2236.858	2271.574
112.162	23.222	2235.594	2270.256
113.176	23.118	2233.266	2266.277
114.191	22.855	2230.600	2259.914
115.206	22.868	2229.156	2258.354
116.220	23.093	2228.184	2259.985
117.235	23.230	2226.052	2259.307
118.249	23.072	2223.647	2254.569
119.264	22.960	2221.239	2250.423
120.279	22.834	2220.679	2247.976
121.293	23.086	2218.419	2248.639
122.308	23.166	2216.926	2247.878
123.322	22.879	2216.251	2243.271
124.337	22.739	2216.098	2241.048
125.352	24.290	2219.626	2264.173
126.366	25.198	2219.818	2275.682
127.381	24.245	2212.876	2256.165
128.395	23.539	2209.136	2243.117
129.410	23.295	2205.304	2235.861
130.424	23.277	2205.186	2235.243
131.439	23.705	2203.685	2238.879
132.454	23.597	2201.236	2234.755
133.468	23.609	2199.377	2232.757
134.483	23.479	2197.345	2228.783
135.497	23.268	2194.674	2223.142
136.512	23.236	2192.501	2220.277
137.527	23.479	2192.329	2222.894
138.541	23.433	2191.152	2220.861
139.556	23.594	2190.655	2222.112
140.570	23.585	2189.173	2220.230
141.585	23.174	2185.199	2210.772
142.600	22.854	2182.971	2204.248
143.614	22.769	2181.055	2200.977
144.629	22.700	2179.961	2198.743
145.643	22.597	2177.913	2195.124
146.658	22.710	2175.864	2194.209
147.673	22.610	2173.757	2190.577
148.687	22.498	2172.539	2187.687
149.702	22.529	2171.484	2186.745
150.716	23.019	2171.526	2192.638
151.731	23.238	2171.435	2195.019
152.746	22.927	2168.964	2188.388
153.760	23.227	2169.804	2192.710
154.775	24.620	2173.623	2213.663
155.789	25.307	2172.360	2220.657
156.804	24.514	2165.342	2203.392
157.819	23.325	2159.321	2182.288
158.833	22.990	2156.147	2174.674
159.848	22.842	2154.969	2171.397
160.862	22.916	2152.446	2169.504
161.877	22.999	2152.112	2169.934
162.892	23.115	2150.946	2169.926
163.906	23.207	2149.609	2169.451
164.921	22.953	2148.140	2164.582
165.935	22.734	2144.341	2157.800
166.950	22.726	2141.909	2154.998
167.964	22.994	2140.916	2157.032
168.979	22.772	2139.637	2152.766
169.994	22.801	2138.146	2151.365
171.008	22.786	2136.432	2149.190
172.023	22.741	2135.218	2147.165
173.037	22.837	2134.337	2147.199
174.052	22.966	2132.015	2146.172
175.067	23.036	2130.965	2145.721
176.081	22.907	2129.932	2142.843
177.096	23.288	2129.646	2146.944
178.110	23.505	2128.479	2148.155
179.125	23.542	2127.616	2147.482
180.140	23.282	2126.249	2142.684
181.154	23.397	2124.629	2142.191
182.169	23.458	2122.820	2140.848
183.183	23.883	2124.552	2147.497
184.198	25.299	2126.400	2166.296
185.213	25.509	2124.686	2166.842
186.227	24.340	2118.530	2146.171
187.242	23.439	2114.879	2131.329
188.256	23.223	2112.868	2126.440
189.271	23.419	2111.911	2127.594
190.286	23.196	2109.279	2122.003
191.300	23.003	2106.731	2116.858
192.315	23.315	2105.355	2118.978
193.329	23.394	2104.824	2119.130
194.344	23.465	2102.922	2117.812
195.359	23.276	2102.063	2114.431
196.373	23.196	2099.476	2110.613
197.388	23.212	2096.573	2107.642
198.402	23.193	2094.243	2104.817
199.417	23.240	2092.727	2103.605
200.432	22.990	2090.446	2098.074
201.446	22.870	2089.688	2095.636
202.461	22.938	2087.700	2094.200
203.475	22.866	2085.483	2090.860
204.490	22.787	2083.496	2087.684
205.504	22.981	2081.020	2087.262
206.519	22.992	2079.370	2085.482
207.534	22.960	2078.158	2083.642
208.548	22.977	2076.938	2082.371
209.563	22.921	2075.919	2080.438
210.577	23.203	2075.750	2083.356
211.592	23.305	2074.935	2083.485
212.607	23.611	2076.906	2088.844
213.621	25.071	2079.109	2108.085
214.636	25.227	2076.668	2107.191
215.650	24.435	2071.911	2092.786
216.665	23.921	2068.202	2082.736
217.680	23.208	2065.330	2071.210
218.694	22.968	2063.924	2066.735
219.709	22.893	2062.068	2063.748
220.723	22.861	2059.353	2060.413
221.738	23.062	2057.555	2060.722
222.753	23.258	2055.952	2061.163
223.767	23.144	2055.396	2059.022
224.782	23.221	2052.998	2057.268
225.796	22.998	2051.870	2053.290
226.811	22.911	2049.116	2049.279
227.826	22.833	2047.770	2046.777
228.840	22.630	2046.884	2043.280
229.855	23.032	2046.492	2047.327
230.869	23.114	2044.955	2046.500
231.884	23.395	2043.907	2048.465
232.899	23.518	2042.369	2048.110
233.913	23.417	2040.655	2044.974
234.928	23.259	2039.101	2041.341
235.942	22.833	2036.779	2033.837
236.957	22.832	2035.741	2032.548
237.972	23.031	2034.550	2033.414
238.986	23.100	2033.452	2032.869
240.001	22.962	2031.621	2029.211
241.015	22.916	2030.843	2027.657
242.030	23.950	2032.566	2041.062
243.045	25.087	2034.447	2055.825
244.059	25.524	2032.951	2059.105
245.074	24.471	2027.132	2040.866
246.088	23.630	2022.261	2026.078
247.103	23.670	2021.771	2025.799
248.117	24.212	2022.018	2032.015
249.132	24.107	2019.210	2027.750
250.147	23.644	2016.876	2019.868
251.161	23.289	2014.288	2012.977
252.176	23.359	2013.135	2012.384
253.190	23.353	2010.471	2009.418
254.205	23.312	2008.030	2006.266
255.220	23.021	2006.661	2001.348
256.234	22.597	2005.470	1995.098
257.249	22.556	2003.591	1992.523
258.263	22.661	2002.775	1992.666
259.278	22.573	2002.170	1990.827
260.293	22.661	2000.555	1989.986
261.307	22.834	1998.783	1989.941
262.322	23.040	1997.926	1991.182
263.336	22.885	1995.611	1986.891
264.351	22.739	1993.417	1982.810
265.366	23.036	1992.551	1985.065
266.380	23.113	1992.149	1985.296
267.395	23.269	1990.908	1985.585
268.409	23.465	1990.608	1987.257
269.424	23.354	1988.839	1983.998
270.439	23.189	1987.550	1980.627
271.453	24.118	1988.787	1992.071
272.468	25.294	1990.466	2006.731
273.482	25.252	1987.207	2002.742
274.497	24.054	1980.783	1982.623
275.512	23.546	1977.558	1973.473
276.526	23.275	1975.681	1968.345
277.541	23.003	1972.369	1961.776
278.555	22.736	1971.499	1957.689
279.570	22.959	1969.129	1957.586
280.585	22.903	1968.672	1956.272
281.599	22.700	1967.050	1952.178
282.614	22.982	1965.680	1953.710
283.628	23.424	1964.786	1957.497
284.643	23.334	1964.079	1955.560
285.657	22.922	1961.723	1948.412
286.672	22.880	1959.886	1945.897
287.687	22.879	1957.957	1943.733
288.701	22.884	1957.422	1943.019
289.716	22.777	1955.219	1939.423
290.730	22.621	1953.910	1936.176
291.745	23.259	1953.788	1942.858
292.760	23.443	1952.438	1943.310
293.774	23.090	1952.158	1938.913
294.789	23.110	1950.092	1936.844
295.803	23.194	1948.164	1935.617
296.818	23.294	1947.003	1935.335
297.833	23.740	1946.599	1939.602
298.847	23.432	1944.973	1934.369
299.862	23.018	1942.535	1927.171
300.876	23.607	1943.326	1934.185
301.891	25.179	1946.694	1954.542
302.906	25.429	1945.487	1955.833
303.920	23.950	1939.055	1932.985
304.935	23.295	1935.360	1921.931
305.949	23.141	1933.164	1917.839
306.964	23.222	1931.495	1916.835
307.979	23.054	1929.041	1912.349
308.993	22.750	1926.615	1906.417
310.008	22.347	1923.913	1899.137
311.022	22.231	1922.075	1895.835
312.037	22.184	1920.814	1893.861
313.052	22.141	1918.515	1890.904
314.066	21.902	1917.476	1887.069
315.081	21.988	1916.731	1887.039
316.095	21.978	1914.585	1884.589
317.110	21.750	1912.802	1880.157
318.125	21.576	1911.080	1876.367
319.139	21.535	1909.521	1874.169
320.154	21.803	1908.935	1876.252
321.168	21.819	1908.249	1875.527
322.183	22.315	1908.276	1880.652
323.197	22.940	1909.354	1888.203
324.212	23.025	1906.521	1886.087
325.227	22.791	1904.539	1881.401
326.241	23.238	1904.069	1885.496
327.256	23.497	1902.831	1886.810
328.270	22.966	1901.746	1879.841
329.285	22.927	1900.710	1878.175
330.300	23.445	1902.643	1885.391
331.314	24.932	1905.357	1903.762
332.329	25.365	1901.525	1904.319
333.343	24.018	1895.487	1883.722
334.358	23.121	1892.452	1870.954
335.373	22.944	1891.148	1867.554
336.387	23.268	1889.307	1868.951
337.402	23.195	1888.726	1867.383
338.416	23.416	1887.228	1868.024
339.431	23.426	1885.819	1866.513
340.446	23.098	1883.822	1860.844
341.460	22.870	1881.535	1855.950
342.475	22.705	1879.239	1851.724
343.489	22.416	1875.533	1844.801
344.504	21.938	1875.187	1839.214
345.519	21.869	1872.964	1836.083
346.533	21.833	1870.903	1833.461
347.548	21.822	1870.408	1832.648
348.562	21.963	1869.506	1833.022
349.577	21.995	1869.043	1832.687
350.592	22.323	1868.016	1834.894
351.606	22.214	1867.089	1832.620
352.621	21.861	1863.933	1825.616
353.635	21.899	1863.323	1825.199
354.650	22.324	1862.864	1828.971
355.665	22.857	1862.965	1834.413
356.679	22.850	1862.289	1833.463
357.694	23.127	1861.007	1834.866
358.708	23.302	1859.313	1834.798
359.723	23.674	1860.941	1840.055
360.738	25.164	1863.879	1858.280
361.752	25.323	1861.599	1857.430
362.767	24.580	1856.295	1844.215
363.781	23.906	1852.629	1833.364
364.796	23.136	1851.137	1823.699
365.810	23.155	1850.533	1823.076
366.825	23.163	1847.748	1820.203
367.840	22.436	1844.117	1808.900
368.854	21.829	1842.290	1800.629
369.869	21.719	1841.296	1798.314
370.883	21.977	1839.847	1799.341
371.898	22.086	1838.615	1799.043
372.913	22.015	1836.598	1796.124
373.927	21.915	1835.328	1793.641
374.942	22.012	1834.621	1793.722
375.956	22.158	1833.903	1794.305
376.971	22.442	1831.741	1794.894
377.986	22.404	1830.392	1792.962
379.000	22.325	1829.435	1791.001
380.015	22.345	1828.028	1789.610
381.029	22.843	1827.385	1793.854
382.044	22.964	1825.738	1793.265
383.059	22.938	1825.185	1792.238
384.073	23.166	1824.348	1793.525
385.088	23.480	1823.822	1795.991
386.102	23.257	1822.452	1792.162
387.117	22.898	1819.346	1785.246
388.132	22.984	1819.000	1785.564
389.146	23.685	1821.368	1794.796
390.161	25.089	1823.182	1810.639
391.175	25.255	1818.370	1807.319
392.190	23.654	1813.297	1785.888
393.205	23.184	1810.193	1777.870
394.219	22.903	1807.173	1771.863
395.234	22.736	1805.494	1768.326
396.248	22.821	1804.112	1767.608
397.263	22.855	1801.824	1765.501
398.278	23.134	1800.802	1767.089
399.292	22.971	1799.480	1763.948
400.307	22.654	1798.753	1759.841
401.321	22.651	1796.334	1757.236
402.336	23.047	1795.982	1760.648
403.350	22.888	1795.097	1757.979
404.365	22.826	1793.323	1755.408
405.380	22.548	1790.494	1749.654
406.394	21.930	1788.265	1741.104
407.409	21.667	1786.578	1736.629
408.423	21.784	1784.672	1735.736
409.438	21.727	1783.936	1734.248
410.453	21.832	1783.277	1734.440
411.467	22.012	1782.225	1734.998
412.482	21.925	1781.449	1733.171
413.496	22.593	1781.898	1740.032
414.511	23.135	1781.316	1744.631
415.526	23.232	1778.356	1742.480
416.540	22.983	1776.053	1737.561
417.555	23.135	1776.005	1738.807
418.569	23.278	1776.898	1740.878
419.584	23.298	1775.981	1739.978
420.599	23.425	1776.497	1741.525
421.613	23.732	1775.698	1743.560
422.628	23.585	1772.998	1739.259
423.642	23.038	1770.058	1730.781
424.657	22.890	1768.684	1727.777
425.672	23.272	1768.134	1730.789
426.686	22.983	1765.337	1725.006
427.701	22.464	1763.332	1717.756
428.715	22.521	1762.058	1716.862
429.730	22.728	1761.015	1717.670
430.745	22.708	1759.605	1715.893
431.759	22.749	1759.639	1716.120
432.774	23.007	1760.164	1718.947
433.788	22.822	1758.258	1715.080
434.803	22.571	1757.223	1711.407
435.818	22.609	1756.019	1710.401
436.832	22.625	1755.432	1709.787
437.847	21.922	1749.205	1696.687
438.861	13.672	1724.908	1593.528
439.876	2.865	1704.245	1470.631
440.890	0.411	1699.209	1442.528
441.905	0.281	1698.271	1440.314
442.920	0.230	1696.537	1438.181
443.934	0.211	1695.032	1436.550
444.949	0.060	1694.366	1434.364
445.963	0.129	1693.680	1434.271
446.978	0.056	1693.595	1433.329
447.993	0.137	1691.544	1432.195
449.007	0.059	1689.195	1429.298
450.022	0.073	1687.688	1427.981
451.036	0.162	1686.035	1427.261
452.051	1.440	1692.859	1445.082
453.066	11.611	1715.385	1562.280
454.080	21.101	1730.235	1667.185
455.095	23.679	1735.756	1697.111
456.109	25.464	1738.455	1716.703
457.124	26.008	1738.223	1721.493
458.139	25.743	1737.501	1718.022
459.153	25.757	1736.314	1716.782
460.168	25.726	1733.874	1713.867
461.182	25.944	1732.641	1714.524
462.197	26.043	1731.197	1713.835
463.212	25.812	1729.039	1709.291
464.226	25.914	1728.497	1709.525
465.241	26.334	1727.716	1712.548
466.255	26.541	1727.197	1713.797
467.270	26.516	1726.011	1712.177
468.285	26.261	1724.665	1708.222
469.299	26.258	1723.477	1706.812
470.314	26.465	1721.843	1706.947
471.328	26.569	1721.069	1706.967
472.343	26.499	1719.859	1704.894
473.358	26.577	1718.494	1704.075
474.372	26.609	1716.770	1702.468
475.387	26.525	1715.852	1700.558
476.401	26.517	1713.051	1697.505
477.416	26.193	1712.494	1693.694
478.430	26.431	1711.670	1694.921
479.445	26.276	1710.150	1691.752
480.460	26.090	1708.557	1688.222
481.474	26.326	1707.772	1689.462
482.489	26.872	1707.379	1694.001
483.503	27.166	1706.206	1695.389
484.518	26.957	1704.928	1691.959
485.533	27.048	1702.971	1690.667
486.547	26.963	1701.705	1688.411
487.562	27.231	1700.942	1689.954
488.576	27.381	1699.713	1689.930
489.591	27.086	1698.890	1686.157
490.606	26.983	1697.371	1683.496
491.620	27.129	1695.471	1682.767
492.635	27.465	1694.635	1684.860
493.649	27.368	1693.803	1682.927
494.664	26.717	1691.122	1674.022
495.679	26.223	1688.699	1666.843
496.693	26.396	1687.740	1667.300
497.708	26.887	1687.196	1671.108
498.722	27.240	1686.955	1673.941
499.737	27.392	1685.673	1673.867
500.752	27.065	1683.489	1668.486
501.766	26.902	1681.659	1664.963
502.781	27.073	1680.403	1665.094
503.795	27.097	1679.215	1663.940
504.810	26.900	1677.848	1660.574
505.825	27.106	1677.412	1661.842
506.839	26.940	1675.998	1658.714
507.854	27.073	1673.991	1657.748
508.868	26.885	1672.786	1654.636
509.883	26.762	1671.234	1651.775
510.898	26.949	1670.486	1652.549
511.912	26.535	1668.423	1646.530
512.927	26.126	1665.419	1639.628
513.941	26.186	1663.558	1638.148
514.956	26.213	1663.199	1637.852
515.971	26.415	1662.570	1638.877
516.985	26.467	1660.745	1637.352
518.000	26.181	1660.740	1634.543
519.014	26.342	1660.375	1635.457
520.029	26.630	1657.974	1635.513
521.043	26.487	1657.230	1633.281
522.058	26.541	1656.375	1632.737
523.073	26.650	1654.992	1632.164
524.087	26.980	1655.105	1635.069
525.102	27.281	1653.207	1635.717
526.116	26.846	1651.931	1630.330
527.131	26.912	1650.419	1629.242
528.146	27.497	1650.068	1633.971
529.160	27.636	1649.552	1634.523
530.175	27.777	1648.871	1634.917
531.189	27.858	1648.984	1635.565
532.204	28.106	1647.041	1635.672
533.219	27.453	1644.707	1627.292
534.233	27.077	1642.830	1621.868
535.248	27.205	1641.640	1621.648
536.262	27.796	1642.008	1627.114
537.277	27.852	1641.327	1626.750
538.292	27.756	1639.380	1623.760
539.306	27.545	1637.676	1620.000
540.321	27.686	1635.468	1618.876
541.335	27.122	1634.354	1612.552
542.350	27.570	1634.001	1616.002
543.365	28.100	1632.495	1619.038
544.379	28.100	1631.798	1618.152
545.394	28.011	1630.460	1615.838
546.408	27.676	1627.494	1609.734
547.423	27.061	1625.663	1602.278
548.438	26.963	1624.809	1600.383
549.452	27.316	1624.307	1602.818
550.467	27.549	1623.362	1603.754
551.481	27.504	1623.030	1602.835
552.496	27.669	1623.040	1604.112
553.511	28.053	1622.072	1606.356
554.525	28.182	1620.401	1605.651
555.540	28.082	1619.045	1603.229
556.554	28.123	1618.157	1602.526
557.569	27.998	1615.791	1598.889
558.583	27.546	1614.485	1593.435
559.598	27.576	1613.490	1592.520
560.613	27.649	1611.637	1591.148
561.627	27.634	1610.203	1589.410
562.642	27.633	1608.998	1588.015
563.656	27.687	1607.752	1587.071
564.671	27.516	1606.016	1583.674
565.686	27.358	1604.526	1580.639
566.700	26.878	1603.082	1574.841
567.715	26.863	1601.578	1573.040
568.729	26.697	1599.983	1569.839
569.744	26.840	1598.604	1569.541
570.759	27.100	1597.756	1570.786
571.773	26.973	1596.396	1568.158
572.788	27.074	1595.637	1568.095
573.802	27.163	1592.772	1565.867
574.817	27.252	1591.572	1565.271
575.832	27.466	1592.052	1567.402
576.846	27.768	1591.042	1568.830
577.861	27.877	1589.973	1568.531
578.875	27.990	1590.033	1569.380
579.890	28.234	1589.841	1571.103
580.905	28.328	1588.983	1570.882
581.919	28.539	1588.314	1571.846
582.934	28.650	1588.374	1572.673
583.948	28.675	1586.112	1570.462
584.963	28.399	1584.579	1566.386
585.978	27.883	1582.609	1559.822
586.992	27.977	1581.417	1559.272
588.007	28.436	1581.300	1562.902
589.021	27.812	1578.246	1554.357
590.036	26.830	1576.360	1543.917
591.051	27.630	1576.163	1550.373
592.065	28.232	1575.663	1554.840
593.080	28.626	1574.342	1556.709
594.094	28.669	1572.061	1554.636
595.109	28.153	1569.628	1547.657
596.123	27.587	1568.857	1541.901
597.138	27.995	1568.696	1545.023
598.153	28.226	1567.593	1545.714
599.167	28.047	1566.085	1542.523
600.182	28.167	1565.117	1542.406
601.196	28.370	1564.646	1543.477
602.211	28.430	1563.073	1542.246
603.226	28.387	1562.291	1540.927
604.240	28.635	1561.144	1541.705
605.255	28.779	1559.810	1541.414
606.269	28.661	1559.114	1539.554
607.284	28.621	1557.486	1537.421
608.299	28.569	1556.091	1535.421
609.313	28.217	1554.379	1530.594
610.328	28.055	1554.087	1528.762
611.342	28.358	1551.724	1528.794
612.357	28.400	1551.149	1528.395
613.372	28.381	1549.861	1526.789
614.386	28.145	1548.798	1523.577
615.401	28.256	1548.314	1523.854
616.415	28.196	1547.044	1521.919
617.430	27.965	1545.755	1518.537
618.445	27.866	1544.303	1516.106
619.459	27.775	1542.200	1513.099
620.474	27.493	1540.436	1508.837
621.488	27.263	1539.427	1505.757
622.503	27.207	1538.624	1504.322
623.518	27.427	1537.774	1505.143
624.532	27.641	1537.097	1506.072
625.547	27.729	1535.727	1505.281
626.561	27.928	1536.000	1507.023
627.576	28.080	1534.062	1506.198
628.591	27.764	1532.226	1501.603
629.605	27.729	1530.971	1499.903
630.620	27.697	1529.576	1498.090
631.634	27.618	1528.493	1496.197
632.649	27.751	1528.021	1496.655
633.663	27.956	1526.850	1497.021
634.678	28.002	1525.693	1496.087
635.693	27.978	1524.179	1494.226
636.707	27.922	1523.453	1492.871
637.722	28.192	1521.883	1493.374
638.736	28.545	1521.390	1495.599
639.751	28.909	1520.591	1497.618
640.766	28.842	1519.185	1495.507
641.780	28.583	1518.613	1492.647
642.795	28.692	1518.312	1493.061
643.809	28.849	1517.381	1493.252
644.824	29.150	1516.392	1494.554
645.839	28.935	1515.804	1492.045
646.853	28.929	1514.859	1490.881
647.868	28.814	1512.798	1487.744
648.882	28.891	1510.323	1485.753
649.897	28.726	1509.001	1482.939
650.912	28.677	1507.775	1481.157
651.926	28.794	1507.031	1481.201
652.941	28.625	1505.480	1478.125
653.955	28.245	1502.731	1472.184
654.970	27.442	1500.202	1463.048
655.985	27.141	1498.944	1459.217
656.999	27.284	1497.320	1458.612
658.014	27.616	1496.986	1460.784
659.028	28.304	1497.075	1466.238
660.043	28.583	1498.311	1469.521
661.058	28.961	1495.900	1470.017
662.072	28.942	1495.282	1469.082
663.087	28.797	1493.291	1465.789
664.101	28.540	1492.652	1462.920
665.116	28.747	1491.858	1463.627
666.131	28.865	1491.311	1463.859
667.145	28.874	1489.824	1462.300
668.160	28.981	1488.843	1462.016
669.174	29.002	1487.704	1460.891
670.189	29.141	1486.307	1460.453
671.204	28.972	1485.419	1458.056
672.218	28.980	1484.768	1457.303
673.233	29.350	1483.179	1458.515
674.247	29.468	1482.031	1458.147
675.262	29.327	1481.586	1456.418
676.276	29.369	1480.144	1455.153
677.291	29.096	1478.964	1451.657
678.306	28.888	1477.729	1448.629
679.320	28.930	1476.336	1447.419
680.335	28.810	1476.545	1446.505
681.349	28.915	1475.887	1446.516
682.364	29.028	1474.373	1445.747
683.379	28.827	1472.462	1442.118
684.393	28.610	1471.251	1439.049
685.408	28.737	1469.747	1438.406
686.422	28.542	1468.548	1435.524
687.437	28.485	1468.026	1434.395
688.452	28.456	1466.773	1432.774
689.466	28.387	1464.591	1429.927
690.481	28.231	1463.569	1427.535
691.495	28.074	1462.994	1425.576
692.510	28.182	1461.321	1424.615
693.525	27.942	1459.692	1420.983
694.539	27.968	1459.047	1420.392
695.554	28.171	1458.297	1421.075
696.568	28.333	1457.345	1421.236
697.583	28.388	1456.945	1421.107
698.598	28.546	1456.505	1421.739
699.612	28.698	1455.579	1421.845
700.627	28.803	1454.422	1421.367
701.641	29.211	1453.094	1423.064
702.656	29.055	1452.349	1420.952
703.671	29.323	1452.570	1423.079
704.685	29.511	1451.680	1423.493
705.700	29.329	1450.418	1420.678
706.714	29.007	1447.754	1415.412
707.729	28.910	1446.084	1412.862
708.744	28.849	1445.343	1411.491
709.758	28.743	1443.771	1408.977
710.773	28.132	1441.424	1401.812
711.787	27.822	1439.973	1397.847
712.802	28.481	1439.459	1402.246
713.816	28.719	1439.255	1403.709
714.831	29.011	1438.290	1404.840
715.846	29.140	1437.405	1404.799
716.860	29.119	1435.797	1402.896
717.875	29.082	1434.660	1401.334
718.889	28.796	1434.185	1398.517
719.904	28.837	1433.320	1397.817
720.919	28.984	1431.559	1397.053
721.933	28.893	1431.019	1395.665
722.948	28.971	1430.382	1395.471
723.962	29.000	1429.303	1394.473
724.977	29.083	1428.006	1393.675
725.992	29.044	1427.566	1392.784
727.006	29.284	1426.207	1393.108
728.021	29.404	1424.528	1392.220
729.035	29.368	1423.759	1391.023
730.050	29.322	1422.905	1389.677
731.065	29.142	1421.575	1386.849
732.079	29.181	1420.909	1386.330
733.094	29.259	1419.519	1385.393
734.108	29.225	1417.973	1383.463
735.123	29.356	1415.854	1382.216
736.138	29.147	1415.098	1379.737
737.152	29.122	1414.398	1378.702
738.167	29.234	1412.935	1377.955
739.181	29.272	1412.521	1377.669
740.196	29.335	1411.789	1377.266
741.211	29.260	1410.504	1375.287
742.225	29.089	1409.801	1373.155
743.240	29.145	1407.773	1371.431
744.254	28.958	1406.074	1368.212
745.269	28.672	1405.628	1365.478
746.284	28.432	1404.539	1362.467
747.298	28.320	1402.949	1359.922
748.313	28.311	1401.495	1358.282
749.327	28.236	1400.605	1356.702
750.342	28.156	1399.393	1354.768
751.356	28.200	1398.311	1353.884
752.371	28.059	1398.061	1352.435
753.386	28.281	1397.089	1352.977
754.400	28.777	1396.687	1356.107
755.415	29.154	1396.392	1358.458
756.429	29.340	1395.414	1358.718
757.444	29.553	1393.830	1358.592
758.459	29.407	1392.822	1356.370
759.473	29.198	1391.681	1353.552
760.488	29.105	1389.560	1350.640
761.502	29.069	1388.464	1349.152
762.517	29.092	1387.686	1348.403
763.532	29.213	1386.491	1347.968
764.546	29.051	1384.655	1344.832
765.561	28.376	1382.343	1337.473
766.575	27.553	1380.554	1329.554
767.590	27.595	1379.916	1329.087
768.605	28.429	1379.722	1334.844
769.619	28.794	1379.747	1337.382
770.634	29.041	1378.494	1337.816
771.648	29.100	1377.305	1336.927
772.663	29.009	1377.111	1335.919
773.678	29.091	1376.790	1336.046
774.692	29.281	1376.124	1336.621
775.707	29.227	1375.765	1335.723
776.721	29.246	1375.131	1335.082
777.736	29.238	1373.287	1333.074
778.751	29.316	1372.625	1332.837
779.765	29.360	1371.534	1331.943
780.780	29.136	1371.225	1329.853
781.794	29.362	1369.777	1329.929
782.809	28.950	1368.016	1325.080
783.824	28.494	1366.398	1320.053
784.838	28.383	1364.237	1317.009
785.853	28.275	1363.288	1315.152
786.867	28.348	1362.971	1315.214
787.882	28.367	1362.254	1314.504
788.897	28.304	1361.430	1313.097
789.911	28.412	1360.184	1312.513
790.926	28.568	1359.084	1312.416
791.940	28.813	1357.929	1312.906
792.955	28.858	1356.558	1311.750
793.969	28.853	1355.889	1310.907
794.984	28.883	1356.191	1311.254
795.999	29.033	1354.899	1310.925
797.013	29.427	1352.493	1311.255
798.028	29.403	1351.868	1310.321
799.042	29.184	1351.931	1308.659
800.057	29.373	1349.962	1307.948
801.072	29.419	1348.564	1306.762
802.086	29.360	1347.805	1305.451
803.101	29.344	1346.809	1304.217
804.115	29.271	1345.897	1302.658
805.130	29.284	1344.694	1301.430
806.145	29.156	1343.586	1299.297
807.159	29.043	1341.982	1296.785
808.174	29.122	1340.587	1295.843
809.188	29.107	1339.781	1294.807
810.203	28.889	1338.049	1291.436
811.218	28.487	1335.779	1286.255
812.232	28.082	1333.609	1281.163
813.247	27.659	1333.047	1277.492
814.261	28.304	1333.535	1282.343
815.276	28.762	1333.322	1285.209
816.291	28.868	1332.449	1284.958
817.305	28.931	1331.504	1284.340
818.320	28.913	1330.283	1282.876
819.334	29.116	1329.206	1283.111
820.349	29.132	1327.896	1281.806
821.364	29.303	1326.189	1281.196
822.378	29.212	1325.212	1279.467
823.393	29.323	1323.334	1278.271
824.407	29.280	1322.360	1276.880
825.422	28.999	1322.544	1274.946
826.437	28.890	1320.972	1272.521
827.451	28.642	1318.471	1268.234
828.466	28.410	1316.537	1264.614
829.480	28.460	1314.654	1263.000
830.495	28.318	1313.183	1260.455
831.509	28.523	1313.082	1261.623
832.524	28.577	1312.955	1261.726
833.539	28.806	1312.330	1262.555
834.553	29.088	1311.296	1263.357
835.568	29.180	1309.713	1262.312
836.582	29.053	1308.853	1260.459
837.597	29.152	1307.758	1259.934
838.612	29.125	1305.451	1257.377
839.626	28.800	1304.423	1254.002
840.641	28.952	1302.897	1253.425
841.655	28.521	1302.205	1249.662
842.670	27.964	1300.734	1244.287
843.685	27.309	1298.950	1237.953
844.699	28.143	1298.332	1242.916
845.714	28.663	1297.599	1245.615
846.728	28.599	1296.895	1244.352
847.743	28.664	1296.091	1243.877
848.758	28.879	1295.524	1244.644
849.772	29.142	1294.237	1245.046
850.787	29.173	1292.466	1243.404
851.801	29.074	1292.039	1242.175
852.816	29.014	1290.979	1240.602
853.831	28.991	1289.124	1238.512
854.845	28.867	1287.422	1235.888
855.860	28.637	1285.935	1232.763
856.874	28.378	1284.370	1229.366
857.889	28.498	1283.148	1228.860
858.904	28.424	1281.861	1226.982
859.918	28.326	1280.094	1224.486
860.933	28.291	1279.015	1223.075
861.947	28.444	1278.322	1223.292
862.962	28.302	1277.422	1221.328
863.977	28.257	1276.000	1219.521
864.991	28.392	1275.533	1219.835
866.006	28.493	1275.653	1220.478
867.020	28.665	1274.039	1219.942
868.035	28.908	1272.970	1220.390
869.049	29.018	1272.406	1220.433
870.064	29.186	1271.703	1220.733
871.079	29.042	1270.911	1218.868
872.093	28.822	1270.197	1216.575
873.108	28.914	1268.214	1215.141
874.122	28.805	1266.121	1212.271
875.137	28.139	1265.946	1207.542
876.152	27.999	1265.029	1205.592
877.166	28.275	1262.978	1205.321
878.181	28.477	1261.700	1205.287
879.195	28.577	1262.049	1206.142
880.210	28.897	1261.308	1207.401
881.225	28.935	1260.446	1206.681
882.239	29.018	1259.430	1206.113
883.254	29.130	1258.277	1205.597
884.268	29.115	1257.676	1204.782
885.283	29.032	1256.121	1202.605
886.298	29.055	1254.575	1201.126
887.312	29.013	1253.733	1199.907
888.327	28.824	1253.247	1198.059
889.341	28.816	1251.772	1196.451
890.356	28.714	1250.896	1194.804
891.371	28.593	1250.837	1193.810
892.385	28.331	1249.601	1190.777
893.400	28.541	1248.182	1190.655
894.414	28.428	1247.097	1188.736
895.429	28.263	1245.045	1185.566
896.444	28.136	1243.160	1182.806
897.458	28.031	1242.312	1181.175
898.473	28.320	1241.194	1181.846
899.487	28.349	1240.891	1181.605
900.502	28.362	1240.210	1180.895
901.517	28.294	1239.488	1179.627
902.531	28.482	1238.433	1179.699
903.546	28.745	1237.777	1180.634
904.560	28.984	1236.947	1181.242
905.575	28.853	1236.497	1179.825
906.589	28.700	1235.465	1177.717
907.604	28.607	1234.462	1176.016
