DTS Sentinel unit serial number:	SN409020Multiplexer serial number:	ORYXHardware model number:	OX4-SRSoftware version number:	ORYX F/W v3.00 Oryx Data Collector v3.7.2.0data status	okinstallation	HaddamTimeLapsedifferential loss correction	single-endedforward channel	channel 3reverse channel	N/Adate	2011/06/21time	18:56:16forward acquisition time	30.00reverse acquisition time	0.00gamma	498.7831k internal	0.1810k external	0.1810temperature offset calibration	1.0074default loss term (dB/km)	0.3790temperature slope calibration	1.3530multiplexer offset coefficient	1.0000multiplexer slope coefficient	1.0000fibre end	0.00T internal ref (°C)	35.31T ext. ref 1 (°C)	27.12T ext. ref 2 (°C)	0.23length (m)	temperature (°C)	Stokes	anti-Stokes-747.200	91.461	-0.162	-0.234
-746.185	-168.129	0.275	0.014
-745.171	365.998	0.152	-0.395
-744.156	-200.000	-0.072	0.519
-743.142	-89.780	-0.471	-0.176
-742.127	-200.000	0.105	0.669
-741.112	147.958	-0.059	-0.102
-740.098	259.387	-0.093	0.206
-739.083	-200.000	0.010	-0.086
-738.069	800.000	-0.065	0.352
-737.054	4.076	-0.114	0.107
-736.039	-200.000	0.028	0.495
-735.025	-83.497	0.464	0.190
-734.010	-60.838	0.125	-0.068
-732.996	-65.377	0.523	-0.269
-731.981	283.499	-0.097	0.225
-730.966	-56.219	-0.623	0.355
-729.952	1.884	-0.143	0.132
-728.937	215.139	-0.058	0.118
-727.923	-200.000	0.032	-0.380
-726.908	-200.000	-0.023	0.203
-725.894	165.293	0.188	-0.343
-724.879	-22.498	-0.103	-0.080
-723.864	800.000	0.060	0.236
-722.850	288.737	-0.062	-0.144
-721.835	486.491	-0.053	0.156
-720.821	800.000	0.062	0.296
-719.806	-64.000	0.295	-0.154
-718.791	-102.097	0.199	0.061
-717.777	800.000	0.050	0.203
-716.762	-40.941	0.280	-0.185
-715.748	14.876	0.370	-0.371
-714.733	-55.024	0.206	0.119
-713.718	-200.000	-0.029	-0.572
-712.704	-1.204	0.358	0.324
-711.689	-39.943	-0.311	-0.208
-710.675	800.000	0.077	-0.348
-709.660	602.372	0.174	0.559
-708.645	-200.000	-0.003	-0.178
-707.631	-81.182	0.381	-0.161
-706.616	-101.171	-0.276	0.086
-705.602	-80.957	-0.358	-0.152
-704.587	-90.378	0.316	0.117
-703.572	-200.000	0.008	-0.213
-702.558	800.000	-0.021	0.108
-701.543	-36.273	-0.184	-0.127
-700.529	19.505	0.228	0.236
-699.514	237.268	-0.087	0.186
-698.499	-1.682	0.172	-0.155
-697.485	362.164	0.079	-0.203
-696.470	-200.000	-0.027	0.447
-695.456	-28.868	-0.179	-0.131
-694.441	52.723	0.251	-0.308
-693.426	800.000	-0.053	0.258
-692.412	-168.056	0.515	-0.025
-691.397	-60.576	0.345	-0.187
-690.383	-162.545	-0.557	0.035
-689.368	-102.780	-0.087	0.026
-688.354	-48.654	-0.085	0.052
-687.339	51.702	0.331	-0.404
-686.324	-72.029	-0.261	-0.124
-685.310	-35.114	0.246	0.172
-684.295	-72.714	0.409	-0.192
-683.281	-182.805	0.407	0.009
-682.266	-75.918	0.245	-0.111
-681.251	-101.739	0.117	-0.036
-680.237	-28.155	-0.091	0.067
-679.222	40.819	-0.546	-0.632
-678.208	-168.552	0.182	-0.009
-677.193	-94.244	0.452	0.158
-676.178	68.896	0.132	-0.174
-675.164	-200.000	-0.082	-0.502
-674.149	27.234	-0.158	-0.170
-673.135	-96.859	0.254	0.085
-672.120	155.358	0.317	-0.561
-671.105	800.000	0.075	0.411
-670.091	-117.344	0.174	-0.040
-669.076	-200.000	-0.077	-0.522
-668.062	-140.988	-0.252	0.033
-667.047	-115.057	0.447	0.108
-666.032	800.000	-0.012	-0.052
-665.018	-135.577	-0.321	0.048
-664.003	86.554	-0.031	0.044
-662.989	107.223	0.052	-0.079
-661.974	2.243	-0.174	0.161
-660.959	-95.743	-0.637	-0.217
-659.945	-170.440	0.123	0.005
-658.930	-200.000	-0.007	0.441
-657.916	24.706	0.343	0.364
-656.901	800.000	0.056	0.266
-655.886	76.721	-0.254	-0.346
-654.872	-93.139	-0.439	-0.156
-653.857	-93.983	0.287	-0.100
-652.843	226.948	0.109	0.227
-651.828	131.455	0.234	-0.387
-650.814	800.000	0.098	-0.410
-649.799	31.811	0.482	0.532
-648.784	-200.000	0.056	0.386
-647.770	397.213	0.064	-0.172
-646.755	40.100	0.231	-0.266
-645.741	511.913	0.050	-0.151
-644.726	-23.719	0.117	0.089
-643.711	252.856	-0.077	0.168
-642.697	-72.416	0.392	0.185
-641.682	800.000	0.071	0.320
-640.668	-118.757	-0.488	0.109
-639.653	88.583	0.202	-0.288
-638.638	800.000	0.027	0.127
-637.624	424.577	0.176	-0.488
-636.609	97.657	0.311	-0.458
-635.595	-42.563	-0.202	-0.131
-634.580	-200.000	0.023	-0.473
-633.565	-72.159	-0.405	-0.192
-632.551	115.306	0.172	-0.269
-631.536	115.499	0.122	-0.191
-630.522	526.688	0.065	0.196
-629.507	-200.000	0.024	0.219
-628.492	2.206	-0.300	-0.278
-627.478	-94.211	-0.235	-0.082
-626.463	800.000	0.080	-0.364
-625.449	-93.184	-0.168	-0.059
-624.434	-200.000	0.005	0.389
-623.419	-193.281	-0.134	0.001
-622.405	-200.000	-0.049	0.343
-621.390	-117.227	0.594	0.137
-620.376	720.248	-0.174	-0.596
-619.361	-121.401	0.185	0.039
-618.346	67.413	-0.418	-0.546
-617.332	36.939	0.209	0.236
-616.317	800.000	0.021	0.093
-615.303	-47.969	-0.119	-0.074
-614.288	800.000	0.049	-0.224
-613.273	5.821	-0.268	0.254
-612.259	-167.603	-0.418	0.021
-611.244	-7.807	-0.503	0.434
-610.230	6.435	0.089	0.085
-609.215	800.000	-0.034	-0.149
-608.201	33.098	-0.169	0.188
-607.186	-200.000	0.004	-0.119
-606.171	-89.024	0.363	0.137
-605.157	-200.000	0.002	0.292
-604.142	-9.485	-0.212	0.181
-603.128	686.960	0.199	-0.670
-602.113	78.707	-0.128	-0.175
-601.098	50.195	0.201	0.243
-600.084	26.373	0.264	-0.282
-599.069	-103.628	-0.153	-0.045
-598.055	311.291	0.167	0.401
-597.040	-91.238	-0.212	-0.077
-596.025	-136.569	-0.538	-0.079
-595.011	-27.826	0.426	0.315
-593.996	752.207	-0.064	-0.224
-592.982	174.542	-0.062	0.116
-591.967	-36.694	-0.096	0.066
-590.952	-135.675	0.308	-0.046
-589.938	-200.000	-0.031	-0.333
-588.923	-200.000	-0.019	-0.630
-587.909	-164.179	-0.167	0.010
-586.894	-146.701	-0.323	-0.035
-585.879	800.000	-0.145	0.578
-584.865	33.461	0.301	0.334
-583.850	202.150	0.303	0.598
-582.836	-200.000	-0.002	-0.081
-581.821	-53.405	-0.563	0.328
-580.806	44.858	0.113	0.133
-579.792	-44.113	-0.341	0.218
-578.777	-157.617	-0.451	0.034
-577.763	239.712	-0.104	0.221
-576.748	-29.924	-0.139	-0.101
-575.733	-71.685	-0.416	0.197
-574.719	451.360	-0.099	0.280
-573.704	-127.694	0.192	0.035
-572.690	-200.000	0.005	-0.049
-571.675	-104.744	0.026	-0.008
-570.661	800.000	0.060	0.264
-569.646	800.000	-0.068	0.310
-568.631	-79.582	-0.282	-0.121
-567.617	-182.715	0.160	0.004
-566.602	-5.991	0.094	0.082
-565.588	95.998	-0.114	-0.166
-564.573	-68.818	0.196	-0.096
-563.558	800.000	-0.065	-0.286
-562.544	-21.180	0.685	0.533
-561.529	-147.961	0.239	0.025
-560.515	77.016	0.183	0.249
-559.500	33.016	0.077	-0.085
-558.485	199.817	-0.150	-0.294
-557.471	595.309	-0.073	-0.232
-556.456	-91.866	-0.216	0.078
-555.442	176.923	0.211	-0.392
-554.427	-7.860	0.258	-0.222
-553.412	800.000	-0.052	-0.269
-552.398	211.362	-0.053	0.106
-551.383	565.011	-0.137	0.425
-550.369	-44.818	-0.234	-0.148
-549.354	-200.000	0.023	-0.486
-548.339	-200.000	0.001	-0.218
-547.325	149.207	0.248	0.429
-546.310	-77.163	0.475	0.210
-545.296	800.000	0.079	-0.351
-544.281	-110.943	-0.219	0.057
-543.266	-96.708	-0.290	-0.097
-542.252	-86.278	-0.270	0.106
-541.237	-82.105	-0.181	-0.075
-540.223	-200.000	0.005	-0.485
-539.208	44.702	0.200	-0.235
-538.193	115.151	0.072	-0.113
-537.179	276.872	-0.067	-0.153
-536.164	-128.084	-0.376	0.068
-535.150	-74.687	-0.218	0.099
-534.135	147.990	-0.115	-0.199
-533.121	-200.000	-0.006	0.326
-532.106	-39.210	-0.149	-0.100
-531.091	-37.475	-0.483	-0.328
-530.077	-161.033	-0.220	0.014
-529.062	8.926	0.257	0.247
-528.048	226.071	0.068	-0.141
-527.033	135.672	0.152	0.253
-526.018	122.485	-0.124	-0.198
-525.004	134.056	0.099	0.164
-523.989	6.660	0.126	0.119
-522.975	22.317	0.455	-0.474
-521.960	-173.488	-0.226	0.009
-520.945	-116.768	-0.307	-0.071
-519.931	129.086	0.351	-0.572
-518.916	-200.000	0.027	-0.174
-517.902	-35.521	0.416	0.287
-516.887	328.239	-0.210	0.517
-515.872	-131.406	0.217	-0.036
-514.858	-62.296	0.620	0.328
-513.843	305.125	-0.062	0.148
-512.829	-200.000	0.007	-0.050
-511.814	-166.153	-0.304	-0.016
-510.799	-18.936	0.426	-0.337
-509.785	-170.478	0.241	0.011
-508.770	423.197	-0.143	-0.393
-507.756	-161.616	-0.315	0.020
-506.741	-123.013	-0.138	0.028
-505.726	39.801	0.142	-0.163
-504.712	790.022	0.143	-0.503
-503.697	587.061	-0.047	-0.147
-502.683	-60.375	0.260	-0.140
-501.668	131.631	0.107	-0.176
-500.653	-41.556	-0.385	-0.251
-499.639	-70.017	-0.450	-0.217
-498.624	-2.053	-0.118	0.106
-497.610	342.966	0.083	-0.208
-496.595	3.071	-0.073	-0.068
-495.581	-41.205	0.138	-0.090
-494.566	83.040	-0.332	0.460
-493.551	474.158	-0.149	0.430
-492.537	-90.749	-0.256	0.094
-491.522	416.250	-0.186	0.506
-490.508	171.219	0.092	0.169
-489.493	309.416	-0.090	0.216
-488.478	-170.891	0.288	0.012
-487.464	12.062	0.536	0.525
-486.449	-92.390	-0.191	-0.068
-485.435	-200.000	-0.112	0.803
-484.420	-87.710	0.480	0.183
-483.405	-200.000	0.029	0.414
-482.391	-130.103	-0.304	-0.052
-481.376	-35.698	-0.248	-0.171
-480.362	-127.578	-0.247	0.045
-479.347	443.523	-0.046	-0.129
-478.332	-178.221	0.123	-0.004
-477.318	-200.000	0.006	-0.080
-476.303	-81.975	-0.348	0.144
-475.289	-46.162	-0.219	-0.137
-474.274	-17.577	-0.158	-0.126
-473.259	-58.108	-0.229	0.126
-472.245	800.000	-0.111	0.393
-471.230	122.369	-0.027	0.043
-470.216	-200.000	-0.028	0.264
-469.201	-96.792	0.958	0.318
-468.186	-99.470	-0.080	0.026
-467.172	56.586	-0.076	0.094
-466.157	-40.539	0.426	0.280
-465.143	19.180	0.171	-0.174
-464.128	-200.000	-0.026	-0.515
-463.113	800.000	0.084	-0.469
-462.099	800.000	-0.074	0.362
-461.084	223.022	0.087	-0.179
-460.070	-200.000	0.002	0.403
-459.055	4.768	-0.207	0.194
-458.040	31.382	-0.186	-0.203
-457.026	-200.000	-0.009	-0.681
-456.011	108.346	0.532	-0.809
-454.997	-92.495	0.358	-0.127
-453.982	375.131	-0.092	0.239
-452.968	-145.971	-0.256	0.028
-451.953	205.152	0.177	-0.350
-450.938	-200.000	0.030	-0.185
-449.924	-40.318	0.067	-0.044
-448.909	-29.419	0.547	0.397
-447.895	6.312	-0.090	-0.085
-446.880	26.490	0.307	-0.326
-445.865	800.000	0.082	-0.424
-444.851	29.956	-0.266	0.288
-443.836	61.451	-0.380	0.481
-442.822	-115.030	-0.278	0.067
-441.807	196.605	0.194	-0.377
-440.792	-200.000	-0.052	-0.304
-439.778	310.878	-0.125	0.299
-438.763	-28.300	0.354	0.259
-437.749	-63.043	-0.301	-0.157
-436.734	-34.074	0.024	0.017
-435.719	-44.126	0.377	0.240
-434.705	-172.969	0.273	-0.011
-433.690	-200.000	-0.007	0.071
-432.676	-200.000	0.003	-0.071
-431.661	73.965	0.164	-0.219
-430.646	-46.994	-0.189	0.117
-429.632	-22.933	0.404	-0.309
-428.617	-122.497	-0.138	-0.028
-427.603	-171.051	0.194	0.008
-426.588	-200.000	0.011	0.406
-425.573	258.738	0.092	0.202
-424.559	800.000	0.019	-0.104
-423.544	-65.906	0.488	-0.247
-422.530	-115.378	-0.493	0.117
-421.515	734.620	-0.149	-0.510
-420.500	18.983	-0.225	-0.229
-419.486	-62.818	-0.173	0.091
-418.471	-24.734	-0.429	-0.323
-417.457	-25.426	0.276	-0.207
-416.442	800.000	0.052	0.250
-415.428	800.000	0.058	0.315
-414.413	-73.319	0.479	0.222
-413.398	-56.959	0.621	0.346
-412.384	-6.042	-0.136	-0.118
-411.369	-93.265	0.404	-0.142
-410.355	-110.827	-0.197	-0.051
-409.340	6.073	0.173	0.163
-408.325	-200.000	0.036	0.822
-407.311	610.194	-0.119	-0.380
-406.296	-102.973	-0.230	-0.069
-405.282	800.000	-0.008	-0.035
-404.267	-32.458	0.088	0.062
-403.252	-200.000	0.053	-0.416
-402.238	53.044	0.359	0.437
-401.223	800.000	0.041	0.198
-400.209	258.780	0.124	0.272
-399.194	52.619	-0.264	0.320
-398.179	-21.919	-0.196	-0.151
-397.165	-8.471	0.121	0.103
-396.150	-4.427	-0.279	-0.244
-395.136	-200.000	0.010	-0.505
-394.121	-200.000	0.041	0.437
-393.106	9.697	-0.433	0.416
-392.092	-26.543	-0.321	-0.238
-391.077	-81.093	-0.547	-0.228
-390.063	560.729	0.107	0.329
-389.048	154.061	0.187	0.326
-388.033	271.439	0.151	0.338
-387.019	-167.896	-0.155	-0.008
-386.004	-9.402	-0.348	-0.294
-384.990	-109.688	-0.540	-0.143
-383.975	-104.927	-0.115	0.033
-382.960	-12.071	-0.026	-0.022
-381.946	-138.553	0.425	-0.058
-380.931	130.730	0.255	0.415
-379.917	-44.227	0.329	-0.209
-378.902	213.914	0.147	-0.295
-377.888	-106.723	0.244	0.068
-376.873	1.226	-0.128	-0.116
-375.858	154.142	-0.042	-0.074
-374.844	8.321	-0.250	0.238
-373.829	464.726	0.136	0.388
-372.815	-200.000	-0.037	0.312
-371.800	2.506	0.056	-0.051
-370.785	-200.000	0.038	0.263
-369.771	-86.343	0.238	-0.092
-368.756	72.378	0.183	0.241
-367.742	451.113	-0.169	0.474
-366.727	-54.862	0.257	-0.146
-365.712	-128.694	0.189	-0.033
-364.698	-8.173	0.166	-0.142
-363.683	800.000	-0.029	0.103
-362.669	800.000	0.150	0.675
-361.654	800.000	0.030	0.146
-360.639	-10.002	-0.310	0.260
-359.625	319.285	-0.110	0.265
-358.610	-200.000	0.003	-0.074
-357.596	-19.049	-0.403	-0.316
-356.581	-65.694	0.298	0.150
-355.566	10.861	0.186	-0.180
-354.552	-200.000	0.180	-0.001
-353.537	-35.718	-0.311	0.213
-352.523	-72.356	-0.127	-0.059
-351.508	790.988	0.041	-0.142
-350.493	558.564	-0.106	-0.327
-349.479	-65.405	0.197	0.100
-348.464	-23.907	-0.189	0.143
-347.450	-25.844	-0.111	0.083
-346.435	-23.175	0.503	0.382
-345.420	247.630	-0.048	-0.103
-344.406	-56.148	-0.329	-0.185
-343.391	800.000	0.111	0.401
-342.377	-117.745	0.543	0.123
-341.362	800.000	0.117	-0.530
-340.348	48.765	-0.329	-0.391
-339.333	-141.944	-0.372	-0.046
-338.318	224.732	0.018	0.037
-337.304	-200.000	-0.101	-0.597
-336.289	-108.150	-0.067	0.018
-335.275	-102.283	0.274	0.083
-334.260	103.707	-0.201	0.299
-333.245	89.542	-0.046	-0.066
-332.231	800.000	0.054	-0.197
-331.216	20.493	0.115	0.117
-330.202	47.582	0.061	-0.072
-329.187	-103.994	0.337	-0.099
-328.172	800.000	-0.077	0.358
-327.158	721.432	0.064	-0.216
-326.143	-43.924	0.220	0.140
-325.129	331.665	0.192	0.471
-324.114	-113.833	0.605	-0.148
-323.099	-72.312	0.330	-0.154
-322.085	-87.722	-0.309	-0.117
-321.070	-200.000	0.009	0.262
-320.056	800.000	-0.143	0.507
-319.041	-94.141	-0.323	0.111
-318.026	270.913	-0.137	-0.306
-317.012	-200.000	-0.009	0.071
-315.997	-104.623	-0.393	0.114
-314.983	-15.479	-0.126	-0.102
-313.968	-28.239	0.314	-0.229
-312.953	46.762	0.115	-0.135
-311.939	-200.000	0.041	-0.475
-310.924	-200.000	0.048	0.348
-309.910	-24.630	-0.218	0.164
-308.895	-200.000	-0.284	0.001
-307.880	72.617	0.363	0.480
-306.866	-180.656	0.234	-0.006
-305.851	-29.600	-0.290	0.209
-304.837	41.963	-0.111	0.128
-303.822	45.950	-0.092	-0.107
-302.807	120.177	-0.112	0.176
-301.793	-38.716	0.139	0.093
-300.778	-149.025	-0.402	0.040
-299.764	-41.826	0.463	0.299
-298.749	-200.000	-0.003	-0.124
-297.735	-200.000	-0.012	-0.178
-296.720	-16.663	0.177	-0.141
-295.705	-90.749	-0.283	-0.102
-294.691	-68.501	0.253	0.123
-293.676	301.384	-0.233	0.545
-292.662	-54.730	-0.262	-0.149
-291.647	-200.000	0.020	0.358
-290.632	366.023	0.123	0.315
-289.618	40.973	-0.289	0.330
-288.603	-122.261	-0.076	-0.015
-287.589	-27.124	-0.211	0.155
-286.574	-112.960	0.690	0.171
-285.559	-34.003	0.584	-0.405
-284.545	26.705	0.187	-0.197
-283.530	-146.913	-0.390	0.042
-282.516	-52.788	0.153	-0.089
-281.501	-71.942	-0.380	0.178
-280.486	50.019	-0.313	-0.373
-279.472	-110.504	0.426	-0.111
-278.457	64.724	-0.336	0.428
-277.443	464.956	-0.169	0.479
-276.428	248.007	-0.119	-0.255
-275.413	616.052	0.132	0.420
-274.399	-77.678	0.305	-0.133
-273.384	-200.000	0.006	-0.309
-272.370	-182.722	-0.507	-0.011
-271.355	-154.799	0.927	-0.076
-270.340	323.603	0.136	0.329
-269.326	-78.855	-0.365	-0.156
-268.311	-200.000	-0.012	-0.138
-267.297	15.590	0.120	-0.119
-266.282	-200.000	-0.086	0.545
-265.267	-60.608	-0.263	0.140
-264.253	27.962	0.312	-0.332
-263.238	-84.452	0.330	0.131
-262.224	-173.112	-0.648	0.025
-261.209	-151.330	-0.587	0.055
-260.195	51.351	0.087	-0.104
-259.180	-108.787	0.697	-0.187
-258.165	-186.477	0.466	0.008
-257.151	-200.000	0.015	0.149
-256.136	-160.541	0.097	-0.006
-255.122	-200.000	-0.003	0.290
-254.107	-94.340	-0.313	0.107
-253.092	-74.319	0.252	0.114
-252.078	-200.000	-0.004	-0.232
-251.063	307.785	-0.198	-0.466
-250.049	627.730	0.049	-0.157
-249.034	16.412	-0.217	-0.216
-248.019	-200.000	-0.049	-0.293
-247.005	800.000	0.080	-0.444
-245.990	542.635	0.046	-0.139
-244.976	13.738	0.320	-0.313
-243.961	-107.067	0.210	-0.058
-242.946	800.000	0.093	0.331
-241.932	-89.214	-0.114	0.042
-240.917	-47.386	0.107	-0.066
-239.903	-84.320	-0.127	-0.050
-238.888	91.709	-0.113	0.160
-237.873	159.978	-0.057	0.100
-236.859	-135.265	-0.443	0.066
-235.844	800.000	0.018	0.099
-234.830	-40.550	-0.064	0.042
-233.815	-109.363	0.332	0.088
-232.800	21.415	0.360	0.368
-231.786	-43.142	-0.221	-0.141
-230.771	-66.580	-0.270	0.134
-229.757	2.520	0.025	-0.022
-228.742	386.269	0.178	0.465
-227.727	44.659	-0.221	-0.256
-226.713	-94.080	0.143	-0.049
-225.698	-200.000	-0.007	0.522
-224.684	-2.106	-0.363	0.321
-223.669	-200.000	-0.043	-0.282
-222.655	-25.226	-0.083	-0.062
-221.640	27.373	0.157	0.166
-220.625	800.000	-0.006	-0.028
-219.611	-200.000	-0.008	0.208
-218.596	-137.930	-0.554	0.077
-217.582	-139.179	-0.366	-0.049
-216.567	-160.798	-0.436	-0.029
-215.552	-6.858	-0.072	-0.062
-214.538	-134.750	0.363	-0.055
-213.523	-60.862	-0.156	-0.083
-212.509	-153.585	0.161	-0.014
-211.494	800.000	0.046	-0.236
-210.479	225.318	-0.106	-0.217
-209.465	-152.629	0.219	-0.019
-208.450	-200.000	0.007	0.310
-207.436	-13.067	-0.695	-0.568
-206.421	-106.041	0.399	-0.112
-205.406	800.000	0.085	-0.405
-204.392	-45.456	-0.114	-0.071
-203.377	586.131	-0.054	0.167
-202.363	-43.684	0.265	0.168
-201.348	-82.522	0.078	-0.032
-200.333	143.634	-0.172	-0.289
-199.319	-97.640	0.611	-0.198
-198.304	800.000	-0.034	-0.187
-197.290	240.930	-0.173	0.364
-196.275	374.253	0.076	-0.194
-195.260	-64.859	-0.355	-0.180
-194.246	-176.906	0.290	0.009
-193.231	-47.648	0.211	0.128
-192.217	-132.513	-0.692	0.111
-191.202	-94.137	-0.249	-0.085
-190.187	-62.006	0.210	-0.110
-189.173	245.938	0.303	-0.644
-188.158	-200.000	0.010	0.233
-187.144	-93.422	0.330	-0.114
-186.129	46.042	0.234	-0.273
-185.114	-50.710	-0.455	0.269
-184.100	-75.381	0.306	-0.136
-183.085	-128.168	0.314	0.056
-182.071	-140.063	-0.147	0.019
-181.056	29.898	-0.238	-0.255
-180.042	800.000	0.095	-0.377
-179.027	217.332	0.043	-0.087
-178.012	-80.288	0.207	-0.087
-176.998	-92.021	0.129	-0.045
-175.983	-8.416	-0.218	-0.184
-174.969	161.164	0.083	0.147
-173.954	123.816	-0.092	0.145
-172.939	206.941	-0.127	0.249
-171.925	-200.000	-0.056	-0.370
-170.910	-10.736	-0.044	0.037
-169.896	-35.974	-0.294	0.199
-168.881	168.508	-0.176	-0.315
-167.866	473.666	-0.109	-0.309
-166.852	603.157	0.050	-0.156
-165.837	461.939	-0.030	-0.085
-164.823	154.587	0.061	0.105
-163.808	-115.266	-0.062	-0.015
-162.793	353.168	0.120	-0.300
-161.779	17.058	0.169	-0.168
-160.764	84.707	-0.339	-0.466
-159.750	61.347	0.215	-0.268
-158.735	-5.046	0.059	0.051
-157.720	-106.863	0.487	0.135
-156.706	61.456	0.192	0.240
-155.691	-26.662	-0.029	-0.021
-154.677	-200.000	-0.057	-0.395
-153.662	-53.922	-0.094	-0.054
-152.647	-77.847	-0.310	0.134
-151.633	95.693	-0.435	-0.624
-150.618	121.272	-0.100	0.157
-149.604	688.457	-0.136	-0.449
-148.589	-166.645	0.099	0.005
-147.574	-84.671	-0.101	-0.040
-146.560	38.368	-0.305	-0.341
-145.545	149.326	-0.151	-0.258
-144.531	334.094	0.139	0.339
-143.516	102.628	-0.147	0.217
-142.502	-96.071	0.213	-0.071
-141.487	155.495	-0.007	-0.013
-140.472	-76.071	0.342	-0.151
-139.458	115.009	-0.267	-0.410
-138.443	-15.903	-0.175	-0.140
-137.429	-200.000	-0.025	0.152
-136.414	64.852	-0.252	0.320
-135.399	209.416	0.129	0.255
-134.385	-127.203	-0.115	-0.021
-133.370	-97.896	0.291	-0.094
-132.356	800.000	0.072	-0.287
-131.341	-57.560	-0.177	-0.097
-130.326	228.139	0.306	-0.628
-129.312	-55.045	-0.231	-0.130
-128.297	-6.260	0.213	-0.183
-127.283	78.430	0.345	-0.463
-126.268	800.000	0.080	-0.309
-125.253	-80.577	-0.077	-0.032
-124.239	-178.804	-0.452	0.013
-123.224	70.314	-0.236	-0.306
-122.210	-47.911	0.209	-0.127
-121.195	-200.000	0.072	-0.437
-120.180	-39.723	0.343	-0.225
-119.166	-200.000	0.036	-0.577
-118.151	13.340	0.048	-0.047
-117.137	-134.529	-0.131	-0.020
-116.122	-200.000	-0.001	-0.268
-115.107	154.506	-0.042	-0.073
-114.093	-200.000	0.030	-0.494
-113.078	-121.527	0.259	-0.054
-112.064	-45.090	-0.340	0.212
-111.049	-47.491	-0.200	-0.122
-110.034	-167.715	0.172	-0.008
-109.020	146.513	-0.132	-0.224
-108.005	-200.000	-0.038	0.369
-106.991	291.863	-0.123	0.281
-105.976	800.000	0.056	-0.223
-104.962	109.345	0.203	0.306
-103.947	-115.967	0.123	-0.029
-102.932	-152.198	0.151	-0.014
-101.918	-114.613	0.403	0.096
-100.903	-187.830	0.360	-0.006
-99.889	-176.292	0.210	0.007
-98.874	-20.176	0.242	-0.187
-97.859	-148.911	0.469	0.047
-96.845	-200.000	-0.052	0.351
-95.830	-109.616	0.263	0.069
-94.816	-129.674	-0.359	-0.061
-93.801	-55.716	-0.314	0.175
-92.786	-31.555	0.238	0.168
-91.772	33.024	0.233	0.253
-90.757	-87.834	-0.281	0.105
-89.743	-144.622	0.157	0.018
-88.728	-124.135	-0.192	0.037
-87.713	-91.218	-0.095	0.034
-86.699	94.699	-0.188	0.268
-85.684	-200.000	-0.015	0.367
-84.670	73.810	-0.256	0.336
-83.655	-14.986	0.190	0.152
-82.640	-200.000	-0.045	-0.320
-81.626	69.790	0.130	0.168
-80.611	-200.000	-0.013	0.148
-79.597	106.125	0.196	0.292
-78.582	-194.150	0.181	0.002
-77.567	-200.000	-0.008	-0.198
-76.553	520.772	-0.081	0.238
-75.538	-197.613	-0.199	-0.001
-74.524	-200.000	0.012	-0.376
-73.509	-103.019	-0.447	-0.132
-72.494	-7.047	-0.497	0.422
-71.480	-73.838	-0.250	0.113
-70.465	136.402	0.108	-0.178
-69.451	4.015	0.351	0.321
-68.436	184.134	-0.317	0.588
-67.422	-57.659	0.627	0.343
-66.407	-200.000	0.021	-0.211
-65.392	126.924	-0.215	0.341
-64.378	13.297	-0.062	-0.060
-63.363	94.677	0.186	0.265
-62.349	129.035	-0.232	0.372
-61.334	74.911	-0.928	-1.225
-60.319	-88.520	0.786	0.292
-59.305	337.924	-2.517	-6.154
-58.290	-1.741	3.190	2.808
-57.276	459.437	3.825	10.707
-56.261	-200.000	13.951	230.919
-55.246	464.484	1171.136	3293.124
-54.232	62.848	2818.134	3531.095
-53.217	71.327	2716.210	3529.900
-52.203	61.725	2443.282	3045.963
-51.188	42.630	2088.983	2379.877
-50.173	38.438	1958.682	2184.421
-49.159	36.412	1947.079	2148.764
-48.144	35.897	1943.396	2138.869
-47.130	35.730	1941.262	2134.569
-46.115	35.540	1940.036	2131.013
-45.100	35.495	1939.900	2130.281
-44.086	35.545	1937.094	2127.677
-43.071	35.657	1935.437	2127.013
-42.057	35.544	1934.764	2124.933
-41.042	35.600	1932.595	2123.083
-40.027	35.587	1932.322	2122.563
-39.013	35.564	1930.470	2120.188
-37.998	35.472	1929.414	2117.917
-36.984	35.544	1927.620	2116.664
-35.969	35.458	1926.963	2114.912
-34.954	35.529	1925.732	2114.258
-33.940	35.548	1924.472	2112.997
-32.925	35.437	1923.170	2110.260
-31.911	35.563	1921.593	2109.840
-30.896	35.448	1920.149	2106.905
-29.881	35.504	1918.366	2105.474
-28.867	35.375	1917.119	2102.602
-27.852	35.432	1915.049	2100.875
-26.838	35.456	1913.713	2099.593
-25.823	35.289	1913.058	2096.958
-24.809	35.301	1912.259	2096.134
-23.794	35.325	1910.465	2094.341
-22.779	35.247	1909.184	2092.001
-21.765	35.301	1908.298	2091.541
-20.750	35.446	1906.328	2090.887
-19.736	35.229	1905.819	2087.864
-18.721	35.185	1905.081	2086.490
-17.706	35.169	1903.284	2084.268
-16.692	35.212	1901.131	2082.292
-15.677	35.147	1900.578	2080.903
-14.663	35.151	1899.264	2079.426
-13.648	35.219	1897.434	2078.074
-12.633	35.304	1895.884	2077.221
-11.619	35.197	1895.513	2075.563
-10.604	35.075	1894.058	2072.560
-9.590	35.144	1893.172	2072.263
-8.575	35.112	1891.535	2070.041
-7.560	35.185	1889.716	2068.763
-6.546	35.111	1889.483	2067.626
-5.531	35.162	1888.767	2067.310
-4.517	35.119	1886.548	2064.328
-3.502	34.987	1887.433	2063.784
-2.487	35.230	1885.581	2064.310
-1.473	35.372	1881.710	2061.524
-0.458	35.219	1861.656	2037.841
0.556	30.434	1993.912	2115.235
1.571	28.588	2205.588	2316.109
2.586	30.044	2252.735	2384.184
3.600	29.987	2255.638	2386.234
4.615	30.274	2254.704	2388.680
5.629	30.001	2253.218	2383.282
6.644	30.048	2250.823	2381.080
7.659	30.382	2249.033	2383.202
8.673	30.518	2248.407	2384.007
9.688	29.723	2252.575	2377.872
10.702	26.408	2320.378	2404.927
11.717	22.845	2382.463	2419.972
12.731	11.834	2354.330	2240.402
13.746	1.924	2327.045	2078.861
14.761	0.326	2322.946	2053.088
15.775	0.192	2321.178	2049.437
16.790	0.208	2318.970	2047.470
17.804	0.168	2317.267	2045.174
18.819	0.097	2316.831	2043.577
19.834	0.129	2314.524	2041.733
20.848	0.047	2313.154	2039.166
21.863	0.114	2311.339	2038.232
22.877	0.116	2310.078	2036.893
23.892	0.058	2307.756	2033.821
24.907	0.074	2304.946	2031.320
25.921	0.105	2303.498	2030.212
26.936	0.094	2301.348	2027.935
27.950	0.038	2298.962	2024.834
28.965	0.109	2296.529	2023.406
29.980	0.116	2295.015	2021.923
30.994	0.273	2293.463	2022.429
32.009	6.167	2312.501	2118.995
33.023	19.637	2352.686	2340.121
34.038	25.459	2364.767	2431.289
35.053	26.005	2362.091	2435.649
36.067	25.851	2359.115	2430.202
37.082	25.717	2356.768	2425.687
38.096	25.911	2355.949	2427.174
39.111	26.061	2354.762	2427.691
40.126	25.991	2352.719	2424.355
41.140	26.367	2350.527	2426.872
42.155	26.261	2349.161	2423.739
43.169	25.986	2347.558	2418.096
44.184	25.954	2344.336	2414.053
45.199	25.901	2341.466	2410.101
46.213	25.900	2340.238	2408.534
47.228	25.779	2339.917	2406.288
48.242	26.001	2337.770	2406.772
49.257	26.301	2336.818	2409.525
50.271	26.531	2334.342	2409.766
51.286	26.476	2331.937	2406.252
52.301	26.023	2330.214	2398.138
53.315	26.211	2329.683	2399.815
54.330	26.963	2330.791	2410.713
55.344	27.474	2328.593	2414.962
56.359	27.657	2325.736	2414.153
57.374	27.468	2324.821	2410.391
58.388	27.462	2321.215	2406.288
59.403	27.268	2317.503	2399.583
60.417	27.153	2313.805	2393.936
61.432	27.291	2312.511	2394.141
62.447	27.199	2311.223	2391.305
63.461	27.346	2308.735	2390.387
64.476	27.335	2306.812	2387.967
65.490	27.475	2306.117	2388.809
66.505	27.017	2303.534	2379.817
67.520	26.330	2301.266	2368.143
68.534	26.151	2298.533	2362.686
69.549	25.981	2293.686	2355.190
70.563	25.914	2290.651	2350.919
71.578	25.806	2289.599	2348.139
72.593	26.147	2287.664	2350.331
73.607	25.898	2286.508	2345.612
74.622	25.779	2284.511	2341.720
75.636	26.072	2281.637	2342.319
76.651	26.006	2278.821	2338.296
77.666	26.065	2278.043	2337.986
78.680	26.071	2274.757	2334.413
79.695	25.613	2273.601	2326.992
80.709	25.222	2270.033	2317.980
81.724	24.981	2267.041	2311.530
82.739	25.402	2266.295	2315.950
83.753	26.189	2266.163	2325.726
84.768	26.170	2264.599	2323.592
85.782	26.029	2264.103	2320.988
86.797	26.020	2260.862	2317.270
87.812	25.846	2260.339	2314.205
88.826	26.041	2257.432	2313.472
89.841	26.162	2256.692	2313.988
90.855	26.233	2255.113	2313.013
91.870	26.073	2252.078	2307.563
92.884	25.985	2250.389	2304.431
93.899	26.055	2248.885	2303.510
94.914	25.835	2248.919	2300.443
95.928	26.195	2248.398	2304.251
96.943	26.422	2246.850	2305.298
97.957	26.287	2243.676	2300.037
98.972	26.237	2239.960	2295.317
99.987	25.984	2237.392	2289.192
101.001	25.824	2235.451	2284.886
102.016	26.091	2232.349	2284.846
103.030	25.965	2229.683	2280.241
104.045	25.643	2227.704	2273.851
105.060	25.837	2225.606	2273.903
106.074	26.053	2224.839	2275.578
107.089	25.996	2223.409	2273.125
108.103	25.692	2221.172	2266.721
109.118	25.845	2220.459	2267.654
110.133	25.856	2219.208	2266.250
111.147	26.049	2216.952	2266.103
112.162	26.037	2215.431	2264.128
113.176	26.049	2213.863	2262.409
114.191	25.907	2210.643	2257.054
115.206	25.665	2209.674	2252.756
116.220	25.927	2207.843	2253.912
117.235	25.991	2206.617	2253.197
118.249	26.090	2203.573	2251.059
119.264	25.980	2202.928	2248.751
120.279	25.702	2200.029	2242.036
121.293	25.749	2198.195	2240.486
122.308	25.884	2197.945	2241.657
123.322	25.797	2195.432	2237.733
124.337	25.233	2193.499	2228.462
125.352	25.849	2194.886	2237.298
126.366	26.614	2195.814	2247.518
127.381	26.671	2191.644	2243.693
128.395	26.523	2188.131	2237.990
129.410	26.198	2184.631	2230.106
130.424	26.001	2183.397	2226.140
131.439	26.269	2183.613	2229.415
132.454	26.136	2181.252	2225.093
133.468	26.273	2179.160	2224.387
134.483	26.334	2176.932	2222.595
135.497	26.126	2176.394	2219.220
136.512	26.427	2174.596	2220.828
137.527	26.418	2172.580	2218.399
138.541	26.376	2170.964	2215.962
139.556	26.363	2170.187	2214.741
140.570	26.190	2168.945	2211.078
141.585	26.010	2164.912	2204.492
142.600	25.798	2163.776	2200.465
143.614	25.915	2161.673	2199.503
144.629	25.853	2161.159	2197.953
145.643	25.805	2158.407	2194.312
146.658	25.674	2156.427	2190.429
147.673	25.407	2154.880	2185.332
148.687	25.377	2152.491	2182.276
149.702	25.509	2151.399	2182.520
150.716	25.589	2151.625	2183.466
151.731	26.138	2151.619	2189.900
152.746	26.112	2149.591	2187.258
153.760	25.769	2149.815	2183.039
154.775	26.103	2149.702	2186.727
155.789	26.442	2148.241	2189.115
156.804	26.211	2143.741	2181.454
157.819	25.829	2139.442	2172.195
158.833	25.584	2137.164	2166.658
159.848	25.777	2135.441	2166.987
160.862	25.843	2133.810	2165.864
161.877	26.152	2132.898	2168.408
162.892	26.154	2132.156	2167.424
163.906	26.251	2131.952	2168.124
164.921	26.265	2129.663	2165.703
165.935	26.108	2126.429	2160.276
166.950	25.864	2124.536	2155.156
167.964	26.059	2122.385	2155.061
168.979	25.773	2121.337	2150.304
169.994	25.912	2119.222	2149.567
171.008	25.854	2117.578	2146.950
172.023	25.642	2116.341	2142.905
173.037	25.832	2115.845	2144.409
174.052	25.954	2113.473	2143.209
175.067	25.814	2111.129	2138.908
176.081	25.912	2110.170	2138.850
177.096	26.045	2109.578	2139.582
178.110	26.039	2107.625	2137.275
179.125	26.039	2106.244	2135.611
180.140	26.104	2105.265	2135.136
181.154	26.307	2104.893	2136.913
182.169	26.419	2104.619	2137.717
183.183	26.441	2103.643	2136.731
184.198	26.756	2103.246	2139.810
185.213	26.849	2101.728	2139.113
186.227	26.595	2097.925	2131.976
187.242	26.113	2095.387	2123.449
188.256	25.993	2093.618	2119.980
189.271	26.087	2092.217	2119.422
190.286	25.953	2089.796	2115.131
191.300	25.728	2087.325	2109.723
192.315	25.950	2085.352	2110.089
193.329	26.072	2086.054	2111.988
194.344	26.229	2084.322	2111.828
195.359	26.179	2082.959	2109.610
196.373	26.263	2080.335	2107.675
197.388	26.068	2078.569	2103.351
198.402	26.125	2076.830	2102.004
199.417	26.162	2074.904	2100.244
200.432	26.135	2072.240	2096.979
201.446	25.982	2071.193	2093.883
202.461	25.904	2068.599	2090.099
203.475	25.788	2067.236	2087.125
204.490	25.898	2065.371	2086.266
205.504	25.890	2064.287	2084.833
206.519	25.932	2061.312	2082.064
207.534	26.139	2060.046	2082.937
208.548	26.189	2059.324	2082.543
209.563	25.800	2057.409	2075.847
210.577	25.976	2056.549	2076.766
211.592	26.310	2055.988	2079.819
212.607	26.256	2055.882	2078.832
213.621	26.197	2056.330	2078.361
214.636	26.256	2053.482	2075.907
215.650	26.472	2051.751	2076.409
216.665	26.614	2049.131	2075.139
217.680	26.323	2046.628	2069.015
218.694	26.182	2045.808	2066.317
219.709	25.994	2042.958	2061.030
220.723	25.941	2041.327	2058.527
221.738	26.260	2041.292	2061.900
222.753	26.620	2038.415	2062.877
223.767	26.398	2036.842	2058.492
224.782	26.140	2035.587	2054.026
225.796	26.140	2033.737	2051.921
226.811	26.313	2032.874	2052.774
227.826	26.270	2030.709	2049.851
228.840	25.896	2028.700	2043.320
229.855	26.145	2027.462	2044.663
230.869	26.087	2025.981	2042.264
231.884	26.163	2025.871	2042.779
232.899	26.234	2024.297	2041.748
233.913	26.173	2023.055	2039.557
234.928	26.118	2021.610	2037.238
235.942	25.828	2018.848	2030.918
236.957	25.640	2017.071	2026.762
237.972	25.889	2016.770	2029.041
238.986	25.910	2014.823	2027.076
240.001	25.682	2013.162	2022.586
241.015	25.729	2012.071	2021.777
242.030	26.194	2013.436	2028.151
243.045	26.689	2013.064	2033.122
244.059	26.995	2012.439	2035.702
245.074	26.789	2008.172	2028.819
246.088	26.435	2004.646	2021.046
247.103	26.365	2002.707	2018.057
248.117	26.720	2001.952	2021.040
249.132	26.538	2000.685	2017.479
250.147	26.105	1997.019	2008.696
251.161	25.913	1994.929	2004.207
252.176	25.939	1993.778	2003.099
253.190	25.871	1991.865	2000.177
254.205	25.970	1989.270	1998.440
255.220	25.852	1988.740	1996.347
256.234	25.400	1987.474	1989.812
257.249	25.565	1985.748	1989.678
258.263	25.834	1985.360	1992.044
259.278	25.807	1984.480	1990.618
260.293	25.906	1982.749	1989.741
261.307	25.903	1981.555	1988.279
262.322	26.075	1979.355	1987.731
263.336	25.671	1977.047	1980.708
264.351	25.682	1976.714	1980.263
265.366	26.100	1975.859	1983.792
266.380	26.201	1974.656	1983.455
267.395	26.014	1972.682	1979.172
268.409	26.060	1971.775	1978.532
269.424	26.158	1969.712	1977.312
270.439	26.131	1968.855	1975.914
271.453	26.453	1969.017	1979.379
272.468	26.673	1968.211	1980.748
273.482	26.588	1966.072	1977.435
274.497	26.189	1961.686	1968.409
275.512	26.010	1959.616	1964.140
276.526	26.035	1957.470	1962.031
277.541	26.024	1954.663	1958.857
278.555	25.614	1952.739	1952.230
279.570	25.735	1951.290	1951.857
280.585	25.647	1950.752	1950.135
281.599	25.755	1949.191	1949.513
282.614	25.907	1948.605	1950.350
283.628	25.905	1947.550	1949.037
284.643	25.642	1945.257	1943.654
285.657	25.230	1943.571	1937.266
286.672	25.237	1941.152	1934.698
287.687	24.950	1939.590	1929.804
288.701	25.043	1938.437	1929.425
289.716	24.721	1934.306	1921.610
290.730	23.899	1931.737	1909.953
291.745	24.680	1932.391	1918.804
292.760	25.216	1933.332	1925.296
293.774	25.421	1933.127	1927.067
294.789	25.827	1933.596	1931.677
295.803	26.175	1930.579	1932.184
296.818	26.142	1930.381	1931.401
297.833	26.377	1929.391	1932.697
298.847	26.208	1927.397	1928.659
299.862	25.989	1925.103	1923.783
300.876	26.104	1925.269	1924.951
301.891	26.830	1926.072	1933.301
302.906	27.083	1924.462	1934.167
303.920	26.568	1921.547	1925.499
304.935	26.623	1918.400	1922.702
305.949	26.377	1917.137	1918.585
306.964	26.455	1914.712	1916.760
307.979	26.042	1911.883	1909.310
308.993	24.850	1907.633	1892.176
310.008	23.549	1902.713	1873.273
311.022	23.175	1900.707	1867.099
312.037	23.242	1899.661	1866.557
313.052	23.090	1897.891	1862.987
314.066	22.794	1895.451	1857.245
315.081	23.068	1895.368	1859.836
316.095	22.970	1894.568	1857.796
317.110	22.922	1891.990	1854.534
318.125	23.049	1889.782	1853.482
319.139	22.955	1889.130	1851.636
320.154	22.936	1887.886	1849.997
321.168	22.983	1887.015	1849.418
322.183	24.109	1888.241	1862.238
323.197	25.714	1890.812	1881.424
324.212	26.108	1889.587	1884.118
325.227	25.863	1888.079	1879.822
326.241	26.003	1886.478	1879.465
327.256	26.055	1885.619	1878.934
328.270	25.773	1884.473	1874.613
329.285	25.648	1884.825	1873.433
330.300	25.961	1885.056	1876.707
331.314	26.258	1884.332	1878.871
332.329	26.570	1881.488	1879.070
333.343	26.062	1878.308	1870.376
334.358	25.742	1875.431	1863.954
335.373	25.848	1874.310	1863.724
336.387	26.179	1873.885	1866.517
337.402	26.242	1871.644	1864.715
338.416	26.164	1870.610	1862.648
339.431	26.167	1868.698	1860.559
340.446	26.092	1866.534	1857.401
341.460	25.308	1864.079	1846.636
342.475	24.510	1859.634	1833.776
343.489	23.560	1855.345	1819.536
344.504	23.069	1854.388	1813.323
345.519	23.068	1852.724	1811.465
346.533	22.924	1850.058	1807.167
347.548	22.835	1849.254	1805.245
348.562	22.972	1848.097	1805.309
349.577	23.102	1846.328	1804.699
350.592	23.227	1845.778	1805.225
351.606	23.054	1845.252	1802.722
352.621	22.854	1842.756	1798.022
353.635	22.962	1841.841	1798.019
354.650	23.879	1843.926	1809.224
355.665	25.190	1845.858	1824.310
356.679	25.691	1845.060	1828.426
357.694	26.125	1844.004	1831.585
358.708	26.429	1843.065	1833.532
359.723	26.473	1843.444	1834.134
360.738	26.683	1843.307	1835.920
361.752	26.869	1841.838	1836.130
362.767	26.842	1838.563	1832.376
363.781	26.366	1836.129	1824.895
364.796	26.298	1834.089	1821.962
365.810	26.211	1833.126	1819.913
366.825	25.992	1830.522	1814.896
367.840	24.636	1824.584	1795.101
368.854	23.032	1821.216	1775.396
369.869	22.876	1820.039	1772.470
370.883	22.985	1818.431	1771.786
371.898	23.144	1817.523	1772.291
372.913	23.130	1816.244	1770.689
373.927	22.831	1814.834	1766.096
374.942	22.996	1813.414	1766.165
375.956	23.638	1815.245	1774.190
376.971	24.512	1813.832	1781.357
377.986	24.709	1812.520	1781.829
379.000	24.545	1811.317	1778.794
380.015	24.598	1810.952	1778.758
381.029	25.422	1811.217	1787.047
382.044	25.934	1810.326	1791.064
383.059	26.009	1808.581	1789.873
384.073	25.978	1807.526	1788.308
385.088	26.171	1806.937	1789.435
386.102	26.065	1805.544	1786.778
387.117	25.886	1803.495	1782.764
388.132	25.813	1803.171	1781.507
389.146	26.102	1803.913	1784.892
390.161	26.565	1803.633	1789.005
391.175	26.521	1798.664	1783.431
392.190	25.888	1794.852	1773.176
393.205	25.895	1793.673	1771.866
394.219	25.988	1791.390	1770.317
395.234	25.777	1790.995	1767.636
396.248	25.831	1788.550	1765.546
397.263	25.763	1786.288	1762.429
398.278	25.870	1784.571	1761.578
399.292	25.839	1783.107	1759.614
400.307	25.504	1782.842	1755.857
401.321	25.319	1781.031	1752.048
402.336	25.268	1779.642	1749.972
403.350	25.169	1776.868	1746.065
404.365	24.939	1775.192	1741.959
405.380	24.177	1771.998	1731.180
406.394	23.105	1769.017	1717.604
407.409	22.910	1767.178	1713.702
408.423	23.057	1765.420	1713.231
409.438	23.013	1763.453	1710.690
410.453	23.023	1762.743	1709.887
411.467	23.130	1762.575	1710.564
412.482	23.614	1762.650	1715.132
413.496	25.371	1765.960	1735.230
414.511	26.043	1765.461	1741.053
415.526	26.006	1763.291	1738.346
416.540	26.081	1761.914	1737.508
417.555	26.190	1761.266	1737.715
418.569	26.098	1761.125	1736.477
419.584	26.003	1760.486	1734.720
420.599	26.099	1760.054	1735.013
421.613	26.424	1758.704	1736.617
422.628	26.097	1757.133	1731.704
423.642	25.895	1755.120	1727.564
424.657	25.390	1753.146	1720.553
425.672	25.664	1752.367	1722.215
426.686	25.921	1750.279	1722.425
427.701	25.617	1747.661	1716.730
428.715	25.666	1747.206	1716.550
429.730	25.973	1747.084	1719.168
430.745	26.445	1746.136	1722.549
431.759	26.695	1746.848	1725.437
432.774	27.011	1746.359	1727.774
433.788	25.931	1742.058	1712.997
434.803	24.518	1738.767	1696.079
435.818	24.454	1738.054	1694.567
436.832	24.482	1737.585	1694.176
437.847	23.723	1731.497	1680.823
438.861	14.935	1706.386	1573.498
439.876	3.265	1684.249	1443.436
440.890	0.521	1678.168	1412.271
441.905	0.275	1676.673	1408.524
442.920	0.174	1675.425	1406.360
443.934	0.036	1674.291	1403.947
444.949	0.134	1672.684	1403.354
445.963	0.120	1672.319	1402.741
446.978	0.119	1671.329	1401.737
447.993	0.051	1670.110	1399.914
449.007	0.152	1667.813	1398.759
450.022	0.121	1665.722	1396.555
451.036	0.020	1665.254	1395.050
452.051	1.550	1671.012	1414.013
453.066	12.416	1696.468	1538.056
454.080	22.950	1712.790	1652.216
455.095	25.301	1718.047	1679.217
456.109	27.401	1721.836	1702.489
457.124	28.103	1721.314	1708.359
458.139	27.847	1718.798	1703.260
459.153	27.414	1717.960	1698.162
460.168	27.371	1715.791	1695.412
461.182	27.701	1715.220	1697.735
462.197	28.333	1714.936	1703.157
463.212	28.189	1713.678	1700.361
464.226	28.396	1712.648	1701.067
465.241	28.784	1711.615	1703.453
466.255	29.050	1710.635	1704.752
467.270	29.002	1709.735	1703.208
468.285	28.983	1708.215	1701.309
469.299	29.150	1707.078	1701.524
470.314	29.301	1706.721	1702.369
471.328	29.494	1705.585	1702.826
472.343	29.389	1704.958	1701.020
473.358	29.539	1703.249	1700.498
474.372	29.553	1702.492	1699.674
475.387	29.741	1701.184	1699.900
476.401	29.550	1699.587	1696.339
477.416	29.105	1698.000	1690.444
478.430	29.283	1696.718	1690.609
479.445	29.200	1695.726	1688.650
480.460	29.020	1693.469	1684.540
481.474	29.136	1693.019	1684.959
482.489	29.706	1692.952	1689.931
483.503	29.736	1690.698	1687.757
484.518	29.609	1689.258	1684.949
485.533	29.601	1688.331	1683.757
486.547	29.690	1685.894	1681.934
487.562	29.486	1685.345	1679.319
488.576	29.753	1684.358	1680.578
489.591	30.048	1683.542	1682.249
490.606	30.035	1682.186	1680.582
491.620	29.807	1681.117	1677.231
492.635	30.076	1679.272	1677.640
493.649	29.805	1676.979	1672.685
494.664	29.295	1675.752	1666.628
495.679	29.128	1673.596	1662.771
496.693	29.166	1672.397	1661.724
497.708	29.479	1672.233	1664.199
498.722	29.737	1671.694	1665.803
499.737	29.972	1671.171	1667.209
500.752	29.859	1669.359	1664.172
501.766	29.685	1667.313	1660.366
502.781	30.013	1665.674	1661.495
503.795	29.825	1664.569	1658.502
504.810	29.675	1663.013	1655.398
505.825	29.771	1662.256	1655.309
506.839	29.457	1660.309	1650.349
507.854	29.339	1659.414	1648.208
508.868	29.366	1657.064	1645.913
509.883	29.012	1654.682	1640.182
510.898	28.855	1652.973	1636.886
511.912	28.208	1650.549	1628.501
512.927	27.568	1648.582	1620.652
513.941	27.517	1647.333	1618.772
514.956	27.896	1647.308	1621.940
515.971	28.412	1646.894	1625.937
516.985	28.263	1644.676	1622.227
518.000	28.058	1643.261	1618.816
519.014	28.032	1641.977	1617.129
520.029	28.086	1640.630	1616.085
521.043	27.844	1639.408	1612.538
522.058	27.871	1638.207	1611.401
523.073	28.225	1637.680	1613.835
524.087	28.485	1637.705	1615.969
525.102	28.994	1637.394	1619.969
526.116	28.976	1636.248	1618.490
527.131	29.320	1635.293	1620.388
528.146	29.616	1635.578	1623.091
529.160	30.090	1634.411	1625.914
530.175	30.179	1634.253	1626.353
531.189	30.336	1632.975	1626.264
532.204	30.340	1631.141	1624.280
533.219	29.968	1630.034	1619.717
534.233	29.681	1628.486	1615.460
535.248	29.654	1626.954	1613.509
536.262	29.848	1626.803	1614.869
537.277	30.214	1626.383	1617.469
538.292	30.157	1624.857	1615.255
539.306	30.214	1623.027	1613.745
540.321	30.078	1619.953	1609.307
541.335	29.492	1618.875	1602.930
542.350	29.978	1618.328	1606.435
543.365	30.305	1617.619	1608.387
544.379	30.555	1615.988	1608.753
545.394	30.574	1614.588	1607.326
546.408	29.938	1612.231	1599.274
547.423	29.616	1611.145	1595.209
548.438	29.776	1610.061	1595.328
549.452	29.929	1609.246	1595.660
550.467	29.962	1607.917	1594.435
551.481	30.019	1606.832	1593.664
552.496	30.083	1606.610	1593.805
553.511	30.418	1605.725	1595.631
554.525	30.235	1605.314	1593.448
555.540	30.264	1604.377	1592.581
556.554	30.249	1603.414	1591.305
557.569	30.009	1601.004	1586.654
558.583	29.672	1598.346	1580.936
559.598	29.699	1596.398	1579.048
560.613	29.583	1596.734	1578.197
561.627	29.531	1594.878	1575.722
562.642	29.479	1591.721	1571.976
563.656	29.103	1589.646	1566.524
564.671	28.704	1588.344	1561.636
565.686	28.519	1587.445	1558.987
566.700	28.277	1585.361	1554.687
567.715	28.215	1584.017	1552.661
568.729	28.420	1583.099	1553.321
569.744	28.648	1582.731	1554.716
570.759	28.879	1580.787	1554.578
571.773	28.783	1579.527	1552.344
572.788	28.569	1578.497	1549.322
573.802	28.586	1576.590	1547.416
574.817	28.428	1575.066	1544.394
575.832	28.521	1575.118	1545.049
576.846	29.181	1574.650	1549.985
577.861	29.567	1573.721	1552.147
578.875	29.815	1574.454	1554.780
579.890	30.194	1573.783	1557.138
580.905	30.267	1573.524	1557.306
581.919	30.535	1573.057	1558.922
582.934	30.614	1572.409	1558.755
583.948	30.542	1570.445	1556.014
584.963	30.273	1568.505	1551.649
585.978	30.022	1567.178	1548.040
586.992	30.023	1565.350	1546.056
588.007	30.128	1565.006	1546.416
589.021	29.691	1562.429	1540.023
590.036	28.734	1560.048	1529.488
591.051	29.425	1560.388	1535.420
592.065	30.173	1559.896	1541.000
593.080	30.425	1558.595	1541.632
594.094	30.568	1557.612	1541.669
595.109	30.170	1555.691	1536.266
596.123	30.141	1554.098	1534.268
597.138	30.436	1553.200	1535.650
598.153	30.313	1552.075	1533.338
599.167	30.127	1550.139	1529.698
600.182	30.024	1549.078	1527.612
601.196	30.253	1548.175	1528.439
602.211	30.464	1547.536	1529.372
603.226	30.297	1546.865	1527.145
604.240	30.596	1545.696	1528.277
605.255	30.698	1544.427	1527.676
606.269	30.589	1543.372	1525.557
607.284	30.430	1541.993	1522.700
608.299	30.374	1540.114	1520.199
609.313	30.055	1538.568	1515.871
610.328	29.895	1537.177	1513.002
611.342	29.965	1535.939	1512.176
612.357	30.132	1534.258	1511.708
613.372	29.895	1533.466	1508.808
614.386	29.661	1532.731	1505.985
615.401	29.706	1531.902	1505.358
616.415	29.569	1530.242	1502.431
617.430	29.146	1528.766	1497.342
618.445	28.973	1526.984	1494.007
619.459	28.779	1525.335	1490.635
620.474	28.547	1524.733	1487.976
621.488	28.868	1523.455	1489.166
622.503	29.155	1522.739	1490.619
623.518	29.136	1521.252	1488.831
624.532	28.859	1520.027	1485.204
625.547	28.781	1518.800	1483.193
626.561	28.933	1518.333	1483.792
627.576	29.034	1517.493	1483.619
628.591	29.077	1516.565	1482.876
629.605	29.255	1515.617	1483.211
630.620	29.489	1514.410	1483.746
631.634	29.814	1513.927	1485.720
632.649	30.091	1512.461	1486.338
633.663	29.844	1510.562	1482.307
634.678	29.366	1509.424	1477.164
635.693	28.969	1507.297	1471.712
636.707	28.930	1506.445	1470.388
637.722	29.146	1505.045	1470.586
638.736	29.533	1504.777	1473.247
639.751	30.004	1505.079	1477.142
640.766	30.043	1503.797	1476.020
641.780	30.192	1501.827	1475.104
642.795	30.298	1501.972	1475.917
643.809	30.332	1501.255	1475.306
644.824	30.656	1500.148	1476.628
645.839	30.598	1499.934	1475.779
646.853	30.706	1498.606	1475.156
647.868	30.629	1496.405	1472.201
648.882	30.319	1494.949	1468.130
649.897	30.231	1493.933	1466.258
650.912	30.208	1492.164	1464.161
651.926	30.441	1490.899	1464.592
652.941	30.262	1490.377	1462.486
653.955	29.820	1487.626	1456.111
654.970	29.008	1485.192	1447.144
655.985	28.724	1483.104	1442.693
656.999	28.705	1481.853	1441.150
658.014	29.029	1481.788	1443.471
659.028	29.575	1481.904	1447.714
660.043	30.047	1481.108	1450.483
661.058	30.248	1480.677	1451.463
662.072	30.395	1479.892	1451.679
663.087	30.154	1478.297	1448.043
664.101	30.062	1477.059	1445.942
665.116	30.088	1476.824	1445.735
666.131	30.359	1475.172	1446.069
667.145	30.537	1473.531	1445.682
668.160	30.430	1472.634	1443.791
669.174	30.291	1471.447	1441.370
670.189	30.496	1470.756	1442.117
671.204	30.571	1470.277	1442.064
672.218	30.486	1469.738	1440.697
673.233	30.772	1468.273	1441.319
674.247	30.820	1466.767	1440.043
675.262	30.580	1466.209	1437.452
676.276	30.331	1465.288	1434.444
677.291	30.343	1464.529	1433.627
678.306	30.619	1462.856	1433.955
679.320	30.335	1460.846	1429.616
680.335	30.123	1459.380	1426.365
681.349	30.265	1459.023	1426.948
682.364	30.400	1457.584	1426.412
683.379	30.208	1456.147	1423.357
684.393	29.825	1454.875	1418.987
685.408	29.740	1454.290	1417.590
686.422	29.591	1452.724	1414.747
687.437	29.415	1451.906	1412.426
688.452	29.215	1450.424	1409.277
689.466	29.123	1448.430	1406.464
690.481	29.124	1446.951	1404.870
691.495	29.353	1446.363	1405.885
692.510	29.696	1446.288	1408.271
693.525	30.078	1445.545	1410.304
694.539	29.812	1443.622	1406.225
695.554	29.384	1442.532	1401.724
696.568	29.283	1441.121	1399.418
697.583	29.009	1440.646	1396.702
698.598	29.271	1440.285	1398.181
699.612	29.692	1439.324	1400.287
700.627	29.845	1438.216	1400.207
701.641	30.243	1436.662	1401.549
702.656	30.316	1436.734	1402.008
703.671	30.410	1436.335	1402.161
704.685	30.656	1435.973	1403.507
705.700	30.422	1434.375	1400.001
706.714	30.197	1431.997	1395.813
707.729	29.949	1430.735	1392.540
708.744	30.108	1430.173	1393.027
709.758	29.883	1427.535	1388.596
710.773	29.245	1426.211	1382.329
711.787	29.089	1424.376	1379.211
712.802	29.761	1423.910	1383.657
713.816	29.965	1423.867	1384.977
714.831	30.258	1423.299	1386.459
715.846	30.237	1422.072	1384.942
716.860	30.228	1420.189	1382.878
717.875	30.154	1419.006	1381.009
718.889	29.988	1418.360	1378.968
719.904	29.958	1418.014	1378.242
720.919	29.996	1416.420	1376.816
721.933	29.758	1415.375	1373.857
722.948	29.754	1414.547	1372.855
723.962	29.880	1413.520	1372.633
724.977	30.077	1412.476	1372.925
725.992	30.242	1410.674	1372.235
727.006	30.483	1410.098	1373.303
728.021	30.354	1408.992	1371.101
729.035	30.512	1407.788	1370.942
730.050	30.576	1406.846	1370.335
731.065	30.388	1405.749	1367.710
732.079	30.238	1404.477	1365.195
733.094	30.390	1403.392	1365.102
734.108	30.326	1402.650	1363.746
735.123	30.202	1400.815	1360.885
736.138	30.080	1399.418	1358.460
737.152	30.078	1398.809	1357.697
738.167	30.220	1397.479	1357.288
739.181	30.271	1396.846	1356.884
740.196	30.343	1396.238	1356.662
741.211	30.228	1395.229	1354.675
742.225	29.972	1393.807	1351.249
743.240	30.003	1392.457	1350.009
744.254	29.741	1390.170	1345.717
745.269	29.494	1389.440	1343.041
746.284	29.314	1387.967	1340.143
747.298	29.109	1386.905	1337.461
748.313	29.235	1386.313	1337.647
749.327	29.477	1386.270	1339.208
750.342	29.943	1385.686	1341.883
751.356	30.152	1384.883	1342.467
752.371	30.139	1382.834	1340.225
753.386	29.641	1381.532	1335.186
754.400	29.565	1381.268	1334.218
755.415	30.161	1380.760	1337.889
756.429	30.486	1379.145	1338.524
757.444	30.547	1378.794	1338.459
758.459	30.387	1377.325	1335.715
759.473	30.062	1376.085	1332.008
760.488	29.948	1374.308	1329.304
761.502	29.748	1373.462	1326.884
762.517	29.698	1372.609	1325.546
763.532	30.121	1370.989	1326.863
764.546	29.812	1368.827	1322.391
765.561	29.329	1367.263	1317.257
766.575	28.601	1366.128	1310.778
767.590	28.512	1365.367	1309.252
768.605	29.496	1364.921	1315.723
769.619	29.782	1363.997	1316.719
770.634	29.958	1363.434	1317.278
771.648	29.859	1362.248	1315.270
772.663	29.780	1360.568	1312.925
773.678	29.904	1360.838	1313.917
774.692	30.221	1360.595	1315.783
775.707	30.221	1360.260	1315.303
776.721	30.172	1359.264	1313.831
777.736	30.151	1357.530	1311.853
778.751	30.197	1357.284	1311.782
779.765	30.226	1356.139	1310.726
780.780	30.069	1354.842	1308.199
781.794	30.097	1354.390	1307.805
782.809	29.728	1352.966	1303.659
783.824	29.314	1350.556	1298.252
784.838	29.375	1349.364	1297.378
785.853	29.727	1349.157	1299.518
786.867	29.836	1348.214	1299.222
787.882	29.462	1347.513	1295.749
788.897	29.352	1346.286	1293.639
789.911	29.234	1345.067	1291.483
790.926	29.122	1343.722	1289.248
791.940	29.254	1342.628	1288.970
792.955	29.439	1341.838	1289.357
793.969	29.487	1340.804	1288.551
794.984	29.696	1339.873	1288.961
795.999	29.902	1339.889	1290.271
797.013	30.116	1337.872	1289.669
798.028	30.051	1336.678	1287.912
799.042	30.025	1336.591	1287.488
800.057	29.966	1334.906	1285.304
801.072	30.071	1333.491	1284.517
802.086	30.081	1332.732	1283.703
803.101	30.000	1331.705	1281.992
804.115	29.828	1331.369	1280.322
805.130	29.916	1329.849	1279.317
806.145	29.971	1328.187	1277.948
807.159	29.667	1326.094	1273.674
808.174	29.731	1325.505	1273.398
809.188	29.951	1324.327	1273.634
810.203	29.644	1323.056	1270.143
811.218	29.476	1321.237	1267.086
812.232	29.016	1319.365	1261.967
813.247	28.588	1318.173	1257.724
814.261	29.100	1318.676	1261.586
815.276	29.620	1318.320	1264.671
816.291	29.464	1317.120	1262.298
817.305	29.353	1316.136	1260.442
818.320	29.682	1314.838	1261.303
819.334	29.787	1314.060	1261.124
820.349	30.041	1312.494	1261.213
821.364	29.982	1311.220	1259.432
822.378	29.885	1310.242	1257.679
823.393	29.895	1308.881	1256.292
824.407	29.734	1308.338	1254.522
825.422	29.797	1307.324	1253.832
826.437	29.615	1306.328	1251.482
827.451	29.340	1303.563	1246.815
828.466	29.446	1303.101	1246.942
829.480	29.708	1301.899	1247.421
830.495	29.446	1299.682	1243.378
831.509	29.303	1298.841	1241.456
832.524	29.330	1297.748	1240.447
833.539	29.733	1296.187	1241.525
834.553	29.842	1295.349	1241.310
835.568	29.948	1294.499	1241.062
836.582	29.746	1294.043	1239.112
837.597	29.952	1292.149	1238.538
838.612	29.860	1290.026	1235.738
839.626	29.512	1289.660	1232.902
840.641	29.462	1288.546	1231.351
841.655	29.277	1287.415	1228.888
842.670	28.844	1285.551	1224.065
843.685	28.274	1284.508	1219.112
844.699	28.855	1283.865	1222.236
845.714	29.261	1283.064	1224.042
846.728	29.177	1282.270	1222.574
847.743	29.308	1281.469	1222.539
848.758	29.541	1280.435	1222.955
849.772	29.844	1279.653	1224.080
850.787	29.687	1278.700	1221.977
851.801	29.607	1277.763	1220.404
852.816	29.646	1276.458	1219.274
853.831	29.595	1274.589	1217.001
854.845	29.470	1272.480	1214.014
855.860	29.315	1271.096	1211.527
856.874	29.162	1269.394	1208.750
857.889	29.315	1269.324	1209.546
858.904	29.487	1268.285	1209.549
859.918	29.743	1266.815	1209.684
860.933	29.760	1266.303	1209.163
861.947	29.634	1264.749	1206.709
862.962	29.334	1263.285	1203.195
863.977	29.245	1262.233	1201.470
864.991	29.308	1261.098	1200.656
866.006	29.308	1260.601	1200.039
867.020	29.419	1259.637	1199.702
868.035	29.614	1258.049	1199.317
869.049	29.534	1258.279	1198.876
870.064	29.756	1256.861	1198.826
871.079	29.626	1255.899	1196.921
872.093	29.373	1255.367	1194.619
873.108	29.249	1254.241	1192.601
874.122	29.199	1252.416	1190.395
875.137	28.977	1251.147	1187.609
876.152	28.700	1250.307	1184.872
877.166	28.838	1248.515	1183.924
878.181	28.842	1247.519	1182.864
879.195	29.095	1247.335	1184.187
880.210	29.322	1247.418	1185.590
881.225	29.458	1246.275	1185.240
882.239	29.503	1245.583	1184.733
883.254	29.625	1244.811	1184.638
884.268	29.552	1243.591	1182.868
885.283	29.614	1242.136	1181.739
886.298	29.544	1240.740	1179.820
887.312	29.528	1239.679	1178.567
888.327	29.403	1238.738	1176.734
889.341	29.623	1236.997	1176.344
890.356	29.406	1236.206	1174.065
891.371	29.355	1235.964	1173.366
892.385	29.190	1235.491	1171.723
893.400	29.070	1234.574	1169.947
894.414	29.169	1232.773	1168.734
895.429	29.307	1231.676	1168.430
896.444	29.787	1230.783	1170.498
897.458	30.119	1230.218	1171.931
898.473	29.736	1229.213	1168.399
899.487	29.314	1227.745	1164.190
900.502	29.148	1225.581	1160.948
901.517	29.203	1224.614	1160.238
902.531	29.393	1223.644	1160.380
903.546	29.415	1223.480	1160.227
904.560	29.318	1223.213	1159.223
905.575	29.396	1221.819	1158.257
906.589	29.372	1220.863	1157.055
907.604	29.286	1219.697	1155.272
