DTS Sentinel unit serial number:	SN409020Multiplexer serial number:	ORYXHardware model number:	OX4-SRSoftware version number:	ORYX F/W v3.00 Oryx Data Collector v3.7.2.0data status	okinstallation	HaddamTimeLapsedifferential loss correction	single-endedforward channel	channel 3reverse channel	N/Adate	2011/06/21time	18:11:17forward acquisition time	30.00reverse acquisition time	0.00gamma	498.7831k internal	0.1833k external	0.1833temperature offset calibration	1.0074default loss term (dB/km)	0.3790temperature slope calibration	1.3530multiplexer offset coefficient	1.0000multiplexer slope coefficient	1.0000fibre end	0.00T internal ref (°C)	36.44T ext. ref 1 (°C)	28.20T ext. ref 2 (°C)	0.26length (m)	temperature (°C)	Stokes	anti-Stokes-747.200	-86.269	-0.269	0.105
-746.185	-136.520	0.210	0.031
-745.171	-200.000	-0.030	0.172
-744.156	94.719	0.136	0.196
-743.142	-18.528	0.308	-0.243
-742.127	-200.000	0.035	0.255
-741.112	-200.000	-0.006	0.259
-740.098	360.954	-0.191	-0.488
-739.083	108.360	-0.027	0.040
-738.069	800.000	0.143	0.518
-737.054	-200.000	0.023	0.384
-736.039	56.163	0.257	0.317
-735.025	49.794	-0.266	-0.318
-734.010	-20.449	0.149	0.116
-732.996	-81.794	-0.358	-0.148
-731.981	-85.527	-0.443	0.174
-730.966	212.267	0.239	0.479
-729.952	464.736	-0.011	-0.032
-728.937	314.300	-0.173	-0.416
-727.923	78.803	0.106	-0.145
-726.908	-200.000	0.051	-0.331
-725.894	-69.790	-0.300	-0.145
-724.879	-151.002	-0.141	-0.013
-723.864	-159.529	-0.286	-0.020
-722.850	148.900	0.206	-0.354
-721.835	-200.000	-0.036	-0.352
-720.821	-200.000	0.018	-0.453
-719.806	-200.000	-0.038	-0.306
-718.791	800.000	0.082	0.322
-717.777	-14.523	-0.135	0.110
-716.762	-10.380	-0.216	-0.181
-715.748	19.850	0.177	0.180
-714.733	-200.000	0.035	0.438
-713.718	90.470	-0.173	-0.246
-712.704	-100.547	-0.269	-0.084
-711.689	800.000	0.105	0.474
-710.675	53.117	0.160	0.195
-709.660	-200.000	-0.015	0.107
-708.645	-115.485	0.040	0.009
-707.631	577.258	-0.083	0.258
-706.616	800.000	0.108	0.514
-705.602	-106.695	0.182	-0.051
-704.587	20.196	-0.415	-0.425
-703.572	49.160	-0.205	0.244
-702.558	213.550	-0.204	0.410
-701.543	333.047	-0.030	0.073
-700.529	68.313	-0.199	0.259
-699.514	73.382	-0.256	-0.340
-698.499	-136.770	-0.328	0.047
-697.485	-200.000	-0.045	-0.303
-696.470	46.579	0.242	0.284
-695.456	174.445	-0.035	-0.064
-694.441	66.306	0.155	0.199
-693.426	12.633	-0.147	0.144
-692.412	800.000	-0.172	0.634
-691.397	-86.311	-0.264	0.102
-690.383	-47.065	-0.015	-0.009
-689.368	296.097	0.106	0.246
-688.354	395.359	0.087	-0.232
-687.339	-165.339	-0.372	-0.020
-686.324	-200.000	0.025	-0.254
-685.310	-33.682	-0.032	-0.022
-684.295	89.075	0.223	0.315
-683.281	19.422	0.247	-0.251
-682.266	139.079	-0.094	0.157
-681.251	-89.485	-0.260	-0.096
-680.237	-120.384	-0.462	-0.099
-679.222	53.640	-0.311	-0.378
-678.208	214.320	-0.217	-0.436
-677.193	154.170	-0.131	0.228
-676.178	800.000	0.038	-0.173
-675.164	108.872	0.126	0.191
-674.149	296.502	-0.071	0.164
-673.135	-100.434	0.369	-0.115
-672.120	-200.000	0.024	-0.336
-671.105	-102.848	0.313	-0.094
-670.091	-200.000	-0.032	0.253
-669.076	-10.120	0.129	-0.108
-668.062	-3.628	-0.440	-0.386
-667.047	-85.426	-0.270	0.106
-666.032	-55.326	0.282	-0.160
-665.018	-117.297	0.572	-0.130
-664.003	-94.530	0.223	-0.076
-662.989	-75.637	-0.158	0.071
-661.974	800.000	0.028	0.137
-660.959	800.000	-0.107	-0.521
-659.945	-200.000	0.027	0.161
-658.930	-200.000	-0.045	-0.439
-657.916	232.692	0.148	0.309
-656.901	-164.378	0.320	-0.018
-655.886	11.211	0.227	-0.219
-654.872	800.000	-0.035	-0.155
-653.857	-200.000	0.056	0.407
-652.843	65.104	0.114	-0.146
-651.828	-200.000	-0.016	0.283
-650.814	-85.259	-0.388	0.153
-649.799	15.079	0.568	0.562
-648.784	800.000	-0.098	0.481
-647.770	-107.764	0.076	-0.021
-646.755	27.901	-0.248	0.264
-645.741	-200.000	-0.036	0.396
-644.726	-102.867	-0.202	-0.060
-643.711	-174.418	0.524	-0.019
-642.697	337.904	0.251	-0.619
-641.682	-200.000	0.010	0.162
-640.668	-200.000	-0.054	-0.391
-639.653	-115.075	0.233	0.056
-638.638	800.000	0.084	0.340
-637.624	-36.120	-0.379	-0.258
-636.609	-200.000	-0.029	-0.253
-635.595	-12.082	0.072	-0.060
-634.580	627.520	-0.117	-0.376
-633.565	-35.921	0.493	-0.336
-632.551	-72.179	-0.531	0.248
-631.536	-83.270	0.471	0.190
-630.522	-79.334	0.582	0.248
-629.507	38.153	0.186	0.209
-628.492	-200.000	-0.056	0.331
-627.478	800.000	0.081	0.359
-626.463	-73.302	-0.152	-0.070
-625.449	-165.855	-0.389	0.021
-624.434	32.593	0.275	0.300
-623.419	139.913	0.166	0.276
-622.405	-64.538	0.167	-0.085
-621.390	-55.659	-0.124	0.070
-620.376	-17.821	0.280	0.221
-619.361	346.409	0.141	0.351
-618.346	-200.000	0.076	-0.469
-617.332	800.000	-0.129	0.516
-616.317	-200.000	0.037	-0.341
-615.303	-92.768	-0.253	0.089
-614.288	412.109	0.141	0.380
-613.273	199.391	0.192	-0.372
-612.259	53.082	0.149	0.180
-611.244	-108.064	-0.141	-0.038
-610.230	-150.815	0.485	0.046
-609.215	231.328	0.146	-0.304
-608.201	-196.732	0.372	0.003
-607.186	-115.700	0.557	0.131
-606.171	-200.000	-0.001	-0.244
-605.157	-25.532	-0.216	-0.161
-604.142	-162.145	-0.149	0.009
-603.128	-31.761	-0.039	-0.027
-602.113	507.246	0.057	0.167
-601.098	-65.684	0.255	0.128
-600.084	-122.193	-0.444	-0.091
-599.069	437.251	-0.036	-0.099
-598.055	-125.850	0.123	-0.023
-597.040	-76.449	0.149	0.066
-596.025	-42.325	-0.401	0.258
-595.011	-200.000	0.017	0.113
-593.996	-96.533	-0.196	0.065
-592.982	174.938	0.136	-0.249
-591.967	164.973	-0.092	-0.165
-590.952	-61.022	0.234	0.124
-589.938	-200.000	-0.011	-0.262
-588.923	-12.081	0.326	-0.269
-587.909	-8.551	-0.115	-0.097
-586.894	-123.288	0.283	0.057
-585.879	-69.216	0.236	-0.114
-584.865	-200.000	0.226	0.000
-583.850	463.442	-0.109	-0.307
-582.836	-83.028	-0.136	-0.055
-581.821	124.225	0.060	-0.095
-580.806	44.691	-0.370	-0.430
-579.792	562.506	0.025	0.077
-578.777	76.808	-0.386	-0.518
-577.763	-39.888	-0.096	0.063
-576.748	-42.950	-0.081	-0.052
-575.733	800.000	0.123	-0.638
-574.719	278.801	0.125	-0.281
-573.704	-49.039	-0.215	0.129
-572.690	-114.656	0.644	0.154
-571.675	-2.024	0.197	-0.174
-570.661	85.657	0.112	-0.155
-569.646	-63.385	-0.248	0.128
-568.631	290.936	0.151	-0.348
-567.617	-154.287	-0.333	-0.028
-566.602	410.086	0.161	0.432
-565.588	369.288	-0.103	0.263
-564.573	-38.925	-0.169	0.112
-563.558	64.034	0.268	-0.341
-562.544	36.467	0.029	-0.032
-561.529	322.877	-0.008	0.020
-560.515	55.681	-0.275	-0.336
-559.500	-102.400	0.283	-0.085
-558.485	-200.000	0.062	-0.380
-557.471	89.830	0.184	-0.259
-556.456	-101.221	0.647	-0.198
-555.442	-148.663	0.281	-0.028
-554.427	44.466	-0.116	0.135
-553.412	-102.639	-0.419	-0.125
-552.398	-131.589	-0.378	0.062
-551.383	50.171	0.147	0.175
-550.369	-192.565	0.192	0.002
-549.354	800.000	-0.122	-0.473
-548.339	-200.000	0.005	-0.604
-547.325	-40.718	0.176	0.114
-546.310	430.768	-0.030	0.081
-545.296	776.488	-0.204	-0.707
-544.281	-99.689	-0.376	0.118
-543.266	509.974	0.177	-0.521
-542.252	-113.392	-0.179	-0.044
-541.237	800.000	-0.079	0.368
-540.223	13.650	-0.176	-0.172
-539.208	69.370	-0.095	-0.123
-538.193	-83.124	-0.169	-0.068
-537.179	93.576	0.135	0.193
-536.164	317.201	0.096	-0.228
-535.150	-71.400	0.221	0.104
-534.135	800.000	-0.072	0.257
-533.121	-90.890	-0.276	-0.100
-532.106	28.404	-0.321	0.342
-531.091	211.281	-0.288	0.572
-530.077	-18.707	-0.105	0.082
-529.062	-25.071	-0.210	-0.157
-528.048	491.077	0.021	0.061
-527.033	-200.000	0.018	-0.578
-526.018	142.064	-0.176	0.294
-525.004	-11.071	0.263	0.218
-523.989	800.000	0.111	0.435
-522.975	-95.728	0.334	-0.112
-521.960	42.759	-0.258	0.296
-520.945	800.000	-0.083	0.386
-519.931	-63.451	0.269	-0.138
-518.916	341.998	0.129	-0.319
-517.902	260.175	-0.196	-0.427
-516.887	-89.653	0.137	0.050
-515.872	-28.308	-0.241	0.175
-514.858	-57.517	0.503	-0.277
-513.843	-29.446	-0.181	-0.130
-512.829	18.988	-0.398	-0.401
-511.814	-24.558	-0.177	0.132
-510.799	69.682	0.088	-0.115
-509.785	-97.203	-0.275	0.090
-508.770	490.106	0.120	0.346
-507.756	-49.993	-0.155	-0.092
-506.741	-200.000	-0.050	0.493
-505.726	-200.000	-0.019	-0.266
-504.712	-6.435	0.479	-0.410
-503.697	380.710	0.210	-0.544
-502.683	-84.697	-0.335	0.132
-501.668	-19.326	-0.453	-0.353
-500.653	17.900	0.278	0.278
-499.639	176.725	0.212	0.389
-498.624	-60.881	-0.232	0.123
-497.610	-47.971	-0.194	0.117
-496.595	89.859	-0.304	0.427
-495.581	-41.988	0.080	0.051
-494.566	-200.000	-0.001	-0.145
-493.551	-200.000	-0.049	-0.689
-492.537	-5.167	0.293	-0.253
-491.522	334.109	0.077	-0.188
-490.508	127.057	0.107	0.171
-489.493	-109.794	0.492	-0.129
-488.478	2.462	0.178	0.162
-487.464	237.576	-0.309	-0.645
-486.449	329.688	0.069	-0.167
-485.435	-200.000	-0.043	-0.373
-484.420	-147.432	0.126	-0.013
-483.405	-169.727	-0.337	0.015
-482.391	46.432	-0.362	0.422
-481.376	353.365	-0.242	0.606
-480.362	800.000	-0.085	-0.404
-479.347	-43.545	-0.446	0.282
-478.332	-79.149	-0.361	0.153
-477.318	-116.465	-0.241	-0.055
-476.303	269.561	-0.061	0.134
-475.289	-200.000	-0.043	0.629
-474.274	-200.000	-0.007	0.457
-473.259	741.446	0.095	0.323
-472.245	-200.000	-0.008	0.301
-471.230	-149.384	0.420	-0.041
-470.216	280.667	0.114	0.258
-469.201	308.456	0.128	0.302
-468.186	-84.818	0.202	0.079
-467.172	-5.434	-0.412	0.354
-466.157	78.193	-0.202	-0.270
-465.143	-20.396	-0.061	0.047
-464.128	800.000	0.036	0.169
-463.113	530.788	-0.129	0.384
-462.099	-67.106	-0.263	0.130
-461.084	-102.928	0.448	0.133
-460.070	-72.688	0.117	0.054
-459.055	326.536	0.183	-0.441
-458.040	-200.000	-0.043	-0.504
-457.026	800.000	-0.110	-0.382
-456.011	-116.812	0.085	0.020
-454.997	-115.297	0.604	-0.142
-453.982	13.831	-0.129	0.125
-452.968	-138.874	-0.257	-0.035
-451.953	-7.720	-0.167	0.141
-450.938	-20.174	0.016	0.012
-449.924	-36.812	0.266	-0.179
-448.909	800.000	-0.057	-0.220
-447.895	-200.000	-0.017	-0.095
-446.880	-200.000	0.003	-0.331
-445.865	-200.000	0.145	-0.001
-444.851	-104.091	-0.154	0.045
-443.836	115.402	0.224	0.344
-442.822	-200.000	-0.062	0.515
-441.807	457.568	0.137	0.382
-440.792	-200.000	-0.041	0.246
-439.778	-131.701	0.169	-0.028
-438.763	-54.712	0.287	-0.162
-437.749	-77.024	0.291	-0.127
-436.734	-111.212	-0.527	0.134
-435.719	-82.561	-0.174	-0.070
-434.705	116.981	0.042	0.065
-433.690	-200.000	0.063	0.549
-432.676	756.282	0.119	0.407
-431.661	-73.356	-0.104	0.047
-430.646	584.466	-0.159	0.493
-429.632	25.991	-0.336	-0.351
-428.617	-47.520	0.496	0.301
-427.603	76.769	-0.131	0.175
-426.588	691.898	-0.203	-0.671
-425.573	-145.261	-0.340	-0.038
-424.559	-180.628	-0.311	-0.008
-423.544	128.777	-0.081	-0.130
-422.530	165.530	-0.065	0.116
-421.515	194.394	0.182	-0.346
-420.500	5.352	-0.391	-0.361
-419.486	420.927	-0.053	0.142
-418.471	800.000	0.050	-0.233
-417.457	65.125	-0.194	0.246
-416.442	-121.534	-0.270	-0.056
-415.428	-5.319	-0.342	0.294
-414.413	90.141	-0.257	-0.361
-413.398	28.705	-0.410	0.434
-412.384	800.000	0.135	-0.687
-411.369	41.644	-0.151	-0.171
-410.355	800.000	0.075	0.384
-409.340	217.209	-0.207	-0.415
-408.325	-23.202	0.308	0.231
-407.311	800.000	0.109	0.507
-406.296	48.023	0.222	0.260
-405.282	65.339	0.075	0.095
-404.267	-200.000	-0.001	-0.357
-403.252	-200.000	0.003	0.332
-402.238	-200.000	0.028	-0.420
-401.223	-82.146	0.344	-0.140
-400.209	205.135	-0.138	0.268
-399.194	-42.757	-0.195	-0.124
-398.179	199.902	0.080	-0.154
-397.165	-45.161	0.104	-0.064
-396.150	105.762	0.289	-0.428
-395.136	420.765	-0.030	-0.082
-394.121	313.144	-0.168	-0.397
-393.106	-126.485	-0.449	-0.083
-392.092	-40.297	-0.174	-0.113
-391.077	351.850	-0.192	-0.477
-390.063	-200.000	0.115	-0.000
-389.048	-15.559	-0.454	-0.362
-388.033	73.294	-0.212	-0.278
-387.019	-54.794	0.417	-0.235
-386.004	-118.002	-0.522	0.116
-384.990	87.888	-0.167	0.233
-383.975	-3.717	-0.240	0.208
-382.960	-60.899	0.169	0.089
-381.946	-85.883	-0.378	0.145
-380.931	-122.950	-0.084	0.017
-379.917	64.214	-0.078	-0.099
-378.902	-200.000	-0.019	0.297
-377.888	357.582	0.059	-0.147
-376.873	-200.000	-0.003	0.190
-375.858	-56.013	-0.101	0.056
-374.844	168.245	-0.130	-0.232
-373.829	-200.000	0.044	-0.390
-372.815	-136.800	-0.313	-0.045
-371.800	-31.743	-0.159	0.111
-370.785	800.000	0.079	-0.285
-369.771	-37.229	-0.358	-0.239
-368.756	17.907	-0.250	0.249
-367.742	127.800	-0.103	0.163
-366.727	-12.669	0.093	0.076
-365.712	524.089	-0.103	0.305
-364.698	-200.000	-0.047	0.289
-363.683	-59.629	0.390	0.209
-362.669	65.088	0.058	-0.073
-361.654	-48.181	0.094	-0.056
-360.639	245.316	-0.209	0.441
-359.625	116.229	0.223	0.342
-358.610	-115.023	0.599	0.141
-357.596	356.562	-0.120	-0.301
-356.581	50.845	-0.105	-0.124
-355.566	-119.465	0.377	-0.081
-354.552	-200.000	-0.003	0.463
-353.537	800.000	0.073	0.299
-352.523	66.319	-0.100	0.127
-351.508	-72.959	0.107	-0.049
-350.493	-181.587	0.245	0.006
-349.479	-178.697	0.233	-0.007
-348.464	-39.636	-0.122	-0.080
-347.450	800.000	0.014	-0.071
-346.435	204.518	-0.152	-0.295
-345.420	-70.186	0.216	0.102
-344.406	-81.458	0.434	0.177
-343.391	-200.000	0.030	-0.452
-342.377	26.409	0.099	-0.103
-341.362	-25.206	-0.406	0.300
-340.348	141.423	-0.008	0.014
-339.333	39.998	0.130	-0.146
-338.318	620.722	0.016	-0.050
-337.304	215.250	0.214	-0.425
-336.289	-200.000	-0.000	-0.115
-335.275	66.279	0.153	0.194
-334.260	800.000	0.070	0.288
-333.245	547.967	0.082	-0.246
-332.231	-148.562	-0.612	0.062
-331.216	87.659	-0.128	0.177
-330.202	-200.000	0.025	-0.330
-329.187	-126.647	0.791	0.145
-328.172	295.490	0.117	0.268
-327.158	-84.047	-0.247	-0.098
-326.143	-200.000	0.003	-0.349
-325.129	-158.895	-0.409	0.029
-324.114	-147.546	0.443	0.046
-323.099	518.446	0.037	-0.109
-322.085	61.107	0.206	0.255
-321.070	209.377	-0.109	-0.215
-320.056	-133.977	0.515	-0.079
-319.041	463.215	-0.044	-0.124
-318.026	-125.316	-0.391	0.074
-317.012	800.000	-0.070	-0.327
-315.997	202.435	-0.115	0.222
-314.983	-5.832	-0.331	-0.282
-313.968	85.472	0.244	-0.334
-312.953	-138.873	0.166	0.022
-311.939	72.664	0.123	-0.160
-310.924	800.000	-0.081	-0.291
-309.910	-154.429	-0.093	-0.008
-308.895	1.766	-0.109	-0.098
-307.880	-116.867	0.271	-0.061
-306.866	-200.000	0.011	0.243
-305.851	-159.338	0.367	0.025
-304.837	800.000	0.092	0.353
-303.822	800.000	0.029	0.138
-302.807	-76.006	0.237	0.104
-301.793	-200.000	0.083	0.520
-300.778	101.676	-0.331	0.481
-299.764	71.281	-0.180	0.233
-298.749	-200.000	-0.037	0.418
-297.735	-200.000	0.081	-0.559
-296.720	-106.853	-0.124	0.034
-295.705	-114.143	0.148	-0.036
-294.691	-86.740	0.397	0.151
-293.676	-200.000	0.067	0.406
-292.662	23.727	0.233	-0.240
-291.647	-95.577	0.031	0.010
-290.632	-107.584	0.378	0.102
-289.618	6.650	-0.075	0.070
-288.603	133.110	-0.228	0.369
-287.589	-200.000	0.001	-0.075
-286.574	-44.897	-0.463	-0.287
-285.559	-200.000	-0.024	0.184
-284.545	-59.117	-0.165	0.088
-283.530	-103.109	0.245	-0.072
-282.516	48.049	0.052	-0.060
-281.501	-113.988	0.088	-0.021
-280.486	-58.337	-0.132	0.072
-279.472	536.788	0.101	-0.299
-278.457	27.191	0.108	0.113
-277.443	-157.189	0.251	-0.019
-276.428	-200.000	0.074	-0.908
-275.413	-56.081	-0.191	-0.106
-274.399	4.686	-0.175	0.160
-273.384	800.000	-0.093	-0.366
-272.370	-200.000	0.032	-0.369
-271.355	-105.170	-0.264	-0.075
-270.340	-200.000	-0.008	-0.375
-269.326	76.850	0.162	-0.215
-268.311	186.115	-0.170	0.316
-267.297	-14.243	-0.167	0.133
-266.282	-146.201	0.622	-0.067
-265.267	-200.000	-0.007	0.281
-264.253	-78.261	-0.273	0.116
-263.238	800.000	0.039	0.213
-262.224	-86.812	-0.194	0.074
-261.209	46.883	-0.111	-0.129
-260.195	-20.168	0.346	-0.265
-259.180	0.539	0.030	-0.027
-258.165	70.896	0.048	0.062
-257.151	-86.277	-0.454	-0.173
-256.136	-200.000	0.016	0.418
-255.122	-92.681	0.375	0.130
-254.107	-138.613	-0.237	0.032
-253.092	356.934	0.034	-0.085
-252.078	-200.000	-0.025	-0.235
-251.063	-200.000	0.017	0.320
-250.049	-200.000	-0.043	0.512
-249.034	3.982	0.204	-0.186
-248.019	22.301	-0.141	0.143
-247.005	-124.360	-0.307	0.059
-245.990	-53.427	0.197	0.112
-244.976	800.000	-0.057	0.241
-243.961	-133.126	0.448	0.070
-242.946	-153.616	0.071	0.006
-241.932	-62.389	-0.390	0.201
-240.917	11.115	-0.361	0.344
-239.903	378.902	-0.069	0.177
-238.888	336.415	0.045	0.108
-237.873	800.000	0.052	-0.200
-236.859	504.371	-0.103	-0.299
-235.844	319.908	0.127	-0.302
-234.830	-29.816	0.261	-0.185
-233.815	-61.203	-0.343	-0.179
-232.800	34.060	-0.325	-0.353
-231.786	-89.363	-0.424	0.154
-230.771	800.000	0.138	0.645
-229.757	-69.619	0.295	-0.140
-228.742	95.651	0.084	0.119
-227.727	-200.000	-0.001	-0.098
-226.713	800.000	0.033	-0.154
-225.698	-86.049	-0.110	0.042
-224.684	229.508	0.180	0.366
-223.669	-2.402	-0.247	0.215
-222.655	140.712	0.011	0.017
-221.640	-200.000	-0.018	0.363
-220.625	-25.894	0.255	0.187
-219.611	398.919	0.188	-0.491
-218.596	800.000	-0.131	-0.462
-217.582	-153.074	-0.271	-0.023
-216.567	-71.612	-0.245	-0.113
-215.552	102.803	0.041	0.060
-214.538	800.000	-0.111	-0.392
-213.523	369.081	-0.073	0.185
-212.509	54.675	0.057	0.068
-211.494	683.898	0.091	-0.298
-210.479	-157.705	-0.322	-0.023
-209.465	-33.320	-0.239	-0.164
-208.450	-162.817	-0.393	0.023
-207.436	-103.419	0.172	-0.050
-206.421	109.394	0.099	0.147
-205.406	-200.000	0.006	0.181
-204.392	-113.630	-0.625	-0.150
-203.377	204.621	0.153	0.296
-202.363	171.185	-0.076	-0.136
-201.348	-200.000	-0.041	0.345
-200.333	-200.000	0.044	0.337
-199.319	-200.000	-0.029	0.331
-198.304	14.961	-0.237	-0.230
-197.290	-200.000	0.023	0.329
-196.275	-9.713	0.211	0.174
-195.260	67.710	0.260	0.330
-194.246	-96.282	-0.398	-0.130
-193.231	5.231	0.383	0.351
-192.217	76.809	-0.152	0.201
-191.202	-200.000	-0.060	0.348
-190.187	-19.694	0.461	-0.353
-189.173	748.136	0.085	-0.286
-188.158	374.890	-0.151	-0.383
-187.144	242.272	0.184	0.383
-186.129	67.013	-0.091	-0.115
-185.114	-200.000	-0.004	-0.226
-184.100	-55.135	0.244	0.136
-183.085	-40.246	0.532	0.343
-182.071	-151.156	0.347	-0.032
-181.056	-87.061	0.181	0.068
-180.042	2.944	-0.110	0.099
-179.027	-13.644	-0.287	-0.230
-178.012	-200.000	-0.031	-0.467
-176.998	-200.000	0.020	-0.114
-175.983	-198.839	0.039	-0.000
-174.969	431.969	0.100	0.269
-173.954	367.878	-0.165	0.416
-172.939	-95.248	0.185	-0.061
-171.925	-153.764	0.315	-0.026
-170.910	-113.314	0.302	0.073
-169.896	-63.840	0.415	0.210
-168.881	800.000	0.145	0.579
-167.866	-112.849	0.311	0.076
-166.852	-145.599	-0.234	0.026
-165.837	-5.207	0.178	0.151
-164.823	-75.777	0.217	-0.095
-163.808	-92.729	-0.159	-0.055
-162.793	-178.743	-0.404	0.011
-161.779	588.794	0.078	-0.239
-160.764	800.000	-0.147	-0.551
-159.750	140.269	-0.223	-0.366
-158.735	-87.112	0.300	-0.112
-157.720	-64.198	0.320	-0.161
-156.706	617.732	-0.087	0.273
-155.691	-112.784	0.144	-0.035
-154.677	10.794	-0.162	-0.154
-153.662	800.000	0.078	0.426
-152.647	28.019	-0.380	-0.397
-151.633	13.511	-0.457	-0.440
-150.618	212.217	-0.133	0.261
-149.604	277.349	-0.084	-0.185
-148.589	800.000	-0.017	-0.082
-147.574	47.010	0.292	-0.337
-146.560	162.740	0.174	-0.304
-145.545	-22.445	0.088	-0.066
-144.531	-163.632	-0.458	0.026
-143.516	54.485	-0.280	-0.335
-142.502	-87.484	0.429	0.160
-141.487	184.974	-0.119	-0.220
-140.472	-30.136	-0.289	0.203
-139.458	-200.000	-0.014	0.356
-138.443	159.188	-0.105	0.182
-137.429	-38.771	-0.178	0.116
-136.414	-53.766	0.580	0.327
-135.399	322.676	0.030	-0.071
-134.385	-55.343	0.199	-0.110
-133.370	651.721	0.036	-0.116
-132.356	-145.330	0.322	0.036
-131.341	317.459	0.167	0.393
-130.326	-80.591	-0.621	0.255
-129.312	10.179	-0.113	-0.107
-128.297	2.266	-0.289	-0.259
-127.283	-137.566	-0.387	-0.053
-126.268	420.446	-0.126	-0.336
-125.253	119.074	0.186	-0.286
-124.239	800.000	0.060	0.243
-123.224	-134.588	-0.444	-0.066
-122.210	308.181	0.108	-0.250
-121.195	-150.429	-0.537	-0.050
-120.180	-1.997	-0.066	-0.057
-119.166	-116.793	-0.378	-0.085
-118.151	-13.764	0.023	-0.019
-117.137	44.237	0.148	-0.168
-116.122	181.538	-0.201	-0.367
-115.107	-121.070	-0.458	0.094
-114.093	-82.720	-0.268	-0.107
-113.078	-117.283	0.216	-0.048
-112.064	88.984	0.130	0.179
-111.049	800.000	0.056	-0.228
-110.034	-200.000	-0.307	-0.000
-109.020	75.392	0.276	-0.361
-108.005	-200.000	0.023	-0.398
-106.991	-200.000	-0.056	-0.660
-105.976	83.342	0.258	-0.348
-104.962	-200.000	0.057	-0.570
-103.947	121.369	-0.154	-0.238
-102.932	800.000	0.163	-0.668
-101.918	-200.000	0.031	-0.585
-100.903	-131.803	0.699	-0.112
-99.889	-119.952	-0.270	0.057
-98.874	285.793	0.192	0.429
-97.859	281.478	0.023	-0.052
-96.845	-145.395	-0.400	-0.044
-95.830	-36.810	-0.711	-0.471
-94.816	117.821	-0.097	-0.149
-93.801	203.286	-0.162	0.311
-92.786	-200.000	-0.062	-0.482
-91.772	-102.727	0.083	0.024
-90.757	-56.714	0.438	-0.239
-89.743	31.363	-0.113	-0.120
-88.728	180.728	0.154	-0.281
-87.713	419.516	-0.100	-0.267
-86.699	187.376	-0.251	0.465
-85.684	800.000	0.072	0.386
-84.670	-38.715	0.045	0.029
-83.655	-200.000	-0.023	0.297
-82.640	-2.736	-0.169	0.146
-81.626	-109.852	-0.238	0.061
-80.611	-154.438	-0.360	-0.029
-79.597	-59.770	-0.031	0.017
-78.582	234.176	0.103	-0.210
-77.567	158.474	-0.367	-0.632
-76.553	-175.130	-0.251	0.008
-75.538	670.199	-0.130	0.418
-74.524	116.338	-0.268	0.407
-73.509	-167.423	-0.267	0.013
-72.494	-200.000	0.032	-0.293
-71.480	82.404	0.036	-0.049
-70.465	1.538	-0.168	-0.149
-69.451	800.000	-0.040	0.198
-68.436	-67.362	-0.106	-0.051
-67.422	-200.000	0.008	-0.172
-66.407	-137.336	-0.804	0.112
-65.392	45.086	0.189	0.215
-64.378	229.892	0.175	0.354
-63.363	-91.991	-0.219	-0.076
-62.349	-187.803	0.473	0.007
-61.334	16.480	-1.160	-1.132
-60.319	-97.357	0.448	-0.143
-59.305	515.323	-2.101	-6.093
-58.290	-1.104	3.119	2.722
-57.276	411.311	4.022	10.594
-56.261	-200.000	13.561	212.079
-55.246	499.453	1139.805	3262.177
-54.232	68.283	2787.359	3530.108
-53.217	76.091	2697.650	3529.780
-52.203	86.722	2429.802	3316.181
-51.188	36.684	2084.309	2274.058
-50.173	39.467	1954.229	2162.827
-49.159	37.501	1943.746	2129.523
-48.144	37.043	1938.609	2118.785
-47.130	36.855	1937.482	2115.404
-46.115	36.862	1935.212	2112.916
-45.100	36.709	1934.256	2110.113
-44.086	36.714	1932.356	2108.014
-43.071	36.673	1931.213	2106.233
-42.057	36.623	1929.790	2104.051
-41.042	36.749	1928.316	2103.734
-40.027	36.674	1926.735	2101.103
-39.013	36.586	1924.776	2097.928
-37.998	36.619	1924.142	2097.510
-36.984	36.604	1922.786	2095.786
-35.969	36.566	1921.576	2093.978
-34.954	36.571	1920.609	2092.895
-33.940	36.622	1919.129	2091.753
-32.925	36.683	1917.953	2091.043
-31.911	36.641	1916.101	2088.486
-30.896	36.543	1914.631	2085.745
-29.881	36.553	1913.798	2084.855
-28.867	36.445	1913.385	2083.157
-27.852	36.409	1911.759	2080.913
-26.838	36.390	1910.033	2078.744
-25.823	36.471	1908.327	2077.681
-24.809	36.345	1906.427	2074.173
-23.794	36.581	1904.853	2074.927
-22.779	36.528	1904.079	2073.426
-21.765	36.439	1903.342	2071.584
-20.750	36.429	1901.076	2068.924
-19.736	36.475	1901.079	2069.341
-18.721	36.337	1900.280	2066.900
-17.706	36.402	1898.028	2065.072
-16.692	36.282	1897.270	2062.871
-15.677	36.371	1896.462	2062.868
-14.663	36.307	1895.086	2060.607
-13.648	36.440	1892.843	2059.506
-12.633	36.353	1892.298	2057.902
-11.619	36.303	1890.877	2055.737
-10.604	36.269	1889.152	2053.421
-9.590	36.348	1887.996	2052.929
-8.575	36.332	1886.645	2051.205
-7.560	36.368	1885.594	2050.368
-6.546	36.281	1884.769	2048.459
-5.531	36.205	1883.786	2046.502
-4.517	36.227	1883.140	2045.951
-3.502	36.320	1881.801	2045.403
-2.487	36.317	1881.279	2044.721
-1.473	36.532	1876.857	2042.126
-0.458	36.337	1857.417	2018.844
0.556	31.756	1986.120	2094.766
1.571	30.152	2200.332	2300.437
2.586	31.879	2249.499	2373.545
3.600	31.893	2252.378	2376.480
4.615	32.077	2251.995	2378.141
5.629	31.790	2249.191	2371.235
6.644	31.748	2248.276	2369.461
7.659	32.037	2246.725	2371.205
8.673	32.410	2245.289	2374.143
9.688	31.506	2247.387	2364.591
10.702	27.543	2314.691	2383.134
11.717	23.901	2376.649	2397.373
12.731	12.399	2348.023	2213.333
13.746	2.007	2319.603	2046.710
14.761	0.297	2314.719	2019.136
15.775	0.257	2312.126	2016.095
16.790	0.236	2309.985	2013.713
17.804	0.082	2309.102	2010.634
18.819	0.124	2307.739	2009.758
19.834	0.102	2306.671	2008.302
20.848	0.114	2305.720	2007.396
21.863	0.097	2303.717	2005.175
22.877	0.149	2301.474	2003.679
23.892	0.165	2299.053	2001.546
24.907	0.134	2296.572	1998.734
25.921	0.071	2295.101	1996.381
26.936	0.214	2292.480	1995.758
27.950	0.076	2291.079	1992.460
28.965	0.133	2288.561	1990.792
29.980	0.079	2288.110	1989.445
30.994	0.200	2286.233	1989.190
32.009	6.274	2306.499	2087.760
33.023	20.770	2348.026	2320.677
34.038	27.123	2361.897	2419.425
35.053	27.706	2360.364	2425.359
36.067	27.812	2358.014	2424.075
37.082	27.662	2355.116	2418.806
38.096	27.473	2354.015	2414.857
39.111	27.997	2351.800	2419.280
40.126	28.083	2351.776	2420.103
41.140	28.624	2350.509	2425.703
42.155	28.174	2347.675	2416.514
43.169	27.918	2344.489	2409.547
44.184	27.861	2341.984	2405.939
45.199	27.813	2339.202	2402.156
46.213	27.522	2338.580	2397.381
47.228	27.606	2337.846	2397.455
48.242	27.640	2336.688	2396.422
49.257	28.004	2335.095	2399.307
50.271	28.360	2332.467	2401.013
51.286	28.111	2330.987	2395.917
52.301	27.923	2328.113	2390.205
53.315	27.941	2326.940	2388.951
54.330	28.001	2326.904	2389.427
55.344	28.260	2324.368	2389.932
56.359	28.564	2321.837	2391.024
57.374	28.303	2319.582	2385.001
58.388	28.197	2315.088	2378.714
59.403	28.084	2312.599	2374.397
60.417	28.025	2310.243	2370.916
61.432	28.456	2309.051	2375.034
62.447	28.200	2307.150	2369.462
63.461	28.249	2303.952	2366.522
64.476	28.308	2301.439	2364.428
65.490	28.514	2301.923	2367.311
66.505	28.312	2300.821	2363.275
67.520	27.900	2298.622	2355.392
68.534	27.545	2295.338	2347.151
69.549	27.498	2290.745	2341.576
70.563	27.463	2289.012	2339.062
71.578	27.585	2288.107	2339.433
72.593	27.887	2286.719	2341.627
73.607	28.026	2284.533	2340.898
74.622	27.696	2283.271	2335.080
75.636	27.671	2279.771	2330.903
76.651	27.683	2277.611	2328.566
77.666	27.786	2275.934	2327.893
78.680	27.710	2273.607	2324.266
79.695	27.716	2270.931	2321.323
80.709	27.331	2270.268	2315.450
81.724	27.352	2266.813	2311.914
82.739	27.747	2265.583	2315.419
83.753	28.032	2265.465	2318.664
84.768	27.897	2263.177	2314.321
85.782	27.818	2260.938	2310.752
86.797	27.847	2258.134	2307.977
87.812	27.615	2255.931	2302.501
88.826	27.406	2255.272	2298.906
89.841	27.741	2253.147	2300.710
90.855	27.930	2250.856	2300.482
91.870	27.470	2248.241	2291.716
92.884	27.413	2246.653	2289.108
93.899	27.454	2246.658	2289.354
94.914	27.419	2245.420	2287.384
95.928	27.417	2244.719	2286.363
96.943	27.708	2243.132	2288.149
97.957	27.719	2240.797	2285.625
98.972	27.620	2237.637	2280.892
99.987	27.428	2234.129	2274.626
101.001	27.377	2231.486	2271.019
102.016	27.387	2230.246	2269.620
103.030	27.437	2227.704	2267.377
104.045	27.618	2225.487	2267.118
105.060	27.877	2224.359	2268.929
106.074	27.845	2223.616	2267.506
107.089	27.740	2220.268	2262.509
108.103	27.644	2218.991	2259.743
109.118	27.712	2218.837	2260.157
110.133	27.939	2217.041	2260.887
111.147	27.834	2214.778	2257.008
112.162	27.762	2213.369	2254.405
113.176	27.767	2210.838	2251.617
114.191	27.602	2207.628	2246.030
115.206	27.471	2206.928	2243.429
116.220	27.562	2205.457	2242.799
117.235	27.657	2202.685	2240.878
118.249	27.633	2200.494	2238.091
119.264	27.801	2199.283	2238.656
120.279	27.703	2197.806	2235.676
121.293	27.622	2195.814	2232.386
122.308	27.589	2195.075	2230.970
123.322	27.595	2193.763	2229.442
124.337	27.170	2191.459	2221.607
125.352	27.441	2192.518	2225.746
126.366	27.949	2191.989	2231.181
127.381	28.047	2187.943	2227.999
128.395	28.024	2185.665	2225.126
129.410	27.999	2184.049	2222.906
130.424	27.824	2181.472	2217.885
131.439	27.912	2180.186	2217.388
132.454	27.737	2177.557	2212.311
133.468	27.750	2175.874	2210.502
134.483	27.822	2174.363	2209.577
135.497	27.893	2172.714	2208.502
136.512	27.958	2170.611	2206.884
137.527	28.066	2168.873	2206.165
138.541	27.769	2168.110	2201.523
139.556	27.767	2167.119	2200.232
140.570	27.768	2165.360	2198.195
141.585	27.768	2162.075	2194.593
142.600	27.830	2161.305	2194.292
143.614	27.651	2160.467	2191.018
144.629	27.813	2158.529	2190.747
145.643	27.872	2156.512	2189.152
146.658	27.606	2154.754	2183.904
147.673	27.270	2151.604	2176.408
148.687	27.371	2149.804	2175.543
149.702	27.453	2149.912	2176.377
150.716	27.408	2149.671	2175.323
151.731	27.802	2148.767	2178.882
152.746	27.939	2147.395	2178.871
153.760	27.474	2146.218	2171.844
154.775	27.386	2145.166	2169.466
155.789	27.471	2142.613	2167.646
156.804	27.403	2138.968	2162.880
157.819	27.262	2136.282	2158.225
158.833	27.314	2134.415	2156.698
159.848	27.552	2133.211	2158.056
160.862	27.942	2130.573	2159.768
161.877	28.018	2131.520	2161.377
162.892	28.208	2130.928	2162.772
163.906	28.454	2130.273	2164.765
164.921	28.528	2127.211	2162.273
165.935	28.268	2125.607	2157.305
166.950	27.912	2124.344	2151.550
167.964	27.840	2120.840	2146.900
168.979	27.744	2118.241	2142.873
169.994	27.771	2117.200	2141.877
171.008	27.654	2115.032	2138.052
172.023	27.466	2113.713	2134.245
173.037	27.853	2112.567	2137.396
174.052	27.794	2111.114	2134.971
175.067	27.642	2109.528	2131.324
176.081	27.632	2107.892	2129.307
177.096	27.823	2107.002	2130.392
178.110	27.831	2104.764	2127.965
179.125	27.860	2103.971	2127.248
180.140	27.909	2104.065	2127.657
181.154	27.994	2102.889	2127.211
182.169	28.126	2101.498	2127.096
183.183	27.876	2099.504	2121.903
184.198	27.790	2098.804	2119.934
185.213	27.806	2097.286	2118.335
186.227	27.848	2095.543	2116.813
187.242	27.690	2092.920	2112.067
188.256	27.537	2091.217	2108.312
189.271	27.834	2089.128	2109.411
190.286	27.830	2088.266	2108.242
191.300	27.683	2084.920	2102.909
192.315	27.470	2084.495	2099.763
193.329	27.922	2083.193	2103.429
194.344	28.149	2082.365	2104.963
195.359	28.153	2081.391	2103.774
196.373	28.317	2078.401	2102.399
197.388	28.192	2075.739	2098.009
198.402	27.950	2073.476	2092.683
199.417	28.033	2071.754	2091.649
200.432	28.120	2070.582	2091.221
201.446	27.926	2069.599	2087.744
202.461	27.740	2066.905	2082.649
203.475	27.489	2065.272	2077.876
204.490	27.616	2062.745	2076.535
205.504	27.823	2060.413	2076.304
206.519	27.648	2058.669	2072.297
207.534	28.002	2057.082	2074.498
208.548	27.971	2056.438	2073.242
209.563	27.429	2053.811	2064.174
210.577	27.632	2053.801	2066.223
211.592	28.039	2053.172	2069.984
212.607	27.692	2052.396	2064.998
213.621	27.114	2050.068	2055.845
214.636	27.207	2048.375	2054.955
215.650	27.712	2047.633	2059.703
216.665	27.998	2047.138	2062.194
217.680	28.128	2044.848	2061.121
218.694	27.970	2043.212	2057.438
219.709	27.683	2041.779	2052.494
220.723	27.739	2040.128	2051.220
221.738	28.108	2039.411	2054.425
222.753	28.348	2037.081	2054.542
223.767	28.055	2034.702	2048.590
224.782	27.761	2032.753	2043.082
225.796	27.962	2031.018	2043.345
226.811	28.220	2030.699	2045.680
227.826	28.252	2029.420	2044.513
228.840	27.953	2027.277	2038.757
229.855	27.798	2025.964	2035.449
230.869	27.695	2024.080	2032.162
231.884	27.630	2022.575	2029.676
232.899	27.725	2021.564	2029.490
233.913	27.838	2020.303	2029.237
234.928	28.025	2019.539	2030.312
235.942	27.833	2017.512	2025.889
236.957	27.654	2015.373	2021.503
237.972	27.642	2015.183	2020.936
238.986	27.766	2013.555	2020.452
240.001	27.585	2011.755	2016.387
241.015	27.542	2010.427	2014.333
242.030	27.866	2010.632	2017.902
243.045	28.143	2009.011	2019.104
244.059	28.150	2007.624	2017.549
245.074	28.322	2004.597	2016.171
246.088	28.071	2002.228	2010.775
247.103	28.061	2000.685	2008.874
248.117	28.178	2000.040	2009.272
249.132	28.167	1997.095	2005.949
250.147	27.787	1994.601	1999.021
251.161	27.452	1993.243	1993.740
252.176	27.638	1992.729	1995.027
253.190	27.708	1989.729	1992.562
254.205	27.632	1987.556	1989.311
255.220	27.816	1985.937	1989.468
256.234	27.490	1986.004	1985.724
257.249	27.570	1983.989	1984.347
258.263	27.642	1983.369	1984.272
259.278	27.800	1983.109	1985.511
260.293	27.794	1981.110	1983.200
261.307	27.689	1979.814	1980.517
262.322	27.649	1978.365	1978.394
263.336	27.460	1974.832	1972.573
264.351	27.362	1973.426	1969.868
265.366	27.612	1972.443	1971.369
266.380	27.758	1971.872	1972.147
267.395	27.526	1970.042	1967.558
268.409	27.510	1969.100	1966.212
269.424	27.904	1967.058	1968.204
270.439	27.904	1966.624	1967.538
271.453	27.961	1966.196	1967.490
272.468	27.726	1964.334	1962.852
273.482	27.572	1961.813	1958.435
274.497	27.552	1958.808	1954.978
275.512	27.635	1957.557	1954.388
276.526	27.803	1955.459	1953.874
277.541	27.766	1952.692	1950.481
278.555	27.432	1951.278	1945.241
279.570	27.382	1949.597	1942.804
280.585	27.286	1947.469	1939.413
281.599	27.477	1946.610	1940.375
282.614	27.352	1944.643	1936.849
283.628	26.554	1942.332	1925.780
284.643	25.997	1939.350	1916.643
285.657	25.724	1937.334	1911.507
286.672	25.630	1935.966	1908.932
287.687	25.498	1933.482	1904.846
288.701	25.393	1932.232	1902.269
289.716	25.170	1929.550	1897.031
290.730	24.517	1925.998	1886.379
291.745	24.898	1926.393	1890.591
292.760	25.162	1927.028	1893.784
293.774	26.242	1929.302	1907.261
294.789	27.613	1929.972	1922.238
295.803	27.924	1929.032	1924.367
296.818	27.854	1928.190	1922.550
297.833	27.921	1927.247	1922.093
298.847	27.959	1925.609	1920.632
299.862	27.908	1922.963	1917.219
300.876	27.822	1922.199	1915.326
301.891	27.995	1921.284	1916.007
302.906	28.042	1921.317	1916.304
303.920	27.944	1919.482	1913.221
304.935	28.140	1916.451	1912.030
305.949	28.110	1914.508	1909.538
306.964	28.123	1912.799	1907.748
307.979	27.508	1910.377	1898.662
308.993	25.756	1903.205	1873.002
310.008	24.284	1898.956	1853.232
311.022	24.186	1896.376	1849.473
312.037	24.355	1895.780	1850.434
313.052	24.128	1893.581	1845.694
314.066	23.913	1891.597	1841.308
315.081	23.918	1890.826	1840.382
316.095	23.875	1889.449	1838.382
317.110	23.688	1887.366	1834.193
318.125	23.609	1885.788	1831.619
319.139	23.616	1885.007	1830.710
320.154	23.960	1883.769	1832.852
321.168	24.129	1882.834	1833.474
322.183	25.516	1886.517	1851.214
323.197	27.221	1889.344	1871.423
324.212	27.783	1887.737	1875.407
325.227	27.535	1886.148	1871.048
326.241	27.603	1885.926	1871.307
327.256	27.861	1883.723	1871.548
328.270	27.779	1882.496	1869.269
329.285	27.783	1882.474	1869.056
330.300	27.790	1881.879	1868.318
331.314	27.557	1880.370	1864.204
332.329	27.463	1877.993	1860.659
333.343	27.603	1875.677	1859.572
334.358	27.770	1874.332	1859.729
335.373	27.926	1872.983	1859.767
336.387	28.061	1872.044	1859.985
337.402	28.015	1869.682	1856.950
338.416	27.891	1867.916	1853.710
339.431	27.833	1866.842	1851.833
340.446	27.844	1864.241	1849.139
341.460	26.586	1860.500	1832.424
342.475	25.868	1857.291	1821.748
343.489	25.166	1853.765	1810.951
344.504	24.437	1851.171	1800.810
345.519	24.211	1849.161	1796.348
346.533	24.004	1846.772	1791.716
347.548	23.965	1845.656	1790.022
348.562	24.044	1844.481	1789.467
349.577	24.022	1843.489	1788.070
350.592	24.179	1842.769	1788.740
351.606	24.433	1840.970	1789.342
352.621	24.124	1838.782	1783.891
353.635	23.971	1837.218	1780.618
354.650	24.462	1838.641	1786.732
355.665	26.484	1841.801	1809.941
356.679	27.487	1842.058	1820.058
357.694	27.757	1841.618	1822.108
358.708	27.885	1840.680	1822.248
359.723	27.894	1840.415	1821.857
360.738	27.946	1838.455	1820.220
361.752	27.811	1837.863	1818.070
362.767	28.150	1835.487	1818.889
363.781	28.074	1833.036	1815.478
364.796	28.112	1832.094	1814.715
365.810	27.903	1830.723	1811.052
366.825	27.099	1826.274	1798.443
367.840	25.037	1819.825	1771.409
368.854	23.777	1817.773	1756.680
369.869	23.916	1815.006	1755.182
370.883	24.026	1814.427	1755.500
371.898	24.214	1814.139	1756.876
372.913	24.194	1812.277	1754.664
373.927	23.992	1810.829	1751.056
374.942	24.124	1810.169	1751.508
375.956	24.731	1811.359	1758.454
376.971	25.279	1809.442	1761.795
377.986	25.096	1807.112	1757.506
379.000	24.841	1806.596	1754.278
380.015	25.094	1806.308	1756.286
381.029	26.530	1807.992	1771.857
382.044	27.746	1808.180	1783.786
383.059	27.965	1806.413	1783.976
384.073	27.787	1805.670	1781.280
385.088	27.841	1804.898	1780.839
386.102	28.006	1803.797	1781.154
387.117	27.770	1802.716	1777.559
388.132	27.841	1801.781	1777.128
389.146	27.833	1801.445	1776.506
390.161	27.582	1799.655	1772.070
391.175	27.569	1795.945	1768.083
392.190	27.627	1792.662	1765.199
393.205	27.669	1791.079	1763.836
394.219	27.843	1789.224	1763.486
395.234	27.607	1788.220	1759.999
396.248	27.545	1786.103	1757.102
397.263	27.482	1784.214	1754.422
398.278	27.495	1782.661	1752.819
399.292	27.302	1782.011	1750.098
400.307	27.193	1779.063	1745.940
401.321	26.174	1776.219	1733.115
402.336	25.588	1774.174	1725.268
403.350	25.584	1772.225	1723.129
404.365	25.712	1771.528	1723.470
405.380	25.508	1769.067	1718.915
406.394	24.625	1765.661	1706.924
407.409	24.110	1763.466	1699.659
408.423	24.152	1761.956	1698.396
409.438	23.940	1759.662	1693.956
410.453	23.995	1759.118	1693.757
411.467	23.989	1758.736	1693.124
412.482	24.216	1758.634	1694.997
413.496	25.901	1761.580	1713.752
414.511	27.474	1762.967	1729.927
415.526	27.891	1761.623	1732.385
416.540	27.854	1760.467	1730.687
417.555	27.922	1759.477	1730.155
418.569	27.811	1758.526	1727.957
419.584	27.799	1758.199	1727.315
420.599	27.827	1758.064	1727.241
421.613	27.744	1757.101	1725.294
422.628	27.864	1754.946	1724.116
423.642	27.923	1754.075	1723.613
424.657	27.548	1751.643	1717.462
425.672	27.727	1749.952	1717.288
426.686	27.877	1749.202	1717.764
427.701	27.644	1747.478	1713.670
428.715	27.613	1746.104	1711.822
429.730	27.870	1745.727	1713.673
430.745	28.256	1744.791	1716.191
431.759	28.342	1744.807	1716.811
432.774	28.413	1743.396	1715.879
433.788	27.072	1738.933	1698.688
434.803	26.006	1736.623	1686.213
435.818	26.028	1735.459	1685.090
436.832	26.021	1734.814	1684.197
437.847	25.147	1728.312	1669.511
438.861	16.092	1701.788	1559.862
439.876	3.572	1677.898	1422.364
440.890	0.501	1671.577	1388.463
441.905	0.135	1670.971	1384.413
442.920	0.007	1670.153	1382.387
443.934	0.118	1668.694	1382.037
444.949	0.159	1666.790	1380.671
445.963	-0.056	1666.920	1378.629
446.978	0.125	1666.060	1379.422
447.993	0.081	1665.167	1378.116
449.007	0.012	1662.765	1375.328
450.022	0.125	1659.923	1373.849
451.036	0.134	1659.025	1373.026
452.051	1.401	1666.322	1390.554
453.066	12.615	1691.901	1516.055
454.080	23.985	1708.793	1636.759
455.095	26.679	1715.028	1667.494
456.109	29.205	1719.372	1694.910
457.124	30.119	1719.261	1703.041
458.139	29.390	1716.530	1693.408
459.153	28.739	1714.822	1685.518
460.168	28.720	1712.502	1682.862
461.182	28.878	1712.198	1683.813
462.197	29.271	1710.667	1685.722
463.212	29.173	1709.238	1683.218
464.226	29.413	1710.131	1686.093
465.241	29.891	1709.374	1689.539
466.255	30.029	1708.678	1689.908
467.270	30.209	1706.825	1689.523
468.285	30.071	1706.152	1687.394
469.299	30.255	1705.182	1687.917
470.314	30.552	1703.523	1688.784
471.328	30.712	1702.195	1688.726
472.343	30.529	1701.339	1686.005
473.358	30.535	1699.831	1684.359
474.372	30.447	1699.171	1682.709
475.387	30.501	1698.168	1681.998
476.401	30.575	1696.149	1680.472
477.416	30.223	1693.787	1674.741
478.430	30.428	1693.408	1676.019
479.445	30.264	1691.547	1672.496
480.460	30.105	1689.261	1668.598
481.474	30.172	1689.571	1669.312
482.489	30.643	1689.651	1673.451
483.503	30.778	1687.557	1672.395
484.518	30.505	1686.003	1668.191
485.533	30.590	1685.530	1668.289
486.547	30.736	1683.207	1667.108
487.562	30.793	1681.344	1665.568
488.576	30.863	1680.743	1665.406
489.591	31.089	1680.285	1666.785
490.606	31.058	1678.175	1664.210
491.620	31.111	1677.390	1663.713
492.635	31.285	1675.982	1663.676
493.649	30.805	1673.459	1656.673
494.664	30.252	1671.425	1649.521
495.679	30.107	1670.096	1646.718
496.693	30.312	1668.859	1647.136
497.708	30.625	1669.288	1650.147
498.722	31.007	1668.646	1652.725
499.737	31.349	1667.295	1654.231
500.752	31.156	1665.640	1650.679
501.766	30.926	1663.462	1646.277
502.781	31.184	1662.449	1647.369
503.795	31.251	1661.028	1646.352
504.810	30.980	1660.300	1643.035
505.825	31.048	1659.460	1642.606
506.839	30.764	1657.621	1638.084
507.854	30.523	1655.637	1633.797
508.868	30.388	1653.327	1630.130
509.883	29.746	1651.225	1622.204
510.898	29.549	1649.912	1618.984
511.912	29.227	1647.223	1613.314
512.927	28.842	1645.208	1607.766
513.941	28.904	1643.806	1606.751
514.956	29.349	1644.225	1610.877
515.971	30.377	1644.651	1620.122
516.985	29.916	1642.317	1613.585
518.000	29.342	1640.064	1606.157
519.014	29.292	1639.640	1605.114
520.029	29.074	1638.250	1601.653
521.043	29.072	1636.434	1599.670
522.058	29.023	1635.580	1598.218
523.073	29.176	1634.802	1598.602
524.087	29.419	1633.790	1599.537
525.102	29.916	1633.497	1603.382
526.116	30.231	1632.858	1605.303
527.131	30.557	1632.855	1607.947
528.146	30.958	1632.719	1611.108
529.160	31.189	1631.717	1611.933
530.175	31.323	1631.212	1612.401
531.189	31.693	1629.816	1614.035
532.204	31.623	1628.164	1611.600
533.219	31.198	1627.036	1606.611
534.233	30.738	1625.085	1600.516
535.248	30.516	1623.623	1596.971
536.262	30.710	1622.732	1597.573
537.277	31.126	1622.852	1601.097
538.292	31.394	1621.200	1601.576
539.306	31.533	1619.091	1600.501
540.321	31.186	1617.647	1595.900
541.335	30.750	1615.303	1589.655
542.350	31.094	1614.856	1591.977
543.365	31.462	1614.811	1594.893
544.379	31.738	1613.319	1595.599
545.394	31.625	1611.634	1592.768
546.408	31.014	1608.931	1584.694
547.423	30.664	1607.471	1580.072
548.438	30.847	1607.123	1581.103
549.452	31.187	1605.958	1582.666
550.467	31.005	1604.710	1579.701
551.481	31.174	1604.287	1580.529
552.496	31.424	1603.465	1581.664
553.511	31.493	1603.537	1582.127
554.525	31.603	1601.969	1581.324
555.540	31.505	1601.119	1579.464
556.554	31.557	1599.854	1578.471
557.569	31.372	1597.395	1574.288
558.583	31.017	1595.009	1568.750
559.598	30.873	1594.028	1566.381
560.613	30.636	1592.883	1563.061
561.627	30.462	1591.376	1559.931
562.642	30.207	1588.785	1555.053
563.656	29.666	1587.097	1548.657
564.671	29.487	1584.679	1544.607
565.686	29.452	1583.645	1543.125
566.700	29.414	1582.154	1541.168
567.715	29.412	1580.440	1539.291
568.729	29.657	1580.692	1541.414
569.744	30.264	1580.276	1545.907
570.759	30.427	1579.089	1545.928
571.773	29.881	1578.021	1540.131
572.788	29.701	1575.891	1536.364
573.802	29.636	1573.287	1533.098
574.817	29.483	1571.684	1530.075
575.832	29.607	1570.929	1530.194
576.846	30.185	1570.905	1534.794
577.861	30.730	1570.896	1539.129
578.875	31.007	1570.784	1541.143
579.890	31.331	1570.433	1543.301
580.905	31.451	1570.198	1543.884
581.919	31.549	1570.637	1544.946
582.934	31.807	1568.923	1545.212
583.948	31.671	1566.526	1541.538
584.963	31.595	1564.621	1538.854
585.978	31.182	1562.949	1533.616
586.992	30.649	1562.544	1528.634
588.007	31.001	1561.779	1530.605
589.021	30.727	1559.079	1525.523
590.036	29.877	1556.971	1516.278
591.051	30.548	1557.049	1521.692
592.065	31.118	1556.855	1526.008
593.080	31.332	1555.521	1526.279
594.094	31.482	1553.611	1525.449
595.109	31.099	1551.621	1520.175
596.123	31.241	1550.650	1520.205
597.138	31.593	1550.203	1522.467
598.153	31.408	1548.389	1518.988
599.167	31.095	1546.520	1514.424
600.182	31.001	1545.215	1512.198
601.196	31.064	1545.516	1512.822
602.211	31.231	1544.953	1513.455
603.226	31.376	1543.243	1512.773
604.240	31.493	1542.085	1512.412
605.255	31.673	1540.795	1512.428
606.269	31.528	1539.656	1509.949
607.284	31.457	1538.463	1508.027
608.299	31.342	1537.004	1505.484
609.313	31.024	1535.279	1501.043
610.328	30.816	1533.455	1497.395
611.342	30.936	1532.520	1497.277
612.357	30.951	1531.605	1496.320
613.372	30.635	1529.779	1491.814
614.386	30.409	1528.111	1488.185
615.401	30.479	1527.018	1487.505
616.415	30.169	1526.659	1484.482
617.430	29.854	1525.034	1480.191
618.445	29.671	1522.683	1476.262
619.459	29.674	1521.622	1475.081
620.474	29.581	1520.661	1473.230
621.488	29.839	1520.937	1475.393
622.503	30.686	1520.380	1481.456
623.518	30.143	1518.632	1475.234
624.532	29.569	1516.119	1468.034
625.547	29.491	1514.519	1465.685
626.561	29.610	1513.484	1465.455
627.576	29.432	1513.157	1463.540
628.591	29.844	1512.448	1465.967
629.605	30.248	1512.047	1468.614
630.620	30.693	1511.499	1471.444
631.634	31.237	1512.198	1476.276
632.649	31.359	1510.980	1475.875
633.663	30.733	1508.440	1468.260
634.678	30.089	1505.538	1460.159
635.693	29.686	1503.524	1454.844
636.707	29.614	1501.157	1451.808
637.722	29.657	1500.507	1451.345
638.736	30.125	1501.263	1455.598
639.751	30.562	1501.070	1458.684
640.766	30.907	1499.734	1459.928
641.780	30.856	1498.430	1458.083
642.795	31.124	1498.242	1459.836
643.809	31.302	1497.655	1460.485
644.824	31.346	1497.832	1460.834
645.839	31.566	1497.125	1461.694
646.853	31.462	1495.009	1458.637
647.868	31.379	1492.616	1455.478
648.882	31.186	1491.044	1452.261
649.897	30.942	1489.803	1448.974
650.912	30.646	1489.032	1445.742
651.926	31.000	1487.545	1446.882
652.941	31.071	1486.346	1446.099
653.955	30.832	1484.116	1441.893
654.970	30.091	1481.579	1433.499
655.985	29.671	1480.107	1428.641
656.999	29.546	1478.596	1426.039
658.014	29.795	1477.917	1427.144
659.028	30.284	1478.040	1430.889
660.043	30.809	1477.538	1434.294
661.058	30.963	1476.658	1434.461
662.072	30.961	1475.587	1433.231
663.087	30.855	1474.164	1430.860
664.101	30.708	1473.345	1428.759
665.116	30.831	1472.916	1429.123
666.131	30.922	1472.133	1428.891
667.145	31.146	1470.582	1428.941
668.160	31.074	1469.138	1426.816
669.174	30.859	1467.594	1423.492
670.189	31.122	1466.986	1424.747
671.204	31.434	1466.535	1426.539
672.218	31.188	1466.151	1424.103
673.233	31.516	1464.104	1424.455
674.247	31.336	1462.690	1421.534
675.262	31.120	1461.893	1418.938
676.276	31.002	1460.288	1416.313
677.291	31.135	1459.572	1416.463
678.306	31.365	1459.151	1417.639
679.320	31.313	1457.160	1415.137
680.335	30.825	1456.111	1410.232
681.349	30.942	1455.644	1410.501
682.364	30.904	1454.204	1408.648
683.379	30.750	1452.260	1405.434
684.393	30.233	1451.009	1400.131
685.408	30.229	1450.039	1398.998
686.422	30.079	1448.321	1396.035
687.437	29.944	1447.146	1393.712
688.452	29.561	1445.704	1389.262
689.466	29.520	1443.873	1387.031
690.481	29.583	1442.475	1385.995
691.495	29.864	1443.013	1388.461
692.510	30.706	1443.491	1395.108
693.525	31.661	1442.195	1400.876
694.539	31.034	1440.040	1393.905
695.554	29.961	1438.493	1384.180
696.568	29.633	1436.678	1379.806
697.583	29.336	1435.825	1376.596
698.598	29.793	1435.200	1379.258
699.612	30.007	1434.381	1379.906
700.627	30.153	1433.943	1380.413
701.641	30.642	1433.663	1383.639
702.656	31.032	1432.315	1385.082
703.671	30.792	1431.939	1382.763
704.685	30.926	1431.499	1383.172
705.700	30.916	1429.929	1381.416
706.714	30.651	1428.490	1377.885
707.729	30.569	1426.183	1374.885
708.744	30.596	1425.288	1374.060
709.758	30.525	1423.284	1371.434
710.773	29.811	1422.521	1365.242
711.787	29.831	1419.973	1362.783
712.802	30.499	1419.423	1367.035
713.816	30.482	1419.673	1366.986
714.831	30.511	1419.189	1366.567
715.846	30.421	1417.597	1364.210
716.860	30.601	1416.210	1364.040
717.875	30.545	1415.503	1362.782
718.889	30.266	1414.128	1359.241
719.904	30.452	1412.700	1359.075
720.919	30.365	1411.425	1357.044
721.933	30.153	1410.470	1354.403
722.948	29.973	1410.444	1352.898
723.962	30.239	1408.873	1353.177
724.977	30.320	1407.315	1352.114
725.992	30.460	1406.637	1352.323
727.006	30.774	1406.357	1354.193
728.021	30.683	1405.206	1352.259
729.035	30.735	1403.456	1350.791
730.050	30.771	1402.575	1350.042
731.065	30.686	1401.251	1347.987
732.079	30.511	1400.019	1345.370
733.094	30.646	1399.784	1345.960
734.108	30.810	1398.838	1346.080
735.123	30.792	1396.702	1343.733
736.138	30.465	1395.547	1340.092
737.152	30.457	1394.514	1338.886
738.167	30.493	1393.490	1338.003
739.181	30.551	1392.604	1337.406
740.196	30.535	1391.571	1336.138
741.211	30.455	1390.419	1334.300
742.225	30.355	1389.666	1332.692
743.240	30.031	1387.821	1328.433
744.254	30.030	1385.730	1326.264
745.269	29.762	1383.906	1322.435
746.284	29.431	1383.106	1319.129
747.298	29.446	1382.837	1318.824
748.313	29.509	1382.415	1318.719
749.327	29.832	1382.376	1320.837
750.342	30.748	1382.828	1327.683
751.356	31.471	1382.484	1332.376
752.371	31.258	1379.830	1328.134
753.386	30.073	1377.862	1317.621
754.400	30.000	1377.019	1316.134
755.415	30.356	1376.494	1318.012
756.429	30.544	1375.196	1317.956
757.444	30.795	1374.231	1318.661
758.459	30.560	1372.788	1315.444
759.473	30.328	1371.751	1312.648
760.488	30.127	1369.679	1309.078
761.502	29.928	1367.952	1305.862
762.517	30.047	1367.291	1305.917
763.532	30.205	1367.126	1306.722
764.546	30.060	1365.412	1303.902
765.561	29.668	1363.963	1299.590
766.575	29.109	1362.243	1293.850
767.590	29.161	1361.488	1293.347
768.605	29.700	1361.487	1296.994
769.619	29.899	1360.629	1297.421
770.634	30.132	1358.871	1297.230
771.648	30.011	1357.233	1294.660
772.663	29.804	1356.625	1292.471
773.678	29.969	1356.641	1293.488
774.692	30.325	1356.186	1295.402
775.707	30.205	1356.232	1294.447
776.721	30.246	1355.065	1293.469
777.736	30.253	1353.506	1291.871
778.751	30.358	1352.340	1291.341
779.765	30.440	1351.525	1290.976
780.780	30.216	1350.613	1288.386
781.794	30.206	1349.929	1287.515
782.809	29.742	1348.564	1282.823
783.824	29.411	1346.541	1278.441
784.838	29.618	1345.657	1278.884
785.853	30.310	1345.902	1283.783
786.867	30.054	1344.702	1280.699
787.882	29.658	1343.274	1276.444
788.897	29.343	1342.356	1273.227
789.911	29.252	1340.587	1270.769
790.926	29.259	1339.594	1269.721
791.940	29.385	1338.403	1269.316
792.955	29.516	1336.687	1268.440
793.969	29.737	1335.803	1268.974
794.984	29.599	1335.929	1267.992
795.999	29.984	1334.727	1269.347
797.013	30.187	1333.222	1269.162
798.028	30.001	1332.418	1266.966
799.042	29.984	1331.545	1265.867
800.057	30.015	1330.712	1265.138
801.072	30.093	1329.176	1264.058
802.086	30.002	1328.258	1262.414
803.101	29.950	1327.111	1260.820
804.115	29.902	1325.986	1259.266
805.130	30.082	1324.635	1259.062
806.145	29.740	1323.872	1255.853
807.159	29.611	1322.136	1253.181
808.174	29.826	1321.542	1253.928
809.188	29.937	1320.283	1253.343
810.203	29.714	1318.772	1250.241
811.218	29.525	1316.751	1246.894
812.232	29.339	1314.932	1243.761
813.247	29.108	1313.863	1241.032
814.261	29.353	1314.339	1242.995
815.276	29.740	1313.802	1244.959
816.291	29.530	1312.730	1242.376
817.305	29.688	1311.171	1241.819
818.320	29.572	1310.246	1240.010
819.334	29.828	1309.626	1241.003
820.349	29.814	1308.484	1239.673
821.364	29.933	1306.901	1238.826
822.378	29.903	1305.249	1236.912
823.393	29.936	1303.707	1235.522
824.407	29.702	1303.328	1233.446
825.422	29.816	1302.769	1233.534
826.437	29.640	1301.364	1230.879
827.451	29.412	1299.468	1227.413
828.466	29.624	1298.810	1228.061
829.480	30.257	1297.178	1230.593
830.495	29.707	1294.585	1224.329
831.509	29.390	1293.767	1221.295
832.524	29.335	1293.347	1220.384
833.539	29.653	1292.045	1221.126
834.553	29.678	1291.254	1220.402
835.568	29.664	1290.397	1219.347
836.582	29.723	1289.148	1218.415
837.597	29.718	1287.994	1217.144
838.612	29.586	1286.008	1214.249
839.626	29.327	1285.137	1211.570
840.641	29.470	1283.148	1210.494
841.655	29.394	1282.772	1209.494
842.670	29.039	1281.292	1205.617
843.685	28.705	1280.102	1202.154
844.699	28.933	1279.239	1202.701
845.714	29.442	1278.050	1204.780
846.728	29.331	1277.288	1203.189
847.743	29.275	1276.869	1202.281
848.758	29.358	1275.853	1201.729
849.772	29.612	1274.669	1202.130
850.787	29.567	1273.109	1200.220
851.801	29.721	1271.835	1199.879
852.816	29.670	1271.099	1198.712
853.831	29.617	1269.624	1196.832
854.845	29.454	1267.637	1193.757
855.860	29.378	1266.177	1191.741
856.874	29.144	1265.679	1189.610
857.889	29.263	1264.853	1189.464
858.904	29.697	1264.236	1191.556
859.918	30.175	1263.322	1193.643
860.933	30.633	1262.433	1195.622
861.947	30.026	1260.852	1190.062
862.962	29.298	1259.257	1183.717
863.977	29.377	1257.826	1182.742
864.991	29.242	1256.562	1180.546
866.006	29.195	1256.065	1179.633
867.020	29.342	1254.968	1179.404
868.035	29.525	1253.958	1179.489
869.049	29.446	1253.312	1178.237
870.064	29.700	1252.073	1178.560
871.079	29.525	1250.930	1176.219
872.093	29.371	1250.407	1174.600
873.108	29.288	1248.939	1172.551
874.122	29.318	1247.075	1170.852
875.137	29.015	1246.623	1168.353
876.152	28.885	1246.069	1166.867
877.166	28.972	1244.249	1165.579
878.181	28.894	1243.304	1164.056
879.195	28.943	1243.239	1164.166
880.210	29.311	1241.940	1165.150
881.225	29.524	1241.168	1165.640
882.239	29.428	1240.411	1164.177
883.254	29.394	1239.336	1162.814
884.268	29.457	1238.853	1162.619
885.283	29.494	1237.289	1161.247
886.298	29.415	1235.867	1159.277
887.312	29.608	1235.398	1159.913
888.327	29.345	1234.572	1157.340
889.341	29.433	1232.870	1156.163
890.356	29.301	1231.584	1153.986
891.371	29.306	1231.554	1153.855
892.385	29.285	1231.002	1153.064
893.400	29.285	1229.342	1151.372
894.414	29.258	1228.228	1150.022
895.429	29.521	1227.407	1150.760
896.444	30.189	1227.717	1155.098
897.458	30.928	1227.093	1159.000
898.473	30.483	1224.671	1153.797
899.487	29.602	1222.745	1146.348
900.502	29.386	1221.602	1143.791
901.517	29.240	1220.941	1142.128
902.531	29.209	1219.864	1140.789
903.546	29.346	1218.895	1140.602
904.560	29.395	1218.443	1140.343
905.575	29.218	1217.700	1138.417
906.589	29.306	1216.537	1137.734
907.604	29.269	1215.124	1136.052
