DTS Sentinel unit serial number:	SN409020Multiplexer serial number:	ORYXHardware model number:	OX4-SRSoftware version number:	ORYX F/W v3.00 Oryx Data Collector v3.7.2.0data status	okinstallation	HaddamTimeLapsedifferential loss correction	single-endedforward channel	channel 3reverse channel	N/Adate	2011/06/22time	03:36:16forward acquisition time	30.00reverse acquisition time	0.00gamma	498.7831k internal	0.1751k external	0.1751temperature offset calibration	1.0074default loss term (dB/km)	0.3790temperature slope calibration	1.3530multiplexer offset coefficient	1.0000multiplexer slope coefficient	1.0000fibre end	0.00T internal ref (°C)	22.37T ext. ref 1 (°C)	17.94T ext. ref 2 (°C)	0.08length (m)	temperature (°C)	Stokes	anti-Stokes-747.200	-58.429	0.192	0.111
-746.185	451.229	0.139	0.411
-745.171	-154.002	-0.155	-0.014
-744.156	800.000	0.113	0.543
-743.142	-165.568	-0.214	0.012
-742.127	-7.975	0.141	0.126
-741.112	-155.550	0.226	0.019
-740.098	-21.167	0.714	0.579
-739.083	-101.442	0.040	0.013
-738.069	34.372	0.335	0.389
-737.054	-107.737	-0.533	-0.153
-736.039	384.704	0.197	-0.543
-735.025	-102.645	0.460	0.145
-734.010	-184.672	0.421	-0.009
-732.996	-51.732	0.426	0.263
-731.981	-66.125	-0.308	0.162
-730.966	-200.000	-0.022	0.194
-729.952	-62.428	0.212	-0.117
-728.937	800.000	-0.012	-0.068
-727.923	-125.481	-0.170	0.034
-726.908	-200.000	0.014	0.153
-725.894	70.076	0.223	0.306
-724.879	205.235	0.291	-0.602
-723.864	800.000	0.053	-0.296
-722.850	-120.745	-0.262	-0.058
-721.835	-20.764	-0.090	-0.074
-720.821	-89.299	-0.533	0.208
-719.806	-200.000	0.012	-0.414
-718.791	-28.228	0.244	0.186
-717.777	428.057	-0.172	0.494
-716.762	-141.531	-0.124	0.016
-715.748	-167.798	-0.446	-0.023
-714.733	-98.916	-0.220	0.074
-713.718	800.000	0.063	0.296
-712.704	-200.000	-0.047	0.373
-711.689	494.962	-0.065	-0.200
-710.675	36.523	-0.201	0.235
-709.660	-11.241	0.041	-0.035
-708.645	-142.456	-0.457	0.059
-707.631	-112.571	-0.293	-0.077
-706.616	-200.000	-0.004	-0.116
-705.602	-8.290	0.046	-0.041
-704.587	178.110	-0.343	-0.666
-703.572	-1.508	0.229	-0.214
-702.558	-139.653	0.376	0.053
-701.543	190.252	-0.051	0.101
-700.529	49.896	0.243	0.304
-699.514	57.994	-0.095	-0.123
-698.499	-200.000	-0.009	-0.178
-697.485	-91.779	0.304	0.114
-696.470	-150.684	-0.170	-0.017
-695.456	-156.463	-0.617	-0.050
-694.441	294.785	-0.176	-0.428
-693.426	383.331	0.207	-0.566
-692.412	374.605	-0.234	-0.634
-691.397	-3.080	0.077	-0.071
-690.383	-91.086	-0.050	-0.019
-689.368	-64.988	0.093	0.049
-688.354	502.096	0.189	-0.581
-687.339	491.288	0.180	0.549
-686.324	-83.791	0.194	-0.081
-685.310	-26.824	0.185	-0.143
-684.295	-200.000	0.040	-0.277
-683.281	-121.984	-0.623	0.135
-682.266	800.000	-0.051	-0.274
-681.251	92.028	-0.163	-0.244
-680.237	-85.361	-0.176	-0.072
-679.222	-113.033	0.264	0.069
-678.208	132.315	-0.148	0.254
-677.193	57.738	0.173	-0.224
-676.178	-115.660	-0.401	0.099
-675.164	-30.445	-0.189	-0.142
-674.149	280.106	0.054	0.128
-673.135	199.628	0.346	-0.706
-672.120	-200.000	-0.040	-0.302
-671.105	-100.291	0.140	0.046
-670.091	223.323	-0.077	-0.165
-669.076	-16.704	0.392	-0.328
-668.062	-200.000	-0.018	-0.313
-667.047	59.540	-0.214	0.280
-666.032	362.820	0.113	0.301
-665.018	-200.000	0.005	-0.103
-664.003	-31.518	-0.503	-0.373
-662.989	-200.000	0.010	-0.288
-661.974	-200.000	0.038	-0.365
-660.959	35.973	-0.049	-0.057
-659.945	-200.000	-0.046	0.288
-658.930	-12.178	-0.267	-0.231
-657.916	41.878	0.121	-0.145
-656.901	212.441	-0.280	-0.585
-655.886	4.060	-0.398	-0.385
-654.872	-73.787	-0.271	-0.130
-653.857	-114.805	0.592	-0.148
-652.843	-144.963	0.377	0.045
-651.828	-173.541	-0.197	0.008
-650.814	-103.745	0.398	0.122
-649.799	-200.000	-0.012	0.107
-648.784	800.000	-0.073	-0.276
-647.770	262.581	-0.094	-0.217
-646.755	-42.278	-0.214	-0.144
-645.741	-147.856	0.622	0.068
-644.726	-125.613	-0.429	0.085
-643.711	32.935	-0.543	0.622
-642.697	-69.380	0.397	-0.201
-641.682	-124.665	-0.293	0.060
-640.668	323.789	0.006	0.015
-639.653	-42.782	0.191	0.128
-638.638	800.000	-0.017	0.065
-637.624	-39.236	0.227	0.157
-636.609	-200.000	0.029	-0.393
-635.595	-54.388	-0.230	0.138
-634.580	-84.673	-0.822	-0.341
-633.565	-3.032	0.064	0.059
-632.551	-200.000	0.004	0.644
-631.536	-16.032	0.500	0.420
-630.522	167.428	-0.044	0.082
-629.507	122.303	0.292	-0.483
-628.492	-42.764	0.207	0.139
-627.478	205.296	-0.087	0.179
-626.463	-200.000	0.014	-0.168
-625.449	-200.000	0.031	-0.292
-624.434	-200.000	-0.019	-0.167
-623.419	182.154	0.126	-0.246
-622.405	241.661	-0.081	0.179
-621.390	-109.297	-0.258	-0.072
-620.376	-200.000	0.019	-0.225
-619.361	-111.355	-0.477	-0.128
-618.346	113.980	-0.100	0.161
-617.332	-95.083	0.243	-0.086
-616.317	480.792	0.145	-0.438
-615.303	-85.128	-0.530	0.218
-614.288	52.063	-0.073	0.091
-613.273	-50.672	-0.669	0.415
-612.259	310.745	-0.125	-0.311
-611.244	-129.116	0.408	-0.075
-610.230	-40.116	0.345	-0.237
-609.215	800.000	0.068	-0.308
-608.201	277.447	-0.044	0.104
-607.186	215.445	0.088	0.185
-606.171	-78.231	0.756	0.341
-605.157	-23.231	-0.393	0.312
-604.142	-189.742	0.428	-0.006
-603.128	125.623	-0.132	0.221
-602.113	-145.061	-0.527	-0.063
-601.098	-200.000	-0.002	0.158
-600.084	-140.015	-0.119	0.016
-599.069	157.272	-0.078	0.142
-598.055	-122.050	-0.245	-0.053
-597.040	-40.462	0.093	-0.064
-596.025	67.502	-0.108	0.146
-595.011	87.157	0.119	0.174
-593.996	-200.000	0.010	0.379
-592.982	-1.015	0.225	-0.210
-591.967	800.000	-0.038	-0.191
-590.952	794.418	0.074	0.269
-589.938	-100.017	0.187	0.061
-588.923	800.000	-0.039	-0.188
-587.909	-111.218	0.289	-0.077
-586.894	2.822	0.471	0.451
-585.879	-6.556	-0.330	-0.296
-584.865	-183.371	0.386	0.009
-583.850	-200.000	-0.481	0.000
-582.836	25.142	-0.044	-0.048
-581.821	-69.335	0.088	-0.044
-580.806	-60.441	0.206	-0.115
-579.792	-55.478	0.112	0.066
-578.777	10.923	0.192	-0.194
-577.763	-53.067	-0.441	0.267
-576.748	-94.789	-0.482	-0.172
-575.733	-113.797	-0.187	0.048
-574.719	-143.694	-0.472	0.058
-573.704	800.000	-0.078	-0.427
-572.690	121.422	0.240	0.396
-571.675	83.233	-0.153	-0.221
-570.661	-93.677	0.199	-0.072
-569.646	-47.112	0.282	0.181
-568.631	-123.627	-0.504	0.105
-567.617	-49.117	-0.212	-0.133
-566.602	800.000	-0.181	-0.690
-565.588	-200.000	0.031	-0.380
-564.573	-200.000	-0.055	-0.378
-563.558	-79.847	0.152	-0.067
-562.544	-61.726	-0.209	-0.115
-561.529	5.182	-0.346	-0.336
-560.515	-200.000	0.079	-0.505
-559.500	190.131	-0.115	-0.229
-558.485	-53.972	-0.609	0.365
-557.471	-167.604	0.508	-0.026
-556.456	-104.241	-0.428	-0.130
-555.442	800.000	0.043	0.179
-554.427	-0.511	0.273	0.255
-553.412	-41.912	-0.180	-0.121
-552.398	-140.379	-0.465	-0.063
-551.383	-200.000	0.061	0.364
-550.369	-30.330	0.047	-0.035
-549.354	-161.401	0.313	-0.021
-548.339	-200.000	-0.037	-0.372
-547.325	128.385	-0.265	-0.445
-546.310	336.767	-0.041	0.107
-545.296	-200.000	0.056	-0.370
-544.281	-106.355	-0.184	0.054
-543.266	-200.000	0.045	-0.355
-542.252	800.000	-0.062	-0.359
-541.237	-128.204	0.238	0.044
-540.223	-15.669	-0.107	-0.090
-539.208	430.811	-0.152	0.436
-538.193	-200.000	0.021	-0.266
-537.179	15.003	0.167	-0.172
-536.164	800.000	0.026	0.114
-535.150	108.047	-0.172	-0.271
-534.135	80.400	-0.067	0.095
-533.121	-0.131	-0.046	-0.044
-532.106	-86.151	-0.403	-0.163
-531.091	294.548	-0.127	-0.306
-530.077	148.502	-0.343	0.612
-529.062	466.325	-0.094	0.279
-528.048	-100.901	-0.217	-0.070
-527.033	-200.000	0.011	0.191
-526.018	79.516	0.157	-0.222
-525.004	-20.799	-0.122	0.098
-523.989	49.832	-0.166	-0.206
-522.975	-115.485	-0.141	0.035
-521.960	-70.906	-0.102	-0.050
-520.945	-156.005	-0.455	0.037
-519.931	-85.836	-0.534	-0.217
-518.916	-33.363	-0.256	-0.186
-517.902	22.273	-0.441	-0.474
-516.887	-98.339	-0.361	0.121
-515.872	81.267	0.189	0.269
-514.858	-22.927	0.315	0.250
-513.843	-76.196	-0.472	-0.218
-512.829	-9.502	0.294	0.258
-511.814	503.246	-0.056	-0.172
-510.799	64.064	0.281	0.373
-509.785	21.944	-0.082	0.088
-508.770	-48.727	-0.297	-0.187
-507.756	-200.000	-0.096	-0.564
-506.741	-136.621	-0.022	-0.003
-505.726	672.652	-0.074	-0.253
-504.712	10.094	-0.245	-0.245
-503.697	-145.562	-0.308	-0.036
-502.683	-103.116	0.172	0.053
-501.668	-66.168	-0.074	0.039
-500.653	-75.300	-0.225	-0.105
-499.639	43.747	-0.461	0.556
-498.624	693.409	-0.079	-0.274
-497.610	800.000	0.076	-0.390
-496.595	26.748	0.256	0.282
-495.581	86.882	0.132	-0.192
-494.566	513.571	0.046	0.143
-493.551	-110.439	0.198	0.054
-492.537	651.745	0.079	0.267
-491.522	-15.997	-0.098	-0.082
-490.508	-99.914	-0.322	-0.105
-489.493	-59.630	0.097	-0.054
-488.478	-34.134	0.108	-0.078
-487.464	-158.768	0.409	-0.030
-486.449	-200.000	0.006	0.149
-485.435	-155.993	0.645	-0.053
-484.420	336.169	0.047	-0.121
-483.405	103.453	0.032	0.050
-482.391	185.911	0.185	0.363
-481.376	-157.642	0.345	-0.027
-480.362	-200.000	-0.018	0.423
-479.347	-123.474	0.210	-0.044
-478.332	364.288	0.115	0.306
-477.318	-134.443	-0.341	-0.054
-476.303	211.234	0.087	0.180
-475.289	-33.872	0.135	-0.097
-474.274	-198.494	-0.127	0.001
-473.259	-111.188	0.347	0.093
-472.245	-200.000	-0.004	-0.092
-471.230	-74.181	-0.229	0.108
-470.216	-143.809	0.407	-0.050
-469.201	-47.475	-0.692	0.441
-468.186	-114.589	0.460	0.115
-467.172	-200.000	0.037	-0.245
-466.157	-46.070	-0.311	0.201
-465.143	-141.739	0.289	-0.038
-464.128	-200.000	0.096	0.678
-463.113	-69.300	-0.149	-0.075
-462.099	-59.188	0.373	0.210
-461.084	184.225	0.110	0.214
-460.070	-200.000	-0.009	0.362
-459.055	-176.177	0.111	0.004
-458.040	-2.909	0.198	-0.182
-457.026	-142.722	0.411	-0.052
-456.011	50.739	-0.282	0.351
-454.997	-53.659	0.147	-0.088
-453.982	-51.622	0.372	0.227
-452.968	159.630	0.094	0.173
-451.953	-107.398	0.269	-0.077
-450.938	-200.000	-0.011	-0.379
-449.924	-76.256	0.200	0.092
-448.909	-99.094	0.500	0.165
-447.895	-200.000	-0.012	-0.359
-446.880	-200.000	0.046	0.332
-445.865	-93.877	-0.398	-0.143
-444.851	293.093	0.040	0.095
-443.836	61.802	-0.188	0.246
-442.822	-200.000	0.083	-0.483
-441.807	800.000	0.054	-0.303
-440.792	63.853	0.248	-0.328
-439.778	-200.000	0.003	0.354
-438.763	-33.405	-0.502	-0.364
-437.749	-114.161	-0.414	-0.104
-436.734	84.716	-0.280	0.402
-435.719	-133.449	0.581	0.095
-434.705	458.706	0.149	0.436
-433.690	551.302	0.201	0.637
-432.676	-81.809	0.152	-0.065
-431.661	-200.000	0.069	0.477
-430.646	-103.437	0.290	-0.089
-429.632	-143.825	0.432	-0.053
-428.617	-138.431	-0.214	-0.031
-427.603	-200.000	0.011	-0.505
-426.588	199.876	-0.125	-0.253
-425.573	224.954	0.087	0.184
-424.559	14.794	-0.146	-0.150
-423.544	-117.590	-0.359	-0.084
-422.530	482.964	-0.148	0.443
-421.515	-54.231	-0.089	-0.053
-420.500	329.366	0.030	0.076
-419.486	-173.689	0.298	0.011
-418.471	-68.205	-0.121	0.061
-417.457	52.603	-0.227	0.284
-416.442	-184.416	0.046	0.001
-415.428	-200.000	-0.093	0.627
-414.413	34.323	0.429	0.491
-413.398	-159.875	-0.122	0.009
-412.384	-74.584	-0.149	-0.070
-411.369	-5.323	-0.298	0.269
-410.355	-24.329	-0.307	0.239
-409.340	142.238	-0.128	-0.223
-408.325	-200.000	0.016	-0.272
-407.311	-200.000	-0.018	0.598
-406.296	-92.424	-0.098	-0.036
-405.282	-200.000	0.141	-0.000
-404.267	800.000	0.172	0.780
-403.252	-59.139	-0.061	-0.034
-402.238	159.650	0.198	-0.363
-401.223	-200.000	0.030	-0.238
-400.209	416.877	-0.192	0.541
-399.194	-97.337	-0.508	0.173
-398.179	-39.618	-0.189	-0.129
-397.165	225.098	0.228	0.486
-396.150	-105.625	0.274	0.081
-395.136	800.000	0.014	0.062
-394.121	-162.430	-0.195	0.012
-393.106	119.243	-0.166	-0.270
-392.092	-121.508	-0.597	0.129
-391.077	-71.075	0.558	0.274
-390.063	345.375	-0.092	-0.237
-389.048	80.956	-0.187	0.265
-388.033	-135.863	-0.235	-0.036
-387.019	-150.375	-0.255	-0.025
-386.004	500.565	0.079	-0.239
-384.990	-91.366	-0.489	-0.182
-383.975	-153.120	-0.250	0.023
-382.960	-57.895	0.157	-0.089
-381.946	324.014	-0.152	0.381
-380.931	-67.936	-0.396	0.202
-379.917	192.348	0.223	-0.441
-378.902	56.604	-0.065	0.083
-377.888	15.241	-0.309	0.318
-376.873	-179.916	-0.590	-0.016
-375.858	-21.237	0.134	-0.107
-374.844	111.283	0.205	-0.324
-373.829	-200.000	0.002	0.314
-372.815	-200.000	-0.010	0.139
-371.800	-200.000	0.007	0.540
-370.785	479.545	-0.127	0.378
-369.771	800.000	0.019	0.096
-368.756	50.675	0.420	0.521
-367.742	800.000	0.043	0.172
-366.727	-157.726	-0.284	-0.022
-365.712	-50.413	0.193	0.119
-364.698	-125.533	-0.127	0.025
-363.683	9.255	-0.227	-0.224
-362.669	43.117	0.182	0.217
-361.654	-200.000	-0.014	-0.334
-360.639	-93.610	-0.095	-0.034
-359.625	-175.399	0.446	-0.016
-358.610	73.544	0.274	-0.376
-357.596	-55.712	0.422	-0.246
-356.581	-153.433	-0.291	0.026
-355.566	-195.115	-0.359	-0.003
-354.552	-200.000	-0.035	0.515
-353.537	-4.631	0.275	0.248
-352.523	23.237	0.397	0.427
-351.508	5.738	0.322	0.311
-350.493	-158.207	0.206	-0.016
-349.479	-41.580	0.065	-0.043
-348.464	694.146	-0.199	-0.688
-347.450	142.375	0.099	0.172
-346.435	-37.096	-0.104	0.073
-345.420	39.932	0.281	-0.330
-344.406	-2.665	0.194	-0.177
-343.391	-137.053	0.401	0.059
-342.377	-159.015	0.227	0.017
-341.362	102.189	0.125	-0.191
-340.348	800.000	-0.043	0.237
-339.333	795.188	0.074	0.269
-338.318	-170.048	-0.380	0.017
-337.304	89.186	-0.009	-0.013
-336.289	-125.870	0.213	-0.042
-335.275	-5.142	0.290	-0.261
-334.260	-178.526	0.407	-0.012
-333.245	-87.670	0.222	0.087
-332.231	-82.832	-0.601	0.253
-331.216	-55.501	-0.339	-0.198
-330.202	800.000	-0.049	-0.178
-329.187	-127.379	0.378	0.071
-328.172	274.093	0.038	0.087
-327.158	674.712	-0.205	0.699
-326.143	105.932	-0.221	0.342
-325.129	-31.300	0.127	-0.093
-324.114	131.072	0.059	-0.099
-323.099	-33.034	0.267	-0.193
-322.085	-43.221	-0.145	0.096
-321.070	-0.388	0.230	-0.213
-320.056	305.063	0.324	-0.789
-319.041	-18.240	-0.630	-0.514
-318.026	10.814	-0.319	0.318
-317.012	551.288	0.156	-0.492
-315.997	-129.575	-0.384	-0.069
-314.983	18.526	0.148	0.155
-313.968	-200.000	-0.013	-0.554
-312.953	-128.983	-0.098	0.018
-311.939	-200.000	0.087	-0.600
-310.924	-43.103	0.429	-0.283
-309.910	-5.534	0.376	0.337
-308.895	454.866	-0.068	0.199
-307.880	218.119	-0.118	-0.247
-306.866	301.950	0.091	-0.222
-305.851	-40.460	-0.235	-0.159
-304.837	-184.594	-0.063	0.001
-303.822	-20.963	0.435	0.347
-302.807	-92.141	0.731	-0.268
-301.793	-123.455	0.250	-0.052
-300.778	-9.171	-0.128	0.112
-299.764	-84.378	-0.158	-0.065
-298.749	-140.131	0.175	0.024
-297.735	800.000	-0.075	-0.316
-296.720	271.145	-0.213	-0.492
-295.705	134.709	-0.203	-0.345
-294.691	800.000	-0.077	-0.433
-293.676	-159.768	-0.301	0.021
-292.662	142.665	0.134	-0.233
-291.647	98.585	-0.188	0.284
-290.632	226.841	0.101	0.214
-289.618	0.883	0.016	-0.015
-288.603	-200.000	-0.005	0.241
-287.589	-200.000	0.001	0.299
-286.574	-200.000	0.073	0.432
-285.559	-72.381	0.279	0.134
-284.545	679.524	0.121	-0.412
-283.530	146.429	0.121	0.213
-282.516	-36.713	0.430	-0.301
-281.501	-89.486	0.246	-0.094
-280.486	-83.681	0.112	-0.046
-279.472	569.532	0.012	-0.039
-278.457	-58.839	-0.282	0.159
-277.443	-119.235	0.498	-0.112
-276.428	800.000	0.041	-0.192
-275.413	63.261	0.189	0.247
-274.399	270.278	0.167	0.384
-273.384	60.743	0.221	-0.286
-272.370	8.840	-0.225	0.221
-271.355	-101.641	-0.041	-0.013
-270.340	-200.000	-0.046	-0.402
-269.326	33.441	0.575	0.651
-268.311	42.223	0.383	0.454
-267.297	72.191	0.312	-0.424
-266.282	27.645	0.080	0.088
-265.267	-22.897	0.087	0.069
-264.253	-144.863	-0.323	-0.038
-263.238	-71.730	-0.285	0.138
-262.224	178.335	0.159	0.304
-261.209	-102.174	0.411	-0.128
-260.195	-119.486	0.148	0.033
-259.180	-145.118	0.321	-0.038
-258.165	134.747	0.063	0.106
-257.151	115.322	0.190	-0.303
-256.136	123.864	-0.134	-0.220
-255.122	-63.376	0.390	0.208
-254.107	-88.904	-0.477	0.183
-253.092	445.957	0.089	-0.255
-252.078	800.000	0.056	0.312
-251.063	-185.841	-0.220	-0.004
-250.049	442.816	-0.154	0.442
-249.034	-72.066	-0.091	0.044
-248.019	-86.145	-0.092	-0.037
-247.005	-32.344	-0.307	0.223
-245.990	800.000	-0.037	0.166
-244.976	-117.094	0.595	0.140
-243.961	-200.000	-0.005	0.288
-242.946	-97.730	0.462	0.155
-241.932	-104.395	0.287	0.086
-240.917	10.077	0.197	0.195
-239.903	14.038	-0.337	0.342
-238.888	78.170	0.289	-0.402
-237.873	800.000	-0.077	-0.408
-236.859	40.740	0.371	-0.435
-235.844	109.755	-0.149	-0.232
-234.830	96.184	-0.251	-0.374
-233.815	516.850	-0.105	-0.321
-232.800	27.273	-0.150	0.164
-231.786	-106.008	-0.186	-0.054
-230.771	800.000	-0.099	-0.500
-229.757	-74.179	-0.265	0.124
-228.742	214.954	0.106	0.219
-227.727	237.115	0.094	0.204
-226.713	346.280	-0.147	0.379
-225.698	-35.536	0.206	-0.145
-224.684	-8.098	-0.382	-0.335
-223.669	-127.262	0.022	-0.004
-222.655	-66.119	-0.085	-0.044
-221.640	-27.681	0.058	-0.044
-220.625	-77.281	-0.531	-0.239
-219.611	-177.029	-0.196	-0.006
-218.596	170.532	0.150	0.280
-217.582	-109.026	0.316	-0.087
-216.567	-76.573	0.326	0.148
-215.552	-95.783	0.343	0.118
-214.538	293.791	0.040	-0.096
-213.523	-20.545	0.439	-0.350
-212.509	-72.848	-0.105	0.050
-211.494	-53.051	0.133	-0.079
-210.479	-30.053	-0.375	0.277
-209.465	-25.486	-0.298	0.228
-208.450	-67.438	-0.411	-0.209
-207.436	43.360	-0.111	-0.132
-206.421	-200.000	0.011	0.364
-205.406	-98.312	0.030	-0.010
-204.392	-25.661	-0.095	0.073
-203.377	-119.219	-0.270	-0.061
-202.363	-66.429	0.416	-0.214
-201.348	-69.980	-0.402	-0.198
-200.333	176.264	0.127	-0.241
-199.319	15.899	-0.294	0.301
-198.304	-200.000	-0.067	-0.684
-197.290	-200.000	-0.038	-0.331
-196.275	-63.873	0.187	-0.099
-195.260	11.708	-0.227	0.226
-194.246	800.000	-0.044	0.172
-193.231	241.439	-0.163	-0.354
-192.217	-141.295	-0.366	-0.048
-191.202	-85.106	-0.159	0.064
-190.187	-71.752	-0.535	0.258
-189.173	82.414	-0.209	0.295
-188.158	-96.006	0.291	-0.100
-187.144	-114.058	0.157	-0.039
-186.129	54.476	0.361	-0.452
-185.114	-80.906	0.318	-0.137
-184.100	-80.638	0.304	-0.131
-183.085	800.000	-0.066	-0.283
-182.071	609.547	-0.114	0.372
-181.056	556.724	0.155	0.487
-180.042	-119.991	-0.403	0.089
-179.027	104.299	-0.170	0.261
-178.012	115.461	-0.032	-0.051
-176.998	800.000	0.025	-0.116
-175.983	548.431	-0.019	-0.059
-174.969	-116.317	0.231	-0.055
-173.954	800.000	0.117	-0.464
-172.939	19.459	0.040	0.041
-171.925	-5.762	-0.213	-0.189
-170.910	-2.730	0.173	-0.157
-169.896	-112.245	0.402	0.104
-168.881	-98.471	0.381	-0.126
-167.866	45.359	-0.358	-0.429
-166.852	-56.100	0.228	0.131
-165.837	-55.251	-0.050	-0.029
-164.823	-90.077	0.338	0.127
-163.808	-64.453	0.235	0.124
-162.793	-51.545	0.213	-0.129
-161.779	-107.530	-0.236	-0.067
-160.764	800.000	0.068	0.303
-159.750	-200.000	-0.075	-0.502
-158.735	-200.000	-0.012	-0.217
-157.720	55.180	-0.184	-0.231
-156.706	-56.168	0.540	0.311
-155.691	-81.506	0.317	-0.135
-154.677	-82.204	-0.136	0.057
-153.662	-200.000	0.046	-0.305
-152.647	-62.476	-0.159	0.085
-151.633	-200.000	-0.003	-0.060
-150.618	-129.839	-0.244	-0.043
-149.604	95.234	0.269	0.398
-148.589	800.000	0.020	-0.094
-147.574	-200.000	-0.003	-0.080
-146.560	-144.814	-0.169	0.020
-145.545	-120.804	-0.276	-0.060
-144.531	-79.299	-0.203	-0.089
-143.516	23.674	0.421	0.449
-142.502	-165.812	-0.315	-0.017
-141.487	-167.366	0.387	0.020
-140.472	-13.859	0.464	-0.389
-139.458	63.301	-0.405	-0.527
-138.443	-50.313	-0.096	-0.059
-137.429	236.603	0.177	0.382
-136.414	50.091	-0.068	-0.084
-135.399	-159.663	0.271	-0.019
-134.385	-176.760	0.509	-0.016
-133.370	143.575	0.194	0.336
-132.356	-39.602	-0.264	0.179
-131.341	-127.939	-0.101	0.019
-130.326	365.320	0.026	-0.069
-129.312	195.837	0.227	-0.449
-128.297	-145.209	0.199	-0.023
-127.283	-56.807	0.494	0.282
-126.268	242.011	-0.156	-0.340
-125.253	-200.000	-0.015	-0.312
-124.239	-131.107	0.164	0.028
-123.224	311.945	0.061	0.148
-122.210	-109.718	-0.131	0.035
-121.195	-73.087	0.223	-0.106
-120.180	-200.000	-0.013	-0.570
-119.166	655.258	-0.124	-0.414
-118.151	167.739	-0.021	-0.038
-117.137	67.877	0.140	0.185
-116.122	430.844	0.140	0.395
-115.107	122.611	-0.114	-0.186
-114.093	-83.555	0.137	0.056
-113.078	-200.000	-0.018	0.424
-112.064	147.118	0.200	0.349
-111.049	-110.103	0.268	-0.072
-110.034	-70.843	-0.423	-0.206
-109.020	-86.055	-0.428	-0.170
-108.005	-60.702	-0.333	0.182
-106.991	67.425	-0.157	0.208
-105.976	-108.814	-0.168	-0.046
-104.962	-164.478	-0.274	0.016
-103.947	70.423	-0.110	0.148
-102.932	208.771	-0.192	-0.391
-101.918	32.283	0.291	0.325
-100.903	-136.023	0.346	0.052
-99.889	-95.746	0.180	-0.062
-98.874	-179.840	0.660	-0.018
-97.859	212.195	-0.192	-0.394
-96.845	-200.000	0.005	-0.426
-95.830	29.634	0.206	-0.227
-94.816	-29.061	0.216	-0.160
-93.801	-54.181	-0.147	-0.086
-92.786	23.649	-0.344	0.367
-91.772	-102.402	0.385	-0.119
-90.757	88.302	0.117	0.168
-89.743	-160.784	-0.205	0.014
-88.728	-7.038	0.184	0.161
-87.713	-170.528	0.263	0.012
-86.699	85.869	-0.246	0.350
-85.684	-200.000	0.032	-0.248
-84.670	-200.000	0.025	-0.548
-83.655	-19.446	-0.162	-0.129
-82.640	-190.958	0.157	0.002
-81.626	-145.017	-0.274	-0.032
-80.611	182.473	-0.080	-0.154
-79.597	190.271	0.184	-0.358
-78.582	800.000	-0.078	0.349
-77.567	-36.229	-0.462	0.322
-76.553	-54.781	0.323	0.188
-75.538	381.295	0.124	0.332
-74.524	800.000	-0.078	-0.345
-73.509	-200.000	-0.033	0.293
-72.494	21.912	0.208	0.220
-71.480	125.469	0.166	0.271
-70.465	-152.626	-0.167	-0.015
-69.451	19.020	-0.296	0.307
-68.436	-200.000	0.030	0.292
-67.422	102.744	-0.296	0.448
-66.407	338.088	-0.212	-0.535
-65.392	202.722	0.093	0.186
-64.378	169.057	0.177	0.327
-63.363	352.966	0.225	0.579
-62.349	-91.872	-0.012	0.004
-61.334	10.492	-2.173	-2.140
-60.319	162.802	1.154	2.100
-59.305	243.560	-3.701	-8.054
-58.290	93.530	3.885	5.696
-57.276	394.641	3.798	10.282
-56.261	-200.000	23.991	319.669
-55.246	351.617	1308.885	3365.622
-54.232	52.636	2848.844	3520.649
-53.217	51.286	2659.109	3265.178
-52.203	31.450	2388.414	2653.279
-51.188	27.604	2055.379	2235.902
-50.173	24.259	1942.527	2074.008
-49.159	23.107	1930.796	2048.007
-48.144	22.740	1926.075	2038.651
-47.130	22.649	1922.571	2033.807
-46.115	22.600	1921.341	2031.853
-45.100	22.628	1919.579	2030.238
-44.086	22.607	1918.788	2029.084
-43.071	22.546	1917.667	2027.108
-42.057	22.605	1914.994	2024.881
-41.042	22.587	1914.400	2023.970
-40.027	22.454	1913.179	2021.060
-39.013	22.621	1910.878	2020.473
-37.998	22.537	1909.810	2018.291
-36.984	22.527	1908.860	2017.097
-35.969	22.507	1907.332	2015.171
-34.954	22.490	1906.150	2013.645
-33.940	22.517	1905.096	2012.763
-32.925	22.518	1903.470	2010.979
-31.911	22.518	1902.569	2009.946
-30.896	22.481	1901.212	2008.015
-29.881	22.529	1899.573	2006.754
-28.867	22.336	1898.841	2003.692
-27.852	22.381	1897.154	2002.345
-26.838	22.215	1895.927	1999.066
-25.823	22.346	1894.362	1998.831
-24.809	22.395	1893.510	1998.421
-23.794	22.482	1891.187	1996.875
-22.779	22.454	1889.976	1995.197
-21.765	22.280	1889.101	1992.223
-20.750	22.339	1887.747	1991.383
-19.736	22.361	1886.372	1990.098
-18.721	22.339	1886.324	1989.721
-17.706	22.335	1884.971	1988.166
-16.692	22.333	1883.637	1986.662
-15.677	22.297	1882.525	1984.997
-14.663	22.265	1881.061	1983.012
-13.648	22.302	1880.138	1982.388
-12.633	22.273	1878.523	1980.277
-11.619	22.456	1876.779	1980.424
-10.604	22.213	1876.088	1976.878
-9.590	22.312	1875.296	1977.075
-8.575	22.123	1873.609	1973.089
-7.560	22.232	1872.395	1972.966
-6.546	22.309	1871.143	1972.430
-5.531	22.347	1869.790	1971.352
-4.517	22.337	1868.870	1970.195
-3.502	22.298	1867.847	1968.597
-2.487	22.295	1866.560	1967.125
-1.473	22.432	1863.017	1964.850
-0.458	22.302	1844.675	1943.988
0.556	18.900	1992.972	2047.329
1.571	17.533	2196.473	2238.060
2.586	18.339	2235.054	2287.936
3.600	18.475	2237.033	2291.511
4.615	18.392	2236.699	2289.788
5.629	18.296	2235.169	2286.656
6.644	18.390	2232.525	2284.928
7.659	18.321	2231.144	2282.320
8.673	18.424	2227.837	2280.039
9.688	18.053	2237.332	2284.500
10.702	17.252	2318.604	2356.043
11.717	15.693	2381.540	2397.390
12.731	7.347	2361.686	2258.063
13.746	1.098	2344.591	2152.440
14.761	0.285	2340.820	2137.136
15.775	0.163	2340.052	2134.434
16.790	0.113	2338.011	2131.606
17.804	0.090	2337.014	2130.113
18.819	0.076	2336.328	2129.043
19.834	0.087	2334.240	2127.037
20.848	0.029	2332.090	2124.005
21.863	0.087	2330.994	2123.566
22.877	0.034	2329.291	2121.017
23.892	0.025	2326.957	2118.501
24.907	-0.014	2325.012	2115.930
25.921	-0.013	2323.166	2114.011
26.936	0.070	2319.563	2111.653
27.950	0.014	2317.286	2108.536
28.965	0.035	2315.608	2107.057
29.980	0.205	2314.392	2108.087
30.994	0.243	2311.600	2105.824
32.009	3.989	2323.387	2169.143
33.023	13.277	2350.193	2325.762
34.038	17.562	2357.936	2393.801
35.053	17.728	2356.057	2393.955
36.067	17.884	2354.041	2393.818
37.082	17.829	2351.078	2389.744
38.096	17.809	2349.627	2387.701
39.111	17.941	2348.236	2387.855
40.126	18.104	2344.867	2386.427
41.140	18.249	2343.730	2387.024
42.155	18.045	2342.272	2382.395
43.169	18.072	2339.922	2380.096
44.184	17.952	2336.941	2375.101
45.199	17.963	2334.662	2372.650
46.213	17.988	2334.205	2372.253
47.228	17.888	2333.190	2369.551
48.242	17.988	2331.781	2369.224
49.257	18.120	2329.708	2368.675
50.271	18.167	2326.370	2365.652
51.286	18.023	2324.191	2361.144
52.301	18.014	2321.821	2358.336
53.315	18.463	2322.313	2364.786
54.330	20.146	2328.093	2393.767
55.344	21.291	2328.321	2409.592
56.359	21.453	2324.096	2407.179
57.374	21.449	2324.584	2407.337
58.388	21.708	2321.330	2407.252
59.403	21.526	2317.883	2400.889
60.417	21.410	2314.760	2395.762
61.432	21.402	2313.624	2394.197
62.447	21.509	2312.847	2394.567
63.461	21.621	2311.277	2394.203
64.476	21.976	2307.899	2395.280
65.490	21.616	2306.340	2388.451
66.505	21.031	2303.463	2377.164
67.520	19.667	2298.442	2353.049
68.534	18.326	2291.933	2327.782
69.549	18.052	2288.470	2320.252
70.563	17.971	2286.783	2317.154
71.578	18.067	2283.877	2315.241
72.593	18.038	2282.365	2313.044
73.607	18.177	2280.921	2313.187
74.622	18.111	2279.467	2310.536
75.636	18.002	2276.151	2305.423
76.651	18.109	2274.035	2304.448
77.666	18.026	2272.918	2301.924
78.680	18.022	2270.154	2298.798
79.695	18.020	2268.983	2297.308
80.709	18.028	2267.696	2295.839
81.724	18.043	2265.574	2293.617
82.739	17.947	2262.888	2289.325
83.753	17.858	2260.333	2285.273
84.768	17.900	2258.366	2283.579
85.782	18.008	2256.059	2282.421
86.797	17.820	2255.178	2278.733
87.812	17.850	2253.398	2277.054
88.826	17.889	2250.982	2274.865
89.841	17.889	2249.801	2273.399
90.855	17.886	2247.252	2270.521
91.870	18.073	2245.990	2271.464
92.884	18.084	2242.813	2268.127
93.899	18.012	2241.628	2265.698
94.914	18.345	2243.093	2271.354
95.928	19.938	2247.700	2297.008
96.943	20.410	2245.906	2301.179
97.957	18.930	2238.361	2273.519
98.972	17.985	2233.973	2256.254
99.987	17.736	2231.927	2250.608
101.001	17.842	2228.979	2248.768
102.016	17.903	2227.004	2247.316
103.030	17.874	2224.443	2244.082
104.045	17.889	2223.344	2242.910
105.060	17.956	2219.492	2239.628
106.074	17.944	2217.807	2237.505
107.089	17.958	2216.974	2236.580
108.103	18.035	2216.066	2236.412
109.118	18.094	2213.110	2233.936
110.133	18.030	2213.075	2232.787
111.147	17.989	2210.512	2229.395
112.162	18.035	2209.369	2228.583
113.176	18.142	2205.909	2226.227
114.191	18.039	2205.699	2224.401
115.206	18.103	2203.636	2222.897
116.220	17.964	2201.366	2218.526
117.235	17.966	2199.553	2216.449
118.249	18.021	2197.868	2215.211
119.264	18.106	2195.908	2214.070
120.279	18.132	2193.808	2212.030
121.293	18.087	2192.757	2210.116
122.308	17.990	2191.427	2207.258
123.322	17.990	2189.775	2205.332
124.337	18.148	2191.323	2208.678
125.352	20.124	2195.781	2238.579
126.366	20.412	2193.633	2239.856
127.381	18.731	2184.722	2208.773
128.395	17.946	2180.459	2194.058
129.410	17.994	2178.896	2192.845
130.424	18.010	2177.782	2191.673
131.439	17.926	2175.702	2188.237
132.454	17.944	2174.507	2186.998
133.468	17.999	2171.588	2184.506
134.483	17.987	2170.526	2183.024
135.497	18.027	2169.047	2181.786
136.512	18.044	2166.784	2179.470
137.527	18.052	2164.326	2176.841
138.541	17.976	2163.182	2174.459
139.556	17.860	2162.615	2172.148
140.570	17.934	2161.161	2171.361
141.585	17.954	2158.923	2169.114
142.600	17.980	2157.325	2167.576
143.614	17.813	2155.657	2163.513
144.629	17.971	2153.451	2163.051
145.643	17.802	2152.771	2159.959
146.658	17.812	2151.041	2158.090
147.673	17.899	2149.031	2156.922
148.687	17.986	2148.386	2157.120
149.702	18.048	2147.047	2156.315
150.716	17.953	2145.963	2153.752
151.731	17.897	2143.972	2150.788
152.746	17.809	2143.606	2149.054
153.760	18.391	2144.405	2156.962
154.775	19.995	2148.581	2181.234
155.789	20.436	2147.086	2185.029
156.804	18.790	2138.866	2155.653
157.819	18.045	2133.294	2140.406
158.833	17.947	2130.486	2136.105
159.848	17.861	2128.704	2132.977
160.862	18.055	2127.078	2133.521
161.877	18.047	2125.714	2131.806
162.892	17.990	2125.554	2130.672
163.906	18.034	2124.460	2129.868
164.921	17.994	2122.482	2127.130
165.935	18.037	2120.203	2125.137
166.950	18.076	2118.809	2123.975
167.964	18.079	2116.533	2121.464
168.979	17.948	2115.126	2118.173
169.994	18.056	2113.132	2117.268
171.008	17.984	2111.950	2114.934
172.023	17.971	2110.161	2112.726
173.037	18.026	2108.941	2111.939
174.052	17.999	2107.517	2109.925
175.067	17.927	2105.640	2106.898
176.081	17.960	2104.278	2105.695
177.096	17.879	2103.030	2103.185
178.110	17.965	2101.031	2102.004
179.125	18.050	2099.549	2101.313
180.140	17.996	2098.546	2099.395
181.154	17.952	2097.756	2097.815
182.169	17.866	2096.910	2095.655
183.183	18.329	2096.680	2100.888
184.198	20.245	2101.674	2129.302
185.213	20.652	2098.804	2131.141
186.227	18.852	2092.464	2102.332
187.242	18.076	2089.606	2089.685
188.256	18.062	2087.344	2086.992
189.271	17.992	2085.764	2084.309
190.286	17.994	2084.460	2082.785
191.300	17.983	2082.254	2080.197
192.315	17.965	2079.801	2077.278
193.329	18.064	2079.122	2077.554
194.344	18.004	2078.458	2075.914
195.359	18.088	2076.764	2074.994
196.373	18.231	2073.749	2073.475
197.388	17.929	2071.719	2067.520
198.402	17.991	2068.970	2065.293
199.417	17.868	2067.120	2061.695
200.432	17.955	2066.739	2062.128
201.446	18.003	2065.477	2061.202
202.461	18.064	2063.989	2060.210
203.475	17.986	2062.429	2057.468
204.490	17.934	2060.528	2054.694
205.504	17.939	2057.798	2051.782
206.519	17.925	2055.455	2049.035
207.534	17.911	2054.132	2047.299
208.548	18.013	2051.929	2046.086
209.563	18.006	2052.005	2045.832
210.577	17.902	2050.280	2042.622
211.592	17.951	2050.460	2043.150
212.607	18.981	2052.451	2057.270
213.621	20.953	2057.342	2085.670
214.636	20.440	2051.822	2073.675
215.650	18.351	2045.709	2042.229
216.665	17.893	2042.274	2033.077
217.680	17.917	2040.529	2031.381
218.694	17.925	2038.712	2029.429
219.709	18.080	2037.660	2029.980
220.723	18.016	2037.226	2028.550
221.738	18.014	2034.740	2025.803
222.753	18.044	2032.292	2023.482
223.767	18.074	2030.493	2021.800
224.782	17.986	2029.662	2019.684
225.796	18.071	2027.360	2018.165
226.811	18.062	2026.166	2016.631
227.826	18.035	2024.561	2014.474
228.840	18.021	2023.756	2013.262
229.855	17.979	2022.620	2011.393
230.869	18.027	2020.976	2010.090
231.884	18.005	2019.096	2007.718
232.899	18.002	2017.120	2005.479
233.913	17.939	2016.399	2003.772
234.928	17.935	2015.310	2002.409
235.942	18.114	2013.431	2002.405
236.957	18.082	2010.805	1999.178
237.972	17.972	2010.255	1997.102
238.986	17.989	2009.460	1996.266
240.001	18.091	2007.930	1995.707
241.015	17.993	2006.451	1992.850
242.030	18.373	2007.629	1998.244
243.045	20.155	2010.269	2021.536
244.059	20.183	2008.005	2019.347
245.074	18.486	2001.545	1992.794
246.088	18.042	1997.950	1983.792
247.103	18.052	1996.582	1982.318
248.117	18.091	1995.336	1981.289
249.132	18.008	1993.374	1978.145
250.147	17.987	1991.878	1976.175
251.161	17.997	1990.479	1974.669
252.176	18.177	1989.355	1975.404
253.190	18.149	1988.048	1973.546
254.205	18.228	1985.334	1971.534
255.220	18.364	1984.083	1971.626
256.234	18.304	1983.424	1970.043
257.249	18.173	1982.187	1967.068
258.263	18.046	1981.033	1964.210
259.278	18.121	1979.854	1963.675
260.293	18.076	1977.334	1960.429
261.307	18.060	1974.527	1957.222
262.322	17.982	1974.057	1955.627
263.336	17.941	1971.928	1952.813
264.351	17.933	1970.696	1951.261
265.366	17.893	1969.282	1949.173
266.380	17.940	1968.009	1948.220
267.395	17.871	1967.238	1946.428
268.409	17.876	1965.612	1944.644
269.424	17.888	1964.667	1943.612
270.439	18.130	1962.395	1943.897
271.453	18.512	1964.749	1950.364
272.468	20.172	1967.285	1971.648
273.482	20.457	1963.425	1970.785
274.497	18.698	1956.826	1943.919
275.512	17.960	1953.770	1932.260
276.526	17.986	1952.023	1930.604
277.541	17.943	1949.999	1927.878
278.555	17.996	1948.273	1926.547
279.570	17.765	1946.409	1921.854
280.585	17.893	1944.864	1921.551
281.599	17.964	1943.547	1920.821
282.614	17.961	1942.428	1919.450
283.628	18.088	1942.004	1920.229
284.643	18.196	1941.528	1920.749
285.657	18.162	1940.656	1919.272
286.672	18.278	1938.005	1917.733
287.687	18.239	1936.432	1915.506
288.701	18.168	1935.066	1913.124
289.716	18.195	1933.738	1911.889
290.730	18.275	1931.320	1910.163
291.745	18.205	1930.135	1907.985
292.760	18.152	1929.478	1906.512
293.774	18.090	1928.768	1904.881
294.789	18.056	1927.311	1902.835
295.803	18.023	1925.150	1900.105
296.818	17.936	1924.500	1898.264
297.833	17.969	1922.887	1896.814
298.847	18.101	1920.981	1896.185
299.862	18.123	1919.920	1895.157
300.876	18.500	1919.606	1898.813
301.891	20.320	1923.483	1922.708
302.906	20.567	1922.119	1923.863
303.920	18.665	1916.491	1896.886
304.935	18.159	1911.658	1886.266
305.949	18.022	1909.982	1882.874
306.964	17.998	1908.784	1881.200
307.979	18.261	1907.229	1882.350
308.993	18.241	1906.533	1881.214
310.008	18.330	1904.568	1880.037
311.022	18.388	1903.952	1879.838
312.037	18.173	1901.696	1875.021
313.052	18.229	1899.535	1873.281
314.066	18.241	1898.796	1872.455
315.081	18.115	1897.740	1869.808
316.095	18.175	1896.739	1869.259
317.110	18.261	1894.621	1867.889
318.125	18.248	1893.048	1865.970
319.139	18.309	1892.084	1865.472
320.154	18.203	1890.149	1862.172
321.168	18.201	1889.152	1860.954
322.183	18.143	1887.384	1858.356
323.197	17.962	1885.973	1854.763
324.212	17.967	1883.599	1852.258
325.227	17.994	1882.375	1851.130
326.241	18.142	1879.201	1849.401
327.256	18.066	1878.991	1848.143
328.270	17.969	1878.507	1846.391
329.285	18.017	1878.103	1846.295
330.300	18.773	1880.741	1856.890
331.314	20.679	1883.400	1880.015
332.329	20.421	1879.121	1872.721
333.343	18.598	1873.092	1846.773
334.358	18.094	1869.779	1837.847
335.373	18.061	1868.482	1835.987
336.387	17.943	1866.331	1832.386
337.402	17.823	1866.122	1830.666
338.416	17.938	1864.431	1830.026
339.431	17.994	1863.277	1829.277
340.446	17.955	1862.076	1827.459
341.460	18.103	1859.892	1826.688
342.475	18.123	1858.880	1825.689
343.489	18.202	1856.926	1824.401
344.504	18.272	1856.154	1824.171
345.519	18.230	1855.095	1822.462
346.533	18.394	1852.828	1821.777
347.548	18.526	1851.511	1821.674
348.562	18.483	1850.109	1819.618
349.577	18.213	1850.009	1816.419
350.592	18.299	1848.933	1816.063
351.606	18.301	1847.372	1814.331
352.621	18.288	1845.706	1812.336
353.635	18.157	1844.148	1809.200
354.650	18.061	1842.195	1806.046
355.665	18.167	1840.477	1805.272
356.679	18.125	1839.401	1803.549
357.694	18.003	1837.741	1800.420
358.708	18.037	1837.300	1800.128
359.723	18.900	1839.156	1810.873
360.738	20.700	1841.267	1831.800
361.752	20.085	1837.935	1821.771
362.767	18.443	1832.243	1798.596
363.781	18.013	1828.633	1790.314
364.796	17.987	1828.064	1789.264
365.810	17.978	1827.307	1788.223
366.825	18.093	1825.634	1787.572
367.840	18.074	1825.420	1786.948
368.854	18.191	1824.490	1787.052
369.869	18.086	1821.283	1782.600
370.883	17.940	1819.942	1779.543
371.898	17.840	1819.192	1777.555
372.913	17.896	1818.417	1777.163
373.927	18.006	1817.278	1776.997
374.942	18.113	1815.725	1776.378
375.956	18.098	1814.875	1775.181
376.971	18.069	1812.606	1772.445
377.986	17.984	1811.086	1769.861
379.000	18.031	1810.015	1769.094
380.015	18.043	1809.068	1768.078
381.029	18.093	1806.420	1765.801
382.044	18.062	1804.293	1763.190
383.059	18.234	1802.912	1763.406
384.073	18.019	1802.040	1760.121
385.088	17.810	1801.676	1757.390
386.102	17.882	1799.707	1756.002
387.117	17.942	1797.660	1754.414
388.132	17.870	1797.870	1753.660
389.146	18.451	1800.711	1762.228
390.161	20.578	1802.588	1785.840
391.175	20.412	1796.267	1777.659
392.190	18.454	1789.848	1751.001
393.205	17.868	1788.009	1742.985
394.219	17.950	1785.975	1741.631
395.234	18.038	1785.056	1741.426
396.248	17.867	1784.492	1738.921
397.263	17.861	1781.608	1735.834
398.278	17.922	1779.468	1734.170
399.292	17.945	1778.494	1733.247
400.307	18.075	1777.443	1733.339
401.321	18.107	1776.718	1732.750
402.336	18.088	1776.044	1731.689
403.350	18.123	1774.198	1730.043
404.365	18.239	1772.843	1729.688
405.380	18.439	1771.879	1730.575
406.394	18.410	1771.640	1729.840
407.409	18.324	1770.516	1727.664
408.423	18.420	1767.902	1725.879
409.438	18.415	1766.235	1723.989
410.453	18.345	1765.262	1722.130
411.467	18.387	1764.702	1721.806
412.482	18.284	1762.857	1718.760
413.496	18.177	1761.436	1716.088
414.511	18.116	1759.358	1713.240
415.526	18.026	1757.198	1710.029
416.540	18.002	1756.423	1708.827
417.555	18.071	1755.447	1708.369
418.569	17.950	1755.926	1707.407
419.584	18.050	1754.687	1707.006
420.599	18.181	1754.714	1708.141
421.613	18.027	1753.334	1705.053
422.628	18.067	1751.609	1703.572
423.642	18.068	1750.661	1702.450
424.657	18.090	1749.175	1701.025
425.672	18.118	1746.714	1698.704
426.686	17.999	1746.131	1696.745
427.701	18.114	1744.297	1695.912
428.715	18.048	1742.912	1693.707
429.730	18.149	1741.643	1693.274
430.745	18.173	1740.082	1691.789
431.759	18.021	1739.743	1689.747
432.774	18.024	1739.807	1689.639
433.788	18.291	1738.262	1690.587
434.803	18.366	1737.932	1690.812
435.818	18.191	1737.083	1688.044
436.832	18.020	1736.680	1685.753
437.847	17.204	1729.403	1670.424
438.861	9.499	1709.124	1575.130
439.876	1.742	1694.554	1485.658
440.890	0.335	1690.769	1468.395
441.905	0.167	1690.046	1465.945
442.920	0.154	1688.605	1464.391
443.934	0.152	1687.078	1462.872
444.949	0.231	1685.715	1462.285
445.963	0.159	1685.563	1461.281
446.978	0.218	1684.852	1461.062
447.993	0.185	1683.026	1458.977
449.007	0.241	1680.842	1457.458
450.022	0.277	1678.778	1455.844
451.036	0.175	1677.225	1453.337
452.051	1.190	1681.961	1467.133
453.066	8.796	1698.668	1556.008
454.080	16.384	1710.247	1640.760
455.095	17.735	1712.515	1655.937
456.109	17.768	1712.172	1655.731
457.124	18.001	1711.064	1656.732
458.139	17.966	1710.207	1655.357
459.153	18.010	1709.429	1654.839
460.168	18.064	1706.833	1652.649
461.182	18.108	1705.028	1651.130
462.197	17.998	1703.846	1648.727
463.212	18.033	1702.542	1647.605
464.226	17.957	1700.920	1645.098
465.241	18.036	1699.964	1644.747
466.255	18.188	1699.161	1645.242
467.270	18.175	1697.722	1643.525
468.285	18.004	1696.347	1640.341
469.299	18.036	1694.803	1638.963
470.314	18.109	1693.090	1637.816
471.328	18.018	1691.631	1635.331
472.343	17.992	1691.071	1634.346
473.358	18.032	1689.689	1633.202
474.372	18.080	1688.240	1632.063
475.387	18.000	1687.192	1630.084
476.401	17.937	1686.199	1628.330
477.416	18.043	1684.576	1627.584
478.430	17.961	1684.012	1626.060
479.445	17.992	1682.225	1624.436
480.460	17.926	1681.256	1622.676
481.474	17.956	1680.021	1621.570
482.489	18.011	1678.709	1620.638
483.503	18.121	1677.454	1620.277
484.518	18.054	1675.800	1617.849
485.533	18.191	1674.235	1617.450
486.547	18.087	1672.798	1614.876
487.562	18.116	1672.146	1614.327
488.576	18.121	1670.804	1612.886
489.591	18.146	1669.163	1611.345
490.606	18.173	1667.660	1609.960
491.620	18.143	1666.308	1608.182
492.635	18.161	1664.685	1606.591
493.649	18.140	1664.062	1605.598
494.664	18.217	1662.695	1604.811
495.679	18.072	1660.843	1601.473
496.693	17.987	1660.365	1600.015
497.708	18.075	1658.810	1599.153
498.722	18.221	1656.836	1598.431
499.737	18.274	1656.054	1597.980
500.752	18.078	1654.146	1594.107
501.766	18.061	1653.166	1592.815
502.781	18.142	1651.218	1591.512
503.795	18.200	1649.718	1590.416
504.810	18.128	1649.392	1589.234
505.825	18.174	1648.453	1588.571
506.839	18.078	1647.782	1586.841
507.854	18.118	1646.064	1585.365
508.868	18.115	1644.830	1583.963
509.883	18.175	1643.860	1583.395
510.898	18.162	1642.887	1582.150
511.912	18.091	1640.638	1579.129
512.927	18.038	1639.060	1576.932
513.941	17.903	1638.148	1574.615
514.956	18.102	1635.850	1574.064
515.971	17.802	1635.871	1571.117
516.985	18.102	1633.658	1571.570
518.000	18.019	1633.589	1570.557
519.014	18.088	1632.714	1570.159
520.029	18.128	1631.001	1568.694
521.043	17.991	1630.272	1566.543
522.058	18.146	1628.951	1566.513
523.073	18.224	1627.911	1566.043
524.087	18.209	1626.983	1564.829
525.102	18.204	1625.297	1562.973
526.116	18.192	1623.891	1561.317
527.131	18.170	1622.818	1559.903
528.146	18.138	1622.356	1558.973
529.160	18.108	1620.796	1557.013
530.175	18.262	1619.692	1557.176
531.189	18.151	1619.339	1555.642
532.204	18.251	1617.674	1554.768
533.219	18.116	1616.205	1551.938
534.233	18.222	1615.194	1551.745
535.248	18.176	1614.490	1550.461
536.262	18.256	1613.611	1550.166
537.277	18.369	1612.378	1549.818
538.292	18.154	1610.641	1546.010
539.306	18.190	1608.421	1544.020
540.321	18.225	1607.705	1543.471
541.335	18.200	1605.795	1541.227
542.350	18.225	1604.524	1540.042
543.365	18.239	1602.594	1538.131
544.379	18.254	1601.703	1537.235
545.394	18.243	1600.988	1536.265
546.408	18.099	1599.518	1533.364
547.423	18.216	1598.098	1532.874
548.438	18.082	1597.141	1530.571
549.452	18.241	1595.483	1530.231
550.467	18.272	1594.513	1529.392
551.481	18.142	1594.316	1527.851
552.496	18.185	1593.095	1526.885
553.511	18.351	1591.603	1526.758
554.525	18.213	1591.132	1524.889
555.540	18.177	1590.727	1523.994
556.554	18.359	1589.038	1523.820
557.569	18.345	1586.716	1521.288
558.583	18.320	1585.688	1519.896
559.598	18.201	1584.570	1517.584
560.613	18.191	1583.800	1516.579
561.627	18.238	1582.471	1515.542
562.642	18.158	1580.416	1512.678
563.656	18.213	1579.381	1511.996
564.671	18.330	1578.041	1511.568
565.686	18.257	1577.068	1509.812
566.700	18.143	1575.708	1507.315
567.715	18.179	1573.841	1505.672
568.729	18.125	1572.654	1503.873
569.744	18.036	1571.195	1501.514
570.759	18.081	1570.203	1500.789
571.773	18.208	1569.148	1500.721
572.788	18.268	1567.644	1499.630
573.802	18.260	1565.812	1497.626
574.817	18.233	1565.570	1496.980
575.832	18.347	1564.404	1496.683
576.846	18.167	1563.349	1493.913
577.861	18.367	1561.935	1494.138
578.875	18.363	1561.449	1493.460
579.890	18.449	1560.331	1492.965
580.905	18.362	1559.297	1491.032
581.919	18.316	1558.652	1489.842
582.934	18.441	1557.574	1489.724
583.948	18.409	1556.434	1488.171
584.963	18.326	1555.203	1486.097
585.978	18.202	1553.889	1483.582
586.992	18.393	1552.396	1483.644
588.007	18.335	1552.446	1483.008
589.021	18.305	1551.446	1481.616
590.036	18.346	1548.877	1479.339
591.051	18.241	1548.246	1477.651
592.065	18.429	1546.082	1477.032
593.080	18.417	1544.860	1475.589
594.094	18.381	1543.559	1473.859
595.109	18.370	1541.724	1471.831
596.123	18.235	1540.761	1469.571
597.138	18.309	1539.669	1468.993
598.153	18.365	1538.070	1467.777
599.167	18.305	1537.275	1466.326
600.182	18.367	1536.599	1466.031
601.196	18.402	1535.746	1465.348
602.211	18.408	1534.279	1463.820
603.226	18.462	1532.848	1462.745
604.240	18.416	1531.612	1460.999
605.255	18.443	1530.550	1460.038
606.269	18.406	1530.098	1459.120
607.284	18.439	1529.206	1458.371
608.299	18.493	1527.225	1456.773
609.313	18.411	1526.485	1455.190
610.328	18.301	1525.380	1453.030
611.342	18.466	1523.480	1452.449
612.357	18.527	1522.885	1452.226
613.372	18.610	1521.550	1451.484
614.386	18.458	1520.221	1448.756
615.401	18.507	1519.713	1448.514
616.415	18.539	1518.889	1447.821
617.430	18.482	1517.981	1446.306
618.445	18.514	1516.759	1445.238
619.459	18.406	1515.594	1443.034
620.474	18.333	1514.183	1440.904
621.488	18.103	1512.917	1437.579
622.503	18.224	1511.724	1437.295
623.518	18.180	1510.826	1435.899
624.532	18.391	1509.855	1436.587
625.547	18.443	1508.643	1435.700
626.561	18.390	1508.588	1435.033
627.576	18.498	1507.673	1434.892
628.591	18.292	1505.406	1430.835
629.605	18.190	1504.115	1428.582
630.620	18.225	1502.657	1427.316
631.634	18.233	1501.147	1425.777
632.649	18.287	1500.556	1425.499
633.663	18.201	1499.379	1423.492
634.678	18.387	1498.251	1423.802
635.693	18.488	1497.082	1423.365
636.707	18.416	1495.669	1421.254
637.722	18.730	1494.680	1422.756
638.736	18.637	1493.660	1420.847
639.751	18.555	1492.953	1419.321
640.766	18.462	1491.273	1416.781
641.780	18.659	1490.128	1417.154
642.795	18.535	1489.128	1415.004
643.809	18.482	1489.170	1414.438
644.824	18.542	1488.072	1413.726
645.839	18.617	1487.266	1413.410
646.853	18.552	1485.535	1411.060
647.868	18.565	1484.079	1409.611
648.882	18.473	1482.794	1407.468
649.897	18.612	1481.642	1407.347
650.912	18.616	1480.259	1405.899
651.926	18.538	1479.176	1404.065
652.941	18.417	1477.794	1401.584
653.955	18.392	1475.800	1399.322
654.970	18.412	1474.132	1397.740
655.985	18.317	1473.508	1396.198
656.999	18.342	1472.166	1394.968
658.014	18.492	1470.401	1394.351
659.028	18.489	1470.299	1394.068
660.043	18.621	1469.892	1394.591
661.058	18.731	1467.525	1393.073
662.072	18.500	1467.783	1391.266
663.087	18.633	1465.607	1390.121
664.101	18.584	1465.388	1389.351
665.116	18.577	1464.351	1388.140
666.131	18.549	1463.592	1387.034
667.145	18.587	1462.124	1385.783
668.160	18.537	1460.423	1383.601
669.174	18.880	1459.276	1385.126
670.189	18.737	1458.707	1383.263
671.204	18.444	1457.790	1379.853
672.218	18.669	1456.468	1380.254
673.233	18.679	1456.053	1379.780
674.247	18.634	1454.482	1377.759
675.262	18.906	1453.017	1378.399
676.276	18.751	1452.918	1376.896
677.291	18.531	1452.074	1374.155
678.306	18.571	1450.697	1373.011
679.320	18.562	1449.007	1371.174
680.335	18.569	1448.525	1370.615
681.349	18.519	1448.093	1369.636
682.364	18.646	1446.587	1369.064
683.379	18.620	1444.810	1367.010
684.393	18.586	1443.359	1365.208
685.408	18.721	1442.272	1365.090
686.422	18.616	1441.966	1363.798
687.437	18.462	1442.201	1362.626
688.452	18.696	1441.174	1363.363
689.466	18.614	1439.045	1360.534
690.481	18.537	1437.949	1358.721
691.495	18.463	1436.491	1356.595
692.510	18.243	1434.858	1353.136
693.525	18.342	1433.208	1352.209
694.539	18.324	1432.633	1351.356
695.554	18.441	1432.588	1352.085
696.568	18.614	1430.987	1351.778
697.583	18.705	1430.503	1351.883
698.598	18.632	1430.269	1350.918
699.612	18.785	1428.217	1350.033
700.627	18.883	1426.701	1349.206
701.641	18.662	1426.085	1346.725
702.656	18.741	1424.857	1346.024
703.671	18.723	1425.010	1345.868
704.685	18.768	1424.219	1345.314
705.700	18.637	1423.308	1343.257
706.714	18.677	1421.454	1341.665
707.729	18.657	1420.218	1340.181
708.744	18.819	1418.371	1339.543
709.758	18.652	1417.058	1336.836
710.773	18.686	1415.381	1335.358
711.787	18.654	1414.119	1333.761
712.802	18.486	1413.189	1331.413
713.816	18.568	1413.126	1331.834
714.831	18.697	1411.940	1331.563
715.846	18.703	1410.636	1330.223
716.860	18.698	1409.765	1329.198
717.875	18.843	1408.919	1329.368
718.889	18.851	1407.722	1328.142
719.904	18.892	1406.661	1327.303
720.919	18.784	1405.747	1325.443
721.933	18.826	1404.787	1324.705
722.948	18.895	1403.941	1324.285
723.962	18.824	1403.107	1322.789
724.977	18.821	1401.558	1321.145
725.992	18.771	1400.309	1319.423
727.006	18.720	1399.246	1317.873
728.021	18.795	1397.923	1317.049
729.035	18.996	1396.564	1317.157
730.050	18.786	1395.412	1314.299
731.065	18.852	1394.388	1313.681
732.079	18.837	1393.616	1312.680
733.094	18.942	1392.603	1312.375
734.108	18.822	1391.184	1309.961
735.123	18.595	1390.475	1307.398
736.138	18.843	1388.746	1307.515
737.152	18.904	1388.224	1307.332
738.167	18.923	1387.012	1306.180
739.181	18.946	1386.097	1305.335
740.196	18.933	1384.979	1304.026
741.211	18.849	1384.144	1302.445
742.225	18.785	1383.753	1301.434
743.240	18.886	1381.763	1300.180
744.254	18.775	1380.454	1297.945
745.269	18.638	1380.851	1297.125
746.284	18.773	1379.399	1296.626
747.298	18.626	1378.283	1294.312
748.313	18.609	1376.207	1292.073
749.327	18.499	1375.347	1290.284
750.342	18.348	1374.683	1288.359
751.356	18.331	1372.631	1286.156
752.371	18.465	1371.636	1286.085
753.386	18.481	1372.084	1286.465
754.400	18.803	1371.297	1288.007
755.415	18.841	1370.712	1287.590
756.429	19.013	1369.062	1287.175
757.444	19.004	1367.160	1285.169
758.459	19.098	1366.506	1285.103
759.473	19.066	1365.608	1283.865
760.488	19.059	1364.553	1282.666
761.502	18.984	1364.204	1281.621
762.517	18.893	1362.272	1278.976
763.532	19.014	1360.243	1277.821
764.546	18.779	1359.814	1275.508
765.561	18.716	1359.389	1274.487
766.575	18.666	1358.011	1272.672
767.590	18.592	1356.610	1270.653
768.605	18.776	1355.153	1270.510
769.619	18.844	1354.281	1270.039
770.634	18.843	1353.691	1269.327
771.648	19.011	1352.630	1269.425
772.663	18.994	1352.293	1268.833
773.678	19.014	1350.960	1267.577
774.692	19.026	1350.627	1267.203
775.707	18.973	1349.970	1266.043
776.721	18.928	1349.081	1264.723
777.736	18.863	1348.853	1263.882
778.751	18.935	1346.986	1262.512
779.765	19.152	1345.773	1262.827
780.780	18.977	1344.710	1260.383
781.794	18.901	1344.012	1259.019
782.809	18.872	1342.800	1257.519
783.824	18.872	1341.813	1256.448
784.838	18.593	1340.396	1252.922
785.853	18.411	1339.114	1250.241
786.867	18.401	1338.662	1249.597
787.882	18.654	1338.369	1251.023
788.897	18.640	1337.611	1250.065
789.911	18.727	1336.186	1249.217
790.926	18.891	1334.864	1249.032
791.940	18.904	1333.571	1247.768
792.955	18.900	1332.609	1246.689
793.969	18.990	1331.127	1245.806
794.984	18.859	1330.932	1244.524
795.999	18.762	1329.878	1242.686
797.013	19.031	1327.789	1242.536
798.028	19.007	1327.171	1241.631
799.042	18.990	1327.044	1241.244
800.057	19.026	1325.544	1239.950
801.072	19.165	1323.653	1239.039
802.086	19.053	1322.893	1237.367
803.101	19.122	1321.786	1236.687
804.115	19.012	1320.940	1234.950
805.130	18.994	1319.931	1233.730
806.145	18.959	1319.028	1232.484
807.159	19.186	1317.228	1232.289
808.174	19.133	1315.956	1230.573
809.188	19.008	1314.641	1228.301
810.203	18.783	1313.645	1225.606
811.218	18.945	1310.575	1223.755
812.232	18.784	1309.458	1221.415
813.247	18.761	1309.171	1220.835
814.261	18.743	1309.313	1220.697
815.276	18.910	1308.593	1221.069
816.291	18.920	1307.750	1220.210
817.305	19.118	1306.880	1220.665
818.320	19.040	1305.436	1218.614
819.334	18.993	1303.913	1216.709
820.349	19.084	1302.217	1215.627
821.364	19.136	1300.659	1214.397
822.378	19.133	1300.051	1213.666
823.393	19.194	1298.334	1212.344
824.407	19.121	1297.265	1210.687
825.422	19.038	1297.068	1209.769
826.437	18.950	1295.736	1207.764
827.451	18.823	1294.046	1205.148
828.466	18.586	1292.798	1202.172
829.480	18.485	1290.525	1199.202
830.495	18.578	1289.388	1198.661
831.509	18.782	1288.694	1199.297
832.524	18.769	1288.722	1199.090
833.539	18.993	1287.143	1199.048
834.553	19.086	1285.995	1198.486
835.568	19.110	1284.696	1197.299
836.582	19.240	1283.424	1196.879
837.597	19.221	1282.205	1195.467
838.612	19.274	1280.524	1194.128
839.626	19.092	1280.196	1192.411
840.641	19.071	1279.286	1191.275
841.655	18.853	1278.406	1188.798
842.670	18.853	1276.809	1187.171
843.685	18.686	1275.660	1184.802
844.699	18.930	1274.590	1185.355
845.714	19.064	1273.466	1185.096
846.728	19.058	1272.630	1184.136
847.743	18.996	1271.815	1182.803
848.758	19.051	1271.289	1182.555
849.772	18.960	1270.198	1180.769
850.787	19.138	1268.007	1179.816
851.801	19.077	1267.296	1178.593
852.816	19.026	1265.904	1176.809
853.831	18.880	1264.262	1174.137
854.845	18.900	1262.648	1172.638
855.860	18.845	1261.165	1170.745
856.874	18.845	1259.900	1169.432
857.889	18.664	1259.036	1167.252
858.904	18.503	1257.564	1164.646
859.918	18.566	1255.794	1163.296
860.933	18.370	1254.857	1160.952
861.947	18.487	1254.304	1161.100
862.962	18.914	1252.518	1162.209
863.977	19.118	1250.682	1161.753
864.991	18.861	1251.015	1160.180
866.006	19.094	1250.934	1161.544
867.020	19.136	1249.485	1160.343
868.035	19.120	1247.691	1158.430
869.049	19.248	1246.553	1158.101
870.064	19.327	1246.071	1158.048
871.079	19.172	1246.018	1156.815
872.093	19.112	1245.589	1155.876
873.108	19.276	1244.030	1155.395
874.122	19.187	1242.555	1153.284
875.137	18.908	1242.642	1151.348
876.152	18.983	1241.675	1150.822
877.166	19.111	1239.187	1149.239
878.181	19.125	1237.860	1147.963
879.195	19.252	1237.455	1148.297
880.210	19.113	1237.212	1147.009
881.225	19.120	1236.653	1146.397
882.239	19.140	1235.378	1145.210
883.254	19.282	1233.671	1144.439
884.268	19.379	1232.970	1144.297
885.283	19.225	1232.243	1142.461
886.298	19.259	1230.608	1141.038
887.312	19.183	1229.789	1139.637
888.327	19.372	1228.087	1139.174
889.341	19.223	1227.367	1137.381
890.356	19.117	1226.953	1136.158
891.371	19.128	1226.976	1136.118
892.385	19.150	1225.786	1135.023
893.400	19.101	1224.753	1133.607
894.414	18.953	1223.364	1131.209
895.429	19.019	1221.073	1129.389
896.444	18.827	1218.975	1126.050
897.458	18.516	1218.557	1123.480
898.473	18.680	1218.293	1124.184
899.487	18.927	1217.338	1124.790
900.502	19.051	1216.032	1124.266
901.517	19.238	1214.856	1124.270
902.531	19.257	1214.385	1123.826
903.546	19.172	1214.139	1122.907
904.560	19.308	1212.994	1122.601
905.575	19.379	1212.368	1122.350
906.589	19.235	1211.447	1120.424
907.604	19.361	1210.294	1120.049
