DTS Sentinel unit serial number:	SN409020Multiplexer serial number:	ORYXHardware model number:	OX4-SRSoftware version number:	ORYX F/W v3.00 Oryx Data Collector v3.7.2.0data status	okinstallation	HaddamTimeLapsedifferential loss correction	single-endedforward channel	channel 3reverse channel	N/Adate	2011/06/22time	10:46:02forward acquisition time	30.00reverse acquisition time	0.00gamma	498.7831k internal	0.1785k external	0.1785temperature offset calibration	1.0074default loss term (dB/km)	0.3790temperature slope calibration	1.3530multiplexer offset coefficient	1.0000multiplexer slope coefficient	1.0000fibre end	0.00T internal ref (°C)	30.22T ext. ref 1 (°C)	24.93T ext. ref 2 (°C)	-0.09length (m)	temperature (°C)	Stokes	anti-Stokes-747.200	-27.044	-0.162	0.123
-746.185	17.898	-0.461	0.479
-745.171	-86.052	0.277	-0.111
-744.156	-33.098	-0.390	0.281
-743.142	-200.000	-0.042	-0.329
-742.127	535.713	-0.257	0.800
-741.112	72.264	-0.133	-0.181
-740.098	697.606	0.091	0.315
-739.083	318.472	0.057	-0.142
-738.069	48.985	0.237	0.290
-737.054	31.774	-0.395	-0.443
-736.039	-83.797	-0.441	-0.182
-735.025	101.520	0.147	-0.223
-734.010	29.445	-0.589	-0.652
-732.996	800.000	-0.060	-0.228
-731.981	-200.000	-0.005	0.406
-730.966	211.103	0.052	0.106
-729.952	-106.964	-0.238	0.068
-728.937	-144.975	0.031	-0.004
-727.923	81.477	-0.118	0.167
-726.908	21.071	0.286	-0.302
-725.894	-142.116	-0.185	-0.024
-724.879	39.684	-0.205	-0.239
-723.864	-200.000	0.271	0.001
-722.850	57.079	0.181	0.230
-721.835	-79.333	0.251	0.110
-720.821	-4.670	0.088	-0.079
-719.806	12.710	-0.459	0.461
-718.791	800.000	-0.097	0.493
-717.777	-177.801	-0.637	0.020
-716.762	46.267	-0.078	0.094
-715.748	-133.330	0.044	-0.007
-714.733	65.991	-0.324	0.428
-713.718	-137.320	-0.602	0.088
-712.704	458.108	-0.203	-0.589
-711.689	-52.008	0.081	0.049
-710.675	-50.405	0.356	0.218
-709.660	-94.611	-0.152	-0.053
-708.645	17.235	-0.264	-0.272
-707.631	-96.105	-0.476	0.164
-706.616	34.199	0.075	-0.085
-705.602	59.148	-0.214	-0.274
-704.587	-39.398	-0.217	0.148
-703.572	-132.735	-0.439	0.072
-702.558	-128.919	0.257	0.046
-701.543	800.000	0.068	0.261
-700.529	590.693	-0.172	-0.556
-699.514	112.376	-0.121	0.191
-698.499	-128.715	0.354	0.064
-697.485	-139.772	-0.139	-0.019
-696.470	259.299	0.027	-0.060
-695.456	-143.967	-0.413	-0.050
-694.441	-200.000	-0.061	-0.401
-693.426	700.646	-0.074	-0.255
-692.412	-84.679	0.259	-0.106
-691.397	172.815	0.083	0.157
-690.383	424.354	-0.110	0.309
-689.368	-101.420	0.324	-0.102
-688.354	570.859	0.185	0.590
-687.339	800.000	0.102	-0.473
-686.324	-99.491	-0.634	-0.206
-685.310	641.728	-0.085	0.283
-684.295	144.210	-0.108	0.189
-683.281	-67.286	-0.435	-0.221
-682.266	139.801	0.090	-0.154
-681.251	-53.642	-0.245	-0.145
-680.237	-166.967	-0.198	0.010
-679.222	-109.929	-0.132	-0.036
-678.208	-135.206	0.529	-0.082
-677.193	-14.822	-0.095	0.079
-676.178	71.126	-0.146	0.197
-675.164	-117.463	0.561	-0.131
-674.149	-39.974	-0.490	-0.332
-673.135	-93.249	-0.303	-0.109
-672.120	-136.757	-0.333	-0.049
-671.105	10.377	-0.226	-0.223
-670.091	-108.924	-0.224	-0.062
-669.076	-61.047	-0.384	-0.210
-668.062	633.835	0.089	-0.296
-667.047	336.476	-0.083	0.211
-666.032	168.739	0.151	-0.280
-665.018	521.011	0.090	0.277
-664.003	-200.000	-0.050	0.665
-662.989	-192.939	-0.217	0.002
-661.974	627.311	-0.215	0.710
-660.959	-200.000	0.010	0.084
-659.945	14.235	-0.063	0.064
-658.930	273.260	0.023	-0.053
-657.916	8.792	0.164	-0.161
-656.901	-114.086	0.644	-0.161
-655.886	-87.329	-0.412	-0.161
-654.872	-119.198	-0.414	-0.093
-653.857	-17.652	-0.414	-0.338
-652.843	-65.832	0.195	-0.101
-651.828	43.148	-0.304	-0.361
-650.814	-44.357	-0.314	0.204
-649.799	-41.983	0.088	0.058
-648.784	394.914	0.118	-0.320
-647.770	455.367	0.125	-0.362
-646.755	-69.829	0.029	0.015
-645.741	-43.555	-0.185	0.121
-644.726	193.477	-0.071	-0.140
-643.711	-145.914	0.368	-0.042
-642.697	-200.000	-0.045	0.292
-641.682	229.206	-0.173	0.367
-640.668	-200.000	-0.001	0.160
-639.653	315.997	0.070	-0.172
-638.638	352.180	-0.109	0.281
-637.624	-200.000	-0.008	-0.081
-636.609	38.508	-0.279	-0.323
-635.595	-200.000	0.023	-0.365
-634.580	637.593	0.149	-0.494
-633.565	-200.000	-0.015	-0.287
-632.551	-10.046	-0.024	0.021
-631.536	559.204	0.047	0.149
-630.522	-200.000	0.002	-0.109
-629.507	800.000	0.056	-0.271
-628.492	-60.718	0.183	-0.100
-627.478	119.237	-0.063	0.101
-626.463	150.746	-0.090	0.159
-625.449	36.541	-0.189	0.217
-624.434	-200.000	0.018	0.201
-623.419	30.819	-0.031	0.034
-622.405	-200.000	-0.032	0.579
-621.390	8.185	0.354	0.344
-620.376	-10.918	0.248	-0.212
-619.361	-200.000	0.015	0.154
-618.346	-200.000	-0.021	0.283
-617.332	-37.378	-0.109	0.076
-616.317	-94.028	-0.207	-0.073
-615.303	-110.622	-0.311	0.083
-614.288	-71.411	0.036	0.018
-613.273	-31.380	-0.437	0.318
-612.259	431.605	-0.138	0.390
-611.244	-140.065	0.666	-0.090
-610.230	800.000	-0.027	-0.102
-609.215	-200.000	-0.032	0.232
-608.201	800.000	0.090	0.353
-607.186	-10.922	0.145	0.124
-606.171	420.272	-0.170	0.475
-605.157	144.664	0.068	0.119
-604.142	444.311	0.146	0.417
-603.128	-130.166	-0.408	0.071
-602.113	-30.156	-0.384	-0.282
-601.098	123.023	0.141	0.230
-600.084	-134.419	-0.107	-0.017
-599.069	163.265	-0.189	-0.346
-598.055	64.008	0.102	-0.132
-597.040	-172.922	-0.263	0.010
-596.025	-108.826	0.457	0.126
-595.011	-30.176	-0.080	0.059
-593.996	705.387	-0.063	-0.216
-592.982	-103.655	-0.022	-0.007
-591.967	-31.029	-0.075	0.055
-590.952	-200.000	-0.036	0.487
-589.938	-200.000	-0.014	0.253
-588.923	-54.731	0.148	-0.086
-587.909	-174.405	0.396	0.015
-586.894	-61.001	-0.298	0.163
-585.879	4.386	0.248	0.235
-584.865	28.346	0.111	0.122
-583.850	800.000	-0.036	0.203
-582.836	-51.253	0.292	0.176
-581.821	-200.000	-0.035	0.353
-580.806	-200.000	-0.034	0.314
-579.792	9.517	-0.127	0.124
-578.777	-200.000	-0.004	0.493
-577.763	-90.788	-0.190	-0.071
-576.748	-118.914	0.517	-0.117
-575.733	-110.402	0.645	-0.172
-574.719	54.398	0.355	-0.443
-573.704	-88.185	-0.486	0.187
-572.690	-200.000	-0.002	0.133
-571.675	-99.376	-0.465	0.151
-570.661	-110.062	-0.467	-0.125
-569.646	18.073	0.457	0.471
-568.631	-133.220	-0.168	-0.027
-567.617	-118.224	0.053	-0.012
-566.602	-24.758	-0.192	0.148
-565.588	800.000	-0.064	-0.343
-564.573	-200.000	-0.138	0.828
-563.558	-89.441	0.493	0.187
-562.544	-83.395	0.375	-0.155
-561.529	118.376	-0.073	-0.117
-560.515	800.000	0.091	-0.344
-559.500	-53.871	0.176	-0.103
-558.485	-53.297	0.255	0.151
-557.471	-200.000	0.046	0.606
-556.456	-44.261	0.205	0.133
-555.442	-127.647	-0.511	0.095
-554.427	800.000	0.057	-0.211
-553.412	-1.823	-0.281	-0.255
-552.398	26.670	-0.294	0.318
-551.383	20.965	-0.182	-0.191
-550.369	405.850	-0.055	-0.150
-549.354	115.425	0.082	-0.129
-548.339	-123.645	-0.423	0.086
-547.325	459.028	-0.178	-0.516
-546.310	745.080	-0.167	-0.586
-545.296	35.222	-0.474	0.537
-544.281	-110.312	0.186	-0.050
-543.266	355.674	-0.101	-0.262
-542.252	-42.357	-0.165	0.109
-541.237	-200.000	0.007	-0.275
-540.223	-162.082	0.227	0.015
-539.208	-30.772	-0.200	-0.146
-538.193	94.368	0.101	-0.149
-537.179	-82.442	0.154	-0.064
-536.164	108.886	-0.071	0.111
-535.150	66.509	0.090	0.118
-534.135	-123.852	0.180	-0.036
-533.121	-128.652	-0.083	-0.015
-532.106	144.243	0.179	0.309
-531.091	372.537	0.185	0.488
-530.077	800.000	0.027	0.111
-529.062	43.712	-0.105	0.124
-528.048	-7.000	0.223	0.196
-527.033	-48.332	-0.277	0.172
-526.018	-104.874	-0.528	0.156
-525.004	81.364	-0.286	0.399
-523.989	-39.068	-0.280	0.190
-522.975	579.384	-0.068	-0.216
-521.960	-0.669	-0.304	0.278
-520.945	166.268	0.255	0.467
-519.931	-122.186	-0.408	0.085
-518.916	1.943	0.336	0.313
-517.902	-108.436	-0.069	-0.019
-516.887	68.105	-0.033	0.043
-515.872	-85.780	0.255	0.101
-514.858	-49.472	-0.286	-0.176
-513.843	-81.633	-0.261	0.110
-512.829	-101.421	-0.289	0.090
-511.814	258.636	-0.092	0.205
-510.799	126.690	-0.085	-0.139
-509.785	-178.267	0.243	-0.007
-508.770	-119.886	-0.646	-0.142
-507.756	647.780	0.145	-0.480
-506.741	31.148	0.226	0.250
-505.726	-25.075	-0.142	-0.109
-504.712	-69.661	0.083	0.041
-503.697	228.095	0.124	-0.262
-502.683	-7.013	-0.201	-0.176
-501.668	800.000	-0.116	-0.621
-500.653	36.172	-0.109	0.124
-499.639	-132.829	0.527	0.086
-498.624	9.131	-0.215	0.210
-497.610	-189.744	-0.227	-0.003
-496.595	254.235	-0.189	0.419
-495.581	29.070	0.300	0.329
-494.566	-86.908	-0.144	-0.056
-493.551	59.957	-0.083	-0.106
-492.537	132.996	0.156	0.261
-491.522	-9.175	0.384	-0.331
-490.508	436.141	0.062	-0.174
-489.493	225.178	-0.038	-0.079
-488.478	186.643	0.058	-0.112
-487.464	-200.000	-0.051	-0.381
-486.449	57.311	0.346	0.436
-485.435	715.033	0.137	-0.472
-484.420	-72.711	0.239	0.113
-483.405	-151.004	-0.335	0.032
-482.391	-122.911	0.257	-0.053
-481.376	74.241	0.045	0.061
-480.362	51.362	0.180	-0.221
-479.347	62.912	0.297	-0.383
-478.332	-163.906	-0.417	-0.025
-477.318	-111.244	0.249	0.065
-476.303	289.523	-0.086	0.201
-475.289	36.877	-0.318	0.362
-474.274	-89.676	-0.231	-0.087
-473.259	-95.738	0.345	0.118
-472.245	-151.223	0.301	-0.029
-471.230	-1.403	-0.037	0.034
-470.216	-152.022	-0.270	0.025
-469.201	5.617	0.524	0.499
-468.186	-90.658	0.198	-0.073
-467.172	71.482	-0.081	-0.109
-466.157	-87.861	0.059	-0.023
-465.143	40.803	0.065	-0.076
-464.128	-98.588	-0.513	-0.168
-463.113	-6.992	-0.128	-0.112
-462.099	76.474	-0.122	-0.166
-461.084	-168.039	-0.106	-0.005
-460.070	-89.823	0.265	-0.099
-459.055	-135.695	0.158	-0.024
-458.040	604.805	0.051	0.166
-457.026	-7.305	0.343	-0.299
-456.011	248.627	-0.141	-0.309
-454.997	-52.436	-0.353	0.210
-453.982	-60.630	-0.172	-0.094
-452.968	-130.285	0.028	-0.005
-451.953	-72.897	0.452	-0.213
-450.938	-200.000	0.001	-0.106
-449.924	129.286	0.141	-0.233
-448.909	606.570	-0.126	0.406
-447.895	-186.761	0.680	0.012
-446.880	-109.854	-0.153	-0.041
-445.865	-42.643	0.440	0.288
-444.851	-115.340	0.497	0.120
-443.836	494.201	0.070	0.207
-442.822	-128.844	-0.652	0.117
-441.807	-129.116	0.139	-0.025
-440.792	50.844	0.271	0.331
-439.778	-200.000	-0.044	0.466
-438.763	-42.586	0.547	-0.358
-437.749	-200.000	0.025	0.148
-436.734	-6.652	-0.042	0.036
-435.719	-37.115	0.340	0.234
-434.705	-124.190	0.315	-0.063
-433.690	-53.351	-0.044	-0.026
-432.676	-200.000	0.018	0.132
-431.661	5.166	-0.144	-0.136
-430.646	601.013	0.236	-0.758
-429.632	-121.758	-0.515	0.109
-428.617	-56.960	-0.423	0.239
-427.603	18.171	-0.296	0.304
-426.588	-130.817	-0.552	0.094
-425.573	-185.186	-0.370	0.007
-424.559	-20.304	0.393	0.311
-423.544	-83.761	0.109	-0.045
-422.530	196.695	0.085	-0.166
-421.515	-200.000	0.000	0.284
-420.500	-102.098	0.719	0.221
-419.486	-200.000	-0.024	-0.159
-418.471	-200.000	0.015	-0.153
-417.457	438.787	0.171	-0.483
-416.442	-99.470	-0.285	0.092
-415.428	-96.212	-0.293	-0.099
-414.413	-133.233	0.450	-0.072
-413.398	232.025	-0.172	-0.364
-412.384	67.041	0.218	-0.286
-411.369	800.000	0.054	0.303
-410.355	-25.275	-0.535	0.407
-409.340	-31.661	-0.310	-0.223
-408.325	63.594	0.301	-0.389
-407.311	-32.143	-0.413	0.297
-406.296	35.177	0.292	0.329
-405.282	74.650	0.456	-0.618
-404.267	-78.412	0.307	-0.135
-403.252	-200.000	-0.007	0.198
-402.238	800.000	0.039	0.138
-401.223	-47.915	0.371	-0.230
-400.209	73.959	0.228	-0.308
-399.194	-156.272	0.271	-0.022
-398.179	-3.014	-0.241	0.216
-397.165	-108.451	-0.081	-0.022
-396.150	-72.586	0.249	0.117
-395.136	262.401	-0.153	-0.342
-394.121	196.005	-0.155	-0.305
-393.106	800.000	-0.166	-0.599
-392.092	-108.359	0.570	0.157
-391.077	120.127	0.273	0.436
-390.063	33.736	-0.251	0.280
-389.048	144.114	-0.068	0.118
-388.033	-27.103	0.137	0.102
-387.019	-197.921	-0.463	0.003
-386.004	-113.917	-0.313	-0.077
-384.990	90.729	-0.037	0.054
-383.975	-132.967	-0.517	-0.084
-382.960	800.000	0.055	-0.257
-381.946	-174.656	0.105	-0.004
-380.931	240.220	-0.074	0.159
-379.917	-98.920	-0.594	-0.193
-378.902	20.468	0.277	-0.288
-377.888	-6.609	-0.533	-0.466
-376.873	25.681	0.298	0.319
-375.858	298.435	0.168	-0.399
-374.844	294.582	0.033	-0.078
-373.829	800.000	-0.096	-0.424
-372.815	-190.509	0.098	0.001
-371.800	-171.371	-0.343	-0.014
-370.785	-102.021	-0.154	-0.047
-369.771	31.319	-0.158	-0.174
-368.756	-179.437	0.244	0.007
-367.742	-200.000	-0.006	-0.112
-366.727	800.000	0.072	0.310
-365.712	-29.555	-0.444	0.325
-364.698	474.576	0.165	0.479
-363.683	-37.372	-0.430	0.294
-362.669	800.000	0.051	-0.260
-361.654	15.793	-0.305	0.308
-360.639	-200.000	-0.011	0.092
-359.625	-138.638	0.258	-0.036
-358.610	800.000	0.024	-0.093
-357.596	89.796	-0.414	0.595
-356.581	-141.846	-0.433	-0.055
-355.566	800.000	-0.090	-0.343
-354.552	-165.526	0.538	-0.030
-353.537	23.969	0.160	0.169
-352.523	4.367	-0.207	-0.195
-351.508	105.940	-0.078	-0.119
-350.493	63.463	0.184	-0.237
-349.479	-77.079	-0.092	-0.041
-348.464	356.144	0.171	0.438
-347.450	800.000	0.089	-0.347
-346.435	53.498	-0.329	-0.405
-345.420	-68.922	0.050	0.025
-344.406	273.277	0.137	-0.312
-343.391	49.475	-0.357	-0.431
-342.377	-32.383	0.209	-0.150
-341.362	-41.836	0.235	-0.154
-340.348	-112.687	-0.196	-0.050
-339.333	-200.000	-0.042	0.246
-338.318	705.388	-0.065	-0.222
-337.304	-98.590	0.234	-0.076
-336.289	77.051	0.219	0.299
-335.275	484.077	0.060	-0.176
-334.260	97.613	0.245	-0.361
-333.245	66.740	-0.142	-0.186
-332.231	-136.986	0.509	0.074
-331.216	-1.142	-0.271	-0.246
-330.202	-84.002	-0.349	-0.142
-329.187	-97.113	-0.346	-0.115
-328.172	-200.000	0.024	-0.282
-327.158	-49.140	-0.023	-0.014
-326.143	-9.842	-0.200	-0.170
-325.129	-57.267	0.231	0.130
-324.114	-74.367	0.579	0.267
-323.099	779.397	-0.056	-0.198
-322.085	-169.310	-0.387	0.018
-321.070	185.089	-0.202	0.386
-320.056	659.872	-0.072	-0.237
-319.041	-40.478	-0.055	0.036
-318.026	273.049	-0.039	-0.088
-317.012	-118.114	-0.114	-0.026
-315.997	17.702	0.219	-0.223
-314.983	127.056	0.150	0.244
-313.968	86.713	-0.195	-0.276
-312.953	-106.676	-0.212	-0.060
-311.939	-200.000	0.006	-0.305
-310.924	-200.000	0.216	0.000
-309.910	321.271	-0.142	0.347
-308.895	-95.757	-0.149	0.051
-307.880	465.484	-0.141	-0.407
-306.866	800.000	0.056	-0.271
-305.851	-4.690	-0.278	0.245
-304.837	34.366	-0.217	-0.243
-303.822	-75.082	0.239	0.109
-302.807	16.565	0.495	-0.501
-301.793	800.000	-0.141	-0.507
-300.778	-200.000	-0.022	-0.131
-299.764	-13.763	-0.471	-0.390
-298.749	230.432	0.154	-0.323
-297.735	-153.620	0.478	0.042
-296.720	-41.994	-0.634	-0.415
-295.705	-90.716	-0.152	0.056
-294.691	721.508	0.104	-0.355
-293.676	-36.245	0.269	-0.186
-292.662	-42.999	0.327	0.212
-291.647	-71.702	-0.943	-0.448
-290.632	800.000	-0.085	0.419
-289.618	-117.752	0.184	-0.042
-288.603	-114.164	-0.185	0.045
-287.589	800.000	0.023	0.088
-286.574	-116.041	0.315	-0.075
-285.559	-37.860	-0.267	-0.181
-284.545	388.936	0.139	0.369
-283.530	-72.924	-0.434	-0.203
-282.516	-35.240	-0.246	-0.171
-281.501	-200.000	-0.029	-0.378
-280.486	-200.000	0.017	0.387
-279.472	-147.126	-0.374	0.040
-278.457	-86.210	0.309	-0.121
-277.443	-98.250	0.468	-0.153
-276.428	-117.883	0.346	0.079
-275.413	45.374	-0.323	0.381
-274.399	-200.000	-0.011	-0.250
-273.384	-200.000	0.015	-0.195
-272.370	-84.222	0.182	-0.073
-271.355	-115.289	0.160	0.038
-270.340	583.018	-0.057	0.181
-269.326	-81.169	0.292	-0.123
-268.311	80.940	0.215	0.297
-267.297	-75.033	-0.245	0.112
-266.282	-107.933	-0.505	0.139
-265.267	266.214	0.134	0.301
-264.253	-122.140	-0.472	-0.098
-263.238	20.116	0.312	0.321
-262.224	800.000	-0.111	0.407
-261.209	-24.908	0.373	-0.283
-260.195	-118.478	0.312	0.070
-259.180	-200.000	0.022	0.199
-258.165	409.050	0.124	-0.336
-257.151	145.952	-0.044	0.075
-256.136	-92.289	0.350	-0.125
-255.122	18.474	-0.112	0.114
-254.107	-37.663	-0.206	-0.140
-253.092	-119.415	0.105	0.023
-252.078	3.280	0.249	-0.232
-251.063	-200.000	0.000	-0.211
-250.049	-8.327	-0.290	-0.249
-249.034	-65.740	0.503	-0.257
-248.019	-42.117	-0.181	-0.118
-247.005	192.449	0.189	-0.365
-245.990	-200.000	-0.062	0.417
-244.976	-175.066	0.061	-0.002
-243.961	-65.481	-0.376	0.192
-242.946	89.529	0.197	0.281
-241.932	249.100	0.045	0.098
-240.917	-43.134	-0.102	0.066
-239.903	473.698	0.096	0.279
-238.888	-58.195	0.090	-0.050
-237.873	800.000	-0.051	-0.198
-236.859	685.854	0.073	0.243
-235.844	-74.197	0.393	0.181
-234.830	-120.548	0.281	0.060
-233.815	-100.314	0.303	0.095
-232.800	164.561	-0.041	0.074
-231.786	800.000	0.116	-0.534
-230.771	0.409	0.297	-0.270
-229.757	83.888	-0.257	0.358
-228.742	-99.547	-0.152	-0.048
-227.727	-132.607	0.081	-0.013
-226.713	-84.482	0.245	-0.098
-225.698	458.339	-0.180	-0.515
-224.684	-148.750	0.245	0.025
-223.669	-26.057	-0.168	-0.126
-222.655	-123.411	-0.279	0.056
-221.640	-43.770	-0.269	-0.172
-220.625	129.013	0.028	-0.045
-219.611	-66.073	-0.187	0.095
-218.596	174.972	0.254	0.470
-217.582	-94.527	0.340	-0.118
-216.567	-56.851	0.148	0.083
-215.552	-74.155	0.558	0.257
-214.538	-200.000	-0.097	0.587
-213.523	-95.394	0.176	-0.060
-212.509	-200.000	-0.091	-0.531
-211.494	-21.320	0.287	0.223
-210.479	209.372	-0.141	0.283
-209.465	-12.523	0.089	0.074
-208.450	224.577	-0.033	0.068
-207.436	-98.253	0.492	-0.160
-206.421	70.691	0.289	-0.383
-205.406	800.000	-0.094	-0.337
-204.392	-175.302	-0.430	0.015
-203.377	244.474	0.244	0.524
-202.363	-31.535	-0.209	0.149
-201.348	23.167	-0.204	-0.213
-200.333	-71.377	0.332	0.158
-199.319	109.185	0.095	0.146
-198.304	-64.910	-0.165	0.085
-197.290	8.803	-0.323	0.310
-196.275	-200.000	0.023	0.268
-195.260	-200.000	-0.033	-0.258
-194.246	39.083	-0.131	0.149
-193.231	-124.512	-0.184	0.036
-192.217	-62.767	-0.135	-0.071
-191.202	-6.136	-0.097	-0.085
-190.187	-200.000	0.027	-0.220
-189.173	-115.016	-0.104	0.025
-188.158	244.158	0.184	-0.396
-187.144	122.963	-0.275	-0.440
-186.129	800.000	0.048	0.192
-185.114	-136.898	0.331	0.048
-184.100	-92.388	-0.481	-0.171
-183.085	-158.492	-0.360	0.026
-182.071	386.882	-0.083	-0.219
-181.056	424.852	0.090	0.247
-180.042	44.568	0.386	0.452
-179.027	-200.000	0.029	0.211
-178.012	-99.177	-0.281	-0.090
-176.998	-44.903	0.302	0.191
-175.983	48.685	0.180	0.215
-174.969	3.446	-0.227	0.211
-173.954	528.614	0.047	-0.143
-172.939	83.564	0.247	0.344
-171.925	-77.085	0.244	-0.108
-170.910	-135.734	-0.431	-0.064
-169.896	-14.071	0.168	-0.138
-168.881	95.625	-0.200	0.292
-167.866	3.075	0.155	0.144
-166.852	-72.771	-0.378	-0.176
-165.837	75.352	-0.215	-0.289
-164.823	800.000	0.076	-0.396
-163.808	-0.156	0.189	-0.171
-162.793	38.435	0.216	-0.245
-161.779	241.094	-0.251	-0.535
-160.764	66.261	0.277	-0.359
-159.750	-53.369	-0.031	-0.018
-158.735	-141.512	0.404	-0.051
-157.720	-86.888	0.021	0.008
-156.706	-68.605	0.124	0.061
-155.691	305.033	-0.113	0.268
-154.677	-65.710	-0.409	0.208
-153.662	227.322	-0.019	0.040
-152.647	550.645	0.062	0.190
-151.633	-8.227	0.104	0.089
-150.618	-164.496	-0.291	-0.017
-149.604	669.278	-0.078	-0.258
-148.589	28.145	0.333	-0.357
-147.574	800.000	0.011	0.057
-146.560	-160.098	0.364	-0.025
-145.545	-107.890	-0.164	0.045
-144.531	165.401	-0.041	-0.074
-143.516	9.624	-0.217	0.209
-142.502	800.000	0.090	-0.321
-141.487	-155.038	0.483	-0.040
-140.472	-200.000	0.023	0.218
-139.458	-55.182	0.293	0.167
-138.443	-61.789	0.435	0.231
-137.429	-175.113	-0.526	-0.018
-136.414	334.991	-0.096	-0.238
-135.399	-68.198	-0.235	0.116
-134.385	-187.802	-0.262	-0.004
-133.370	-40.302	-0.278	-0.183
-132.356	-92.687	-0.344	-0.122
-131.341	217.420	0.029	-0.060
-130.326	10.113	0.325	0.314
-129.312	-200.000	-0.011	0.228
-128.297	150.469	-0.226	0.391
-127.283	800.000	-0.061	0.236
-126.268	-4.690	0.128	-0.112
-125.253	1.625	0.373	0.341
-124.239	-125.132	-0.198	-0.038
-123.224	124.113	-0.247	-0.396
-122.210	-68.014	0.210	0.104
-121.195	66.562	-0.130	0.168
-120.180	800.000	0.051	-0.222
-119.166	-108.147	0.106	-0.029
-118.151	-37.819	0.263	-0.177
-117.137	-200.000	0.004	-0.542
-116.122	159.855	-0.371	0.658
-115.107	13.385	0.242	-0.239
-114.093	-200.000	-0.008	-0.446
-113.078	-43.559	-0.236	-0.151
-112.064	-180.224	0.163	-0.004
-111.049	208.259	0.121	-0.241
-110.034	-5.186	-0.210	0.183
-109.020	-104.898	0.185	-0.054
-108.005	-34.700	0.084	-0.058
-106.991	115.900	-0.116	-0.181
-105.976	-111.328	-0.575	-0.148
-104.962	-200.000	-0.055	0.492
-103.947	-73.407	-0.232	0.107
-102.932	-126.422	-0.106	0.020
-101.918	8.943	0.084	0.081
-100.903	-67.061	-0.246	0.123
-99.889	800.000	0.062	0.319
-98.874	-154.085	-0.263	0.022
-97.859	240.316	-0.143	0.304
-96.845	-11.007	0.121	0.101
-95.830	-123.073	0.103	0.021
-94.816	-26.742	-0.197	0.146
-93.801	33.981	-0.369	0.408
-92.786	153.039	-0.084	-0.146
-91.772	175.588	-0.169	-0.313
-90.757	257.921	-0.120	0.262
-89.743	-141.245	0.701	0.090
-88.728	-200.000	-0.011	0.874
-87.713	24.181	-0.083	0.087
-86.699	-50.332	0.159	0.095
-85.684	-34.567	0.287	0.199
-84.670	43.849	-0.140	0.162
-83.655	800.000	-0.102	0.377
-82.640	-81.026	0.279	0.117
-81.626	686.258	-0.113	0.377
-80.611	-32.672	0.183	0.129
-79.597	17.847	-0.272	0.275
-78.582	-57.465	-0.218	0.121
-77.567	-26.172	0.307	-0.228
-76.553	-37.342	0.243	-0.165
-75.538	235.355	-0.116	0.244
-74.524	-87.550	0.202	0.077
-73.509	-21.542	0.272	-0.210
-72.494	-1.961	0.284	0.253
-71.480	-86.082	-0.436	-0.170
-70.465	-23.443	-0.311	0.237
-69.451	-200.000	-0.004	-0.180
-68.436	-95.376	0.367	-0.124
-67.422	-199.557	-0.281	-0.002
-66.407	19.785	-0.324	0.331
-65.392	-143.279	-0.230	0.028
-64.378	-4.690	0.228	0.199
-63.363	506.465	-0.248	0.733
-62.349	-200.000	0.023	0.385
-61.334	6.238	-2.407	-2.263
-60.319	-25.107	0.962	0.722
-59.305	206.059	-3.292	-6.517
-58.290	35.678	4.104	4.576
-57.276	522.717	3.663	10.972
-56.261	-200.000	19.515	282.707
-55.246	411.394	1234.982	3340.404
-54.232	58.441	2835.407	3531.081
-53.217	68.864	2706.988	3529.157
-52.203	54.016	2438.864	2975.840
-51.188	38.745	2095.005	2372.309
-50.173	32.855	1975.632	2169.239
-49.159	31.178	1964.169	2137.288
-48.144	30.679	1960.062	2126.996
-47.130	30.568	1958.401	2123.841
-46.115	30.584	1955.913	2121.244
-45.100	30.416	1955.497	2118.774
-44.086	30.493	1953.867	2117.807
-43.071	30.484	1951.954	2115.545
-42.057	30.519	1950.059	2113.814
-41.042	30.520	1949.355	2112.974
-40.027	30.506	1946.898	2110.067
-39.013	30.519	1945.452	2108.562
-37.998	30.419	1944.453	2106.256
-36.984	30.347	1944.112	2104.985
-35.969	30.405	1941.974	2103.248
-34.954	30.423	1940.817	2102.112
-33.940	30.287	1940.128	2099.737
-32.925	30.344	1938.776	2098.839
-31.911	30.452	1936.196	2097.185
-30.896	30.386	1935.330	2095.422
-29.881	30.350	1934.178	2093.681
-28.867	30.313	1933.497	2092.437
-27.852	30.300	1932.142	2090.742
-26.838	30.280	1930.294	2088.440
-25.823	30.209	1930.045	2087.280
-24.809	30.157	1927.528	2083.892
-23.794	30.170	1926.918	2083.295
-22.779	30.124	1926.113	2081.822
-21.765	30.274	1923.160	2080.241
-20.750	30.176	1922.566	2078.401
-19.736	30.210	1921.332	2077.368
-18.721	30.256	1919.011	2075.300
-17.706	30.076	1918.759	2072.917
-16.692	30.121	1917.606	2072.102
-15.677	30.052	1917.465	2071.089
-14.663	30.122	1915.794	2069.983
-13.648	30.205	1912.564	2067.339
-12.633	30.154	1912.729	2066.867
-11.619	30.028	1911.792	2064.362
-10.604	30.082	1909.584	2062.496
-9.590	30.137	1908.764	2062.147
-8.575	30.139	1907.400	2060.621
-7.560	30.123	1906.448	2059.327
-6.546	29.950	1905.773	2056.587
-5.531	30.068	1904.229	2056.149
-4.517	30.125	1902.848	2055.214
-3.502	30.047	1902.027	2053.382
-2.487	30.092	1900.014	2051.625
-1.473	30.210	1896.933	2049.529
-0.458	30.001	1876.928	2025.538
0.556	25.844	2020.493	2118.635
1.571	24.466	2230.186	2320.246
2.586	25.527	2273.526	2379.178
3.600	25.846	2276.083	2385.817
4.615	26.170	2277.894	2391.734
5.629	26.212	2275.312	2389.294
6.644	26.290	2272.803	2387.412
7.659	26.278	2271.677	2385.784
8.673	26.171	2268.436	2380.685
9.688	25.263	2274.003	2374.163
10.702	23.103	2350.645	2424.169
11.717	21.409	2416.407	2467.676
12.731	12.067	2391.979	2310.658
13.746	2.301	2364.356	2146.412
14.761	0.476	2359.479	2116.020
15.775	0.442	2356.303	2112.428
16.790	0.303	2355.334	2109.359
17.804	0.249	2354.187	2107.314
18.819	0.238	2353.393	2106.201
19.834	0.243	2351.630	2104.437
20.848	0.265	2350.364	2103.364
21.863	0.306	2348.150	2101.712
22.877	0.174	2346.097	2097.768
23.892	0.226	2343.978	2096.351
24.907	0.240	2341.698	2094.259
25.921	0.292	2339.577	2092.841
26.936	0.270	2337.618	2090.527
27.950	0.122	2335.743	2086.531
28.965	0.194	2332.650	2084.530
29.980	0.228	2331.391	2083.619
30.994	0.387	2328.906	2083.367
32.009	5.383	2347.209	2169.285
33.023	17.590	2384.012	2375.066
34.038	23.443	2395.955	2468.863
35.053	24.714	2396.215	2486.606
36.067	25.275	2395.430	2493.335
37.082	25.168	2393.216	2489.243
38.096	25.094	2391.573	2486.202
39.111	25.480	2389.227	2488.831
40.126	25.758	2388.826	2491.989
41.140	26.211	2387.594	2496.697
42.155	25.716	2384.155	2485.932
43.169	25.453	2382.308	2480.062
44.184	25.614	2379.723	2479.315
45.199	25.345	2378.218	2473.719
46.213	25.435	2375.552	2471.894
47.228	25.249	2375.304	2468.763
48.242	25.258	2372.850	2466.053
49.257	25.360	2371.757	2466.018
50.271	25.503	2369.586	2465.440
51.286	25.543	2366.814	2462.811
52.301	25.548	2364.205	2459.875
53.315	25.124	2363.235	2452.737
54.330	24.747	2361.037	2444.993
55.344	24.343	2356.157	2434.097
56.359	24.363	2352.719	2430.537
57.374	24.018	2351.698	2424.458
58.388	24.150	2348.424	2422.603
59.403	24.305	2346.182	2422.121
60.417	24.607	2344.113	2423.814
61.432	24.813	2342.794	2424.961
62.447	24.596	2340.499	2419.348
63.461	24.600	2339.040	2417.602
64.476	24.482	2337.043	2413.641
65.490	24.982	2336.710	2419.805
66.505	25.255	2338.647	2425.219
67.520	25.316	2336.630	2423.667
68.534	25.110	2332.477	2416.282
69.549	25.124	2330.226	2413.853
70.563	25.336	2328.725	2414.867
71.578	25.404	2327.017	2413.731
72.593	25.485	2326.048	2413.525
73.607	25.762	2324.415	2415.281
74.622	25.817	2323.219	2414.492
75.636	25.624	2320.069	2408.335
76.651	25.646	2317.733	2405.911
77.666	25.827	2316.306	2406.579
78.680	25.743	2314.433	2403.216
79.695	25.931	2313.092	2404.059
80.709	26.031	2311.539	2403.488
81.724	26.084	2310.245	2402.572
82.739	26.079	2307.887	2399.764
83.753	26.130	2304.849	2396.995
84.768	25.747	2303.674	2390.382
85.782	25.752	2301.476	2387.877
86.797	25.798	2299.453	2386.105
87.812	25.657	2298.474	2382.934
88.826	25.697	2296.191	2380.806
89.841	25.829	2294.346	2380.363
90.855	25.974	2291.767	2379.326
91.870	25.801	2289.891	2374.808
92.884	25.826	2288.810	2373.728
93.899	25.967	2288.461	2374.947
94.914	25.609	2287.036	2368.448
95.928	24.981	2284.339	2357.070
96.943	24.713	2281.864	2350.696
97.957	25.341	2280.906	2357.715
98.972	25.831	2280.483	2363.463
99.987	25.695	2276.804	2357.568
101.001	25.381	2275.142	2351.432
102.016	25.506	2272.729	2350.311
103.030	25.536	2271.332	2348.974
104.045	25.778	2268.841	2349.291
105.060	26.091	2266.325	2350.502
106.074	25.947	2264.713	2346.661
107.089	25.719	2262.831	2341.454
108.103	25.866	2261.352	2341.566
109.118	25.790	2261.033	2339.958
110.133	25.972	2259.265	2340.229
111.147	25.942	2257.146	2337.363
112.162	26.003	2254.763	2335.410
113.176	25.842	2251.722	2329.879
114.191	25.798	2250.313	2327.577
115.206	25.699	2248.660	2324.302
116.220	25.611	2246.560	2320.707
117.235	25.295	2244.120	2313.821
118.249	25.404	2241.513	2312.258
119.264	25.537	2240.715	2312.879
120.279	25.689	2239.669	2313.487
121.293	25.571	2236.846	2308.774
122.308	25.593	2235.339	2307.223
123.322	25.638	2234.333	2306.491
124.337	25.285	2231.771	2299.034
125.352	24.815	2230.967	2291.869
126.366	25.081	2229.559	2293.574
127.381	25.225	2226.994	2292.517
128.395	25.516	2225.648	2294.581
129.410	25.626	2224.255	2294.289
130.424	25.753	2222.268	2293.594
131.439	25.552	2220.456	2288.871
132.454	25.584	2218.055	2286.531
133.468	25.648	2215.047	2283.979
134.483	25.526	2214.216	2281.286
135.497	25.449	2212.632	2278.397
136.512	25.616	2210.639	2278.204
137.527	25.653	2208.738	2276.447
138.541	25.519	2207.579	2273.268
139.556	25.407	2207.853	2271.855
140.570	25.706	2205.885	2273.363
141.585	25.701	2203.612	2270.678
142.600	25.823	2201.901	2270.184
143.614	25.756	2200.207	2267.326
144.629	25.804	2198.704	2266.107
145.643	25.608	2197.665	2262.290
146.658	25.730	2194.918	2260.733
147.673	25.656	2193.106	2257.660
148.687	25.755	2192.486	2258.008
149.702	25.756	2191.483	2256.708
150.716	25.619	2190.299	2253.495
151.731	25.795	2188.313	2253.400
152.746	25.962	2188.652	2255.578
153.760	25.518	2186.052	2247.049
154.775	24.796	2183.223	2234.814
155.789	24.265	2180.365	2224.955
156.804	24.777	2178.198	2228.901
157.819	25.253	2176.832	2233.184
158.833	25.515	2174.486	2233.789
159.848	25.814	2173.727	2236.467
160.862	25.919	2171.865	2235.596
161.877	26.054	2170.755	2235.868
162.892	26.056	2170.536	2235.405
163.906	26.130	2169.386	2234.866
164.921	26.150	2167.118	2232.507
165.935	26.178	2164.335	2229.730
166.950	25.877	2162.943	2224.296
167.964	25.746	2160.282	2219.669
168.979	25.701	2158.309	2216.813
169.994	25.904	2156.663	2217.368
171.008	25.880	2155.419	2215.532
172.023	25.728	2153.665	2211.587
173.037	25.841	2152.214	2211.229
174.052	25.666	2150.167	2206.697
175.067	25.487	2148.990	2203.027
176.081	25.595	2147.083	2202.137
177.096	25.610	2145.719	2200.654
178.110	25.469	2143.917	2196.815
179.125	25.494	2142.213	2195.110
180.140	25.795	2140.282	2196.557
181.154	25.681	2140.294	2194.906
182.169	25.457	2138.608	2190.169
183.183	25.040	2136.330	2182.474
184.198	24.467	2133.054	2171.865
185.213	24.402	2132.155	2169.896
186.227	24.996	2132.733	2177.477
187.242	25.363	2130.547	2179.466
188.256	25.347	2129.225	2177.656
189.271	25.687	2128.815	2181.114
190.286	25.890	2127.926	2182.418
191.300	25.742	2124.010	2176.349
192.315	25.445	2122.680	2171.113
193.329	25.661	2121.776	2172.547
194.344	25.832	2120.463	2173.018
195.359	25.945	2118.830	2172.457
196.373	26.050	2118.467	2173.092
197.388	25.984	2114.830	2168.301
198.402	25.979	2112.700	2165.802
199.417	25.903	2110.672	2162.543
200.432	25.966	2109.640	2161.984
201.446	26.001	2108.197	2160.669
202.461	25.822	2105.988	2155.998
203.475	25.616	2104.208	2151.437
204.490	25.762	2103.055	2151.760
205.504	25.756	2100.993	2149.323
206.519	25.554	2097.875	2143.448
207.534	25.766	2096.833	2144.673
208.548	25.754	2095.213	2142.617
209.563	25.526	2093.396	2137.775
210.577	25.633	2091.918	2137.285
211.592	25.813	2091.287	2138.530
212.607	25.372	2089.212	2130.903
213.621	24.173	2084.882	2111.945
214.636	24.106	2084.673	2110.684
215.650	25.196	2085.172	2123.917
216.665	25.563	2084.574	2127.416
217.680	25.736	2083.531	2128.155
218.694	25.964	2081.398	2128.428
219.709	25.954	2079.872	2126.499
220.723	25.902	2079.362	2125.101
221.738	26.010	2077.243	2123.958
222.753	25.968	2074.729	2120.642
223.767	25.819	2073.010	2116.869
224.782	25.595	2071.120	2112.043
225.796	25.642	2069.598	2110.787
226.811	25.986	2068.909	2113.886
227.826	25.979	2068.058	2112.682
228.840	25.951	2065.638	2109.633
229.855	25.743	2063.471	2104.720
230.869	25.712	2062.315	2102.930
231.884	25.543	2060.450	2098.785
232.899	25.590	2058.372	2096.979
233.913	25.607	2057.188	2095.711
234.928	25.666	2056.845	2095.811
235.942	25.757	2054.326	2094.047
236.957	25.573	2052.892	2090.190
237.972	25.568	2051.716	2088.685
238.986	25.628	2050.432	2087.831
240.001	25.539	2047.979	2084.042
241.015	25.294	2046.416	2079.349
242.030	25.175	2045.827	2077.114
243.045	24.892	2044.055	2071.782
244.059	24.822	2042.332	2068.973
245.074	25.258	2040.108	2071.527
246.088	25.405	2037.434	2070.263
247.103	25.340	2036.040	2067.848
248.117	25.471	2035.279	2068.347
249.132	25.474	2033.567	2066.392
250.147	25.397	2031.278	2062.936
251.161	25.392	2029.464	2060.782
252.176	25.554	2028.597	2061.530
253.190	25.399	2026.617	2057.478
254.205	25.182	2023.789	2051.866
255.220	25.141	2023.267	2050.619
256.234	25.188	2022.213	2049.855
257.249	25.424	2020.355	2050.427
258.263	25.362	2019.109	2048.213
259.278	25.263	2018.500	2046.216
260.293	25.193	2017.037	2043.678
261.307	25.613	2015.224	2046.407
262.322	25.689	2013.949	2045.731
263.336	25.545	2011.751	2041.610
264.351	25.465	2010.066	2038.748
265.366	25.567	2009.035	2038.620
266.380	25.708	2008.291	2039.220
267.395	25.382	2006.630	2033.588
268.409	25.537	2004.353	2032.800
269.424	25.885	2004.445	2036.603
270.439	25.994	2003.756	2036.888
271.453	25.659	2001.010	2030.065
272.468	24.899	1996.543	2016.682
273.482	24.397	1995.231	2009.430
274.497	25.091	1994.228	2016.037
275.512	25.526	1993.136	2019.595
276.526	25.773	1990.901	2019.877
277.541	25.588	1989.272	2015.896
278.555	25.441	1987.887	2012.605
279.570	25.357	1985.403	2008.897
280.585	25.232	1984.828	2006.677
281.599	25.460	1983.415	2007.563
282.614	25.483	1982.698	2006.854
283.628	25.401	1980.218	2003.187
284.643	25.335	1979.483	2001.462
285.657	25.353	1978.504	2000.436
286.672	25.310	1975.839	1997.024
287.687	24.955	1973.344	1990.296
288.701	24.936	1972.114	1988.601
289.716	24.917	1971.161	1987.192
290.730	24.936	1968.731	1984.714
291.745	25.033	1967.356	1984.169
292.760	25.045	1967.091	1983.805
293.774	25.155	1966.480	1984.168
294.789	25.405	1965.934	1986.159
295.803	25.544	1963.494	1984.998
296.818	25.471	1962.828	1983.287
297.833	25.536	1960.857	1981.774
298.847	25.520	1959.887	1980.383
299.862	25.656	1957.726	1979.468
300.876	25.308	1955.579	1973.212
301.891	24.659	1952.762	1962.970
302.906	24.636	1952.670	1962.385
303.920	25.319	1953.117	1970.142
304.935	25.589	1950.523	1970.262
305.949	25.698	1948.234	1968.912
306.964	25.747	1947.228	1968.194
307.979	25.831	1945.597	1967.232
308.993	25.107	1943.233	1956.670
310.008	24.859	1940.054	1950.517
311.022	24.888	1939.337	1949.884
312.037	25.039	1939.014	1950.974
313.052	24.824	1935.467	1944.819
314.066	24.473	1932.651	1937.930
315.081	24.240	1931.528	1934.034
316.095	24.244	1930.470	1932.783
317.110	24.256	1928.662	1930.879
318.125	24.606	1927.880	1933.675
319.139	24.979	1928.751	1938.371
320.154	25.324	1927.022	1940.149
321.168	25.266	1926.369	1938.635
322.183	25.469	1925.690	1939.921
323.197	25.634	1924.675	1940.451
324.212	25.627	1922.365	1937.818
325.227	25.658	1920.481	1936.015
326.241	25.736	1919.065	1935.198
327.256	25.748	1917.933	1933.961
328.270	25.741	1916.949	1932.659
329.285	25.710	1916.691	1931.829
330.300	25.457	1915.680	1927.853
331.314	24.630	1911.565	1914.578
332.329	24.487	1909.654	1910.899
333.343	25.118	1909.839	1917.644
334.358	25.750	1909.254	1923.612
335.373	26.042	1907.538	1924.790
336.387	26.223	1905.162	1924.099
337.402	25.909	1904.236	1919.574
338.416	25.874	1902.422	1917.137
339.431	26.075	1900.859	1917.481
340.446	25.892	1900.052	1914.489
341.460	25.925	1897.774	1912.316
342.475	25.653	1896.094	1907.492
343.489	25.273	1893.892	1901.003
344.504	25.092	1892.768	1897.719
345.519	25.189	1889.833	1895.586
346.533	24.834	1887.321	1889.069
347.548	24.752	1886.946	1887.600
348.562	24.959	1885.971	1888.595
349.577	24.957	1884.840	1887.208
350.592	24.955	1883.642	1885.763
351.606	24.906	1881.676	1883.049
352.621	24.707	1879.958	1879.005
353.635	24.997	1879.267	1881.151
354.650	25.082	1878.468	1881.026
355.665	25.284	1876.863	1881.317
356.679	25.437	1875.966	1881.809
357.694	25.507	1874.764	1881.114
358.708	25.562	1872.947	1879.642
359.723	25.385	1871.915	1876.525
360.738	24.657	1869.725	1866.460
361.752	24.694	1868.564	1865.467
362.767	25.351	1867.336	1870.906
363.781	25.426	1865.776	1869.903
364.796	25.352	1864.572	1867.701
365.810	25.256	1864.203	1866.102
366.825	25.404	1862.035	1865.248
367.840	25.476	1860.353	1864.093
368.854	25.476	1860.012	1863.524
369.869	25.204	1858.831	1859.287
370.883	25.255	1857.006	1857.773
371.898	24.986	1854.973	1852.717
372.913	25.041	1853.024	1851.120
373.927	25.229	1851.630	1851.463
374.942	25.225	1851.288	1850.858
375.956	25.251	1849.980	1849.589
376.971	25.295	1846.696	1846.547
377.986	24.784	1844.406	1838.757
379.000	24.993	1844.305	1840.593
380.015	25.474	1845.201	1846.237
381.029	26.006	1842.999	1849.296
382.044	26.206	1840.596	1848.718
383.059	26.111	1839.747	1846.672
384.073	25.924	1838.388	1843.160
385.088	25.562	1837.133	1837.963
386.102	25.625	1834.971	1836.233
387.117	25.760	1832.827	1835.250
388.132	25.653	1832.975	1834.079
389.146	25.508	1832.923	1832.321
390.161	24.625	1829.350	1819.502
391.175	24.510	1826.423	1815.197
392.190	25.333	1825.429	1822.386
393.205	25.582	1823.867	1823.146
394.219	25.822	1822.449	1823.955
395.234	25.640	1821.446	1820.883
396.248	25.584	1819.329	1817.981
397.263	25.622	1817.033	1815.853
398.278	25.471	1814.706	1811.782
399.292	25.478	1814.199	1811.129
400.307	25.548	1813.903	1811.325
401.321	25.604	1811.921	1809.697
402.336	24.948	1808.948	1799.886
403.350	24.506	1806.569	1792.843
404.365	24.898	1806.887	1796.902
405.380	24.959	1805.423	1795.848
406.394	24.618	1802.880	1789.668
407.409	24.449	1801.652	1786.532
408.423	24.530	1799.502	1785.001
409.438	24.429	1798.274	1782.556
410.453	24.802	1797.661	1785.477
411.467	25.119	1798.204	1788.981
412.482	25.352	1797.618	1790.520
413.496	25.538	1797.226	1791.779
414.511	25.445	1794.979	1788.399
415.526	25.530	1792.057	1786.123
416.540	25.636	1791.430	1786.336
417.555	25.578	1790.694	1784.813
418.569	25.167	1789.587	1779.395
419.584	25.317	1789.838	1780.932
420.599	25.496	1788.845	1781.514
421.613	25.349	1787.632	1778.625
422.628	25.530	1786.455	1779.038
423.642	25.546	1785.062	1777.599
424.657	25.511	1783.273	1775.258
425.672	25.317	1781.021	1770.877
426.686	25.377	1779.781	1770.028
427.701	25.413	1778.912	1769.307
428.715	25.698	1777.798	1770.809
429.730	25.969	1776.756	1772.236
430.745	25.991	1775.520	1771.009
431.759	25.729	1773.998	1766.700
432.774	25.106	1770.992	1757.355
433.788	23.912	1767.900	1742.324
434.803	23.393	1766.337	1735.467
435.818	23.460	1765.712	1735.310
436.832	23.247	1764.948	1732.253
437.847	22.098	1757.017	1713.007
438.861	12.598	1731.787	1596.003
439.876	2.460	1711.557	1479.089
440.890	0.406	1707.517	1455.504
441.905	0.325	1705.996	1453.248
442.920	0.330	1704.543	1451.884
443.934	0.173	1703.567	1449.362
444.949	0.273	1701.452	1448.358
445.963	0.131	1701.567	1446.909
446.978	0.206	1700.687	1446.711
447.993	0.298	1698.920	1445.926
449.007	0.248	1696.721	1443.392
450.022	0.308	1694.678	1442.064
451.036	0.502	1694.049	1443.218
452.051	1.836	1697.502	1458.831
453.066	9.205	1717.157	1547.075
454.080	19.583	1736.438	1665.359
455.095	23.444	1742.598	1708.539
456.109	25.032	1744.545	1725.629
457.124	25.368	1744.303	1728.433
458.139	25.019	1743.253	1723.813
459.153	24.848	1741.690	1720.414
460.168	24.804	1739.199	1717.322
461.182	24.848	1737.492	1715.849
462.197	24.637	1736.469	1712.603
463.212	24.765	1734.889	1712.071
464.226	24.742	1733.704	1710.476
465.241	24.787	1732.745	1709.762
466.255	24.812	1732.349	1709.401
467.270	25.015	1730.416	1709.239
468.285	24.896	1729.102	1706.595
469.299	24.861	1728.211	1705.174
470.314	24.968	1726.269	1704.077
471.328	24.909	1724.958	1702.022
472.343	24.798	1723.717	1699.530
473.358	24.936	1721.573	1698.528
474.372	24.811	1720.637	1696.213
475.387	24.985	1719.563	1696.609
476.401	24.861	1717.145	1692.838
477.416	24.729	1715.921	1690.171
478.430	24.831	1715.441	1690.467
479.445	24.805	1714.025	1688.622
480.460	24.812	1712.972	1687.455
481.474	24.831	1712.588	1687.047
482.489	24.845	1711.420	1685.829
483.503	24.933	1708.891	1683.969
484.518	24.769	1708.031	1681.373
485.533	24.795	1706.482	1679.890
486.547	24.820	1705.155	1678.620
487.562	24.833	1703.820	1677.225
488.576	24.832	1702.989	1676.194
489.591	24.894	1702.338	1675.944
490.606	24.944	1700.273	1674.176
491.620	25.045	1698.973	1673.641
492.635	25.169	1696.849	1672.519
493.649	24.920	1695.478	1668.631
494.664	24.801	1693.967	1665.831
495.679	24.768	1692.251	1663.639
496.693	24.751	1691.996	1663.028
497.708	24.762	1691.035	1661.987
498.722	24.945	1689.927	1662.408
499.737	24.975	1688.508	1661.089
500.752	25.078	1686.814	1660.183
501.766	24.859	1686.109	1657.254
502.781	25.047	1683.928	1656.654
503.795	24.931	1682.812	1654.281
504.810	25.156	1681.667	1655.048
505.825	25.053	1681.437	1653.670
506.839	25.087	1679.083	1651.469
507.854	25.156	1678.314	1651.157
508.868	25.033	1676.111	1647.651
509.883	24.939	1674.932	1645.432
510.898	24.824	1673.934	1643.193
511.912	24.835	1672.236	1641.426
512.927	24.732	1670.461	1638.537
513.941	24.912	1669.393	1638.958
514.956	25.208	1668.502	1640.601
515.971	25.408	1667.860	1641.610
516.985	25.269	1665.865	1638.178
518.000	25.057	1665.340	1635.519
519.014	24.942	1663.899	1632.859
520.029	24.882	1662.187	1630.427
521.043	24.870	1660.894	1628.860
522.058	24.763	1659.433	1626.256
523.073	24.815	1658.413	1625.535
524.087	24.859	1657.231	1624.585
525.102	24.873	1656.295	1623.598
526.116	25.082	1654.619	1623.666
527.131	25.002	1653.713	1621.856
528.146	24.962	1653.213	1620.801
529.160	24.960	1651.922	1619.328
530.175	24.999	1651.273	1618.848
531.189	24.970	1650.205	1617.349
532.204	25.133	1648.083	1616.553
533.219	24.952	1647.392	1614.035
534.233	24.942	1645.675	1612.077
535.248	24.649	1644.831	1608.399
536.262	24.906	1643.537	1609.270
537.277	24.978	1642.578	1608.782
538.292	24.970	1641.193	1607.161
539.306	24.880	1640.160	1605.149
540.321	24.790	1638.539	1602.556
541.335	24.747	1636.582	1600.071
542.350	24.936	1634.946	1599.976
543.365	25.009	1633.613	1599.132
544.379	25.043	1632.127	1597.794
545.394	24.959	1631.073	1595.815
546.408	24.844	1629.835	1593.389
547.423	24.913	1628.612	1592.619
548.438	25.083	1627.255	1592.619
549.452	25.065	1625.996	1591.036
550.467	24.978	1624.931	1589.029
551.481	24.890	1624.100	1587.241
552.496	24.957	1623.100	1586.670
553.511	24.899	1622.761	1585.632
554.525	25.040	1621.089	1585.061
555.540	24.973	1619.194	1582.419
556.554	25.002	1617.960	1581.283
557.569	25.004	1616.729	1579.911
558.583	25.053	1615.712	1579.159
559.598	25.039	1614.893	1578.043
560.613	24.914	1613.845	1575.728
561.627	24.848	1612.388	1573.538
562.642	24.729	1610.656	1570.601
563.656	24.628	1608.699	1567.615
564.671	24.635	1606.781	1565.627
565.686	24.635	1606.613	1565.275
566.700	24.703	1605.426	1564.522
567.715	24.801	1603.676	1563.496
568.729	24.911	1602.832	1563.449
569.744	25.409	1600.987	1565.827
570.759	25.395	1599.925	1564.483
571.773	25.055	1599.294	1560.699
572.788	24.978	1598.212	1558.786
573.802	24.747	1596.597	1555.002
574.817	24.777	1593.607	1552.163
575.832	24.570	1592.439	1549.037
576.846	24.604	1592.067	1548.784
577.861	24.921	1591.103	1550.422
578.875	25.005	1590.513	1550.391
579.890	24.818	1589.699	1547.792
580.905	24.935	1588.288	1547.248
581.919	24.792	1587.697	1545.247
582.934	24.881	1586.640	1544.802
583.948	24.786	1585.457	1542.640
584.963	24.808	1583.805	1541.041
585.978	24.779	1581.992	1538.841
586.992	24.671	1581.517	1537.258
588.007	24.592	1581.588	1536.467
589.021	24.583	1580.483	1535.133
590.036	24.537	1578.244	1532.370
591.051	24.879	1575.840	1532.802
592.065	24.827	1574.833	1531.188
593.080	24.679	1573.444	1528.381
594.094	24.727	1572.632	1527.829
595.109	24.817	1570.889	1526.724
596.123	24.797	1569.320	1524.841
597.138	24.897	1568.547	1524.761
598.153	24.957	1566.509	1523.115
599.167	24.827	1565.369	1520.709
600.182	24.751	1564.550	1519.087
601.196	24.754	1563.812	1518.210
602.211	24.623	1563.293	1516.410
603.226	24.722	1561.228	1515.071
604.240	24.699	1559.570	1513.082
605.255	24.560	1558.485	1510.669
606.269	24.510	1558.585	1510.158
607.284	24.783	1557.057	1510.816
608.299	24.617	1555.334	1507.555
609.313	24.742	1554.121	1507.256
610.328	24.660	1552.770	1505.072
611.342	24.759	1551.306	1504.309
612.357	24.790	1550.186	1503.308
613.372	24.719	1548.946	1501.325
614.386	24.539	1548.885	1499.564
615.401	24.517	1547.678	1498.036
616.415	24.370	1546.454	1495.427
617.430	24.202	1545.267	1492.687
618.445	24.228	1543.679	1491.193
619.459	24.304	1543.016	1491.019
620.474	24.685	1542.293	1493.340
621.488	24.847	1542.009	1494.241
622.503	25.107	1540.732	1495.008
623.518	24.763	1538.712	1489.989
624.532	24.462	1537.121	1485.747
625.547	24.196	1535.533	1481.816
626.561	24.149	1534.706	1480.447
627.576	24.065	1533.675	1478.574
628.591	24.522	1532.671	1481.238
629.605	24.796	1532.515	1483.197
630.620	25.077	1531.366	1484.251
631.634	25.170	1530.577	1484.075
632.649	25.184	1528.942	1482.432
633.663	24.923	1527.056	1478.256
634.678	24.512	1525.135	1472.813
635.693	24.147	1523.317	1467.858
636.707	24.120	1521.512	1465.725
637.722	23.877	1520.591	1462.650
638.736	23.993	1519.703	1462.578
639.751	24.357	1518.921	1464.660
640.766	24.373	1517.684	1463.418
641.780	24.189	1516.512	1460.603
642.795	24.468	1515.501	1461.746
643.809	24.514	1515.222	1461.682
644.824	24.576	1514.200	1461.031
645.839	24.563	1513.371	1459.954
646.853	24.369	1512.706	1457.543
647.868	24.428	1510.679	1455.900
648.882	24.402	1509.335	1454.213
649.897	24.505	1507.621	1453.231
650.912	24.498	1506.003	1451.440
651.926	24.614	1504.988	1451.235
652.941	24.548	1503.636	1449.222
653.955	24.585	1502.108	1447.872
654.970	24.505	1500.492	1445.496
655.985	24.551	1498.872	1444.130
656.999	24.412	1498.020	1442.010
658.014	24.274	1496.452	1439.207
659.028	24.183	1495.815	1437.686
660.043	24.436	1495.500	1439.263
661.058	24.350	1494.890	1437.805
662.072	24.403	1493.213	1436.448
663.087	24.567	1491.857	1436.296
664.101	24.445	1491.204	1434.514
665.116	24.308	1490.193	1432.261
666.131	24.294	1489.104	1430.929
667.145	24.284	1488.003	1429.619
668.160	24.258	1486.642	1427.933
669.174	24.088	1485.230	1425.036
670.189	24.186	1483.595	1424.088
671.204	24.343	1482.956	1424.565
672.218	24.435	1481.976	1424.189
673.233	24.425	1480.718	1422.728
674.247	24.115	1479.862	1419.252
675.262	23.993	1478.831	1417.119
676.276	23.951	1477.433	1415.273
677.291	24.153	1477.141	1416.437
678.306	24.514	1475.860	1417.928
679.320	24.458	1474.222	1415.731
680.335	24.244	1472.993	1412.679
681.349	24.131	1472.366	1411.007
682.364	24.024	1471.696	1409.347
683.379	24.133	1470.040	1408.460
684.393	24.015	1468.260	1405.652
685.408	23.921	1466.902	1403.433
686.422	24.086	1465.901	1403.617
687.437	23.701	1465.702	1400.204
688.452	23.539	1464.543	1397.647
689.466	23.791	1463.014	1398.017
690.481	23.829	1461.833	1397.021
691.495	23.979	1462.286	1398.468
692.510	24.545	1461.877	1402.383
693.525	24.927	1460.327	1403.734
694.539	24.566	1458.202	1398.685
695.554	23.964	1456.801	1392.442
696.568	23.573	1455.503	1387.962
697.583	23.546	1454.201	1386.343
698.598	23.655	1453.562	1386.423
699.612	23.681	1451.647	1384.635
700.627	23.771	1450.656	1384.225
701.641	23.954	1449.908	1384.778
702.656	23.854	1449.367	1383.310
703.671	23.743	1448.800	1381.739
704.685	23.835	1447.917	1381.453
705.700	23.948	1446.719	1381.026
706.714	24.104	1444.801	1380.244
707.729	24.202	1443.363	1379.465
708.744	24.168	1442.162	1377.888
709.758	24.029	1441.151	1375.678
710.773	23.912	1440.579	1374.060
711.787	23.963	1439.057	1372.841
712.802	24.062	1437.891	1372.328
713.816	24.063	1436.863	1371.190
714.831	24.161	1435.891	1370.861
715.846	23.996	1434.828	1368.405
716.860	23.999	1432.585	1366.123
717.875	23.953	1431.684	1364.746
718.889	23.998	1430.996	1364.276
719.904	23.914	1429.837	1362.360
720.919	23.900	1428.440	1360.753
721.933	23.806	1427.210	1358.703
722.948	23.668	1426.956	1357.237
723.962	23.718	1425.434	1356.010
724.977	23.688	1423.376	1353.655
725.992	23.742	1422.732	1353.301
727.006	23.776	1422.064	1352.764
728.021	23.758	1421.446	1351.877
729.035	23.688	1419.769	1349.579
730.050	23.772	1418.925	1349.260
731.065	23.774	1417.699	1347.946
732.079	23.633	1415.809	1344.917
733.094	23.582	1415.700	1344.263
734.108	23.781	1414.249	1344.237
735.123	23.796	1412.740	1342.752
736.138	23.784	1411.732	1341.545
737.152	23.757	1410.772	1340.268
738.167	23.578	1409.105	1337.165
739.181	23.693	1407.882	1336.716
740.196	23.551	1407.259	1334.892
741.211	23.546	1406.976	1334.423
742.225	23.559	1405.966	1333.406
743.240	23.416	1404.640	1330.913
744.254	23.312	1402.701	1328.129
745.269	23.355	1401.494	1327.151
746.284	23.173	1401.202	1325.344
747.298	23.467	1400.353	1326.598
748.313	23.637	1400.036	1327.418
749.327	24.051	1399.764	1330.109
750.342	24.512	1400.486	1334.097
751.356	24.671	1399.348	1334.046
752.371	24.552	1396.915	1330.676
753.386	23.835	1394.601	1322.953
754.400	23.595	1393.050	1319.526
755.415	23.521	1391.714	1317.551
756.429	23.675	1390.439	1317.340
757.444	23.697	1389.852	1316.786
758.459	23.655	1388.244	1314.791
759.473	23.490	1386.637	1311.889
760.488	23.517	1385.749	1311.089
761.502	23.341	1384.618	1308.553
762.517	23.494	1383.899	1308.859
763.532	23.695	1382.638	1308.994
764.546	23.800	1381.283	1308.332
765.561	23.667	1380.923	1306.852
766.575	23.631	1381.539	1307.009
767.590	23.753	1379.846	1306.154
768.605	23.732	1378.191	1304.275
769.619	23.701	1377.345	1303.092
770.634	23.618	1375.441	1300.525
771.648	23.556	1373.667	1298.232
772.663	23.204	1373.148	1295.001
773.678	23.166	1373.119	1294.537
774.692	23.522	1372.002	1295.942
775.707	23.480	1371.094	1294.628
776.721	23.423	1370.361	1293.360
777.736	23.230	1369.230	1290.720
778.751	23.343	1367.756	1290.004
779.765	23.492	1366.086	1289.364
780.780	23.346	1366.258	1288.303
781.794	23.397	1365.372	1287.691
782.809	23.203	1363.898	1284.729
783.824	23.223	1362.850	1283.738
784.838	23.580	1361.675	1285.070
785.853	23.911	1361.945	1287.583
786.867	23.886	1361.714	1287.030
787.882	23.524	1360.108	1282.728
788.897	23.292	1358.425	1279.300
789.911	23.160	1357.504	1277.321
790.926	23.032	1355.989	1274.816
791.940	23.046	1354.097	1272.985
792.955	23.041	1352.727	1271.508
793.969	22.908	1352.477	1270.161
794.984	23.137	1351.084	1270.353
795.999	23.084	1350.162	1268.953
797.013	23.225	1348.388	1268.151
798.028	23.189	1347.053	1266.485
799.042	23.152	1346.696	1265.732
800.057	23.239	1344.674	1264.300
801.072	23.111	1343.907	1262.511
802.086	23.129	1343.038	1261.670
803.101	23.073	1341.789	1259.946
804.115	22.974	1341.201	1258.535
805.130	23.124	1339.988	1258.320
806.145	23.087	1338.809	1256.800
807.159	23.117	1337.731	1255.847
808.174	23.342	1336.203	1255.870
809.188	23.332	1334.460	1254.012
810.203	23.419	1333.467	1253.548
811.218	23.338	1332.582	1251.990
812.232	23.341	1331.834	1251.155
813.247	23.468	1330.957	1251.079
814.261	23.347	1330.208	1249.369
815.276	23.412	1328.714	1248.276
816.291	23.179	1327.203	1245.063
817.305	22.914	1326.668	1242.539
818.320	23.245	1324.727	1242.911
819.334	23.145	1323.856	1241.239
820.349	23.105	1322.346	1239.390
821.364	23.037	1320.732	1237.251
822.378	22.961	1319.228	1235.161
823.393	22.876	1318.204	1233.455
824.407	22.831	1317.746	1232.563
825.422	22.967	1316.770	1232.459
826.437	22.974	1315.584	1231.250
827.451	23.003	1313.843	1229.678
828.466	23.519	1313.692	1232.989
829.480	23.751	1312.354	1233.207
830.495	23.568	1309.728	1229.318
831.509	23.021	1308.522	1224.231
832.524	22.904	1307.532	1222.346
833.539	22.943	1306.144	1221.177
834.553	23.029	1305.147	1220.690
835.568	22.908	1303.956	1218.593
836.582	22.845	1303.402	1217.496
837.597	22.956	1301.762	1216.582
838.612	22.970	1300.012	1214.899
839.626	22.953	1299.430	1214.094
840.641	23.188	1298.802	1214.983
841.655	23.261	1298.325	1214.894
842.670	23.455	1297.589	1215.396
843.685	23.489	1296.578	1214.542
844.699	23.470	1295.214	1212.987
845.714	23.248	1293.590	1209.798
846.728	22.982	1292.478	1206.784
847.743	22.898	1291.348	1205.012
848.758	22.975	1289.770	1203.918
849.772	22.864	1287.986	1201.350
850.787	22.751	1286.650	1199.189
851.801	22.772	1285.842	1198.437
852.816	22.928	1284.942	1198.518
853.831	22.853	1282.972	1196.023
854.845	22.738	1281.751	1193.966
855.860	22.960	1279.622	1193.346
856.874	22.990	1279.324	1193.130
857.889	22.963	1279.319	1192.799
858.904	23.449	1278.765	1195.432
859.918	23.802	1277.039	1196.063
860.933	24.071	1275.904	1196.675
861.947	23.746	1274.464	1192.991
862.962	23.284	1272.555	1187.945
863.977	22.979	1271.217	1184.495
864.991	22.958	1269.844	1182.938
866.006	22.774	1269.474	1181.209
867.020	22.621	1268.894	1179.499
868.035	22.654	1267.635	1178.410
869.049	22.826	1266.321	1178.201
870.064	22.704	1265.441	1176.427
871.079	22.862	1264.681	1176.640
872.093	22.913	1263.695	1175.921
873.108	22.858	1262.951	1174.718
874.122	23.102	1261.593	1174.944
875.137	23.045	1261.976	1174.777
876.152	23.241	1261.214	1175.239
877.166	23.139	1259.185	1172.526
878.181	22.992	1257.574	1169.906
879.195	22.734	1256.759	1167.295
880.210	22.687	1256.255	1166.374
881.225	22.757	1254.607	1165.168
882.239	22.758	1253.740	1164.234
883.254	22.796	1252.405	1163.105
884.268	22.743	1251.707	1161.966
885.283	22.832	1250.347	1161.154
886.298	22.746	1248.329	1158.575
887.312	22.972	1247.538	1159.187
888.327	22.890	1246.421	1157.470
889.341	22.736	1245.385	1155.362
890.356	22.842	1244.766	1155.342
891.371	22.722	1244.825	1154.472
892.385	22.843	1244.000	1154.362
893.400	22.826	1242.998	1153.181
894.414	22.894	1241.606	1152.202
895.429	23.065	1240.648	1152.291
896.444	23.798	1240.784	1157.080
897.458	24.274	1239.477	1158.833
898.473	23.938	1238.420	1155.510
899.487	23.366	1236.569	1149.919
900.502	23.035	1234.695	1145.880
901.517	22.909	1233.562	1143.874
902.531	22.886	1232.764	1142.848
903.546	22.818	1232.169	1141.715
904.560	22.822	1231.168	1140.679
905.575	22.829	1229.922	1139.433
906.589	22.776	1229.321	1138.396
907.604	22.832	1228.976	1138.301
