DTS Sentinel unit serial number:	SN409020Multiplexer serial number:	ORYXHardware model number:	OX4-SRSoftware version number:	ORYX F/W v3.00 Oryx Data Collector v3.7.2.0data status	okinstallation	HaddamTimeLapsedifferential loss correction	single-endedforward channel	channel 3reverse channel	N/Adate	2011/06/22time	08:41:17forward acquisition time	30.00reverse acquisition time	0.00gamma	498.7831k internal	0.1788k external	0.1788temperature offset calibration	1.0074default loss term (dB/km)	0.3790temperature slope calibration	1.3530multiplexer offset coefficient	1.0000multiplexer slope coefficient	1.0000fibre end	0.00T internal ref (°C)	26.47T ext. ref 1 (°C)	24.18T ext. ref 2 (°C)	0.17length (m)	temperature (°C)	Stokes	anti-Stokes-747.200	-25.041	-0.200	-0.154
-746.185	480.879	-0.058	-0.173
-745.171	39.739	-0.279	0.326
-744.156	-200.000	0.089	0.510
-743.142	-142.367	-0.253	0.032
-742.127	86.992	0.147	-0.212
-741.112	220.521	0.067	-0.141
-740.098	203.940	0.128	0.259
-739.083	-43.714	-0.110	-0.072
-738.069	24.557	0.220	-0.237
-737.054	163.570	0.096	0.177
-736.039	-91.303	-0.386	0.143
-735.025	800.000	-0.039	0.185
-734.010	747.152	0.035	-0.125
-732.996	-79.670	-0.213	-0.093
-731.981	65.806	0.147	-0.195
-730.966	133.026	0.089	0.149
-729.952	659.773	0.133	-0.447
-728.937	446.306	0.130	-0.372
-727.923	-137.087	0.302	-0.044
-726.908	-22.546	0.315	-0.247
-725.894	-13.823	-0.109	-0.092
-724.879	-93.446	-0.298	0.107
-723.864	-200.000	-0.024	-0.258
-722.850	284.951	-0.067	0.158
-721.835	-86.841	-0.299	0.118
-720.821	-17.800	-0.101	-0.083
-719.806	14.803	-0.043	0.044
-718.791	-200.000	0.002	0.261
-717.777	-172.657	-0.471	0.019
-716.762	102.492	0.198	-0.301
-715.748	778.573	0.145	0.518
-714.733	-110.424	-0.409	-0.109
-713.718	-200.000	-0.081	-0.490
-712.704	-124.840	-0.150	-0.030
-711.689	297.967	-0.156	-0.375
-710.675	-8.537	0.178	-0.155
-709.660	800.000	0.072	0.372
-708.645	42.159	-0.212	-0.250
-707.631	-168.163	0.282	0.014
-706.616	-79.742	-0.148	-0.064
-705.602	-157.941	-0.313	0.024
-704.587	800.000	-0.053	-0.208
-703.572	-56.578	-0.295	0.169
-702.558	515.925	-0.210	-0.641
-701.543	173.888	0.053	-0.100
-700.529	-200.000	-0.028	-0.390
-699.514	-46.309	-0.330	0.210
-698.499	-102.295	0.232	-0.072
-697.485	-153.733	0.213	0.019
-696.470	-105.970	0.372	-0.108
-695.456	-91.693	0.563	0.207
-694.441	-173.523	-0.427	-0.016
-693.426	-110.141	-0.203	-0.055
-692.412	423.205	0.073	0.205
-691.397	54.784	-0.266	-0.334
-690.383	440.793	-0.117	-0.334
-689.368	12.275	0.399	0.399
-688.354	-57.061	0.042	-0.024
-687.339	386.650	-0.250	-0.672
-686.324	-200.000	0.002	-0.227
-685.310	-48.049	-0.058	0.037
-684.295	-100.946	0.223	0.071
-683.281	-65.431	-0.339	-0.176
-682.266	-31.797	-0.125	-0.091
-681.251	10.013	0.062	0.061
-680.237	-83.178	0.111	0.046
-679.222	-31.061	0.384	0.281
-678.208	314.657	0.156	0.383
-677.193	69.398	0.031	-0.041
-676.178	800.000	0.080	0.297
-675.164	12.313	-0.240	-0.240
-674.149	-96.765	-0.219	0.074
-673.135	-75.842	0.107	-0.049
-672.120	-73.546	0.203	-0.096
-671.105	21.396	-0.235	0.248
-670.091	-39.357	-0.622	0.422
-669.076	-47.005	-0.245	-0.155
-668.062	-166.262	-0.185	0.010
-667.047	-84.591	0.812	0.330
-666.032	800.000	-0.064	-0.243
-665.018	30.623	0.284	-0.315
-664.003	-45.549	-0.280	-0.180
-662.989	800.000	0.161	-0.630
-661.974	-42.062	-0.289	-0.191
-660.959	-46.888	-0.184	-0.116
-659.945	-58.793	-0.224	0.125
-658.930	16.406	0.161	-0.164
-657.916	-170.371	0.315	-0.014
-656.901	29.842	-0.220	-0.243
-655.886	-166.004	0.292	0.016
-654.872	-5.263	-0.144	0.128
-653.857	-108.822	0.268	-0.074
-652.843	3.762	-0.275	0.261
-651.828	800.000	-0.091	-0.419
-650.814	-200.000	-0.027	-0.552
-649.799	-108.446	0.466	0.129
-648.784	-94.762	-0.309	-0.108
-647.770	-156.956	-0.365	0.029
-646.755	12.772	0.097	0.097
-645.741	-134.708	0.079	-0.012
-644.726	105.475	0.140	0.215
-643.711	800.000	0.080	-0.336
-642.697	79.003	-0.188	-0.261
-641.682	-184.637	-0.415	0.008
-640.668	-200.000	-0.042	0.563
-639.653	800.000	0.089	0.442
-638.638	391.889	-0.113	0.306
-637.624	800.000	0.059	0.319
-636.609	-4.752	-0.403	0.360
-635.595	-130.139	-0.521	-0.091
-634.580	-146.987	-0.376	0.041
-633.565	-134.037	0.382	0.061
-632.551	-102.517	0.281	0.086
-631.536	-200.000	0.031	0.192
-630.522	-8.160	0.418	0.364
-629.507	686.964	0.122	-0.416
-628.492	-12.514	0.083	-0.070
-627.478	800.000	-0.070	-0.306
-626.463	-41.269	0.018	-0.012
-625.449	143.701	-0.090	0.156
-624.434	-200.000	0.052	0.402
-623.419	-45.462	0.335	-0.215
-622.405	-200.000	-0.050	0.479
-621.390	24.443	-0.198	0.212
-620.376	38.117	-0.014	-0.016
-619.361	-174.905	-0.810	0.029
-618.346	800.000	-0.115	-0.458
-617.332	-200.000	-0.000	-0.449
-616.317	-200.000	-0.009	-0.190
-615.303	119.853	-0.089	0.144
-614.288	-21.903	0.091	-0.071
-613.273	0.937	-0.203	0.188
-612.259	-73.199	0.292	-0.138
-611.244	-38.368	0.281	-0.192
-610.230	212.180	-0.163	-0.335
-609.215	-108.682	0.488	0.134
-608.201	151.339	-0.154	-0.272
-607.186	-125.055	-0.479	0.094
-606.171	25.228	0.280	-0.301
-605.157	159.498	0.231	-0.417
-604.142	-58.361	-0.290	-0.163
-603.128	800.000	0.077	-0.294
-602.113	-132.787	0.367	0.060
-601.098	348.053	-0.205	0.526
-600.084	315.078	-0.127	0.310
-599.069	-86.208	-0.370	-0.147
-598.055	-111.181	0.202	0.053
-597.040	-66.276	-0.086	0.044
-596.025	24.220	0.289	0.308
-595.011	-27.735	-0.319	0.239
-593.996	2.942	-0.032	0.030
-592.982	128.713	-0.153	-0.252
-591.967	126.026	-0.089	-0.146
-590.952	-121.350	-0.131	-0.028
-589.938	-133.039	0.426	-0.069
-588.923	800.000	0.082	-0.301
-587.909	39.453	-0.377	0.437
-586.894	-200.000	0.009	0.403
-585.879	65.125	-0.204	-0.266
-584.865	-200.000	0.016	-0.528
-583.850	-120.683	-0.314	0.068
-582.836	241.881	-0.095	0.205
-581.821	-52.058	0.377	-0.226
-580.806	19.414	0.318	0.330
-579.792	-183.873	0.171	-0.004
-578.777	464.719	-0.097	0.281
-577.763	302.459	-0.019	-0.045
-576.748	-200.000	-0.022	0.602
-575.733	-151.017	0.516	-0.050
-574.719	-54.291	0.057	-0.033
-573.704	551.958	-0.125	-0.391
-572.690	-89.524	-0.145	0.055
-571.675	95.381	-0.065	-0.095
-570.661	-146.772	0.407	-0.045
-569.646	800.000	-0.083	0.307
-568.631	-106.788	0.097	0.028
-567.617	21.152	0.063	0.066
-566.602	475.785	0.062	-0.183
-565.588	800.000	0.112	-0.587
-564.573	-42.064	0.370	-0.244
-563.558	52.808	-0.343	-0.424
-562.544	98.437	0.120	0.179
-561.529	-106.769	0.309	0.088
-560.515	-200.000	0.029	0.208
-559.500	800.000	0.097	0.350
-558.485	0.703	0.305	0.282
-557.471	16.385	-0.538	-0.548
-556.456	800.000	0.088	-0.315
-555.442	-142.031	0.279	-0.035
-554.427	-164.725	0.231	0.013
-553.412	800.000	-0.134	0.492
-552.398	381.726	-0.049	-0.132
-551.383	-63.632	-0.279	0.147
-550.369	-74.027	-0.157	-0.073
-549.354	-105.367	-0.454	-0.133
-548.339	43.579	0.136	-0.160
-547.325	-35.846	0.294	0.205
-546.310	-200.000	-0.000	-0.424
-545.296	-13.111	0.158	-0.132
-544.281	66.677	-0.039	-0.051
-543.266	-81.710	-0.166	0.070
-542.252	-65.029	0.437	0.227
-541.237	800.000	-0.044	-0.200
-540.223	-60.604	0.091	-0.050
-539.208	-200.000	-0.047	0.528
-538.193	298.522	0.150	0.358
-537.179	303.519	-0.108	0.259
-536.164	-200.000	0.058	0.472
-535.150	-101.544	-0.130	-0.040
-534.135	-82.567	-0.451	0.188
-533.121	-171.971	-0.292	-0.012
-532.106	20.247	-0.301	-0.313
-531.091	-116.804	0.521	0.122
-530.077	-113.746	0.398	0.099
-529.062	-97.373	0.109	0.037
-528.048	-156.091	-0.439	-0.035
-527.033	-45.993	0.114	-0.072
-526.018	-74.891	-0.133	0.061
-525.004	-49.092	0.088	-0.054
-523.989	-96.908	0.227	0.076
-522.975	-73.684	-0.117	-0.055
-521.960	-8.449	-0.073	-0.063
-520.945	97.139	-0.195	0.289
-519.931	208.193	-0.181	-0.367
-518.916	-84.168	-0.060	-0.025
-517.902	-123.171	0.404	0.083
-516.887	-104.111	-0.166	-0.050
-515.872	-132.755	-0.148	0.024
-514.858	-34.419	0.165	-0.116
-513.843	109.405	0.217	0.336
-512.829	-143.215	-0.088	-0.011
-511.814	-193.911	0.384	0.004
-510.799	409.566	-0.067	0.183
-509.785	-200.000	0.006	-0.879
-508.770	800.000	0.034	-0.132
-507.756	626.795	-0.086	0.282
-506.741	800.000	0.055	-0.292
-505.726	800.000	-0.104	-0.452
-504.712	672.022	-0.073	0.246
-503.697	-78.426	-0.257	0.113
-502.683	800.000	-0.035	0.133
-501.668	800.000	-0.104	0.431
-500.653	-33.473	0.324	0.230
-499.639	800.000	-0.029	-0.140
-498.624	-120.724	0.415	-0.090
-497.610	3.252	0.227	-0.212
-496.595	-12.869	0.259	0.217
-495.581	-133.654	0.323	-0.051
-494.566	156.943	0.211	-0.376
-493.551	69.335	0.064	0.085
-492.537	1.846	-0.177	-0.165
-491.522	-27.029	0.069	0.052
-490.508	-200.000	-0.002	-0.270
-489.493	800.000	0.082	-0.415
-488.478	-179.311	-0.225	-0.006
-487.464	263.659	-0.074	-0.166
-486.449	-118.212	-0.413	-0.094
-485.435	-93.057	0.054	-0.019
-484.420	73.479	0.114	-0.154
-483.405	211.984	-0.154	-0.313
-482.391	800.000	0.074	0.295
-481.376	-5.178	0.222	-0.197
-480.362	-57.900	-0.278	0.156
-479.347	-44.548	-0.387	-0.248
-478.332	-94.090	-0.348	-0.122
-477.318	-43.227	0.382	0.248
-476.303	-11.388	0.049	0.041
-475.289	220.617	-0.037	0.077
-474.274	-56.691	-0.223	0.127
-473.259	77.454	-0.221	0.303
-472.245	624.108	0.150	0.489
-471.230	-200.000	-0.033	0.291
-470.216	4.990	-0.161	-0.153
-469.201	-184.925	0.442	-0.009
-468.186	-25.346	0.152	-0.116
-467.172	-157.354	-0.214	-0.016
-466.157	223.699	-0.257	-0.536
-465.143	-90.371	-0.276	0.103
-464.128	-52.823	0.411	0.243
-463.113	277.912	-0.052	0.119
-462.099	800.000	-0.052	-0.205
-461.084	-54.366	0.224	-0.130
-460.070	16.136	0.340	0.344
-459.055	-148.297	0.205	0.021
-458.040	-171.574	0.282	0.012
-457.026	258.470	0.106	0.235
-456.011	418.943	-0.161	0.446
-454.997	131.905	0.145	-0.241
-453.982	66.432	-0.156	-0.204
-452.968	73.916	0.203	-0.274
-451.953	-81.078	-0.132	-0.056
-450.938	-200.000	0.045	0.343
-449.924	-75.903	-0.344	-0.156
-448.909	26.203	-0.042	0.045
-447.895	75.160	-0.044	-0.060
-446.880	-41.435	0.229	0.151
-445.865	-77.400	0.217	-0.096
-444.851	81.523	0.290	-0.403
-443.836	67.796	0.382	0.502
-442.822	-34.863	-0.336	-0.235
-441.807	32.999	-0.174	0.194
-440.792	-45.160	-0.201	0.128
-439.778	-90.079	-0.094	0.035
-438.763	55.650	0.381	-0.475
-437.749	-54.341	0.407	0.236
-436.734	32.115	-0.095	0.106
-435.719	-13.733	0.057	-0.047
-434.705	-118.642	-0.361	0.081
-433.690	-200.000	-0.013	0.321
-432.676	-87.647	-0.071	-0.027
-431.661	-200.000	-0.027	-0.587
-430.646	-185.088	-0.263	-0.005
-429.632	-64.839	0.210	-0.109
-428.617	-143.817	0.216	0.026
-427.603	-74.544	-0.465	-0.214
-426.588	-7.817	-0.184	0.160
-425.573	-26.853	0.115	0.086
-424.559	-84.783	0.267	-0.107
-423.544	-11.525	0.412	0.348
-422.530	13.632	0.222	-0.221
-421.515	-145.464	0.061	-0.007
-420.500	75.516	-0.342	-0.464
-419.486	21.452	-0.256	-0.267
-418.471	-126.893	0.176	-0.033
-417.457	-13.888	-0.367	0.304
-416.442	-200.000	-0.016	0.524
-415.428	44.667	-0.070	0.083
-414.413	-156.233	0.429	0.034
-413.398	-25.575	-0.033	0.025
-412.384	-4.151	0.147	-0.131
-411.369	-102.735	-0.006	0.002
-410.355	510.010	0.086	0.257
-409.340	33.056	-0.329	0.366
-408.325	-153.377	-0.281	-0.025
-407.311	-92.917	0.124	-0.044
-406.296	261.411	0.090	0.202
-405.282	800.000	-0.045	0.225
-404.267	-56.638	-0.273	-0.155
-403.252	-13.791	-0.365	-0.302
-402.238	-200.000	0.004	-0.251
-401.223	-189.862	0.465	-0.007
-400.209	163.672	0.104	-0.189
-399.194	-181.825	0.129	0.003
-398.179	-71.483	-0.556	0.266
-397.165	117.227	0.157	0.248
-396.150	-115.632	0.188	0.045
-395.136	1.287	0.250	0.230
-394.121	1.941	0.204	0.189
-393.106	19.277	-0.162	-0.167
-392.092	-5.627	0.223	-0.196
-391.077	3.352	-0.081	0.076
-390.063	288.564	0.074	0.172
-389.048	-60.477	-0.268	-0.146
-388.033	-115.690	-0.180	0.043
-387.019	-51.691	-0.214	-0.128
-386.004	-162.749	0.220	-0.014
-384.990	-200.000	0.005	0.125
-383.975	436.932	0.117	-0.329
-382.960	-82.355	0.390	0.162
-381.946	-200.000	0.044	0.296
-380.931	114.066	0.105	-0.164
-379.917	-102.321	-0.382	0.117
-378.902	-163.230	-0.356	-0.022
-377.888	174.883	0.036	-0.067
-376.873	122.557	0.172	-0.277
-375.858	104.512	0.248	-0.375
-374.844	208.417	0.131	0.264
-373.829	-43.025	0.383	0.248
-372.815	93.632	-0.053	0.077
-371.800	-144.843	0.311	0.036
-370.785	-129.169	0.159	0.028
-369.771	-154.617	-0.130	-0.011
-368.756	-135.191	0.288	-0.044
-367.742	-50.343	0.131	-0.079
-366.727	-68.369	0.214	0.106
-365.712	27.125	-0.210	-0.226
-364.698	12.603	0.426	-0.422
-363.683	10.841	0.156	0.152
-362.669	-98.474	-0.439	-0.143
-361.654	366.259	0.025	0.064
-360.639	-152.736	0.407	-0.037
-359.625	-138.069	0.257	0.036
-358.610	45.835	0.193	0.229
-357.596	-52.636	-0.437	-0.258
-356.581	146.271	-0.096	0.166
-355.566	-160.181	-0.331	0.023
-354.552	16.814	-0.163	-0.166
-353.537	-178.677	0.403	0.012
-352.523	-71.746	-0.353	0.168
-351.508	130.059	-0.133	-0.219
-350.493	-64.622	0.359	0.186
-349.479	-66.956	-0.154	-0.077
-348.464	93.425	-0.150	-0.217
-347.450	96.040	0.101	0.148
-346.435	-200.000	0.027	-0.218
-345.420	-144.565	0.157	0.018
-344.406	-89.827	0.364	0.136
-343.391	-58.584	-0.229	-0.127
-342.377	91.457	-0.246	0.354
-341.362	-91.128	-0.357	0.130
-340.348	-44.584	0.225	0.143
-339.333	-66.866	-0.320	0.161
-338.318	-200.000	0.008	-0.191
-337.304	63.012	-0.213	-0.273
-336.289	403.388	0.088	0.238
-335.275	-36.192	0.220	0.152
-334.260	162.846	-0.259	-0.466
-333.245	-47.735	-0.398	-0.246
-332.231	-68.132	-0.192	0.095
-331.216	-145.227	-0.186	-0.021
-330.202	547.314	0.117	0.360
-329.187	115.314	0.274	-0.430
-328.172	20.846	-0.131	0.136
-327.158	177.953	-0.284	-0.532
-326.143	-200.000	-0.047	-0.357
-325.129	755.495	-0.061	0.211
-324.114	-70.437	-0.218	-0.105
-323.099	-142.577	0.063	0.008
-322.085	-125.308	-0.435	-0.084
-321.070	800.000	-0.024	-0.135
-320.056	-120.617	-0.419	0.090
-319.041	67.218	-0.103	-0.135
-318.026	-124.656	0.421	-0.083
-317.012	800.000	-0.038	-0.195
-315.997	-63.997	-0.115	0.060
-314.983	10.125	0.256	0.249
-313.968	-56.606	-0.206	0.116
-312.953	70.915	-0.105	0.139
-311.939	12.534	0.139	0.137
-310.924	-71.319	-0.219	-0.104
-309.910	-78.999	-0.261	0.113
-308.895	-44.420	0.142	0.091
-307.880	-200.000	-0.007	-0.051
-306.866	460.620	0.129	0.368
-305.851	-16.429	0.130	0.106
-304.837	-137.993	-0.222	0.031
-303.822	-40.530	-0.328	-0.217
-302.807	-23.112	-0.097	0.075
-301.793	-200.000	-0.018	0.227
-300.778	181.311	-0.309	0.582
-299.764	-200.000	-0.032	-0.305
-298.749	-110.265	-0.168	0.044
-297.735	-123.882	0.386	0.077
-296.720	800.000	0.045	-0.212
-295.705	113.205	0.104	0.162
-294.691	-200.000	-0.039	0.418
-293.676	206.889	-0.138	0.276
-292.662	-147.487	-0.120	0.013
-291.647	-63.429	0.723	0.379
-290.632	208.098	0.245	0.491
-289.618	42.648	-0.042	0.049
-288.603	1.298	0.454	-0.417
-287.589	8.559	-0.172	-0.166
-286.574	800.000	-0.059	-0.257
-285.559	-77.741	-0.479	-0.211
-284.545	788.327	-0.037	0.129
-283.530	396.668	0.038	0.103
-282.516	162.789	-0.051	0.092
-281.501	-161.927	0.461	-0.029
-280.486	-102.784	-0.273	-0.083
-279.472	366.048	0.096	0.249
-278.457	-11.946	-0.330	0.276
-277.443	-118.511	-0.194	0.044
-276.428	-65.856	-0.280	0.143
-275.413	109.121	0.166	-0.254
-274.399	-128.555	-0.201	-0.036
-273.384	597.171	0.020	0.065
-272.370	-99.761	-0.342	-0.109
-271.355	-53.285	0.261	0.153
-270.340	-30.609	0.295	-0.213
-269.326	-12.176	-0.111	-0.093
-268.311	-119.785	-0.185	0.040
-267.297	-103.673	-0.255	0.076
-266.282	71.891	-0.132	-0.175
-265.267	-123.508	-0.385	-0.077
-264.253	-130.427	0.005	0.001
-263.238	-175.854	-0.402	0.013
-262.224	766.102	-0.074	-0.259
-261.209	-116.458	-0.711	-0.166
-260.195	-112.784	0.422	-0.106
-259.180	438.958	-0.198	-0.555
-258.165	32.967	-0.367	-0.406
-257.151	59.110	-0.227	-0.285
-256.136	3.779	-0.482	0.449
-255.122	800.000	-0.029	0.143
-254.107	-51.836	0.343	0.203
-253.092	-184.432	0.055	0.001
-252.078	-89.155	-0.274	-0.103
-251.063	-27.473	0.167	0.124
-250.049	-200.000	-0.033	0.325
-249.034	309.117	0.155	-0.372
-248.019	-120.090	-0.548	0.119
-247.005	-170.614	-0.440	-0.019
-245.990	27.692	0.327	0.351
-244.976	-61.898	-0.495	-0.263
-243.961	-9.824	-0.195	-0.166
-242.946	-96.791	-0.047	-0.016
-241.932	-63.840	0.248	0.129
-240.917	-10.649	-0.456	-0.384
-239.903	-57.469	-0.459	0.256
-238.888	-200.000	0.027	0.182
-237.873	-30.781	0.323	-0.233
-236.859	-71.172	-0.271	0.129
-235.844	-69.626	0.224	0.109
-234.830	-200.000	-0.066	-0.445
-233.815	6.437	0.193	-0.183
-232.800	800.000	-0.065	-0.340
-231.786	273.245	0.040	-0.091
-230.771	74.395	0.263	0.353
-229.757	203.025	0.127	0.251
-228.742	-179.327	0.596	-0.017
-227.727	125.614	-0.161	-0.260
-226.713	119.656	0.261	-0.413
-225.698	-136.827	-0.393	0.057
-224.684	330.079	-0.176	-0.433
-223.669	-44.612	0.127	0.081
-222.655	-200.000	0.011	0.074
-221.640	240.598	-0.067	0.143
-220.625	206.917	-0.145	0.290
-219.611	-131.610	0.548	-0.091
-218.596	-100.168	0.601	0.189
-217.582	-86.037	0.025	-0.010
-216.567	-97.528	0.162	-0.053
-215.552	-2.727	0.207	0.184
-214.538	129.325	0.063	0.103
-213.523	-200.000	-0.034	0.383
-212.509	-76.581	-0.491	0.219
-211.494	-200.000	-0.013	-0.391
-210.479	-200.000	0.013	0.102
-209.465	596.358	0.067	-0.211
-208.450	199.615	-0.249	0.489
-207.436	76.275	0.081	0.109
-206.421	-51.783	-0.165	-0.097
-205.406	-16.565	-0.164	-0.132
-204.392	-87.013	0.460	-0.178
-203.377	800.000	0.041	-0.191
-202.363	-146.562	-0.221	0.024
-201.348	-130.581	0.395	0.067
-200.333	501.491	0.195	-0.575
-199.319	-18.264	0.235	0.187
-198.304	53.500	-0.172	-0.211
-197.290	90.155	-0.265	-0.378
-196.275	-102.642	-0.096	-0.029
-195.260	-21.633	0.076	-0.059
-194.246	800.000	0.108	-0.590
-193.231	-158.886	-0.112	-0.008
-192.217	-200.000	-0.071	0.419
-191.202	-115.332	-0.410	-0.098
-190.187	-200.000	-0.074	-0.696
-189.173	-152.093	0.430	-0.039
-188.158	85.889	0.381	-0.535
-187.144	-163.772	-0.214	-0.013
-186.129	-36.196	0.319	-0.219
-185.114	-76.735	0.428	0.190
-184.100	-27.615	0.382	0.282
-183.085	-200.000	0.018	0.103
-182.071	22.037	-0.265	0.276
-181.056	331.878	0.124	0.306
-180.042	-8.877	-0.353	0.301
-179.027	-89.062	-0.371	0.139
-178.012	-116.626	0.118	-0.027
-176.998	-31.274	0.259	-0.186
-175.983	32.963	0.083	-0.092
-174.969	-68.123	-0.214	0.106
-173.954	-113.680	-0.352	0.087
-172.939	-17.640	0.085	-0.068
-171.925	-17.189	0.507	-0.406
-170.910	-126.406	0.205	-0.038
-169.896	-121.906	-0.069	-0.014
-168.881	-85.523	-0.410	-0.161
-167.866	-62.749	0.131	-0.069
-166.852	287.376	-0.076	0.175
-165.837	-47.716	0.424	-0.261
-164.823	23.073	0.293	-0.305
-163.808	-179.433	0.743	0.020
-162.793	-175.643	0.608	-0.021
-161.779	-33.116	0.198	0.139
-160.764	-15.541	0.086	0.070
-159.750	95.278	-0.280	0.406
-158.735	43.175	0.178	0.207
-157.720	-67.367	0.383	0.191
-156.706	-85.352	-0.126	0.050
-155.691	21.889	-0.065	0.067
-154.677	-21.424	-0.102	0.079
-153.662	80.668	0.071	0.097
-152.647	64.167	-0.234	0.299
-151.633	2.185	0.127	-0.116
-150.618	-9.201	-0.397	0.337
-149.604	-151.259	-0.608	-0.057
-148.589	34.816	-0.263	0.293
-147.574	446.933	-0.090	0.252
-146.560	-103.472	0.166	-0.049
-145.545	-80.509	-0.146	0.062
-144.531	-200.000	-0.036	-0.265
-143.516	-72.849	-0.153	-0.071
-142.502	-176.686	-0.385	-0.012
-141.487	-44.986	0.212	-0.134
-140.472	-98.393	-0.184	0.059
-139.458	49.114	0.147	0.176
-138.443	518.202	-0.148	-0.441
-137.429	521.779	0.160	0.480
-136.414	-36.064	0.272	-0.186
-135.399	231.967	-0.132	-0.276
-134.385	383.074	0.193	0.506
-133.370	-16.895	0.307	0.246
-132.356	-200.000	-0.069	0.435
-131.341	43.166	-0.202	-0.234
-130.326	-200.000	0.010	-0.336
-129.312	-130.860	0.445	-0.075
-128.297	-200.000	-0.024	0.189
-127.283	65.280	-0.213	-0.273
-126.268	85.727	0.193	0.270
-125.253	-73.490	0.147	-0.068
-124.239	91.069	0.136	-0.193
-123.224	-200.000	0.051	-0.301
-122.210	51.629	0.361	-0.436
-121.195	-108.389	-0.432	0.117
-120.180	-71.634	-0.548	0.259
-119.166	-100.837	-0.220	-0.068
-118.151	-127.665	-0.437	0.079
-117.137	123.118	0.133	-0.211
-116.122	83.148	-0.213	0.294
-115.107	-200.000	0.044	-0.284
-114.093	-200.000	-0.009	-0.273
-113.078	-61.375	0.219	0.116
-112.064	374.004	0.134	0.348
-111.049	96.834	0.172	-0.251
-110.034	16.466	0.021	0.021
-109.020	283.308	0.087	0.199
-108.005	310.323	-0.064	0.153
-106.991	167.896	0.273	-0.494
-105.976	-200.000	-0.037	0.261
-104.962	-124.244	0.527	-0.104
-103.947	800.000	-0.104	-0.393
-102.932	171.609	-0.145	0.264
-101.918	-200.000	0.004	0.236
-100.903	420.328	-0.103	0.282
-99.889	-10.454	-0.397	0.334
-98.874	-48.823	0.063	0.039
-97.859	-170.764	0.443	0.019
-96.845	-53.534	0.363	-0.210
-95.830	-200.000	-0.021	0.296
-94.816	-200.000	0.012	0.395
-93.801	-20.997	0.242	0.187
-92.786	-138.059	0.107	0.015
-91.772	-51.757	-0.195	0.115
-90.757	-200.000	0.090	0.509
-89.743	26.525	0.095	-0.101
-88.728	-26.743	0.263	0.195
-87.713	609.786	-0.108	0.344
-86.699	-144.347	-0.029	0.003
-85.684	-200.000	0.034	-0.344
-84.670	-91.978	0.410	0.146
-83.655	-200.000	-0.058	-0.329
-82.640	-136.927	-0.222	0.032
-81.626	-62.823	0.305	0.160
-80.611	-167.511	-0.303	0.015
-79.597	-91.868	0.200	-0.071
-78.582	118.600	0.021	-0.033
-77.567	137.050	0.169	0.281
-76.553	-149.967	0.427	-0.042
-75.538	48.099	0.198	0.235
-74.524	102.554	-0.098	0.145
-73.509	262.324	-0.243	0.536
-72.494	137.128	0.090	-0.149
-71.480	47.604	-0.075	0.088
-70.465	561.610	0.044	0.136
-69.451	-117.549	-0.354	-0.080
-68.436	380.150	-0.075	-0.195
-67.422	-70.551	-0.174	-0.083
-66.407	-200.000	0.044	-0.424
-65.392	-153.900	0.147	-0.013
-64.378	83.251	0.263	0.363
-63.363	73.108	0.097	-0.129
-62.349	-103.104	0.448	-0.133
-61.334	28.691	-1.972	-2.115
-60.319	3.644	1.181	1.090
-59.305	204.214	-3.447	-6.786
-58.290	19.034	3.921	3.980
-57.276	345.789	4.174	10.433
-56.261	-200.000	17.937	276.541
-55.246	413.739	1229.207	3327.622
-54.232	59.801	2817.430	3524.562
-53.217	70.606	2685.374	3521.183
-52.203	41.934	2418.348	2778.705
-51.188	35.638	2077.532	2311.192
-50.173	28.635	1957.134	2097.069
-49.159	27.436	1946.163	2071.530
-48.144	27.071	1941.669	2062.502
-47.130	26.883	1939.794	2058.287
-46.115	26.772	1938.632	2055.710
-45.100	26.803	1936.842	2054.077
-44.086	26.811	1935.536	2052.698
-43.071	26.852	1933.502	2050.929
-42.057	26.834	1932.074	2049.127
-41.042	26.575	1932.084	2046.118
-40.027	26.714	1929.854	2045.253
-39.013	26.639	1928.734	2043.133
-37.998	26.627	1927.805	2041.933
-36.984	26.612	1926.812	2040.626
-35.969	26.563	1924.732	2037.786
-34.954	26.524	1922.837	2035.267
-33.940	26.522	1922.403	2034.702
-32.925	26.703	1920.271	2034.404
-31.911	26.655	1919.795	2033.283
-30.896	26.636	1918.489	2031.600
-29.881	26.489	1917.443	2028.753
-28.867	26.480	1916.370	2027.442
-27.852	26.439	1914.586	2025.015
-26.838	26.395	1913.758	2023.554
-25.823	26.583	1910.839	2022.507
-24.809	26.541	1910.048	2021.118
-23.794	26.427	1909.358	2019.021
-22.779	26.572	1907.148	2018.232
-21.765	26.378	1906.863	2015.683
-20.750	26.467	1905.226	2014.869
-19.736	26.528	1904.451	2014.650
-18.721	26.379	1904.005	2012.429
-17.706	26.508	1901.333	2010.960
-16.692	26.456	1900.410	2009.326
-15.677	26.410	1899.436	2007.707
-14.663	26.518	1897.390	2006.663
-13.648	26.440	1896.671	2004.963
-12.633	26.300	1895.507	2002.095
-11.619	26.350	1894.566	2001.571
-10.604	26.257	1892.981	1998.781
-9.590	26.188	1891.743	1996.630
-8.575	26.332	1890.751	1997.101
-7.560	26.474	1889.278	1997.050
-6.546	26.375	1887.679	1994.176
-5.531	26.387	1887.365	1993.898
-4.517	26.213	1886.266	1990.738
-3.502	26.397	1885.230	1991.599
-2.487	26.381	1883.850	1989.880
-1.473	26.549	1880.343	1987.958
-0.458	26.739	1862.631	1971.228
0.556	23.927	2008.898	2080.578
1.571	23.401	2219.621	2291.711
2.586	24.590	2263.128	2352.100
3.600	24.698	2266.056	2356.288
4.615	24.742	2265.354	2355.854
5.629	24.864	2263.296	2355.049
6.644	24.835	2261.456	2352.472
7.659	24.889	2259.068	2350.418
8.673	25.001	2257.613	2350.097
9.688	24.463	2264.542	2349.908
10.702	22.593	2340.466	2402.811
11.717	20.722	2406.310	2443.736
12.731	10.493	2379.062	2272.330
13.746	1.665	2354.809	2125.392
14.761	0.345	2350.612	2102.840
15.775	0.232	2349.702	2100.192
16.790	0.190	2346.987	2096.930
17.804	0.127	2346.045	2094.948
18.819	0.208	2343.928	2093.946
19.834	0.114	2342.914	2091.478
20.848	0.041	2341.730	2089.150
21.863	0.096	2340.499	2088.569
22.877	0.206	2337.131	2086.838
23.892	0.175	2335.221	2084.461
24.907	0.163	2332.729	2081.814
25.921	0.103	2331.697	2079.813
26.936	0.194	2328.661	2078.123
27.950	0.050	2326.325	2073.796
28.965	0.181	2323.976	2073.257
29.980	0.126	2322.267	2070.734
30.994	0.249	2320.325	2070.442
32.009	5.384	2339.295	2158.516
33.023	18.948	2379.667	2385.880
34.038	25.662	2394.919	2494.789
35.053	27.020	2394.759	2513.228
36.067	26.836	2390.560	2505.970
37.082	25.916	2386.422	2488.579
38.096	25.661	2384.089	2482.307
39.111	26.317	2383.860	2490.862
40.126	27.483	2385.512	2508.442
41.140	28.390	2385.758	2520.948
42.155	27.667	2382.369	2507.079
43.169	27.246	2378.868	2497.280
44.184	27.559	2377.521	2499.892
45.199	27.419	2374.397	2494.376
46.213	27.126	2373.312	2488.909
47.228	27.086	2372.403	2487.102
48.242	27.163	2370.687	2486.065
49.257	27.522	2368.580	2488.494
50.271	27.816	2367.295	2490.868
51.286	28.081	2365.185	2491.985
52.301	27.717	2363.183	2484.597
53.315	26.362	2357.342	2459.640
54.330	23.968	2349.192	2418.178
55.344	22.739	2342.575	2394.319
56.359	22.646	2339.249	2389.373
57.374	22.526	2336.567	2384.709
58.388	22.513	2333.863	2381.496
59.403	22.749	2331.748	2382.255
60.417	23.024	2331.122	2385.054
61.432	23.357	2329.442	2387.564
62.447	23.213	2326.968	2382.799
63.461	23.109	2324.669	2378.748
64.476	23.127	2322.490	2376.483
65.490	23.453	2322.738	2380.853
66.505	24.192	2324.980	2392.847
67.520	25.467	2328.806	2413.713
68.534	26.929	2330.088	2434.485
69.549	27.914	2328.828	2446.150
70.563	28.277	2328.315	2450.203
71.578	28.507	2326.831	2451.435
72.593	28.372	2324.651	2447.038
73.607	28.320	2322.975	2444.274
74.622	28.335	2320.761	2441.856
75.636	28.108	2317.618	2435.220
76.651	28.155	2315.688	2433.524
77.666	28.323	2314.102	2433.812
78.680	28.480	2312.631	2434.067
79.695	28.829	2311.592	2437.338
80.709	28.910	2312.290	2438.859
81.724	29.207	2310.756	2440.907
82.739	28.956	2306.360	2432.643
83.753	28.648	2303.407	2425.149
84.768	28.398	2300.754	2418.738
85.782	28.230	2299.641	2415.062
86.797	28.324	2296.841	2413.065
87.812	28.236	2294.805	2409.483
88.826	28.029	2293.603	2405.185
89.841	28.141	2292.204	2404.918
90.855	28.407	2289.811	2405.633
91.870	28.091	2287.260	2398.492
92.884	28.056	2284.934	2395.313
93.899	28.241	2283.557	2396.009
94.914	27.441	2280.462	2381.966
95.928	24.968	2272.350	2340.763
96.943	24.011	2269.458	2324.941
97.957	26.133	2273.585	2356.777
98.972	27.568	2275.431	2377.234
99.987	27.732	2272.027	2375.542
101.001	27.860	2269.565	2374.353
102.016	28.025	2268.798	2375.422
103.030	28.232	2266.191	2375.117
104.045	28.311	2264.749	2374.342
105.060	28.342	2263.408	2373.056
106.074	28.258	2260.092	2368.207
107.089	28.097	2258.417	2364.079
108.103	28.276	2258.211	2365.899
109.118	28.261	2255.992	2363.097
110.133	28.291	2256.206	2363.431
111.147	28.871	2254.303	2368.670
112.162	29.015	2252.508	2368.361
113.176	28.426	2248.327	2356.078
114.191	28.170	2246.755	2350.836
115.206	28.327	2245.723	2351.504
116.220	28.338	2243.412	2348.945
117.235	28.128	2240.901	2343.331
118.249	28.129	2239.215	2341.304
119.264	28.366	2238.197	2343.001
120.279	28.569	2236.084	2343.113
121.293	28.275	2234.114	2337.001
122.308	28.401	2232.247	2336.380
123.322	28.264	2231.974	2334.062
124.337	27.571	2227.474	2320.214
125.352	25.227	2219.313	2281.513
126.366	24.644	2217.942	2272.374
127.381	26.653	2220.413	2300.317
128.395	27.516	2220.851	2311.510
129.410	28.054	2219.967	2317.159
130.424	28.206	2218.845	2317.652
131.439	28.058	2215.876	2312.391
132.454	28.034	2214.034	2309.886
133.468	28.098	2212.775	2309.113
134.483	28.241	2209.334	2307.056
135.497	27.883	2209.074	2301.967
136.512	27.938	2206.773	2299.994
137.527	28.009	2205.947	2299.752
138.541	28.091	2204.025	2298.517
139.556	27.965	2202.819	2295.386
140.570	28.248	2202.276	2298.122
141.585	28.414	2199.733	2297.285
142.600	28.086	2197.584	2290.632
143.614	27.920	2195.933	2286.554
144.629	28.139	2195.096	2288.160
145.643	28.273	2193.051	2287.431
146.658	28.108	2191.951	2283.944
147.673	28.249	2190.446	2283.869
148.687	28.357	2188.537	2282.963
149.702	28.140	2186.035	2277.365
150.716	27.763	2184.955	2271.248
151.731	27.915	2183.250	2271.104
152.746	28.235	2182.532	2274.082
153.760	27.245	2179.409	2258.209
154.775	24.615	2170.586	2216.054
155.789	23.513	2167.707	2199.117
156.804	25.913	2172.192	2233.334
157.819	27.834	2172.676	2257.475
158.833	28.255	2170.903	2260.593
159.848	28.235	2169.638	2258.753
160.862	28.390	2168.515	2259.228
161.877	28.553	2167.451	2259.871
162.892	28.295	2166.940	2255.877
163.906	28.167	2164.974	2251.975
164.921	28.437	2162.357	2252.323
165.935	28.457	2160.651	2250.514
166.950	28.449	2158.578	2247.987
167.964	28.307	2156.459	2243.762
168.979	28.388	2154.655	2242.623
169.994	28.333	2154.178	2241.182
171.008	28.440	2152.171	2240.133
172.023	28.388	2149.289	2236.228
173.037	28.193	2148.128	2232.369
174.052	28.107	2145.612	2228.428
175.067	28.102	2144.521	2226.963
176.081	28.300	2143.507	2228.072
177.096	28.131	2143.049	2225.261
178.110	27.842	2140.312	2218.624
179.125	27.883	2138.851	2217.342
180.140	28.285	2137.396	2220.465
181.154	28.058	2136.283	2216.288
182.169	27.761	2134.891	2210.962
183.183	26.842	2129.327	2193.767
184.198	24.390	2120.687	2154.868
185.213	23.842	2120.187	2147.452
186.227	26.473	2126.153	2185.231
187.242	27.886	2127.204	2203.192
188.256	28.139	2125.993	2204.742
189.271	28.111	2124.922	2203.030
190.286	28.144	2123.686	2201.880
191.300	28.205	2120.811	2199.369
192.315	27.962	2118.996	2194.298
193.329	28.021	2116.265	2191.915
194.344	27.856	2116.255	2189.655
195.359	28.280	2116.081	2194.324
196.373	28.426	2114.062	2193.716
197.388	28.365	2110.741	2189.281
198.402	28.286	2109.514	2186.800
199.417	28.130	2106.086	2181.106
200.432	28.142	2104.584	2179.432
201.446	28.334	2104.566	2181.453
202.461	28.441	2103.898	2181.787
203.475	28.399	2101.154	2178.170
204.490	28.324	2099.302	2175.097
205.504	28.198	2096.597	2170.534
206.519	28.110	2093.268	2165.781
207.534	27.816	2091.214	2159.904
208.548	27.848	2090.898	2159.692
209.563	28.023	2089.607	2160.181
210.577	27.731	2087.656	2154.445
211.592	27.721	2086.088	2152.444
212.607	26.708	2081.141	2135.093
213.621	23.739	2072.658	2091.060
214.636	23.757	2074.014	2092.394
215.650	26.427	2079.199	2129.010
216.665	27.564	2078.682	2141.672
217.680	27.787	2076.948	2142.252
218.694	27.951	2076.649	2143.626
219.709	28.030	2075.741	2143.360
220.723	28.071	2074.871	2142.689
221.738	28.236	2071.510	2140.907
222.753	28.013	2070.396	2136.873
223.767	28.272	2069.077	2138.296
224.782	28.100	2066.732	2133.602
225.796	28.195	2066.512	2134.233
226.811	28.315	2063.912	2132.698
227.826	28.554	2064.279	2135.621
228.840	28.449	2062.826	2132.630
229.855	28.390	2060.090	2128.862
230.869	28.504	2059.424	2129.242
231.884	28.441	2056.203	2124.925
232.899	28.109	2055.215	2119.783
233.913	27.992	2053.666	2116.575
234.928	27.738	2052.531	2112.199
235.942	28.037	2051.527	2114.385
236.957	28.269	2049.167	2114.394
237.972	28.062	2047.703	2110.226
238.986	27.946	2047.484	2108.403
240.001	28.306	2045.303	2110.081
241.015	28.030	2042.839	2104.087
242.030	27.099	2038.913	2089.033
243.045	24.716	2031.651	2053.875
244.059	24.223	2030.829	2047.105
245.074	26.474	2035.297	2077.369
246.088	27.695	2035.008	2090.910
247.103	27.758	2033.111	2089.437
248.117	27.581	2031.454	2085.449
249.132	27.990	2030.712	2089.131
250.147	27.975	2028.792	2086.733
251.161	27.914	2026.280	2083.206
252.176	27.653	2024.365	2078.002
253.190	26.839	2018.747	2062.678
254.205	25.848	2014.845	2047.138
255.220	25.882	2013.300	2045.709
256.234	26.369	2013.903	2051.637
257.249	26.446	2013.785	2052.148
258.263	26.211	2012.153	2047.554
259.278	25.636	2009.681	2038.252
260.293	25.580	2008.202	2035.871
261.307	27.065	2010.015	2054.363
262.322	28.261	2010.730	2068.433
263.336	28.402	2009.434	2068.452
264.351	28.233	2007.848	2064.656
265.366	28.312	2007.147	2064.592
266.380	28.280	2004.948	2061.715
267.395	27.845	2001.995	2053.512
268.409	27.503	1999.626	2046.984
269.424	27.845	2000.009	2050.991
270.439	28.131	1999.923	2053.880
271.453	27.168	1994.646	2037.372
272.468	24.297	1985.102	1995.137
273.482	24.016	1985.131	1991.774
274.497	26.738	1989.235	2026.288
275.512	28.007	1989.439	2040.505
276.526	28.278	1987.868	2041.684
277.541	28.254	1986.453	2039.711
278.555	28.186	1985.124	2037.351
279.570	27.919	1981.657	2030.563
280.585	28.044	1981.427	2031.484
281.599	28.317	1980.227	2033.049
282.614	27.677	1976.357	2021.711
283.628	25.833	1971.198	1995.679
284.643	25.392	1969.434	1988.749
285.657	25.555	1968.762	1989.637
286.672	25.340	1965.845	1984.066
287.687	25.127	1963.558	1979.158
288.701	24.874	1962.379	1974.932
289.716	24.974	1960.575	1973.983
290.730	25.001	1958.398	1971.856
291.745	24.908	1957.670	1969.853
292.760	25.100	1957.327	1971.395
293.774	25.789	1958.569	1980.028
294.789	26.567	1959.095	1988.917
295.803	27.311	1959.588	1997.398
296.818	28.037	1959.201	2004.764
297.833	28.116	1958.151	2004.319
298.847	28.238	1957.327	2004.589
299.862	28.156	1955.005	2001.065
300.876	27.343	1950.283	1987.078
301.891	24.686	1942.108	1949.426
302.906	24.297	1943.311	1946.129
303.920	27.089	1948.233	1981.487
304.935	28.013	1947.214	1990.327
305.949	28.157	1944.997	1989.399
306.964	28.486	1943.782	1991.518
307.979	27.741	1940.171	1979.454
308.993	26.623	1936.436	1963.238
310.008	25.969	1933.860	1953.261
311.022	25.594	1931.144	1946.215
312.037	25.408	1929.101	1941.895
313.052	25.234	1926.396	1937.051
314.066	24.906	1924.464	1931.327
315.081	24.715	1923.008	1927.566
316.095	24.403	1921.268	1922.208
317.110	24.507	1920.804	1922.647
318.125	25.275	1920.855	1930.774
319.139	25.684	1920.643	1934.747
320.154	26.017	1920.046	1937.511
321.168	26.140	1918.307	1936.853
322.183	27.012	1919.731	1947.466
323.197	28.120	1920.742	1960.196
324.212	28.191	1919.121	1959.071
325.227	28.062	1917.101	1955.387
326.241	28.093	1915.729	1954.086
327.256	28.203	1915.662	1954.969
328.270	28.456	1913.554	1955.293
329.285	28.330	1913.187	1953.337
330.300	27.242	1910.051	1938.248
331.314	24.427	1901.193	1898.969
332.329	24.168	1900.512	1895.287
333.343	27.095	1905.158	1931.018
334.358	28.409	1905.807	1945.475
335.373	28.526	1904.713	1945.380
336.387	28.541	1902.537	1943.078
337.402	28.715	1901.048	1943.184
338.416	28.638	1900.940	1942.021
339.431	28.643	1898.578	1939.425
340.446	28.672	1896.533	1937.414
341.460	27.167	1890.360	1914.947
342.475	25.574	1886.180	1893.644
343.489	25.326	1882.786	1887.383
344.504	25.098	1881.780	1883.744
345.519	25.192	1880.060	1882.786
346.533	25.132	1877.888	1879.751
347.548	24.849	1876.822	1875.485
348.562	25.157	1876.299	1877.972
349.577	25.395	1875.987	1879.941
350.592	25.310	1874.201	1877.034
351.606	25.431	1872.975	1876.854
352.621	25.449	1872.492	1876.336
353.635	26.249	1872.767	1884.777
354.650	26.638	1872.698	1888.560
355.665	27.401	1873.100	1896.735
356.679	28.237	1873.306	1905.471
357.694	28.252	1872.378	1904.455
358.708	28.615	1871.634	1907.256
359.723	27.567	1866.736	1891.119
360.738	24.591	1858.656	1851.752
361.752	24.755	1860.184	1854.761
362.767	27.261	1863.995	1884.478
363.781	27.972	1861.478	1889.094
364.796	27.770	1860.269	1885.547
365.810	27.905	1859.519	1885.956
366.825	28.260	1858.581	1888.464
367.840	28.379	1857.409	1888.278
368.854	28.017	1855.184	1882.046
369.869	26.778	1851.253	1865.029
370.883	25.920	1847.667	1852.334
371.898	25.001	1844.549	1839.506
372.913	24.454	1842.108	1831.214
373.927	24.462	1840.051	1829.038
374.942	24.472	1839.172	1828.040
375.956	24.480	1837.446	1826.188
376.971	24.441	1834.565	1822.712
377.986	24.124	1832.824	1817.511
379.000	24.699	1834.265	1824.624
380.015	26.565	1837.236	1846.514
381.029	27.965	1837.898	1861.301
382.044	28.375	1836.525	1863.884
383.059	28.789	1836.408	1867.770
384.073	28.702	1834.886	1865.106
385.088	28.127	1832.950	1857.053
386.102	28.140	1830.841	1854.823
387.117	28.056	1829.183	1852.069
388.132	27.990	1829.244	1851.239
389.146	27.249	1826.217	1840.423
390.161	24.408	1818.829	1803.925
391.175	24.278	1817.929	1801.497
392.190	26.965	1820.075	1830.691
393.205	27.945	1820.188	1840.515
394.219	28.083	1819.431	1840.925
395.234	28.166	1818.802	1840.911
396.248	27.993	1816.555	1836.668
397.263	28.019	1814.370	1834.504
398.278	27.996	1811.743	1831.390
399.292	27.856	1811.303	1829.323
400.307	27.863	1810.625	1828.487
401.321	27.518	1807.322	1821.469
402.336	25.628	1802.134	1797.058
403.350	24.537	1798.478	1782.259
404.365	24.709	1797.711	1783.016
405.380	25.001	1797.022	1785.041
406.394	24.902	1794.936	1781.761
407.409	24.525	1792.288	1775.155
408.423	24.425	1790.098	1771.774
409.438	24.980	1790.922	1777.923
410.453	26.223	1793.485	1792.658
411.467	26.553	1793.307	1795.561
412.482	27.164	1793.665	1801.796
413.496	28.106	1793.451	1810.746
414.511	28.347	1791.493	1810.941
415.526	28.441	1790.130	1810.281
416.540	28.488	1788.870	1809.259
417.555	28.037	1787.045	1802.724
418.569	27.658	1786.135	1797.839
419.584	27.868	1786.279	1799.843
420.599	28.188	1787.120	1803.651
421.613	28.389	1786.176	1804.471
422.628	28.567	1784.579	1804.406
423.642	28.693	1783.795	1804.640
424.657	28.443	1782.609	1800.754
425.672	28.134	1778.509	1793.355
426.686	28.182	1778.338	1793.437
427.701	28.335	1777.317	1793.698
428.715	28.655	1775.387	1794.685
429.730	28.722	1774.988	1794.725
430.745	28.489	1771.983	1789.188
431.759	27.035	1768.748	1771.458
432.774	25.390	1763.751	1750.143
433.788	24.032	1759.780	1732.715
434.803	23.773	1758.853	1729.062
435.818	23.896	1758.126	1729.348
436.832	23.886	1757.813	1728.728
437.847	22.599	1749.432	1707.759
438.861	12.809	1722.255	1586.717
439.876	2.327	1703.168	1468.196
440.890	0.400	1698.106	1445.107
441.905	0.201	1697.186	1442.233
442.920	0.079	1696.427	1440.237
443.934	0.201	1694.230	1439.378
444.949	0.198	1693.336	1438.417
445.963	0.076	1692.588	1436.435
446.978	0.115	1691.836	1436.000
447.993	0.093	1690.367	1434.376
449.007	0.183	1687.964	1433.020
450.022	0.116	1686.082	1430.613
451.036	0.240	1684.253	1430.075
452.051	0.639	1687.330	1436.328
453.066	8.715	1707.888	1531.547
454.080	19.467	1726.452	1652.009
455.095	22.496	1732.020	1686.327
456.109	23.220	1732.629	1693.685
457.124	23.230	1731.169	1692.152
458.139	23.195	1730.013	1690.484
459.153	23.218	1728.485	1689.006
460.168	23.119	1727.334	1686.735
461.182	23.315	1725.967	1687.071
462.197	23.480	1723.862	1686.388
463.212	23.643	1723.014	1686.917
464.226	23.686	1722.358	1686.480
465.241	23.692	1720.664	1684.681
466.255	23.473	1719.692	1681.440
467.270	23.506	1718.288	1680.176
468.285	23.863	1717.057	1682.168
469.299	23.801	1716.692	1681.028
470.314	23.780	1714.806	1678.774
471.328	23.832	1712.713	1677.016
472.343	23.926	1711.624	1676.647
473.358	23.758	1710.143	1673.404
474.372	23.527	1709.088	1669.979
475.387	23.483	1708.422	1668.720
476.401	23.379	1706.298	1665.462
477.416	23.125	1704.723	1661.322
478.430	23.154	1702.747	1659.477
479.445	23.298	1702.398	1660.292
480.460	23.606	1701.039	1661.669
481.474	23.610	1699.990	1660.478
482.489	23.425	1698.436	1657.029
483.503	23.145	1695.954	1651.783
484.518	23.031	1695.294	1649.867
485.533	22.945	1694.242	1647.845
486.547	22.822	1691.090	1643.431
487.562	22.478	1689.777	1638.739
488.576	22.648	1688.011	1638.416
489.591	22.811	1686.871	1638.631
490.606	22.989	1686.741	1639.976
491.620	23.190	1684.373	1639.343
492.635	22.909	1682.605	1634.818
493.649	22.682	1681.191	1631.135
494.664	23.156	1681.800	1635.937
495.679	23.647	1681.603	1640.110
496.693	23.560	1680.471	1638.001
497.708	23.752	1678.107	1637.280
498.722	23.291	1677.087	1631.821
499.737	23.240	1675.819	1629.923
500.752	23.452	1674.572	1630.474
501.766	23.658	1673.855	1631.483
502.781	23.449	1672.502	1628.045
503.795	23.479	1670.493	1626.166
504.810	23.437	1669.306	1624.426
505.825	23.392	1668.274	1622.816
506.839	23.315	1667.428	1621.088
507.854	23.187	1665.749	1618.094
508.868	23.391	1663.090	1617.182
509.883	22.974	1662.589	1612.676
510.898	22.841	1661.162	1609.882
511.912	22.908	1659.842	1609.026
512.927	22.944	1657.826	1607.204
513.941	22.955	1655.831	1605.184
514.956	23.116	1655.652	1606.283
515.971	22.982	1654.287	1603.547
516.985	22.992	1653.075	1602.274
518.000	23.106	1651.408	1601.497
519.014	22.608	1650.799	1596.185
520.029	22.695	1648.731	1594.786
521.043	22.672	1647.840	1593.523
522.058	22.842	1646.765	1593.841
523.073	22.810	1645.286	1591.925
524.087	22.556	1643.433	1587.646
525.102	22.607	1643.266	1587.754
526.116	23.358	1643.366	1594.459
527.131	23.648	1641.801	1595.363
528.146	23.188	1640.669	1589.926
529.160	23.016	1639.204	1586.758
530.175	22.996	1637.540	1584.780
531.189	22.890	1636.496	1582.621
532.204	22.848	1634.968	1580.576
533.219	22.933	1634.518	1580.717
534.233	23.136	1633.936	1581.791
535.248	22.874	1632.385	1577.750
536.262	22.254	1629.885	1569.585
537.277	22.165	1628.187	1566.963
538.292	22.356	1626.717	1567.073
539.306	22.378	1625.160	1565.581
540.321	22.116	1623.926	1561.860
541.335	22.334	1622.465	1562.215
542.350	22.344	1620.732	1560.454
543.365	22.330	1618.585	1558.069
544.379	22.218	1616.674	1555.049
545.394	22.121	1616.167	1553.514
546.408	22.533	1616.519	1557.325
547.423	23.097	1616.791	1562.416
548.438	23.340	1614.591	1562.256
549.452	22.913	1614.116	1557.826
550.467	22.790	1612.664	1555.144
551.481	22.904	1611.385	1554.735
552.496	22.829	1609.944	1552.497
553.511	22.487	1608.395	1547.796
554.525	22.622	1607.111	1547.567
555.540	22.533	1606.573	1546.076
556.554	22.430	1605.348	1543.807
557.569	22.579	1603.574	1543.229
558.583	22.845	1602.051	1543.916
559.598	22.778	1601.607	1542.709
560.613	22.701	1600.535	1540.815
561.627	22.582	1598.438	1537.569
562.642	22.357	1596.060	1533.130
563.656	22.023	1594.578	1528.603
564.671	21.861	1594.215	1526.653
565.686	21.948	1592.726	1525.805
566.700	22.156	1591.829	1526.577
567.715	22.249	1590.633	1526.066
568.729	22.383	1589.934	1526.374
569.744	22.580	1588.164	1526.208
570.759	22.356	1586.608	1522.584
571.773	22.439	1585.621	1522.173
572.788	22.253	1583.788	1518.622
573.802	22.173	1582.244	1516.263
574.817	21.994	1580.191	1512.561
575.832	21.832	1578.575	1509.432
576.846	22.088	1577.801	1510.727
577.861	22.523	1577.176	1513.708
578.875	22.428	1576.863	1512.407
579.890	22.221	1575.504	1509.132
580.905	22.090	1575.241	1507.576
581.919	22.199	1573.698	1506.855
582.934	21.818	1572.696	1502.431
583.948	21.813	1571.047	1500.639
584.963	22.036	1570.144	1501.508
585.978	22.286	1569.169	1502.541
586.992	21.932	1567.480	1497.713
588.007	21.520	1566.342	1492.914
589.021	21.833	1565.881	1494.980
590.036	22.136	1564.476	1496.053
591.051	21.771	1562.856	1491.202
592.065	21.520	1560.082	1486.231
593.080	21.392	1558.732	1483.676
594.094	21.482	1557.640	1483.229
595.109	21.863	1558.183	1486.810
596.123	22.562	1556.430	1490.912
597.138	22.381	1554.839	1487.668
598.153	22.121	1553.259	1483.771
599.167	22.093	1551.801	1481.967
600.182	22.022	1550.635	1480.070
601.196	21.837	1549.782	1477.517
602.211	22.048	1548.714	1478.108
603.226	21.791	1547.273	1474.384
604.240	21.755	1545.375	1472.094
605.255	21.651	1544.334	1470.045
606.269	21.609	1544.410	1469.585
607.284	21.889	1542.858	1470.294
608.299	21.905	1541.350	1468.813
609.313	22.149	1540.019	1469.420
610.328	22.002	1538.733	1466.782
611.342	21.977	1536.915	1464.667
612.357	21.752	1536.106	1461.839
613.372	21.619	1535.720	1460.177
614.386	21.624	1534.710	1459.083
615.401	21.508	1533.720	1456.997
616.415	21.400	1532.955	1455.195
617.430	21.434	1531.022	1453.471
618.445	21.233	1529.483	1450.157
619.459	21.317	1529.015	1450.238
620.474	21.708	1528.389	1452.734
621.488	22.029	1527.852	1454.717
622.503	22.086	1526.639	1453.865
623.518	21.686	1525.204	1449.004
624.532	21.282	1523.539	1443.893
625.547	21.210	1521.242	1440.938
626.561	21.069	1520.228	1438.644
627.576	20.815	1520.155	1436.294
628.591	21.326	1519.282	1439.531
629.605	21.632	1518.787	1441.421
630.620	21.690	1516.956	1439.987
631.634	21.931	1516.653	1441.524
632.649	21.811	1515.413	1439.175
633.663	21.551	1512.460	1434.064
634.678	21.231	1510.934	1429.809
635.693	20.935	1508.659	1425.051
636.707	21.013	1507.078	1424.029
637.722	20.895	1505.918	1421.794
638.736	21.215	1504.684	1423.084
639.751	21.137	1504.962	1422.539
640.766	21.331	1503.475	1422.550
641.780	21.240	1503.004	1421.184
642.795	21.431	1502.117	1421.735
643.809	21.509	1500.876	1421.034
644.824	21.508	1500.179	1420.193
645.839	21.533	1499.899	1419.961
646.853	21.552	1497.650	1417.820
647.868	21.441	1496.256	1415.429
648.882	21.355	1495.242	1413.600
649.897	21.356	1494.080	1412.334
650.912	21.232	1491.834	1409.039
651.926	21.142	1490.934	1407.292
652.941	21.224	1489.936	1406.847
653.955	21.359	1489.286	1407.151
654.970	21.574	1488.454	1407.943
655.985	21.660	1486.784	1406.887
656.999	21.430	1485.587	1403.726
658.014	21.353	1483.360	1400.834
659.028	21.013	1481.977	1396.624
660.043	20.989	1482.162	1396.441
661.058	21.037	1480.032	1394.655
662.072	20.928	1479.224	1392.850
663.087	21.282	1478.242	1394.600
664.101	21.401	1477.419	1394.605
665.116	21.212	1476.058	1391.643
666.131	21.214	1475.070	1390.561
667.145	21.288	1473.899	1389.880
668.160	21.233	1472.085	1387.562
669.174	20.875	1470.742	1383.274
670.189	20.977	1469.395	1382.655
671.204	21.125	1469.371	1383.648
672.218	21.253	1469.160	1384.302
673.233	21.215	1467.079	1381.878
674.247	20.992	1465.450	1378.408
675.262	20.899	1464.810	1376.902
676.276	20.945	1463.532	1375.902
677.291	21.040	1462.943	1375.935
678.306	21.409	1462.399	1378.183
679.320	21.388	1460.644	1376.197
680.335	21.100	1459.808	1372.962
681.349	21.043	1458.898	1371.495
682.364	21.135	1457.411	1370.661
683.379	20.999	1456.472	1368.541
684.393	20.865	1454.970	1365.906
685.408	20.801	1453.696	1364.044
686.422	20.698	1453.156	1362.568
687.437	20.671	1452.012	1361.112
688.452	20.450	1451.218	1358.474
689.466	20.580	1449.215	1357.455
690.481	20.563	1447.979	1356.005
691.495	20.725	1448.139	1357.257
692.510	21.297	1446.853	1360.368
693.525	21.565	1445.678	1361.196
694.539	21.229	1444.098	1356.921
695.554	20.679	1443.299	1351.716
696.568	20.507	1441.744	1348.754
697.583	20.328	1440.926	1346.430
698.598	20.459	1440.313	1346.716
699.612	20.533	1438.831	1345.747
700.627	20.536	1437.968	1344.802
701.641	20.837	1436.691	1345.783
702.656	20.755	1435.685	1344.049
703.671	20.452	1435.029	1340.923
704.685	20.575	1433.793	1340.562
705.700	20.816	1432.318	1340.884
706.714	20.758	1431.478	1339.486
707.729	20.827	1429.751	1338.249
708.744	20.804	1428.303	1336.553
709.758	20.682	1427.418	1334.624
710.773	20.789	1426.734	1334.646
711.787	21.019	1425.582	1335.179
712.802	20.898	1423.885	1332.504
713.816	20.656	1423.608	1330.222
714.831	20.730	1422.341	1329.448
715.846	20.615	1420.831	1326.995
716.860	20.574	1419.337	1325.131
717.875	20.609	1418.154	1324.135
718.889	20.613	1417.768	1323.642
719.904	20.700	1416.645	1323.100
720.919	20.525	1415.239	1320.294
721.933	20.409	1414.494	1318.556
722.948	20.393	1413.413	1317.269
723.962	20.479	1412.358	1316.782
724.977	20.397	1410.778	1314.532
725.992	20.432	1409.699	1313.635
727.006	20.533	1408.643	1313.257
728.021	20.545	1407.031	1311.690
729.035	20.560	1405.779	1310.476
730.050	20.454	1405.459	1309.222
731.065	20.514	1404.837	1308.943
732.079	20.614	1403.131	1307.952
733.094	20.680	1402.091	1307.320
734.108	20.851	1400.795	1307.244
735.123	20.624	1399.611	1304.278
736.138	20.605	1398.787	1303.204
737.152	20.579	1397.996	1302.117
738.167	20.391	1396.539	1299.193
739.181	20.417	1395.452	1298.221
740.196	20.439	1394.493	1297.341
741.211	20.452	1394.029	1296.850
742.225	20.455	1392.825	1295.598
743.240	20.400	1391.336	1293.648
744.254	20.193	1390.037	1290.734
745.269	20.161	1389.116	1289.484
746.284	20.152	1388.536	1288.725
747.298	20.377	1387.227	1289.038
748.313	20.468	1386.892	1289.250
749.327	20.643	1386.732	1290.251
750.342	20.983	1386.090	1292.031
751.356	21.442	1384.916	1294.199
752.371	21.126	1382.808	1289.727
753.386	20.628	1380.994	1284.186
754.400	20.378	1380.064	1281.315
755.415	20.419	1378.941	1280.422
756.429	20.345	1377.457	1278.339
757.444	20.428	1376.599	1278.003
758.459	20.268	1375.592	1275.730
759.473	20.209	1374.334	1273.978
760.488	20.239	1373.071	1272.879
761.502	20.207	1371.774	1271.284
762.517	20.339	1370.593	1271.010
763.532	20.427	1369.269	1270.282
764.546	20.373	1368.595	1269.103
765.561	20.538	1369.200	1270.723
766.575	21.004	1368.879	1273.699
767.590	21.133	1367.292	1273.015
768.605	20.704	1364.980	1267.568
769.619	20.548	1363.651	1265.042
770.634	20.391	1362.364	1262.553
771.648	20.234	1361.497	1260.447
772.663	20.211	1360.361	1259.079
773.678	20.224	1359.971	1258.661
774.692	20.145	1359.567	1257.561
775.707	20.338	1358.426	1257.761
776.721	20.372	1356.769	1256.324
777.736	20.302	1355.736	1254.706
778.751	20.260	1355.184	1253.742
779.765	20.314	1353.972	1252.864
780.780	20.196	1353.576	1251.493
781.794	20.387	1352.892	1252.089
782.809	20.208	1351.586	1249.440
783.824	19.944	1350.516	1246.390
784.838	20.460	1349.274	1248.825
785.853	20.645	1349.361	1250.086
786.867	20.476	1348.643	1248.055
787.882	20.272	1347.654	1245.521
788.897	20.155	1346.442	1243.408
789.911	20.033	1345.011	1241.059
790.926	20.032	1343.267	1239.294
791.940	19.832	1342.410	1236.919
792.955	19.892	1340.775	1235.689
793.969	19.927	1339.509	1234.631
794.984	19.908	1339.250	1234.107
795.999	19.986	1338.197	1233.549
797.013	20.109	1335.826	1232.089
798.028	20.042	1334.802	1230.520
799.042	20.038	1334.482	1230.053
800.057	20.025	1333.665	1229.058
801.072	20.014	1331.901	1227.209
802.086	20.142	1330.461	1226.646
803.101	19.906	1330.096	1224.480
804.115	19.951	1328.920	1223.574
805.130	20.106	1327.839	1223.535
806.145	19.982	1326.534	1221.299
807.159	20.131	1324.794	1220.608
808.174	20.268	1323.798	1220.512
809.188	20.252	1322.989	1219.507
810.203	20.149	1321.838	1217.572
811.218	20.381	1320.140	1217.498
812.232	20.589	1319.337	1218.081
813.247	20.672	1319.006	1218.210
814.261	20.498	1318.128	1216.032
815.276	20.318	1316.501	1213.118
816.291	20.067	1315.269	1210.078
817.305	20.044	1314.168	1208.762
818.320	20.008	1312.862	1207.163
819.334	19.922	1311.947	1205.573
820.349	19.936	1310.481	1204.180
821.364	19.947	1308.899	1202.660
822.378	19.890	1307.788	1201.094
823.393	19.932	1305.961	1199.565
824.407	19.933	1304.744	1198.314
825.422	19.878	1304.354	1197.428
826.437	19.912	1303.231	1196.490
827.451	19.807	1302.325	1194.784
828.466	20.213	1301.619	1196.811
829.480	20.452	1299.974	1196.814
830.495	20.113	1298.073	1192.572
831.509	19.904	1296.883	1189.897
832.524	19.818	1295.815	1188.178
833.539	19.813	1294.598	1186.886
834.553	19.828	1293.474	1185.816
835.568	19.825	1292.608	1184.858
836.582	19.999	1291.714	1185.093
837.597	19.927	1290.063	1182.946
838.612	19.995	1288.367	1181.717
839.626	20.300	1287.254	1182.640
840.641	20.095	1287.413	1181.238
841.655	20.306	1286.937	1182.110
842.670	20.582	1286.599	1183.544
843.685	20.990	1285.052	1184.767
844.699	20.641	1283.235	1180.570
845.714	20.384	1281.616	1177.190
846.728	19.990	1281.120	1173.906
847.743	20.092	1279.888	1173.331
848.758	20.066	1278.429	1171.681
849.772	19.965	1276.463	1169.051
850.787	19.889	1275.031	1167.087
851.801	19.687	1274.523	1165.107
852.816	19.617	1273.261	1163.340
853.831	19.854	1271.482	1163.178
854.845	19.909	1269.359	1161.470
855.860	19.854	1268.188	1159.888
856.874	19.775	1267.535	1158.620
857.889	20.017	1266.357	1159.031
858.904	20.339	1265.826	1160.577
859.918	20.406	1265.042	1160.166
860.933	20.600	1263.695	1160.092
861.947	20.337	1262.435	1157.037
862.962	20.015	1261.084	1153.505
863.977	20.066	1259.271	1152.048
864.991	19.964	1258.455	1150.484
866.006	19.842	1257.745	1148.882
867.020	19.811	1256.908	1147.770
868.035	19.905	1255.465	1146.940
869.049	19.830	1254.612	1145.530
870.064	19.859	1253.738	1144.787
871.079	19.953	1252.678	1144.306
872.093	19.900	1252.938	1144.055
873.108	20.032	1252.228	1144.141
874.122	20.180	1250.625	1143.525
875.137	20.572	1250.419	1145.799
876.152	20.660	1249.927	1145.788
877.166	20.589	1248.227	1143.625
878.181	20.354	1245.934	1139.838
879.195	20.141	1245.007	1137.446
880.210	20.092	1244.033	1136.099
881.225	20.116	1243.703	1135.820
882.239	19.942	1242.101	1133.078
883.254	20.137	1240.904	1133.133
884.268	20.155	1239.362	1131.702
885.283	20.023	1238.116	1129.568
886.298	19.951	1237.270	1128.186
887.312	19.999	1236.385	1127.559
888.327	20.054	1235.453	1126.937
889.341	20.053	1234.040	1125.505
890.356	19.888	1233.777	1124.052
891.371	19.860	1233.585	1123.559
892.385	19.961	1232.654	1123.234
893.400	19.878	1231.968	1121.936
894.414	20.074	1230.439	1121.683
895.429	20.175	1229.415	1121.272
896.444	20.766	1228.705	1124.326
897.458	20.976	1228.033	1124.943
898.473	20.579	1226.994	1121.282
899.487	20.360	1225.231	1118.121
900.502	20.168	1223.429	1115.102
901.517	19.900	1222.384	1112.285
902.531	19.963	1221.542	1111.792
903.546	20.101	1220.587	1111.677
904.560	20.139	1219.712	1110.993
905.575	20.019	1219.646	1110.028
906.589	20.097	1218.729	1109.559
907.604	20.188	1218.035	1109.380
