DTS Sentinel unit serial number:	SN409020Multiplexer serial number:	ORYXHardware model number:	OX4-SRSoftware version number:	ORYX F/W v3.00 Oryx Data Collector v3.7.2.0data status	okinstallation	HaddamTimeLapsedifferential loss correction	single-endedforward channel	channel 3reverse channel	N/Adate	2011/06/21time	22:46:16forward acquisition time	30.00reverse acquisition time	0.00gamma	498.7831k internal	0.1754k external	0.1754temperature offset calibration	1.0074default loss term (dB/km)	0.3790temperature slope calibration	1.3530multiplexer offset coefficient	1.0000multiplexer slope coefficient	1.0000fibre end	0.00T internal ref (°C)	23.72T ext. ref 1 (°C)	18.56T ext. ref 2 (°C)	0.04length (m)	temperature (°C)	Stokes	anti-Stokes-747.200	-176.457	0.424	-0.014
-746.185	379.993	0.233	0.638
-745.171	-112.244	-0.069	0.018
-744.156	-114.924	-0.289	-0.073
-743.142	-50.161	-0.213	0.133
-742.127	-200.000	-0.060	0.949
-741.112	800.000	-0.117	0.566
-740.098	141.885	0.101	0.178
-739.083	-27.187	-0.352	0.271
-738.069	-200.000	0.060	0.637
-737.054	233.816	0.084	-0.184
-736.039	-157.110	0.085	-0.007
-735.025	-132.896	0.445	0.074
-734.010	800.000	0.080	0.397
-732.996	0.351	0.141	-0.133
-731.981	-82.234	0.289	-0.124
-730.966	20.746	0.329	0.354
-729.952	-200.000	-0.012	0.266
-728.937	-150.111	0.505	-0.051
-727.923	-134.305	-0.742	-0.120
-726.908	-129.648	-0.646	-0.117
-725.894	800.000	0.114	-0.545
-724.879	-200.000	-0.015	0.131
-723.864	3.085	-0.306	0.294
-722.850	52.107	0.172	0.217
-721.835	-111.976	-0.282	-0.075
-720.821	92.755	-0.055	0.082
-719.806	-35.473	0.263	0.189
-718.791	-55.825	0.185	0.109
-717.777	-200.000	-0.015	0.185
-716.762	-200.000	0.043	-0.374
-715.748	-134.751	-0.245	-0.039
-714.733	-200.000	0.051	0.506
-713.718	800.000	-0.046	0.230
-712.704	-145.365	-0.108	-0.013
-711.689	-3.355	0.189	-0.174
-710.675	254.217	-0.181	-0.412
-709.660	-200.000	0.001	-0.287
-708.645	-39.039	0.423	0.294
-707.631	-131.828	0.127	0.022
-706.616	167.475	-0.233	-0.440
-705.602	-200.000	0.052	0.316
-704.587	-133.628	-0.216	0.035
-703.572	-97.023	-0.140	0.048
-702.558	208.025	-0.354	0.735
-701.543	231.354	-0.147	-0.319
-700.529	122.206	-0.310	0.513
-699.514	-192.483	-0.515	0.006
-698.499	-147.340	0.384	-0.043
-697.485	-139.987	0.483	-0.067
-696.470	-98.334	0.136	-0.046
-695.456	-86.539	0.063	-0.025
-694.441	-54.459	0.266	0.159
-693.426	-159.104	0.678	-0.050
-692.412	-117.517	-0.227	0.054
-691.397	-115.482	-0.495	-0.122
-690.383	10.747	-0.282	0.285
-689.368	534.820	-0.084	0.264
-688.354	-19.410	0.393	0.322
-687.339	-200.000	-0.008	-0.271
-686.324	41.468	-0.293	0.351
-685.310	-200.000	0.024	-0.272
-684.295	46.754	0.085	0.104
-683.281	-13.683	-0.077	0.066
-682.266	-80.094	-0.277	-0.122
-681.251	-17.864	0.290	0.240
-680.237	-200.000	0.041	-0.354
-679.222	207.713	-0.234	0.485
-678.208	203.730	0.144	-0.297
-677.193	-64.995	-0.266	0.141
-676.178	-84.251	-0.250	-0.104
-675.164	-72.260	-0.459	-0.224
-674.149	-66.878	0.471	-0.245
-673.135	-139.682	-0.248	0.035
-672.120	-15.184	0.256	0.217
-671.105	-117.420	-0.268	-0.064
-670.091	-2.948	0.258	-0.238
-669.076	-60.543	-0.180	0.101
-668.062	-20.408	-0.119	0.096
-667.047	-151.584	-0.060	-0.006
-666.032	-87.785	-0.630	-0.250
-665.018	-182.092	0.521	-0.013
-664.003	111.345	-0.157	-0.251
-662.989	178.285	-0.224	-0.434
-661.974	800.000	0.048	0.193
-660.959	28.849	-0.305	-0.341
-659.945	-31.736	0.469	-0.347
-658.930	437.893	0.068	0.196
-657.916	-200.000	0.003	-0.479
-656.901	-200.000	-0.031	0.242
-655.886	-74.414	-0.072	0.034
-654.872	26.298	-0.228	-0.251
-653.857	580.592	-0.062	0.202
-652.843	-0.973	-0.435	0.407
-651.828	-71.300	-0.351	-0.173
-650.814	800.000	0.105	0.437
-649.799	263.626	-0.076	0.175
-648.784	-84.863	0.363	0.150
-647.770	-4.678	-0.355	0.323
-646.755	-143.592	-0.559	0.069
-645.741	-38.862	-0.330	0.229
-644.726	124.178	-0.225	0.375
-643.711	-97.905	0.085	-0.029
-642.697	-139.807	-0.353	-0.049
-641.682	-200.000	0.029	0.413
-640.668	83.916	-0.041	-0.059
-639.653	163.233	0.226	-0.421
-638.638	178.045	-0.119	0.230
-637.624	-60.764	-0.327	-0.182
-636.609	2.643	0.208	-0.199
-635.595	14.019	-0.383	0.394
-634.580	-200.000	0.021	0.204
-633.565	-111.722	0.223	0.059
-632.551	-6.402	0.069	-0.062
-631.536	256.526	0.126	0.286
-630.522	213.263	0.067	0.141
-629.507	-200.000	0.017	0.364
-628.492	-80.188	0.182	-0.080
-627.478	-172.386	-0.599	0.025
-626.463	-162.728	-0.386	-0.025
-625.449	-125.169	0.423	-0.085
-624.434	13.826	0.274	-0.281
-623.419	-151.222	0.435	-0.042
-622.405	-127.349	-0.287	0.055
-621.390	67.629	-0.377	-0.508
-620.376	468.733	0.175	-0.520
-619.361	150.653	-0.223	-0.401
-618.346	143.948	-0.190	-0.335
-617.332	-46.381	-0.293	-0.190
-616.317	-49.740	0.104	-0.065
-615.303	-200.000	-0.010	-0.241
-614.288	199.699	0.069	0.140
-613.273	370.383	0.149	-0.400
-612.259	-112.739	-0.014	0.004
-611.244	-91.864	-0.549	-0.204
-610.230	74.248	-0.151	-0.210
-609.215	241.097	0.174	-0.385
-608.201	-55.199	-0.331	-0.196
-607.186	-52.060	-0.515	-0.314
-606.171	177.082	-0.203	-0.391
-605.157	-131.306	-0.341	-0.059
-604.142	293.042	-0.096	-0.231
-603.128	-189.815	0.288	-0.004
-602.113	14.286	0.079	0.081
-601.098	-143.691	0.214	-0.026
-600.084	-88.562	0.134	-0.052
-599.069	-151.940	0.259	-0.025
-598.055	462.766	0.045	-0.132
-597.040	-95.950	-0.123	-0.043
-596.025	-137.835	-0.343	0.050
-595.011	458.566	0.257	0.758
-593.996	-96.591	0.567	0.196
-592.982	-200.000	0.036	0.343
-591.967	-138.439	0.224	-0.032
-590.952	102.188	0.284	-0.437
-589.938	-200.000	0.037	-0.622
-588.923	-89.022	0.522	0.203
-587.909	-148.910	-0.519	-0.055
-586.894	315.085	0.027	0.067
-585.879	137.766	0.012	0.020
-584.865	69.805	-0.132	0.180
-583.850	-22.964	0.337	0.267
-582.836	-92.140	-0.072	-0.027
-581.821	326.156	0.047	-0.119
-580.806	-30.277	0.442	-0.330
-579.792	-200.000	-0.546	0.000
-578.777	-124.711	-0.136	0.027
-577.763	-12.016	-0.193	0.166
-576.748	712.749	-0.052	-0.184
-575.733	800.000	-0.049	-0.217
-574.719	168.650	-0.019	-0.036
-573.704	211.563	-0.110	-0.228
-572.690	-200.000	-0.018	-0.166
-571.675	-115.092	0.338	-0.084
-570.661	-164.764	0.383	-0.022
-569.646	-64.356	0.296	0.158
-568.631	-88.135	-0.306	0.120
-567.617	800.000	0.097	0.398
-566.602	152.254	-0.174	0.313
-565.588	-200.000	-0.014	0.229
-564.573	-125.817	0.346	-0.068
-563.558	-15.862	-0.105	-0.088
-562.544	-7.433	0.190	-0.169
-561.529	800.000	0.069	0.298
-560.515	800.000	-0.063	0.364
-559.500	336.723	0.092	0.237
-558.485	-186.524	-0.454	-0.008
-557.471	-22.127	0.115	0.091
-556.456	-78.961	-0.160	0.071
-555.442	-16.283	0.212	-0.177
-554.427	-172.147	-0.042	-0.002
-553.412	26.852	-0.261	0.288
-552.398	276.326	-0.186	0.436
-551.383	-93.640	-0.199	-0.072
-550.369	219.611	0.245	-0.519
-549.354	-88.409	0.257	0.101
-548.339	-158.759	0.445	-0.033
-547.325	-97.517	0.276	-0.094
-546.310	-93.783	0.190	0.068
-545.296	150.301	-0.206	-0.368
-544.281	-129.756	-0.326	0.059
-543.266	-200.000	-0.040	0.360
-542.252	49.057	0.299	-0.370
-541.237	491.251	-0.062	0.188
-540.223	296.208	0.181	0.438
-539.208	-200.000	-0.017	0.274
-538.193	-200.000	-0.047	-0.286
-537.179	73.556	-0.234	-0.323
-536.164	-98.184	0.224	0.075
-535.150	-89.106	-0.080	0.031
-534.135	-200.000	-0.034	0.562
-533.121	-173.250	-0.312	0.012
-532.106	-108.460	-0.083	0.023
-531.091	-63.846	-0.284	0.152
-530.077	448.954	0.071	0.206
-529.062	-118.803	-0.170	0.039
-528.048	482.840	0.118	-0.355
-527.033	-0.852	0.117	-0.108
-526.018	25.052	-0.333	0.363
-525.004	73.275	-0.435	0.599
-523.989	-3.801	0.078	-0.071
-522.975	22.825	-0.310	0.334
-521.960	-159.912	0.330	0.023
-520.945	103.091	0.129	-0.198
-519.931	102.211	0.088	0.136
-518.916	-36.055	0.268	0.190
-517.902	101.427	0.277	-0.425
-516.887	-1.512	0.127	-0.118
-515.872	49.007	0.196	0.242
-514.858	18.414	0.178	-0.187
-513.843	-51.717	0.274	0.168
-512.829	-111.177	0.315	0.084
-511.814	-109.465	-0.089	-0.025
-510.799	18.145	0.301	0.315
-509.785	-186.317	0.313	0.006
-508.770	-28.061	0.225	0.171
-507.756	-130.823	0.191	0.033
-506.741	-111.848	-0.047	0.012
-505.726	-87.996	-0.268	0.105
-504.712	178.584	-0.182	-0.351
-503.697	-146.914	-0.117	0.013
-502.683	-120.840	-0.663	-0.146
-501.668	88.356	-0.358	-0.522
-500.653	800.000	0.079	-0.385
-499.639	800.000	-0.082	-0.328
-498.624	-5.390	0.146	0.132
-497.610	800.000	0.099	-0.448
-496.595	-92.922	0.456	-0.166
-495.581	-126.105	-0.278	-0.054
-494.566	800.000	0.071	-0.341
-493.551	-200.000	0.039	0.256
-492.537	336.897	0.218	-0.558
-491.522	-76.837	-0.380	-0.174
-490.508	7.055	0.135	0.133
-489.493	160.964	0.096	-0.177
-488.478	29.293	-0.284	0.316
-487.464	-109.978	0.081	0.022
-486.449	-125.734	-0.247	0.049
-485.435	-152.545	0.088	-0.008
-484.420	-53.357	0.497	0.298
-483.405	-12.383	-0.431	0.369
-482.391	-1.790	0.309	0.286
-481.376	-23.161	-0.230	0.182
-480.362	-62.625	-0.099	0.053
-479.347	264.563	-0.238	-0.546
-478.332	-65.404	-0.213	-0.112
-477.318	64.374	0.086	-0.114
-476.303	104.952	0.170	-0.264
-475.289	585.053	0.137	-0.444
-474.274	691.793	0.061	-0.210
-473.259	-19.921	-0.231	0.187
-472.245	-170.607	-0.220	0.010
-471.230	384.324	0.121	-0.328
-470.216	207.303	0.110	-0.225
-469.201	-6.860	-0.525	0.468
-468.186	-200.000	0.027	0.297
-467.172	184.839	0.201	0.393
-466.157	-0.073	0.373	0.348
-465.143	-29.043	0.327	0.246
-464.128	209.506	0.015	0.031
-463.113	592.117	-0.147	0.477
-462.099	-153.902	0.237	-0.021
-461.084	188.959	-0.369	-0.726
-460.070	-147.332	-0.310	-0.034
-459.055	-7.252	0.326	0.290
-458.040	698.185	-0.113	-0.393
-457.026	-200.000	0.106	0.693
-456.011	145.638	0.031	0.055
-454.997	-29.464	-0.392	0.293
-453.982	-104.991	-0.037	-0.011
-452.968	54.205	0.119	0.150
-451.953	226.963	0.097	0.207
-450.938	800.000	0.052	-0.286
-449.924	-56.178	0.563	-0.327
-448.909	-143.635	0.482	-0.059
-447.895	330.389	-0.185	-0.469
-446.880	147.086	-0.100	0.177
-445.865	-200.000	0.002	0.069
-444.851	-119.415	0.237	0.053
-443.836	313.739	0.122	-0.301
-442.822	-57.316	0.265	0.152
-441.807	800.000	-0.069	-0.311
-440.792	50.197	0.227	-0.281
-439.778	127.885	0.192	0.320
-438.763	-108.800	-0.302	-0.084
-437.749	-67.927	-0.563	0.287
-436.734	-200.000	-0.063	-0.643
-435.719	-200.000	0.019	-0.436
-434.705	107.922	-0.416	-0.651
-433.690	17.463	-0.282	0.293
-432.676	-104.729	0.215	-0.064
-431.661	193.848	-0.135	-0.268
-430.646	-137.599	-0.234	0.034
-429.632	275.893	-0.206	-0.481
-428.617	-141.057	0.027	-0.004
-427.603	-103.649	0.432	-0.132
-426.588	-73.661	0.370	0.176
-425.573	-133.288	0.272	-0.045
-424.559	-200.000	0.005	-0.313
-423.544	-91.635	-0.136	-0.050
-422.530	-200.000	0.046	-0.545
-421.515	159.639	0.230	-0.420
-420.500	492.425	0.100	-0.302
-419.486	-151.693	-0.088	0.008
-418.471	-200.000	-0.061	0.418
-417.457	-15.929	-0.465	-0.387
-416.442	469.919	-0.066	-0.196
-415.428	-200.000	0.046	-0.278
-414.413	500.099	-0.162	0.491
-413.398	-58.889	-0.274	0.155
-412.384	-200.000	-0.048	-0.425
-411.369	63.973	-0.126	0.166
-410.355	-101.277	-0.372	-0.118
-409.340	-151.324	-0.620	0.060
-408.325	-2.545	-0.104	0.095
-407.311	-71.611	0.412	0.200
-406.296	413.872	-0.023	-0.065
-405.282	-134.147	0.576	-0.092
-404.267	-154.902	0.210	0.018
-403.252	-113.350	0.516	-0.132
-402.238	-151.372	-0.458	-0.044
-401.223	-200.000	0.059	0.435
-400.209	-156.799	0.066	-0.005
-399.194	-194.426	0.349	0.004
-398.179	-200.000	-0.026	-0.234
-397.165	-200.000	-0.019	0.122
-396.150	-4.249	-0.413	0.373
-395.136	-4.002	-0.057	0.052
-394.121	-200.000	-0.039	-0.352
-393.106	6.526	-0.171	0.166
-392.092	-200.000	0.044	0.367
-391.077	-12.061	-0.409	-0.350
-390.063	419.356	-0.141	-0.396
-389.048	-200.000	0.023	-0.238
-388.033	81.372	-0.193	0.273
-387.019	-102.559	-0.040	-0.012
-386.004	761.745	-0.103	0.368
-384.990	-34.553	0.269	-0.192
-383.975	445.083	0.116	0.333
-382.960	471.165	0.243	0.718
-381.946	-187.650	0.159	0.003
-380.931	-180.426	0.425	0.011
-379.917	-27.842	0.228	0.173
-378.902	800.000	-0.055	0.235
-377.888	800.000	0.136	0.560
-376.873	-65.696	0.200	0.105
-375.858	-1.439	0.441	-0.406
-374.844	473.125	0.076	-0.225
-373.829	94.264	0.283	0.421
-372.815	-8.163	-0.289	0.254
-371.800	-46.552	-0.172	0.110
-370.785	-64.060	-0.123	0.065
-369.771	118.395	0.041	0.067
-368.756	-136.683	-0.336	0.050
-367.742	-107.541	0.251	0.071
-366.727	99.427	-0.174	-0.263
-365.712	331.554	0.172	0.437
-364.698	-200.000	-0.010	-0.196
-363.683	-200.000	-0.037	-0.322
-362.669	-88.284	-0.186	-0.072
-361.654	-110.096	-0.735	-0.199
-360.639	-173.743	-0.305	0.012
-359.625	448.620	-0.094	0.273
-358.610	-70.103	0.352	-0.174
-357.596	-113.010	0.333	-0.085
-356.581	158.065	-0.133	-0.242
-355.566	67.371	0.160	0.213
-354.552	-194.866	0.279	0.003
-353.537	-200.000	-0.063	0.594
-352.523	-22.136	0.066	-0.052
-351.508	435.003	-0.089	-0.254
-350.493	-36.283	-0.151	-0.106
-349.479	-128.387	-0.157	-0.029
-348.464	365.963	0.063	-0.167
-347.450	800.000	-0.069	-0.392
-346.435	148.068	0.049	0.086
-345.420	-69.739	-0.334	0.166
-344.406	-85.450	-0.162	0.066
-343.391	-12.595	0.197	-0.167
-342.377	-129.755	0.322	0.057
-341.362	-94.052	-0.283	0.101
-340.348	194.588	0.066	-0.131
-339.333	47.149	-0.170	-0.206
-338.318	-150.537	0.401	-0.040
-337.304	9.024	0.147	-0.144
-336.289	121.436	-0.012	0.020
-335.275	-200.000	-0.004	-0.285
-334.260	3.573	-0.251	0.238
-333.245	-200.000	-0.059	0.813
-332.231	157.121	0.080	0.146
-331.216	87.999	0.393	0.569
-330.202	-8.338	0.284	0.249
-329.187	-57.545	-0.604	-0.344
-328.172	-53.390	-0.197	-0.117
-327.158	714.144	-0.017	-0.061
-326.143	-11.261	0.262	-0.225
-325.129	-34.084	-0.330	-0.236
-324.114	-162.624	0.171	0.011
-323.099	-102.457	0.172	-0.053
-322.085	-41.908	0.121	0.081
-321.070	-200.000	-0.049	0.343
-320.056	11.673	0.106	0.106
-319.041	-200.000	0.086	-0.649
-318.026	800.000	-0.143	-0.681
-317.012	54.420	0.171	-0.215
-315.997	74.706	-0.271	0.373
-314.983	-200.000	0.078	0.565
-313.968	-38.128	-0.183	-0.126
-312.953	-58.544	-0.197	0.111
-311.939	-117.598	-0.451	0.105
-310.924	340.772	-0.099	0.253
-309.910	300.403	0.121	0.293
-308.895	-148.873	0.254	-0.026
-307.880	-116.651	0.311	0.074
-306.866	-200.000	0.046	0.271
-305.851	162.182	0.210	-0.385
-304.837	-192.057	0.112	0.001
-303.822	3.605	0.045	0.043
-302.807	-55.167	-0.328	0.192
-301.793	-125.781	0.021	-0.004
-300.778	-78.874	-0.202	-0.089
-299.764	-35.551	-0.210	0.148
-298.749	66.041	-0.136	0.180
-297.735	-155.924	-0.440	-0.036
-296.720	112.356	0.229	-0.361
-295.705	-97.091	-0.014	-0.005
-294.691	-2.766	-0.409	0.372
-293.676	-66.076	-0.269	-0.139
-292.662	45.433	0.269	-0.323
-291.647	-120.367	0.224	0.049
-290.632	-200.000	-0.004	-0.568
-289.618	317.706	-0.075	-0.185
-288.603	-80.330	-0.143	0.062
-287.589	-23.302	-0.077	0.060
-286.574	-48.468	0.153	0.096
-285.559	340.735	0.242	0.619
-284.545	800.000	0.132	0.615
-283.530	74.707	-0.218	0.299
-282.516	-200.000	0.026	0.318
-281.501	-59.263	0.311	0.174
-280.486	-122.541	-0.365	0.076
-279.472	-158.702	-0.334	-0.025
-278.457	60.404	-0.291	-0.376
-277.443	-200.000	-0.015	0.137
-276.428	-154.119	-0.339	0.030
-275.413	13.127	-0.237	-0.239
-274.399	-88.339	0.558	0.216
-273.384	-200.000	-0.004	-0.032
-272.370	14.174	0.434	-0.440
-271.355	431.956	-0.039	0.110
-270.340	800.000	0.114	0.455
-269.326	56.491	-0.156	0.198
-268.311	800.000	0.043	-0.235
-267.297	51.962	0.137	0.170
-266.282	-85.827	-0.161	-0.065
-265.267	-200.000	-0.005	0.061
-264.253	-156.512	0.593	-0.047
-263.238	2.929	0.391	-0.369
-262.224	-200.000	-0.028	-0.418
-261.209	42.496	0.299	-0.354
-260.195	-37.135	-0.161	-0.112
-259.180	-49.775	-0.166	-0.102
-258.165	49.526	-0.159	-0.195
-257.151	-200.000	-0.017	0.121
-256.136	-32.992	0.321	-0.231
-255.122	84.924	0.154	0.220
-254.107	93.112	0.236	0.348
-253.092	723.768	0.057	-0.197
-252.078	335.261	0.192	-0.486
-251.063	-200.000	0.024	-0.468
-250.049	-200.000	-0.045	-0.406
-249.034	800.000	0.063	0.316
-248.019	-200.000	-0.023	-0.193
-247.005	-132.628	-0.276	0.046
-245.990	768.635	0.121	0.431
-244.976	56.931	0.418	0.530
-243.961	-43.999	0.374	0.243
-242.946	-159.559	0.359	-0.026
-241.932	75.167	0.313	-0.429
-240.917	2.960	-0.245	0.231
-239.903	88.599	0.082	-0.119
-238.888	4.099	0.273	0.259
-237.873	-32.775	0.538	-0.388
-236.859	41.635	0.225	-0.265
-235.844	-53.550	0.133	-0.079
-234.830	-35.066	0.274	0.194
-233.815	-62.471	0.114	-0.061
-232.800	768.056	0.140	0.498
-231.786	-144.997	-0.046	-0.005
-230.771	-18.843	0.148	0.120
-229.757	-10.849	-0.204	0.175
-228.742	6.913	-0.100	0.097
-227.727	-113.856	-0.107	-0.027
-226.713	-148.974	-0.088	-0.009
-225.698	-200.000	-0.002	0.011
-224.684	318.322	-0.045	-0.110
-223.669	-22.416	0.371	0.292
-222.655	-134.646	-0.137	-0.021
-221.640	-93.711	0.217	0.077
-220.625	20.391	-0.165	-0.173
-219.611	-63.076	0.106	0.057
-218.596	534.376	0.090	0.279
-217.582	-81.847	0.028	-0.012
-216.567	-40.667	0.089	0.060
-215.552	-175.472	-0.126	-0.004
-214.538	235.542	-0.125	0.268
-213.523	26.583	0.243	-0.265
-212.509	-64.794	0.498	-0.261
-211.494	-3.584	-0.167	0.151
-210.479	-161.608	-0.538	-0.035
-209.465	478.195	0.107	0.316
-208.450	800.000	-0.070	0.266
-207.436	-200.000	-0.005	0.155
-206.421	800.000	0.023	0.127
-205.406	32.363	0.279	0.312
-204.392	501.110	-0.043	0.129
-203.377	-67.790	-0.247	0.125
-202.363	-51.326	-0.309	-0.187
-201.348	379.152	0.201	0.536
-200.333	-3.489	-0.206	-0.186
-199.319	61.434	0.142	0.183
-198.304	172.134	0.146	-0.272
-197.290	183.105	-0.184	-0.353
-196.275	12.116	-0.070	0.069
-195.260	149.506	-0.149	-0.262
-194.246	-200.000	-0.008	-0.047
-193.231	-200.000	-0.027	0.320
-192.217	373.322	0.046	0.121
-191.202	284.403	0.071	-0.166
-190.187	-200.000	0.035	0.291
-189.173	-4.630	0.135	0.120
-188.158	-95.692	-0.188	0.065
-187.144	147.826	0.131	-0.231
-186.129	-172.244	0.291	-0.012
-185.114	800.000	0.109	0.502
-184.100	-163.622	0.100	0.006
-183.085	425.623	0.086	-0.241
-182.071	-126.728	-0.112	0.021
-181.056	112.728	-0.199	-0.313
-180.042	74.893	-0.157	0.214
-179.027	96.664	0.102	0.152
-178.012	85.735	-0.274	0.391
-176.998	-200.000	-0.034	-0.293
-175.983	-200.000	-0.001	-0.157
-174.969	-94.076	0.197	0.070
-173.954	130.453	0.133	0.221
-172.939	-117.417	-0.196	0.046
-171.925	-101.099	-0.321	-0.101
-170.910	-57.558	-0.443	0.251
-169.896	-200.000	0.035	-0.381
-168.881	1.778	-0.358	-0.334
-167.866	9.317	-0.125	-0.122
-166.852	122.588	0.092	-0.149
-165.837	-200.000	0.072	0.428
-164.823	-62.175	-0.045	0.024
-163.808	-154.718	-0.506	0.043
-162.793	-87.344	-0.465	-0.182
-161.779	-57.472	0.484	0.274
-160.764	800.000	0.069	-0.368
-159.750	-18.552	-0.245	-0.198
-158.735	-65.725	0.204	0.105
-157.720	-49.041	-0.190	-0.118
-156.706	-186.045	-0.288	-0.005
-155.691	82.840	0.249	-0.352
-154.677	-70.955	-0.408	0.198
-153.662	-200.000	-0.008	-0.097
-152.647	12.619	-0.014	-0.014
-151.633	-152.030	0.114	0.011
-150.618	99.984	-0.127	-0.192
-149.604	-62.334	0.739	0.397
-148.589	34.135	0.276	0.312
-147.574	58.545	-0.076	0.096
-146.560	-123.456	0.327	0.067
-145.545	-86.870	0.238	-0.094
-144.531	-24.760	0.104	0.080
-143.516	-74.046	-0.167	0.078
-142.502	-175.854	0.468	-0.016
-141.487	21.664	0.298	-0.314
-140.472	-19.874	0.023	-0.018
-139.458	-11.201	-0.623	-0.531
-138.443	800.000	0.105	-0.461
-137.429	-200.000	-0.050	-0.637
-136.414	-200.000	-0.040	-0.234
-135.399	-31.532	-0.331	-0.241
-134.385	277.798	-0.271	-0.627
-133.370	4.422	-0.371	0.352
-132.356	-200.000	0.020	-0.423
-131.341	-14.553	0.335	-0.279
-130.326	39.826	0.184	-0.214
-129.312	800.000	0.052	0.200
-128.297	-56.101	0.259	-0.149
-127.283	4.859	-0.071	-0.068
-126.268	181.540	-0.215	0.411
-125.253	-18.363	0.159	-0.128
-124.239	-200.000	-0.083	0.698
-123.224	99.014	-0.205	0.308
-122.210	-200.000	0.030	0.559
-121.195	-151.971	-0.131	-0.012
-120.180	-145.046	-0.456	-0.053
-119.166	44.618	-0.061	-0.073
-118.151	-200.000	-0.412	0.002
-117.137	-127.242	-0.174	-0.033
-116.122	-97.746	0.480	0.160
-115.107	800.000	0.108	0.433
-114.093	-200.000	0.035	-0.255
-113.078	-109.227	-0.231	-0.063
-112.064	-88.729	-0.086	-0.033
-111.049	199.980	0.150	0.298
-110.034	-46.931	-0.174	-0.110
-109.020	-41.995	0.111	-0.074
-108.005	-1.805	0.443	-0.403
-106.991	800.000	0.069	-0.283
-105.976	-124.133	0.060	-0.012
-104.962	-126.252	0.098	0.019
-103.947	2.817	0.436	0.409
-102.932	-155.624	-0.504	0.041
-101.918	-59.199	-0.334	0.185
-100.903	-175.965	0.289	-0.010
-99.889	200.989	0.307	0.612
-98.874	98.226	-0.009	-0.013
-97.859	-90.002	-0.132	0.049
-96.845	248.810	0.145	-0.318
-95.830	800.000	-0.102	-0.467
-94.816	-38.757	-0.323	-0.219
-93.801	263.823	-0.105	-0.237
-92.786	64.679	-0.045	-0.058
-91.772	678.140	0.168	0.569
-90.757	-170.601	-0.300	-0.013
-89.743	190.050	-0.158	0.308
-88.728	634.309	-0.148	0.488
-87.713	800.000	-0.156	0.656
-86.699	24.380	0.112	0.119
-85.684	10.475	0.252	-0.248
-84.670	-130.982	-0.394	-0.067
-83.655	102.147	0.087	-0.132
-82.640	100.723	-0.082	0.123
-81.626	800.000	-0.106	0.549
-80.611	-153.701	0.229	0.020
-79.597	-114.092	0.303	-0.075
-78.582	-35.220	-0.092	-0.065
-77.567	-117.060	-0.158	0.037
-76.553	-80.593	0.085	-0.036
-75.538	129.850	0.220	-0.364
-74.524	61.816	0.100	0.128
-73.509	307.572	0.071	0.172
-72.494	-200.000	-0.025	0.242
-71.480	79.066	-0.226	0.313
-70.465	29.048	-0.403	-0.442
-69.451	-200.000	0.034	-0.273
-68.436	124.641	0.095	0.154
-67.422	310.833	-0.112	0.273
-66.407	87.427	0.423	-0.605
-65.392	800.000	-0.045	0.221
-64.378	-52.434	-0.285	0.170
-63.363	497.161	-0.088	-0.262
-62.349	-152.463	-0.346	-0.032
-61.334	25.275	-2.160	-2.317
-60.319	15.635	1.191	1.208
-59.305	215.129	-3.659	-7.516
-58.290	88.239	3.605	5.173
-57.276	347.276	4.035	10.301
-56.261	-200.000	22.315	314.248
-55.246	361.707	1293.621	3363.350
-54.232	53.219	2847.847	3523.297
-53.217	52.078	2666.303	3280.930
-52.203	33.104	2395.782	2680.721
-51.188	28.860	2061.903	2254.836
-50.173	25.548	1946.359	2089.775
-49.159	24.504	1934.872	2065.238
-48.144	24.047	1931.612	2056.359
-47.130	23.972	1928.347	2051.937
-46.115	23.948	1927.190	2050.344
-45.100	23.935	1926.180	2049.040
-44.086	23.946	1924.164	2046.946
-43.071	23.920	1923.100	2045.427
-42.057	23.960	1920.751	2043.314
-41.042	23.900	1920.173	2041.924
-40.027	23.922	1919.217	2041.083
-39.013	24.000	1916.219	2038.703
-37.998	23.861	1915.193	2035.940
-36.984	23.901	1913.387	2034.392
-35.969	23.826	1912.750	2032.778
-34.954	23.925	1911.393	2032.383
-33.940	23.863	1909.971	2030.082
-32.925	23.828	1909.155	2028.737
-31.911	23.971	1906.995	2028.001
-30.896	23.789	1906.651	2025.462
-29.881	23.898	1904.493	2024.343
-28.867	23.776	1903.894	2022.230
-27.852	23.790	1903.208	2021.579
-26.838	23.643	1900.723	2017.177
-25.823	23.747	1899.115	2016.582
-24.809	23.763	1898.076	2015.579
-23.794	23.720	1897.270	2014.157
-22.779	23.719	1896.538	2013.285
-21.765	23.729	1894.189	2010.830
-20.750	23.678	1893.251	2009.165
-19.736	23.694	1892.257	2008.218
-18.721	23.655	1890.970	2006.324
-17.706	23.632	1889.509	2004.443
-16.692	23.685	1888.303	2003.675
-15.677	23.658	1886.925	2001.831
-14.663	23.592	1885.854	1999.867
-13.648	23.635	1884.232	1998.551
-12.633	23.461	1883.751	1995.997
-11.619	23.624	1882.408	1996.339
-10.604	23.535	1881.730	1994.533
-9.590	23.604	1879.967	1993.367
-8.575	23.697	1878.001	1992.256
-7.560	23.681	1876.643	1990.549
-6.546	23.537	1875.893	1988.056
-5.531	23.531	1875.100	1987.068
-4.517	23.597	1873.020	1985.525
-3.502	23.550	1873.191	1985.098
-2.487	23.640	1871.654	1984.408
-1.473	23.772	1867.844	1981.763
-0.458	23.351	1849.744	1957.811
0.556	19.686	1994.957	2055.426
1.571	18.134	2199.555	2245.490
2.586	18.849	2238.698	2294.773
3.600	18.902	2241.085	2297.660
4.615	18.811	2240.221	2295.269
5.629	18.918	2238.534	2294.711
6.644	18.855	2236.098	2291.090
7.659	18.886	2233.630	2288.699
8.673	18.823	2232.920	2286.854
9.688	18.635	2241.676	2293.029
10.702	17.791	2321.476	2362.618
11.717	16.277	2385.260	2405.573
12.731	7.720	2365.809	2263.645
13.746	1.121	2348.299	2152.655
14.761	0.140	2344.656	2135.071
15.775	-0.001	2342.440	2130.791
16.790	0.089	2341.214	2130.711
17.804	0.062	2339.967	2128.929
18.819	0.082	2338.447	2127.574
19.834	0.035	2336.895	2125.248
20.848	0.054	2335.253	2123.765
21.863	0.144	2333.070	2122.803
22.877	0.065	2331.303	2119.824
23.892	-0.056	2329.651	2116.357
24.907	0.079	2326.118	2114.804
25.921	0.004	2325.368	2112.807
26.936	-0.059	2323.834	2110.261
27.950	-0.009	2320.502	2107.694
28.965	-0.002	2318.849	2106.045
29.980	0.073	2316.495	2104.702
30.994	0.170	2314.964	2104.421
32.009	4.009	2326.638	2168.923
33.023	13.318	2353.436	2325.743
34.038	17.250	2360.172	2387.753
35.053	17.386	2356.950	2386.130
36.067	17.265	2354.584	2381.752
37.082	17.152	2352.548	2377.819
38.096	17.259	2351.632	2378.100
39.111	17.557	2348.446	2378.782
40.126	17.807	2346.292	2379.827
41.140	17.806	2345.794	2379.014
42.155	17.698	2344.345	2375.753
43.169	17.678	2342.320	2373.131
44.184	17.520	2338.528	2366.803
45.199	17.518	2336.434	2364.374
46.213	17.575	2336.225	2364.672
47.228	17.582	2335.647	2363.907
48.242	17.676	2333.429	2362.679
49.257	17.786	2331.007	2361.479
50.271	17.882	2328.897	2360.393
51.286	17.696	2325.544	2354.128
52.301	17.306	2323.981	2346.863
53.315	18.145	2327.390	2361.671
54.330	21.204	2335.768	2412.437
55.344	23.161	2337.097	2440.684
56.359	23.412	2334.512	2441.168
57.374	23.600	2333.467	2442.384
58.388	23.645	2330.498	2439.607
59.403	23.355	2326.911	2431.558
60.417	22.995	2322.891	2422.104
61.432	23.155	2321.036	2422.086
62.447	23.265	2320.468	2422.716
63.461	23.456	2319.111	2423.636
64.476	23.641	2317.010	2423.690
65.490	23.276	2315.100	2416.395
66.505	22.460	2310.651	2400.292
67.520	20.173	2302.296	2360.067
68.534	17.991	2293.413	2320.919
69.549	17.422	2288.380	2307.789
70.563	17.389	2286.012	2304.679
71.578	17.218	2285.558	2301.612
72.593	17.498	2282.415	2301.971
73.607	17.488	2282.215	2301.369
74.622	17.475	2280.409	2299.094
75.636	17.441	2276.698	2294.611
76.651	17.327	2275.170	2291.255
77.666	17.275	2272.925	2288.020
78.680	17.309	2269.662	2284.916
79.695	17.135	2268.099	2280.719
80.709	16.939	2266.711	2276.408
81.724	16.965	2264.175	2273.941
82.739	17.044	2261.635	2272.181
83.753	16.920	2260.561	2269.159
84.768	16.798	2258.409	2265.087
85.782	16.815	2257.442	2264.078
86.797	16.747	2254.988	2260.427
87.812	16.921	2252.967	2260.473
88.826	17.004	2250.889	2259.226
89.841	17.048	2248.475	2257.116
90.855	17.073	2245.322	2254.017
91.870	16.950	2245.163	2251.944
92.884	17.004	2243.547	2250.779
93.899	17.169	2242.090	2251.246
94.914	17.977	2245.031	2264.704
95.928	20.422	2253.406	2305.536
96.943	21.391	2251.967	2316.700
97.957	18.681	2240.766	2268.935
98.972	17.118	2232.816	2239.916
99.987	16.927	2230.342	2234.638
101.001	16.972	2228.217	2232.831
102.016	16.967	2225.502	2229.772
103.030	16.900	2223.793	2226.914
104.045	16.918	2221.642	2224.729
105.060	16.912	2219.022	2221.766
106.074	16.844	2218.234	2219.805
107.089	16.899	2216.631	2218.663
108.103	16.985	2214.689	2217.581
109.118	17.129	2213.558	2218.079
110.133	17.220	2212.585	2218.037
111.147	17.053	2210.136	2213.124
112.162	17.038	2208.826	2211.348
113.176	17.168	2207.052	2211.010
114.191	17.378	2205.310	2211.749
115.206	17.382	2203.570	2209.784
116.220	17.222	2201.573	2205.434
117.235	17.294	2199.486	2204.019
118.249	17.393	2196.909	2202.459
119.264	17.340	2196.467	2201.060
120.279	17.297	2194.238	2198.013
121.293	17.242	2193.769	2196.563
122.308	17.253	2192.516	2195.189
123.322	17.290	2190.239	2193.127
124.337	17.700	2191.996	2199.934
125.352	20.512	2200.097	2244.358
126.366	21.238	2197.136	2250.480
127.381	18.496	2186.135	2203.554
128.395	17.381	2180.821	2183.556
129.410	17.153	2178.373	2177.910
130.424	17.138	2177.123	2176.199
131.439	17.123	2175.510	2174.144
132.454	17.198	2174.408	2173.742
133.468	17.357	2173.042	2174.163
134.483	17.583	2171.071	2174.827
135.497	17.635	2168.457	2172.618
136.512	17.495	2166.629	2168.730
137.527	17.314	2164.816	2164.337
138.541	17.109	2163.291	2159.932
139.556	17.141	2162.029	2158.821
140.570	17.047	2160.681	2156.022
141.585	16.967	2158.272	2152.342
142.600	16.827	2157.406	2149.433
143.614	16.861	2155.051	2147.261
144.629	16.703	2153.802	2143.744
145.643	16.651	2152.603	2141.633
146.658	16.739	2150.441	2140.353
147.673	16.653	2147.567	2136.136
148.687	16.720	2146.374	2135.542
149.702	16.960	2145.903	2137.867
150.716	16.904	2145.619	2136.619
151.731	16.957	2143.977	2135.399
152.746	17.030	2143.662	2135.745
153.760	17.873	2146.034	2148.535
154.775	20.734	2154.346	2192.878
155.789	21.744	2151.884	2202.873
156.804	18.849	2141.305	2155.330
157.819	17.070	2133.572	2124.930
158.833	16.885	2129.973	2118.771
159.848	16.843	2128.196	2116.212
160.862	16.913	2127.981	2116.625
161.877	17.021	2126.341	2116.094
162.892	17.187	2125.087	2116.678
163.906	17.153	2124.575	2115.483
164.921	17.139	2122.116	2112.607
165.935	17.008	2120.005	2108.618
166.950	17.295	2118.769	2110.720
167.964	17.278	2116.476	2107.973
168.979	16.962	2114.648	2101.959
169.994	16.987	2112.157	2099.545
171.008	16.784	2111.002	2095.626
172.023	16.813	2109.625	2094.368
173.037	17.015	2108.601	2095.610
174.052	17.060	2107.056	2094.379
175.067	17.138	2106.044	2094.089
176.081	17.028	2104.511	2090.946
177.096	17.139	2102.444	2090.018
178.110	17.102	2102.002	2088.878
179.125	17.272	2100.036	2088.764
180.140	17.228	2098.122	2086.074
181.154	17.207	2097.908	2085.350
182.169	17.428	2097.890	2087.811
183.183	18.289	2099.299	2099.580
184.198	21.443	2106.605	2145.591
185.213	21.903	2104.576	2148.936
186.227	18.806	2093.968	2099.851
187.242	17.627	2089.815	2080.974
188.256	17.316	2087.683	2074.787
189.271	17.130	2086.179	2070.755
190.286	17.191	2084.054	2069.151
191.300	17.236	2081.218	2066.635
192.315	17.292	2080.390	2066.252
193.329	17.426	2079.345	2066.605
194.344	17.676	2077.858	2067.928
195.359	17.731	2076.841	2067.334
196.373	17.329	2074.621	2059.983
197.388	17.308	2070.869	2055.764
198.402	17.102	2069.047	2051.205
199.417	16.868	2067.324	2046.410
200.432	17.031	2066.414	2047.246
201.446	17.141	2064.356	2046.295
202.461	16.957	2062.241	2041.717
203.475	16.870	2061.093	2039.289
204.490	16.915	2058.974	2037.493
205.504	16.924	2056.547	2034.957
206.519	16.936	2054.726	2033.053
207.534	16.892	2053.057	2030.627
208.548	16.943	2052.258	2030.206
209.563	16.990	2051.971	2030.248
210.577	17.119	2051.156	2030.754
211.592	17.179	2050.115	2030.195
212.607	18.592	2055.216	2052.006
213.621	22.053	2063.023	2101.253
214.636	21.436	2056.910	2087.375
215.650	18.164	2046.060	2037.014
216.665	17.259	2042.423	2022.323
217.680	17.182	2040.426	2019.190
218.694	17.038	2038.792	2015.610
219.709	16.922	2036.760	2011.980
220.723	17.074	2036.009	2012.809
221.738	17.346	2033.687	2013.508
222.753	17.374	2033.122	2013.043
223.767	17.234	2031.126	2009.159
224.782	17.222	2029.416	2007.079
225.796	17.229	2027.122	2004.651
226.811	17.201	2026.624	2003.588
227.826	17.284	2025.255	2002.979
228.840	17.382	2022.826	2001.495
229.855	17.220	2021.996	1998.526
230.869	17.244	2020.754	1997.336
231.884	17.164	2018.778	1994.205
232.899	17.203	2017.857	1993.516
233.913	17.268	2016.059	1992.261
234.928	17.197	2016.179	1991.309
235.942	17.111	2014.422	1988.319
236.957	17.252	2011.475	1986.838
237.972	17.408	2010.201	1987.172
238.986	17.303	2009.516	1985.016
240.001	17.258	2008.543	1983.292
241.015	17.378	2007.535	1983.467
242.030	18.279	2009.687	1995.925
243.045	21.064	2015.481	2034.130
244.059	21.471	2012.481	2035.615
245.074	18.601	2002.516	1991.840
246.088	17.680	1999.273	1977.645
247.103	17.739	1997.721	1976.564
248.117	17.739	1995.413	1974.045
249.132	17.583	1993.903	1970.502
250.147	17.319	1992.687	1965.993
251.161	17.497	1991.097	1966.257
252.176	17.834	1989.633	1968.477
253.190	18.115	1988.069	1969.953
254.205	18.141	1987.002	1968.962
255.220	18.038	1985.889	1966.428
256.234	17.881	1984.571	1963.071
257.249	17.589	1982.980	1957.893
258.263	17.669	1981.914	1957.528
259.278	17.798	1979.920	1956.814
260.293	17.367	1977.749	1949.468
261.307	17.111	1974.390	1942.982
262.322	16.940	1973.461	1939.874
263.336	16.850	1971.376	1936.551
264.351	16.885	1969.150	1934.541
265.366	16.896	1967.788	1933.088
266.380	16.824	1967.600	1931.853
267.395	16.900	1966.323	1931.243
268.409	16.767	1964.956	1928.141
269.424	16.947	1962.830	1927.886
270.439	17.113	1962.800	1929.512
271.453	18.038	1966.334	1943.342
272.468	21.192	1971.786	1984.586
273.482	21.310	1967.629	1981.508
274.497	18.340	1956.924	1936.779
275.512	17.158	1952.910	1919.155
276.526	16.899	1950.283	1913.411
277.541	16.857	1948.838	1911.283
278.555	16.692	1947.488	1907.866
279.570	16.831	1944.992	1906.762
280.585	16.940	1944.064	1906.853
281.599	17.071	1942.616	1906.685
282.614	17.242	1942.764	1908.534
283.628	17.656	1942.544	1912.761
284.643	17.921	1942.263	1915.249
285.657	18.018	1941.727	1915.579
286.672	17.855	1939.981	1911.792
287.687	17.858	1938.406	1910.041
288.701	17.836	1936.548	1907.742
289.716	17.805	1935.335	1905.967
290.730	17.964	1932.888	1905.111
291.745	17.907	1931.722	1903.098
292.760	17.902	1931.539	1902.634
293.774	17.836	1930.553	1900.691
294.789	17.867	1928.830	1899.120
295.803	17.564	1926.126	1892.843
296.818	17.543	1924.838	1891.114
297.833	17.648	1924.084	1891.317
298.847	17.695	1922.012	1889.576
299.862	17.575	1920.832	1886.854
300.876	18.358	1922.670	1897.165
301.891	21.396	1929.587	1937.648
302.906	21.701	1926.857	1938.076
303.920	18.698	1917.740	1895.392
304.935	17.764	1914.653	1881.764
305.949	17.698	1911.718	1877.913
306.964	17.605	1909.948	1874.927
307.979	17.795	1908.663	1875.540
308.993	17.950	1907.900	1876.281
310.008	18.172	1906.267	1876.894
311.022	18.118	1905.049	1874.872
312.037	17.990	1903.035	1871.258
313.052	17.970	1902.303	1870.097
314.066	18.186	1900.667	1870.641
315.081	18.349	1900.097	1871.651
316.095	18.244	1897.837	1868.040
317.110	17.990	1895.626	1862.864
318.125	17.769	1893.800	1858.418
319.139	17.583	1892.910	1855.288
320.154	17.827	1891.041	1855.903
321.168	17.588	1889.387	1851.451
322.183	17.337	1887.055	1846.209
323.197	17.118	1885.468	1842.037
324.212	16.960	1883.194	1837.879
325.227	16.777	1881.902	1834.411
326.241	16.862	1880.120	1833.372
327.256	16.907	1878.625	1832.185
328.270	16.751	1878.572	1830.218
329.285	16.863	1878.882	1831.514
330.300	18.021	1883.520	1848.424
331.314	21.489	1888.984	1891.316
332.329	21.357	1883.900	1884.571
333.343	18.140	1874.169	1839.875
334.358	17.055	1869.928	1823.774
335.373	16.860	1868.387	1819.944
336.387	16.715	1865.653	1815.501
337.402	16.732	1864.619	1814.468
338.416	16.868	1864.090	1815.197
339.431	16.952	1863.079	1814.897
340.446	17.034	1861.220	1813.752
341.460	17.165	1860.568	1814.307
342.475	17.715	1859.252	1818.706
343.489	17.889	1858.129	1819.254
344.504	17.855	1857.474	1818.027
345.519	18.482	1857.228	1824.281
346.533	19.214	1856.766	1831.435
347.548	19.010	1855.255	1827.540
348.562	18.821	1853.746	1823.826
349.577	18.598	1852.086	1819.593
350.592	18.368	1850.574	1815.437
351.606	18.239	1849.468	1812.768
352.621	18.280	1847.060	1810.626
353.635	17.967	1845.694	1805.746
354.650	17.802	1843.622	1801.751
355.665	17.769	1841.488	1799.096
356.679	17.676	1840.574	1796.997
357.694	17.677	1838.723	1794.988
358.708	17.486	1837.809	1791.867
359.723	18.684	1842.865	1809.280
360.738	21.836	1847.850	1847.391
361.752	21.364	1841.838	1836.169
362.767	18.530	1833.297	1797.611
363.781	17.784	1830.118	1786.432
364.796	17.542	1829.154	1782.737
365.810	17.405	1828.324	1780.268
366.825	17.629	1826.262	1780.401
367.840	17.589	1826.221	1779.729
368.854	17.774	1825.328	1780.586
369.869	18.055	1824.412	1782.428
370.883	18.131	1823.601	1782.214
371.898	18.173	1821.997	1780.871
372.913	18.176	1820.270	1779.001
373.927	18.229	1819.715	1778.799
374.942	18.371	1819.511	1779.870
375.956	18.337	1817.113	1776.957
376.971	18.406	1815.256	1775.649
377.986	18.573	1813.393	1775.352
379.000	17.757	1810.774	1764.100
380.015	17.619	1808.945	1760.674
381.029	17.338	1805.863	1754.551
382.044	16.942	1804.399	1748.815
383.059	16.924	1802.859	1746.926
384.073	16.927	1802.557	1746.454
385.088	16.961	1801.583	1745.646
386.102	17.102	1798.470	1743.885
387.117	17.117	1796.774	1742.185
388.132	16.994	1797.667	1741.568
389.146	18.165	1802.249	1757.901
390.161	21.510	1807.124	1797.038
391.175	21.240	1799.535	1786.505
392.190	18.192	1790.495	1746.091
393.205	17.396	1787.120	1734.431
394.219	17.190	1786.002	1731.032
395.234	17.065	1784.968	1728.548
396.248	17.176	1782.526	1727.104
397.263	17.148	1780.577	1724.728
398.278	16.946	1779.972	1721.874
399.292	16.980	1778.599	1720.688
400.307	17.183	1777.182	1721.172
401.321	17.300	1776.628	1721.625
402.336	17.372	1775.780	1721.333
403.350	17.371	1774.322	1719.695
404.365	17.719	1774.210	1722.922
405.380	18.180	1773.502	1726.703
406.394	18.319	1772.842	1727.267
407.409	18.323	1771.569	1725.860
408.423	18.364	1769.825	1724.366
409.438	18.219	1768.707	1721.604
410.453	18.200	1767.814	1720.341
411.467	18.261	1765.831	1718.822
412.482	17.891	1763.612	1712.718
413.496	17.681	1762.083	1708.915
414.511	17.621	1759.607	1705.710
415.526	17.662	1757.247	1703.625
416.540	17.372	1756.474	1699.762
417.555	17.294	1755.855	1698.176
418.569	17.572	1755.917	1700.824
419.584	17.687	1755.173	1701.057
420.599	17.606	1755.495	1700.350
421.613	17.481	1753.924	1697.369
422.628	17.508	1752.781	1696.335
423.642	17.423	1750.678	1693.240
424.657	17.334	1748.866	1690.398
425.672	17.522	1747.891	1691.136
426.686	17.552	1746.601	1689.981
427.701	17.484	1745.435	1687.967
428.715	17.673	1743.582	1687.859
429.730	17.656	1743.265	1687.185
430.745	17.677	1741.947	1685.916
431.759	17.834	1741.109	1686.458
432.774	18.100	1740.496	1688.308
433.788	18.528	1740.942	1692.786
434.803	18.576	1740.913	1693.028
435.818	18.593	1740.036	1692.139
436.832	18.555	1738.698	1690.263
437.847	17.640	1731.747	1674.267
438.861	9.936	1711.442	1578.981
439.876	1.814	1696.202	1485.388
440.890	0.341	1692.872	1467.880
441.905	0.131	1691.222	1464.222
442.920	0.129	1690.717	1463.586
443.934	0.179	1688.604	1462.068
444.949	0.250	1688.151	1462.200
445.963	0.046	1687.338	1459.324
446.978	0.176	1686.269	1459.491
447.993	0.141	1684.669	1457.594
449.007	0.093	1682.856	1455.387
450.022	0.223	1680.268	1454.232
451.036	0.221	1679.147	1453.069
452.051	1.114	1684.282	1466.027
453.066	9.019	1701.976	1558.670
454.080	17.068	1713.260	1647.645
455.095	18.625	1716.812	1666.070
456.109	19.341	1717.326	1673.363
457.124	19.461	1716.841	1673.858
458.139	19.772	1716.268	1676.133
459.153	19.780	1715.098	1674.863
460.168	19.792	1713.824	1673.533
461.182	19.754	1711.501	1670.701
462.197	19.788	1709.620	1668.997
463.212	19.519	1708.340	1664.934
464.226	19.560	1706.912	1663.745
465.241	19.959	1705.844	1666.364
466.255	20.010	1705.226	1666.055
467.270	20.008	1704.244	1664.874
468.285	19.732	1702.139	1659.950
469.299	19.555	1701.171	1657.099
470.314	19.715	1699.374	1656.702
471.328	19.807	1697.983	1656.031
472.343	19.823	1696.949	1654.975
473.358	19.971	1695.451	1654.736
474.372	19.876	1695.533	1653.705
475.387	19.775	1692.673	1649.751
476.401	19.680	1691.210	1647.214
477.416	19.563	1690.669	1645.369
478.430	19.662	1689.460	1644.947
479.445	19.582	1687.351	1641.937
480.460	19.554	1686.131	1640.283
481.474	19.631	1685.701	1640.397
482.489	19.772	1685.895	1641.736
483.503	20.000	1683.138	1641.031
484.518	20.067	1682.133	1640.491
485.533	19.949	1680.826	1637.896
486.547	19.988	1679.196	1636.486
487.562	20.251	1678.669	1638.275
488.576	20.343	1676.534	1636.861
489.591	20.149	1675.570	1633.885
490.606	20.035	1674.562	1631.630
491.620	20.003	1673.144	1629.752
492.635	20.238	1672.012	1630.674
493.649	20.418	1670.917	1631.110
494.664	20.078	1668.482	1625.337
495.679	19.534	1667.039	1618.613
496.693	19.714	1665.722	1618.834
497.708	19.942	1665.322	1620.396
498.722	20.267	1665.518	1623.448
499.737	20.356	1662.721	1621.365
500.752	20.169	1660.781	1617.524
501.766	20.064	1659.270	1614.876
502.781	20.147	1658.054	1614.272
503.795	20.122	1656.870	1612.696
504.810	20.116	1656.493	1612.078
505.825	20.321	1655.373	1612.714
506.839	20.386	1654.126	1611.912
507.854	20.454	1651.872	1610.157
508.868	20.383	1651.272	1608.712
509.883	20.152	1651.509	1606.599
510.898	20.412	1649.568	1606.938
511.912	20.330	1647.578	1604.047
512.927	20.207	1645.658	1600.842
513.941	20.092	1644.230	1598.201
514.956	19.839	1642.915	1594.389
515.971	19.919	1641.074	1593.151
516.985	19.955	1640.120	1592.365
518.000	20.035	1640.316	1593.104
519.014	20.382	1639.827	1595.642
520.029	20.518	1638.168	1595.089
521.043	20.419	1636.650	1592.510
522.058	20.496	1635.546	1591.954
523.073	20.424	1635.489	1591.049
524.087	20.815	1634.777	1593.763
525.102	20.773	1632.492	1590.957
526.116	20.385	1630.987	1585.740
527.131	20.249	1629.909	1583.255
528.146	20.728	1629.029	1586.597
529.160	20.853	1627.940	1586.495
530.175	20.625	1627.940	1584.216
531.189	20.833	1626.214	1584.245
532.204	20.802	1623.995	1581.613
533.219	20.640	1622.475	1578.466
534.233	20.263	1622.055	1574.431
535.248	20.556	1621.678	1576.549
536.262	20.770	1620.751	1577.404
537.277	20.845	1618.734	1575.939
538.292	20.537	1616.566	1570.836
539.306	20.233	1615.337	1566.703
540.321	20.480	1613.762	1567.225
541.335	20.264	1612.623	1563.971
542.350	20.490	1611.243	1564.489
543.365	20.660	1610.119	1564.755
544.379	20.691	1609.448	1564.194
545.394	20.983	1607.999	1565.229
546.408	20.492	1605.825	1558.499
547.423	20.150	1604.484	1553.933
548.438	20.181	1603.514	1553.086
549.452	20.406	1602.544	1553.988
550.467	20.470	1602.293	1554.128
551.481	20.505	1601.517	1553.504
552.496	20.692	1601.231	1554.722
553.511	21.115	1599.682	1556.824
554.525	20.887	1598.900	1553.837
555.540	21.003	1598.503	1554.302
556.554	21.168	1596.732	1553.871
557.569	20.983	1595.074	1550.419
558.583	20.965	1592.848	1547.909
559.598	20.871	1591.946	1546.014
560.613	20.873	1591.024	1544.952
561.627	20.934	1590.033	1544.341
562.642	21.020	1588.413	1543.353
563.656	21.298	1588.003	1545.236
564.671	21.244	1586.558	1543.171
565.686	21.122	1585.442	1540.813
566.700	20.969	1583.048	1536.948
567.715	20.821	1581.431	1533.884
568.729	20.437	1579.999	1528.913
569.744	20.346	1577.794	1525.792
570.759	20.330	1576.913	1524.615
571.773	20.673	1576.470	1527.035
572.788	20.750	1575.559	1526.648
573.802	20.908	1574.857	1527.176
574.817	21.080	1573.906	1527.583
575.832	21.395	1573.089	1529.378
576.846	21.393	1570.568	1526.733
577.861	21.018	1569.871	1522.582
578.875	21.271	1569.910	1524.653
579.890	21.495	1568.707	1525.268
580.905	21.357	1567.426	1522.632
581.919	21.442	1567.120	1522.890
582.934	21.605	1566.531	1523.563
583.948	21.570	1564.976	1521.564
584.963	21.490	1563.211	1518.967
585.978	21.224	1561.618	1514.922
586.992	21.380	1560.533	1515.045
588.007	21.548	1559.463	1515.291
589.021	20.931	1557.570	1507.905
590.036	20.406	1555.332	1500.997
591.051	20.676	1555.904	1503.716
592.065	21.103	1553.943	1505.346
593.080	21.408	1552.417	1506.324
594.094	21.425	1551.124	1505.040
595.109	20.913	1548.487	1497.877
596.123	20.757	1547.483	1495.378
597.138	21.183	1547.574	1498.966
598.153	21.435	1546.866	1500.270
599.167	21.189	1545.723	1496.862
600.182	21.241	1544.665	1496.108
601.196	21.374	1543.139	1495.595
602.211	21.362	1541.851	1494.069
603.226	21.588	1541.177	1495.174
604.240	21.740	1540.181	1495.329
605.255	21.731	1539.546	1494.459
606.269	21.686	1538.192	1492.579
607.284	21.610	1536.939	1490.538
608.299	21.680	1535.409	1489.473
609.313	21.512	1533.919	1486.417
610.328	21.502	1532.945	1485.210
611.342	21.654	1532.087	1485.493
612.357	21.913	1531.236	1486.697
613.372	21.800	1530.209	1484.556
614.386	21.734	1529.053	1482.703
615.401	21.807	1528.475	1482.581
616.415	21.769	1527.865	1481.492
617.430	21.949	1526.653	1481.666
618.445	22.073	1524.952	1480.888
619.459	21.776	1523.002	1476.304
620.474	21.379	1521.721	1471.531
621.488	20.843	1520.034	1465.190
622.503	20.605	1518.748	1461.763
623.518	21.250	1518.585	1466.875
624.532	21.652	1518.079	1469.607
625.547	21.777	1517.614	1470.029
626.561	22.165	1517.288	1472.812
627.576	22.004	1516.224	1470.246
628.591	21.553	1512.979	1463.136
629.605	21.106	1511.491	1457.770
630.620	21.145	1509.578	1456.077
631.634	20.767	1508.242	1451.446
632.649	20.954	1507.730	1452.348
633.663	21.181	1507.554	1453.905
634.678	21.719	1506.500	1457.206
635.693	21.978	1505.565	1458.298
636.707	22.149	1504.842	1458.848
637.722	22.205	1504.508	1458.811
638.736	22.306	1503.195	1458.205
639.751	22.428	1501.790	1457.689
640.766	22.271	1500.921	1455.362
641.780	22.304	1499.300	1453.890
642.795	22.157	1498.338	1451.567
643.809	22.157	1497.134	1450.223
644.824	22.266	1496.183	1450.035
645.839	22.101	1494.621	1446.979
646.853	22.193	1494.049	1447.011
647.868	22.164	1493.113	1445.695
648.882	21.961	1491.542	1442.320
649.897	21.881	1490.178	1440.174
650.912	22.058	1488.488	1439.827
651.926	21.851	1487.571	1437.058
652.941	21.530	1485.379	1432.133
653.955	21.245	1483.153	1427.469
654.970	20.899	1480.802	1422.196
655.985	20.896	1479.562	1420.815
656.999	20.933	1479.459	1420.852
658.014	21.176	1478.654	1421.892
659.028	21.436	1478.601	1423.803
660.043	21.740	1477.883	1425.428
661.058	21.871	1476.655	1425.137
662.072	21.976	1475.672	1424.882
663.087	21.959	1474.457	1423.399
664.101	21.960	1473.706	1422.507
665.116	22.135	1472.627	1422.722
666.131	22.232	1471.656	1422.403
667.145	22.162	1470.791	1420.829
668.160	22.253	1470.298	1420.919
669.174	22.501	1468.765	1421.283
670.189	22.535	1467.179	1419.853
671.204	22.156	1466.319	1415.780
672.218	22.299	1465.535	1416.009
673.233	22.347	1464.921	1415.638
674.247	22.724	1463.475	1417.112
675.262	22.806	1462.121	1416.292
676.276	22.790	1461.069	1414.979
677.291	22.591	1460.535	1412.688
678.306	22.441	1458.552	1409.390
679.320	22.194	1457.332	1406.058
680.335	22.473	1457.925	1408.709
681.349	22.581	1457.673	1409.163
682.364	22.542	1455.700	1406.773
683.379	22.513	1453.886	1404.620
684.393	22.449	1453.097	1403.173
685.408	22.466	1452.152	1402.236
686.422	22.432	1450.883	1400.566
687.437	22.494	1450.971	1400.982
688.452	22.708	1450.884	1402.439
689.466	22.456	1448.232	1397.701
690.481	22.485	1445.689	1395.308
691.495	22.072	1444.523	1390.730
692.510	21.479	1442.192	1383.606
693.525	21.029	1440.439	1378.184
694.539	21.312	1440.521	1380.345
695.554	22.079	1441.507	1387.219
696.568	22.583	1441.337	1390.881
697.583	22.669	1440.745	1390.826
698.598	22.655	1440.025	1389.860
699.612	22.857	1438.106	1389.435
700.627	22.896	1437.071	1388.579
701.641	22.748	1435.724	1385.940
702.656	22.743	1434.277	1384.343
703.671	22.984	1434.321	1386.118
704.685	22.997	1433.580	1385.338
705.700	22.773	1432.126	1382.002
706.714	22.752	1429.671	1379.306
707.729	22.519	1428.293	1375.981
708.744	22.422	1426.621	1373.446
709.758	22.219	1425.253	1370.373
710.773	21.899	1423.549	1366.064
711.787	21.641	1422.182	1362.570
712.802	21.926	1420.771	1363.284
713.816	22.075	1420.455	1363.984
714.831	22.484	1419.839	1366.420
715.846	22.714	1420.117	1368.310
716.860	22.751	1419.556	1367.898
717.875	22.641	1417.731	1365.116
718.889	22.537	1416.845	1363.297
719.904	22.716	1416.286	1363.984
720.919	22.772	1415.069	1363.085
721.933	22.960	1414.676	1364.003
722.948	22.907	1413.672	1362.459
723.962	23.071	1412.587	1362.521
724.977	23.202	1411.264	1362.094
725.992	23.215	1409.743	1360.561
727.006	23.040	1408.714	1358.055
728.021	23.066	1407.374	1356.806
729.035	23.221	1406.381	1356.876
730.050	23.077	1405.245	1354.513
731.065	23.080	1403.997	1353.168
732.079	23.186	1403.748	1353.579
733.094	23.149	1401.741	1351.201
734.108	22.999	1400.191	1348.392
735.123	23.110	1398.705	1347.653
736.138	22.939	1398.184	1345.678
737.152	22.850	1398.055	1344.715
738.167	23.104	1396.848	1345.336
739.181	23.356	1395.615	1345.906
740.196	23.207	1394.996	1344.012
741.211	23.173	1393.643	1342.290
742.225	23.143	1392.368	1340.674
743.240	23.110	1391.213	1339.146
744.254	23.167	1389.766	1338.027
745.269	23.258	1388.903	1337.730
746.284	23.069	1388.044	1335.306
747.298	22.912	1386.598	1332.569
748.313	22.573	1383.861	1327.210
749.327	22.092	1383.049	1322.633
750.342	21.493	1382.301	1317.228
751.356	21.322	1380.515	1314.080
752.371	21.611	1380.223	1315.822
753.386	22.461	1380.471	1322.325
754.400	23.017	1380.782	1326.653
755.415	23.201	1379.863	1327.002
756.429	23.252	1378.383	1325.805
757.444	23.108	1377.311	1323.530
758.459	23.132	1376.881	1323.142
759.473	23.297	1375.894	1323.272
760.488	23.538	1374.488	1323.572
761.502	23.466	1373.155	1321.586
762.517	23.310	1371.586	1318.755
763.532	23.124	1369.431	1315.130
764.546	22.878	1367.577	1311.361
765.561	22.151	1366.831	1305.061
766.575	21.496	1365.632	1298.871
767.590	21.508	1364.445	1297.681
768.605	22.159	1363.762	1301.723
769.619	22.559	1363.092	1303.907
770.634	23.046	1361.965	1306.289
771.648	23.225	1361.236	1306.761
772.663	23.457	1361.449	1308.527
773.678	23.448	1361.410	1308.269
774.692	23.394	1360.730	1307.061
775.707	23.457	1359.808	1306.481
776.721	23.506	1359.013	1305.926
777.736	23.591	1357.250	1304.705
778.751	23.482	1356.085	1302.619
779.765	23.555	1355.280	1302.233
780.780	23.390	1354.671	1300.275
781.794	23.480	1353.346	1299.510
782.809	23.310	1352.160	1296.961
783.824	23.167	1351.000	1294.645
784.838	22.730	1348.209	1288.609
785.853	21.938	1346.565	1281.074
786.867	22.133	1346.062	1281.870
787.882	22.531	1346.336	1284.898
788.897	22.803	1345.947	1286.367
789.911	23.124	1345.145	1287.788
790.926	23.152	1344.046	1286.790
791.940	23.266	1342.916	1286.386
792.955	23.430	1341.837	1286.394
793.969	23.389	1340.830	1284.980
794.984	23.375	1340.118	1284.041
795.999	23.605	1338.691	1284.191
797.013	23.613	1337.338	1282.800
798.028	23.585	1336.481	1281.616
799.042	23.572	1336.061	1280.971
800.057	23.839	1334.577	1281.329
801.072	23.608	1333.351	1278.322
802.086	23.473	1332.456	1276.339
803.101	23.706	1331.357	1276.814
804.115	23.704	1329.809	1275.163
805.130	23.751	1328.784	1274.371
806.145	23.586	1327.431	1271.730
807.159	23.624	1325.981	1270.463
808.174	23.496	1324.971	1268.421
809.188	23.323	1323.659	1265.772
810.203	23.061	1321.807	1261.970
811.218	22.835	1320.104	1258.574
812.232	22.382	1317.879	1253.063
813.247	22.005	1317.416	1249.776
814.261	22.581	1317.701	1254.014
815.276	23.092	1317.410	1257.243
816.291	23.434	1317.175	1259.308
817.305	23.655	1316.057	1259.667
818.320	23.629	1315.008	1258.324
819.334	23.757	1313.771	1257.902
820.349	23.672	1312.569	1255.993
821.364	23.866	1310.635	1255.374
822.378	23.744	1308.757	1252.561
823.393	23.769	1308.024	1251.886
824.407	23.756	1307.574	1251.213
825.422	23.647	1306.643	1249.399
826.437	23.507	1305.876	1247.529
827.451	23.426	1302.869	1243.936
828.466	22.609	1300.091	1235.381
829.480	22.439	1298.448	1232.476
830.495	22.538	1298.200	1232.789
831.509	22.972	1298.108	1235.605
832.524	23.525	1297.416	1238.681
833.539	23.513	1297.263	1238.298
834.553	23.756	1295.743	1238.402
835.568	23.811	1294.382	1237.341
836.582	23.813	1293.702	1236.558
837.597	23.964	1292.477	1236.296
838.612	23.902	1290.686	1234.002
839.626	23.654	1289.408	1230.901
840.641	23.233	1288.424	1226.884
841.655	22.752	1287.214	1222.234
842.670	22.231	1285.535	1216.870
843.685	22.032	1283.962	1213.857
844.699	22.668	1283.703	1217.880
845.714	23.043	1283.077	1219.744
846.728	23.237	1282.772	1220.651
847.743	23.537	1282.088	1221.935
848.758	23.633	1280.707	1221.132
849.772	23.865	1278.868	1220.833
850.787	23.850	1277.660	1219.435
851.801	23.787	1277.589	1218.784
852.816	23.635	1275.852	1215.937
853.831	23.591	1273.894	1213.624
854.845	23.563	1272.361	1211.821
855.860	23.557	1270.428	1209.797
856.874	23.276	1269.218	1206.571
857.889	23.022	1267.758	1203.304
858.904	22.483	1265.765	1197.585
859.918	21.964	1264.192	1192.410
860.933	21.885	1262.688	1190.314
861.947	22.447	1262.641	1193.954
862.962	22.781	1262.013	1195.492
863.977	22.882	1261.049	1195.122
864.991	23.218	1260.824	1197.054
866.006	23.326	1261.005	1197.813
867.020	23.450	1260.042	1197.602
868.035	23.751	1258.228	1197.769
869.049	23.718	1257.699	1196.900
870.064	23.856	1257.102	1197.124
871.079	23.780	1256.052	1195.469
872.093	23.688	1255.685	1194.351
873.108	23.658	1253.954	1192.360
874.122	23.399	1252.587	1189.170
875.137	22.831	1251.414	1184.091
876.152	22.632	1250.039	1181.303
877.166	22.942	1248.483	1181.776
878.181	23.298	1247.782	1183.366
879.195	23.428	1248.374	1184.660
880.210	23.686	1247.550	1185.465
881.225	23.800	1246.062	1184.675
882.239	23.899	1245.337	1184.506
883.254	23.796	1244.573	1182.947
884.268	23.935	1242.835	1182.084
885.283	24.013	1241.318	1181.017
886.298	23.792	1240.446	1178.575
887.312	23.926	1239.559	1178.482
888.327	23.916	1238.309	1177.086
889.341	23.816	1237.071	1175.103
890.356	23.642	1236.411	1173.179
891.371	23.758	1236.501	1173.896
892.385	23.639	1235.586	1172.098
893.400	23.436	1234.324	1169.414
894.414	23.304	1232.526	1166.697
895.429	22.992	1229.969	1162.077
896.444	22.206	1227.287	1154.219
897.458	21.706	1225.717	1149.310
898.473	22.182	1226.184	1152.747
899.487	22.901	1226.410	1157.560
900.502	23.254	1226.382	1159.715
901.517	23.450	1224.951	1159.513
902.531	23.589	1224.392	1159.758
903.546	23.716	1223.782	1159.877
904.560	23.826	1222.888	1159.615
905.575	23.851	1222.113	1158.904
906.589	23.850	1221.417	1158.094
907.604	23.618	1220.715	1155.771
