DTS Sentinel unit serial number:	SN409020Multiplexer serial number:	ORYXHardware model number:	OX4-SRSoftware version number:	ORYX F/W v3.00 Oryx Data Collector v3.7.2.0data status	okinstallation	HaddamTimeLapsedifferential loss correction	single-endedforward channel	channel 3reverse channel	N/Adate	2011/06/21time	17:56:17forward acquisition time	30.00reverse acquisition time	0.00gamma	498.7831k internal	0.1836k external	0.1836temperature offset calibration	1.0074default loss term (dB/km)	0.3790temperature slope calibration	1.3530multiplexer offset coefficient	1.0000multiplexer slope coefficient	1.0000fibre end	0.00T internal ref (°C)	36.00T ext. ref 1 (°C)	29.99T ext. ref 2 (°C)	0.28length (m)	temperature (°C)	Stokes	anti-Stokes-747.200	323.313	-0.161	-0.391
-746.185	-44.711	0.068	0.043
-745.171	-160.981	0.591	0.039
-744.156	-101.855	0.591	0.180
-743.142	-194.256	0.121	0.001
-742.127	800.000	0.196	0.775
-741.112	-200.000	-0.025	0.161
-740.098	223.524	0.343	0.704
-739.083	88.683	-0.238	0.335
-738.069	-160.144	0.128	0.009
-737.054	-97.536	-0.543	-0.178
-736.039	-52.650	-0.189	0.110
-735.025	-35.393	-0.383	-0.263
-734.010	127.542	-0.091	-0.147
-732.996	219.739	0.242	0.492
-731.981	-200.000	-0.003	0.232
-730.966	10.456	-0.199	-0.192
-729.952	-4.192	0.292	-0.256
-728.937	-200.000	0.036	-0.224
-727.923	-94.479	-0.555	0.190
-726.908	-53.298	-0.481	-0.278
-725.894	-200.000	-0.037	-0.274
-724.879	-6.484	-0.326	-0.281
-723.864	800.000	-0.071	0.256
-722.850	250.700	0.185	0.399
-721.835	208.185	-0.117	-0.231
-720.821	-163.646	-0.326	0.019
-719.806	-118.551	-0.169	-0.037
-718.791	15.008	-0.295	0.292
-717.777	-119.943	-0.311	0.067
-716.762	-20.381	0.242	0.188
-715.748	-151.257	0.675	0.063
-714.733	-17.785	-0.255	0.202
-713.718	800.000	-0.158	-0.683
-712.704	-71.754	0.618	-0.290
-711.689	-200.000	0.085	-0.619
-710.675	57.829	0.088	-0.109
-709.660	354.183	0.111	0.279
-708.645	-152.161	-0.359	0.033
-707.631	-71.932	0.323	-0.151
-706.616	10.183	0.274	0.263
-705.602	-76.620	0.050	-0.022
-704.587	-68.069	-0.231	-0.113
-703.572	88.097	-0.025	-0.035
-702.558	-36.565	0.269	-0.183
-701.543	89.741	0.346	-0.490
-700.529	-51.471	-0.429	0.253
-699.514	292.392	0.200	-0.462
-698.499	800.000	0.076	0.380
-697.485	-200.000	0.013	0.419
-696.470	-200.000	-0.030	0.249
-695.456	-112.742	-0.184	0.046
-694.441	-130.472	-0.470	0.080
-693.426	-2.831	0.160	-0.141
-692.412	16.952	0.112	0.112
-691.397	81.555	0.141	-0.192
-690.383	-200.000	0.021	0.221
-689.368	-37.386	-0.199	0.134
-688.354	800.000	0.036	0.161
-687.339	-34.277	0.112	-0.078
-686.324	-103.957	0.564	-0.165
-685.310	-130.081	0.766	-0.131
-684.295	-200.000	-0.039	-0.329
-683.281	-53.357	-0.299	-0.173
-682.266	118.510	-0.105	-0.164
-681.251	492.679	-0.029	-0.085
-680.237	388.627	-0.133	0.349
-679.222	-114.916	-0.203	-0.048
-678.208	216.579	0.120	0.242
-677.193	436.704	0.054	0.150
-676.178	-119.972	-0.389	-0.084
-675.164	268.113	0.102	-0.227
-674.149	-138.075	-0.231	0.032
-673.135	-21.261	0.052	-0.040
-672.120	-20.452	-0.387	0.300
-671.105	-64.414	-0.252	-0.129
-670.091	178.099	-0.116	0.215
-669.076	-53.108	-0.259	0.150
-668.062	-82.379	-0.171	0.070
-667.047	-200.000	0.028	0.177
-666.032	-73.022	-0.147	0.068
-665.018	-21.082	-0.265	-0.204
-664.003	155.149	0.142	-0.247
-662.989	225.971	-0.091	-0.187
-661.974	315.532	-0.252	-0.604
-660.959	7.345	-0.037	0.035
-659.945	-38.479	-0.181	-0.121
-658.930	-134.850	0.560	-0.085
-657.916	-200.000	-0.007	0.319
-656.901	-69.837	0.086	0.041
-655.886	338.060	0.076	0.187
-654.872	-18.591	-0.190	-0.149
-653.857	-23.831	-0.225	0.170
-652.843	71.312	0.253	-0.331
-651.828	234.988	0.061	-0.127
-650.814	3.023	0.256	0.234
-649.799	-154.143	-0.103	-0.009
-648.784	-200.000	0.026	-0.254
-647.770	-35.599	0.434	-0.297
-646.755	-200.000	0.016	-0.283
-645.741	78.131	-0.180	-0.243
-644.726	219.623	-0.111	-0.226
-643.711	-74.638	0.409	-0.185
-642.697	-43.656	0.230	0.146
-641.682	-74.471	0.301	0.136
-640.668	-53.707	0.211	-0.121
-639.653	-28.799	-0.056	0.041
-638.638	-67.783	-0.464	0.228
-637.624	18.383	0.154	-0.155
-636.609	123.656	0.116	-0.183
-635.595	-86.939	-0.259	0.099
-634.580	800.000	0.070	0.287
-633.565	-103.030	0.246	0.073
-632.551	-71.104	0.439	-0.207
-631.536	-200.000	0.017	0.223
-630.522	-121.016	-0.299	-0.063
-629.507	-56.094	-0.152	0.085
-628.492	-200.000	0.039	0.271
-627.478	800.000	-0.113	-0.401
-626.463	-182.086	-0.160	0.004
-625.449	13.521	0.371	0.363
-624.434	92.164	-0.077	0.110
-623.419	-170.779	-0.520	-0.022
-622.405	21.637	-0.232	-0.238
-621.390	-69.602	0.413	-0.198
-620.376	537.715	0.181	0.544
-619.361	83.829	-0.254	0.350
-618.346	-108.598	-0.129	0.035
-617.332	267.966	0.162	0.358
-616.317	-16.201	-0.159	0.127
-615.303	-2.398	0.350	-0.309
-614.288	-136.497	-0.364	-0.053
-613.273	362.934	-0.075	-0.190
-612.259	5.843	0.160	-0.149
-611.244	-0.977	-0.171	0.152
-610.230	800.000	0.193	0.699
-609.215	-200.000	-0.092	0.559
-608.201	-200.000	-0.022	-0.478
-607.186	198.703	0.174	-0.336
-606.171	-12.137	-0.295	0.243
-605.157	-102.959	-0.503	0.149
-604.142	800.000	0.092	0.344
-603.128	-184.751	0.506	-0.010
-602.113	-60.678	0.347	0.185
-601.098	-94.271	0.055	-0.019
-600.084	80.121	-0.332	-0.451
-599.069	65.578	-0.233	-0.297
-598.055	54.749	0.329	-0.400
-597.040	291.867	0.175	-0.403
-596.025	160.851	0.263	-0.464
-595.011	800.000	0.071	-0.296
-593.996	800.000	-0.013	0.052
-592.982	184.644	0.216	0.404
-591.967	1.665	-0.348	-0.316
-590.952	-200.000	-0.045	0.344
-589.938	-30.204	0.244	-0.174
-588.923	198.380	-0.204	-0.393
-587.909	-159.264	0.328	0.023
-586.894	227.984	-0.175	-0.360
-585.879	800.000	0.035	-0.133
-584.865	-153.515	0.047	0.004
-583.850	201.933	0.107	-0.208
-582.836	222.646	0.194	-0.394
-581.821	102.649	-0.061	-0.090
-580.806	-94.119	-0.343	-0.118
-579.792	117.112	0.340	-0.528
-578.777	424.925	0.047	0.129
-577.763	244.225	0.147	0.312
-576.748	257.436	0.181	0.392
-575.733	800.000	0.069	-0.336
-574.719	-155.510	-0.430	0.034
-573.704	-134.874	0.405	-0.061
-572.690	-42.301	0.507	0.325
-571.675	33.196	-0.118	-0.129
-570.661	-51.456	-0.285	-0.167
-569.646	-99.471	-0.131	0.041
-568.631	416.126	0.048	0.128
-567.617	59.217	-0.303	-0.375
-566.602	-109.449	-0.254	-0.067
-565.588	52.742	0.122	-0.147
-564.573	-32.532	-0.176	-0.123
-563.558	-122.375	0.637	0.130
-562.544	135.463	-0.133	-0.218
-561.529	187.878	0.189	-0.357
-560.515	-78.245	0.368	-0.158
-559.500	-69.757	0.175	-0.084
-558.485	162.298	0.365	-0.645
-557.471	99.892	0.050	0.073
-556.456	-54.517	-0.158	0.090
-555.442	-79.305	0.276	-0.117
-554.427	800.000	0.036	0.187
-553.412	-102.790	-0.157	0.047
-552.398	169.062	0.142	0.256
-551.383	-51.166	0.231	-0.136
-550.369	-54.308	-0.187	0.107
-549.354	380.205	0.110	-0.284
-548.339	-90.766	-0.294	0.106
-547.325	16.001	-0.226	0.224
-546.310	10.854	0.247	-0.237
-545.296	219.686	-0.156	-0.315
-544.281	-32.624	-0.207	-0.144
-543.266	-108.398	-0.315	-0.085
-542.252	-89.118	-0.132	0.049
-541.237	-76.320	0.048	0.021
-540.223	-8.958	-0.215	0.181
-539.208	-200.000	-0.001	0.159
-538.193	-200.000	0.013	0.209
-537.179	-55.854	0.247	0.138
-536.164	800.000	0.083	-0.379
-535.150	-9.146	-0.196	-0.165
-534.135	-131.083	0.339	-0.056
-533.121	-103.681	-0.264	-0.077
-532.106	792.458	0.016	-0.056
-531.091	39.153	0.695	-0.782
-530.077	28.308	0.086	-0.091
-529.062	304.185	-0.145	-0.340
-528.048	-180.518	-0.294	0.007
-527.033	800.000	0.104	-0.485
-526.018	-132.813	0.219	-0.035
-525.004	800.000	-0.169	0.653
-523.989	106.578	-0.151	0.225
-522.975	134.990	0.225	0.368
-521.960	81.866	-0.291	-0.396
-520.945	-107.642	-0.126	0.034
-519.931	242.572	0.089	0.187
-518.916	67.853	0.100	0.128
-517.902	-74.809	0.518	0.232
-516.887	800.000	0.006	0.023
-515.872	75.660	-0.090	0.120
-514.858	-16.432	0.332	-0.264
-513.843	800.000	-0.051	0.253
-512.829	53.654	-0.138	0.167
-511.814	17.689	0.229	0.229
-510.799	-131.521	0.251	0.041
-509.785	-200.000	-0.012	0.240
-508.770	3.097	0.151	-0.138
-507.756	-72.888	0.504	-0.232
-506.741	-68.425	0.382	-0.185
-505.726	-81.269	0.486	0.201
-504.712	800.000	-0.046	0.173
-503.697	-60.470	0.506	0.269
-502.683	364.344	-0.069	0.174
-501.668	98.742	-0.153	0.221
-500.653	115.108	-0.245	-0.375
-499.639	109.330	-0.179	0.269
-498.624	-42.715	-0.228	0.145
-497.610	108.643	0.070	-0.106
-496.595	-156.774	-0.512	-0.039
-495.581	-32.592	-0.077	0.053
-494.566	-56.304	-0.205	0.114
-493.551	61.158	-0.184	0.230
-492.537	-91.585	-0.255	-0.090
-491.522	-64.228	0.192	-0.098
-490.508	165.189	0.293	-0.520
-489.493	-96.102	0.201	0.066
-488.478	800.000	-0.071	0.257
-487.464	410.575	-0.077	0.205
-486.449	-152.401	-0.310	0.028
-485.435	7.256	0.315	-0.295
-484.420	-149.332	0.252	0.025
-483.405	17.603	0.470	0.468
-482.391	-113.495	0.160	0.039
-481.376	-29.447	-0.349	-0.249
-480.362	-57.025	0.170	-0.093
-479.347	95.662	-0.308	-0.441
-478.332	208.907	0.184	0.361
-477.318	-24.955	0.142	-0.106
-476.303	-130.923	0.428	-0.071
-475.289	296.658	-0.107	-0.246
-474.274	200.961	-0.126	-0.243
-473.259	-200.000	-0.028	-0.472
-472.245	163.227	-0.296	0.523
-471.230	27.167	0.144	0.152
-470.216	-118.327	-0.201	0.044
-469.201	-135.457	-0.317	-0.047
-468.186	113.160	-0.285	-0.434
-467.172	180.921	-0.173	0.319
-466.157	-131.936	0.581	0.094
-465.143	151.855	-0.099	-0.169
-464.128	315.495	-0.064	-0.152
-463.113	-136.365	0.549	-0.079
-462.099	155.643	-0.110	0.190
-461.084	181.572	0.204	-0.378
-460.070	800.000	-0.119	-0.485
-459.055	-143.986	-0.511	-0.060
-458.040	800.000	-0.025	-0.127
-457.026	-200.000	0.010	-0.100
-456.011	-136.989	0.598	-0.085
-454.997	82.911	-0.056	0.076
-453.982	-103.711	-0.529	0.154
-452.968	6.316	0.163	0.151
-451.953	172.152	-0.201	0.364
-450.938	-146.792	-0.050	0.005
-449.924	-156.187	-0.767	-0.060
-448.909	-159.516	-0.509	0.035
-447.895	-200.000	-0.066	0.507
-446.880	-113.768	-0.386	0.093
-445.865	-200.000	-0.012	0.545
-444.851	-69.322	0.334	0.160
-443.836	208.753	-0.157	-0.308
-442.822	-72.831	0.506	-0.232
-441.807	-200.000	-0.011	0.332
-440.792	-200.000	-0.042	0.597
-439.778	-32.600	-0.261	0.182
-438.763	-19.768	0.081	0.063
-437.749	-200.000	0.019	-0.302
-436.734	329.461	-0.142	-0.343
-435.719	10.209	-0.294	0.280
-434.705	-133.770	-0.201	0.031
-433.690	715.399	0.063	-0.211
-432.676	442.967	-0.090	-0.248
-431.661	184.180	0.353	0.656
-430.646	-117.253	0.162	0.036
-429.632	37.343	-0.136	0.150
-428.617	-154.401	0.110	-0.009
-427.603	800.000	-0.115	-0.593
-426.588	-13.561	0.323	0.261
-425.573	800.000	-0.180	0.752
-424.559	-200.000	-0.035	0.629
-423.544	-200.000	-0.260	-0.001
-422.530	-200.000	0.134	-0.760
-421.515	211.347	-0.194	-0.383
-420.500	-72.079	0.321	0.149
-419.486	-200.000	-0.029	-0.229
-418.471	-64.629	0.047	0.024
-417.457	-190.499	-0.183	0.002
-416.442	8.566	0.248	-0.234
-415.428	-200.000	-0.002	0.414
-414.413	-61.070	0.550	0.289
-413.398	115.442	0.190	0.290
-412.384	-200.000	0.081	0.624
-411.369	-112.611	0.016	-0.004
-410.355	-194.268	-0.339	0.003
-409.340	-200.000	0.016	-0.416
-408.325	-200.000	-0.036	-0.405
-407.311	-30.887	-0.210	-0.148
-406.296	-200.000	0.019	-0.295
-405.282	-93.245	-0.134	-0.046
-404.267	-200.000	0.007	-0.204
-403.252	559.354	-0.035	-0.106
-402.238	-4.469	-0.358	0.309
-401.223	28.691	0.332	0.352
-400.209	-27.675	-0.654	-0.473
-399.194	232.951	-0.051	-0.105
-398.179	-95.333	-0.126	0.042
-397.165	114.223	0.274	0.417
-396.150	45.681	0.161	0.186
-395.136	-63.412	-0.244	0.125
-394.121	800.000	0.055	0.192
-393.106	429.279	-0.135	-0.366
-392.092	-33.984	-0.271	0.186
-391.077	-2.741	-0.208	-0.181
-390.063	76.372	-0.108	0.143
-389.048	-200.000	0.034	-0.191
-388.033	-200.000	-0.007	0.509
-387.019	142.290	0.195	-0.325
-386.004	-110.263	0.079	0.020
-384.990	-25.898	-0.291	0.213
-383.975	-29.845	-0.497	-0.353
-382.960	13.951	0.257	0.250
-381.946	-200.000	-0.035	0.315
-380.931	28.529	0.018	-0.018
-379.917	-118.363	-0.253	0.056
-378.902	-41.485	-0.482	-0.309
-377.888	-31.232	-0.297	0.208
-376.873	800.000	0.116	-0.404
-375.858	-3.500	0.378	-0.328
-374.844	-76.017	-0.127	0.056
-373.829	621.456	0.081	-0.256
-372.815	-41.257	0.131	-0.084
-371.800	-117.616	-0.245	0.055
-370.785	-28.562	-0.448	0.321
-369.771	-200.000	-0.027	0.164
-368.756	184.927	0.076	-0.142
-367.742	-193.325	-0.550	-0.006
-366.727	327.007	-0.129	-0.311
-365.712	-200.000	-0.007	-0.162
-364.698	-53.291	-0.340	0.194
-363.683	-166.435	0.545	0.028
-362.669	-98.062	-0.141	0.045
-361.654	-200.000	-0.004	-0.259
-360.639	62.246	-0.134	0.167
-359.625	-98.968	0.269	0.085
-358.610	800.000	0.126	0.503
-357.596	-26.349	0.147	-0.107
-356.581	-10.489	0.214	-0.177
-355.566	-50.805	0.313	0.183
-354.552	-200.000	-0.019	0.319
-353.537	-200.000	0.050	-0.556
-352.523	50.190	-0.111	0.131
-351.508	-124.454	-0.342	0.066
-350.493	413.118	-0.152	-0.406
-349.479	-133.041	-0.310	0.049
-348.464	-200.000	-0.001	0.241
-347.450	-97.620	-0.089	0.029
-346.435	-155.231	0.406	0.033
-345.420	-132.340	0.290	-0.046
-344.406	-200.000	-0.026	0.225
-343.391	169.566	0.168	-0.300
-342.377	800.000	0.032	0.149
-341.362	-20.369	0.261	0.200
-340.348	-15.540	-0.130	-0.103
-339.333	-42.806	-0.523	-0.331
-338.318	-117.852	-0.252	-0.056
-337.304	-75.314	-0.227	0.100
-336.289	-28.379	-0.344	0.247
-335.275	75.543	-0.204	-0.269
-334.260	-31.599	0.273	0.191
-333.245	800.000	-0.038	0.132
-332.231	-36.535	0.335	0.224
-331.216	94.492	-0.128	-0.182
-330.202	145.658	0.129	0.216
-329.187	-116.355	-0.518	0.118
-328.172	-7.604	-0.153	-0.129
-327.158	368.519	0.051	0.129
-326.143	-82.695	-0.599	-0.240
-325.129	194.872	-0.045	0.086
-324.114	-22.257	0.139	-0.105
-323.099	-200.000	-0.006	-0.034
-322.085	162.028	0.168	-0.295
-321.070	-156.964	0.485	0.036
-320.056	80.806	0.149	0.201
-319.041	800.000	-0.112	0.546
-318.026	289.934	-0.157	0.356
-317.012	-109.640	0.364	-0.095
-315.997	-147.665	-0.216	-0.022
-314.983	-61.672	0.181	0.094
-313.968	477.733	-0.120	0.339
-312.953	800.000	0.036	-0.186
-311.939	-200.000	-0.040	-0.409
-310.924	301.881	-0.113	0.261
-309.910	49.165	0.173	0.202
-308.895	-200.000	0.055	0.421
-307.880	7.875	-0.164	0.153
-306.866	26.508	0.133	0.139
-305.851	285.041	0.126	-0.284
-304.837	46.193	-0.181	-0.209
-303.822	8.376	0.333	-0.311
-302.807	477.995	0.123	0.350
-301.793	298.941	0.090	0.207
-300.778	-10.604	0.650	0.535
-299.764	272.196	-0.296	0.653
-298.749	800.000	0.183	0.705
-297.735	-15.308	0.148	-0.117
-296.720	-194.742	-0.132	-0.001
-295.705	469.794	-0.096	-0.271
-294.691	-200.000	0.040	0.413
-293.676	-109.614	-0.102	0.027
-292.662	48.015	0.332	-0.386
-291.647	272.957	0.118	-0.260
-290.632	71.466	0.176	-0.228
-289.618	-74.293	0.272	-0.122
-288.603	-200.000	0.025	-0.153
-287.589	-200.000	-0.083	-0.565
-286.574	-117.477	0.090	-0.020
-285.559	239.720	0.173	0.359
-284.545	-87.346	0.115	-0.043
-283.530	-123.415	0.134	0.026
-282.516	-61.044	-0.466	-0.244
-281.501	-66.517	0.139	-0.068
-280.486	126.859	-0.207	-0.328
-279.472	-76.247	-0.178	-0.078
-278.457	438.354	-0.100	0.272
-277.443	-104.131	0.379	0.109
-276.428	-8.226	-0.558	-0.466
-275.413	22.253	0.209	-0.213
-274.399	750.165	0.050	0.168
-273.384	-10.718	0.326	0.268
-272.370	-176.125	-0.172	-0.006
-271.355	23.625	-0.397	-0.406
-270.340	102.451	-0.078	0.113
-269.326	24.459	-0.021	-0.022
-268.311	-128.578	-0.308	0.054
-267.297	800.000	-0.160	0.604
-266.282	-133.825	0.067	-0.010
-265.267	-200.000	0.022	-0.219
-264.253	15.361	0.214	0.209
-263.238	-144.153	-0.356	-0.041
-262.224	-108.287	-0.471	0.126
-261.209	-138.628	-0.242	-0.033
-260.195	-105.437	-0.306	-0.086
-259.180	587.644	-0.038	0.116
-258.165	-76.423	0.428	-0.186
-257.151	-200.000	-0.052	0.318
-256.136	414.585	-0.081	-0.215
-255.122	800.000	-0.003	0.012
-254.107	-200.000	0.010	-0.092
-253.092	-38.507	-0.519	0.340
-252.078	-20.608	-0.064	0.049
-251.063	-200.000	0.042	-0.233
-250.049	52.804	0.158	-0.188
-249.034	77.836	-0.092	0.121
-248.019	-177.676	-0.092	-0.003
-247.005	800.000	-0.092	0.371
-245.990	534.423	0.094	0.278
-244.976	21.345	0.196	-0.198
-243.961	-85.107	-0.155	0.060
-242.946	800.000	0.112	-0.533
-241.932	89.022	-0.348	-0.482
-240.917	-200.000	-0.001	-0.397
-239.903	-121.254	-0.546	-0.112
-238.888	649.883	-0.017	0.055
-237.873	-150.125	0.233	-0.022
-236.859	-200.000	-0.020	-0.241
-235.844	71.766	-0.303	0.391
-234.830	800.000	-0.032	0.111
-233.815	-31.812	0.242	-0.168
-232.800	27.127	0.172	-0.179
-231.786	-158.805	0.387	0.027
-230.771	-200.000	0.037	0.227
-229.757	9.350	0.092	-0.086
-228.742	75.139	0.226	0.296
-227.727	12.941	-0.130	0.125
-226.713	-167.244	-0.301	-0.015
-225.698	-28.411	-0.013	0.009
-224.684	55.519	-0.204	0.245
-223.669	-0.489	0.127	-0.112
-222.655	61.853	-0.062	0.076
-221.640	146.739	0.286	-0.478
-220.625	-64.129	0.229	-0.116
-219.611	10.854	-0.214	-0.203
-218.596	-105.755	0.211	-0.059
-217.582	-100.233	-0.225	0.069
-216.567	421.982	0.087	0.233
-215.552	162.577	0.229	0.400
-214.538	-200.000	-0.001	0.293
-213.523	-71.839	0.105	0.048
-212.509	-87.217	0.567	0.213
-211.494	-200.000	-0.044	-0.243
-210.479	-99.097	0.188	0.059
-209.465	2.900	-0.057	-0.051
-208.450	-200.000	-0.016	0.315
-207.436	107.905	-0.064	0.095
-206.421	800.000	0.103	0.383
-205.406	-122.957	-0.218	-0.043
-204.392	800.000	0.026	0.142
-203.377	800.000	-0.104	0.521
-202.363	-34.015	0.465	-0.316
-201.348	-200.000	-0.009	-0.365
-200.333	-11.449	0.221	-0.180
-199.319	800.000	0.133	-0.549
-198.304	-100.797	0.164	-0.050
-197.290	800.000	-0.025	-0.096
-196.275	800.000	-0.078	-0.407
-195.260	-200.000	0.017	-0.111
-194.246	-120.802	0.254	0.053
-193.231	-200.000	-0.038	0.252
-192.217	-105.060	-0.853	0.240
-191.202	-117.281	-0.492	0.110
-190.187	800.000	0.020	0.089
-189.173	-66.559	0.194	0.095
-188.158	-200.000	0.008	-0.230
-187.144	372.174	-0.055	0.139
-186.129	-76.190	0.098	0.043
-185.114	-38.170	0.212	-0.139
-184.100	-57.645	0.111	-0.060
-183.085	-200.000	0.090	0.000
-182.071	-48.738	0.450	0.267
-181.056	-82.497	0.261	-0.105
-180.042	-80.002	-0.154	-0.064
-179.027	-76.498	-0.181	-0.078
-178.012	-200.000	-0.021	-0.171
-176.998	106.236	0.233	-0.343
-175.983	800.000	-0.052	-0.255
-174.969	185.889	-0.110	0.203
-173.954	-200.000	-0.002	0.061
-172.939	112.068	0.240	-0.360
-171.925	-157.052	-0.342	0.025
-170.910	-38.463	-0.270	0.176
-169.896	-7.693	0.272	0.227
-168.881	543.077	-0.059	-0.174
-167.866	-200.000	-0.007	0.176
-166.852	0.411	0.243	0.215
-165.837	-200.000	0.026	-0.302
-164.823	-83.397	-0.335	-0.132
-163.808	50.484	0.235	0.276
-162.793	800.000	-0.081	0.401
-161.779	-111.389	-0.237	-0.060
-160.764	-82.536	-0.266	-0.106
-159.750	-200.000	0.017	0.314
-158.735	-65.821	0.348	-0.172
-157.720	-106.108	0.578	0.160
-156.706	800.000	-0.078	0.340
-155.691	17.452	-0.284	0.279
-154.677	800.000	-0.070	0.273
-153.662	-53.150	0.176	-0.100
-152.647	162.400	-0.154	-0.267
-151.633	-135.974	-0.291	0.042
-150.618	-56.368	-0.168	-0.092
-149.604	-127.739	0.264	-0.047
-148.589	-127.313	0.336	0.060
-147.574	169.274	0.265	-0.470
-146.560	-21.774	-0.314	-0.236
-145.545	-200.000	0.014	0.239
-144.531	621.245	0.125	0.392
-143.516	318.793	0.145	-0.341
-142.502	-22.321	-0.177	0.132
-141.487	800.000	0.106	0.453
-140.472	-58.701	-0.381	-0.203
-139.458	17.625	-0.140	0.138
-138.443	-34.911	0.332	0.224
-137.429	39.068	0.224	-0.248
-136.414	113.501	0.065	0.098
-135.399	126.049	-0.255	-0.400
-134.385	245.877	0.024	-0.050
-133.370	-72.169	-0.220	-0.101
-132.356	-75.457	-0.472	0.207
-131.341	-38.510	-0.108	0.070
-130.326	-40.723	0.126	0.081
-129.312	-103.429	0.184	-0.053
-128.297	-173.174	0.042	0.002
-127.283	-7.136	-0.410	0.343
-126.268	11.598	0.197	-0.186
-125.253	33.208	-0.131	-0.140
-124.239	-16.235	0.520	0.408
-123.224	-22.815	-0.230	-0.172
-122.210	-83.283	-0.227	0.090
-121.195	11.848	0.116	0.110
-120.180	130.861	-0.169	-0.268
-119.166	-91.881	0.382	-0.133
-118.151	73.323	0.163	0.211
-117.137	-131.069	-0.283	0.046
-116.122	-95.218	-0.380	-0.126
-115.107	24.183	-0.134	-0.136
-114.093	-200.000	0.075	0.777
-113.078	800.000	0.107	0.445
-112.064	-28.428	0.434	0.309
-111.049	-200.000	0.051	-0.411
-110.034	-110.128	-0.625	0.160
-109.020	572.422	-0.040	0.121
-108.005	-200.000	0.012	-0.232
-106.991	198.416	0.134	-0.253
-105.976	204.048	-0.212	0.407
-104.962	-129.038	-0.637	-0.109
-103.947	-40.278	0.134	0.086
-102.932	-200.000	-0.015	0.158
-101.918	-44.394	-0.282	0.174
-100.903	-148.789	0.204	0.020
-99.889	52.491	-0.155	0.183
-98.874	31.272	0.343	-0.364
-97.859	503.952	-0.109	-0.314
-96.845	-200.000	0.041	-0.236
-95.830	12.094	0.122	0.116
-94.816	-19.304	0.148	0.113
-93.801	800.000	0.023	-0.107
-92.786	-63.816	-0.355	-0.179
-91.772	-135.111	-0.510	0.075
-90.757	162.033	0.150	0.260
-89.743	-87.077	-0.426	0.159
-88.728	-140.635	-0.332	-0.042
-87.713	-152.380	-0.350	0.031
-86.699	-125.498	0.355	-0.066
-85.684	-200.000	-0.023	0.128
-84.670	-66.694	0.312	0.152
-83.655	-200.000	0.071	0.615
-82.640	4.308	0.593	0.536
-81.626	98.123	-0.192	-0.274
-80.611	159.045	0.171	-0.294
-79.597	434.805	0.180	-0.486
-78.582	-65.006	-0.153	0.076
-77.567	-167.878	-0.422	0.020
-76.553	15.787	-0.075	-0.072
-75.538	390.941	0.247	0.634
-74.524	416.495	-0.101	0.267
-73.509	800.000	0.072	-0.389
-72.494	105.736	-0.204	0.299
-71.480	-64.945	0.324	-0.161
-70.465	732.333	-0.036	0.121
-69.451	-200.000	0.024	0.308
-68.436	71.748	-0.230	-0.296
-67.422	-23.995	-0.254	-0.187
-66.407	-132.758	-0.200	0.031
-65.392	186.229	-0.132	-0.244
-64.378	758.394	-0.115	-0.385
-63.363	75.965	-0.190	0.248
-62.349	-81.965	-0.526	0.211
-61.334	-40.072	-1.871	-1.200
-60.319	-87.926	0.492	-0.181
-59.305	402.870	-2.231	-5.813
-58.290	-34.546	3.361	2.265
-57.276	350.299	4.272	10.459
-56.261	-200.000	12.803	204.209
-55.246	519.039	1120.538	3253.250
-54.232	70.621	2766.033	3532.230
-53.217	77.334	2690.099	3531.929
-52.203	90.858	2425.894	3357.845
-51.188	35.819	2080.052	2255.476
-50.173	38.660	1950.017	2145.719
-49.159	37.064	1939.609	2116.683
-48.144	36.467	1935.376	2105.444
-47.130	36.359	1932.249	2100.775
-46.115	36.295	1930.743	2098.362
-45.100	36.253	1928.672	2095.568
-44.086	36.283	1927.913	2094.988
-43.071	36.237	1926.582	2092.952
-42.057	36.203	1925.090	2090.880
-41.042	36.219	1923.465	2089.206
-40.027	36.073	1922.598	2086.593
-39.013	36.247	1920.570	2086.197
-37.998	36.088	1919.387	2083.111
-36.984	36.258	1918.378	2083.773
-35.969	36.134	1917.326	2081.207
-34.954	36.002	1916.327	2078.604
-33.940	36.113	1915.308	2078.623
-32.925	36.243	1913.108	2077.560
-31.911	36.162	1911.465	2074.815
-30.896	36.198	1910.280	2073.840
-29.881	36.036	1910.077	2071.783
-28.867	36.031	1908.852	2070.319
-27.852	36.031	1907.204	2068.447
-26.838	36.015	1905.180	2065.997
-25.823	35.927	1904.073	2063.771
-24.809	36.021	1902.036	2062.489
-23.794	36.142	1900.471	2062.014
-22.779	35.988	1900.607	2060.423
-21.765	36.099	1898.360	2059.093
-20.750	35.997	1897.930	2057.456
-19.736	35.963	1896.335	2055.273
-18.721	35.990	1895.303	2054.361
-17.706	35.808	1894.374	2051.327
-16.692	35.863	1892.770	2050.100
-15.677	35.853	1891.868	2048.933
-14.663	36.051	1889.568	2048.471
-13.648	35.783	1889.351	2045.296
-12.633	35.867	1888.151	2044.816
-11.619	35.893	1886.373	2043.087
-10.604	35.925	1884.173	2040.965
-9.590	35.885	1884.246	2040.528
-8.575	35.906	1883.131	2039.471
-7.560	35.968	1881.088	2037.828
-6.546	35.880	1880.525	2036.203
-5.531	35.869	1879.501	2034.898
-4.517	35.978	1877.777	2034.107
-3.502	35.898	1876.898	2032.229
-2.487	35.881	1877.117	2032.205
-1.473	36.037	1873.371	2029.724
-0.458	36.744	1854.797	2016.927
0.556	33.219	1987.035	2108.682
1.571	32.140	2201.847	2322.958
2.586	33.729	2250.500	2394.167
3.600	33.754	2253.234	2397.108
4.615	33.978	2253.070	2399.483
5.629	33.824	2250.849	2394.877
6.644	34.030	2249.233	2395.484
7.659	34.138	2247.394	2394.610
8.673	34.313	2246.082	2395.137
9.688	33.222	2249.777	2384.966
10.702	29.853	2316.496	2411.359
11.717	25.824	2377.978	2420.756
12.731	13.238	2344.403	2217.591
13.746	2.174	2313.974	2040.615
14.761	0.395	2308.759	2011.926
15.775	0.250	2307.532	2008.672
16.790	0.234	2305.338	2006.309
17.804	0.232	2303.012	2004.014
18.819	0.138	2302.340	2001.942
19.834	0.127	2301.326	2000.670
20.848	0.127	2300.103	1999.372
21.863	0.055	2298.069	1996.403
22.877	0.168	2295.633	1995.547
23.892	0.069	2293.473	1992.118
24.907	0.103	2291.478	1990.594
25.921	-0.032	2290.307	1987.545
26.936	0.135	2286.741	1986.422
27.950	0.089	2285.222	1984.267
28.965	0.107	2283.375	1982.655
29.980	0.098	2281.926	1981.040
30.994	0.230	2280.994	1981.740
32.009	6.697	2302.744	2086.542
33.023	22.955	2352.045	2350.048
34.038	31.648	2370.760	2485.033
35.053	32.711	2371.279	2499.454
36.067	32.465	2366.403	2490.734
37.082	32.046	2362.594	2480.867
38.096	31.956	2362.724	2479.508
39.111	32.417	2361.547	2484.101
40.126	32.417	2358.625	2480.724
41.140	32.766	2356.435	2482.742
42.155	32.384	2353.931	2474.760
43.169	31.953	2351.359	2466.067
44.184	32.239	2350.411	2468.555
45.199	32.193	2347.036	2464.103
46.213	31.802	2345.791	2457.354
47.228	31.702	2344.943	2454.851
48.242	32.043	2343.630	2457.676
49.257	32.368	2342.715	2460.694
50.271	32.740	2340.854	2463.334
51.286	32.746	2339.001	2461.168
52.301	32.232	2334.579	2449.484
53.315	31.337	2331.488	2434.228
54.330	29.722	2324.878	2405.931
55.344	28.577	2320.083	2385.731
56.359	28.638	2316.366	2382.417
57.374	28.347	2314.374	2376.289
58.388	28.316	2310.592	2371.713
59.403	28.231	2307.209	2366.862
60.417	28.170	2305.142	2363.665
61.432	28.681	2304.191	2369.033
62.447	28.433	2302.553	2363.852
63.461	28.433	2299.166	2360.087
64.476	28.403	2296.380	2356.562
65.490	28.673	2296.842	2360.244
66.505	28.854	2297.112	2362.579
67.520	29.888	2299.941	2378.565
68.534	31.556	2303.017	2403.024
69.549	32.224	2299.179	2407.333
70.563	32.233	2298.234	2406.167
71.578	32.311	2297.652	2406.278
72.593	33.086	2297.800	2416.105
73.607	33.293	2295.759	2416.333
74.622	33.154	2293.183	2411.542
75.636	32.702	2289.098	2401.181
76.651	32.697	2286.940	2398.561
77.666	33.151	2287.021	2404.166
78.680	33.174	2284.599	2401.623
79.695	32.610	2280.874	2390.236
80.709	31.471	2275.225	2369.522
81.724	31.290	2273.230	2364.860
82.739	32.351	2275.698	2380.649
83.753	33.429	2276.759	2395.189
84.768	33.210	2273.444	2388.630
85.782	32.791	2271.555	2381.050
86.797	32.723	2269.104	2377.340
87.812	32.255	2265.096	2366.935
88.826	32.131	2262.950	2362.841
89.841	32.664	2262.338	2368.655
90.855	33.193	2260.542	2373.162
91.870	32.308	2256.490	2357.480
92.884	31.963	2255.277	2351.575
93.899	32.319	2254.829	2355.317
94.914	31.213	2251.194	2337.328
95.928	29.081	2244.120	2302.925
96.943	28.604	2241.972	2294.446
97.957	30.835	2246.233	2326.586
98.972	32.325	2247.143	2345.957
99.987	31.940	2242.409	2335.913
101.001	31.881	2240.381	2332.779
102.016	32.124	2238.419	2333.498
103.030	32.098	2235.456	2329.799
104.045	32.000	2234.476	2327.280
105.060	32.789	2235.389	2337.788
106.074	33.116	2233.808	2339.920
107.089	32.517	2230.162	2328.381
108.103	32.235	2229.001	2323.391
109.118	32.702	2228.471	2328.356
110.133	32.971	2227.258	2330.150
111.147	32.909	2224.786	2326.522
112.162	32.933	2223.913	2325.623
113.176	33.059	2220.545	2323.374
114.191	32.795	2217.694	2316.860
115.206	32.682	2216.688	2314.135
116.220	32.891	2215.720	2315.421
117.235	32.557	2212.213	2307.373
118.249	32.213	2211.287	2301.898
119.264	32.507	2210.042	2303.944
120.279	32.631	2207.912	2302.971
121.293	32.473	2204.982	2297.702
122.308	32.424	2204.593	2296.418
123.322	32.141	2202.624	2290.616
124.337	30.909	2196.315	2268.717
125.352	29.072	2191.913	2241.440
126.366	29.582	2192.724	2248.241
127.381	31.759	2195.539	2277.496
128.395	33.141	2196.773	2295.382
129.410	33.161	2193.750	2292.185
130.424	32.831	2191.819	2285.884
131.439	32.921	2189.838	2284.635
132.454	32.377	2188.316	2276.155
133.468	32.711	2185.663	2277.181
134.483	32.627	2183.339	2273.477
135.497	32.459	2182.251	2270.027
136.512	33.156	2180.855	2276.743
137.527	33.356	2179.882	2277.872
138.541	33.031	2178.418	2272.145
139.556	33.082	2176.928	2270.938
140.570	32.925	2175.065	2266.827
141.585	32.571	2172.343	2259.454
142.600	32.614	2171.079	2258.388
143.614	32.591	2170.320	2257.052
144.629	32.993	2168.850	2260.085
145.643	32.524	2166.793	2252.039
146.658	32.103	2163.767	2243.562
147.673	31.542	2159.912	2232.567
148.687	31.710	2158.851	2233.227
149.702	31.984	2158.187	2235.554
150.716	32.098	2157.511	2235.943
151.731	32.990	2159.390	2248.307
152.746	33.421	2158.597	2252.359
153.760	31.934	2152.962	2228.468
154.775	29.307	2144.528	2188.179
155.789	28.347	2141.622	2173.516
156.804	30.214	2144.405	2198.349
157.819	31.607	2144.838	2215.109
158.833	32.002	2143.667	2218.333
159.848	32.681	2142.110	2224.511
160.862	32.841	2141.932	2225.958
161.877	33.177	2142.010	2229.753
162.892	33.253	2141.520	2229.879
163.906	33.544	2139.796	2231.258
164.921	33.416	2137.464	2227.053
165.935	33.143	2135.799	2221.824
166.950	32.663	2131.970	2211.907
167.964	32.476	2130.071	2207.479
168.979	32.415	2127.233	2203.548
169.994	32.677	2127.391	2206.529
171.008	32.636	2124.679	2202.971
172.023	32.400	2122.782	2197.977
173.037	32.891	2122.719	2203.406
174.052	32.786	2121.077	2200.204
175.067	32.406	2119.018	2193.355
176.081	32.433	2116.750	2191.058
177.096	32.810	2116.356	2194.800
178.110	32.724	2114.758	2191.884
179.125	32.488	2113.216	2187.257
180.140	32.726	2113.572	2190.149
181.154	32.996	2111.866	2191.266
182.169	32.879	2109.881	2187.588
183.183	32.016	2105.568	2172.808
184.198	29.822	2098.233	2139.504
185.213	29.142	2097.154	2130.250
186.227	31.572	2101.932	2163.126
187.242	32.645	2100.723	2174.066
188.256	32.522	2099.430	2171.043
189.271	33.025	2099.494	2176.684
190.286	33.107	2097.073	2174.854
191.300	32.284	2093.197	2161.069
192.315	32.347	2091.718	2160.016
193.329	32.856	2092.535	2166.472
194.344	33.440	2091.416	2171.791
195.359	32.970	2089.328	2163.954
196.373	33.187	2088.768	2165.613
197.388	33.123	2086.099	2161.843
198.402	32.873	2083.452	2155.978
199.417	32.936	2081.740	2154.662
200.432	33.058	2080.100	2154.112
201.446	33.061	2079.584	2153.350
202.461	32.618	2075.619	2143.926
203.475	32.171	2073.040	2135.892
204.490	32.196	2070.956	2133.784
205.504	32.295	2069.819	2133.478
206.519	31.992	2066.977	2126.848
207.534	32.445	2066.643	2131.400
208.548	33.068	2065.933	2137.504
209.563	32.334	2061.338	2124.167
210.577	32.202	2061.682	2122.761
211.592	32.946	2062.894	2132.209
212.607	31.767	2057.868	2113.397
213.621	28.508	2048.806	2066.988
214.636	28.409	2049.804	2066.629
215.650	31.540	2055.572	2107.719
216.665	32.955	2055.698	2123.601
217.680	33.072	2054.530	2123.458
218.694	33.103	2052.828	2121.792
219.709	32.394	2049.106	2109.707
220.723	32.295	2048.545	2107.760
221.738	33.178	2049.019	2117.948
222.753	33.521	2047.363	2119.835
223.767	33.134	2045.445	2113.247
224.782	32.804	2041.590	2105.312
225.796	32.898	2040.897	2105.398
226.811	33.592	2041.074	2113.105
227.826	33.474	2038.594	2108.970
228.840	33.258	2036.333	2103.956
229.855	32.927	2034.748	2098.371
230.869	32.445	2032.533	2090.460
231.884	32.507	2030.896	2089.216
232.899	32.858	2030.948	2092.929
233.913	33.052	2030.829	2094.721
234.928	33.328	2029.392	2096.063
235.942	33.238	2026.864	2092.203
236.957	32.571	2024.840	2082.449
237.972	32.749	2023.649	2082.955
238.986	32.992	2022.825	2084.551
240.001	32.607	2019.750	2076.864
241.015	32.285	2018.332	2071.590
242.030	32.364	2016.460	2070.303
243.045	30.406	2009.152	2040.941
244.059	29.609	2009.165	2031.909
245.074	32.157	2011.963	2062.656
246.088	32.579	2010.575	2065.640
247.103	32.638	2008.778	2064.194
248.117	33.129	2009.432	2070.021
249.132	33.353	2007.641	2070.401
250.147	32.857	2004.470	2061.433
251.161	32.319	2001.516	2052.245
252.176	32.654	1999.908	2054.025
253.190	32.455	1997.814	2049.448
254.205	32.337	1996.006	2046.064
255.220	32.375	1994.946	2045.149
256.234	32.039	1993.954	2040.211
257.249	32.216	1992.560	2040.479
258.263	32.417	1992.076	2041.929
259.278	32.741	1992.328	2045.471
260.293	32.943	1989.886	2044.925
261.307	32.779	1988.646	2041.620
262.322	32.714	1986.902	2038.876
263.336	32.162	1982.661	2028.296
264.351	32.019	1981.052	2024.857
265.366	32.405	1982.014	2029.784
266.380	32.880	1981.002	2033.644
267.395	32.457	1979.437	2027.213
268.409	32.409	1976.947	2023.912
269.424	32.503	1976.386	2024.102
270.439	32.626	1975.556	2024.339
271.453	32.352	1971.665	2017.158
272.468	29.690	1963.116	1979.558
273.482	28.771	1961.705	1968.008
274.497	31.010	1964.704	1994.898
275.512	32.477	1965.031	2010.754
276.526	32.655	1963.823	2011.183
277.541	32.525	1960.887	2006.544
278.555	32.082	1959.552	2000.195
279.570	32.141	1957.273	1998.262
280.585	31.753	1955.165	1991.722
281.599	32.085	1955.112	1994.976
282.614	32.167	1952.118	1992.564
283.628	30.266	1946.395	1966.255
284.643	28.906	1941.650	1946.763
285.657	28.569	1939.461	1940.751
286.672	28.472	1937.609	1937.635
287.687	28.030	1935.389	1930.497
288.701	28.331	1934.579	1932.645
289.716	28.593	1933.995	1934.604
290.730	27.981	1931.222	1925.125
291.745	28.612	1931.948	1932.297
292.760	29.437	1932.880	1941.727
293.774	30.594	1936.718	1957.601
294.789	32.658	1939.435	1981.966
295.803	33.174	1937.693	1985.397
296.818	32.694	1936.644	1979.018
297.833	33.023	1935.117	1980.688
298.847	32.899	1933.703	1977.697
299.862	32.649	1931.555	1972.632
300.876	32.199	1927.752	1963.788
301.891	30.144	1921.562	1935.707
302.906	29.329	1921.134	1926.488
303.920	31.661	1925.462	1955.107
304.935	33.193	1925.074	1970.534
305.949	33.165	1923.319	1968.215
306.964	33.302	1922.693	1968.765
307.979	32.630	1917.542	1956.251
308.993	29.698	1907.515	1915.302
310.008	26.907	1900.638	1879.152
311.022	26.651	1899.238	1874.883
312.037	27.275	1899.888	1881.788
313.052	27.334	1896.185	1878.512
314.066	26.576	1893.222	1867.494
315.081	26.453	1893.067	1865.846
316.095	26.633	1892.627	1867.049
317.110	26.858	1891.761	1868.303
318.125	27.146	1890.430	1869.745
319.139	27.020	1889.579	1867.372
320.154	27.216	1888.197	1867.811
321.168	27.048	1887.242	1864.909
322.183	28.983	1891.607	1888.992
323.197	31.775	1895.212	1921.191
324.212	32.633	1895.646	1930.239
325.227	32.369	1894.270	1925.886
326.241	32.616	1892.708	1926.612
327.256	32.723	1892.476	1927.240
328.270	32.489	1889.716	1921.802
329.285	32.404	1889.802	1920.787
330.300	31.960	1887.055	1913.217
331.314	29.139	1879.971	1876.950
332.329	28.772	1878.608	1871.606
333.343	31.220	1882.248	1900.087
334.358	32.675	1881.804	1914.274
335.373	33.001	1881.959	1917.533
336.387	33.362	1880.976	1919.987
337.402	33.331	1879.432	1917.860
338.416	33.124	1876.062	1912.092
339.431	33.038	1876.108	1911.032
340.446	33.118	1872.600	1908.037
341.460	30.349	1864.158	1871.197
342.475	28.586	1859.284	1848.257
343.489	27.843	1855.453	1836.715
344.504	27.098	1853.769	1827.296
345.519	27.036	1851.610	1824.324
346.533	26.791	1848.354	1818.427
347.548	26.686	1847.755	1816.562
348.562	26.974	1847.080	1818.582
349.577	26.960	1846.069	1817.233
350.592	27.131	1844.665	1817.348
351.606	26.986	1843.041	1814.079
352.621	26.509	1840.415	1806.484
353.635	26.410	1840.146	1805.010
354.650	28.005	1843.693	1824.296
355.665	30.950	1848.369	1858.271
356.679	32.144	1849.368	1871.020
357.694	32.503	1849.190	1874.201
358.708	32.873	1848.669	1877.151
359.723	32.109	1844.687	1865.262
360.738	29.444	1838.085	1831.809
361.752	29.246	1839.161	1830.685
362.767	31.896	1841.787	1859.537
363.781	32.740	1841.210	1867.134
364.796	33.201	1840.884	1871.169
365.810	33.295	1839.716	1870.690
366.825	32.251	1835.227	1855.545
367.840	29.183	1826.238	1815.894
368.854	26.775	1820.364	1786.018
369.869	26.394	1817.824	1779.545
370.883	26.681	1817.065	1781.430
371.898	26.982	1816.163	1783.305
372.913	27.171	1814.942	1783.751
373.927	26.778	1812.850	1777.611
374.942	26.697	1812.519	1776.276
375.956	27.289	1812.857	1782.229
376.971	27.438	1810.748	1781.404
377.986	27.081	1808.011	1774.995
379.000	27.190	1807.148	1775.003
380.015	27.599	1807.986	1779.633
381.029	30.005	1812.385	1807.379
382.044	32.778	1816.731	1838.713
383.059	33.134	1815.048	1840.277
384.073	32.608	1813.707	1833.547
385.088	32.765	1813.863	1835.023
386.102	32.773	1811.850	1832.844
387.117	32.593	1809.401	1828.392
388.132	32.752	1809.942	1830.272
389.146	32.155	1806.875	1821.137
390.161	29.405	1799.107	1786.365
391.175	28.932	1795.830	1778.302
392.190	30.609	1796.746	1795.286
393.205	31.761	1797.201	1806.702
394.219	32.228	1795.749	1809.551
395.234	32.113	1795.678	1808.148
396.248	32.355	1794.509	1809.092
397.263	32.416	1792.269	1807.203
398.278	32.416	1790.247	1804.948
399.292	32.172	1788.361	1800.487
400.307	31.150	1784.244	1786.299
401.321	29.086	1778.112	1760.129
402.336	27.801	1775.579	1745.073
403.350	27.712	1774.099	1742.558
404.365	28.206	1773.445	1746.447
405.380	28.150	1770.974	1743.263
406.394	26.875	1767.617	1727.551
407.409	26.705	1765.695	1723.845
408.423	26.880	1763.645	1723.304
409.438	26.517	1761.840	1717.875
410.453	26.281	1761.434	1715.026
411.467	26.678	1761.023	1718.201
412.482	27.129	1762.718	1723.954
413.496	30.001	1768.141	1756.474
414.511	32.308	1770.157	1780.255
415.526	32.629	1768.622	1781.546
416.540	32.654	1766.683	1779.620
417.555	32.606	1765.696	1777.959
418.569	31.908	1764.299	1769.719
419.584	31.814	1764.213	1768.530
420.599	31.883	1763.640	1768.394
421.613	32.171	1762.844	1770.114
422.628	32.286	1762.028	1770.168
423.642	32.605	1760.882	1771.818
424.657	31.649	1756.010	1757.693
425.672	31.139	1754.565	1751.229
426.686	31.817	1754.396	1757.244
427.701	31.495	1753.741	1753.338
428.715	31.473	1751.261	1750.448
429.730	31.575	1750.919	1750.853
430.745	32.356	1751.420	1758.488
431.759	33.032	1752.191	1765.401
432.774	33.273	1750.516	1765.760
433.788	30.844	1742.583	1734.835
434.803	28.080	1737.182	1703.411
435.818	27.706	1735.243	1697.811
436.832	27.782	1734.373	1697.464
437.847	26.718	1728.020	1681.134
438.861	17.204	1700.160	1566.105
439.876	3.734	1676.012	1419.917
440.890	0.414	1668.459	1382.779
441.905	0.287	1666.820	1380.088
442.920	0.036	1665.645	1376.640
443.934	0.005	1664.556	1375.293
444.949	0.107	1663.240	1374.980
445.963	0.032	1662.592	1373.587
446.978	0.072	1662.332	1373.573
447.993	0.067	1660.970	1372.242
449.007	0.128	1658.328	1370.452
450.022	0.102	1655.839	1367.994
451.036	0.184	1654.847	1367.757
452.051	1.440	1662.727	1385.626
453.066	13.311	1691.443	1519.572
454.080	25.387	1709.114	1647.294
455.095	27.977	1714.053	1675.769
456.109	30.237	1718.286	1700.554
457.124	31.212	1717.814	1708.858
458.139	30.373	1714.661	1697.813
459.153	29.660	1712.791	1689.205
460.168	29.714	1711.073	1687.811
461.182	29.836	1710.944	1688.597
462.197	30.327	1709.667	1691.631
463.212	30.890	1709.276	1696.201
464.226	31.405	1709.462	1700.889
465.241	31.543	1708.968	1701.460
466.255	31.528	1707.296	1699.451
467.270	31.666	1705.403	1698.623
468.285	32.102	1706.932	1703.918
469.299	32.620	1706.085	1707.594
470.314	32.736	1704.374	1706.727
471.328	32.577	1703.180	1703.882
472.343	32.679	1701.883	1703.311
473.358	32.402	1700.924	1699.631
474.372	32.313	1699.837	1697.531
475.387	32.881	1698.713	1701.357
476.401	32.844	1696.034	1698.139
477.416	32.212	1694.179	1690.363
478.430	31.991	1693.371	1687.359
479.445	32.280	1693.040	1689.437
480.460	32.511	1691.509	1689.792
481.474	32.349	1691.578	1688.196
482.489	32.554	1689.801	1688.069
483.503	32.209	1686.286	1681.251
484.518	31.883	1684.472	1676.313
485.533	32.180	1683.986	1678.298
486.547	32.045	1682.263	1675.164
487.562	31.457	1680.334	1667.775
488.576	31.944	1679.869	1671.477
489.591	32.450	1678.748	1674.687
490.606	32.467	1677.511	1673.406
491.620	32.632	1676.416	1673.592
492.635	32.480	1674.019	1669.642
493.649	31.948	1671.820	1662.513
494.664	31.728	1671.922	1660.453
495.679	32.234	1671.195	1664.039
496.693	32.427	1670.039	1664.401
497.708	32.447	1668.755	1663.100
498.722	32.353	1666.889	1660.207
499.737	32.399	1666.519	1660.045
500.752	32.531	1665.367	1659.868
501.766	32.597	1663.797	1658.694
502.781	32.744	1662.310	1658.311
503.795	32.853	1660.735	1657.506
504.810	32.656	1659.978	1654.814
505.825	32.423	1659.053	1651.640
506.839	32.072	1656.653	1645.954
507.854	31.754	1655.099	1641.411
508.868	31.586	1652.639	1637.300
509.883	30.784	1649.053	1626.513
510.898	30.324	1646.874	1620.137
511.912	29.888	1645.618	1614.884
512.927	29.696	1643.184	1610.618
513.941	29.805	1641.377	1609.611
514.956	30.259	1642.088	1614.081
515.971	31.041	1641.556	1620.198
516.985	30.465	1640.074	1613.515
518.000	30.026	1637.816	1607.270
519.014	29.885	1636.249	1604.319
520.029	29.881	1634.841	1602.710
521.043	29.778	1633.570	1600.379
522.058	29.795	1632.707	1599.487
523.073	29.907	1631.953	1599.529
524.087	29.965	1631.465	1599.361
525.102	30.462	1631.745	1603.762
526.116	31.230	1632.386	1610.865
527.131	31.929	1631.387	1615.735
528.146	32.049	1630.523	1615.723
529.160	32.173	1629.953	1616.040
530.175	32.333	1629.037	1616.323
531.189	32.298	1628.519	1615.312
532.204	32.172	1626.939	1612.463
533.219	32.149	1625.227	1610.372
534.233	32.206	1623.927	1609.388
535.248	31.882	1621.822	1604.319
536.262	31.582	1621.249	1600.982
537.277	32.017	1620.516	1603.805
538.292	32.332	1619.933	1605.736
539.306	32.164	1618.217	1602.402
540.321	31.810	1615.182	1596.175
541.335	31.366	1613.913	1590.937
542.350	31.803	1612.838	1593.419
543.365	32.256	1611.747	1596.022
544.379	32.537	1611.503	1597.984
545.394	32.314	1608.846	1593.258
546.408	31.851	1607.538	1587.829
547.423	31.842	1607.631	1587.661
548.438	32.709	1607.277	1594.490
549.452	32.489	1605.408	1590.583
550.467	31.957	1602.724	1583.216
551.481	31.923	1601.792	1581.824
552.496	32.102	1601.342	1582.707
553.511	31.956	1601.159	1581.095
554.525	32.257	1599.584	1581.895
555.540	32.055	1598.868	1579.296
556.554	32.232	1597.522	1579.274
557.569	32.106	1595.495	1576.010
558.583	31.641	1593.681	1570.116
559.598	31.628	1591.731	1567.893
560.613	31.329	1591.204	1564.675
561.627	31.051	1588.706	1559.694
562.642	30.615	1585.904	1553.097
563.656	30.174	1583.456	1546.813
564.671	29.997	1581.565	1543.303
565.686	29.874	1580.641	1541.187
566.700	29.738	1579.434	1538.683
567.715	29.791	1578.041	1537.584
568.729	29.914	1578.476	1538.856
569.744	30.633	1577.616	1543.835
570.759	30.828	1576.035	1543.729
571.773	30.234	1574.427	1537.024
572.788	29.993	1573.142	1533.577
573.802	29.988	1570.160	1530.447
574.817	29.850	1569.052	1528.038
575.832	29.767	1568.407	1526.536
576.846	30.389	1568.833	1531.926
577.861	31.147	1568.367	1537.570
578.875	31.473	1568.412	1540.127
579.890	31.889	1567.910	1542.891
580.905	31.995	1567.106	1542.794
581.919	32.102	1566.669	1543.064
582.934	32.172	1566.130	1542.926
583.948	31.936	1565.036	1539.719
584.963	31.872	1562.985	1536.987
585.978	31.705	1561.730	1534.192
586.992	31.391	1559.398	1529.136
588.007	31.450	1558.990	1529.040
589.021	31.132	1556.898	1524.193
590.036	30.363	1554.265	1515.127
591.051	30.843	1554.555	1519.166
592.065	31.493	1553.836	1523.606
593.080	31.605	1552.633	1523.163
594.094	31.852	1550.964	1523.356
595.109	31.710	1549.897	1520.966
596.123	32.241	1548.673	1523.918
597.138	32.269	1547.969	1523.265
598.153	32.030	1545.921	1519.127
599.167	31.731	1544.502	1515.118
600.182	31.283	1543.333	1510.152
601.196	31.602	1542.943	1512.183
602.211	31.800	1542.406	1513.083
603.226	31.842	1540.746	1511.608
604.240	31.952	1539.433	1511.037
605.255	31.895	1538.278	1509.261
606.269	31.817	1537.619	1507.801
607.284	31.893	1536.083	1506.725
608.299	31.659	1534.116	1502.726
609.313	31.332	1532.355	1498.186
610.328	31.049	1530.714	1494.130
611.342	31.312	1529.293	1494.678
612.357	31.198	1528.240	1492.551
613.372	30.867	1526.750	1488.261
614.386	30.666	1524.838	1484.607
615.401	30.734	1523.910	1484.072
616.415	30.310	1523.595	1480.184
617.430	29.975	1521.899	1475.681
618.445	29.874	1519.698	1472.563
619.459	29.891	1518.520	1471.382
620.474	29.807	1517.756	1469.796
621.488	30.268	1518.217	1473.747
622.503	31.108	1518.070	1480.126
623.518	30.421	1515.343	1471.818
624.532	29.678	1513.573	1464.011
625.547	29.619	1511.768	1461.620
626.561	29.637	1510.818	1460.670
627.576	29.608	1510.177	1459.650
628.591	29.870	1509.102	1460.509
629.605	30.284	1508.220	1462.768
630.620	30.629	1508.681	1465.767
631.634	31.597	1508.653	1473.230
632.649	31.561	1507.603	1471.745
633.663	30.768	1504.388	1462.174
634.678	30.040	1501.578	1453.527
635.693	29.658	1499.708	1448.535
636.707	29.662	1498.252	1446.988
637.722	29.638	1497.587	1445.983
638.736	30.111	1497.631	1449.570
639.751	30.744	1497.436	1454.179
640.766	31.050	1495.962	1454.977
641.780	31.080	1495.092	1454.187
642.795	31.261	1495.049	1455.393
643.809	31.390	1494.804	1455.991
644.824	31.551	1493.957	1456.248
645.839	31.858	1493.368	1457.898
646.853	31.843	1491.726	1456.009
647.868	31.550	1490.157	1452.020
648.882	31.330	1488.714	1448.719
649.897	31.218	1486.955	1445.962
650.912	31.042	1485.659	1443.160
651.926	31.006	1485.002	1442.070
652.941	31.130	1484.133	1442.020
653.955	30.989	1481.873	1438.559
654.970	30.331	1478.021	1429.550
655.985	29.906	1476.533	1424.656
656.999	29.773	1475.407	1422.370
658.014	30.008	1474.453	1423.094
659.028	30.314	1475.408	1426.208
660.043	31.038	1474.412	1430.664
661.058	31.220	1473.534	1431.040
662.072	31.151	1472.885	1429.709
663.087	31.112	1471.969	1428.346
664.101	30.920	1470.706	1425.477
665.116	31.142	1469.826	1426.157
666.131	31.291	1468.489	1425.831
667.145	31.486	1467.012	1425.725
668.160	31.360	1466.051	1423.656
669.174	31.051	1464.033	1419.159
670.189	31.255	1463.647	1420.178
671.204	31.361	1463.979	1421.138
672.218	31.348	1462.857	1419.784
673.233	31.366	1460.942	1417.892
674.247	31.324	1459.292	1415.800
675.262	31.017	1458.384	1412.407
676.276	30.978	1457.417	1411.010
677.291	31.022	1457.515	1411.266
678.306	31.435	1456.485	1413.237
679.320	31.374	1454.562	1410.742
680.335	30.850	1452.990	1405.075
681.349	30.824	1453.020	1404.743
682.364	30.959	1451.193	1403.826
683.379	30.601	1449.752	1399.555
684.393	30.284	1447.623	1394.939
685.408	30.284	1446.250	1393.451
686.422	30.165	1444.989	1391.172
687.437	29.856	1443.673	1387.412
688.452	29.682	1442.267	1384.579
689.466	29.530	1440.219	1381.310
690.481	29.541	1439.146	1380.192
691.495	29.714	1439.153	1381.334
692.510	30.580	1439.898	1388.389
693.525	31.408	1440.007	1394.544
694.539	31.003	1437.090	1388.518
695.554	29.951	1434.842	1378.313
696.568	29.566	1433.235	1373.726
697.583	29.511	1432.229	1372.189
698.598	29.628	1432.405	1373.062
699.612	29.913	1431.312	1373.980
700.627	30.167	1430.011	1374.462
701.641	30.683	1429.494	1377.638
702.656	30.808	1428.758	1377.698
703.671	30.751	1428.677	1377.030
704.685	30.908	1428.055	1377.431
705.700	31.010	1426.351	1376.377
706.714	30.766	1425.152	1373.252
707.729	30.651	1423.577	1370.711
708.744	30.702	1422.430	1369.821
709.758	30.545	1420.328	1366.474
710.773	29.867	1418.830	1359.864
711.787	29.627	1417.567	1356.719
712.802	30.336	1416.827	1361.075
713.816	30.514	1416.221	1361.643
714.831	30.687	1415.378	1361.944
715.846	30.489	1414.198	1359.189
716.860	30.372	1413.004	1357.022
717.875	30.538	1411.948	1357.062
718.889	30.244	1411.277	1354.094
719.904	30.250	1409.640	1352.408
720.919	30.379	1408.492	1352.092
721.933	30.204	1407.450	1349.649
722.948	29.983	1406.544	1347.000
723.962	30.208	1405.715	1347.686
724.977	30.264	1404.353	1346.629
725.992	30.354	1404.015	1346.801
727.006	30.739	1402.683	1348.164
728.021	30.792	1401.040	1346.814
729.035	30.662	1400.389	1345.079
730.050	30.750	1399.693	1344.886
731.065	30.506	1398.562	1341.873
732.079	30.293	1396.837	1338.514
733.094	30.577	1396.021	1339.627
734.108	30.948	1395.070	1341.237
735.123	30.749	1392.872	1337.529
736.138	30.469	1391.791	1334.311
737.152	30.290	1391.488	1332.563
738.167	30.236	1390.542	1331.110
739.181	30.399	1388.855	1330.509
740.196	30.417	1388.206	1329.856
741.211	30.098	1387.676	1326.895
742.225	30.274	1386.076	1326.473
743.240	29.986	1384.800	1323.023
744.254	29.816	1382.963	1319.893
745.269	29.649	1380.995	1316.660
746.284	29.234	1380.432	1312.992
747.298	29.240	1379.788	1312.268
748.313	29.369	1378.536	1311.841
749.327	29.918	1378.517	1315.588
750.342	30.490	1379.659	1320.609
751.356	31.351	1379.312	1326.269
752.371	31.256	1376.951	1323.158
753.386	29.951	1374.303	1311.178
754.400	29.928	1373.194	1309.794
755.415	30.222	1372.524	1311.093
756.429	30.419	1371.236	1311.101
757.444	30.571	1371.040	1311.835
758.459	30.491	1369.451	1309.593
759.473	30.387	1366.866	1306.223
760.488	30.008	1365.582	1302.165
761.502	29.656	1364.952	1298.922
762.517	29.905	1364.565	1300.154
763.532	30.259	1363.431	1301.415
764.546	29.993	1361.521	1297.568
765.561	29.536	1360.450	1293.170
766.575	29.061	1359.039	1288.339
767.590	29.066	1358.449	1287.655
768.605	29.691	1357.272	1290.775
769.619	29.933	1356.821	1291.888
770.634	30.074	1355.809	1291.762
771.648	29.702	1354.925	1288.157
772.663	29.545	1353.933	1285.960
773.678	29.817	1353.471	1287.270
774.692	29.971	1353.479	1288.201
775.707	30.059	1352.815	1288.030
776.721	30.100	1351.537	1286.948
777.736	30.050	1349.819	1284.811
778.751	30.078	1349.153	1284.213
779.765	30.194	1348.271	1284.031
780.780	30.179	1347.187	1282.741
781.794	30.299	1346.430	1282.700
782.809	29.790	1345.063	1277.713
783.824	29.155	1343.482	1271.649
784.838	29.403	1342.287	1272.084
785.853	30.245	1342.377	1277.852
786.867	29.999	1340.783	1274.478
787.882	29.493	1340.156	1270.233
788.897	29.176	1339.185	1266.968
789.911	29.182	1337.692	1265.445
790.926	29.096	1336.695	1263.755
791.940	29.234	1335.289	1263.226
792.955	29.612	1333.257	1263.757
793.969	29.391	1332.661	1261.521
794.984	29.626	1332.479	1262.812
795.999	29.675	1331.718	1262.275
797.013	29.888	1330.076	1262.025
798.028	30.021	1328.648	1261.436
799.042	29.872	1328.055	1259.699
800.057	29.882	1326.785	1258.410
801.072	29.896	1325.578	1257.214
802.086	29.786	1324.347	1255.143
803.101	29.814	1323.580	1254.456
804.115	29.641	1322.915	1252.499
805.130	29.685	1321.627	1251.432
806.145	29.743	1320.093	1250.222
807.159	29.476	1318.654	1246.892
808.174	29.639	1317.587	1246.843
809.188	29.741	1317.082	1246.904
810.203	29.582	1315.281	1243.978
811.218	29.173	1314.232	1240.070
812.232	29.055	1312.358	1237.352
813.247	28.906	1311.302	1235.202
814.261	29.126	1311.166	1236.412
815.276	29.426	1310.776	1237.922
816.291	29.356	1309.592	1236.184
817.305	29.279	1307.934	1233.951
818.320	29.355	1306.903	1233.341
819.334	29.573	1306.388	1234.176
820.349	29.752	1305.367	1234.261
821.364	29.557	1304.903	1232.368
822.378	29.501	1303.330	1230.360
823.393	29.660	1301.228	1229.291
824.407	29.615	1299.781	1227.474
825.422	29.652	1299.409	1227.227
826.437	29.430	1298.300	1224.548
827.451	29.298	1296.720	1222.038
828.466	29.513	1295.896	1222.541
829.480	30.043	1294.210	1224.331
830.495	29.632	1291.711	1219.094
831.509	29.351	1290.443	1215.887
832.524	29.223	1290.571	1215.012
833.539	29.371	1289.431	1214.773
834.553	29.639	1288.449	1215.479
835.568	29.593	1286.430	1213.121
836.582	29.527	1286.142	1212.269
837.597	29.503	1284.832	1210.733
838.612	29.335	1282.834	1207.601
839.626	29.425	1281.054	1206.369
840.641	29.301	1280.900	1205.264
841.655	29.155	1279.985	1203.301
842.670	28.815	1279.195	1200.187
843.685	28.673	1277.234	1197.272
844.699	28.995	1276.728	1198.762
845.714	29.284	1275.469	1199.329
846.728	29.116	1274.554	1197.225
847.743	28.918	1274.382	1195.625
848.758	29.235	1273.196	1196.438
849.772	29.337	1271.949	1195.787
850.787	29.499	1270.022	1194.890
851.801	29.481	1269.333	1193.980
852.816	29.327	1268.858	1192.389
853.831	29.400	1267.572	1191.511
854.845	29.398	1265.331	1189.251
855.860	29.210	1263.589	1186.253
856.874	29.019	1262.986	1184.314
857.889	29.110	1261.915	1183.755
858.904	29.548	1260.917	1185.503
859.918	29.791	1260.740	1186.763
860.933	30.302	1259.803	1189.030
861.947	29.967	1257.961	1184.993
862.962	29.331	1256.160	1179.070
863.977	29.220	1254.852	1176.986
864.991	29.126	1254.283	1175.711
866.006	28.980	1254.095	1174.459
867.020	29.136	1252.784	1174.087
868.035	29.263	1251.577	1173.631
869.049	29.322	1250.935	1173.262
870.064	29.575	1249.633	1173.520
871.079	29.513	1248.329	1171.761
872.093	29.186	1248.240	1169.449
873.108	29.135	1246.657	1167.501
874.122	29.068	1244.712	1165.113
875.137	28.666	1244.639	1162.350
876.152	28.708	1244.058	1161.930
877.166	28.826	1241.874	1160.502
878.181	28.833	1240.370	1159.003
879.195	28.839	1240.503	1159.023
880.210	29.100	1239.827	1159.910
881.225	29.344	1238.742	1160.300
882.239	29.217	1237.801	1158.478
883.254	29.311	1236.988	1158.167
884.268	29.227	1236.586	1157.125
885.283	29.308	1235.304	1156.295
886.298	29.291	1233.567	1154.424
887.312	29.331	1232.530	1153.569
888.327	29.167	1231.586	1151.516
889.341	29.360	1229.828	1150.943
890.356	29.168	1229.248	1149.059
891.371	29.194	1228.914	1148.775
892.385	29.137	1228.462	1147.855
893.400	29.117	1227.575	1146.769
894.414	29.326	1225.878	1146.353
895.429	29.521	1224.825	1146.445
896.444	30.021	1225.422	1149.991
897.458	31.126	1224.771	1156.128
898.473	30.345	1223.080	1149.535
899.487	29.545	1221.219	1142.674
900.502	29.236	1219.377	1138.891
901.517	29.176	1217.999	1137.094
902.531	29.424	1216.896	1137.466
903.546	29.360	1216.425	1136.496
904.560	29.279	1215.641	1135.123
905.575	29.205	1214.972	1133.906
906.589	29.287	1213.565	1132.966
907.604	29.062	1213.074	1130.983
