DTS Sentinel unit serial number:	SN409020Multiplexer serial number:	ORYXHardware model number:	OX4-SRSoftware version number:	ORYX F/W v3.00 Oryx Data Collector v3.7.2.0data status	okinstallation	HaddamTimeLapsedifferential loss correction	single-endedforward channel	channel 3reverse channel	N/Adate	2011/06/22time	10:06:17forward acquisition time	30.00reverse acquisition time	0.00gamma	498.7831k internal	0.1811k external	0.1811temperature offset calibration	1.0074default loss term (dB/km)	0.3790temperature slope calibration	1.3530multiplexer offset coefficient	1.0000multiplexer slope coefficient	1.0000fibre end	0.00T internal ref (°C)	29.19T ext. ref 1 (°C)	26.36T ext. ref 2 (°C)	0.21length (m)	temperature (°C)	Stokes	anti-Stokes-747.200	800.000	-0.060	-0.215
-746.185	13.105	-0.429	0.426
-745.171	524.127	0.192	-0.584
-744.156	-32.544	0.279	0.199
-743.142	-15.099	0.052	-0.043
-742.127	-160.697	0.538	-0.036
-741.112	-200.000	0.012	-0.361
-740.098	209.436	-0.194	0.391
-739.083	-116.496	-0.629	0.148
-738.069	159.565	0.270	0.484
-737.054	-85.827	0.107	-0.042
-736.039	95.699	-0.088	0.129
-735.025	-69.944	-0.148	0.072
-734.010	-85.367	-0.216	-0.086
-732.996	-200.000	-0.017	0.291
-731.981	309.642	0.153	-0.368
-730.966	-200.000	-0.071	0.514
-729.952	-18.964	-0.213	-0.170
-728.937	-200.000	0.028	0.328
-727.923	415.046	0.193	0.530
-726.908	512.156	0.125	0.375
-725.894	800.000	-0.051	0.234
-724.879	-79.266	-0.337	-0.146
-723.864	-200.000	0.026	-0.575
-722.850	60.264	0.671	-0.852
-721.835	800.000	-0.037	0.136
-720.821	-67.458	-0.554	-0.278
-719.806	-188.637	0.431	-0.007
-718.791	-200.000	-0.010	-0.344
-717.777	-66.658	0.362	-0.183
-716.762	19.109	0.254	-0.261
-715.748	-22.797	-0.198	0.153
-714.733	-153.416	0.403	0.035
-713.718	227.804	-0.075	-0.157
-712.704	-89.190	-0.068	0.026
-711.689	40.857	-0.247	-0.286
-710.675	281.145	-0.064	-0.147
-709.660	-200.000	0.076	0.566
-708.645	-101.718	0.111	-0.034
-707.631	-2.725	-0.400	0.358
-706.616	-200.000	-0.023	-0.163
-705.602	-46.683	0.296	-0.185
-704.587	-24.013	-0.672	-0.514
-703.572	-51.501	-0.233	0.139
-702.558	2.405	0.164	-0.152
-701.543	505.380	0.044	0.130
-700.529	-200.000	0.054	-0.339
-699.514	-20.672	0.131	0.103
-698.499	-84.238	0.330	-0.133
-697.485	-67.279	0.281	0.141
-696.470	22.743	0.240	-0.252
-695.456	550.416	0.181	0.560
-694.441	288.721	0.183	-0.426
-693.426	-200.000	0.027	-0.440
-692.412	-54.992	0.185	-0.106
-691.397	-74.806	0.057	-0.026
-690.383	-174.846	-0.086	-0.003
-689.368	-200.000	0.014	-0.228
-688.354	31.914	-0.475	-0.525
-687.339	-31.629	0.448	0.321
-686.324	-55.594	-0.288	0.165
-685.310	156.331	0.185	0.328
-684.295	375.599	-0.108	-0.284
-683.281	113.198	0.270	0.421
-682.266	-200.000	0.012	-0.361
-681.251	-200.000	-0.061	-0.565
-680.237	-173.864	-0.622	-0.023
-679.222	-120.603	-0.372	-0.080
-678.208	773.619	-0.145	-0.510
-677.193	800.000	-0.071	-0.295
-676.178	188.505	0.063	-0.120
-675.164	800.000	-0.091	0.374
-674.149	-70.102	0.391	-0.190
-673.135	2.131	-0.180	0.166
-672.120	-131.307	-0.243	-0.041
-671.105	467.449	-0.076	-0.220
-670.091	-136.812	-0.414	0.060
-669.076	80.720	-0.205	-0.283
-668.062	116.906	-0.121	-0.190
-667.047	-79.461	-0.076	-0.033
-666.032	-200.000	-0.005	-0.483
-665.018	2.187	0.413	0.382
-664.003	-200.000	0.004	0.333
-662.989	-142.251	0.197	-0.025
-661.974	-200.000	0.041	0.261
-660.959	292.078	-0.264	0.618
-659.945	66.403	0.141	0.183
-658.930	-89.391	0.760	-0.285
-657.916	-160.657	-0.310	0.021
-656.901	147.851	0.090	-0.156
-655.886	-56.966	-0.284	0.160
-654.872	145.434	-0.373	-0.640
-653.857	59.923	-0.264	-0.334
-652.843	-106.499	0.197	-0.056
-651.828	-68.652	-0.315	-0.155
-650.814	255.180	0.099	0.218
-649.799	69.906	0.260	-0.344
-648.784	385.112	0.170	0.451
-647.770	-200.000	-0.058	-0.434
-646.755	-12.963	0.125	-0.104
-645.741	302.638	0.126	-0.300
-644.726	31.707	0.112	0.123
-643.711	60.354	-0.289	0.366
-642.697	-18.879	0.327	-0.260
-641.682	146.183	-0.147	0.252
-640.668	-29.831	-0.116	0.084
-639.653	-140.083	0.431	0.057
-638.638	-49.730	0.586	0.355
-637.624	312.149	-0.167	0.402
-636.609	34.066	-0.238	0.266
-635.595	-110.176	-0.104	-0.028
-634.580	800.000	0.041	-0.190
-633.565	-186.604	-0.245	0.004
-632.551	159.199	-0.185	-0.330
-631.536	170.236	0.094	-0.173
-630.522	35.062	0.088	-0.099
-629.507	376.913	-0.039	-0.103
-628.492	127.391	-0.297	0.483
-627.478	-75.747	0.307	-0.139
-626.463	230.718	-0.363	0.763
-625.449	-120.672	0.259	-0.056
-624.434	-152.434	-0.428	0.039
-623.419	-200.000	0.020	-0.495
-622.405	-184.509	0.239	-0.005
-621.390	440.571	-0.038	0.105
-620.376	-170.763	-0.215	0.009
-619.361	246.465	0.059	-0.127
-618.346	-106.822	-0.401	-0.113
-617.332	-200.000	-0.012	-0.466
-616.317	-123.583	0.297	0.060
-615.303	-122.945	0.363	0.074
-614.288	19.899	0.036	-0.037
-613.273	18.913	0.262	0.268
-612.259	-108.423	0.335	-0.092
-611.244	-117.858	-0.225	-0.051
-610.230	133.910	0.285	0.472
-609.215	534.533	-0.035	-0.106
-608.201	207.018	0.191	0.381
-607.186	-172.122	0.429	-0.017
-606.171	515.359	-0.123	0.368
-605.157	-43.895	0.176	0.113
-604.142	-133.906	-0.970	-0.152
-603.128	-161.959	-0.711	0.045
-602.113	-159.063	-0.237	0.017
-601.098	49.069	-0.132	0.159
-600.084	-200.000	-0.004	-0.073
-599.069	544.641	0.133	0.409
-598.055	-45.838	0.134	-0.084
-597.040	170.181	0.100	0.183
-596.025	-52.373	0.240	-0.141
-595.011	18.964	-0.286	-0.292
-593.996	120.133	-0.203	-0.322
-592.982	237.979	0.212	-0.450
-591.967	-200.000	0.021	0.157
-590.952	73.281	-0.292	0.390
-589.938	-1.453	0.142	0.128
-588.923	-25.518	0.159	0.120
-587.909	-69.875	-0.196	0.095
-586.894	-19.427	0.248	0.196
-585.879	-55.529	0.625	0.356
-584.865	24.423	-0.200	-0.211
-583.850	-95.054	-0.337	0.115
-582.836	724.580	-0.026	-0.089
-581.821	-37.945	-0.155	0.105
-580.806	-96.798	-0.115	-0.038
-579.792	13.097	0.252	-0.249
-578.777	-118.859	-0.227	0.050
-577.763	-200.000	-0.060	0.403
-576.748	-81.705	-0.496	-0.206
-575.733	-46.854	0.155	0.096
-574.719	129.998	-0.132	-0.216
-573.704	-97.133	0.503	-0.167
-572.690	-56.849	-0.139	0.078
-571.675	-51.309	0.291	-0.173
-570.661	-200.000	-0.043	0.327
-569.646	191.702	-0.103	0.198
-568.631	663.070	-0.046	0.152
-567.617	11.557	0.268	0.262
-566.602	-153.269	0.413	-0.036
-565.588	28.775	0.330	0.356
-564.573	27.509	0.062	-0.066
-563.558	-146.192	0.343	-0.038
-562.544	342.593	0.109	0.273
-561.529	-200.000	0.030	0.387
-560.515	330.381	-0.193	0.476
-559.500	-70.145	-0.402	0.194
-558.485	43.346	0.061	-0.071
-557.471	-138.556	0.286	-0.040
-556.456	33.291	0.231	0.256
-555.442	-84.103	0.169	-0.068
-554.427	-56.128	-0.082	0.046
-553.412	392.297	-0.088	0.235
-552.398	-107.376	-0.365	0.102
-551.383	-109.129	-0.170	-0.046
-550.369	71.800	-0.058	-0.077
-549.354	227.478	0.255	0.531
-548.339	-55.375	0.158	-0.090
-547.325	410.814	-0.068	0.186
-546.310	105.490	-0.195	0.294
-545.296	2.531	-0.249	0.229
-544.281	86.984	-0.281	0.397
-543.266	161.928	-0.025	-0.045
-542.252	648.282	-0.128	-0.418
-541.237	74.022	0.101	-0.136
-540.223	737.034	0.193	-0.662
-539.208	800.000	0.046	0.193
-538.193	79.826	0.191	0.262
-537.179	-69.433	-0.390	-0.190
-536.164	-29.641	0.234	0.170
-535.150	45.787	0.043	0.050
-534.135	409.590	-0.130	0.352
-533.121	-16.929	0.080	-0.064
-532.106	-12.751	0.200	0.166
-531.091	23.485	-0.236	-0.247
-530.077	-200.000	0.050	0.562
-529.062	-160.568	-0.530	0.035
-528.048	-200.000	-0.022	-0.451
-527.033	-41.535	-0.244	-0.160
-526.018	-156.154	-0.326	-0.026
-525.004	259.720	0.066	0.145
-523.989	800.000	0.086	-0.365
-522.975	-145.707	0.454	0.051
-521.960	399.199	-0.103	0.276
-520.945	-59.572	-0.290	-0.158
-519.931	-25.609	0.163	0.122
-518.916	42.916	-0.319	-0.371
-517.902	75.871	0.361	-0.486
-516.887	-200.000	0.060	-0.372
-515.872	-200.000	-0.023	-0.161
-514.858	-26.680	-0.393	0.292
-513.843	54.444	0.013	-0.015
-512.829	800.000	-0.064	-0.316
-511.814	800.000	-0.008	-0.042
-510.799	-200.000	-0.039	-0.408
-509.785	105.545	0.209	-0.314
-508.770	800.000	-0.066	-0.243
-507.756	-170.522	-0.104	0.005
-506.741	-130.232	0.528	0.090
-505.726	-5.457	0.525	-0.458
-504.712	-124.585	0.124	0.024
-503.697	-125.807	-0.402	-0.077
-502.683	547.517	-0.142	-0.436
-501.668	33.642	0.120	-0.133
-500.653	639.261	-0.099	0.323
-499.639	35.921	-0.129	0.145
-498.624	-135.771	-0.546	-0.081
-497.610	-10.260	0.259	-0.218
-496.595	336.954	-0.103	-0.256
-495.581	-200.000	0.007	-0.210
-494.566	297.566	0.121	-0.284
-493.551	-98.391	0.557	-0.180
-492.537	101.766	0.134	0.199
-491.522	-200.000	0.050	0.354
-490.508	-56.572	-0.246	0.138
-489.493	-200.000	-0.013	-0.261
-488.478	-154.032	0.175	-0.015
-487.464	496.847	-0.171	0.502
-486.449	-200.000	-0.038	-0.503
-485.435	7.977	0.062	-0.059
-484.420	-2.843	0.231	0.205
-483.405	-89.960	0.101	-0.037
-482.391	-160.295	-0.069	0.005
-481.376	492.610	0.166	-0.485
-480.362	88.255	0.177	-0.250
-479.347	93.057	0.039	0.056
-478.332	73.412	-0.256	-0.340
-477.318	30.598	-0.304	-0.331
-476.303	186.320	-0.077	-0.146
-475.289	92.426	-0.337	0.484
-474.274	336.531	0.218	0.539
-473.259	-170.402	-0.130	-0.006
-472.245	7.946	-0.153	-0.145
-471.230	-109.704	-0.112	0.030
-470.216	800.000	0.084	0.396
-469.201	-137.119	0.316	-0.045
-468.186	-131.060	0.077	-0.013
-467.172	-108.503	0.301	0.082
-466.157	-90.245	-0.216	0.079
-465.143	-43.732	0.331	0.211
-464.128	800.000	0.139	-0.512
-463.113	-153.999	-0.099	0.008
-462.099	60.662	-0.205	-0.258
-461.084	10.622	0.137	-0.132
-460.070	21.232	-0.104	-0.107
-459.055	-12.713	0.215	-0.178
-458.040	-29.039	0.026	-0.019
-457.026	-200.000	0.006	0.056
-456.011	-151.520	0.276	0.026
-454.997	-3.688	-0.063	-0.055
-453.982	-13.264	-0.125	-0.103
-452.968	-6.950	-0.289	0.249
-451.953	-19.962	0.052	-0.041
-450.938	-36.335	0.276	0.188
-449.924	-27.146	-0.151	0.111
-448.909	-128.026	-0.189	0.034
-447.895	-200.000	0.038	-0.504
-446.880	-71.174	0.238	-0.113
-445.865	89.619	-0.313	-0.444
-444.851	-65.985	0.148	-0.075
-443.836	193.951	-0.083	-0.160
-442.822	-200.000	-0.025	0.550
-441.807	-61.949	-0.412	-0.218
-440.792	-200.000	-0.064	-0.532
-439.778	27.233	0.181	0.193
-438.763	-173.403	0.452	-0.017
-437.749	-34.681	0.223	-0.154
-436.734	-200.000	0.019	-0.109
-435.719	-200.000	0.012	0.190
-434.705	83.142	0.161	0.222
-433.690	-122.658	0.263	-0.054
-432.676	117.656	-0.340	-0.531
-431.661	-200.000	-0.031	0.538
-430.646	76.498	0.327	0.440
-429.632	325.542	0.291	0.708
-428.617	-105.671	0.355	0.101
-427.603	-152.663	0.595	0.053
-426.588	-39.256	0.595	-0.395
-425.573	113.985	-0.145	-0.223
-424.559	29.540	0.193	0.208
-423.544	46.969	-0.186	-0.219
-422.530	-103.533	-0.124	-0.037
-421.515	800.000	-0.041	-0.149
-420.500	-200.000	-0.017	-0.097
-419.486	-200.000	-0.017	-0.283
-418.471	-88.091	0.097	-0.037
-417.457	-38.744	-0.370	-0.247
-416.442	-73.361	-0.405	-0.187
-415.428	-49.498	-0.187	-0.113
-414.413	-62.248	0.290	0.153
-413.398	33.414	0.255	-0.281
-412.384	153.248	-0.168	-0.292
-411.369	454.864	0.090	0.255
-410.355	800.000	-0.017	-0.084
-409.340	-10.008	0.140	-0.118
-408.325	-154.283	-0.274	0.023
-407.311	-33.183	-0.153	0.107
-406.296	-89.705	0.441	0.163
-405.282	143.276	0.155	-0.261
-404.267	96.191	-0.207	-0.300
-403.252	-168.785	-0.145	-0.007
-402.238	4.929	-0.209	-0.195
-401.223	302.623	0.140	-0.329
-400.209	800.000	0.018	-0.092
-399.194	-136.566	-0.196	-0.028
-398.179	-159.170	0.050	-0.004
-397.165	293.608	-0.138	-0.319
-396.150	311.660	-0.158	-0.376
-395.136	289.500	-0.178	0.411
-394.121	29.211	-0.220	-0.237
-393.106	-71.248	0.188	0.089
-392.092	-200.000	-0.055	0.469
-391.077	-132.822	0.322	0.051
-390.063	579.846	0.023	0.072
-389.048	-200.000	-0.007	-0.092
-388.033	539.781	-0.073	-0.222
-387.019	134.808	-0.113	-0.186
-386.004	-200.000	-0.016	0.331
-384.990	-14.894	0.118	0.096
-383.975	-88.534	-0.386	-0.145
-382.960	-31.052	0.094	0.067
-381.946	-172.701	-0.416	0.016
-380.931	-36.381	0.198	0.135
-379.917	-10.757	0.196	-0.163
-378.902	38.531	0.183	0.206
-377.888	-80.503	0.358	0.150
-376.873	-200.000	-0.015	-0.135
-375.858	-109.292	-0.364	0.097
-374.844	-115.981	0.366	0.086
-373.829	623.387	-0.278	0.890
-372.815	-200.000	0.060	0.471
-371.800	-200.000	-0.035	0.402
-370.785	-46.811	-0.095	-0.059
-369.771	-172.759	0.108	-0.004
-368.756	-45.992	0.137	-0.085
-367.742	-105.408	0.357	-0.102
-366.727	117.810	0.246	-0.384
-365.712	-61.991	-0.124	-0.065
-364.698	-200.000	0.033	-0.413
-363.683	800.000	0.013	-0.055
-362.669	800.000	0.043	-0.160
-361.654	-87.224	0.135	-0.052
-360.639	128.605	0.203	0.328
-359.625	-84.652	0.425	0.169
-358.610	-47.174	-0.161	0.099
-357.596	-171.367	-0.568	0.024
-356.581	243.935	-0.110	-0.234
-355.566	-154.872	0.491	-0.040
-354.552	346.695	-0.061	-0.151
-353.537	10.308	0.297	-0.285
-352.523	126.085	-0.145	-0.233
-351.508	-200.000	-0.028	-0.211
-350.493	-73.193	0.555	0.256
-349.479	-85.497	-0.113	-0.044
-348.464	-143.398	0.446	-0.053
-347.450	16.526	-0.143	-0.143
-346.435	-200.000	0.005	-0.397
-345.420	385.122	0.146	-0.383
-344.406	-200.000	-0.021	0.202
-343.391	-134.884	0.426	-0.064
-342.377	406.163	0.097	-0.260
-341.362	701.102	-0.084	-0.283
-340.348	35.546	-0.146	-0.162
-339.333	-200.000	-0.027	-0.225
-338.318	800.000	0.019	0.094
-337.304	89.950	0.268	-0.379
-336.289	217.345	0.133	-0.269
-335.275	-62.236	-0.271	-0.142
-334.260	-200.000	0.036	-0.335
-333.245	-43.194	0.049	0.031
-332.231	-112.572	0.175	-0.044
-331.216	27.055	0.190	-0.201
-330.202	-140.996	-0.376	0.048
-329.187	-14.168	0.351	0.286
-328.172	-8.965	-0.047	0.040
-327.158	292.694	0.262	0.606
-326.143	-55.886	-0.094	0.053
-325.129	727.796	0.052	0.178
-324.114	-30.887	-0.359	0.256
-323.099	-175.594	0.424	-0.014
-322.085	-200.000	0.037	0.441
-321.070	-45.271	0.205	-0.128
-320.056	-11.417	-0.253	-0.210
-319.041	-136.407	-0.575	0.084
-318.026	800.000	-0.035	-0.135
-317.012	-33.148	-0.519	-0.362
-315.997	-200.000	-0.030	-0.360
-314.983	-200.000	-0.011	-0.529
-313.968	0.782	-0.301	-0.272
-312.953	-200.000	0.011	-0.134
-311.939	78.715	-0.191	0.258
-310.924	-200.000	-0.033	0.442
-309.910	-125.301	-0.210	-0.040
-308.895	-171.933	-0.332	-0.013
-307.880	97.754	-0.268	-0.390
-306.866	-200.000	-0.066	-0.417
-305.851	-130.098	0.355	-0.061
-304.837	89.475	0.129	-0.182
-303.822	-200.000	0.069	0.433
-302.807	-14.969	-0.234	0.189
-301.793	800.000	0.090	0.435
-300.778	-27.961	-0.110	-0.080
-299.764	-38.268	-0.527	0.351
-298.749	-120.635	-0.172	-0.036
-297.735	-14.676	-0.221	0.179
-296.720	-126.644	-0.438	-0.081
-295.705	-20.377	-0.158	0.122
-294.691	-74.179	0.195	0.089
-293.676	21.557	0.309	0.317
-292.662	-200.000	-0.029	0.562
-291.647	275.560	-0.055	-0.123
-290.632	684.708	-0.070	0.231
-289.618	-121.085	-0.442	-0.093
-288.603	157.680	-0.192	-0.335
-287.589	-100.737	-0.196	-0.061
-286.574	-6.369	-0.223	-0.191
-285.559	800.000	-0.041	-0.180
-284.545	-200.000	0.042	-0.262
-283.530	412.025	-0.041	0.109
-282.516	-53.947	-0.306	-0.176
-281.501	-91.245	0.757	-0.272
-280.486	113.104	0.158	-0.242
-279.472	138.044	0.128	0.212
-278.457	-77.519	0.289	0.126
-277.443	54.049	-0.216	-0.262
-276.428	-90.236	-0.332	0.121
-275.413	800.000	-0.049	0.194
-274.399	45.338	0.165	0.192
-273.384	292.056	0.264	0.608
-272.370	-200.000	0.035	0.355
-271.355	47.189	-0.108	-0.126
-270.340	190.962	-0.151	0.287
-269.326	85.341	-0.132	0.183
-268.311	-86.442	-0.607	0.234
-267.297	-200.000	0.022	-0.212
-266.282	-97.431	0.546	0.178
-265.267	13.810	0.125	0.122
-264.253	155.874	0.060	-0.104
-263.238	446.945	0.098	-0.272
-262.224	-179.202	-0.254	0.007
-261.209	-17.537	0.262	-0.207
-260.195	-200.000	-0.015	-0.099
-259.180	63.865	-0.196	0.249
-258.165	-153.867	0.423	0.036
-257.151	190.736	-0.186	0.354
-256.136	-126.744	0.145	0.027
-255.122	-1.494	-0.297	-0.263
-254.107	-200.000	0.044	-0.345
-253.092	-47.678	0.292	0.178
-252.078	-74.475	-0.314	-0.142
-251.063	-200.000	0.003	0.156
-250.049	-200.000	-0.034	0.386
-249.034	-98.944	0.389	-0.124
-248.019	-67.288	-0.453	0.223
-247.005	-186.558	-0.324	-0.006
-245.990	800.000	0.152	-0.580
-244.976	800.000	0.102	-0.505
-243.961	67.307	0.273	-0.351
-242.946	-27.426	-0.233	0.170
-241.932	-64.478	0.590	0.301
-240.917	-200.000	-0.346	0.001
-239.903	-116.854	-0.325	-0.074
-238.888	274.358	-0.162	0.363
-237.873	-200.000	0.009	0.273
-236.859	-170.126	0.279	0.012
-235.844	-89.704	0.288	0.106
-234.830	-45.071	0.181	-0.113
-233.815	534.026	-0.089	0.266
-232.800	522.221	-0.092	-0.273
-231.786	130.647	0.085	-0.138
-230.771	160.131	0.188	-0.331
-229.757	481.563	0.114	0.327
-228.742	800.000	0.065	-0.314
-227.727	-86.179	0.397	-0.153
-226.713	791.654	0.165	0.576
-225.698	36.091	-0.165	0.183
-224.684	-200.000	0.032	-0.368
-223.669	-115.977	0.326	0.076
-222.655	-168.164	0.169	0.008
-221.640	-46.979	-0.902	0.553
-220.625	19.366	-0.042	-0.042
-219.611	40.867	0.139	-0.158
-218.596	13.880	-0.279	-0.273
-217.582	-35.376	-0.164	0.112
-216.567	130.743	-0.129	-0.208
-215.552	-200.000	0.009	0.076
-214.538	-108.237	0.246	0.066
-213.523	-44.979	-0.460	0.287
-212.509	139.642	0.092	-0.153
-211.494	31.527	0.203	0.220
-210.479	-115.185	0.416	-0.098
-209.465	28.227	-0.507	0.538
-208.450	-200.000	-0.040	0.255
-207.436	114.268	-0.085	0.131
-206.421	-200.000	0.007	0.318
-205.406	-200.000	0.037	0.243
-204.392	-125.867	0.496	0.093
-203.377	-59.195	0.220	0.119
-202.363	-45.394	-0.097	-0.060
-201.348	-200.000	0.031	0.373
-200.333	-116.707	-0.181	0.042
-199.319	215.029	0.043	0.086
-198.304	-109.409	0.834	-0.220
-197.290	373.609	0.156	0.402
-196.275	745.253	-0.057	0.196
-195.260	39.330	-0.124	-0.140
-194.246	-53.716	0.292	0.167
-193.231	-82.677	0.346	-0.140
-192.217	-94.523	-0.240	0.082
-191.202	-127.210	-0.851	-0.155
-190.187	-57.427	-0.137	0.075
-189.173	-200.000	-0.044	-0.305
-188.158	318.834	-0.199	0.476
-187.144	261.529	0.096	-0.209
-186.129	800.000	0.059	-0.246
-185.114	-200.000	0.030	0.389
-184.100	-125.776	0.334	0.063
-183.085	93.291	-0.265	0.378
-182.071	800.000	-0.055	-0.276
-181.056	-53.766	-0.089	0.051
-180.042	3.324	0.047	-0.043
-179.027	225.950	-0.103	-0.211
-178.012	-27.853	0.077	-0.056
-176.998	112.632	0.465	0.709
-175.983	162.343	-0.160	0.283
-174.969	-44.287	-0.450	-0.282
-173.954	-161.573	-0.079	-0.005
-172.939	-54.139	0.270	-0.154
-171.925	31.868	-0.123	-0.133
-170.910	-158.765	-0.243	0.017
-169.896	-200.000	0.061	-0.504
-168.881	-157.183	0.317	-0.024
-167.866	152.796	-0.156	0.268
-166.852	-112.682	-0.328	0.081
-165.837	742.923	0.066	0.225
-164.823	113.265	-0.016	-0.024
-163.808	-159.427	-0.297	0.020
-162.793	178.596	-0.036	-0.066
-161.779	-138.738	-0.200	-0.027
-160.764	21.220	-0.320	-0.326
-159.750	-96.078	-0.212	0.070
-158.735	800.000	-0.034	-0.137
-157.720	-79.007	-0.131	-0.056
-156.706	800.000	-0.149	-0.581
-155.691	-16.398	-0.284	-0.226
-154.677	-123.750	0.298	0.059
-153.662	800.000	-0.137	0.555
-152.647	-66.280	-0.248	-0.124
-151.633	196.066	0.087	-0.166
-150.618	158.816	-0.054	0.095
-149.604	369.748	0.094	0.239
-148.589	420.501	-0.159	-0.430
-147.574	7.098	-0.290	-0.271
-146.560	-27.988	-0.332	-0.240
-145.545	0.793	-0.142	-0.127
-144.531	-200.000	0.006	0.376
-143.516	-11.009	0.165	-0.136
-142.502	-200.000	-0.013	-0.239
-141.487	-44.344	-0.169	-0.106
-140.472	-8.774	0.099	0.083
-139.458	-200.000	-0.062	-0.402
-138.443	-104.212	-0.579	-0.168
-137.429	-200.000	0.015	-0.345
-136.414	-111.073	0.135	0.034
-135.399	-52.578	-0.184	-0.106
-134.385	-71.008	-0.300	0.141
-133.370	104.144	0.181	-0.268
-132.356	49.571	-0.183	-0.217
-131.341	138.815	0.171	0.283
-130.326	16.584	0.204	-0.202
-129.312	-142.365	0.162	-0.020
-128.297	-195.204	0.385	-0.004
-127.283	-121.302	0.277	-0.057
-126.268	121.276	-0.163	-0.255
-125.253	494.674	0.118	-0.341
-124.239	-104.036	-0.300	0.087
-123.224	-175.535	-0.170	-0.006
-122.210	426.683	-0.132	-0.359
-121.195	283.565	0.034	0.076
-120.180	-118.175	0.283	0.063
-119.166	-172.646	0.262	-0.010
-118.151	-29.054	-0.067	0.048
-117.137	252.489	0.183	0.393
-116.122	44.036	-0.217	0.250
-115.107	-197.241	-0.309	-0.002
-114.093	800.000	-0.105	-0.376
-113.078	-118.640	-0.220	-0.048
-112.064	50.091	0.403	0.477
-111.049	454.219	-0.115	0.322
-110.034	-6.625	-0.393	-0.335
-109.020	-200.000	-0.010	-0.490
-108.005	12.304	-0.163	-0.157
-106.991	71.101	0.072	0.094
-105.976	72.341	-0.111	-0.145
-104.962	255.853	0.236	0.509
-103.947	-72.880	-0.465	0.213
-102.932	76.900	-0.131	0.174
-101.918	-58.839	-0.369	-0.199
-100.903	246.117	0.103	-0.217
-99.889	-116.958	0.157	0.036
-98.874	-200.000	0.014	-0.113
-97.859	64.736	-0.050	-0.064
-96.845	-85.185	0.172	0.067
-95.830	-61.811	-0.425	0.222
-94.816	-152.997	0.489	0.043
-93.801	-200.000	0.026	0.458
-92.786	-68.881	0.349	0.168
-91.772	372.252	-0.098	0.250
-90.757	611.090	0.010	0.032
-89.743	-122.203	0.368	0.075
-88.728	92.668	0.038	-0.054
-87.713	-132.190	-0.417	-0.067
-86.699	-164.803	-0.236	-0.013
-85.684	-70.251	-0.159	-0.075
-84.670	36.746	-0.383	-0.424
-83.655	13.149	-0.221	0.214
-82.640	35.307	0.196	0.216
-81.626	-126.335	0.503	-0.093
-80.611	-200.000	0.009	-0.122
-79.597	64.748	0.151	0.190
-78.582	621.094	0.130	-0.411
-77.567	-200.000	-0.480	-0.000
-76.553	211.141	-0.052	0.103
-75.538	66.982	0.215	-0.275
-74.524	800.000	-0.058	0.224
-73.509	91.731	-0.024	-0.035
-72.494	172.939	0.027	-0.049
-71.480	-148.651	0.723	-0.073
-70.465	-24.339	0.222	0.165
-69.451	-10.067	-0.078	-0.064
-68.436	-117.027	-0.287	0.065
-67.422	19.194	-0.227	0.228
-66.407	-152.139	-0.229	0.020
-65.392	90.409	-0.370	-0.519
-64.378	-107.526	0.242	-0.066
-63.363	-116.084	-0.561	-0.129
-62.349	235.827	0.110	0.228
-61.334	29.600	-1.449	-1.541
-60.319	11.330	1.031	0.986
-59.305	244.096	-3.189	-6.717
-58.290	71.238	2.952	3.832
-57.276	339.697	4.274	10.464
-56.261	-200.000	15.451	249.453
-55.246	448.393	1191.769	3297.751
-54.232	63.552	2810.144	3528.577
-53.217	72.172	2707.084	3527.074
-52.203	56.766	2443.957	2976.432
-51.188	37.183	2100.653	2325.446
-50.173	32.098	1978.360	2132.129
-49.159	30.093	1967.412	2097.457
-48.144	29.697	1962.425	2087.562
-47.130	29.524	1961.281	2084.301
-46.115	29.597	1958.953	2082.573
-45.100	29.527	1957.205	2079.833
-44.086	29.311	1956.846	2076.930
-43.071	29.437	1954.525	2075.809
-42.057	29.495	1953.030	2074.794
-41.042	29.448	1951.256	2072.298
-40.027	29.396	1950.344	2070.660
-39.013	29.316	1948.906	2068.148
-37.998	29.321	1947.756	2066.898
-36.984	29.270	1946.399	2064.804
-35.969	29.331	1944.677	2063.582
-34.954	29.228	1943.768	2061.379
-33.940	29.329	1942.961	2061.574
-32.925	29.406	1940.350	2059.588
-31.911	29.255	1939.885	2057.318
-30.896	29.327	1938.486	2056.561
-29.881	29.387	1937.062	2055.632
-28.867	29.284	1935.862	2053.127
-27.852	29.245	1934.334	2050.986
-26.838	29.263	1932.872	2049.561
-25.823	29.167	1932.062	2047.553
-24.809	29.182	1930.696	2046.181
-23.794	29.347	1928.577	2045.697
-22.779	29.112	1928.148	2042.546
-21.765	29.087	1926.580	2040.522
-20.750	29.146	1924.865	2039.279
-19.736	29.088	1924.359	2038.022
-18.721	29.141	1922.345	2036.396
-17.706	29.102	1921.746	2035.251
-16.692	29.097	1920.728	2034.036
-15.677	29.144	1919.382	2033.041
-14.663	29.146	1917.601	2031.099
-13.648	29.171	1916.837	2030.495
-12.633	29.121	1915.738	2028.696
-11.619	29.076	1914.348	2026.639
-10.604	29.071	1913.308	2025.408
-9.590	29.114	1910.909	2023.254
-8.575	29.084	1910.340	2022.241
-7.560	29.150	1909.108	2021.589
-6.546	29.027	1907.778	2018.742
-5.531	29.053	1906.655	2017.759
-4.517	29.040	1905.410	2016.217
-3.502	29.111	1903.782	2015.205
-2.487	29.123	1903.656	2015.116
-1.473	29.206	1900.662	2012.784
-0.458	29.471	1881.755	1995.563
0.556	26.700	2024.214	2101.827
1.571	25.985	2239.901	2316.277
2.586	27.274	2284.739	2379.328
3.600	27.278	2288.083	2382.571
4.615	27.385	2287.075	2382.639
5.629	27.337	2285.403	2379.981
6.644	27.376	2284.176	2378.939
7.659	27.325	2282.123	2375.847
8.673	27.479	2280.492	2375.874
9.688	26.947	2286.324	2374.677
10.702	24.839	2362.028	2424.341
11.717	22.904	2428.523	2465.170
12.731	11.749	2398.452	2278.959
13.746	1.977	2370.994	2116.782
14.761	0.523	2366.600	2092.366
15.775	0.361	2364.771	2088.235
16.790	0.246	2364.243	2085.917
17.804	0.337	2362.159	2085.101
18.819	0.276	2361.187	2083.136
19.834	0.211	2357.940	2079.130
20.848	0.325	2357.219	2079.821
21.863	0.211	2355.719	2076.674
22.877	0.222	2354.730	2075.697
23.892	0.287	2351.592	2073.584
24.907	0.261	2349.217	2070.884
25.921	0.215	2348.313	2069.211
26.936	0.225	2345.091	2066.258
27.950	0.167	2342.958	2063.326
28.965	0.223	2340.658	2061.834
29.980	0.205	2339.121	2059.976
30.994	0.395	2336.846	2060.334
32.009	5.723	2356.523	2151.085
33.023	20.269	2400.918	2394.521
34.038	28.371	2420.236	2526.293
35.053	30.257	2422.985	2555.006
36.067	30.205	2419.519	2550.323
37.082	29.551	2414.685	2535.906
38.096	29.188	2412.227	2528.013
39.111	29.691	2410.735	2533.075
40.126	30.452	2412.398	2545.008
41.140	31.638	2414.278	2563.012
42.155	31.197	2410.467	2552.596
43.169	30.747	2408.550	2544.089
44.184	31.094	2406.238	2546.101
45.199	30.997	2402.651	2540.670
46.213	30.371	2400.649	2529.676
47.228	30.293	2398.745	2526.301
48.242	30.412	2397.922	2526.758
49.257	30.561	2396.647	2527.149
50.271	30.854	2394.042	2528.096
51.286	30.781	2391.552	2524.173
52.301	30.521	2388.249	2516.851
53.315	29.392	2383.923	2496.640
54.330	26.286	2371.996	2441.733
55.344	24.184	2363.851	2404.572
56.359	23.969	2360.095	2397.557
57.374	23.713	2358.214	2391.890
58.388	23.597	2355.160	2386.937
59.403	23.936	2352.744	2388.786
60.417	24.408	2351.535	2393.636
61.432	24.602	2349.669	2394.064
62.447	24.461	2347.594	2389.762
63.461	24.295	2345.059	2384.664
64.476	24.282	2342.781	2381.884
65.490	24.778	2344.361	2389.871
66.505	26.012	2346.837	2408.689
67.520	28.019	2353.580	2442.301
68.534	29.476	2355.651	2463.720
69.549	30.527	2354.114	2475.907
70.563	30.904	2353.553	2480.068
71.578	30.874	2352.080	2477.811
72.593	30.978	2350.388	2477.124
73.607	31.079	2349.382	2477.113
74.622	31.230	2348.092	2477.476
75.636	31.081	2344.325	2471.217
76.651	30.861	2342.256	2465.816
77.666	31.069	2339.959	2465.862
78.680	31.184	2339.101	2466.199
79.695	31.695	2339.667	2473.280
80.709	32.247	2339.380	2480.011
81.724	32.503	2337.261	2480.851
82.739	32.359	2333.883	2475.061
83.753	32.076	2331.856	2468.878
84.768	31.884	2329.743	2463.817
85.782	31.613	2327.346	2457.405
86.797	31.333	2325.534	2451.506
87.812	31.285	2322.121	2446.978
88.826	31.237	2319.265	2443.057
89.841	31.423	2318.949	2444.873
90.855	31.949	2317.061	2449.496
91.870	31.377	2314.161	2438.634
92.884	31.122	2314.071	2434.910
93.899	31.450	2313.527	2438.343
94.914	30.257	2307.192	2415.774
95.928	26.903	2296.238	2360.233
96.943	25.634	2291.336	2338.349
97.957	28.288	2298.620	2380.225
98.972	30.520	2301.736	2412.335
99.987	30.397	2298.766	2407.333
101.001	30.567	2297.221	2407.630
102.016	30.856	2295.625	2409.437
103.030	30.999	2294.046	2409.349
104.045	31.310	2292.772	2411.756
105.060	31.841	2291.304	2416.803
106.074	31.582	2289.041	2410.781
107.089	31.275	2285.871	2403.176
108.103	31.498	2286.049	2405.962
109.118	31.749	2284.699	2407.492
110.133	31.898	2284.001	2408.390
111.147	32.168	2281.969	2409.452
112.162	32.003	2281.008	2406.015
113.176	31.696	2276.145	2396.658
114.191	31.383	2273.963	2390.039
115.206	31.145	2271.780	2384.407
116.220	30.932	2270.041	2379.562
117.235	30.822	2266.414	2374.067
118.249	30.754	2264.981	2371.415
119.264	31.093	2264.506	2374.968
120.279	31.241	2263.609	2375.633
121.293	30.851	2261.048	2367.685
122.308	31.100	2259.335	2368.787
123.322	30.956	2256.383	2363.565
124.337	29.761	2251.148	2342.601
125.352	26.968	2242.527	2297.858
126.366	26.589	2241.539	2291.757
127.381	29.275	2247.137	2331.402
128.395	30.636	2247.299	2348.586
129.410	31.008	2246.608	2352.303
130.424	31.280	2245.088	2353.877
131.439	31.094	2242.707	2348.739
132.454	30.627	2240.886	2340.648
133.468	30.882	2238.934	2341.546
134.483	30.869	2236.556	2338.623
135.497	30.856	2236.346	2337.957
136.512	31.158	2234.044	2339.069
137.527	31.449	2232.065	2340.384
138.541	31.392	2232.018	2339.341
139.556	31.295	2230.840	2336.609
140.570	31.356	2228.865	2335.018
141.585	31.459	2226.833	2333.904
142.600	31.508	2225.119	2332.442
143.614	31.207	2223.773	2326.985
144.629	31.425	2222.266	2327.858
145.643	31.276	2220.278	2323.638
146.658	31.027	2218.823	2318.719
147.673	31.217	2216.600	2318.495
148.687	31.474	2215.354	2320.118
149.702	31.223	2213.925	2315.209
150.716	31.092	2211.500	2310.765
151.731	31.321	2210.845	2312.653
152.746	31.494	2210.596	2314.270
153.760	29.961	2204.643	2288.732
154.775	26.498	2193.314	2233.811
155.789	25.038	2189.769	2211.834
156.804	27.736	2194.702	2250.046
157.819	30.005	2196.656	2279.896
158.833	30.841	2197.096	2290.413
159.848	31.459	2196.114	2296.750
160.862	31.875	2194.309	2299.722
161.877	31.919	2194.893	2300.596
162.892	31.886	2193.958	2298.931
163.906	32.012	2192.473	2298.651
164.921	32.111	2189.532	2296.514
165.935	31.938	2188.167	2292.687
166.950	31.894	2185.151	2288.712
167.964	31.453	2182.077	2279.812
168.979	31.341	2180.606	2276.626
169.994	31.601	2181.025	2279.982
171.008	31.769	2178.824	2279.457
172.023	31.694	2177.036	2276.394
173.037	31.612	2175.597	2273.617
174.052	31.407	2172.017	2267.114
175.067	31.262	2170.603	2263.590
176.081	31.227	2169.527	2261.777
177.096	31.006	2167.826	2257.048
178.110	30.864	2164.649	2251.737
179.125	30.847	2164.200	2250.793
180.140	31.141	2164.171	2254.072
181.154	31.117	2162.199	2251.447
182.169	30.607	2158.814	2241.484
183.183	29.446	2154.040	2222.206
184.198	26.173	2142.958	2171.024
185.213	25.459	2143.008	2162.182
186.227	28.879	2151.200	2211.632
187.242	30.596	2152.808	2233.769
188.256	30.913	2151.171	2235.637
189.271	31.268	2150.240	2238.677
190.286	31.544	2149.012	2240.451
191.300	31.419	2146.205	2235.757
192.315	31.236	2144.764	2231.784
193.329	31.319	2144.351	2232.085
194.344	31.528	2144.061	2234.023
195.359	31.886	2142.891	2236.828
196.373	32.203	2141.756	2239.176
197.388	32.186	2138.893	2235.715
198.402	31.825	2135.848	2227.954
199.417	31.497	2132.508	2220.292
200.432	31.415	2131.458	2217.953
201.446	31.586	2131.300	2219.558
202.461	31.722	2128.615	2218.112
203.475	31.307	2126.850	2211.078
204.490	31.249	2124.442	2207.620
205.504	31.356	2122.674	2206.783
206.519	31.276	2118.980	2201.740
207.534	30.978	2117.853	2196.766
208.548	31.299	2116.848	2199.268
209.563	30.950	2115.316	2193.277
210.577	30.816	2113.018	2189.049
211.592	30.961	2112.066	2189.515
212.607	29.466	2104.339	2163.645
213.621	25.193	2093.918	2102.446
214.636	25.173	2095.208	2103.261
215.650	29.053	2103.097	2156.727
216.665	30.672	2104.112	2176.565
217.680	31.095	2103.401	2180.547
218.694	31.615	2101.935	2184.860
219.709	31.525	2102.116	2183.740
220.723	31.484	2099.675	2180.460
221.738	31.690	2098.526	2181.419
222.753	31.614	2096.610	2178.277
223.767	31.411	2094.260	2173.199
224.782	31.071	2091.180	2165.779
225.796	31.050	2090.599	2164.672
226.811	31.550	2090.754	2170.400
227.826	31.724	2089.349	2170.710
228.840	31.897	2087.326	2170.360
229.855	31.741	2085.986	2166.899
230.869	31.786	2083.847	2164.941
231.884	31.593	2082.469	2161.008
232.899	31.431	2080.783	2157.118
233.913	31.453	2078.864	2155.135
234.928	31.604	2078.627	2156.372
235.942	31.676	2076.699	2154.943
236.957	31.701	2075.618	2153.856
237.972	31.531	2073.918	2149.873
238.986	31.388	2071.610	2145.569
240.001	31.301	2069.788	2142.426
241.015	30.793	2067.658	2134.108
242.030	30.036	2062.290	2119.611
243.045	26.928	2053.268	2074.443
244.059	26.253	2052.455	2065.618
245.074	29.571	2058.801	2109.928
246.088	30.979	2058.880	2125.917
247.103	31.171	2058.325	2127.290
248.117	31.474	2057.823	2129.977
249.132	31.835	2056.809	2132.804
250.147	31.569	2054.663	2127.289
251.161	31.286	2051.393	2120.415
252.176	31.135	2049.570	2116.559
253.190	30.406	2044.312	2102.583
254.205	29.242	2039.495	2084.151
255.220	29.270	2040.090	2084.832
256.234	29.725	2040.753	2090.435
257.249	30.116	2038.478	2092.286
258.263	29.919	2037.552	2088.852
259.278	29.455	2034.040	2079.749
260.293	29.255	2033.772	2076.959
261.307	30.417	2035.191	2091.319
262.322	31.583	2034.972	2104.026
263.336	31.423	2033.049	2099.983
264.351	31.300	2030.477	2095.686
265.366	31.266	2031.141	2095.743
266.380	31.510	2029.234	2096.273
267.395	30.993	2027.085	2087.981
268.409	31.029	2025.177	2086.169
269.424	31.496	2024.606	2090.578
270.439	31.604	2024.155	2091.082
271.453	30.148	2016.901	2067.036
272.468	26.202	2005.460	2010.984
273.482	25.496	2005.402	2002.786
274.497	28.941	2011.223	2046.971
275.512	30.856	2012.624	2069.572
276.526	31.120	2011.438	2071.054
277.541	31.039	2009.732	2068.137
278.555	31.145	2009.092	2068.421
279.570	30.943	2006.136	2062.876
280.585	30.728	2003.684	2057.720
281.599	30.886	2003.412	2058.955
282.614	30.832	2000.957	2055.584
283.628	29.864	1996.918	2040.467
284.643	29.603	1996.009	2036.399
285.657	29.698	1994.192	2035.355
286.672	29.275	1992.349	2028.555
287.687	28.958	1989.167	2021.565
288.701	28.677	1988.458	2017.504
289.716	28.543	1985.685	2012.971
290.730	28.669	1984.796	2013.210
291.745	29.069	1984.498	2017.076
292.760	29.378	1983.385	2019.107
293.774	29.605	1983.641	2021.625
294.789	30.690	1985.134	2034.842
295.803	31.329	1984.666	2041.138
296.818	31.521	1983.619	2041.917
297.833	31.754	1983.104	2043.694
298.847	31.880	1981.199	2042.878
299.862	31.678	1978.766	2037.906
300.876	30.484	1973.473	2019.182
301.891	26.703	1963.202	1967.261
302.906	25.791	1963.217	1957.083
303.920	29.545	1970.598	2005.266
304.935	30.990	1971.497	2021.710
305.949	31.167	1968.814	2020.641
306.964	31.633	1968.432	2025.078
307.979	31.508	1966.019	2020.993
308.993	30.245	1961.200	2002.105
310.008	29.064	1957.345	1985.136
311.022	29.063	1955.816	1983.335
312.037	29.385	1954.293	1985.045
313.052	28.692	1950.468	1973.441
314.066	27.631	1946.851	1958.091
315.081	27.363	1945.852	1953.966
316.095	27.304	1944.141	1951.373
317.110	27.535	1942.470	1951.946
318.125	28.163	1943.634	1959.648
319.139	28.805	1944.017	1966.712
320.154	29.682	1944.360	1976.254
321.168	29.765	1943.244	1975.770
322.183	30.358	1943.874	1982.542
323.197	31.223	1943.450	1991.153
324.212	31.231	1942.622	1990.152
325.227	31.255	1939.892	1987.370
326.241	31.207	1938.450	1985.142
327.256	31.306	1937.784	1985.282
328.270	31.124	1935.370	1980.630
329.285	31.032	1935.356	1979.395
330.300	29.989	1930.462	1963.047
331.314	26.132	1920.086	1911.306
332.329	25.523	1920.195	1904.701
333.343	29.222	1926.972	1950.640
334.358	31.072	1928.429	1971.560
335.373	31.474	1927.022	1974.154
336.387	31.546	1925.382	1973.002
337.402	31.650	1923.554	1971.987
338.416	31.465	1921.947	1968.152
339.431	31.322	1921.007	1965.436
340.446	31.865	1919.548	1969.443
341.460	31.023	1916.100	1956.799
342.475	29.929	1910.878	1939.714
343.489	29.347	1908.037	1930.471
344.504	29.082	1906.544	1925.945
345.519	28.753	1904.449	1920.146
346.533	28.396	1900.963	1912.655
347.548	28.371	1900.548	1911.744
348.562	28.768	1899.788	1914.912
349.577	28.808	1899.764	1915.078
350.592	28.423	1897.774	1908.815
351.606	28.321	1895.558	1905.294
352.621	28.473	1894.084	1905.170
353.635	29.180	1894.896	1913.139
354.650	29.943	1895.774	1921.765
355.665	30.496	1895.230	1926.745
356.679	30.888	1894.329	1929.678
357.694	30.976	1894.003	1930.033
358.708	31.248	1893.955	1932.581
359.723	30.062	1888.364	1914.339
360.738	26.216	1877.711	1863.516
361.752	26.508	1879.268	1867.867
362.767	29.917	1885.192	1908.932
363.781	30.840	1884.035	1917.089
364.796	30.741	1882.858	1914.641
365.810	30.870	1882.743	1915.623
366.825	31.086	1881.693	1916.561
367.840	31.282	1880.285	1916.919
368.854	31.040	1878.894	1912.774
369.869	30.316	1875.646	1901.791
370.883	29.447	1872.699	1889.628
371.898	28.668	1869.246	1877.913
372.913	28.705	1868.016	1876.832
373.927	29.089	1867.318	1879.850
374.942	29.168	1865.890	1879.003
375.956	29.268	1865.465	1879.371
376.971	29.026	1861.672	1872.850
377.986	28.272	1858.133	1861.369
379.000	28.693	1860.327	1867.648
380.015	30.286	1862.666	1886.064
381.029	31.645	1861.306	1898.315
382.044	31.635	1861.377	1898.060
383.059	31.847	1858.705	1897.272
384.073	31.367	1857.082	1890.503
385.088	30.796	1854.501	1881.846
386.102	30.732	1852.221	1878.665
387.117	30.615	1850.716	1875.725
388.132	30.703	1851.085	1876.764
389.146	29.993	1847.477	1865.694
390.161	26.180	1836.997	1816.415
391.175	25.745	1835.863	1810.681
392.190	29.197	1841.143	1850.601
393.205	30.391	1841.127	1862.410
394.219	30.637	1839.347	1862.863
395.234	30.643	1839.073	1862.417
396.248	30.592	1837.150	1859.739
397.263	30.735	1834.613	1858.385
398.278	30.550	1832.417	1854.077
399.292	30.460	1832.858	1853.401
400.307	30.875	1833.322	1857.809
401.321	30.691	1830.655	1853.042
402.336	29.026	1824.737	1830.200
403.350	27.982	1821.183	1815.997
404.365	28.722	1821.351	1823.335
405.380	28.697	1819.340	1820.855
406.394	27.807	1816.074	1808.509
407.409	27.350	1814.273	1801.952
408.423	27.308	1812.555	1799.609
409.438	27.989	1812.960	1806.565
410.453	29.200	1814.535	1819.953
411.467	29.960	1816.171	1828.930
412.482	30.748	1815.871	1836.222
413.496	31.174	1814.487	1838.829
414.511	30.924	1812.635	1834.255
415.526	30.978	1811.035	1832.951
416.540	31.401	1810.499	1836.363
417.555	31.192	1807.687	1831.233
418.569	30.467	1806.889	1823.061
419.584	30.533	1806.271	1822.869
420.599	30.264	1805.907	1819.625
421.613	30.192	1804.190	1816.972
422.628	30.542	1804.467	1820.485
423.642	31.288	1803.852	1826.979
424.657	31.079	1800.867	1821.687
425.672	30.334	1797.280	1810.536
426.686	30.598	1798.055	1813.690
427.701	31.081	1797.010	1817.147
428.715	31.158	1796.206	1816.871
429.730	31.558	1795.013	1819.358
430.745	31.344	1793.541	1815.563
431.759	30.842	1791.547	1808.428
432.774	29.347	1786.930	1788.988
433.788	26.971	1780.130	1758.854
434.803	25.804	1777.819	1745.006
435.818	26.007	1777.030	1745.990
436.832	25.941	1775.903	1744.036
437.847	24.840	1767.263	1724.682
438.861	14.535	1738.056	1597.278
439.876	2.873	1716.510	1465.883
440.890	0.565	1711.564	1439.380
441.905	0.324	1710.434	1435.946
442.920	0.293	1708.999	1434.279
443.934	0.361	1707.641	1433.612
444.949	0.312	1705.944	1431.552
445.963	0.284	1705.388	1430.642
446.978	0.270	1704.772	1429.821
447.993	0.273	1703.180	1428.350
449.007	0.268	1701.293	1426.542
450.022	0.313	1699.619	1425.404
451.036	0.269	1698.532	1423.898
452.051	0.739	1701.816	1430.958
453.066	9.484	1724.540	1533.933
454.080	21.389	1745.585	1667.248
455.095	24.672	1751.189	1703.910
456.109	25.691	1751.997	1714.257
457.124	25.898	1750.376	1714.437
458.139	25.745	1748.858	1711.293
459.153	25.589	1748.064	1708.813
460.168	25.644	1746.547	1707.655
461.182	25.816	1744.726	1707.305
462.197	25.981	1743.368	1707.347
463.212	26.197	1742.616	1708.456
464.226	26.330	1742.315	1709.219
465.241	26.299	1740.473	1706.913
466.255	26.116	1739.208	1703.740
467.270	26.155	1737.801	1702.523
468.285	26.254	1737.257	1702.730
469.299	26.402	1736.782	1703.456
470.314	26.553	1734.378	1702.327
471.328	26.405	1733.303	1699.667
472.343	26.653	1732.596	1701.111
473.358	26.573	1730.954	1698.538
474.372	26.489	1729.594	1696.213
475.387	26.716	1728.275	1696.849
476.401	26.652	1726.130	1693.943
477.416	26.094	1724.536	1686.936
478.430	25.967	1722.932	1683.968
479.445	26.194	1723.121	1686.081
480.460	26.478	1722.130	1687.576
481.474	26.516	1721.422	1687.038
482.489	26.467	1719.356	1684.345
483.503	26.270	1716.607	1679.613
484.518	26.171	1715.363	1677.277
485.533	26.198	1713.699	1675.699
486.547	25.751	1711.433	1669.112
487.562	25.157	1709.537	1661.532
488.576	25.338	1709.347	1662.836
489.591	25.711	1708.352	1665.136
490.606	25.930	1707.631	1666.270
491.620	26.312	1705.789	1667.824
492.635	25.945	1703.687	1662.168
493.649	25.558	1701.585	1656.331
494.664	25.976	1701.652	1660.067
495.679	26.707	1700.489	1665.490
496.693	26.510	1699.460	1662.465
497.708	26.355	1698.610	1660.002
498.722	26.029	1696.373	1654.620
499.737	26.019	1695.215	1653.192
500.752	26.264	1693.945	1654.010
501.766	26.381	1692.527	1653.504
502.781	26.252	1690.850	1650.482
503.795	26.284	1689.261	1649.033
504.810	26.229	1688.157	1647.247
505.825	26.034	1686.857	1644.004
506.839	26.065	1685.526	1642.793
507.854	25.937	1683.709	1639.651
508.868	25.698	1682.243	1635.840
509.883	25.589	1680.691	1633.141
510.898	25.237	1678.804	1627.904
511.912	25.374	1677.470	1627.665
512.927	25.468	1676.094	1626.992
513.941	25.380	1675.153	1625.083
514.956	25.649	1673.719	1625.940
515.971	25.540	1673.010	1624.068
516.985	25.232	1671.860	1619.963
518.000	25.271	1669.821	1618.143
519.014	24.934	1668.436	1613.558
520.029	24.960	1666.859	1612.075
521.043	24.950	1665.345	1610.328
522.058	25.317	1664.805	1612.930
523.073	25.198	1663.564	1610.457
524.087	24.811	1662.176	1605.432
525.102	25.075	1660.732	1606.223
526.116	25.753	1661.343	1612.728
527.131	26.084	1660.405	1614.606
528.146	25.828	1658.115	1609.883
529.160	25.407	1657.068	1604.899
530.175	25.537	1656.634	1605.453
531.189	25.479	1655.006	1603.157
532.204	25.319	1653.556	1600.127
533.219	25.595	1653.117	1601.983
534.233	25.981	1653.000	1605.131
535.248	25.904	1650.853	1602.168
536.262	25.203	1648.135	1593.081
537.277	25.050	1648.447	1591.830
538.292	25.338	1646.483	1592.311
539.306	25.380	1643.783	1589.884
540.321	25.034	1642.619	1585.487
541.335	24.921	1640.761	1582.505
542.350	25.203	1638.750	1582.879
543.365	25.145	1638.392	1581.826
544.379	25.165	1636.644	1580.126
545.394	25.084	1635.745	1578.351
546.408	25.432	1635.887	1581.379
547.423	26.102	1635.654	1586.889
548.438	26.161	1634.348	1585.951
549.452	25.817	1633.590	1581.991
550.467	25.866	1631.584	1580.288
551.481	25.656	1630.355	1577.060
552.496	25.509	1629.144	1574.404
553.511	25.037	1626.773	1567.778
554.525	25.151	1625.292	1567.167
555.540	25.012	1624.786	1565.270
556.554	24.947	1623.263	1563.045
557.569	25.019	1620.948	1561.257
558.583	25.079	1621.014	1561.664
559.598	25.243	1619.760	1561.698
560.613	25.174	1617.814	1559.030
561.627	24.928	1616.330	1555.270
562.642	24.677	1614.252	1550.893
563.656	24.226	1611.628	1544.258
564.671	24.296	1610.424	1543.531
565.686	24.283	1609.537	1542.387
566.700	24.523	1609.097	1543.861
567.715	24.533	1607.581	1542.313
568.729	24.627	1606.624	1542.027
569.744	24.901	1605.276	1542.917
570.759	24.873	1603.964	1541.229
571.773	24.655	1602.528	1537.781
572.788	24.565	1601.111	1535.458
573.802	24.389	1599.974	1532.664
574.817	24.168	1598.029	1528.718
575.832	24.014	1596.465	1525.705
576.846	24.359	1595.134	1527.227
577.861	24.856	1594.989	1531.176
578.875	24.768	1594.865	1530.121
579.890	24.655	1592.696	1526.879
580.905	24.555	1592.049	1525.225
581.919	24.520	1591.486	1524.198
582.934	24.395	1590.397	1521.899
583.948	24.370	1588.643	1519.831
584.963	24.467	1587.812	1519.682
585.978	24.785	1586.866	1521.313
586.992	24.590	1585.459	1518.113
588.007	24.224	1584.369	1513.764
589.021	24.209	1583.738	1512.856
590.036	24.504	1581.496	1513.047
591.051	24.313	1580.275	1510.066
592.065	24.145	1578.022	1506.310
593.080	24.123	1576.562	1504.545
594.094	24.342	1575.441	1505.153
595.109	24.940	1575.143	1509.757
596.123	25.531	1574.283	1513.761
597.138	25.315	1572.651	1510.186
598.153	24.686	1571.237	1503.329
599.167	24.697	1569.938	1501.995
600.182	24.776	1568.697	1501.301
601.196	24.642	1567.694	1499.030
602.211	24.735	1565.768	1497.794
603.226	24.290	1564.420	1492.576
604.240	24.166	1563.174	1490.165
605.255	24.183	1561.055	1488.110
606.269	24.137	1560.806	1487.312
607.284	24.398	1559.630	1488.200
608.299	24.201	1558.367	1485.167
609.313	24.396	1557.300	1485.605
610.328	24.340	1555.805	1483.533
611.342	24.297	1554.109	1481.381
612.357	24.162	1552.940	1478.958
613.372	23.822	1552.260	1475.296
614.386	23.961	1551.170	1475.245
615.401	23.800	1550.366	1472.967
616.415	23.748	1549.137	1471.183
617.430	23.694	1547.329	1468.848
618.445	23.520	1545.534	1465.518
619.459	23.528	1545.292	1465.181
620.474	23.866	1545.153	1467.683
621.488	24.274	1544.767	1470.524
622.503	24.640	1543.669	1472.332
623.518	24.047	1541.495	1465.178
624.532	23.504	1539.275	1458.407
625.547	23.492	1537.866	1456.795
626.561	23.179	1537.306	1453.510
627.576	23.088	1535.718	1451.081
628.591	23.538	1535.331	1454.251
629.605	24.084	1534.055	1457.366
630.620	23.947	1533.669	1455.693
631.634	24.562	1532.757	1459.711
632.649	24.302	1531.626	1456.318
633.663	23.851	1529.347	1450.278
634.678	23.504	1526.561	1444.629
635.693	23.178	1524.755	1440.077
636.707	23.070	1523.503	1437.844
637.722	22.981	1522.950	1436.419
638.736	23.200	1521.825	1436.973
639.751	23.444	1520.908	1437.926
640.766	23.648	1519.839	1438.407
641.780	23.634	1518.508	1436.857
642.795	23.699	1517.781	1436.528
643.809	23.784	1517.181	1436.477
644.824	23.678	1516.835	1435.118
645.839	24.010	1516.594	1437.410
646.853	23.813	1515.128	1434.254
647.868	23.851	1513.264	1432.625
648.882	23.901	1511.745	1431.420
649.897	23.922	1510.637	1430.369
650.912	23.951	1508.743	1428.639
651.926	23.454	1508.434	1424.166
652.941	23.673	1506.725	1424.149
653.955	23.791	1505.036	1423.330
654.970	23.939	1503.760	1423.140
655.985	23.855	1502.471	1421.081
656.999	23.507	1501.333	1417.036
658.014	23.425	1499.894	1414.853
659.028	23.357	1498.207	1412.545
660.043	23.589	1497.347	1413.422
661.058	23.573	1495.911	1411.770
662.072	23.579	1495.185	1410.968
663.087	23.918	1494.324	1412.691
664.101	23.886	1494.018	1411.975
665.116	23.610	1493.309	1408.939
666.131	23.592	1491.505	1406.922
667.145	23.759	1489.747	1406.424
668.160	23.527	1488.676	1403.401
669.174	23.312	1486.932	1399.880
670.189	23.210	1486.396	1398.397
671.204	23.601	1485.999	1400.958
672.218	23.582	1484.921	1399.624
673.233	23.400	1483.529	1396.704
674.247	23.259	1481.656	1393.656
675.262	23.100	1480.118	1390.785
676.276	23.012	1479.113	1388.978
677.291	23.268	1478.917	1390.651
678.306	23.611	1478.077	1392.404
679.320	23.592	1476.653	1390.747
680.335	23.167	1475.503	1386.150
681.349	23.154	1474.880	1385.298
682.364	23.283	1473.189	1384.554
683.379	23.181	1471.514	1382.017
684.393	23.006	1470.471	1379.499
685.408	23.008	1469.223	1378.179
686.422	22.934	1468.479	1376.734
687.437	22.795	1467.423	1374.489
688.452	22.616	1466.450	1372.013
689.466	22.638	1464.796	1370.476
690.481	22.909	1463.426	1371.141
691.495	22.985	1463.249	1371.407
692.510	23.540	1463.534	1375.835
693.525	23.954	1462.438	1377.865
694.539	23.479	1461.033	1372.682
695.554	22.867	1458.740	1365.606
696.568	22.502	1457.361	1361.323
697.583	22.466	1456.151	1359.745
698.598	22.613	1455.352	1359.981
699.612	22.575	1453.972	1358.230
700.627	22.694	1452.473	1357.588
701.641	22.956	1451.682	1358.717
702.656	22.903	1450.958	1357.463
703.671	22.945	1449.710	1356.459
704.685	22.775	1449.649	1354.928
705.700	23.066	1447.867	1355.345
706.714	23.098	1447.100	1354.708
707.729	23.147	1445.986	1353.882
708.744	23.155	1444.544	1352.425
709.758	23.023	1443.222	1350.019
710.773	22.882	1442.467	1348.066
711.787	22.990	1441.192	1347.542
712.802	23.082	1439.475	1346.481
713.816	23.139	1438.674	1346.002
714.831	23.107	1437.004	1344.035
715.846	23.051	1436.022	1342.531
716.860	23.042	1434.018	1340.426
717.875	22.885	1433.615	1338.689
718.889	23.050	1433.170	1339.372
719.904	22.893	1431.983	1336.907
720.919	22.799	1430.661	1334.799
721.933	22.588	1430.085	1332.498
722.948	22.731	1428.331	1331.793
723.962	22.741	1427.044	1330.507
724.977	22.552	1425.794	1327.752
725.992	22.376	1425.708	1326.181
727.006	22.755	1424.559	1327.818
728.021	22.638	1422.499	1324.856
729.035	22.587	1421.625	1323.503
730.050	22.547	1420.759	1322.234
731.065	22.665	1419.617	1321.903
732.079	22.527	1417.656	1318.881
733.094	22.701	1416.914	1319.341
734.108	23.038	1415.362	1320.269
735.123	22.907	1414.174	1318.016
736.138	22.869	1414.133	1317.536
737.152	22.651	1413.147	1314.826
738.167	22.506	1411.310	1311.878
739.181	22.367	1410.423	1309.856
740.196	22.441	1409.425	1309.325
741.211	22.439	1408.541	1308.333
742.225	22.530	1407.774	1308.142
743.240	22.507	1405.877	1306.047
744.254	22.534	1403.540	1303.923
745.269	22.394	1403.129	1302.343
746.284	22.300	1402.591	1300.992
747.298	22.436	1402.040	1301.334
748.313	22.717	1401.155	1302.440
749.327	22.984	1400.750	1303.894
750.342	23.311	1401.667	1307.013
751.356	23.915	1400.848	1310.565
752.371	23.558	1398.537	1305.605
753.386	22.730	1396.347	1297.293
754.400	22.447	1394.562	1293.388
755.415	22.577	1393.148	1292.884
756.429	22.423	1392.624	1291.107
757.444	22.573	1391.203	1290.738
758.459	22.483	1390.166	1288.957
759.473	22.290	1389.618	1286.878
760.488	22.353	1387.969	1285.660
761.502	22.228	1386.773	1283.483
762.517	22.407	1385.646	1283.599
763.532	22.643	1384.591	1284.189
764.546	22.595	1383.709	1282.870
765.561	22.610	1383.624	1282.745
766.575	22.921	1382.639	1283.949
767.590	23.134	1381.585	1284.379
768.605	22.844	1379.930	1280.567
769.619	22.627	1379.002	1277.975
770.634	22.678	1377.187	1276.511
771.648	22.447	1375.298	1272.926
772.663	22.196	1374.814	1270.502
773.678	22.121	1374.637	1269.639
774.692	22.328	1373.645	1270.079
775.707	22.377	1373.124	1269.802
776.721	22.438	1371.901	1268.959
777.736	22.142	1370.944	1265.775
778.751	22.174	1369.746	1264.755
779.765	22.284	1368.556	1264.293
780.780	22.258	1368.179	1263.609
781.794	22.288	1367.150	1262.724
782.809	22.106	1366.017	1260.215
783.824	22.044	1364.846	1258.537
784.838	22.383	1364.118	1260.154
785.853	22.943	1363.814	1263.748
786.867	22.779	1363.456	1262.087
787.882	22.424	1362.341	1258.355
788.897	22.413	1359.483	1255.488
789.911	22.214	1358.701	1253.192
790.926	22.109	1357.689	1251.352
791.940	21.844	1356.418	1248.137
792.955	22.179	1354.155	1248.299
793.969	21.925	1353.244	1245.493
794.984	21.876	1353.591	1245.317
795.999	22.042	1352.497	1245.345
797.013	22.214	1349.879	1244.010
798.028	22.152	1348.447	1242.101
799.042	22.075	1348.478	1241.429
800.057	22.129	1347.334	1240.616
801.072	22.066	1345.876	1238.673
802.086	22.070	1344.568	1237.349
803.101	21.864	1343.848	1235.080
804.115	21.971	1342.963	1234.875
805.130	22.069	1341.663	1234.227
806.145	22.134	1340.358	1233.338
807.159	22.004	1338.724	1230.774
808.174	22.253	1337.874	1231.597
809.188	22.309	1336.785	1230.841
810.203	22.291	1335.659	1229.530
811.218	22.499	1334.030	1229.338
812.232	22.533	1333.269	1228.728
813.247	22.682	1332.543	1228.961
814.261	22.479	1331.941	1226.834
815.276	22.392	1330.587	1224.830
816.291	22.158	1329.216	1221.791
817.305	21.910	1328.088	1218.871
818.320	21.913	1326.681	1217.461
819.334	21.881	1325.773	1216.254
820.349	22.129	1323.561	1215.806
821.364	22.034	1322.320	1213.861
822.378	21.827	1321.210	1211.260
823.393	21.799	1319.483	1209.340
824.407	21.840	1318.731	1208.786
825.422	21.954	1318.511	1209.234
826.437	21.900	1317.230	1207.534
827.451	22.064	1315.208	1206.675
828.466	22.478	1315.184	1209.362
829.480	22.776	1313.523	1209.745
830.495	22.434	1311.369	1205.265
831.509	21.895	1310.619	1200.725
832.524	21.812	1309.906	1199.355
833.539	21.802	1308.439	1197.797
834.553	21.730	1307.133	1195.967
835.568	21.911	1305.669	1195.723
836.582	21.889	1304.689	1194.534
837.597	22.030	1303.620	1194.375
838.612	22.013	1301.761	1192.412
839.626	22.048	1301.212	1192.006
840.641	22.199	1300.503	1192.245
841.655	22.343	1300.304	1192.902
842.670	22.294	1299.987	1192.130
843.685	22.712	1298.798	1193.743
844.699	22.370	1296.976	1189.603
845.714	22.263	1294.817	1186.756
846.728	22.226	1293.703	1185.339
847.743	21.909	1292.816	1182.238
848.758	21.943	1291.716	1181.323
849.772	21.880	1289.599	1178.819
850.787	21.776	1288.738	1177.187
851.801	21.857	1287.569	1176.525
852.816	21.917	1286.659	1175.961
853.831	21.987	1284.981	1174.754
854.845	21.777	1283.403	1171.764
855.860	21.745	1282.057	1170.175
856.874	21.946	1280.617	1170.066
857.889	21.919	1280.100	1169.277
858.904	22.402	1279.021	1171.384
859.918	22.545	1278.667	1171.876
860.933	22.753	1277.337	1171.901
861.947	22.563	1275.567	1168.874
862.962	22.126	1274.012	1164.396
863.977	22.154	1272.220	1162.806
864.991	21.947	1271.944	1161.041
866.006	21.760	1271.370	1159.132
867.020	21.903	1269.300	1158.053
868.035	21.946	1267.997	1157.017
869.049	21.843	1267.675	1155.898
870.064	21.883	1266.537	1154.987
871.079	21.822	1266.170	1154.109
872.093	21.998	1264.962	1154.034
873.108	21.991	1264.108	1153.072
874.122	22.204	1263.230	1153.539
875.137	22.433	1263.294	1154.965
876.152	22.365	1262.831	1153.958
877.166	22.340	1260.400	1151.434
878.181	22.185	1258.877	1148.885
879.195	22.026	1258.097	1146.995
880.210	22.009	1257.103	1145.838
881.225	21.978	1256.400	1144.856
882.239	22.022	1255.360	1144.061
883.254	21.933	1253.757	1141.882
884.268	21.873	1253.180	1140.824
885.283	21.864	1252.161	1139.706
886.298	21.963	1250.081	1138.322
887.312	21.875	1249.138	1136.755
888.327	21.995	1248.360	1136.688
889.341	21.969	1247.148	1135.277
890.356	21.872	1246.643	1134.053
891.371	21.855	1246.696	1133.857
892.385	21.660	1245.900	1131.730
893.400	21.953	1244.992	1132.670
894.414	21.941	1243.296	1130.916
895.429	22.446	1242.202	1133.054
896.444	23.002	1241.696	1136.045
897.458	23.410	1240.752	1137.681
898.473	23.002	1239.393	1133.670
899.487	22.386	1238.358	1128.617
900.502	22.145	1236.824	1125.531
901.517	22.073	1235.383	1123.626
902.531	22.037	1234.290	1122.266
903.546	21.897	1233.929	1120.904
904.560	21.858	1233.329	1119.974
905.575	21.987	1232.118	1119.566
906.589	21.950	1231.138	1118.306
907.604	21.837	1230.502	1116.872
