DTS Sentinel unit serial number:	SN409020Multiplexer serial number:	ORYXHardware model number:	OX4-SRSoftware version number:	ORYX F/W v3.00 Oryx Data Collector v3.7.2.0data status	okinstallation	HaddamTimeLapsedifferential loss correction	single-endedforward channel	channel 3reverse channel	N/Adate	2011/06/21time	16:41:17forward acquisition time	30.00reverse acquisition time	0.00gamma	498.7831k internal	0.1785k external	0.1785temperature offset calibration	1.0074default loss term (dB/km)	0.3790temperature slope calibration	1.3530multiplexer offset coefficient	1.0000multiplexer slope coefficient	1.0000fibre end	0.00T internal ref (°C)	32.62T ext. ref 1 (°C)	27.15T ext. ref 2 (°C)	0.22length (m)	temperature (°C)	Stokes	anti-Stokes-747.200	-200.000	-0.003	-0.210
-746.185	-87.445	0.191	0.075
-745.171	-105.037	-0.698	-0.207
-744.156	2.168	0.252	0.237
-743.142	65.958	-0.035	-0.047
-742.127	-36.763	-0.430	0.300
-741.112	-183.739	-0.103	-0.002
-740.098	-106.915	-0.581	0.167
-739.083	20.985	0.291	0.308
-738.069	-21.016	-0.876	0.697
-737.054	-74.829	-0.404	-0.188
-736.039	-120.387	-0.516	-0.113
-735.025	-110.876	0.394	-0.105
-734.010	-200.000	-0.016	0.148
-732.996	40.181	-0.114	-0.133
-731.981	-165.095	0.284	0.016
-730.966	29.871	0.071	0.079
-729.952	234.140	0.041	-0.089
-728.937	369.685	-0.144	0.382
-727.923	-127.848	0.430	-0.080
-726.908	-59.795	0.306	-0.170
-725.894	-90.134	0.308	0.116
-724.879	137.926	0.022	-0.038
-723.864	-88.574	0.207	0.080
-722.850	-38.820	0.107	0.074
-721.835	-53.486	-0.647	-0.385
-720.821	800.000	-0.034	-0.161
-719.806	800.000	0.078	-0.366
-718.791	161.154	-0.231	-0.422
-717.777	465.042	-0.246	-0.721
-716.762	55.550	-0.299	-0.377
-715.748	-31.988	0.222	-0.162
-714.733	70.552	-0.242	-0.327
-713.718	57.921	-0.159	-0.203
-712.704	-61.262	0.397	-0.217
-711.689	-116.892	0.195	-0.046
-710.675	-64.535	0.460	0.242
-709.660	-200.000	-0.079	-0.473
-708.645	-85.881	-0.257	-0.103
-707.631	28.619	-0.391	-0.431
-706.616	-145.015	-0.272	0.032
-705.602	156.760	-0.094	-0.169
-704.587	-19.543	-0.024	0.019
-703.572	33.839	0.293	-0.332
-702.558	-200.000	0.051	-0.305
-701.543	-127.215	0.347	0.065
-700.529	-156.299	0.447	-0.036
-699.514	-40.105	-0.082	0.056
-698.499	-200.000	-0.007	0.175
-697.485	-77.370	0.244	0.110
-696.470	58.489	-0.447	0.570
-695.456	-47.254	-0.281	0.178
-694.441	46.849	0.116	-0.141
-693.426	45.866	-0.026	0.031
-692.412	-76.508	0.229	-0.104
-691.397	-36.875	-0.204	0.142
-690.383	46.450	-0.019	0.023
-689.368	374.491	0.084	-0.222
-688.354	-24.042	-0.531	-0.412
-687.339	-127.544	-0.125	-0.023
-686.324	558.733	-0.027	0.084
-685.310	56.701	0.091	0.115
-684.295	365.806	-0.166	-0.436
-683.281	-84.309	-0.265	-0.109
-682.266	-190.201	-0.078	-0.001
-681.251	-9.306	0.170	-0.148
-680.237	-71.907	-0.393	-0.189
-679.222	142.961	-0.032	-0.056
-678.208	-197.368	0.670	0.005
-677.193	-45.223	-0.068	-0.044
-676.178	800.000	0.055	-0.244
-675.164	12.441	0.056	0.056
-674.149	-134.946	-0.408	0.063
-673.135	-200.000	0.033	-0.224
-672.120	-128.996	-0.302	0.055
-671.105	800.000	0.033	-0.164
-670.091	114.380	0.152	0.241
-669.076	-42.245	-0.250	0.165
-668.062	133.016	0.243	0.408
-667.047	-200.000	0.003	-0.253
-666.032	-173.742	0.127	0.005
-665.018	-2.592	-0.131	0.119
-664.003	-23.134	0.351	0.274
-662.989	159.495	0.070	0.128
-661.974	-23.200	-0.239	-0.186
-660.959	641.866	0.109	0.363
-659.945	25.082	0.137	0.147
-658.930	114.391	-0.168	-0.266
-657.916	-23.393	0.230	-0.179
-656.901	-133.192	0.090	-0.015
-655.886	361.923	0.125	-0.327
-654.872	-39.859	-0.294	-0.199
-653.857	800.000	0.139	-0.772
-652.843	187.176	-0.200	-0.389
-651.828	-19.047	0.183	-0.147
-650.814	-23.460	-0.505	-0.393
-649.799	168.241	-0.102	0.189
-648.784	-154.965	-0.212	0.018
-647.770	-200.000	-0.023	0.271
-646.755	-126.819	0.687	0.130
-645.741	-109.928	0.471	-0.127
-644.726	800.000	0.083	-0.450
-643.711	-126.025	-0.401	0.077
-642.697	290.760	0.088	0.209
-641.682	-200.000	-0.015	0.276
-640.668	-163.099	-0.312	-0.019
-639.653	-44.009	0.256	0.166
-638.638	-124.772	0.271	-0.054
-637.624	-142.044	0.159	-0.020
-636.609	92.936	-0.065	0.096
-635.595	-108.811	-0.310	0.086
-634.580	800.000	-0.092	-0.383
-633.565	-103.694	-0.494	-0.149
-632.551	-8.353	-0.294	0.256
-631.536	43.877	0.222	-0.264
-630.522	113.533	-0.231	0.365
-629.507	125.943	-0.094	-0.155
-628.492	137.636	-0.272	0.463
-627.478	700.348	-0.017	0.057
-626.463	-143.897	0.591	-0.071
-625.449	800.000	0.038	0.161
-624.434	56.973	-0.223	0.282
-623.419	-8.982	-0.022	0.019
-622.405	-138.581	-0.288	0.041
-621.390	139.100	0.026	0.044
-620.376	29.003	-0.202	-0.222
-619.361	131.516	-0.217	-0.362
-618.346	-95.433	0.639	-0.221
-617.332	-99.086	0.258	0.084
-616.317	-1.712	0.215	0.196
-615.303	-200.000	0.050	-0.374
-614.288	-133.766	0.431	-0.069
-613.273	-129.149	0.585	0.105
-612.259	-66.194	0.339	0.174
-611.244	-115.091	-0.368	0.090
-610.230	-115.755	-0.128	-0.031
-609.215	-81.437	-0.411	0.174
-608.201	-114.161	-0.336	0.084
-607.186	13.645	0.206	-0.207
-606.171	-71.518	-0.175	-0.084
-605.157	-200.000	0.023	-0.468
-604.142	-71.496	-0.405	0.196
-603.128	-43.706	-0.475	0.309
-602.113	40.595	-0.240	0.280
-601.098	361.315	-0.106	-0.277
-600.084	-114.664	-0.382	-0.094
-599.069	-49.243	0.262	-0.162
-598.055	-200.000	0.044	-0.260
-597.040	-200.000	0.006	-0.083
-596.025	493.270	0.104	-0.312
-595.011	800.000	-0.020	-0.099
-593.996	-12.370	0.074	0.063
-592.982	187.559	-0.092	0.178
-591.967	141.710	0.090	0.155
-590.952	73.782	-0.300	0.408
-589.938	-91.227	-0.317	-0.117
-588.923	800.000	0.119	-0.449
-587.909	-140.344	0.466	-0.062
-586.894	-35.828	-0.300	-0.210
-585.879	800.000	-0.040	0.198
-584.865	-81.732	-0.317	0.134
-583.850	-138.121	-0.380	-0.054
-582.836	206.842	-0.022	-0.045
-581.821	219.436	-0.050	0.103
-580.806	-2.929	0.284	0.257
-579.792	131.215	-0.131	-0.219
-578.777	-84.468	0.288	0.117
-577.763	-57.428	0.304	0.172
-576.748	-153.053	-0.333	-0.030
-575.733	-124.612	-0.186	0.037
-574.719	-135.351	-0.247	-0.038
-573.704	-200.000	0.031	0.645
-572.690	200.631	-0.116	-0.233
-571.675	58.706	-0.045	0.058
-570.661	-69.855	0.431	-0.212
-569.646	98.436	-0.118	-0.177
-568.631	-172.876	0.207	-0.008
-567.617	0.825	-0.282	-0.261
-566.602	-129.039	0.711	-0.128
-565.588	-77.400	-0.114	0.051
-564.573	422.844	0.100	-0.280
-563.558	-139.835	0.302	-0.041
-562.544	322.472	0.174	-0.431
-561.529	-91.858	-0.418	0.153
-560.515	92.487	-0.281	0.411
-559.500	159.279	0.303	0.546
-558.485	-25.729	0.365	0.278
-557.471	269.321	-0.111	0.254
-556.456	-118.069	-0.373	-0.085
-555.442	727.850	-0.084	0.291
-554.427	-45.476	-0.235	0.150
-553.412	10.071	0.112	-0.110
-552.398	-200.000	0.007	-0.200
-551.383	-181.956	-0.228	0.005
-550.369	43.606	-0.108	0.128
-549.354	-103.075	-0.678	-0.206
-548.339	191.687	0.106	0.207
-547.325	286.368	0.176	-0.412
-546.310	-90.482	0.291	0.108
-545.296	-200.000	-0.015	0.119
-544.281	13.843	0.125	-0.126
-543.266	159.381	0.159	0.287
-542.252	38.610	-0.079	-0.091
-541.237	-168.331	-0.374	0.018
-540.223	10.976	-0.192	0.190
-539.208	800.000	0.143	0.747
-538.193	-146.328	-0.430	0.048
-537.179	-63.507	0.163	-0.086
-536.164	-142.804	-0.403	-0.050
-535.150	-4.595	0.220	-0.196
-534.135	123.649	0.025	0.041
-533.121	-44.311	-0.281	-0.181
-532.106	-60.931	0.317	-0.173
-531.091	195.729	-0.170	-0.335
-530.077	-85.073	-0.552	0.222
-529.062	-200.000	0.010	-0.250
-528.048	-93.150	-0.147	-0.053
-527.033	125.721	-0.123	0.201
-526.018	-51.163	0.148	-0.089
-525.004	42.555	-0.334	-0.393
-523.989	310.205	0.128	0.310
-522.975	-200.000	-0.053	-0.382
-521.960	-200.000	0.076	0.456
-520.945	-200.000	-0.000	-0.084
-519.931	127.014	-0.357	0.586
-518.916	83.367	0.126	-0.178
-517.902	-200.000	-0.060	0.651
-516.887	-89.401	0.078	-0.029
-515.872	314.693	-0.129	0.315
-514.858	-110.461	0.157	0.042
-513.843	17.406	-0.243	-0.249
-512.829	-51.258	0.135	-0.081
-511.814	280.056	-0.107	0.247
-510.799	-40.611	-0.205	0.137
-509.785	800.000	0.093	0.438
-508.770	800.000	-0.131	-0.576
-507.756	543.903	-0.053	0.165
-506.741	-200.000	0.003	-0.166
-505.726	-159.692	-0.226	-0.016
-504.712	86.848	-0.187	-0.268
-503.697	139.268	0.149	-0.254
-502.683	565.953	-0.167	-0.524
-501.668	800.000	0.106	-0.391
-500.653	-68.388	-0.287	0.143
-499.639	-13.790	0.233	-0.194
-498.624	75.451	0.281	-0.383
-497.610	4.926	-0.305	0.289
-496.595	46.465	0.234	-0.280
-495.581	-103.510	0.506	-0.152
-494.566	-106.243	0.488	-0.140
-493.551	43.999	0.187	0.221
-492.537	-200.000	-0.047	0.294
-491.522	-153.050	-0.370	0.033
-490.508	381.664	-0.193	0.513
-489.493	92.270	0.113	-0.165
-488.478	-58.185	-0.321	-0.180
-487.464	5.144	-0.349	-0.331
-486.449	15.680	0.274	-0.278
-485.435	-200.000	0.025	-0.319
-484.420	-135.072	-0.075	-0.011
-483.405	116.029	-0.237	0.376
-482.391	47.469	0.209	0.251
-481.376	-174.631	0.463	0.017
-480.362	800.000	-0.064	-0.232
-479.347	-124.079	0.257	0.052
-478.332	-93.089	0.103	-0.037
-477.318	-193.091	0.200	-0.002
-476.303	307.672	0.174	0.419
-475.289	-75.286	0.490	0.224
-474.274	-200.000	0.038	0.348
-473.259	-78.490	-0.062	-0.027
-472.245	-29.411	-0.356	0.262
-471.230	-200.000	0.066	0.393
-470.216	-104.450	0.471	-0.140
-469.201	-54.486	0.311	0.181
-468.186	-69.564	0.238	-0.117
-467.172	-74.606	0.313	-0.145
-466.157	-154.831	-0.355	0.030
-465.143	-86.322	-0.184	-0.072
-464.128	-122.527	-0.544	0.113
-463.113	800.000	0.050	-0.253
-462.099	315.271	0.108	-0.262
-461.084	-19.725	-0.251	0.200
-460.070	389.656	0.145	-0.390
-459.055	-200.000	-0.054	-0.408
-458.040	29.082	0.164	-0.179
-457.026	-101.148	-0.169	-0.053
-456.011	-71.261	0.465	-0.224
-454.997	36.518	-0.139	0.159
-453.982	-102.165	0.027	-0.008
-452.968	-200.000	0.009	-0.115
-451.953	-62.718	0.225	0.120
-450.938	15.419	-0.596	0.602
-449.924	800.000	0.091	0.456
-448.909	-26.798	0.250	0.188
-447.895	-92.531	0.180	-0.065
-446.880	-141.452	0.276	0.036
-445.865	629.309	0.125	0.410
-444.851	-107.155	0.299	0.084
-443.836	-148.569	-0.356	0.037
-442.822	-127.139	0.430	-0.080
-441.807	101.267	0.312	-0.469
-440.792	-200.000	-0.022	-0.239
-439.778	-69.438	-0.349	0.172
-438.763	800.000	-0.070	-0.354
-437.749	62.673	-0.088	0.114
-436.734	42.340	-0.047	0.056
-435.719	107.206	-0.154	0.235
-434.705	256.362	0.074	0.164
-433.690	-200.000	0.014	-0.481
-432.676	800.000	0.035	0.136
-431.661	65.344	0.306	0.399
-430.646	-109.200	-0.213	-0.058
-429.632	741.044	-0.120	-0.419
-428.617	-200.000	0.055	0.365
-427.603	41.224	-0.230	-0.267
-426.588	277.871	-0.174	-0.400
-425.573	-135.172	0.371	-0.057
-424.559	-129.489	-0.255	-0.045
-423.544	-23.765	0.434	0.334
-422.530	-122.205	-0.634	0.132
-421.515	-67.240	-0.115	0.058
-420.500	-83.313	0.062	-0.025
-419.486	65.479	-0.085	0.111
-418.471	-24.255	-0.115	-0.088
-417.457	800.000	-0.021	-0.089
-416.442	-158.807	0.314	0.023
-415.428	681.967	0.106	-0.359
-414.413	15.829	0.299	0.302
-413.398	-47.625	-0.164	0.102
-412.384	-177.397	-0.654	0.020
-411.369	3.360	-0.377	-0.353
-410.355	-120.967	-0.079	0.017
-409.340	-85.345	0.389	0.155
-408.325	-161.424	0.253	-0.017
-407.311	-138.784	0.489	0.068
-406.296	235.456	-0.128	-0.273
-405.282	507.481	-0.027	-0.081
-404.267	57.298	0.130	-0.163
-403.252	38.801	-0.115	0.132
-402.238	-112.172	-0.512	0.131
-401.223	-30.682	0.013	-0.009
-400.209	47.481	-0.234	-0.281
-399.194	-155.094	-0.472	0.039
-398.179	-73.985	-0.296	0.138
-397.165	236.864	0.074	-0.158
-396.150	-105.312	-0.380	-0.110
-395.136	-103.285	-0.053	-0.016
-394.121	-200.000	0.111	-0.000
-393.106	30.306	0.365	0.400
-392.092	227.886	-0.167	0.350
-391.077	55.591	0.177	0.220
-390.063	-109.980	0.431	-0.115
-389.048	-84.310	-0.372	0.151
-388.033	-32.382	0.511	0.366
-387.019	-89.905	0.357	-0.133
-386.004	128.152	-0.201	-0.329
-384.990	85.895	-0.195	-0.276
-383.975	-150.107	-0.205	-0.020
-382.960	273.683	0.074	0.170
-381.946	-153.603	-0.223	-0.020
-380.931	-24.842	0.123	0.093
-379.917	374.095	-0.060	0.157
-378.902	-27.319	0.229	0.171
-377.888	-91.416	0.154	0.056
-376.873	-154.912	-0.113	0.009
-375.858	-200.000	-0.003	0.150
-374.844	113.120	-0.208	-0.324
-373.829	638.342	0.015	-0.050
-372.815	-34.566	0.170	0.119
-371.800	-33.758	0.375	0.265
-370.785	-83.710	0.531	0.217
-369.771	-200.000	-0.053	-0.554
-368.756	-126.305	-0.267	0.051
-367.742	-48.366	-0.248	-0.153
-366.727	575.278	0.071	-0.224
-365.712	-84.150	-0.484	-0.196
-364.698	-200.000	0.006	-0.381
-363.683	-200.000	-0.082	-0.554
-362.669	-8.542	-0.389	-0.335
-361.654	800.000	0.030	0.154
-360.639	-64.339	0.272	-0.142
-359.625	-102.506	-0.239	0.073
-358.610	-73.004	-0.158	-0.074
-357.596	-177.775	0.110	0.003
-356.581	-88.914	0.649	0.246
-355.566	-5.987	-0.493	-0.432
-354.552	-104.280	0.186	-0.055
-353.537	-133.397	0.322	-0.051
-352.523	-43.421	-0.271	-0.175
-351.508	-81.271	0.640	-0.270
-350.493	103.752	-0.175	0.264
-349.479	-24.510	0.292	-0.223
-348.464	75.476	0.059	-0.080
-347.450	-98.600	0.518	0.169
-346.435	235.082	-0.214	0.456
-345.420	-165.920	-0.340	-0.018
-344.406	800.000	0.105	0.501
-343.391	-200.000	0.014	-0.367
-342.377	-95.200	-0.368	0.126
-341.362	284.366	-0.034	-0.080
-340.348	800.000	0.087	0.414
-339.333	800.000	0.104	0.372
-338.318	-56.062	-0.291	0.166
-337.304	-37.643	-0.385	0.263
-336.289	-86.252	-0.262	-0.103
-335.275	-146.343	0.617	0.068
-334.260	-200.000	0.018	0.111
-333.245	-186.089	0.164	0.003
-332.231	572.954	-0.151	-0.475
-331.216	411.716	0.132	0.361
-330.202	41.799	0.204	-0.238
-329.187	479.121	0.166	0.486
-328.172	88.892	-0.111	-0.159
-327.158	-46.480	0.115	-0.072
-326.143	-200.000	-0.006	-0.371
-325.129	-121.379	0.276	0.059
-324.114	-61.121	0.346	0.187
-323.099	54.145	0.211	-0.260
-322.085	477.162	-0.056	0.164
-321.070	178.994	-0.190	-0.356
-320.056	63.012	-0.374	-0.481
-319.041	330.919	-0.170	-0.420
-318.026	226.602	0.089	-0.186
-317.012	-75.280	-0.271	-0.123
-315.997	-39.255	0.269	-0.181
-314.983	-2.883	0.234	-0.210
-313.968	-152.583	-0.139	0.013
-312.953	-86.653	-0.148	-0.058
-311.939	-183.736	-0.356	0.008
-310.924	-69.395	0.246	0.120
-309.910	-116.626	-0.591	-0.138
-308.895	-110.044	0.107	0.029
-307.880	-200.000	-0.085	-0.492
-306.866	85.078	0.153	-0.215
-305.851	28.483	-0.448	-0.485
-304.837	24.559	-0.469	-0.497
-303.822	-88.003	0.333	-0.127
-302.807	-9.999	0.072	0.061
-301.793	227.411	-0.183	0.383
-300.778	-58.651	-0.493	0.273
-299.764	24.296	-0.210	0.222
-298.749	-117.775	0.379	-0.087
-297.735	-120.357	0.274	0.059
-296.720	-133.815	0.264	0.042
-295.705	12.604	-0.229	0.226
-294.691	-97.623	0.318	-0.105
-293.676	-32.299	0.087	-0.062
-292.662	-62.592	0.376	0.199
-291.647	664.517	0.038	0.125
-290.632	-123.750	-0.681	-0.137
-289.618	-123.714	0.105	-0.021
-288.603	-71.787	0.371	0.176
-287.589	95.995	0.338	0.495
-286.574	102.224	0.540	0.808
-285.559	569.925	-0.143	-0.447
-284.545	-161.148	-0.117	-0.008
-283.530	-27.463	0.215	0.160
-282.516	-69.966	0.283	0.137
-281.501	-198.646	0.430	0.003
-280.486	73.665	-0.034	0.045
-279.472	-37.991	0.158	-0.107
-278.457	-23.629	-0.248	0.190
-277.443	-60.972	0.305	-0.164
-276.428	-140.074	-0.420	-0.056
-275.413	505.544	-0.110	0.328
-274.399	17.927	0.126	0.129
-273.384	-165.387	0.368	0.020
-272.370	32.503	0.154	0.170
-271.355	800.000	0.027	-0.103
-270.340	67.339	-0.114	-0.149
-269.326	-99.689	-0.057	-0.018
-268.311	73.916	-0.142	-0.191
-267.297	-133.392	0.303	0.048
-266.282	-91.313	-0.424	-0.154
-265.267	-142.790	-0.049	-0.006
-264.253	800.000	-0.077	-0.373
-263.238	-200.000	0.061	-0.453
-262.224	-25.306	-0.062	0.047
-261.209	-137.701	0.373	-0.053
-260.195	244.333	-0.148	-0.318
-259.180	261.746	-0.220	0.489
-258.165	-107.606	0.098	-0.027
-257.151	-95.099	-0.207	-0.071
-256.136	119.955	0.295	-0.468
-255.122	-164.791	0.203	-0.011
-254.107	-63.134	0.349	0.183
-253.092	51.876	0.262	-0.319
-252.078	800.000	-0.037	0.182
-251.063	-200.000	-0.071	0.480
-250.049	-97.633	0.126	-0.042
-249.034	400.166	-0.149	0.401
-248.019	-54.638	-0.241	-0.139
-247.005	15.718	-0.124	-0.125
-245.990	-43.850	-0.135	0.087
-244.976	-59.969	-0.215	0.117
-243.961	-200.000	0.015	-0.137
-242.946	288.622	-0.224	-0.521
-241.932	-113.520	0.463	0.115
-240.917	-200.000	-0.014	-0.215
-239.903	-110.097	-0.157	0.042
-238.888	-200.000	0.009	0.284
-237.873	-200.000	0.068	0.542
-236.859	-46.524	-0.185	0.116
-235.844	800.000	0.030	0.157
-234.830	-51.433	-0.386	-0.230
-233.815	-166.383	0.139	-0.007
-232.800	-20.022	0.166	0.131
-231.786	96.422	-0.228	-0.334
-230.771	-38.419	0.295	0.199
-229.757	-111.645	-0.218	-0.056
-228.742	275.785	0.214	-0.487
-227.727	14.651	-0.549	-0.548
-226.713	-135.955	-0.121	0.018
-225.698	413.642	-0.138	-0.377
-224.684	800.000	0.113	0.501
-223.669	62.304	0.281	0.359
-222.655	-200.000	-0.012	-0.288
-221.640	197.310	-0.132	-0.259
-220.625	184.985	0.121	-0.229
-219.611	-200.000	-0.096	-0.542
-218.596	-200.000	-0.006	0.396
-217.582	-72.354	-0.116	0.054
-216.567	800.000	0.075	-0.273
-215.552	43.736	0.305	0.356
-214.538	-200.000	0.021	0.486
-213.523	-57.284	0.203	0.114
-212.509	-105.862	0.273	-0.078
-211.494	-67.248	-0.438	0.219
-210.479	-130.326	0.341	-0.059
-209.465	19.758	0.172	0.177
-208.450	-87.091	-0.389	0.150
-207.436	602.387	-0.074	-0.235
-206.421	-40.121	-0.145	-0.096
-205.406	-88.260	0.178	0.067
-204.392	-71.772	-0.225	-0.106
-203.377	-15.840	0.478	-0.388
-202.363	70.814	0.214	-0.283
-201.348	109.129	-0.290	-0.444
-200.333	-33.679	-0.212	-0.149
-199.319	28.646	-0.149	0.161
-198.304	-19.934	0.336	0.264
-197.290	-59.736	0.053	-0.029
-196.275	-119.544	0.578	0.127
-195.260	-64.431	0.324	-0.168
-194.246	474.268	0.084	0.242
-193.231	-156.263	0.310	-0.024
-192.217	95.318	-0.106	-0.155
-191.202	-89.369	0.222	0.083
-190.187	-55.705	-0.002	0.001
-189.173	-200.000	-0.018	0.300
-188.158	144.096	-0.311	-0.530
-187.144	-92.378	0.206	0.073
-186.129	-53.206	-0.281	0.164
-185.114	-30.683	0.124	-0.090
-184.100	-80.761	-0.298	-0.126
-183.085	118.460	-0.206	0.325
-182.071	278.506	-0.098	-0.224
-181.056	-58.912	0.407	0.224
-180.042	472.241	0.118	-0.341
-179.027	-104.865	0.284	-0.082
-178.012	495.034	-0.125	0.367
-176.998	215.877	0.231	0.470
-175.983	150.606	0.289	0.502
-174.969	61.319	-0.139	0.176
-173.954	119.700	0.123	0.194
-172.939	-59.363	-0.250	-0.136
-171.925	-200.000	0.016	0.289
-170.910	-90.946	0.219	0.080
-169.896	174.962	0.052	0.096
-168.881	75.176	-0.164	-0.220
-167.866	92.607	-0.129	0.186
-166.852	-84.638	-0.361	0.144
-165.837	86.971	0.308	-0.434
-164.823	343.272	-0.120	-0.300
-163.808	279.647	-0.187	0.428
-162.793	57.431	0.039	0.049
-161.779	105.096	-0.097	0.147
-160.764	215.248	-0.261	0.530
-159.750	-3.333	-0.289	-0.256
-158.735	-126.381	0.380	-0.071
-157.720	-77.600	-0.120	0.053
-156.706	300.872	-0.087	-0.205
-155.691	-200.000	0.046	0.425
-154.677	798.571	0.067	-0.238
-153.662	-181.859	0.340	0.008
-152.647	-169.496	-0.178	0.008
-151.633	-58.652	0.087	0.048
-150.618	251.416	-0.207	-0.451
-149.604	111.661	0.095	-0.146
-148.589	192.847	0.136	0.261
-147.574	-35.377	-0.118	0.082
-146.560	-109.798	0.087	-0.023
-145.545	-9.514	0.219	-0.186
-144.531	128.547	0.196	0.318
-143.516	691.175	0.103	-0.346
-142.502	-22.553	0.365	-0.281
-141.487	-200.000	0.036	-0.212
-140.472	-28.208	0.070	0.051
-139.458	25.184	-0.199	-0.210
-138.443	147.693	0.069	-0.118
-137.429	311.735	0.078	-0.186
-136.414	22.012	-0.428	0.444
-135.399	-35.805	0.182	0.125
-134.385	-200.000	0.024	0.138
-133.370	34.903	0.080	-0.089
-132.356	770.398	0.192	0.671
-131.341	-100.099	-0.659	0.208
-130.326	-189.992	0.134	0.002
-129.312	582.753	-0.110	0.344
-128.297	-34.850	0.108	-0.075
-127.283	-80.439	0.370	-0.156
-126.268	-66.432	0.538	-0.271
-125.253	160.390	-0.333	0.593
-124.239	-64.024	-0.066	-0.034
-123.224	-200.000	-0.000	0.114
-122.210	52.335	0.084	-0.103
-121.195	-55.434	0.385	-0.219
-120.180	800.000	0.070	-0.288
-119.166	-135.894	0.848	-0.126
-118.151	31.235	-0.197	-0.215
-117.137	-200.000	0.022	-0.263
-116.122	-200.000	0.018	-0.188
-115.107	7.623	-0.310	-0.295
-114.093	-6.308	0.125	0.109
-113.078	-200.000	0.025	0.227
-112.064	-172.026	0.442	-0.018
-111.049	0.709	-0.230	0.209
-110.034	-73.938	0.271	-0.124
-109.020	-11.772	0.104	-0.086
-108.005	-61.082	-0.262	-0.140
-106.991	-138.092	0.362	-0.051
-105.976	-35.825	-0.250	0.171
-104.962	-77.801	-0.331	0.145
-103.947	-54.517	0.367	-0.211
-102.932	266.963	-0.210	0.468
-101.918	227.344	-0.095	0.197
-100.903	-76.046	-0.175	0.078
-99.889	-200.000	-0.028	0.274
-98.874	47.047	0.061	0.072
-97.859	-97.336	-0.503	-0.165
-96.845	-141.502	0.225	-0.029
-95.830	-194.946	0.231	0.002
-94.816	-200.000	-0.013	0.199
-93.801	-145.560	-0.226	0.025
-92.786	-164.579	0.284	-0.016
-91.772	7.071	-0.051	-0.048
-90.757	-45.181	-0.017	0.011
-89.743	-51.273	-0.291	0.172
-88.728	76.893	0.204	-0.276
-87.713	-52.527	-0.032	-0.019
-86.699	73.388	0.188	0.250
-85.684	60.467	0.391	0.492
-84.670	-85.332	0.270	0.107
-83.655	-39.418	-0.049	0.033
-82.640	-200.000	-0.029	-0.436
-81.626	-184.443	-0.232	-0.005
-80.611	-141.918	-0.426	0.053
-79.597	-39.640	0.376	0.249
-78.582	344.380	-0.204	0.510
-77.567	-100.814	0.170	0.053
-76.553	721.066	0.123	-0.418
-75.538	-200.000	-0.044	-0.576
-74.524	300.803	-0.138	-0.326
-73.509	-92.307	-0.424	0.151
-72.494	263.288	0.167	0.370
-71.480	-200.000	0.066	-0.398
-70.465	-102.175	0.475	-0.144
-69.451	-83.976	0.045	0.018
-68.436	515.379	-0.064	-0.192
-67.422	800.000	-0.070	-0.343
-66.407	-200.000	-0.025	0.546
-65.392	89.399	-0.213	0.302
-64.378	-117.906	-0.389	0.088
-63.363	-46.238	0.206	0.128
-62.349	355.563	-0.082	-0.208
-61.334	31.904	-1.579	-1.725
-60.319	92.609	0.400	0.573
-59.305	263.362	-3.069	-6.790
-58.290	-5.818	3.258	2.827
-57.276	368.748	3.976	10.248
-56.261	-200.000	16.339	248.040
-55.246	417.430	1216.045	3310.517
-54.232	57.106	2846.729	3524.038
-53.217	61.355	2725.174	3438.770
-52.203	38.404	2454.987	2775.460
-51.188	38.606	2106.395	2383.746
-50.173	34.992	1979.157	2198.032
-49.159	33.377	1968.689	2167.752
-48.144	32.981	1964.467	2158.468
-47.130	33.006	1960.896	2154.745
-46.115	33.028	1959.572	2153.453
-45.100	32.961	1958.183	2151.074
-44.086	32.949	1956.935	2149.484
-43.071	32.859	1955.890	2147.225
-42.057	32.905	1953.506	2145.047
-41.042	32.862	1951.993	2142.802
-40.027	32.824	1950.836	2141.018
-39.013	32.737	1949.564	2138.549
-37.998	32.813	1948.091	2137.709
-36.984	32.912	1946.493	2137.002
-35.969	32.734	1945.294	2133.573
-34.954	32.822	1943.665	2132.699
-33.940	32.713	1943.817	2131.547
-32.925	32.676	1942.070	2129.127
-31.911	32.739	1940.738	2128.291
-30.896	32.743	1939.261	2126.630
-29.881	32.681	1937.962	2124.426
-28.867	32.737	1936.181	2123.018
-27.852	32.581	1935.979	2120.947
-26.838	32.641	1933.940	2119.316
-25.823	32.637	1932.719	2117.842
-24.809	32.553	1931.161	2115.103
-23.794	32.620	1929.944	2114.440
-22.779	32.629	1928.344	2112.707
-21.765	32.603	1927.204	2111.083
-20.750	32.653	1925.835	2110.062
-19.736	32.553	1924.808	2107.721
-18.721	32.494	1924.134	2106.239
-17.706	32.556	1922.567	2105.142
-16.692	32.629	1920.956	2104.108
-15.677	32.535	1920.226	2102.168
-14.663	32.688	1918.181	2101.568
-13.648	32.477	1918.388	2099.345
-12.633	32.620	1916.682	2098.997
-11.619	32.634	1914.582	2096.775
-10.604	32.534	1913.162	2094.010
-9.590	32.601	1911.957	2093.357
-8.575	32.447	1910.964	2090.471
-7.560	32.552	1909.391	2089.840
-6.546	32.468	1908.211	2087.521
-5.531	32.474	1907.265	2086.475
-4.517	32.415	1906.207	2084.583
-3.502	32.453	1905.401	2084.034
-2.487	32.477	1904.105	2082.800
-1.473	32.554	1900.255	2079.368
-0.458	32.358	1880.952	2056.004
0.556	28.689	2017.940	2149.761
1.571	27.217	2232.371	2358.729
2.586	28.241	2277.189	2419.419
3.600	28.299	2279.680	2422.545
4.615	28.221	2279.970	2421.525
5.629	28.250	2278.422	2419.968
6.644	28.318	2275.968	2417.979
7.659	28.300	2273.479	2414.805
8.673	28.263	2272.063	2412.521
9.688	28.021	2278.557	2415.916
10.702	26.145	2353.559	2469.368
11.717	23.494	2419.876	2501.116
12.731	11.830	2389.283	2304.996
13.746	1.887	2360.950	2137.756
14.761	0.375	2356.280	2111.988
15.775	0.265	2354.038	2108.182
16.790	0.222	2352.322	2105.783
17.804	0.203	2350.968	2104.055
18.819	0.204	2349.862	2102.832
19.834	0.070	2348.528	2099.506
20.848	0.118	2347.538	2099.041
21.863	0.172	2345.147	2097.401
22.877	0.215	2343.599	2096.371
23.892	0.097	2341.099	2092.240
24.907	0.123	2339.211	2090.653
25.921	0.157	2337.042	2088.938
26.936	0.095	2335.559	2086.505
27.950	0.167	2332.399	2084.441
28.965	0.121	2330.886	2082.198
29.980	0.133	2329.577	2080.937
30.994	0.350	2328.229	2082.497
32.009	6.483	2348.821	2186.392
33.023	20.732	2391.870	2427.304
34.038	27.481	2405.588	2535.729
35.053	28.658	2405.125	2551.391
36.067	28.844	2403.797	2552.269
37.082	28.587	2400.689	2545.084
38.096	28.428	2398.812	2540.570
39.111	28.744	2397.237	2543.007
40.126	29.043	2394.846	2544.315
41.140	29.259	2394.116	2546.239
42.155	28.883	2390.744	2537.134
43.169	28.681	2388.589	2531.736
44.184	28.680	2385.819	2528.482
45.199	28.604	2384.054	2525.259
46.213	28.646	2382.571	2523.966
47.228	28.558	2381.927	2521.769
48.242	28.591	2379.194	2519.025
49.257	28.519	2378.258	2516.743
50.271	29.014	2374.850	2519.656
51.286	28.952	2373.747	2517.327
52.301	28.663	2372.344	2511.566
53.315	28.246	2369.974	2503.021
54.330	28.331	2369.008	2502.872
55.344	28.526	2366.215	2502.297
56.359	28.575	2362.545	2498.786
57.374	28.486	2361.894	2496.587
58.388	28.405	2358.276	2491.346
59.403	28.390	2353.661	2485.979
60.417	28.315	2350.510	2481.327
61.432	28.277	2349.821	2479.789
62.447	28.408	2347.757	2479.094
63.461	28.255	2345.490	2474.317
64.476	28.239	2343.476	2471.679
65.490	28.419	2343.253	2473.598
66.505	28.666	2343.478	2476.892
67.520	28.519	2341.433	2472.442
68.534	28.203	2337.098	2463.292
69.549	28.326	2334.281	2461.694
70.563	28.393	2332.125	2460.027
71.578	28.346	2330.540	2457.418
72.593	28.441	2329.411	2457.225
73.607	28.653	2327.382	2457.635
74.622	28.482	2326.201	2453.801
75.636	28.266	2322.592	2446.793
76.651	28.294	2320.407	2444.575
77.666	28.373	2318.444	2443.273
78.680	28.332	2316.003	2439.865
79.695	28.446	2314.796	2439.821
80.709	28.522	2313.362	2439.040
81.724	28.586	2311.124	2437.240
82.739	28.575	2309.400	2434.980
83.753	28.629	2307.698	2433.620
84.768	28.448	2306.773	2429.935
85.782	28.476	2303.753	2426.843
86.797	28.454	2302.474	2424.912
87.812	28.320	2299.584	2419.792
88.826	28.139	2296.839	2414.219
89.841	28.301	2296.017	2415.212
90.855	28.530	2293.567	2415.377
91.870	28.284	2290.946	2409.076
92.884	28.240	2289.414	2406.589
93.899	28.433	2289.957	2409.427
94.914	28.281	2288.846	2405.962
95.928	27.864	2287.148	2398.387
96.943	27.728	2284.584	2393.611
97.957	28.132	2282.568	2396.536
98.972	28.379	2280.736	2397.571
99.987	28.083	2277.020	2389.491
101.001	28.181	2273.979	2387.307
102.016	28.255	2272.541	2386.479
103.030	28.124	2271.302	2383.179
104.045	28.492	2269.481	2385.793
105.060	28.674	2267.150	2385.439
106.074	28.640	2265.189	2382.645
107.089	28.451	2263.331	2377.935
108.103	28.417	2263.231	2377.101
109.118	28.648	2261.050	2377.541
110.133	28.644	2259.725	2375.810
111.147	28.580	2257.408	2372.257
112.162	28.481	2255.966	2369.174
113.176	28.569	2252.841	2366.752
114.191	28.378	2251.472	2362.552
115.206	28.202	2249.528	2357.946
116.220	28.412	2247.697	2358.469
117.235	28.331	2245.439	2354.772
118.249	28.406	2243.316	2353.234
119.264	28.562	2241.960	2353.540
120.279	28.485	2241.820	2352.116
121.293	28.467	2238.878	2348.510
122.308	28.530	2237.116	2347.190
123.322	28.520	2236.603	2346.243
124.337	28.171	2234.270	2339.031
125.352	28.173	2234.241	2338.755
126.366	28.322	2233.756	2339.877
127.381	28.406	2229.734	2336.464
128.395	28.308	2227.782	2332.876
129.410	28.702	2225.229	2334.958
130.424	28.670	2223.805	2332.788
131.439	28.720	2222.205	2331.461
132.454	28.516	2220.125	2326.400
133.468	28.533	2217.658	2323.748
134.483	28.580	2215.576	2321.887
135.497	28.552	2214.745	2320.381
136.512	28.781	2212.982	2321.170
137.527	28.805	2210.456	2318.550
138.541	28.526	2209.277	2313.490
139.556	28.601	2208.075	2312.909
140.570	28.533	2207.612	2311.282
141.585	28.555	2204.564	2308.097
142.600	28.546	2203.633	2306.735
143.614	28.355	2201.969	2302.298
144.629	28.572	2200.820	2303.562
145.643	28.530	2198.476	2300.300
146.658	28.516	2195.704	2296.956
147.673	28.352	2193.624	2292.445
148.687	28.371	2193.139	2291.902
149.702	28.447	2191.718	2291.092
150.716	28.375	2191.244	2289.415
151.731	28.525	2189.829	2289.554
152.746	28.637	2187.957	2288.722
153.760	28.178	2187.161	2281.862
154.775	27.882	2185.697	2276.361
155.789	27.829	2183.294	2272.915
156.804	27.893	2179.933	2269.946
157.819	28.200	2176.636	2270.071
158.833	28.195	2175.163	2268.204
159.848	28.517	2174.262	2270.997
160.862	28.750	2172.950	2272.251
161.877	28.861	2172.200	2272.575
162.892	28.958	2172.512	2273.838
163.906	29.147	2171.604	2274.956
164.921	29.233	2169.022	2273.043
165.935	29.084	2166.412	2268.192
166.950	28.998	2164.496	2264.859
167.964	28.910	2161.833	2260.715
168.979	28.734	2160.235	2256.594
169.994	28.687	2158.787	2254.238
171.008	28.641	2156.686	2251.197
172.023	28.572	2155.264	2248.592
173.037	28.747	2155.121	2250.330
174.052	28.903	2151.751	2248.470
175.067	28.655	2149.992	2243.310
176.081	28.629	2149.679	2242.391
177.096	28.702	2148.488	2241.777
178.110	28.359	2146.342	2235.065
179.125	28.476	2144.650	2234.468
180.140	28.718	2144.112	2236.607
181.154	28.831	2142.326	2235.852
182.169	28.639	2141.585	2232.466
183.183	28.338	2139.246	2226.094
184.198	28.185	2137.766	2222.415
185.213	28.153	2135.683	2219.599
186.227	28.331	2134.528	2220.298
187.242	28.321	2133.073	2218.394
188.256	28.403	2130.706	2216.665
189.271	28.787	2129.291	2219.589
190.286	28.772	2128.131	2217.933
191.300	28.521	2125.468	2211.856
192.315	28.445	2123.016	2208.112
193.329	28.670	2122.976	2210.530
194.344	29.030	2122.433	2214.057
195.359	28.910	2122.276	2212.175
196.373	29.135	2119.185	2211.410
197.388	29.028	2116.580	2207.128
198.402	28.862	2114.509	2202.708
199.417	28.940	2112.267	2201.050
200.432	28.950	2110.490	2199.059
201.446	28.843	2109.441	2196.411
202.461	28.589	2107.915	2191.509
203.475	28.433	2104.298	2185.617
204.490	28.494	2102.448	2184.166
205.504	28.471	2100.924	2182.045
206.519	28.600	2098.256	2180.555
207.534	28.614	2098.126	2180.332
208.548	28.798	2096.097	2180.153
209.563	28.270	2093.566	2170.973
210.577	28.401	2092.400	2171.066
211.592	28.634	2093.107	2174.309
212.607	28.229	2091.047	2167.088
213.621	27.492	2089.103	2156.051
214.636	27.557	2087.026	2154.422
215.650	27.945	2086.222	2157.937
216.665	28.508	2084.484	2162.564
217.680	28.815	2083.257	2164.662
218.694	28.835	2082.624	2163.987
219.709	28.800	2080.907	2161.523
220.723	28.832	2080.187	2160.903
221.738	29.115	2078.455	2162.179
222.753	28.917	2075.734	2156.762
223.767	28.740	2073.209	2151.790
224.782	28.711	2070.306	2148.184
225.796	28.727	2070.025	2147.819
226.811	28.976	2069.392	2149.838
227.826	29.113	2067.718	2149.449
228.840	28.835	2067.024	2145.209
229.855	28.908	2064.956	2143.656
230.869	28.705	2063.313	2139.318
231.884	28.465	2061.130	2133.985
232.899	28.551	2060.633	2134.220
233.913	28.693	2059.831	2134.794
234.928	28.840	2058.300	2134.675
235.942	28.850	2056.236	2132.390
236.957	28.613	2054.464	2127.543
237.972	28.576	2053.695	2126.055
238.986	28.707	2052.328	2125.907
240.001	28.654	2050.355	2123.002
241.015	28.391	2049.043	2118.335
242.030	28.454	2048.681	2118.436
243.045	28.436	2047.098	2116.339
244.059	28.429	2044.571	2113.385
245.074	28.512	2042.857	2112.327
246.088	28.615	2039.879	2110.181
247.103	28.779	2038.547	2110.442
248.117	28.789	2037.924	2109.664
249.132	28.723	2036.412	2107.081
250.147	28.601	2032.856	2101.755
251.161	28.519	2031.366	2099.016
252.176	28.614	2031.027	2099.503
253.190	28.678	2028.028	2096.885
254.205	28.678	2025.948	2094.484
255.220	28.648	2026.218	2094.169
256.234	28.584	2025.252	2092.188
257.249	28.479	2023.028	2088.438
258.263	28.559	2022.119	2088.170
259.278	28.802	2020.523	2089.039
260.293	28.674	2020.030	2086.824
261.307	28.598	2017.652	2083.253
262.322	28.746	2016.192	2083.178
263.336	28.551	2013.280	2077.703
264.351	28.378	2011.508	2073.652
265.366	28.632	2010.159	2074.899
266.380	28.601	2009.903	2074.044
267.395	28.340	2008.525	2069.407
268.409	28.341	2006.305	2066.887
269.424	28.515	2005.867	2068.156
270.439	28.645	2005.088	2068.575
271.453	28.576	2002.657	2065.047
272.468	28.050	2000.414	2056.534
273.482	27.893	1998.008	2052.046
274.497	28.077	1995.169	2050.954
275.512	28.330	1994.112	2052.476
276.526	28.413	1991.434	2050.406
277.541	28.418	1990.419	2049.174
278.555	28.326	1988.621	2046.047
279.570	28.249	1986.340	2042.592
280.585	28.177	1985.580	2040.758
281.599	28.243	1984.118	2039.743
282.614	28.446	1983.776	2041.425
283.628	28.625	1982.341	2041.708
284.643	27.845	1978.214	2028.503
285.657	26.463	1972.153	2006.650
286.672	25.563	1967.984	1992.150
287.687	25.141	1967.283	1986.497
288.701	25.686	1967.671	1992.719
289.716	26.258	1967.365	1998.537
290.730	25.836	1965.559	1991.771
291.745	26.239	1965.264	1995.720
292.760	27.360	1967.313	2010.009
293.774	28.168	1967.791	2019.228
294.789	28.714	1967.629	2024.864
295.803	28.858	1965.764	2024.305
296.818	28.805	1963.883	2021.541
297.833	28.688	1963.367	2019.468
298.847	28.641	1962.791	2018.120
299.862	28.746	1961.185	2017.386
300.876	28.477	1958.767	2011.691
301.891	28.406	1956.873	2008.721
302.906	28.425	1956.318	2008.117
303.920	28.609	1955.369	2008.934
304.935	28.873	1953.245	2009.404
305.949	28.957	1951.007	2007.781
306.964	29.037	1950.119	2007.513
307.979	28.519	1944.955	1996.284
308.993	26.095	1937.335	1961.772
310.008	24.661	1933.278	1941.783
311.022	24.739	1932.487	1941.610
312.037	24.981	1931.988	1943.520
313.052	24.891	1928.605	1938.899
314.066	24.417	1925.888	1930.788
315.081	24.158	1925.629	1927.473
316.095	24.269	1924.850	1927.676
317.110	24.451	1923.042	1927.611
318.125	24.513	1921.177	1926.179
319.139	24.403	1920.252	1923.833
320.154	24.512	1918.543	1923.068
321.168	24.805	1919.398	1926.870
322.183	26.862	1922.732	1952.267
323.197	28.572	1925.855	1973.710
324.212	28.829	1923.893	1974.232
325.227	28.553	1922.016	1969.092
326.241	28.525	1919.940	1966.434
327.256	28.620	1918.934	1966.193
328.270	28.577	1918.598	1965.144
329.285	28.510	1918.266	1963.845
330.300	28.430	1917.201	1961.670
331.314	28.016	1914.280	1953.999
332.329	27.879	1912.512	1950.483
333.343	28.147	1910.981	1951.564
334.358	28.540	1909.755	1954.287
335.373	28.718	1908.853	1955.037
336.387	28.720	1907.076	1953.006
337.402	28.804	1905.264	1951.811
338.416	28.663	1903.850	1948.627
339.431	28.805	1902.279	1948.300
340.446	28.839	1899.636	1945.716
341.460	27.210	1893.415	1921.822
342.475	25.405	1887.826	1896.778
343.489	24.754	1884.344	1886.158
344.504	24.515	1884.192	1883.250
345.519	24.530	1882.776	1881.764
346.533	24.480	1880.163	1878.401
347.548	24.442	1878.460	1876.075
348.562	24.454	1876.866	1874.377
349.577	24.376	1876.613	1873.076
350.592	24.693	1875.873	1875.466
351.606	24.838	1874.760	1875.653
352.621	24.723	1873.754	1873.207
353.635	24.814	1873.069	1873.256
354.650	25.519	1873.894	1881.278
355.665	27.447	1877.151	1904.616
356.679	28.532	1878.557	1917.219
357.694	28.780	1876.454	1917.444
358.708	28.951	1875.212	1917.736
359.723	28.754	1874.545	1914.764
360.738	28.313	1872.515	1907.843
361.752	28.013	1870.824	1902.758
362.767	28.405	1870.263	1906.056
363.781	28.809	1868.387	1908.136
364.796	28.820	1867.509	1907.128
365.810	28.930	1865.178	1905.659
366.825	28.161	1860.622	1892.782
367.840	26.173	1855.006	1866.213
368.854	24.823	1852.037	1848.989
369.869	24.744	1849.719	1845.635
370.883	24.649	1848.085	1842.799
371.898	24.780	1847.793	1843.646
372.913	24.693	1845.358	1840.096
373.927	24.548	1843.410	1836.435
374.942	24.247	1842.532	1832.226
375.956	24.589	1841.489	1834.503
376.971	24.798	1840.632	1835.583
377.986	24.555	1838.928	1831.166
379.000	24.610	1837.537	1830.129
380.015	25.080	1837.586	1834.794
381.029	26.967	1841.113	1857.525
382.044	28.571	1842.126	1874.818
383.059	28.851	1840.488	1875.797
384.073	28.488	1839.946	1871.297
385.088	28.510	1838.800	1870.135
386.102	28.637	1837.763	1870.156
387.117	28.810	1836.142	1870.058
388.132	28.849	1835.647	1869.727
389.146	28.470	1834.746	1864.709
390.161	27.971	1832.362	1856.971
391.175	27.970	1828.931	1853.259
392.190	28.382	1825.957	1854.219
393.205	28.493	1824.853	1854.003
394.219	28.525	1823.790	1853.023
395.234	28.525	1821.688	1850.667
396.248	28.359	1819.655	1846.696
397.263	28.371	1817.803	1844.720
398.278	28.278	1815.648	1841.367
399.292	28.251	1814.910	1840.127
400.307	27.806	1812.345	1832.818
401.321	26.162	1805.900	1809.537
402.336	25.090	1802.440	1795.060
403.350	24.903	1801.405	1791.939
404.365	25.381	1800.886	1796.011
405.380	25.307	1799.075	1793.247
406.394	24.832	1798.150	1787.345
407.409	24.816	1796.500	1785.328
408.423	24.975	1795.010	1785.230
409.438	24.737	1793.354	1780.983
410.453	24.710	1792.108	1779.262
411.467	24.859	1791.495	1779.931
412.482	25.520	1793.316	1788.136
413.496	27.656	1796.344	1812.310
414.511	28.776	1795.942	1822.867
415.526	28.740	1794.975	1821.304
416.540	28.863	1792.799	1820.103
417.555	28.794	1792.761	1819.164
418.569	28.497	1791.672	1814.884
419.584	28.646	1791.866	1816.349
420.599	28.685	1791.722	1816.374
421.613	28.554	1789.485	1812.584
422.628	28.567	1788.322	1811.319
423.642	28.795	1787.125	1812.148
424.657	28.724	1784.073	1808.136
425.672	28.413	1781.848	1802.589
426.686	28.388	1781.887	1802.161
427.701	28.463	1779.826	1800.611
428.715	28.610	1778.861	1800.868
429.730	28.858	1778.417	1802.644
430.745	29.019	1777.648	1803.236
431.759	28.754	1776.252	1798.992
432.774	28.318	1773.791	1792.001
433.788	26.911	1769.581	1773.720
434.803	25.882	1767.567	1761.385
435.818	25.961	1766.650	1761.036
436.832	26.021	1765.907	1760.674
437.847	25.151	1758.188	1744.264
438.861	15.628	1731.223	1625.174
439.876	3.460	1707.605	1485.545
440.890	0.434	1702.038	1451.293
441.905	0.270	1700.444	1448.167
442.920	0.236	1699.078	1446.508
443.934	0.194	1698.327	1445.286
444.949	0.242	1696.418	1443.958
445.963	0.260	1696.272	1443.827
446.978	0.127	1696.290	1442.392
447.993	0.181	1694.356	1441.090
449.007	0.229	1691.880	1439.274
450.022	0.356	1689.657	1438.427
451.036	0.253	1687.986	1435.850
452.051	1.498	1695.208	1453.796
453.066	12.610	1720.667	1583.417
454.080	23.785	1738.828	1708.562
455.095	26.364	1743.562	1737.968
456.109	27.234	1746.483	1749.083
457.124	27.810	1743.777	1751.724
458.139	27.785	1743.415	1750.910
459.153	27.782	1743.754	1751.012
460.168	27.789	1741.200	1748.302
461.182	27.827	1739.233	1746.482
462.197	27.923	1737.579	1745.534
463.212	27.875	1736.840	1744.121
464.226	27.919	1735.642	1743.139
465.241	28.021	1734.435	1742.689
466.255	28.100	1734.128	1742.930
467.270	28.107	1732.245	1740.900
468.285	28.153	1730.209	1739.082
469.299	28.210	1729.979	1739.187
470.314	28.363	1727.936	1738.382
471.328	28.379	1726.323	1736.709
472.343	28.404	1725.469	1735.874
473.358	28.185	1724.098	1732.204
474.372	28.251	1722.690	1731.208
475.387	28.135	1720.983	1728.186
476.401	27.987	1719.110	1724.697
477.416	27.571	1717.710	1719.142
478.430	27.678	1716.823	1719.063
479.445	27.893	1715.245	1719.315
480.460	27.914	1713.704	1717.762
481.474	27.980	1714.051	1718.526
482.489	28.073	1712.581	1717.719
483.503	27.976	1710.709	1714.725
484.518	28.006	1709.270	1713.360
485.533	28.027	1707.836	1711.917
486.547	27.840	1706.134	1708.242
487.562	27.823	1705.551	1707.297
488.576	27.905	1704.050	1706.361
489.591	28.111	1702.670	1706.708
490.606	28.050	1701.776	1705.039
491.620	28.185	1700.575	1704.890
492.635	28.213	1698.673	1703.044
493.649	27.902	1697.456	1698.708
494.664	27.864	1695.999	1696.695
495.679	27.861	1694.400	1694.868
496.693	28.150	1693.178	1696.130
497.708	28.329	1692.095	1696.513
498.722	28.473	1691.532	1697.080
499.737	28.390	1690.411	1694.988
500.752	28.422	1688.257	1692.922
501.766	28.327	1686.693	1690.265
502.781	28.437	1685.315	1689.705
503.795	28.484	1684.119	1688.740
504.810	28.367	1683.140	1686.474
505.825	28.481	1682.541	1686.720
506.839	28.261	1681.707	1683.648
507.854	28.277	1679.673	1681.564
508.868	28.267	1678.140	1679.735
509.883	28.103	1676.699	1676.577
510.898	28.158	1675.713	1675.903
511.912	28.168	1673.418	1673.495
512.927	27.966	1671.402	1669.419
513.941	28.029	1670.050	1668.455
514.956	28.024	1668.472	1666.629
515.971	27.950	1667.628	1664.907
516.985	27.930	1666.735	1663.639
518.000	28.010	1666.407	1663.843
519.014	28.200	1665.191	1664.168
520.029	28.248	1663.579	1662.793
521.043	28.227	1662.237	1661.057
522.058	28.124	1661.170	1658.857
523.073	28.160	1660.451	1658.270
524.087	28.372	1659.270	1658.819
525.102	28.293	1657.816	1656.451
526.116	28.345	1656.197	1655.109
527.131	28.390	1655.404	1654.527
528.146	28.446	1655.139	1654.573
529.160	28.585	1654.118	1654.611
530.175	28.643	1652.475	1653.291
531.189	28.662	1651.849	1652.644
532.204	28.647	1650.421	1650.875
533.219	28.493	1648.327	1647.199
534.233	28.299	1647.411	1644.334
535.248	28.135	1646.239	1641.488
536.262	28.210	1645.352	1641.081
537.277	28.290	1644.271	1640.529
538.292	28.182	1642.788	1637.878
539.306	28.023	1641.557	1635.026
540.321	27.966	1639.442	1632.209
541.335	27.847	1636.673	1628.192
542.350	28.209	1635.662	1630.241
543.365	28.446	1634.885	1631.390
544.379	28.588	1634.163	1631.742
545.394	28.514	1632.455	1629.182
546.408	28.179	1631.578	1625.121
547.423	28.173	1629.961	1623.256
548.438	28.453	1629.649	1625.252
549.452	28.448	1627.966	1623.335
550.467	28.292	1626.936	1620.728
551.481	28.338	1626.314	1620.319
552.496	28.574	1625.520	1621.434
553.511	28.675	1624.304	1620.918
554.525	28.625	1623.467	1619.449
555.540	28.566	1622.859	1618.129
556.554	28.751	1621.405	1618.117
557.569	28.659	1619.594	1615.302
558.583	28.543	1617.457	1611.959
559.598	28.460	1616.871	1610.444
560.613	28.397	1615.842	1608.675
561.627	28.306	1614.514	1606.352
562.642	28.506	1612.737	1606.158
563.656	28.560	1610.961	1604.668
564.671	28.621	1609.342	1603.398
565.686	28.448	1608.872	1601.221
566.700	28.333	1607.332	1598.485
567.715	28.323	1605.933	1596.819
568.729	28.197	1604.381	1593.983
569.744	28.132	1602.293	1591.148
570.759	28.255	1601.435	1591.183
571.773	28.367	1601.038	1591.575
572.788	28.434	1600.105	1591.043
573.802	28.529	1598.672	1590.250
574.817	28.692	1596.714	1589.534
575.832	28.540	1596.144	1587.457
576.846	28.568	1594.733	1586.103
577.861	28.435	1593.571	1583.607
578.875	28.574	1593.242	1584.295
579.890	28.556	1592.675	1583.387
580.905	28.689	1591.510	1583.190
581.919	28.777	1590.632	1582.885
582.934	29.025	1588.639	1582.857
583.948	28.868	1588.504	1581.181
584.963	28.758	1586.654	1578.196
585.978	28.612	1584.480	1574.587
586.992	28.456	1583.756	1572.334
588.007	28.483	1583.595	1572.217
589.021	28.259	1580.582	1567.111
590.036	27.572	1579.431	1559.872
591.051	27.815	1579.315	1561.660
592.065	28.285	1577.401	1563.620
593.080	28.652	1576.068	1565.256
594.094	28.703	1574.678	1564.127
595.109	28.319	1572.753	1558.745
596.123	28.436	1571.853	1558.668
597.138	28.680	1571.601	1560.310
598.153	28.648	1569.958	1558.225
599.167	28.467	1568.078	1554.627
600.182	28.461	1566.761	1553.087
601.196	28.535	1567.110	1553.870
602.211	28.622	1566.207	1553.529
603.226	28.745	1564.325	1552.522
604.240	29.006	1562.765	1553.003
605.255	29.114	1562.251	1553.228
606.269	28.982	1561.400	1551.071
607.284	28.825	1560.340	1548.509
608.299	28.688	1558.964	1545.800
609.313	28.688	1556.677	1543.342
610.328	28.780	1555.220	1542.487
611.342	28.931	1553.485	1541.862
612.357	28.846	1552.861	1540.342
613.372	28.945	1552.462	1540.594
614.386	28.771	1551.512	1537.999
615.401	28.741	1550.921	1536.975
616.415	28.911	1549.366	1536.681
617.430	28.866	1548.371	1535.134
618.445	28.960	1547.341	1534.712
619.459	28.811	1546.028	1531.985
620.474	28.764	1545.504	1530.888
621.488	28.581	1543.424	1527.107
622.503	28.373	1541.674	1523.455
623.518	28.637	1541.327	1525.142
624.532	28.894	1541.225	1527.001
625.547	28.778	1540.197	1524.836
626.561	28.845	1539.442	1524.459
627.576	29.183	1538.020	1525.686
628.591	28.965	1536.342	1522.027
629.605	28.832	1534.572	1518.980
630.620	28.724	1532.673	1516.024
631.634	28.527	1531.624	1513.176
632.649	28.548	1531.972	1513.510
633.663	28.784	1530.451	1513.779
634.678	29.047	1529.430	1514.770
635.693	29.205	1527.864	1514.336
636.707	29.238	1526.406	1512.984
637.722	29.169	1525.380	1511.216
638.736	29.347	1523.548	1510.690
639.751	29.234	1522.631	1508.668
640.766	29.247	1521.728	1507.697
641.780	29.122	1519.843	1504.624
642.795	29.116	1519.582	1504.134
643.809	29.102	1519.750	1504.006
644.824	29.225	1518.287	1503.390
645.839	29.076	1517.578	1501.289
646.853	29.239	1516.079	1500.962
647.868	29.036	1513.842	1496.908
648.882	29.094	1512.079	1495.457
649.897	29.000	1510.700	1493.143
650.912	28.834	1509.542	1490.467
651.926	28.905	1508.980	1490.315
652.941	28.682	1507.401	1486.765
653.955	28.408	1504.664	1481.661
654.970	27.850	1502.587	1474.905
655.985	27.843	1501.184	1473.294
656.999	27.850	1500.281	1472.293
658.014	28.019	1499.426	1472.642
659.028	28.439	1498.984	1475.435
660.043	28.594	1499.544	1477.062
661.058	28.983	1497.840	1478.348
662.072	28.964	1496.860	1477.055
663.087	28.695	1495.783	1473.642
664.101	28.842	1494.406	1473.293
665.116	28.849	1493.954	1472.726
666.131	29.082	1492.630	1473.121
667.145	28.887	1491.522	1470.283
668.160	29.119	1490.982	1471.436
669.174	29.115	1489.840	1470.102
670.189	29.205	1488.329	1469.155
671.204	29.222	1487.595	1468.394
672.218	29.184	1486.614	1466.946
673.233	29.242	1485.278	1465.918
674.247	29.471	1484.776	1467.077
675.262	29.522	1483.721	1466.264
676.276	29.365	1482.216	1463.351
677.291	29.263	1481.195	1461.352
678.306	29.157	1480.385	1459.532
679.320	29.104	1478.717	1457.294
680.335	29.253	1478.159	1457.753
681.349	29.194	1477.737	1456.695
682.364	29.325	1476.255	1456.096
683.379	29.173	1475.098	1453.577
684.393	29.151	1473.567	1451.719
685.408	29.206	1472.671	1451.097
686.422	29.166	1471.175	1449.138
687.437	29.160	1470.947	1448.693
688.452	29.213	1470.285	1448.282
689.466	29.350	1468.378	1447.313
690.481	29.366	1466.985	1445.894
691.495	29.280	1465.856	1443.927
692.510	29.073	1464.114	1440.416
693.525	28.687	1462.549	1435.667
694.539	28.708	1462.574	1435.689
695.554	29.147	1462.795	1439.182
696.568	29.364	1461.293	1439.231
697.583	29.334	1460.261	1437.808
698.598	29.294	1459.443	1436.520
699.612	29.557	1457.468	1436.459
700.627	29.625	1455.487	1434.867
701.641	29.523	1455.186	1433.603
702.656	29.397	1454.350	1431.623
703.671	29.517	1453.738	1431.781
704.685	29.716	1453.028	1432.466
705.700	29.479	1452.443	1429.868
706.714	29.192	1450.433	1425.488
707.729	29.049	1448.409	1422.218
708.744	29.077	1447.183	1421.062
709.758	29.049	1445.879	1419.392
710.773	28.559	1443.935	1413.520
711.787	28.451	1442.312	1410.927
712.802	28.828	1440.824	1412.219
713.816	29.010	1440.500	1413.132
714.831	29.132	1440.426	1413.834
715.846	29.305	1439.450	1414.038
716.860	29.467	1438.116	1413.811
717.875	29.330	1436.868	1411.359
718.889	29.290	1435.373	1409.412
719.904	29.248	1435.000	1408.556
720.919	29.275	1433.990	1407.602
721.933	29.289	1433.498	1407.061
722.948	29.510	1431.762	1406.881
723.962	29.456	1431.153	1405.700
724.977	29.491	1429.919	1404.584
725.992	29.611	1429.548	1404.973
727.006	29.577	1428.470	1403.483
728.021	29.619	1426.733	1401.927
729.035	29.578	1425.660	1400.400
730.050	29.628	1424.724	1399.686
731.065	29.724	1423.329	1398.880
732.079	29.599	1422.526	1396.972
733.094	29.411	1421.817	1394.682
734.108	29.524	1420.282	1393.870
735.123	29.585	1418.306	1392.228
736.138	29.599	1417.367	1391.242
737.152	29.503	1415.800	1388.809
738.167	29.704	1415.311	1389.687
739.181	29.700	1414.521	1388.715
740.196	29.840	1413.939	1389.032
741.211	29.577	1413.434	1386.381
742.225	29.510	1412.674	1384.970
743.240	29.526	1410.676	1382.967
744.254	29.657	1408.801	1381.944
745.269	29.590	1407.940	1380.433
746.284	29.445	1406.961	1378.217
747.298	29.518	1406.258	1377.912
748.313	29.523	1405.087	1376.634
749.327	29.208	1404.237	1373.281
750.342	29.025	1402.594	1370.142
751.356	28.858	1401.263	1367.427
752.371	29.006	1399.711	1366.853
753.386	29.432	1399.475	1369.638
754.400	29.496	1399.355	1369.833
755.415	29.513	1398.348	1368.816
756.429	29.838	1396.640	1369.393
757.444	29.776	1395.795	1367.943
758.459	29.925	1394.158	1367.283
759.473	29.709	1393.464	1364.830
760.488	29.709	1392.422	1363.647
761.502	29.637	1391.090	1361.651
762.517	29.558	1390.312	1360.136
763.532	29.591	1388.467	1358.414
764.546	29.411	1387.552	1356.023
765.561	28.747	1386.284	1349.722
766.575	28.186	1383.991	1343.192
767.590	28.050	1382.741	1340.818
768.605	28.728	1382.896	1345.802
769.619	29.233	1382.042	1348.527
770.634	29.457	1381.088	1349.077
771.648	29.517	1380.309	1348.595
772.663	29.535	1379.646	1347.919
773.678	29.723	1378.705	1348.214
774.692	29.838	1378.394	1348.592
775.707	29.770	1377.642	1347.200
776.721	29.783	1376.801	1346.308
777.736	29.666	1375.766	1344.284
778.751	29.780	1374.863	1344.067
779.765	29.744	1373.676	1342.485
780.780	29.732	1372.895	1341.478
781.794	29.658	1371.980	1339.880
782.809	29.518	1371.281	1338.020
783.824	29.523	1369.686	1336.341
784.838	29.324	1368.022	1333.113
785.853	29.211	1366.325	1330.475
786.867	29.358	1366.141	1331.203
787.882	29.498	1365.613	1331.542
788.897	29.497	1365.552	1331.317
789.911	29.509	1364.188	1329.914
790.926	29.557	1362.394	1328.359
791.940	29.587	1361.089	1327.142
792.955	29.682	1360.099	1326.703
793.969	29.697	1358.833	1325.417
794.984	29.771	1358.122	1325.101
795.999	29.642	1357.310	1323.218
797.013	29.991	1355.201	1323.512
798.028	29.821	1353.872	1320.837
799.042	29.874	1353.676	1320.868
800.057	29.757	1353.052	1319.263
801.072	29.858	1351.092	1317.915
802.086	29.905	1349.649	1316.685
803.101	29.708	1349.321	1314.798
804.115	29.781	1348.619	1314.480
805.130	29.646	1347.479	1312.248
806.145	29.820	1346.080	1311.971
807.159	29.652	1344.886	1309.449
808.174	29.667	1343.565	1308.113
809.188	29.766	1342.384	1307.510
810.203	29.559	1340.893	1304.434
811.218	29.332	1338.595	1300.436
812.232	28.851	1336.464	1294.803
813.247	28.596	1335.929	1292.324
814.261	28.987	1336.525	1295.517
815.276	29.400	1336.134	1297.899
816.291	29.523	1334.900	1297.414
817.305	29.484	1334.135	1296.244
818.320	29.605	1332.834	1295.674
819.334	29.746	1331.594	1295.307
820.349	29.782	1330.086	1293.938
821.364	29.960	1328.207	1293.211
822.378	30.033	1326.789	1292.187
823.393	29.961	1325.085	1289.862
824.407	29.753	1324.932	1288.104
825.422	29.799	1324.847	1288.191
826.437	29.907	1322.926	1286.927
827.451	29.650	1321.186	1283.283
828.466	29.323	1320.002	1279.702
829.480	29.392	1318.003	1278.090
830.495	29.473	1316.837	1277.366
831.509	29.457	1315.932	1276.223
832.524	29.579	1315.347	1276.354
833.539	29.539	1314.809	1275.404
834.553	29.751	1313.116	1275.077
835.568	29.799	1311.904	1274.079
836.582	29.720	1311.590	1273.076
837.597	29.815	1309.947	1271.986
838.612	29.828	1307.803	1269.842
839.626	29.839	1305.978	1267.989
840.641	29.488	1305.682	1265.138
841.655	29.379	1304.721	1263.304
842.670	28.874	1303.275	1258.274
843.685	28.228	1301.753	1252.215
844.699	28.854	1301.002	1255.646
845.714	29.373	1300.475	1258.546
846.728	29.643	1299.123	1258.938
847.743	29.534	1298.775	1257.706
848.758	29.557	1297.859	1256.821
849.772	29.610	1296.970	1256.172
850.787	29.725	1295.749	1255.623
851.801	29.599	1294.794	1253.691
852.816	29.752	1292.941	1252.789
853.831	29.632	1291.649	1250.569
854.845	29.422	1290.002	1247.400
855.860	29.411	1288.370	1245.600
856.874	29.373	1287.192	1244.049
857.889	29.582	1285.804	1243.978
858.904	29.407	1284.280	1241.168
859.918	29.223	1282.751	1238.301
860.933	29.000	1281.007	1234.960
861.947	29.343	1280.569	1236.704
862.962	29.468	1279.593	1236.457
863.977	29.438	1278.742	1235.288
864.991	29.483	1278.717	1235.419
866.006	29.389	1278.492	1234.416
867.020	29.657	1276.963	1234.598
868.035	29.786	1275.462	1233.859
869.049	29.684	1274.952	1232.540
870.064	29.744	1273.757	1231.637
871.079	29.691	1272.594	1230.007
872.093	29.579	1272.040	1228.575
873.108	29.510	1271.080	1227.045
874.122	29.351	1269.347	1224.159
875.137	28.969	1268.385	1220.543
876.152	28.995	1267.498	1219.713
877.166	29.036	1265.656	1218.068
878.181	29.233	1264.442	1218.062
879.195	29.360	1264.712	1219.023
880.210	29.513	1263.835	1219.047
881.225	29.847	1262.614	1219.937
882.239	29.629	1261.790	1217.552
883.254	29.607	1261.232	1216.722
884.268	29.683	1260.560	1216.431
885.283	29.720	1258.833	1214.859
886.298	29.722	1257.040	1212.997
887.312	29.649	1256.134	1211.498
888.327	29.546	1255.324	1209.894
889.341	29.582	1253.866	1208.581
890.356	29.492	1253.435	1207.427
891.371	29.360	1253.443	1206.425
892.385	29.320	1252.048	1204.673
893.400	29.394	1251.095	1204.101
894.414	29.238	1249.762	1201.646
895.429	29.399	1247.533	1200.414
896.444	29.184	1245.615	1197.023
897.458	28.684	1244.580	1192.620
898.473	28.958	1244.200	1193.903
899.487	29.280	1243.301	1194.997
900.502	29.237	1242.807	1194.095
901.517	29.243	1241.950	1193.167
902.531	29.339	1240.789	1192.533
903.546	29.480	1240.052	1192.598
904.560	29.483	1239.560	1192.006
905.575	29.521	1238.246	1190.845
906.589	29.453	1237.303	1189.356
907.604	29.491	1236.185	1188.385
