DTS Sentinel unit serial number:	SN409020Multiplexer serial number:	ORYXHardware model number:	OX4-SRSoftware version number:	ORYX F/W v3.00 Oryx Data Collector v3.7.2.0data status	okinstallation	HaddamTimeLapsedifferential loss correction	single-endedforward channel	channel 3reverse channel	N/Adate	2011/06/21time	14:36:17forward acquisition time	30.00reverse acquisition time	0.00gamma	498.7831k internal	0.1819k external	0.1819temperature offset calibration	1.0074default loss term (dB/km)	0.3790temperature slope calibration	1.3530multiplexer offset coefficient	1.0000multiplexer slope coefficient	1.0000fibre end	0.00T internal ref (°C)	38.62T ext. ref 1 (°C)	29.64T ext. ref 2 (°C)	0.23length (m)	temperature (°C)	Stokes	anti-Stokes-747.200	384.774	0.077	-0.204
-746.185	-200.000	-0.043	-0.300
-745.171	-200.000	0.012	-0.256
-744.156	-200.000	-0.023	0.248
-743.142	-82.578	0.367	-0.151
-742.127	258.991	0.091	-0.202
-741.112	43.967	-0.190	0.222
-740.098	14.556	-0.329	0.328
-739.083	800.000	0.063	0.347
-738.069	800.000	-0.033	0.171
-737.054	-154.714	-0.104	0.009
-736.039	800.000	0.110	0.535
-735.025	-140.496	-0.484	0.064
-734.010	800.000	0.050	-0.214
-732.996	-105.022	0.627	-0.182
-731.981	-159.522	-0.471	0.033
-730.966	-137.016	0.237	0.034
-729.952	482.549	-0.088	0.257
-728.937	-77.729	-0.298	-0.131
-727.923	90.843	-0.308	0.443
-726.908	-174.475	-0.429	0.015
-725.894	-136.186	-0.204	0.030
-724.879	94.809	-0.110	0.161
-723.864	-0.692	-0.088	0.080
-722.850	260.918	0.286	-0.635
-721.835	-86.509	-0.256	-0.100
-720.821	-200.000	-0.029	0.292
-719.806	-55.812	-0.169	-0.096
-718.791	48.868	-0.128	0.153
-717.777	112.493	0.129	-0.200
-716.762	-144.636	-0.294	0.034
-715.748	-44.815	0.287	-0.182
-714.733	59.493	0.110	0.139
-713.718	800.000	0.123	0.441
-712.704	60.750	0.118	0.149
-711.689	-153.971	0.362	-0.031
-710.675	-87.504	-0.439	0.169
-709.660	380.279	-0.033	0.086
-708.645	-143.369	0.248	-0.030
-707.631	-116.517	0.304	0.071
-706.616	153.284	-0.183	0.321
-705.602	-200.000	0.031	-0.234
-704.587	257.984	0.165	-0.363
-703.572	-93.913	0.586	0.204
-702.558	-87.684	0.645	-0.247
-701.543	-112.458	0.269	-0.068
-700.529	-88.530	0.223	0.084
-699.514	565.494	0.105	-0.327
-698.499	-104.534	-0.474	-0.139
-697.485	-173.293	-0.277	0.011
-696.470	-10.349	-0.281	0.237
-695.456	-57.439	0.323	-0.180
-694.441	284.824	-0.086	0.200
-693.426	278.212	-0.124	0.284
-692.412	-54.083	-0.349	0.202
-691.397	-45.691	0.443	0.279
-690.383	-138.355	0.214	-0.030
-689.368	-200.000	-0.043	0.437
-688.354	208.881	-0.147	0.294
-687.339	800.000	-0.131	-0.611
-686.324	-68.723	0.239	-0.118
-685.310	28.391	-0.216	-0.233
-684.295	-200.000	-0.086	-0.669
-683.281	-110.195	-0.434	-0.115
-682.266	800.000	0.045	0.195
-681.251	-131.737	0.444	-0.074
-680.237	-148.741	0.414	-0.042
-679.222	-191.057	-0.417	-0.005
-678.208	-200.000	0.007	0.109
-677.193	69.937	-0.088	-0.116
-676.178	-109.401	-0.034	0.009
-675.164	-81.060	-0.216	0.091
-674.149	-180.802	0.273	-0.007
-673.135	-150.179	0.248	0.024
-672.120	448.127	-0.184	-0.520
-671.105	478.547	0.114	-0.330
-670.091	54.649	-0.103	0.127
-669.076	197.706	-0.031	-0.060
-668.062	13.572	-0.172	-0.170
-667.047	157.059	0.325	-0.575
-666.032	-179.454	0.307	-0.008
-665.018	1.446	-0.116	-0.106
-664.003	-94.186	0.139	-0.048
-662.989	-39.491	0.305	-0.203
-661.974	800.000	-0.010	0.045
-660.959	-68.197	0.281	0.139
-659.945	30.978	0.484	-0.528
-658.930	-58.046	0.249	-0.138
-657.916	-43.978	0.388	0.248
-656.901	-97.021	-0.180	0.060
-655.886	149.031	0.211	-0.365
-654.872	348.641	0.049	-0.124
-653.857	-70.555	0.381	0.183
-652.843	-149.967	0.483	-0.047
-651.828	-31.575	-0.130	-0.093
-650.814	144.153	0.266	-0.453
-649.799	146.359	-0.028	-0.049
-648.784	-128.928	0.425	0.075
-647.770	-151.620	-0.587	-0.055
-646.755	-200.000	0.013	-0.626
-645.741	16.810	-0.185	-0.187
-644.726	415.067	0.161	-0.440
-643.711	-156.294	0.286	0.023
-642.697	85.770	-0.156	-0.219
-641.682	-200.000	0.026	-0.305
-640.668	175.357	0.114	-0.211
-639.653	-96.371	0.470	0.158
-638.638	322.147	-0.159	-0.387
-637.624	-1.678	-0.150	0.134
-636.609	16.346	-0.303	-0.305
-635.595	-114.661	0.330	-0.080
-634.580	-86.997	-0.309	0.119
-633.565	122.202	-0.302	-0.481
-632.551	348.347	0.045	0.113
-631.536	-49.551	0.185	0.112
-630.522	-65.215	0.491	-0.251
-629.507	-147.624	0.266	-0.028
-628.492	-200.000	0.011	-0.069
-627.478	-47.087	-0.219	-0.136
-626.463	1.555	0.150	0.138
-625.449	-131.297	-0.366	0.061
-624.434	86.067	0.248	-0.348
-623.419	365.796	0.119	-0.306
-622.405	68.960	-0.418	-0.547
-621.390	-89.783	-0.449	0.166
-620.376	14.917	-0.136	0.135
-619.361	-163.188	-0.356	-0.021
-618.346	-8.390	-0.187	0.160
-617.332	-127.893	-0.633	-0.115
-616.317	226.401	-0.163	-0.337
-615.303	-56.106	-0.340	-0.192
-614.288	-112.117	0.274	0.070
-613.273	-22.174	0.142	0.110
-612.259	83.398	-0.184	-0.255
-611.244	-114.660	-0.372	-0.090
-610.230	-123.404	0.416	-0.084
-609.215	-200.000	-0.017	0.578
-608.201	-95.357	0.336	-0.114
-607.186	-129.878	-0.676	-0.117
-606.171	-24.123	-0.204	0.155
-605.157	-139.587	-0.611	0.082
-604.142	800.000	-0.047	-0.224
-603.128	-200.000	-0.032	-0.345
-602.113	-110.547	0.233	0.061
-601.098	800.000	-0.127	-0.581
-600.084	140.427	0.250	-0.421
-599.069	-135.542	-0.241	-0.036
-598.055	-66.831	-0.325	-0.163
-597.040	-103.953	0.234	0.069
-596.025	-32.695	-0.117	0.083
-595.011	-120.378	-0.388	0.083
-593.996	-200.000	-0.014	-0.199
-592.982	-12.168	0.449	-0.373
-591.967	800.000	-0.104	0.447
-590.952	-200.000	0.015	0.090
-589.938	57.934	-0.285	-0.355
-588.923	-86.087	-0.257	0.100
-587.909	-139.722	0.210	0.028
-586.894	-145.946	-0.080	0.009
-585.879	66.701	-0.212	0.274
-584.865	-95.805	-0.460	-0.155
-583.850	-63.268	-0.611	0.319
-582.836	-200.000	-0.030	-0.668
-581.821	-67.182	-0.252	0.126
-580.806	-42.002	-0.077	-0.050
-579.792	144.585	0.091	-0.155
-578.777	105.881	-0.263	-0.395
-577.763	238.991	0.074	-0.157
-576.748	-200.000	0.014	-0.451
-575.733	79.883	-0.168	0.229
-574.719	80.964	-0.122	-0.168
-573.704	79.616	-0.323	0.441
-572.690	-167.380	0.304	0.015
-571.675	174.063	0.075	0.137
-570.661	543.340	-0.096	-0.293
-569.646	800.000	0.050	-0.244
-568.631	-142.797	0.590	-0.072
-567.617	-171.390	0.490	0.020
-566.602	-200.000	0.013	0.215
-565.588	-37.253	-0.212	-0.144
-564.573	-194.908	-0.186	0.002
-563.558	281.840	-0.150	-0.343
-562.544	800.000	-0.078	-0.320
-561.529	-97.367	0.450	-0.148
-560.515	-92.538	0.400	-0.142
-559.500	-200.000	-0.015	0.213
-558.485	-103.265	-0.179	0.053
-557.471	-200.000	-0.003	-0.416
-556.456	-115.924	0.423	-0.100
-555.442	201.328	0.256	-0.503
-554.427	-58.696	0.258	0.141
-553.412	-54.873	0.446	0.255
-552.398	-113.819	0.412	0.101
-551.383	-30.896	0.066	-0.047
-550.369	-200.000	0.006	0.141
-549.354	-3.823	0.236	-0.208
-548.339	67.087	0.084	0.109
-547.325	99.313	0.132	0.195
-546.310	328.570	0.043	-0.105
-545.296	-68.119	-0.153	-0.076
-544.281	131.440	-0.192	-0.314
-543.266	-107.524	-0.148	-0.041
-542.252	-200.000	-0.088	0.533
-541.237	-45.387	-0.683	0.429
-540.223	-26.175	0.095	0.070
-539.208	-153.856	-0.436	-0.037
-538.193	101.997	0.411	-0.610
-537.179	-140.106	0.528	-0.070
-536.164	-200.000	-0.016	0.265
-535.150	800.000	0.151	-0.579
-534.135	-200.000	-0.042	0.299
-533.121	-132.503	-0.382	0.062
-532.106	-200.000	0.009	-0.278
-531.091	-178.973	0.163	-0.005
-530.077	-200.000	0.029	0.307
-529.062	-19.060	-0.176	-0.139
-528.048	104.717	-0.265	-0.396
-527.033	104.675	0.198	0.297
-526.018	-37.595	-0.394	-0.266
-525.004	193.241	-0.116	0.224
-523.989	-134.038	0.302	-0.047
-522.975	-102.617	-0.260	0.078
-521.960	-107.931	-0.269	0.074
-520.945	-182.875	-0.529	-0.012
-519.931	770.542	-0.139	0.482
-518.916	141.869	-0.176	-0.296
-517.902	-137.230	-0.177	0.025
-516.887	55.377	0.331	-0.406
-515.872	-164.698	0.391	0.022
-514.858	-10.374	0.185	0.155
-513.843	162.147	-0.122	-0.217
-512.829	-5.434	-0.225	-0.196
-511.814	-200.000	-0.001	-0.587
-510.799	-140.639	0.190	-0.025
-509.785	-102.769	-0.137	0.041
-508.770	248.419	-0.114	-0.245
-507.756	78.212	0.102	0.138
-506.741	70.786	0.330	0.434
-505.726	263.812	0.138	0.304
-504.712	-136.056	0.226	-0.033
-503.697	800.000	0.054	-0.256
-502.683	-200.000	0.018	0.154
-501.668	92.298	-0.113	-0.162
-500.653	800.000	-0.050	-0.227
-499.639	549.884	-0.132	0.404
-498.624	211.358	-0.115	0.229
-497.610	32.139	0.227	0.249
-496.595	-38.211	0.288	-0.193
-495.581	800.000	0.027	0.137
-494.566	-57.093	-0.207	-0.115
-493.551	800.000	0.035	0.135
-492.537	175.858	-0.220	-0.405
-491.522	123.853	-0.113	-0.180
-490.508	-65.410	-0.227	-0.115
-489.493	199.129	0.147	0.287
-488.478	-114.418	0.273	0.066
-487.464	-62.374	0.457	0.240
-486.449	10.563	-0.139	-0.134
-485.435	75.848	0.024	0.032
-484.420	-160.933	0.117	-0.008
-483.405	-30.322	0.248	-0.178
-482.391	-19.341	0.095	0.074
-481.376	33.625	-0.121	-0.133
-480.362	800.000	-0.051	0.276
-479.347	36.419	0.310	0.346
-478.332	287.026	-0.054	0.124
-477.318	-98.604	0.804	-0.258
-476.303	130.313	0.153	-0.249
-475.289	800.000	0.068	0.291
-474.274	34.565	0.037	0.041
-473.259	-200.000	0.006	0.260
-472.245	-109.852	0.396	0.104
-471.230	-200.000	-0.002	0.680
-470.216	-116.542	0.178	0.041
-469.201	-45.267	-0.542	0.340
-468.186	-39.801	-0.144	0.095
-467.172	-111.843	-0.202	0.051
-466.157	800.000	-0.179	0.638
-465.143	-101.508	0.226	-0.069
-464.128	-12.798	-0.294	-0.242
-463.113	-62.567	-0.816	-0.427
-462.099	-47.735	0.413	0.253
-461.084	301.749	0.167	0.393
-460.070	-26.781	-0.304	0.224
-459.055	69.678	-0.039	0.051
-458.040	800.000	0.109	0.416
-457.026	753.321	0.099	-0.341
-456.011	-120.332	0.549	-0.117
-454.997	99.249	0.101	0.149
-453.982	-141.304	-0.105	0.013
-452.968	-94.286	0.332	-0.114
-451.953	-25.563	-0.196	0.146
-450.938	9.058	-0.224	0.214
-449.924	-55.875	-0.468	-0.263
-448.909	-29.638	-0.113	-0.081
-447.895	-129.018	0.303	-0.053
-446.880	50.876	-0.153	0.184
-445.865	-46.539	-0.563	-0.348
-444.851	73.781	0.121	-0.161
-443.836	-90.275	-0.115	0.042
-442.822	228.419	0.024	-0.049
-441.807	620.393	-0.059	0.188
-440.792	-4.082	0.497	0.435
-439.778	16.090	0.270	0.269
-438.763	-167.439	-0.585	-0.029
-437.749	-200.000	-0.024	0.132
-436.734	-35.707	-0.177	0.121
-435.719	-53.364	0.162	-0.094
-434.705	-145.266	-0.077	0.009
-433.690	300.658	-0.128	-0.300
-432.676	337.554	0.194	-0.478
-431.661	-140.216	-0.022	-0.003
-430.646	340.334	0.086	0.212
-429.632	-200.000	0.020	-0.304
-428.617	800.000	-0.037	-0.175
-427.603	-97.102	0.132	-0.043
-426.588	7.633	0.208	-0.196
-425.573	123.637	-0.271	-0.430
-424.559	187.106	-0.092	-0.173
-423.544	62.680	0.304	0.385
-422.530	-200.000	0.011	0.256
-421.515	38.234	0.121	-0.136
-420.500	-89.730	0.379	-0.140
-419.486	-150.331	-0.462	-0.044
-418.471	-103.152	-0.493	-0.146
-417.457	34.414	0.061	0.067
-416.442	-10.197	0.091	-0.076
-415.428	-200.000	0.072	0.555
-414.413	121.722	-0.037	0.059
-413.398	-61.054	-0.408	0.217
-412.384	-200.000	0.014	-0.107
-411.369	800.000	-0.024	-0.101
-410.355	88.725	0.258	-0.363
-409.340	-163.940	-0.346	-0.020
-408.325	79.159	-0.299	-0.404
-407.311	92.430	0.177	-0.252
-406.296	-200.000	-0.009	0.114
-405.282	800.000	0.056	-0.280
-404.267	-34.779	0.457	-0.314
-403.252	-200.000	0.018	-0.459
-402.238	-90.625	-0.449	-0.163
-401.223	117.755	-0.394	0.614
-400.209	-149.731	-0.074	-0.007
-399.194	800.000	0.087	-0.447
-398.179	-57.464	0.187	-0.103
-397.165	83.942	-0.076	-0.104
-396.150	35.472	0.351	-0.389
-395.136	-75.671	-0.083	-0.037
-394.121	115.955	0.130	-0.202
-393.106	-85.448	0.266	0.104
-392.092	-58.642	-0.478	-0.261
-391.077	-85.700	-0.533	-0.208
-390.063	800.000	0.070	-0.390
-389.048	-78.911	0.574	-0.245
-388.033	162.617	0.022	-0.038
-387.019	-3.037	-0.199	0.175
-386.004	220.891	-0.056	0.114
-384.990	394.706	0.127	0.336
-383.975	163.197	0.077	0.136
-382.960	94.475	0.150	-0.215
-381.946	-161.318	-0.397	-0.026
-380.931	-94.610	0.265	-0.090
-379.917	603.031	0.003	0.011
-378.902	-44.698	-0.134	0.084
-377.888	-38.245	-0.331	-0.221
-376.873	-102.822	-0.519	-0.155
-375.858	219.250	-0.170	-0.344
-374.844	-74.684	-0.389	-0.176
-373.829	-20.639	-0.489	0.378
-372.815	-103.856	-0.295	-0.086
-371.800	70.375	0.244	-0.318
-370.785	-24.370	-0.182	0.137
-369.771	324.819	-0.209	0.506
-368.756	-29.266	-0.280	0.201
-367.742	-21.840	-0.216	0.166
-366.727	-76.825	0.529	0.232
-365.712	-113.297	0.206	0.051
-364.698	51.263	-0.151	-0.181
-363.683	-73.562	0.322	0.148
-362.669	800.000	0.060	0.288
-361.654	-127.806	0.104	-0.019
-360.639	-35.997	0.237	0.161
-359.625	172.042	-0.055	0.100
-358.610	-102.593	-0.194	-0.058
-357.596	158.514	0.234	0.411
-356.581	321.994	0.064	-0.155
-355.566	196.597	0.102	-0.197
-354.552	-200.000	0.007	0.343
-353.537	-200.000	0.016	-0.308
-352.523	-30.641	0.268	-0.191
-351.508	24.170	0.033	0.034
-350.493	-122.406	0.329	0.067
-349.479	-80.961	-0.240	0.100
-348.464	-49.028	0.065	0.039
-347.450	800.000	-0.097	0.358
-346.435	-124.269	-0.170	-0.033
-345.420	-200.000	0.015	-0.191
-344.406	-130.268	-0.185	0.031
-343.391	-51.024	-0.452	-0.266
-342.377	213.554	0.190	-0.379
-341.362	-200.000	-0.004	-0.159
-340.348	356.368	-0.064	0.160
-339.333	-108.957	0.160	-0.043
-338.318	706.168	0.119	0.399
-337.304	-48.449	-0.270	0.163
-336.289	90.136	0.195	0.274
-335.275	126.066	-0.339	0.540
-334.260	-155.311	0.272	0.022
-333.245	-50.878	-0.300	0.177
-332.231	800.000	-0.055	0.222
-331.216	800.000	-0.018	0.071
-330.202	-200.000	-0.021	0.495
-329.187	-78.528	0.385	0.165
-328.172	81.027	-0.178	-0.242
-327.158	301.738	0.154	0.359
-326.143	-67.905	-0.329	-0.161
-325.129	283.121	0.109	0.248
-324.114	-138.366	0.433	0.059
-323.099	-200.000	0.030	-0.275
-322.085	326.890	-0.160	-0.388
-321.070	-75.801	-0.069	-0.031
-320.056	280.213	0.048	0.109
-319.041	800.000	0.021	0.118
-318.026	708.034	0.057	-0.191
-317.012	800.000	0.010	-0.039
-315.997	-200.000	-0.052	0.305
-314.983	29.742	-0.351	-0.376
-313.968	33.274	0.223	-0.243
-312.953	-83.084	0.561	0.226
-311.939	153.727	0.127	0.219
-310.924	-4.062	0.215	-0.187
-309.910	-169.970	0.504	0.022
-308.895	-60.539	0.366	0.195
-307.880	159.401	0.201	-0.353
-306.866	-91.727	-0.249	0.088
-305.851	-26.925	-0.106	0.078
-304.837	240.478	0.094	0.197
-303.822	-24.582	-0.271	0.202
-302.807	76.141	0.235	0.313
-301.793	-155.059	0.020	-0.002
-300.778	41.103	0.374	0.425
-299.764	330.425	0.197	0.478
-298.749	-52.066	-0.425	-0.247
-297.735	-179.284	-0.270	-0.007
-296.720	800.000	0.127	0.455
-295.705	-1.529	-0.034	-0.030
-294.691	154.828	0.102	0.177
-293.676	-115.807	0.392	0.091
-292.662	165.561	-0.185	-0.330
-291.647	276.103	-0.107	-0.239
-290.632	-84.705	0.147	-0.058
-289.618	1.655	0.097	-0.088
-288.603	258.095	-0.183	0.398
-287.589	-113.147	0.110	-0.027
-286.574	45.062	0.184	0.214
-285.559	-92.763	-0.179	0.062
-284.545	-14.180	0.240	-0.194
-283.530	167.135	-0.220	-0.394
-282.516	-114.489	-0.090	-0.022
-281.501	-65.553	-0.105	-0.053
-280.486	-111.327	0.319	-0.081
-279.472	-158.294	0.028	0.002
-278.457	-200.000	0.047	0.327
-277.443	-200.000	-0.022	0.240
-276.428	210.120	-0.173	-0.343
-275.413	-33.004	0.459	0.319
-274.399	-133.680	-0.423	-0.066
-273.384	-59.897	-0.267	-0.143
-272.370	-200.000	0.039	0.392
-271.355	800.000	0.057	0.219
-270.340	-164.411	-0.161	-0.009
-269.326	178.579	0.140	-0.258
-268.311	-136.478	0.343	0.050
-267.297	-183.694	-0.555	-0.012
-266.282	800.000	-0.111	-0.460
-265.267	-13.752	-0.226	-0.183
-264.253	-200.000	-0.050	0.362
-263.238	316.759	0.221	-0.526
-262.224	-60.070	0.196	-0.105
-261.209	-152.645	-0.352	-0.031
-260.195	800.000	0.038	0.199
-259.180	15.552	0.466	0.460
-258.165	-98.945	-0.635	0.201
-257.151	81.049	-0.128	0.174
-256.136	462.474	-0.115	0.325
-255.122	-63.169	-0.147	-0.076
-254.107	75.907	0.243	0.322
-253.092	-102.185	-0.110	-0.033
-252.078	59.968	0.087	0.108
-251.063	176.630	-0.184	0.337
-250.049	-200.000	-0.010	-0.190
-249.034	-34.870	0.330	-0.225
-248.019	800.000	0.111	-0.475
-247.005	800.000	0.076	-0.372
-245.990	-42.068	0.026	0.016
-244.976	26.295	-0.163	0.171
-243.961	203.645	-0.154	0.300
-242.946	-26.961	-0.336	0.245
-241.932	-200.000	-0.003	-0.308
-240.917	-200.000	0.037	0.274
-239.903	170.660	-0.047	0.084
-238.888	-8.718	0.640	0.537
-237.873	-137.709	0.431	0.060
-236.859	-200.000	0.002	0.175
-235.844	650.785	0.162	0.524
-234.830	-200.000	0.259	0.001
-233.815	82.541	-0.130	0.178
-232.800	148.310	0.235	-0.399
-231.786	-200.000	-0.012	0.507
-230.771	-3.815	0.422	-0.367
-229.757	800.000	-0.130	-0.541
-228.742	426.890	0.157	0.426
-227.727	-200.000	0.022	-0.297
-226.713	-78.550	0.251	0.107
-225.698	-147.787	0.391	0.040
-224.684	663.963	0.055	-0.180
-223.669	-42.589	0.318	-0.202
-222.655	-130.083	-0.312	0.053
-221.640	32.116	0.266	-0.287
-220.625	-7.424	0.142	0.120
-219.611	-54.237	-0.418	0.237
-218.596	270.672	-0.240	0.532
-217.582	-53.664	-0.259	-0.148
-216.567	-193.588	-0.616	0.006
-215.552	-200.000	0.016	-0.372
-214.538	-32.110	0.509	-0.356
-213.523	622.229	0.154	0.488
-212.509	-46.854	-0.530	0.324
-211.494	-117.113	-0.482	-0.109
-210.479	-200.000	-0.030	-0.173
-209.465	72.823	0.153	0.200
-208.450	-28.783	-0.122	-0.088
-207.436	-25.117	-0.150	0.111
-206.421	189.412	-0.092	-0.174
-205.406	-125.757	-0.377	0.071
-204.392	-112.072	-0.269	0.067
-203.377	-156.572	-0.146	-0.011
-202.363	-200.000	0.025	0.227
-201.348	-53.113	0.297	0.170
-200.333	-200.000	0.040	0.519
-199.319	55.072	0.062	0.075
-198.304	-15.842	-0.133	-0.106
-197.290	-200.000	-0.029	0.390
-196.275	-101.492	-0.336	-0.102
-195.260	-51.234	0.078	0.045
-194.246	83.979	0.160	-0.219
-193.231	-150.119	0.274	0.026
-192.217	-84.394	0.203	0.080
-191.202	-130.744	0.266	-0.044
-190.187	130.289	0.162	0.260
-189.173	-74.423	0.121	0.054
-188.158	42.391	-0.277	-0.316
-187.144	-72.736	-0.086	0.039
-186.129	-28.152	0.312	0.226
-185.114	433.898	0.021	-0.058
-184.100	-118.408	-0.286	0.063
-183.085	-23.921	-0.242	-0.181
-182.071	-200.000	0.001	0.193
-181.056	-90.706	-0.402	-0.144
-180.042	-116.124	-0.437	-0.101
-179.027	-141.989	-0.227	-0.028
-178.012	-174.409	0.129	-0.005
-176.998	-27.928	0.458	0.331
-175.983	-112.703	0.190	0.047
-174.969	800.000	-0.049	-0.191
-173.954	58.348	0.482	0.591
-172.939	800.000	0.061	0.287
-171.925	-134.223	0.364	0.056
-170.910	-175.790	0.506	-0.017
-169.896	800.000	0.121	0.486
-168.881	-147.069	0.451	0.048
-167.866	6.265	0.132	-0.123
-166.852	263.860	0.109	-0.237
-165.837	-17.674	0.109	0.086
-164.823	537.563	-0.039	-0.118
-163.808	534.054	-0.069	0.204
-162.793	-5.412	0.408	0.350
-161.779	-200.000	-0.075	0.545
-160.764	56.811	0.244	0.298
-159.750	-71.089	0.421	-0.197
-158.735	302.115	0.053	0.123
-157.720	-200.000	-0.011	0.248
-156.706	-47.165	0.422	-0.256
-155.691	253.469	-0.140	-0.301
-154.677	40.074	0.407	-0.457
-153.662	-48.297	-0.173	-0.104
-152.647	265.487	-0.064	0.139
-151.633	160.366	0.289	0.506
-150.618	-82.955	0.602	0.241
-149.604	-200.000	-0.006	0.172
-148.589	95.909	0.229	0.327
-147.574	788.228	0.155	0.534
-146.560	48.472	0.190	0.222
-145.545	435.497	0.161	0.440
-144.531	10.602	-0.099	-0.094
-143.516	283.657	-0.074	0.166
-142.502	-111.233	0.389	-0.099
-141.487	-117.086	-0.249	0.056
-140.472	-93.052	0.110	0.038
-139.458	94.360	-0.222	-0.315
-138.443	53.769	0.078	-0.093
-137.429	-157.957	0.251	-0.018
-136.414	-153.860	0.161	-0.014
-135.399	97.816	0.178	0.255
-134.385	-90.048	0.242	-0.088
-133.370	-44.692	0.360	0.224
-132.356	-101.955	-0.284	0.085
-131.341	-1.936	0.259	0.227
-130.326	112.397	-0.321	-0.486
-129.312	-131.676	-0.155	-0.025
-128.297	174.687	-0.125	0.226
-127.283	130.542	0.025	0.040
-126.268	609.148	0.065	0.204
-125.253	791.934	0.030	0.102
-124.239	-140.889	0.264	-0.033
-123.224	231.506	0.162	-0.332
-122.210	-200.000	0.013	-0.126
-121.195	800.000	0.104	0.368
-120.180	115.719	0.078	-0.119
-119.166	-200.000	-0.007	0.312
-118.151	800.000	-0.090	-0.318
-117.137	-8.940	0.087	-0.073
-116.122	140.981	0.339	-0.561
-115.107	408.081	0.081	-0.215
-114.093	-66.673	-0.083	0.041
-113.078	-0.162	-0.164	0.146
-112.064	-115.895	-0.175	0.040
-111.049	100.874	-0.202	0.293
-110.034	480.778	0.136	0.387
-109.020	41.806	-0.274	0.310
-108.005	-138.226	-0.180	-0.025
-106.991	-95.271	-0.287	0.096
-105.976	-200.000	-0.063	0.470
-104.962	-103.408	0.279	0.081
-103.947	-200.000	-0.022	0.372
-102.932	90.467	-0.246	0.344
-101.918	-150.090	-0.198	0.019
-100.903	-74.927	-0.165	-0.074
-99.889	267.487	0.052	0.114
-98.874	-98.889	-0.307	0.097
-97.859	8.719	-0.250	0.235
-96.845	-102.876	-0.331	0.097
-95.830	-45.343	0.416	0.257
-94.816	-200.000	-0.012	0.183
-93.801	31.460	-0.347	0.371
-92.786	138.355	0.085	0.139
-91.772	-25.234	0.149	-0.110
-90.757	49.164	0.162	0.190
-89.743	82.547	0.138	0.188
-88.728	800.000	0.113	-0.394
-87.713	150.886	0.134	-0.228
-86.699	-65.922	0.282	-0.140
-85.684	8.111	-0.200	-0.187
-84.670	70.154	-0.117	-0.150
-83.655	-29.288	-0.507	0.361
-82.640	56.944	-0.217	0.263
-81.626	743.469	-0.111	0.374
-80.611	19.531	-0.217	0.217
-79.597	90.069	-0.077	0.108
-78.582	800.000	-0.129	0.611
-77.567	-57.708	0.340	-0.185
-76.553	800.000	0.060	0.253
-75.538	14.390	-0.243	-0.237
-74.524	-200.000	0.040	-0.235
-73.509	-8.859	-0.359	-0.300
-72.494	-9.824	0.172	-0.143
-71.480	-200.000	-0.024	0.324
-70.465	-200.000	-0.017	0.985
-69.451	147.964	0.092	0.154
-68.436	800.000	0.037	0.146
-67.422	-42.855	0.153	-0.097
-66.407	389.025	0.065	0.168
-65.392	-54.126	-0.486	0.274
-64.378	-169.479	0.850	0.038
-63.363	-56.388	0.324	0.179
-62.349	-15.348	-0.363	0.288
-61.334	51.911	-0.775	-0.920
-60.319	1.187	-0.221	0.198
-59.305	284.178	-2.795	-6.284
-58.290	-16.819	3.039	2.389
-57.276	532.937	3.526	10.450
-56.261	-200.000	11.944	195.514
-55.246	504.583	1113.731	3226.746
-54.232	67.662	2761.245	3515.618
-53.217	72.333	2706.597	3514.774
-52.203	63.957	2437.956	3054.238
-51.188	46.078	2079.907	2398.362
-50.173	42.016	1942.654	2195.350
-49.159	39.580	1933.099	2157.700
-48.144	39.143	1928.864	2148.084
-47.130	39.007	1926.860	2144.273
-46.115	39.010	1924.662	2141.777
-45.100	38.906	1923.693	2139.474
-44.086	38.885	1922.130	2137.424
-43.071	38.873	1920.773	2135.694
-42.057	38.976	1918.856	2134.612
-41.042	38.821	1918.184	2132.080
-40.027	39.043	1915.862	2131.834
-39.013	38.850	1915.048	2128.749
-37.998	38.842	1913.400	2126.742
-36.984	38.820	1912.278	2125.164
-35.969	38.732	1911.272	2123.010
-34.954	38.833	1909.268	2121.796
-33.940	38.819	1908.518	2120.732
-32.925	38.726	1906.509	2117.397
-31.911	38.801	1905.962	2117.528
-30.896	38.866	1904.414	2116.425
-29.881	38.593	1903.183	2112.012
-28.867	38.749	1901.924	2112.219
-27.852	38.575	1900.777	2108.980
-26.838	38.602	1898.665	2106.846
-25.823	38.663	1897.567	2106.208
-24.809	38.730	1895.462	2104.508
-23.794	38.640	1895.167	2103.126
-22.779	38.667	1893.567	2101.552
-21.765	38.633	1892.669	2100.114
-20.750	38.662	1891.342	2098.866
-19.736	38.606	1889.682	2096.342
-18.721	38.544	1889.196	2095.053
-17.706	38.409	1888.481	2092.717
-16.692	38.470	1886.754	2091.376
-15.677	38.539	1885.999	2091.205
-14.663	38.447	1885.224	2089.266
-13.648	38.515	1883.560	2088.070
-12.633	38.552	1881.113	2085.678
-11.619	38.589	1879.743	2084.470
-10.604	38.417	1879.320	2082.079
-9.590	38.448	1878.024	2080.886
-8.575	38.486	1877.412	2080.531
-7.560	38.530	1875.070	2078.323
-6.546	38.553	1873.861	2077.148
-5.531	38.582	1872.616	2075.992
-4.517	38.537	1872.046	2074.796
-3.502	38.482	1871.338	2073.343
-2.487	38.596	1870.915	2074.014
-1.473	38.617	1867.315	2070.162
-0.458	38.340	1846.566	2044.164
0.556	33.874	1974.193	2122.654
1.571	32.498	2189.180	2336.377
2.586	34.041	2239.949	2409.951
3.600	34.108	2242.887	2413.667
4.615	34.362	2241.991	2415.648
5.629	34.243	2240.549	2412.296
6.644	34.412	2237.255	2410.603
7.659	34.535	2236.028	2410.565
8.673	34.874	2235.001	2413.469
9.688	34.170	2238.230	2407.713
10.702	30.355	2305.115	2429.303
11.717	26.485	2367.367	2442.217
12.731	13.627	2333.954	2234.315
13.746	2.197	2303.359	2051.190
14.761	0.500	2298.209	2023.505
15.775	0.295	2294.918	2017.604
16.790	0.340	2293.641	2016.839
17.804	0.242	2292.652	2014.420
18.819	0.202	2291.540	2012.662
19.834	0.259	2290.196	2011.997
20.848	0.230	2289.081	2010.399
21.863	0.262	2286.883	2008.657
22.877	0.291	2285.031	2007.172
23.892	0.252	2282.805	2004.455
24.907	0.177	2280.954	2001.588
25.921	0.274	2279.428	2001.299
26.936	0.247	2277.145	1998.706
27.950	0.193	2274.383	1995.318
28.965	0.133	2272.955	1993.032
29.980	0.248	2271.112	1992.698
30.994	0.362	2269.406	1992.487
32.009	6.902	2290.919	2098.624
33.023	24.523	2347.438	2389.216
34.038	36.903	2376.811	2586.187
35.053	40.009	2381.451	2632.595
36.067	40.005	2378.956	2629.475
37.082	39.483	2376.318	2619.261
38.096	39.609	2374.965	2619.140
39.111	40.211	2373.883	2625.667
40.126	40.089	2371.176	2620.740
41.140	40.457	2370.867	2624.973
42.155	40.092	2367.132	2615.677
43.169	39.555	2364.524	2605.349
44.184	39.774	2362.963	2606.223
45.199	39.848	2360.884	2604.598
46.213	39.783	2359.836	2602.269
47.228	39.484	2358.606	2596.639
48.242	39.535	2356.271	2594.431
49.257	39.425	2353.780	2589.927
50.271	39.981	2352.835	2595.922
51.286	40.271	2351.808	2598.304
52.301	39.827	2347.988	2587.923
53.315	38.535	2342.708	2564.803
54.330	35.573	2331.244	2513.057
55.344	32.713	2321.072	2464.277
56.359	32.560	2317.009	2457.666
57.374	32.146	2314.754	2449.561
58.388	31.841	2310.743	2441.022
59.403	32.111	2308.409	2441.798
60.417	32.988	2307.174	2451.652
61.432	32.965	2307.152	2451.038
62.447	32.391	2302.512	2438.341
63.461	32.157	2299.944	2432.283
64.476	31.952	2297.349	2426.582
65.490	32.717	2299.804	2438.831
66.505	34.788	2305.223	2471.245
67.520	37.033	2311.281	2506.656
68.534	36.723	2306.292	2496.922
69.549	36.696	2303.163	2492.882
70.563	37.293	2302.752	2499.868
71.578	37.824	2303.133	2506.855
72.593	38.567	2302.680	2515.661
73.607	39.259	2303.916	2525.638
74.622	39.016	2300.554	2518.517
75.636	38.072	2295.191	2500.197
76.651	38.123	2294.240	2499.527
77.666	38.452	2293.062	2502.174
78.680	38.453	2291.239	2499.894
79.695	38.563	2289.684	2499.312
80.709	38.881	2288.716	2502.029
81.724	38.951	2287.932	2501.767
82.739	39.161	2286.272	2502.348
83.753	39.293	2284.009	2501.260
84.768	39.134	2281.796	2496.498
85.782	38.769	2279.675	2489.221
86.797	38.769	2277.567	2486.624
87.812	38.116	2273.876	2473.988
88.826	37.742	2270.491	2465.251
89.841	38.266	2269.920	2470.996
90.855	38.954	2268.901	2478.332
91.870	37.929	2265.286	2461.092
92.884	37.489	2262.660	2452.365
93.899	38.121	2262.445	2459.837
94.914	37.127	2258.434	2442.620
95.928	34.229	2249.579	2396.158
96.943	32.896	2245.242	2374.403
97.957	35.254	2249.720	2408.689
98.972	37.138	2252.100	2434.735
99.987	36.944	2247.067	2426.561
101.001	36.994	2246.058	2425.813
102.016	37.447	2245.202	2430.288
103.030	37.832	2244.248	2433.809
104.045	38.496	2245.238	2442.923
105.060	39.295	2245.105	2452.493
106.074	39.481	2242.050	2451.194
107.089	38.510	2238.971	2435.396
108.103	38.536	2238.656	2435.089
109.118	38.972	2238.195	2439.747
110.133	38.784	2235.473	2434.137
111.147	38.271	2232.265	2423.968
112.162	38.162	2229.646	2419.477
113.176	38.307	2227.134	2418.260
114.191	38.433	2225.884	2418.181
115.206	38.106	2224.584	2412.417
116.220	38.153	2221.673	2409.555
117.235	37.579	2218.197	2398.391
118.249	37.417	2215.457	2393.131
119.264	37.861	2215.914	2398.829
120.279	38.199	2216.651	2403.523
121.293	38.265	2213.135	2400.244
122.308	37.694	2210.297	2389.833
123.322	37.178	2207.797	2380.485
124.337	36.342	2203.810	2365.602
125.352	35.279	2199.348	2347.460
126.366	35.454	2199.827	2349.848
127.381	36.547	2200.572	2363.806
128.395	37.367	2198.926	2371.813
129.410	37.884	2198.529	2377.450
130.424	38.064	2196.912	2377.612
131.439	37.732	2194.227	2370.362
132.454	37.294	2192.118	2362.455
133.468	37.519	2191.052	2363.761
134.483	37.563	2188.798	2361.587
135.497	37.393	2187.672	2358.014
136.512	38.228	2187.546	2367.774
137.527	38.336	2185.343	2366.422
138.541	37.722	2183.262	2356.426
139.556	37.483	2181.339	2351.159
140.570	37.458	2180.172	2349.322
141.585	37.839	2179.672	2353.119
142.600	38.404	2178.767	2358.715
143.614	38.444	2178.441	2358.557
144.629	38.990	2176.541	2362.831
145.643	38.346	2172.864	2350.782
146.658	37.955	2170.233	2342.933
147.673	37.630	2168.141	2336.470
148.687	38.091	2168.573	2342.218
149.702	38.323	2167.113	2343.160
150.716	38.020	2165.186	2337.142
151.731	38.413	2165.349	2341.773
152.746	38.672	2164.171	2343.326
153.760	36.831	2156.540	2312.713
154.775	33.431	2147.473	2261.979
155.789	32.377	2143.687	2245.097
156.804	34.463	2148.339	2274.741
157.819	36.711	2149.232	2302.330
158.833	37.247	2150.041	2309.338
159.848	38.340	2150.109	2322.185
160.862	38.949	2149.628	2328.662
161.877	39.067	2149.919	2330.100
162.892	39.645	2150.066	2336.867
163.906	40.078	2149.163	2340.762
164.921	40.129	2146.995	2338.724
165.935	40.026	2145.449	2335.533
166.950	39.707	2142.075	2327.801
167.964	38.743	2136.980	2310.578
168.979	38.413	2135.097	2304.355
169.994	38.607	2134.848	2306.111
171.008	38.668	2132.906	2304.455
172.023	38.377	2131.931	2299.688
173.037	38.919	2130.911	2304.714
174.052	38.910	2129.214	2302.489
175.067	38.711	2127.039	2297.525
176.081	38.373	2124.584	2290.622
177.096	37.907	2122.874	2283.013
178.110	37.595	2118.830	2274.727
179.125	37.357	2118.541	2271.349
180.140	38.171	2118.214	2280.282
181.154	38.142	2117.615	2279.022
182.169	37.651	2115.053	2270.247
183.183	36.985	2110.788	2257.600
184.198	34.843	2102.819	2223.796
185.213	33.716	2100.192	2207.585
186.227	36.354	2106.207	2244.513
187.242	37.338	2106.225	2255.763
188.256	37.196	2104.439	2251.918
189.271	38.111	2105.301	2263.245
190.286	38.812	2104.322	2270.079
191.300	38.084	2098.763	2255.355
192.315	37.514	2096.616	2246.170
193.329	38.080	2098.063	2254.020
194.344	39.008	2099.405	2265.958
195.359	39.353	2098.158	2268.338
196.373	39.830	2097.748	2273.146
197.388	39.702	2095.034	2268.459
198.402	38.904	2091.169	2254.791
199.417	38.554	2088.357	2247.456
200.432	39.121	2087.908	2253.240
201.446	39.444	2087.353	2256.084
202.461	39.252	2084.022	2250.012
203.475	38.395	2081.078	2236.721
204.490	37.956	2078.061	2228.172
205.504	38.113	2077.094	2228.663
206.519	37.811	2073.783	2221.392
207.534	37.949	2071.882	2220.667
208.548	38.527	2071.301	2226.386
209.563	37.461	2067.319	2209.666
210.577	37.042	2066.635	2203.887
211.592	38.187	2068.505	2218.699
212.607	36.851	2062.600	2196.885
213.621	32.213	2049.981	2130.477
214.636	32.011	2050.869	2128.833
215.650	35.560	2057.140	2175.588
216.665	37.351	2059.234	2197.933
217.680	38.195	2060.033	2208.118
218.694	38.786	2059.853	2214.373
219.709	38.472	2056.911	2207.385
220.723	38.758	2057.399	2210.889
221.738	39.551	2056.168	2218.271
222.753	39.365	2053.740	2213.287
223.767	38.951	2051.268	2205.690
224.782	38.556	2049.517	2199.083
225.796	38.525	2047.596	2196.402
226.811	39.114	2047.577	2202.759
227.826	39.342	2046.350	2203.743
228.840	39.431	2045.496	2203.557
229.855	39.326	2042.485	2198.880
230.869	38.606	2038.726	2186.491
231.884	37.699	2036.147	2173.294
232.899	37.989	2036.759	2176.941
233.913	38.564	2036.113	2182.428
234.928	38.765	2034.970	2183.199
235.942	38.796	2034.964	2183.272
236.957	38.764	2032.556	2180.068
237.972	38.681	2031.521	2177.771
238.986	38.715	2029.801	2176.050
240.001	38.183	2026.031	2165.819
241.015	37.482	2023.705	2155.271
242.030	37.508	2022.025	2153.516
243.045	36.102	2015.979	2131.199
244.059	35.184	2014.262	2118.936
245.074	37.136	2017.304	2143.578
246.088	37.767	2014.406	2147.233
247.103	37.610	2012.804	2143.535
248.117	37.971	2012.855	2147.329
249.132	38.442	2011.582	2150.919
250.147	38.164	2009.843	2145.731
251.161	37.759	2008.382	2139.446
252.176	38.067	2007.197	2141.326
253.190	38.379	2005.004	2142.169
254.205	38.374	2003.869	2140.638
255.220	39.071	2003.914	2148.102
256.234	39.062	2002.565	2146.298
257.249	38.577	2000.907	2138.938
258.263	38.626	1999.222	2137.414
259.278	38.833	1999.272	2139.483
260.293	39.007	1998.436	2140.247
261.307	38.857	1996.119	2135.866
262.322	38.963	1994.465	2134.992
263.336	38.307	1989.989	2122.795
264.351	37.727	1987.289	2113.333
265.366	37.795	1987.346	2113.882
266.380	38.208	1986.338	2117.061
267.395	37.476	1982.742	2105.016
268.409	37.198	1981.818	2100.755
269.424	37.895	1981.531	2107.773
270.439	38.251	1981.512	2111.370
271.453	37.438	1976.426	2096.892
272.468	34.616	1966.641	2055.766
273.482	33.402	1965.310	2040.985
274.497	35.570	1967.955	2066.968
275.512	37.398	1969.114	2087.695
276.526	37.624	1967.091	2087.738
277.541	37.579	1965.667	2085.499
278.555	37.626	1964.569	2084.589
279.570	37.271	1961.258	2077.009
280.585	36.821	1959.492	2070.049
281.599	37.297	1960.050	2075.507
282.614	38.314	1961.495	2087.720
283.628	39.388	1962.132	2099.664
284.643	39.850	1962.482	2104.741
285.657	39.715	1959.943	2100.321
286.672	39.419	1957.488	2094.272
287.687	39.029	1955.729	2087.973
288.701	38.828	1953.869	2083.599
289.716	38.708	1952.564	2080.671
290.730	38.886	1950.828	2080.466
291.745	39.245	1949.145	2082.252
292.760	38.506	1946.556	2071.374
293.774	37.778	1945.892	2062.677
294.789	38.504	1946.521	2070.825
295.803	38.816	1943.585	2070.764
296.818	38.400	1941.493	2063.871
297.833	38.270	1940.935	2061.657
298.847	38.531	1939.595	2062.754
299.862	38.606	1937.795	2061.386
300.876	37.954	1933.606	2049.791
301.891	35.893	1926.169	2019.954
302.906	34.058	1923.128	1997.180
303.920	36.605	1929.237	2030.203
304.935	38.345	1929.130	2048.188
305.949	38.230	1928.103	2045.646
306.964	38.841	1927.694	2051.394
307.979	38.891	1925.060	2048.871
308.993	37.505	1920.085	2028.810
310.008	37.213	1919.158	2024.524
311.022	38.082	1920.023	2034.304
312.037	38.826	1920.465	2042.315
313.052	38.907	1918.301	2040.617
314.066	38.336	1915.021	2030.929
315.081	38.411	1915.290	2031.750
316.095	38.698	1914.322	2033.472
317.110	38.518	1911.888	2028.775
318.125	38.427	1910.401	2026.001
319.139	38.520	1909.073	2025.315
320.154	39.101	1908.964	2030.996
321.168	39.083	1907.660	2029.183
322.183	39.392	1907.157	2031.605
323.197	39.212	1904.735	2026.920
324.212	38.684	1902.064	2018.370
325.227	38.133	1898.867	2009.042
326.241	37.697	1897.434	2002.783
327.256	37.888	1896.267	2003.277
328.270	37.788	1895.484	2001.184
329.285	38.168	1894.916	2004.261
330.300	37.387	1891.667	1992.539
331.314	33.871	1882.126	1946.128
332.329	33.386	1881.237	1939.979
333.343	36.481	1886.963	1977.556
334.358	38.502	1889.294	2000.547
335.373	38.881	1887.820	2002.642
336.387	38.728	1885.641	1998.524
337.402	38.626	1884.312	1995.830
338.416	38.289	1881.678	1989.359
339.431	38.130	1880.907	1986.674
340.446	39.246	1881.752	1998.743
341.460	39.665	1880.806	2001.768
342.475	39.864	1879.142	2001.787
343.489	39.173	1875.441	1990.581
344.504	38.552	1874.455	1982.969
345.519	38.832	1872.637	1983.658
346.533	38.939	1870.234	1981.965
347.548	38.891	1869.360	1980.311
348.562	38.845	1868.454	1978.643
349.577	39.066	1867.205	1979.323
350.592	39.332	1866.508	1981.045
351.606	39.177	1865.924	1978.622
352.621	38.775	1862.483	1970.671
353.635	38.564	1861.147	1966.898
354.650	38.248	1858.250	1960.411
355.665	37.608	1857.116	1952.527
356.679	37.706	1855.043	1951.105
357.694	37.757	1854.465	1950.769
358.708	38.226	1853.685	1954.440
359.723	37.543	1849.678	1943.124
360.738	33.959	1839.960	1896.807
361.752	33.190	1839.637	1888.537
362.767	36.221	1844.143	1923.371
363.781	37.872	1846.118	1941.748
364.796	38.805	1845.796	1950.511
365.810	38.360	1843.611	1943.521
366.825	37.866	1841.659	1936.299
367.840	38.014	1840.282	1936.102
368.854	37.505	1838.912	1929.351
369.869	37.677	1836.647	1928.462
370.883	37.922	1835.840	1929.820
371.898	38.190	1836.332	1932.769
372.913	38.920	1836.091	1939.540
373.927	38.839	1833.683	1935.965
374.942	38.652	1832.109	1932.211
375.956	38.802	1831.080	1932.385
376.971	38.292	1828.609	1924.503
377.986	38.322	1827.200	1923.076
379.000	38.953	1827.519	1929.427
380.015	38.993	1826.065	1928.050
381.029	38.815	1823.312	1923.158
382.044	38.684	1822.214	1920.486
383.059	38.407	1820.634	1915.863
384.073	37.714	1817.072	1905.067
385.088	37.328	1816.744	1900.701
386.102	37.962	1816.950	1906.922
387.117	38.514	1815.463	1910.551
388.132	38.609	1814.931	1910.696
389.146	37.572	1811.709	1896.917
390.161	34.080	1801.583	1851.995
391.175	33.161	1798.503	1839.620
392.190	35.961	1800.729	1869.045
393.205	37.110	1800.522	1879.801
394.219	37.468	1800.339	1882.878
395.234	37.485	1799.638	1882.083
396.248	37.474	1798.058	1880.093
397.263	37.418	1795.131	1876.268
398.278	37.009	1792.875	1869.719
399.292	36.994	1793.568	1870.075
400.307	38.667	1795.894	1888.497
401.321	39.417	1795.435	1895.052
402.336	39.149	1793.223	1889.901
403.350	38.856	1791.110	1884.616
404.365	39.411	1791.656	1890.325
405.380	40.048	1792.057	1896.667
406.394	39.649	1789.352	1889.737
407.409	39.116	1787.402	1882.323
408.423	38.704	1784.539	1875.121
409.438	38.516	1782.271	1870.708
410.453	38.557	1780.929	1869.464
411.467	38.463	1779.765	1867.116
412.482	38.331	1779.117	1864.948
413.496	38.537	1779.179	1866.766
414.511	38.656	1777.544	1865.967
415.526	38.458	1774.692	1860.857
416.540	38.649	1773.314	1861.015
417.555	38.359	1770.828	1855.420
418.569	37.516	1769.538	1845.809
419.584	38.260	1769.775	1852.928
420.599	38.444	1769.614	1854.288
421.613	37.488	1766.692	1841.909
422.628	37.050	1764.509	1835.246
423.642	38.289	1765.857	1848.216
424.657	38.731	1763.918	1850.162
425.672	37.497	1759.774	1833.899
426.686	37.776	1760.580	1837.171
427.701	37.972	1759.706	1837.889
428.715	37.944	1757.802	1835.417
429.730	38.500	1757.904	1840.563
430.745	39.589	1759.701	1852.518
431.759	40.421	1759.384	1859.821
432.774	39.740	1756.451	1850.080
433.788	35.504	1743.440	1796.423
434.803	29.921	1732.648	1732.725
435.818	28.720	1729.898	1718.479
436.832	28.622	1729.464	1716.924
437.847	28.011	1722.161	1703.742
438.861	18.493	1694.363	1587.858
439.876	4.399	1668.555	1433.427
440.890	0.702	1661.178	1392.713
441.905	0.352	1659.263	1387.704
442.920	0.435	1657.871	1387.140
443.934	0.314	1656.522	1384.734
444.949	0.271	1656.530	1384.180
445.963	0.168	1655.529	1382.226
446.978	0.205	1654.892	1381.863
447.993	0.285	1652.737	1380.636
449.007	0.213	1651.170	1378.501
450.022	0.344	1648.477	1377.296
451.036	0.244	1647.795	1375.639
452.051	1.180	1654.513	1389.711
453.066	13.603	1685.188	1531.291
454.080	29.469	1710.689	1702.691
455.095	31.722	1713.625	1726.308
456.109	31.938	1714.661	1729.145
457.124	32.830	1713.595	1736.118
458.139	32.105	1711.124	1726.703
459.153	31.472	1708.999	1718.512
460.168	31.556	1707.132	1717.203
461.182	31.943	1707.817	1721.255
462.197	32.737	1706.929	1727.468
463.212	33.122	1706.096	1729.964
464.226	33.259	1705.004	1729.913
465.241	33.049	1704.152	1726.905
466.255	33.196	1702.409	1726.287
467.270	32.965	1700.700	1722.225
468.285	33.334	1700.700	1725.397
469.299	34.025	1701.479	1732.319
470.314	34.107	1699.931	1731.281
471.328	34.046	1698.239	1728.793
472.343	34.073	1696.621	1727.191
473.358	34.009	1696.290	1726.058
474.372	34.019	1694.106	1723.724
475.387	34.535	1694.282	1728.394
476.401	34.561	1692.544	1726.648
477.416	34.088	1689.705	1719.252
478.430	33.756	1688.796	1715.107
479.445	34.173	1689.446	1719.350
480.460	34.757	1688.086	1723.053
481.474	34.700	1687.057	1721.284
482.489	34.249	1684.204	1714.089
483.503	33.475	1681.817	1704.457
484.518	33.013	1679.260	1697.491
485.533	33.439	1679.217	1701.087
486.547	33.513	1677.562	1699.880
487.562	32.838	1675.365	1691.364
488.576	33.390	1675.131	1695.899
489.591	33.962	1675.289	1701.000
490.606	34.365	1674.529	1703.650
491.620	34.357	1671.558	1700.349
492.635	33.614	1668.614	1690.498
493.649	32.690	1666.048	1679.429
494.664	32.743	1666.013	1679.663
495.679	33.596	1666.141	1687.225
496.693	33.755	1664.340	1686.625
497.708	33.531	1662.976	1683.037
498.722	33.024	1660.664	1675.980
499.737	33.127	1659.941	1675.962
500.752	33.223	1659.542	1676.219
501.766	33.539	1657.355	1676.617
502.781	33.536	1655.738	1674.757
503.795	33.573	1655.526	1674.667
504.810	33.636	1654.187	1673.668
505.825	33.086	1652.573	1666.958
506.839	32.627	1650.510	1660.614
507.854	32.737	1649.725	1660.605
508.868	32.938	1647.136	1659.577
509.883	32.870	1645.957	1657.583
510.898	32.390	1644.765	1651.951
511.912	31.834	1641.493	1643.568
512.927	31.444	1638.619	1637.065
513.941	31.401	1637.379	1635.249
514.956	31.855	1637.156	1638.823
515.971	32.487	1637.053	1644.071
516.985	32.302	1634.955	1640.150
518.000	31.787	1633.085	1633.568
519.014	31.363	1632.258	1628.826
520.029	31.285	1630.842	1626.538
521.043	31.240	1629.199	1624.309
522.058	31.570	1628.946	1626.748
523.073	31.954	1628.109	1629.073
524.087	31.798	1626.399	1625.802
525.102	31.750	1625.666	1624.456
526.116	32.336	1626.393	1630.094
527.131	33.031	1625.310	1634.864
528.146	32.631	1623.908	1629.782
529.160	32.491	1622.760	1627.218
530.175	32.551	1621.766	1626.545
531.189	32.619	1620.068	1625.238
532.204	32.391	1619.670	1622.672
533.219	32.654	1618.970	1624.054
534.233	33.193	1619.200	1628.755
535.248	33.120	1616.751	1625.467
536.262	32.552	1614.676	1618.279
537.277	32.844	1614.818	1620.751
538.292	33.397	1614.208	1624.715
539.306	33.691	1612.540	1625.377
540.321	33.322	1609.206	1618.652
541.335	32.766	1608.347	1612.813
542.350	33.031	1607.523	1614.070
543.365	33.305	1606.741	1615.447
544.379	33.555	1605.180	1615.819
545.394	33.453	1603.398	1612.959
546.408	33.027	1602.011	1607.727
547.423	33.407	1602.403	1611.182
548.438	34.192	1601.909	1617.202
549.452	33.857	1599.593	1611.813
550.467	33.197	1597.332	1603.717
551.481	32.754	1595.637	1598.050
552.496	32.547	1594.326	1594.786
553.511	32.236	1593.178	1590.797
554.525	32.330	1592.299	1590.532
555.540	32.213	1591.289	1588.339
556.554	32.326	1589.330	1587.150
557.569	32.282	1587.614	1584.876
558.583	31.995	1585.860	1580.501
559.598	31.881	1585.465	1578.960
560.613	32.104	1584.181	1579.374
561.627	31.912	1582.560	1575.952
562.642	31.632	1580.845	1571.692
563.656	31.334	1578.252	1566.413
564.671	31.089	1577.148	1563.063
565.686	31.019	1576.505	1561.652
566.700	31.068	1574.729	1560.114
567.715	31.128	1573.627	1559.341
568.729	31.518	1573.081	1561.892
569.744	32.343	1572.541	1568.083
570.759	32.514	1570.981	1567.767
571.773	32.042	1569.685	1562.339
572.788	31.938	1567.328	1558.940
573.802	31.450	1566.004	1553.364
574.817	31.198	1564.314	1549.402
575.832	30.960	1562.860	1545.793
576.846	31.376	1562.927	1549.140
577.861	31.660	1562.125	1550.523
578.875	31.678	1561.468	1549.835
579.890	31.857	1560.417	1550.091
580.905	31.855	1558.965	1548.449
581.919	31.938	1558.552	1548.543
582.934	32.067	1558.194	1549.071
583.948	32.144	1556.748	1548.085
584.963	32.062	1555.474	1545.956
585.978	32.304	1554.596	1546.898
586.992	32.340	1553.834	1546.256
588.007	32.512	1553.374	1547.032
589.021	32.431	1551.626	1544.436
590.036	31.728	1549.362	1536.202
591.051	31.982	1548.717	1537.472
592.065	32.518	1547.693	1540.681
593.080	32.672	1546.611	1540.683
594.094	32.833	1545.559	1540.776
595.109	32.745	1544.503	1538.815
596.123	33.360	1543.495	1542.667
597.138	33.382	1542.032	1541.201
598.153	32.597	1539.603	1532.175
599.167	32.274	1538.328	1528.086
600.182	32.216	1537.746	1526.852
601.196	32.280	1536.697	1526.143
602.211	32.346	1535.368	1525.185
603.226	32.221	1532.971	1521.601
604.240	32.363	1531.947	1521.560
605.255	32.235	1531.297	1519.690
606.269	32.053	1529.773	1516.516
607.284	31.851	1528.333	1513.270
608.299	31.594	1527.050	1509.732
609.313	31.666	1525.236	1508.347
610.328	31.493	1524.571	1506.109
611.342	31.526	1522.356	1504.000
612.357	31.550	1521.256	1502.928
613.372	31.432	1519.730	1500.288
614.386	31.485	1519.189	1500.006
615.401	31.275	1518.946	1497.896
616.415	31.218	1517.809	1496.134
617.430	31.025	1516.095	1492.715
618.445	30.819	1514.322	1489.129
619.459	30.951	1513.741	1489.443
620.474	31.118	1512.865	1489.743
621.488	31.664	1513.009	1494.090
622.503	32.483	1513.561	1501.020
623.518	31.953	1510.792	1493.857
624.532	31.130	1508.370	1484.698
625.547	31.088	1506.944	1482.786
626.561	30.781	1505.387	1478.626
627.576	30.685	1504.944	1477.243
628.591	31.233	1504.941	1481.439
629.605	31.898	1504.528	1486.152
630.620	32.246	1504.647	1488.860
631.634	33.083	1504.423	1495.119
632.649	33.196	1502.543	1493.974
633.663	32.539	1500.509	1486.558
634.678	31.674	1497.673	1476.723
635.693	31.121	1494.888	1469.418
636.707	30.936	1493.037	1465.960
637.722	30.797	1491.947	1463.624
638.736	30.970	1491.113	1463.995
639.751	31.192	1491.298	1465.755
640.766	31.216	1490.015	1464.502
641.780	31.250	1488.107	1462.717
642.795	31.410	1487.790	1463.493
643.809	31.559	1487.242	1463.949
644.824	31.728	1486.667	1464.542
645.839	31.925	1485.855	1465.107
646.853	31.823	1484.462	1462.760
647.868	31.917	1483.255	1462.130
648.882	31.982	1482.188	1461.416
649.897	32.130	1481.087	1461.308
650.912	32.041	1479.950	1459.321
651.926	32.233	1479.193	1459.897
652.941	32.291	1478.325	1459.319
653.955	32.141	1475.617	1455.304
654.970	31.712	1473.490	1449.696
655.985	31.182	1472.085	1444.022
656.999	31.056	1470.175	1440.998
658.014	31.101	1469.398	1440.410
659.028	31.431	1469.333	1442.735
660.043	31.905	1470.215	1447.105
661.058	32.211	1468.587	1447.696
662.072	32.361	1466.893	1447.016
663.087	32.246	1466.056	1445.129
664.101	32.084	1464.875	1442.540
665.116	32.023	1463.996	1441.029
666.131	31.884	1462.776	1438.588
667.145	32.012	1461.035	1437.689
668.160	31.889	1459.546	1435.100
669.174	31.712	1457.736	1431.794
670.189	31.595	1457.287	1430.281
671.204	31.699	1457.020	1430.645
672.218	31.661	1455.847	1429.033
673.233	31.744	1454.302	1427.978
674.247	31.766	1452.513	1426.220
675.262	31.444	1451.310	1422.411
676.276	31.330	1449.948	1420.029
677.291	31.357	1449.263	1419.399
678.306	31.656	1448.033	1420.301
679.320	31.432	1447.159	1417.566
680.335	31.180	1445.983	1414.326
681.349	31.155	1445.864	1413.849
682.364	31.154	1444.564	1412.404
683.379	31.079	1442.526	1409.673
684.393	30.955	1441.644	1407.696
685.408	30.949	1440.495	1406.362
686.422	30.959	1438.718	1404.539
687.437	30.873	1437.876	1402.896
688.452	30.473	1437.461	1399.295
689.466	30.556	1435.525	1397.871
690.481	30.812	1434.123	1398.266
691.495	31.025	1434.844	1400.412
692.510	32.128	1436.080	1409.779
693.525	32.954	1435.574	1415.339
694.539	32.476	1433.050	1409.090
695.554	31.210	1430.381	1396.781
696.568	30.593	1427.979	1389.631
697.583	30.245	1427.784	1386.660
698.598	30.649	1426.195	1387.987
699.612	30.608	1425.593	1386.925
700.627	30.595	1424.305	1385.409
701.641	30.870	1423.741	1386.751
702.656	31.233	1422.164	1387.766
703.671	31.073	1421.489	1385.745
704.685	31.016	1422.364	1386.004
705.700	31.480	1421.181	1388.147
706.714	31.523	1419.566	1386.728
707.729	31.722	1418.445	1386.950
708.744	31.841	1416.922	1386.173
709.758	31.744	1415.360	1383.761
710.773	31.178	1413.411	1377.493
711.787	30.746	1412.568	1373.306
712.802	31.367	1412.043	1377.233
713.816	31.712	1411.293	1378.887
714.831	31.707	1411.286	1378.677
715.846	31.679	1409.869	1376.920
716.860	31.600	1408.429	1374.765
717.875	31.595	1406.440	1372.626
718.889	31.537	1405.685	1371.300
719.904	31.468	1405.001	1369.956
720.919	31.561	1403.372	1368.893
721.933	31.243	1402.557	1365.595
722.948	31.062	1401.249	1362.830
723.962	31.151	1399.922	1362.026
724.977	30.996	1398.638	1359.481
725.992	31.171	1397.360	1359.357
727.006	31.298	1396.655	1359.435
728.021	31.326	1394.625	1357.497
729.035	31.033	1393.530	1354.136
730.050	31.061	1392.473	1353.146
731.065	31.026	1391.763	1352.039
732.079	30.783	1390.415	1348.804
733.094	30.812	1389.669	1348.126
734.108	31.081	1388.097	1348.396
735.123	30.871	1386.407	1345.069
736.138	30.745	1385.421	1343.039
737.152	30.794	1384.928	1342.756
738.167	30.736	1383.266	1340.565
739.181	30.669	1382.282	1338.964
740.196	30.733	1381.683	1338.683
741.211	30.760	1380.459	1337.537
742.225	30.510	1380.044	1335.166
743.240	30.559	1378.390	1333.758
744.254	30.406	1376.532	1330.701
745.269	30.325	1375.402	1328.864
746.284	30.102	1375.004	1326.719
747.298	30.268	1374.148	1326.927
748.313	30.597	1374.273	1329.252
749.327	31.342	1374.691	1334.851
750.342	32.194	1375.504	1341.597
751.356	32.972	1374.838	1346.368
752.371	32.710	1372.054	1341.602
753.386	31.086	1369.291	1327.141
754.400	30.466	1367.540	1320.851
755.415	30.524	1366.563	1320.164
756.429	30.761	1364.975	1320.165
757.444	30.995	1364.706	1321.411
758.459	30.904	1363.105	1319.061
759.473	30.646	1362.319	1316.305
760.488	30.771	1361.083	1315.838
761.502	30.690	1360.102	1314.162
762.517	30.852	1359.053	1314.137
763.532	31.208	1357.843	1315.334
764.546	31.230	1356.635	1314.158
765.561	30.848	1355.811	1310.501
766.575	30.352	1354.449	1305.523
767.590	30.320	1353.109	1303.849
768.605	30.965	1353.122	1308.257
769.619	31.177	1352.458	1308.959
770.634	31.285	1350.511	1307.677
771.648	30.960	1349.287	1304.049
772.663	30.487	1348.619	1299.924
773.678	30.462	1348.111	1299.099
774.692	30.590	1346.709	1298.488
775.707	30.487	1346.565	1297.472
776.721	30.456	1345.890	1296.451
777.736	30.309	1344.603	1294.025
778.751	30.312	1342.819	1292.174
779.765	30.440	1341.543	1291.690
780.780	30.371	1340.693	1290.236
781.794	30.363	1339.791	1289.156
782.809	30.225	1338.184	1286.495
783.824	29.934	1337.280	1283.442
784.838	30.395	1337.274	1286.495
785.853	31.507	1337.802	1294.588
786.867	31.425	1337.199	1293.278
787.882	30.717	1335.998	1287.046
788.897	30.474	1333.509	1282.803
789.911	30.053	1332.175	1278.451
790.926	29.981	1330.355	1276.047
791.940	30.034	1329.009	1274.976
792.955	29.809	1327.958	1272.259
793.969	29.888	1326.765	1271.508
794.984	29.852	1326.828	1271.170
795.999	29.970	1325.554	1270.609
797.013	30.012	1323.493	1268.772
798.028	29.994	1322.396	1267.442
799.042	29.824	1322.127	1265.862
800.057	29.974	1320.583	1265.266
801.072	30.074	1319.682	1264.936
802.086	30.048	1318.312	1263.297
803.101	30.093	1317.228	1262.414
804.115	30.091	1316.486	1261.533
805.130	30.090	1315.787	1260.710
806.145	30.082	1314.621	1259.384
807.159	30.164	1313.434	1258.656
808.174	30.326	1312.308	1258.528
809.188	30.558	1311.603	1259.282
810.203	30.711	1310.125	1258.753
811.218	30.612	1308.529	1256.398
812.232	30.347	1306.956	1252.938
813.247	30.098	1306.024	1250.211
814.261	30.135	1305.975	1250.265
815.276	30.372	1305.500	1251.266
816.291	30.282	1303.961	1249.028
817.305	30.029	1302.522	1245.791
818.320	29.997	1300.919	1243.895
819.334	30.092	1300.176	1243.680
820.349	30.080	1299.150	1242.466
821.364	30.040	1296.801	1239.804
822.378	29.925	1296.072	1238.181
823.393	29.949	1294.214	1236.419
824.407	29.788	1292.971	1234.004
825.422	29.682	1293.018	1233.189
826.437	29.696	1292.467	1232.614
827.451	29.872	1290.253	1231.528
828.466	30.533	1290.697	1236.228
829.480	31.328	1289.743	1240.478
830.495	30.803	1287.280	1234.458
831.509	30.084	1285.710	1228.021
832.524	29.836	1284.246	1224.821
833.539	29.731	1282.748	1222.549
834.553	29.679	1281.386	1220.763
835.568	29.424	1281.245	1218.787
836.582	29.595	1280.187	1218.767
837.597	29.890	1278.806	1219.263
838.612	30.052	1277.399	1218.847
839.626	30.004	1275.743	1216.806
840.641	30.275	1275.710	1218.417
841.655	30.047	1275.036	1216.125
842.670	29.918	1273.595	1213.750
843.685	29.723	1272.688	1211.456
844.699	29.886	1271.949	1211.680
845.714	29.899	1270.729	1210.458
846.728	29.794	1269.432	1208.389
847.743	29.791	1268.288	1207.140
848.758	29.709	1267.098	1205.320
849.772	29.747	1266.355	1204.719
850.787	29.640	1264.733	1202.332
851.801	29.620	1263.197	1200.602
852.816	29.535	1262.284	1199.030
853.831	29.480	1260.612	1196.945
854.845	29.561	1259.077	1195.872
855.860	29.543	1257.491	1194.103
856.874	29.652	1256.955	1194.161
857.889	30.006	1256.860	1196.224
858.904	30.521	1256.882	1199.444
859.918	31.359	1256.169	1204.047
860.933	31.738	1254.915	1205.154
861.947	31.350	1252.627	1200.308
862.962	30.317	1250.822	1191.774
863.977	30.063	1249.615	1188.841
864.991	29.765	1248.065	1185.307
866.006	29.468	1247.864	1183.061
867.020	29.535	1246.502	1182.059
868.035	29.551	1244.393	1180.017
869.049	29.558	1243.603	1179.173
870.064	29.643	1242.831	1178.847
871.079	29.575	1242.614	1178.066
872.093	29.607	1242.321	1177.851
873.108	29.629	1240.942	1176.539
874.122	29.707	1239.952	1175.961
875.137	29.666	1239.734	1175.352
876.152	29.692	1238.350	1174.066
877.166	29.737	1236.088	1172.066
878.181	29.733	1234.573	1170.466
879.195	29.532	1234.284	1168.768
880.210	29.398	1233.784	1167.302
881.225	29.522	1232.930	1167.142
882.239	29.388	1231.949	1165.228
883.254	29.412	1230.637	1164.000
884.268	29.574	1229.320	1163.642
885.283	29.594	1228.276	1162.641
886.298	29.557	1226.491	1160.577
887.312	29.513	1225.599	1159.316
888.327	29.471	1224.769	1158.126
889.341	29.363	1224.025	1156.601
890.356	29.411	1223.079	1155.874
891.371	29.287	1222.676	1154.574
892.385	29.277	1222.051	1153.784
893.400	29.434	1221.570	1154.174
894.414	29.593	1220.368	1153.903
895.429	29.949	1219.844	1155.499
896.444	31.132	1219.838	1162.775
897.458	32.019	1219.704	1168.061
898.473	31.531	1217.598	1162.854
899.487	30.473	1215.534	1154.138
900.502	29.748	1213.729	1147.768
901.517	29.455	1212.100	1144.264
902.531	29.553	1210.932	1143.631
903.546	29.267	1210.459	1141.269
904.560	29.274	1209.685	1140.447
905.575	29.278	1208.540	1139.255
906.589	29.313	1207.865	1138.699
907.604	29.301	1207.445	1138.092
