DTS Sentinel unit serial number:	SN409020Multiplexer serial number:	ORYXHardware model number:	OX4-SRSoftware version number:	ORYX F/W v3.00 Oryx Data Collector v3.7.2.0data status	okinstallation	HaddamTimeLapsedifferential loss correction	single-endedforward channel	channel 3reverse channel	N/Adate	2011/06/22time	02:06:16forward acquisition time	30.00reverse acquisition time	0.00gamma	498.7831k internal	0.1750k external	0.1750temperature offset calibration	1.0074default loss term (dB/km)	0.3790temperature slope calibration	1.3530multiplexer offset coefficient	1.0000multiplexer slope coefficient	1.0000fibre end	0.00T internal ref (°C)	22.37T ext. ref 1 (°C)	17.66T ext. ref 2 (°C)	0.01length (m)	temperature (°C)	Stokes	anti-Stokes-747.200	-171.060	-0.078	-0.003
-746.185	800.000	0.148	0.756
-745.171	-114.096	0.428	0.109
-744.156	-200.000	0.005	0.147
-743.142	-157.959	-0.162	0.013
-742.127	-200.000	0.009	0.258
-741.112	-19.180	-0.047	-0.039
-740.098	-72.499	0.079	0.039
-739.083	46.389	0.123	0.152
-738.069	-93.881	0.534	-0.194
-737.054	-150.703	0.211	-0.021
-736.039	-35.591	-0.477	-0.343
-735.025	-200.000	0.038	0.740
-734.010	-27.629	0.123	-0.095
-732.996	503.790	0.128	-0.394
-731.981	-105.483	-0.497	-0.149
-730.966	18.110	0.093	0.099
-729.952	317.219	0.190	0.480
-728.937	-57.693	-0.515	-0.299
-727.923	-60.391	-0.424	-0.239
-726.908	-55.453	0.215	0.128
-725.894	-129.983	-0.316	-0.057
-724.879	616.548	-0.056	0.189
-723.864	-49.834	0.428	-0.269
-722.850	-24.456	0.341	-0.269
-721.835	95.565	0.114	-0.172
-720.821	319.870	-0.082	0.207
-719.806	-105.667	-0.206	0.062
-718.791	-200.000	-0.002	0.117
-717.777	-142.336	-0.347	-0.045
-716.762	-76.947	-0.102	-0.047
-715.748	-175.607	-0.238	-0.008
-714.733	-16.942	0.356	0.298
-713.718	-9.604	0.347	0.307
-712.704	-76.066	-0.416	0.194
-711.689	-101.184	0.259	0.083
-710.675	108.532	-0.323	-0.513
-709.660	-200.000	-0.011	-0.498
-708.645	-12.195	-0.466	-0.404
-707.631	-147.812	-0.448	-0.049
-706.616	114.451	0.184	-0.297
-705.602	149.277	0.292	0.525
-704.587	88.174	-0.114	0.168
-703.572	-15.858	-0.138	0.116
-702.558	-158.636	0.304	-0.023
-701.543	76.502	-0.136	-0.192
-700.529	-64.323	-0.328	-0.177
-699.514	118.709	-0.318	0.521
-698.499	161.043	-0.174	-0.324
-697.485	-104.894	-0.239	0.072
-696.470	-200.000	-0.032	0.451
-695.456	800.000	-0.028	-0.148
-694.441	80.193	-0.105	-0.151
-693.426	19.744	0.301	-0.321
-692.412	208.813	-0.016	-0.034
-691.397	800.000	-0.074	-0.275
-690.383	-58.225	-0.510	0.294
-689.368	36.981	-0.184	-0.216
-688.354	8.731	-0.180	-0.180
-687.339	152.144	0.295	-0.535
-686.324	106.093	-0.256	-0.403
-685.310	197.994	-0.323	-0.656
-684.295	-128.945	0.172	-0.032
-683.281	800.000	-0.058	-0.235
-682.266	24.206	0.079	-0.086
-681.251	-41.460	0.059	0.040
-680.237	800.000	0.027	-0.154
-679.222	44.403	0.214	-0.260
-678.208	-200.000	0.007	-0.359
-677.193	139.717	-0.075	-0.131
-676.178	-200.000	-0.018	-0.215
-675.164	239.617	-0.148	-0.329
-674.149	-89.238	-0.369	0.144
-673.135	367.275	0.079	-0.214
-672.120	16.818	-0.206	0.216
-671.105	-200.000	0.007	0.301
-670.091	-6.632	0.153	-0.138
-669.076	800.000	-0.021	0.114
-668.062	718.674	-0.075	0.264
-667.047	777.705	-0.089	0.324
-666.032	-122.067	-0.597	0.129
-665.018	-137.839	0.561	0.082
-664.003	-200.000	-0.008	-0.550
-662.989	-93.793	0.146	0.053
-661.974	136.717	-0.133	-0.230
-660.959	-33.151	0.183	-0.134
-659.945	55.145	0.132	-0.169
-658.930	302.744	-0.132	0.326
-657.916	-176.683	-0.154	0.005
-656.901	357.748	-0.095	0.252
-655.886	-117.405	0.109	-0.026
-654.872	800.000	0.126	-0.473
-653.857	89.898	0.127	0.188
-652.843	770.568	0.045	-0.163
-651.828	-49.721	0.292	-0.183
-650.814	-89.483	0.502	0.195
-649.799	592.716	-0.053	-0.176
-648.784	-40.112	0.081	0.056
-647.770	72.056	0.072	0.100
-646.755	-7.534	-0.107	-0.096
-645.741	-132.632	0.268	-0.045
-644.726	-45.868	-0.280	0.182
-643.711	80.998	0.118	-0.169
-642.697	45.565	-0.216	-0.264
-641.682	134.847	-0.038	0.066
-640.668	2.051	0.452	0.431
-639.653	-59.251	0.312	0.177
-638.638	-159.857	-0.246	0.018
-637.624	110.799	-0.166	-0.264
-636.609	472.083	-0.074	0.221
-635.595	-200.000	0.025	-0.495
-634.580	-200.000	-0.001	0.170
-633.565	-108.193	0.662	-0.188
-632.551	133.681	0.136	-0.234
-631.536	-136.211	0.475	0.073
-630.522	43.928	-0.340	0.413
-629.507	31.329	0.057	-0.065
-628.492	-70.842	0.194	0.097
-627.478	163.779	0.238	0.444
-626.463	-55.075	0.570	0.338
-625.449	-20.409	-0.408	-0.331
-624.434	-200.000	0.074	-0.445
-623.419	800.000	0.003	0.017
-622.405	66.439	-0.047	-0.063
-621.390	295.686	-0.066	0.162
-620.376	16.834	0.093	0.098
-619.361	301.098	-0.312	-0.765
-618.346	32.601	-0.191	0.219
-617.332	-141.005	-0.365	-0.049
-616.317	-20.166	-0.127	-0.103
-615.303	747.199	-0.033	0.117
-614.288	-200.000	-0.001	0.156
-613.273	-3.703	0.133	0.122
-612.259	-200.000	0.007	-0.319
-611.244	-35.997	0.359	-0.256
-610.230	-200.000	0.016	-0.101
-609.215	-177.637	0.172	-0.005
-608.201	8.122	0.292	0.289
-607.186	-9.448	0.207	-0.183
-606.171	135.852	0.307	-0.530
-605.157	521.975	-0.131	-0.408
-604.142	5.344	0.016	-0.016
-603.128	42.131	-0.331	0.397
-602.113	676.250	0.108	0.374
-601.098	-110.964	-0.290	-0.078
-600.084	-64.393	-0.322	-0.172
-599.069	46.751	-0.359	0.441
-598.055	-158.548	-0.153	-0.012
-597.040	116.154	-0.062	-0.101
-596.025	-200.000	0.030	-0.211
-595.011	-83.940	-0.218	-0.091
-593.996	-151.815	0.320	-0.031
-592.982	-200.000	-0.042	0.286
-591.967	569.750	-0.118	0.382
-590.952	13.746	0.153	-0.157
-589.938	-64.832	-0.105	0.056
-588.923	-40.547	0.262	0.179
-587.909	-52.739	0.323	-0.196
-586.894	573.378	-0.069	0.224
-585.879	262.254	-0.158	-0.362
-584.865	615.773	-0.202	0.673
-583.850	210.240	-0.120	0.250
-582.836	-108.060	-0.434	0.123
-581.821	-87.950	-0.203	-0.080
-580.806	-200.000	-0.036	-0.317
-579.792	-24.768	0.151	0.118
-578.777	-43.426	-0.171	-0.114
-577.763	599.724	0.065	0.216
-576.748	131.758	0.017	-0.028
-575.733	49.891	-0.146	-0.182
-574.719	278.368	0.170	-0.402
-573.704	-78.195	0.185	-0.084
-572.690	237.598	0.149	-0.328
-571.675	67.015	0.395	0.531
-570.661	-189.164	-0.182	-0.003
-569.646	-58.329	0.433	0.248
-568.631	4.875	-0.352	0.342
-567.617	-66.033	0.324	0.170
-566.602	-200.000	0.023	-0.381
-565.588	-86.385	0.261	0.105
-564.573	569.840	-0.095	-0.306
-563.558	-90.054	-0.350	0.134
-562.544	-68.930	0.239	0.121
-561.529	-10.250	0.262	-0.229
-560.515	-54.421	-0.095	0.057
-559.500	800.000	-0.042	0.204
-558.485	-28.530	0.125	-0.095
-557.471	-84.028	0.361	-0.151
-556.456	-158.750	0.460	0.034
-555.442	-135.862	0.466	-0.072
-554.427	12.800	-0.347	-0.353
-553.412	-64.147	-0.262	0.140
-552.398	-146.328	0.503	-0.057
-551.383	33.694	0.308	0.354
-550.369	27.936	0.281	-0.313
-549.354	-70.552	-0.282	-0.140
-548.339	-5.578	0.069	0.063
-547.325	79.122	0.266	0.377
-546.310	-200.000	0.023	0.331
-545.296	-200.000	-0.014	-0.207
-544.281	745.255	-0.050	0.180
-543.266	-95.585	0.408	0.143
-542.252	-135.706	-0.090	0.014
-541.237	-37.561	0.215	-0.151
-540.223	-27.174	-0.209	-0.160
-539.208	-128.691	-0.535	0.099
-538.193	-132.490	-0.324	0.054
-537.179	-200.000	-0.016	0.247
-536.164	-74.368	-0.331	0.157
-535.150	122.776	-0.106	-0.175
-534.135	-131.662	0.245	-0.042
-533.121	8.575	0.091	0.090
-532.106	-85.085	0.413	0.170
-531.091	-46.367	0.108	0.070
-530.077	657.092	0.072	0.244
-529.062	30.603	0.073	-0.082
-528.048	-124.729	0.323	-0.065
-527.033	-108.676	0.423	0.119
-526.018	-200.000	-0.036	-0.289
-525.004	-149.097	-0.055	-0.006
-523.989	-160.531	-0.522	-0.036
-522.975	800.000	-0.076	-0.387
-521.960	-200.000	-0.016	0.262
-520.945	60.972	0.452	0.591
-519.931	82.568	-0.132	-0.189
-518.916	-113.104	0.252	-0.065
-517.902	800.000	-0.063	-0.322
-516.887	-192.571	-0.290	-0.003
-515.872	174.649	-0.120	-0.229
-514.858	-12.429	0.146	-0.125
-513.843	800.000	0.101	0.498
-512.829	583.361	0.110	0.357
-511.814	19.813	-0.162	0.172
-510.799	-86.010	-0.364	-0.147
-509.785	-42.174	0.364	0.245
-508.770	114.389	0.019	-0.030
-507.756	800.000	0.131	-0.504
-506.741	138.122	-0.075	-0.130
-505.726	126.663	0.224	0.375
-504.712	-46.284	0.115	-0.074
-503.697	800.000	-0.027	0.137
-502.683	-4.585	-0.342	0.310
-501.668	795.156	-0.068	0.250
-500.653	-28.605	0.065	-0.049
-499.639	-98.667	0.493	-0.164
-498.624	-51.471	0.202	0.124
-497.610	-10.443	-0.475	0.414
-496.595	-116.512	-0.208	-0.050
-495.581	-151.049	0.168	-0.016
-494.566	-148.458	-0.810	0.086
-493.551	800.000	0.063	0.264
-492.537	-200.000	0.047	-0.368
-491.522	362.628	0.097	-0.257
-490.508	-13.590	0.252	0.214
-489.493	13.743	-0.117	0.119
-488.478	144.093	0.090	-0.158
-487.464	334.837	-0.037	-0.095
-486.449	-136.222	-0.222	0.034
-485.435	-166.238	-0.541	-0.030
-484.420	-200.000	-0.010	0.187
-483.405	303.221	-0.148	0.363
-482.391	-48.378	0.191	-0.121
-481.376	-0.031	-0.109	0.102
-480.362	517.643	-0.020	0.063
-479.347	468.761	0.090	0.267
-478.332	-200.000	0.002	-0.511
-477.318	661.646	-0.087	-0.298
-476.303	301.844	0.131	0.320
-475.289	-200.000	0.014	-0.097
-474.274	-32.693	-0.444	-0.324
-473.259	457.299	-0.133	0.391
-472.245	29.268	0.180	0.201
-471.230	-50.443	-0.320	-0.198
-470.216	-200.000	0.017	-0.342
-469.201	-87.757	0.474	0.187
-468.186	49.487	0.123	-0.153
-467.172	-101.139	0.346	0.111
-466.157	-200.000	-0.051	0.578
-465.143	-57.169	-0.245	0.141
-464.128	353.240	-0.155	-0.407
-463.113	-146.490	-0.195	-0.022
-462.099	-31.482	-0.591	0.435
-461.084	-147.271	0.055	-0.006
-460.070	318.844	0.108	-0.270
-459.055	252.959	0.064	0.145
-458.040	24.998	-0.288	0.314
-457.026	21.244	-0.147	0.156
-456.011	-18.581	0.456	0.373
-454.997	-142.737	0.281	0.036
-453.982	-8.908	0.061	0.054
-452.968	-94.875	-0.202	-0.071
-451.953	800.000	0.093	0.421
-450.938	-72.211	0.379	0.184
-449.924	-5.176	-0.371	0.335
-448.909	-23.415	-0.277	0.219
-447.895	-200.000	0.038	-0.262
-446.880	-70.678	0.224	-0.111
-445.865	-164.840	-0.164	0.010
-444.851	251.501	0.126	-0.284
-443.836	-200.000	-0.102	0.762
-442.822	-127.880	-0.337	-0.063
-441.807	102.569	0.145	-0.224
-440.792	-12.868	-0.314	0.268
-439.778	800.000	-0.062	0.275
-438.763	-12.989	-0.470	-0.401
-437.749	-98.533	-0.521	-0.174
-436.734	19.941	-0.381	-0.403
-435.719	-24.353	0.260	-0.204
-434.705	-2.970	-0.310	-0.284
-433.690	800.000	-0.075	-0.339
-432.676	-200.000	-0.014	0.398
-431.661	-47.403	0.358	-0.228
-430.646	619.028	0.070	0.231
-429.632	-59.612	0.087	-0.049
-428.617	-64.403	0.156	0.083
-427.603	-79.957	-0.580	-0.254
-426.588	-67.229	-0.509	-0.262
-425.573	-119.847	-0.269	-0.060
-424.559	20.671	-0.309	-0.328
-423.544	398.672	0.181	0.500
-422.530	-13.928	0.199	0.169
-421.515	-200.000	0.001	-0.032
-420.500	-84.541	0.333	0.137
-419.486	140.179	0.163	0.282
-418.471	157.478	0.200	0.364
-417.457	557.638	0.035	0.111
-416.442	-87.109	0.206	0.082
-415.428	658.785	-0.063	0.213
-414.413	-121.316	0.407	0.088
-413.398	-15.237	0.093	-0.078
-412.384	-178.730	0.263	0.008
-411.369	-37.634	0.137	0.096
-410.355	-149.897	0.338	-0.034
-409.340	94.312	0.282	-0.420
-408.325	103.678	-0.040	0.062
-407.311	-79.088	-0.299	-0.133
-406.296	513.127	0.236	0.726
-405.282	-200.000	-0.081	0.621
-404.267	259.353	-0.155	-0.352
-403.252	-55.130	0.201	-0.118
-402.238	322.508	0.130	0.325
-401.223	-87.593	0.288	0.113
-400.209	-200.000	0.016	-0.241
-399.194	601.995	-0.166	-0.543
-398.179	-80.289	0.137	-0.060
-397.165	20.693	0.060	0.064
-396.150	319.633	-0.069	-0.171
-395.136	800.000	-0.138	-0.524
-394.121	-96.258	0.171	0.059
-393.106	-84.547	-0.182	-0.075
-392.092	69.410	-0.132	0.179
-391.077	-105.486	0.139	-0.041
-390.063	7.212	-0.077	-0.075
-389.048	76.818	0.084	-0.117
-388.033	25.687	0.179	0.196
-387.019	-150.298	0.300	0.030
-386.004	55.760	0.217	-0.275
-384.990	-133.187	-0.183	-0.030
-383.975	17.151	-0.368	0.382
-382.960	-200.000	-0.009	-0.304
-381.946	15.899	0.108	-0.111
-380.931	-176.452	-0.247	-0.008
-379.917	143.819	-0.182	-0.319
-378.902	127.594	0.187	-0.312
-377.888	800.000	0.030	-0.111
-376.873	800.000	0.081	0.340
-375.858	-99.797	0.267	0.087
-374.844	511.824	0.133	-0.406
-373.829	800.000	-0.084	0.449
-372.815	-17.242	0.267	0.220
-371.800	-88.730	-0.750	0.290
-370.785	-95.228	0.240	0.084
-369.771	113.644	0.076	-0.120
-368.756	107.723	0.261	-0.408
-367.742	-200.000	0.050	-0.340
-366.727	292.052	0.202	0.483
-365.712	-111.458	0.542	-0.143
-364.698	101.647	-0.301	0.461
-363.683	800.000	-0.071	0.323
-362.669	31.960	0.148	-0.167
-361.654	-192.206	0.324	-0.004
-360.639	-175.772	0.201	-0.007
-359.625	-78.951	-0.212	0.094
-358.610	-123.693	0.603	-0.124
-357.596	-102.870	-0.157	0.049
-356.581	-136.823	0.484	0.072
-355.566	-200.000	-0.036	0.220
-354.552	17.762	0.121	-0.126
-353.537	-75.043	-0.447	-0.209
-352.523	301.260	-0.013	0.031
-351.508	-98.806	0.305	0.101
-350.493	800.000	-0.086	-0.312
-349.479	38.677	0.235	0.274
-348.464	-47.091	-0.411	-0.262
-347.450	-95.829	0.297	0.103
-346.435	-142.892	-0.561	0.070
-345.420	10.338	0.198	-0.197
-344.406	-144.768	0.090	-0.011
-343.391	-200.000	-0.041	-0.423
-342.377	-93.832	-0.296	0.106
-341.362	57.465	-0.460	-0.588
-340.348	-200.000	0.002	-0.461
-339.333	-113.865	0.462	0.117
-338.318	-200.000	-0.011	0.250
-337.304	90.771	0.079	-0.116
-336.289	-200.000	-0.563	-0.002
-335.275	-66.750	-0.155	-0.080
-334.260	268.490	0.131	-0.302
-333.245	800.000	-0.054	-0.216
-332.231	26.092	-0.315	-0.344
-331.216	-62.461	-0.280	-0.152
-330.202	415.001	-0.099	0.276
-329.187	-196.425	-0.625	-0.005
-328.172	-200.000	0.060	-0.480
-327.158	-66.509	-0.532	0.275
-326.143	180.001	0.264	-0.507
-325.129	800.000	0.081	-0.358
-324.114	168.050	-0.194	0.362
-323.099	62.356	0.229	-0.299
-322.085	10.487	-0.049	-0.049
-321.070	-21.947	-0.054	0.043
-320.056	116.653	0.184	0.295
-319.041	-62.344	-0.256	0.139
-318.026	49.240	0.190	0.233
-317.012	-147.711	-0.315	0.034
-315.997	-24.126	-0.500	0.389
-314.983	-32.756	-0.251	0.182
-313.968	-200.000	0.011	0.105
-312.953	-113.083	-0.216	-0.055
-311.939	-124.768	0.193	-0.039
-310.924	51.605	0.078	-0.096
-309.910	-138.608	0.410	0.058
-308.895	-100.960	0.103	0.033
-307.880	-37.925	-0.082	0.057
-306.866	-64.304	-0.092	-0.049
-305.851	188.013	-0.162	-0.317
-304.837	-68.000	-0.191	-0.097
-303.822	800.000	-0.074	-0.403
-302.807	-152.392	0.451	0.042
-301.793	44.990	-0.171	0.206
-300.778	-200.000	0.006	-0.458
-299.764	800.000	0.030	-0.170
-298.749	-200.000	-0.038	0.373
-297.735	-73.789	-0.068	0.032
-296.720	-183.681	0.188	-0.004
-295.705	-147.853	0.423	0.046
-294.691	-57.603	0.316	-0.180
-293.676	-91.344	0.429	-0.159
-292.662	343.524	0.054	0.140
-291.647	129.049	-0.155	-0.259
-290.632	329.632	0.092	-0.233
-289.618	-200.000	-0.032	0.332
-288.603	144.794	0.141	0.246
-287.589	122.767	-0.266	-0.435
-286.574	37.706	-0.059	0.068
-285.559	-133.645	0.302	-0.049
-284.545	-160.068	-0.522	0.037
-283.530	-95.116	-0.356	0.125
-282.516	117.290	-0.125	0.200
-281.501	-18.343	-0.146	0.119
-280.486	-32.523	-0.496	0.360
-279.472	-80.614	0.339	0.147
-278.457	-63.803	0.070	0.037
-277.443	-18.779	-0.271	-0.220
-276.428	-106.719	0.344	0.099
-275.413	-33.328	0.221	-0.159
-274.399	26.864	0.024	0.026
-273.384	-51.482	0.437	0.266
-272.370	-11.710	0.296	0.253
-271.355	-93.010	-0.543	0.196
-270.340	-42.513	-0.322	-0.213
-269.326	-12.927	-0.221	0.188
-268.311	800.000	-0.033	-0.160
-267.297	123.901	-0.176	0.289
-266.282	-53.352	0.348	-0.207
-265.267	-200.000	-0.023	0.304
-264.253	442.537	0.115	0.329
-263.238	95.749	0.124	-0.185
-262.224	379.694	0.278	-0.747
-261.209	-32.014	-0.344	-0.251
-260.195	131.896	-0.225	-0.379
-259.180	-104.046	0.206	-0.062
-258.165	-174.893	0.353	0.013
-257.151	-182.260	-0.677	0.016
-256.136	-200.000	0.036	-0.327
-255.122	-200.000	0.089	-0.532
-254.107	-20.555	-0.605	-0.484
-253.092	98.974	-0.109	0.165
-252.078	58.019	0.188	0.241
-251.063	80.618	-0.084	0.118
-250.049	-72.565	0.209	-0.100
-249.034	-70.460	0.393	-0.193
-248.019	-16.616	-0.460	0.379
-247.005	-160.719	-0.239	-0.016
-245.990	-159.246	0.536	-0.039
-244.976	-173.403	0.280	0.011
-243.961	708.915	-0.103	-0.355
-242.946	-19.378	0.078	-0.063
-241.932	45.514	-0.112	0.135
-240.917	-200.000	0.009	-0.112
-239.903	-162.342	0.281	-0.018
-238.888	5.305	-0.159	0.153
-237.873	228.882	-0.078	-0.166
-236.859	1.559	0.286	-0.268
-235.844	30.133	-0.287	0.319
-234.830	129.426	-0.036	0.059
-233.815	800.000	-0.140	0.531
-232.800	163.967	-0.095	0.175
-231.786	97.182	-0.116	-0.173
-230.771	-93.698	0.308	0.110
-229.757	135.614	-0.048	-0.081
-228.742	521.994	-0.100	-0.307
-227.727	800.000	0.161	0.699
-226.713	-65.154	-0.486	0.254
-225.698	309.839	0.103	-0.251
-224.684	-142.744	-0.115	0.014
-223.669	-28.081	0.369	-0.277
-222.655	-39.554	-0.356	0.242
-221.640	271.524	0.290	0.669
-220.625	800.000	-0.089	-0.373
-219.611	60.712	-0.185	0.238
-218.596	-80.125	-0.397	-0.172
-217.582	-56.712	-0.061	-0.035
-216.567	468.892	0.054	-0.159
-215.552	88.761	0.144	-0.209
-214.538	85.594	0.113	-0.161
-213.523	-200.000	0.022	-0.125
-212.509	-76.582	-0.322	0.146
-211.494	157.089	-0.086	-0.155
-210.479	-35.385	0.162	0.114
-209.465	-64.859	-0.307	-0.161
-208.450	160.216	0.129	-0.234
-207.436	135.625	0.215	-0.365
-206.421	486.981	0.077	0.231
-205.406	-109.939	0.618	-0.167
-204.392	-200.000	-0.069	0.454
-203.377	-200.000	0.009	-0.347
-202.363	-31.758	0.281	-0.205
-201.348	-200.000	0.037	0.299
-200.333	317.250	-0.017	-0.042
-199.319	-100.012	0.189	0.061
-198.304	-68.779	-0.280	-0.140
-197.290	24.036	0.325	-0.349
-196.275	800.000	-0.038	0.146
-195.260	-182.951	0.383	-0.009
-194.246	25.986	0.224	0.243
-193.231	300.141	-0.106	0.256
-192.217	-200.000	0.130	-0.000
-191.202	120.581	-0.233	-0.378
-190.187	22.448	-0.199	0.212
-189.173	-39.536	-0.456	0.310
-188.158	-126.887	0.148	0.028
-187.144	1.118	0.021	0.019
-186.129	800.000	0.036	0.135
-185.114	100.495	-0.079	-0.120
-184.100	-125.585	0.290	0.057
-183.085	800.000	-0.106	0.404
-182.071	-158.420	-0.417	-0.031
-181.056	-111.529	-0.137	-0.036
-180.042	56.146	0.025	0.032
-179.027	-118.487	-0.089	-0.020
-178.012	-37.599	-0.441	-0.305
-176.998	-42.199	-0.352	-0.233
-175.983	-200.000	-0.006	-0.252
-174.969	800.000	0.105	-0.589
-173.954	71.001	0.114	0.153
-172.939	128.899	-0.268	0.444
-171.925	109.384	-0.191	-0.297
-170.910	-157.462	-0.133	0.010
-169.896	-57.606	-0.393	-0.223
-168.881	-21.985	0.325	-0.256
-167.866	-55.772	-0.227	-0.132
-166.852	158.861	-0.029	0.053
-165.837	-64.037	0.422	-0.223
-164.823	49.738	0.164	0.201
-163.808	-200.000	0.000	-0.054
-162.793	-156.008	0.355	-0.029
-161.779	-132.382	0.179	-0.030
-160.764	54.152	0.155	0.194
-159.750	-128.715	0.569	-0.103
-158.735	-35.833	0.331	0.232
-157.720	-0.052	-0.094	-0.087
-156.706	-200.000	-0.092	0.573
-155.691	-81.594	-0.257	-0.109
-154.677	-119.605	-0.327	0.073
-153.662	-116.888	-0.355	-0.084
-152.647	-74.447	0.107	-0.050
-151.633	-129.142	-0.336	-0.060
-150.618	605.502	-0.080	0.261
-149.604	-200.000	-0.005	0.294
-148.589	151.697	0.063	0.111
-147.574	-130.327	0.295	0.052
-146.560	-62.752	-0.047	-0.025
-145.545	-143.979	-0.281	0.034
-144.531	135.444	-0.365	0.618
-143.516	107.670	0.038	-0.059
-142.502	88.781	0.402	0.582
-141.487	357.897	0.128	0.334
-140.472	-94.521	-0.392	0.138
-139.458	-2.985	0.356	0.322
-138.443	-101.869	0.183	-0.057
-137.429	-58.950	0.320	-0.179
-136.414	-44.608	0.114	-0.073
-135.399	-70.185	0.202	0.099
-134.385	466.770	0.178	-0.520
-133.370	-192.362	0.442	-0.005
-132.356	6.952	0.100	0.097
-131.341	-57.348	0.353	0.201
-130.326	-163.248	-0.433	0.027
-129.312	-52.010	0.531	-0.319
-128.297	-141.995	-0.383	-0.049
-127.283	-15.532	0.333	-0.275
-126.268	69.028	0.225	-0.301
-125.253	-60.332	-0.290	-0.160
-124.239	328.793	0.058	0.144
-123.224	-68.635	-0.230	0.115
-122.210	-75.451	0.229	0.105
-121.195	-16.773	0.203	0.166
-120.180	86.755	0.089	0.127
-119.166	-162.807	0.631	-0.039
-118.151	61.405	-0.056	-0.072
-117.137	580.593	-0.117	-0.374
-116.122	192.170	0.027	-0.053
-115.107	168.460	0.219	-0.406
-114.093	-165.963	0.287	0.016
-113.078	-115.763	-0.245	-0.059
-112.064	76.024	0.073	0.100
-111.049	-144.991	-0.476	-0.056
-110.034	-169.993	-0.438	-0.020
-109.020	-47.297	0.046	0.029
-108.005	-72.973	0.034	-0.016
-106.991	77.780	0.093	-0.129
-105.976	800.000	-0.034	-0.156
-104.962	-117.216	0.449	0.105
-103.947	-88.680	-0.221	-0.085
-102.932	-31.960	0.427	0.309
-101.918	-200.000	0.062	0.448
-100.903	51.642	-0.227	0.279
-99.889	-64.000	0.307	0.162
-98.874	-130.510	0.694	0.120
-97.859	-186.711	0.295	-0.005
-96.845	800.000	-0.025	-0.115
-95.830	-148.507	-0.305	0.032
-94.816	-56.757	-0.326	-0.186
-93.801	-200.000	0.009	-0.193
-92.786	653.548	-0.091	-0.305
-91.772	-5.164	0.533	0.474
-90.757	-38.121	0.315	0.216
-89.743	-200.000	-0.088	-0.514
-88.728	800.000	-0.041	-0.182
-87.713	-61.711	-0.413	-0.223
-86.699	-86.180	-0.190	-0.076
-85.684	-25.813	-0.459	0.350
-84.670	-103.294	-0.238	0.072
-83.655	-90.721	0.273	0.101
-82.640	114.160	0.142	-0.224
-81.626	6.021	-0.376	-0.361
-80.611	-93.532	0.129	0.046
-79.597	-134.849	-0.176	-0.027
-78.582	-145.171	0.149	-0.017
-77.567	39.452	0.302	0.350
-76.553	-200.000	-0.015	0.369
-75.538	-15.778	-0.712	0.586
-74.524	-200.000	0.021	0.194
-73.509	-159.923	0.448	-0.031
-72.494	387.082	-0.097	-0.260
-71.480	-200.000	0.010	-0.383
-70.465	5.018	0.126	0.120
-69.451	163.760	-0.189	0.346
-68.436	486.872	-0.062	0.184
-67.422	-68.535	-0.079	0.040
-66.407	-200.000	-0.016	0.367
-65.392	276.607	0.051	0.117
-64.378	218.141	0.073	0.151
-63.363	308.876	0.034	0.082
-62.349	322.347	-0.244	0.604
-61.334	32.161	-2.215	-2.472
-60.319	-35.299	1.670	1.173
-59.305	204.610	-3.751	-7.551
-58.290	57.594	3.823	4.838
-57.276	380.894	3.963	10.569
-56.261	-200.000	24.697	319.583
-55.246	351.835	1306.777	3363.150
-54.232	52.543	2848.309	3520.564
-53.217	51.039	2662.182	3267.083
-52.203	31.301	2390.939	2655.540
-51.188	27.518	2057.269	2238.246
-50.173	24.252	1943.720	2076.446
-49.159	23.173	1932.328	2051.624
-48.144	22.686	1927.969	2041.257
-47.130	22.674	1925.502	2038.424
-46.115	22.474	1924.709	2035.177
-45.100	22.567	1921.833	2033.131
-44.086	22.586	1920.073	2031.415
-43.071	22.624	1918.058	2029.638
-42.057	22.558	1917.069	2027.752
-41.042	22.576	1916.037	2026.788
-40.027	22.541	1914.688	2024.875
-39.013	22.540	1913.252	2023.266
-37.998	22.550	1911.284	2021.209
-36.984	22.486	1911.383	2020.506
-35.969	22.625	1908.525	2018.996
-34.954	22.506	1908.071	2017.072
-33.940	22.478	1907.206	2015.751
-32.925	22.463	1904.799	2012.954
-31.911	22.453	1903.997	2011.918
-30.896	22.525	1902.546	2011.130
-29.881	22.444	1901.553	2009.075
-28.867	22.472	1900.319	2008.010
-27.852	22.399	1899.087	2005.795
-26.838	22.377	1897.641	2003.928
-25.823	22.357	1896.061	2001.950
-24.809	22.358	1894.378	2000.113
-23.794	22.350	1893.472	1998.981
-22.779	22.346	1892.341	1997.661
-21.765	22.346	1890.988	1996.155
-20.750	22.407	1889.471	1995.165
-19.736	22.427	1887.702	1993.451
-18.721	22.399	1887.600	1992.942
-17.706	22.352	1886.182	1990.839
-16.692	22.276	1886.141	1989.847
-15.677	22.421	1883.704	1988.846
-14.663	22.266	1882.757	1986.001
-13.648	22.298	1881.614	1985.081
-12.633	22.281	1880.638	1983.782
-11.619	22.338	1878.931	1982.545
-10.604	22.228	1878.216	1980.473
-9.590	22.203	1876.398	1978.189
-8.575	22.274	1875.943	1978.440
-7.560	22.260	1874.463	1976.640
-6.546	22.191	1873.507	1974.775
-5.531	22.273	1871.454	1973.455
-4.517	22.315	1870.236	1972.569
-3.502	22.232	1869.883	1971.184
-2.487	22.287	1868.838	1970.622
-1.473	22.418	1864.251	1967.177
-0.458	22.155	1846.057	1944.979
0.556	18.683	1992.924	2045.910
1.571	17.224	2196.780	2235.632
2.586	18.026	2235.693	2285.756
3.600	17.911	2239.619	2287.946
4.615	17.946	2237.800	2286.280
5.629	18.003	2235.357	2284.273
6.644	17.996	2233.099	2281.609
7.659	18.085	2231.070	2280.452
8.673	17.940	2229.963	2277.101
9.688	17.764	2238.713	2283.400
10.702	16.872	2319.136	2352.704
11.717	15.083	2382.753	2391.291
12.731	6.963	2363.419	2255.568
13.746	0.828	2348.482	2153.443
14.761	0.093	2345.159	2139.636
15.775	0.090	2342.591	2136.996
16.790	0.125	2341.289	2136.043
17.804	0.167	2339.003	2134.313
18.819	-0.002	2339.439	2132.044
19.834	0.018	2337.516	2130.324
20.848	-0.022	2336.512	2128.578
21.863	-0.007	2333.918	2126.167
22.877	0.067	2331.352	2124.627
23.892	-0.026	2330.130	2121.939
24.907	0.032	2327.887	2120.463
25.921	-0.024	2325.836	2117.556
26.936	-0.066	2324.138	2115.161
27.950	-0.064	2321.838	2112.836
28.965	-0.092	2319.658	2110.210
29.980	0.034	2317.329	2109.610
30.994	0.103	2315.767	2108.911
32.009	3.759	2325.689	2169.351
33.023	12.408	2352.240	2316.874
34.038	16.042	2357.078	2372.869
35.053	16.135	2353.376	2370.171
36.067	15.855	2351.617	2364.169
37.082	15.849	2350.204	2362.375
38.096	16.103	2347.683	2363.144
39.111	16.298	2345.502	2363.406
40.126	16.443	2344.480	2364.138
41.140	16.540	2343.146	2363.870
42.155	16.535	2340.877	2361.226
43.169	16.685	2337.512	2359.654
44.184	16.411	2334.461	2352.461
45.199	16.258	2334.214	2349.784
46.213	16.404	2332.278	2349.597
47.228	16.424	2332.240	2349.556
48.242	16.590	2329.733	2349.057
49.257	16.639	2328.030	2347.742
50.271	16.654	2325.167	2344.789
51.286	16.419	2321.794	2337.838
52.301	16.198	2320.729	2333.422
53.315	16.934	2323.561	2346.221
54.330	19.715	2330.771	2391.957
55.344	21.482	2331.855	2417.345
56.359	21.764	2328.250	2417.231
57.374	21.859	2328.232	2418.245
58.388	21.917	2326.453	2416.908
59.403	21.636	2321.908	2408.017
60.417	21.484	2317.934	2401.511
61.432	21.528	2317.198	2401.066
62.447	21.685	2316.621	2402.349
63.461	21.986	2314.482	2403.979
64.476	22.116	2312.875	2403.816
65.490	21.710	2310.932	2395.926
66.505	20.916	2305.564	2379.176
67.520	18.836	2297.844	2342.458
68.534	16.637	2290.545	2304.665
69.549	16.012	2285.664	2290.946
70.563	16.141	2282.499	2289.258
71.578	16.060	2281.249	2286.623
72.593	16.132	2280.669	2286.747
73.607	16.372	2277.524	2286.584
74.622	16.372	2275.959	2284.749
75.636	16.173	2273.092	2278.895
76.651	16.218	2270.993	2277.119
77.666	16.035	2269.909	2273.281
78.680	15.986	2267.391	2269.828
79.695	16.068	2264.079	2267.345
80.709	15.878	2262.899	2263.330
81.724	15.811	2261.699	2260.952
82.739	15.773	2258.855	2257.323
83.753	15.809	2256.540	2255.220
84.768	15.709	2254.333	2251.405
85.782	15.744	2253.345	2250.624
86.797	15.647	2252.002	2247.710
87.812	15.564	2250.042	2244.361
88.826	15.858	2247.535	2245.538
89.841	15.891	2245.157	2243.341
90.855	15.793	2243.269	2239.867
91.870	15.904	2241.925	2239.738
92.884	15.920	2240.080	2237.841
93.899	15.943	2239.816	2237.619
94.914	16.592	2242.170	2248.376
95.928	19.131	2249.544	2289.484
96.943	19.974	2247.306	2298.186
97.957	17.407	2237.125	2253.373
98.972	15.841	2231.652	2226.775
99.987	15.751	2226.688	2220.360
101.001	15.830	2224.841	2219.300
102.016	15.904	2223.009	2218.191
103.030	15.689	2220.576	2212.655
104.045	15.733	2219.093	2211.495
105.060	15.845	2216.627	2210.240
106.074	15.917	2214.710	2209.017
107.089	15.864	2212.836	2206.192
108.103	15.836	2212.486	2205.199
109.118	15.809	2211.389	2203.489
110.133	16.082	2209.459	2204.892
111.147	15.956	2206.881	2200.405
112.162	15.869	2205.172	2197.301
113.176	16.114	2203.144	2198.222
114.191	16.055	2202.686	2196.728
115.206	16.131	2200.596	2195.372
116.220	16.024	2197.962	2191.086
117.235	16.042	2196.501	2189.610
118.249	16.070	2193.719	2186.930
119.264	16.017	2193.338	2185.600
120.279	15.962	2191.245	2182.533
121.293	16.022	2189.437	2181.250
122.308	15.966	2188.301	2179.141
123.322	15.941	2186.240	2176.493
124.337	16.487	2187.780	2184.869
125.352	19.180	2196.581	2228.466
126.366	19.858	2193.878	2234.266
127.381	17.169	2183.165	2188.306
128.395	16.109	2178.375	2169.536
129.410	15.956	2175.635	2164.580
130.424	15.827	2174.394	2161.417
131.439	15.949	2172.104	2160.462
132.454	16.065	2171.369	2160.962
133.468	16.256	2168.656	2160.462
134.483	16.286	2167.713	2159.646
135.497	16.384	2166.468	2159.403
136.512	16.219	2163.163	2153.744
137.527	16.112	2162.518	2151.464
138.541	15.903	2160.000	2146.029
139.556	15.977	2158.492	2145.226
140.570	15.925	2157.782	2143.592
141.585	15.869	2155.342	2140.197
142.600	15.810	2153.905	2137.763
143.614	15.844	2152.564	2136.611
144.629	15.795	2150.244	2133.424
145.643	15.604	2148.970	2129.470
146.658	15.742	2146.171	2128.203
147.673	15.682	2143.655	2124.681
148.687	15.800	2143.142	2125.422
149.702	15.978	2143.660	2127.943
150.716	16.066	2141.941	2127.098
151.731	15.952	2140.816	2124.273
152.746	16.008	2139.864	2123.788
153.760	16.787	2143.086	2136.611
154.775	19.462	2150.706	2177.939
155.789	20.222	2148.526	2185.094
156.804	17.531	2137.216	2139.390
157.819	16.024	2131.155	2114.082
158.833	15.870	2127.225	2107.988
159.848	15.903	2124.815	2105.772
160.862	15.918	2124.711	2105.603
161.877	16.111	2122.581	2105.659
162.892	15.964	2122.753	2103.733
163.906	16.070	2120.574	2102.644
164.921	16.084	2118.957	2100.972
165.935	16.139	2116.957	2099.418
166.950	16.203	2116.605	2099.626
167.964	16.014	2113.854	2094.286
168.979	15.784	2111.940	2089.266
169.994	15.850	2109.049	2086.981
171.008	15.828	2107.734	2085.150
172.023	15.816	2106.526	2083.556
173.037	15.838	2105.779	2082.845
174.052	16.017	2104.118	2083.182
175.067	15.945	2102.434	2080.366
176.081	15.823	2100.626	2076.821
177.096	15.886	2099.454	2076.185
178.110	15.879	2098.295	2074.709
179.125	16.067	2097.516	2076.019
180.140	15.996	2096.011	2073.401
181.154	16.084	2094.735	2072.977
182.169	16.098	2094.516	2072.688
183.183	16.970	2096.226	2084.913
184.198	19.818	2103.274	2126.922
185.213	20.435	2100.677	2131.656
186.227	17.520	2091.161	2085.899
187.242	16.238	2086.193	2064.931
188.256	16.171	2084.136	2061.826
189.271	15.918	2083.152	2057.504
190.286	15.841	2081.822	2054.993
191.300	15.857	2079.703	2052.854
192.315	15.893	2078.223	2051.587
193.329	16.113	2076.883	2052.710
194.344	16.386	2075.648	2054.579
195.359	16.421	2074.641	2053.768
196.373	16.191	2072.094	2048.195
197.388	15.966	2069.701	2042.842
198.402	15.855	2066.887	2038.469
199.417	15.786	2063.949	2034.495
200.432	15.958	2062.139	2034.550
201.446	15.873	2061.898	2033.042
202.461	15.817	2060.784	2031.015
203.475	15.729	2059.350	2028.298
204.490	15.866	2056.120	2026.524
205.504	15.863	2054.053	2024.205
206.519	15.781	2052.863	2021.801
207.534	16.000	2050.675	2022.045
208.548	15.793	2049.945	2018.594
209.563	15.911	2048.480	2018.331
210.577	16.071	2046.892	2018.450
211.592	16.190	2046.348	2019.105
212.607	17.421	2052.532	2039.800
213.621	20.701	2058.850	2085.412
214.636	20.066	2052.966	2071.577
215.650	16.819	2044.258	2023.623
216.665	16.131	2040.064	2010.990
217.680	16.108	2038.138	2008.580
218.694	15.991	2035.178	2004.023
219.709	15.865	2034.838	2001.935
220.723	15.938	2034.020	2001.770
221.738	16.169	2031.988	2002.282
222.753	16.205	2029.379	1999.898
223.767	16.117	2028.920	1998.159
224.782	16.117	2026.238	1995.285
225.796	16.084	2025.514	1993.939
226.811	16.152	2023.965	1992.980
227.826	16.077	2022.787	1990.692
228.840	15.911	2020.633	1986.361
229.855	15.945	2019.225	1985.146
230.869	16.002	2018.002	1984.382
231.884	15.929	2016.327	1981.637
232.899	15.988	2014.092	1979.903
233.913	16.020	2013.501	1979.452
234.928	16.015	2012.415	1978.091
235.942	15.891	2010.963	1974.970
236.957	15.954	2008.931	1973.480
237.972	15.992	2007.026	1971.813
238.986	15.925	2006.194	1969.979
240.001	15.904	2004.769	1968.093
241.015	16.028	2004.553	1969.106
242.030	16.697	2007.475	1979.606
243.045	19.505	2012.244	2017.095
244.059	19.747	2009.207	2016.656
245.074	17.184	1999.348	1976.578
246.088	16.179	1996.069	1961.356
247.103	16.376	1993.598	1961.002
248.117	16.332	1993.483	1960.135
249.132	16.072	1990.972	1954.397
250.147	16.056	1988.478	1951.536
251.161	15.979	1987.137	1949.083
252.176	16.122	1987.166	1950.547
253.190	16.429	1985.851	1952.585
254.205	16.582	1983.566	1951.886
255.220	16.490	1982.371	1949.409
256.234	16.345	1981.333	1946.474
257.249	16.194	1979.068	1942.264
258.263	16.076	1978.350	1939.960
259.278	16.302	1976.863	1940.892
260.293	16.120	1974.355	1936.096
261.307	15.920	1972.174	1931.414
262.322	15.914	1970.584	1929.561
263.336	15.839	1969.491	1927.398
264.351	15.672	1967.823	1923.606
265.366	15.728	1965.999	1922.243
266.380	15.750	1965.348	1921.629
267.395	15.742	1963.779	1919.766
268.409	15.747	1962.287	1918.143
269.424	15.810	1961.458	1917.819
270.439	15.913	1960.791	1918.116
271.453	16.939	1962.965	1931.773
272.468	19.852	1968.383	1970.261
273.482	19.897	1964.928	1967.083
274.497	17.087	1955.606	1925.523
275.512	15.965	1950.938	1907.932
276.526	15.943	1948.588	1905.157
277.541	15.752	1946.498	1900.713
278.555	15.660	1945.074	1898.050
279.570	15.719	1942.888	1896.354
280.585	15.697	1942.236	1895.247
281.599	15.835	1941.161	1895.529
282.614	16.053	1940.499	1897.127
283.628	16.317	1939.764	1899.169
284.643	16.508	1939.008	1900.358
285.657	16.622	1938.308	1900.725
286.672	16.727	1936.257	1899.671
287.687	16.577	1934.455	1895.983
288.701	16.458	1933.172	1893.165
289.716	16.363	1931.980	1890.707
290.730	16.385	1930.321	1889.094
291.745	16.595	1928.532	1889.485
292.760	16.652	1927.760	1889.137
293.774	16.293	1927.067	1884.202
294.789	16.156	1925.875	1881.283
295.803	16.078	1922.569	1876.953
296.818	16.061	1921.713	1875.703
297.833	16.145	1920.440	1875.169
298.847	16.216	1918.900	1874.232
299.862	16.053	1917.696	1871.013
300.876	16.913	1919.350	1882.009
301.891	19.918	1925.012	1920.901
302.906	20.356	1921.867	1922.409
303.920	17.394	1914.069	1881.497
304.935	16.315	1910.556	1865.851
305.949	16.224	1907.495	1861.619
306.964	16.104	1905.556	1858.177
307.979	16.341	1904.659	1859.703
308.993	16.438	1904.392	1860.299
310.008	16.768	1903.070	1862.434
311.022	16.858	1901.801	1861.964
312.037	16.614	1899.916	1857.202
313.052	16.622	1898.264	1855.449
314.066	16.661	1896.917	1854.335
315.081	16.736	1895.944	1853.991
316.095	16.663	1894.464	1851.520
317.110	16.394	1892.382	1846.312
318.125	16.259	1891.209	1843.464
319.139	16.140	1890.086	1840.842
320.154	16.394	1887.655	1841.034
321.168	16.383	1886.233	1839.313
322.183	16.093	1885.051	1834.765
323.197	15.826	1883.971	1830.572
324.212	15.669	1881.511	1826.252
325.227	15.654	1879.417	1823.836
326.241	15.711	1877.697	1822.570
327.256	15.834	1876.825	1822.846
328.270	15.698	1876.544	1820.877
329.285	15.793	1875.449	1820.624
330.300	17.090	1879.691	1838.650
331.314	20.148	1885.829	1877.783
332.329	19.979	1880.393	1870.315
333.343	16.962	1871.074	1828.179
334.358	15.830	1868.174	1812.875
335.373	15.622	1866.035	1808.335
336.387	15.634	1864.023	1806.297
337.402	15.805	1861.857	1805.831
338.416	15.829	1860.885	1804.930
339.431	15.931	1859.588	1804.555
340.446	15.856	1858.976	1802.937
341.460	16.083	1857.875	1804.092
342.475	16.442	1856.663	1806.558
343.489	16.525	1855.312	1805.920
344.504	16.444	1854.517	1804.065
345.519	16.466	1853.349	1802.947
346.533	16.769	1851.009	1803.698
347.548	16.794	1850.757	1803.506
348.562	16.582	1849.003	1799.310
349.577	16.655	1848.238	1799.125
350.592	16.850	1847.041	1799.827
351.606	16.798	1846.230	1798.267
352.621	16.921	1843.579	1796.782
353.635	16.543	1842.336	1791.329
354.650	16.405	1840.497	1787.868
355.665	16.334	1838.777	1785.226
356.679	16.173	1837.284	1781.853
357.694	16.149	1835.939	1780.083
358.708	16.016	1835.039	1777.584
359.723	17.377	1839.146	1795.801
360.738	20.333	1843.233	1830.969
361.752	19.572	1838.152	1817.648
362.767	16.988	1830.683	1782.783
363.781	16.197	1827.942	1771.561
364.796	16.066	1825.957	1768.043
365.810	15.828	1825.390	1764.778
366.825	15.938	1824.469	1764.827
367.840	16.282	1823.470	1767.273
368.854	16.399	1821.853	1766.727
369.869	16.198	1820.994	1763.568
370.883	16.045	1818.440	1759.279
371.898	16.037	1817.072	1757.664
372.913	15.984	1816.285	1756.134
373.927	16.089	1815.695	1756.454
374.942	16.323	1814.423	1757.456
375.956	16.395	1812.166	1755.820
376.971	16.281	1810.707	1753.004
377.986	16.134	1809.226	1749.829
379.000	16.066	1807.086	1746.833
380.015	16.165	1805.381	1746.016
381.029	16.134	1803.711	1743.863
382.044	15.882	1801.614	1739.013
383.059	15.783	1800.290	1736.496
384.073	15.902	1799.498	1736.761
385.088	15.909	1798.232	1735.403
386.102	15.897	1796.064	1732.985
387.117	15.898	1794.429	1731.210
388.132	15.898	1793.886	1730.474
389.146	16.930	1799.134	1746.017
390.161	20.060	1804.592	1783.538
391.175	19.893	1797.321	1774.423
392.190	17.019	1788.036	1735.534
393.205	16.120	1785.365	1723.504
394.219	15.998	1783.773	1720.506
395.234	15.933	1782.182	1718.101
396.248	15.958	1780.825	1716.844
397.263	15.954	1778.005	1713.882
398.278	15.984	1776.915	1712.931
399.292	15.947	1776.317	1711.772
400.307	15.953	1776.068	1711.387
401.321	16.094	1774.295	1710.907
402.336	16.200	1773.329	1710.857
403.350	16.288	1772.030	1710.292
404.365	16.383	1770.395	1709.483
405.380	16.598	1770.565	1711.626
406.394	16.608	1769.385	1710.378
407.409	16.694	1767.884	1709.601
408.423	16.762	1766.624	1708.863
409.438	16.607	1764.844	1705.370
410.453	16.432	1764.142	1702.708
411.467	16.596	1762.962	1703.031
412.482	16.373	1761.315	1698.976
413.496	16.180	1759.131	1694.718
414.511	16.252	1756.655	1692.856
415.526	16.189	1753.732	1689.209
416.540	15.928	1753.444	1686.100
417.555	16.205	1752.703	1687.967
418.569	16.305	1753.640	1689.678
419.584	16.434	1752.703	1689.866
420.599	16.243	1752.694	1687.735
421.613	16.074	1752.017	1685.183
422.628	16.226	1750.048	1684.614
423.642	16.108	1748.412	1681.660
424.657	16.161	1746.971	1680.596
425.672	16.328	1744.932	1680.104
426.686	16.347	1743.045	1678.276
427.701	16.274	1741.921	1676.266
428.715	16.447	1741.131	1677.029
429.730	16.640	1740.624	1678.272
430.745	16.577	1739.034	1675.905
431.759	16.622	1738.595	1675.728
432.774	17.044	1739.289	1680.395
433.788	17.531	1739.438	1685.186
434.803	17.870	1739.415	1688.336
435.818	17.670	1738.660	1685.409
436.832	17.513	1736.688	1681.742
437.847	16.514	1729.601	1664.790
438.861	8.895	1709.728	1570.686
439.876	1.414	1696.372	1484.922
440.890	0.185	1693.242	1469.949
441.905	0.102	1692.204	1468.059
442.920	0.117	1690.298	1466.376
443.934	0.074	1688.892	1464.561
444.949	0.069	1687.943	1463.514
445.963	0.040	1687.408	1462.595
446.978	0.079	1686.600	1462.095
447.993	0.102	1684.484	1460.314
449.007	0.047	1683.201	1458.488
450.022	0.092	1680.913	1456.766
451.036	0.155	1679.062	1455.599
452.051	1.162	1683.507	1469.091
453.066	8.521	1700.180	1555.641
454.080	15.870	1710.994	1637.434
455.095	17.240	1713.759	1653.296
456.109	17.648	1713.400	1656.734
457.124	17.730	1712.625	1656.587
458.139	17.872	1711.363	1656.553
459.153	17.932	1710.898	1656.495
460.168	17.907	1709.315	1654.518
461.182	17.792	1707.597	1651.536
462.197	17.776	1705.966	1649.607
463.212	17.642	1704.378	1646.574
464.226	17.782	1703.314	1646.704
465.241	17.725	1702.731	1645.392
466.255	17.988	1701.392	1646.446
467.270	17.931	1699.662	1644.026
468.285	17.932	1697.315	1641.572
469.299	17.675	1697.077	1638.655
470.314	17.943	1694.925	1638.973
471.328	17.871	1693.825	1637.016
472.343	17.792	1693.154	1635.412
473.358	17.761	1692.333	1634.123
474.372	17.956	1690.346	1633.889
475.387	17.857	1688.373	1630.832
476.401	17.800	1687.224	1628.980
477.416	17.890	1685.978	1628.449
478.430	17.978	1684.754	1627.915
479.445	17.635	1684.188	1623.888
480.460	17.729	1682.266	1622.732
481.474	17.784	1682.244	1623.050
482.489	17.784	1680.975	1621.633
483.503	17.899	1679.399	1621.014
484.518	17.936	1677.681	1619.514
485.533	18.004	1675.764	1618.117
486.547	17.909	1674.984	1616.262
487.562	18.164	1673.984	1617.534
488.576	18.302	1672.249	1616.972
489.591	18.138	1670.923	1613.940
490.606	18.105	1669.991	1612.533
491.620	17.997	1667.695	1609.105
492.635	18.129	1666.414	1608.923
493.649	18.116	1666.577	1608.758
494.664	17.973	1664.500	1605.218
495.679	17.722	1663.311	1601.509
496.693	17.753	1661.976	1600.321
497.708	17.953	1660.628	1600.719
498.722	18.094	1660.056	1601.298
499.737	18.142	1659.105	1600.640
500.752	17.967	1656.805	1596.590
501.766	17.840	1655.489	1593.933
502.781	17.929	1653.740	1592.901
503.795	18.029	1651.515	1591.500
504.810	18.030	1650.774	1590.601
505.825	18.007	1651.177	1590.585
506.839	18.188	1648.985	1589.976
507.854	18.241	1647.672	1589.016
508.868	18.089	1646.592	1586.366
509.883	18.079	1645.945	1585.457
510.898	18.174	1644.921	1585.167
511.912	18.046	1643.444	1582.366
512.927	18.149	1640.432	1580.230
513.941	18.081	1639.253	1578.271
514.956	18.043	1637.784	1576.316
515.971	18.003	1636.791	1574.803
516.985	18.004	1636.574	1574.418
518.000	17.969	1636.728	1574.055
519.014	18.121	1635.077	1573.685
520.029	18.239	1633.697	1573.253
521.043	18.085	1632.658	1570.649
522.058	18.136	1631.017	1569.347
523.073	18.158	1630.512	1568.872
524.087	18.195	1629.305	1567.866
525.102	18.257	1627.565	1566.582
526.116	18.207	1625.245	1563.699
527.131	18.112	1625.334	1562.720
528.146	18.286	1624.319	1563.153
529.160	18.198	1623.678	1561.546
530.175	18.346	1622.217	1561.307
531.189	18.289	1621.394	1559.808
532.204	18.259	1619.689	1557.706
533.219	18.327	1617.980	1556.498
534.233	17.952	1617.398	1552.331
535.248	18.239	1616.568	1553.967
536.262	18.354	1616.356	1554.621
537.277	18.316	1614.191	1552.015
538.292	18.259	1612.323	1549.514
539.306	18.112	1610.773	1546.494
540.321	18.160	1609.266	1545.303
541.335	18.237	1607.884	1544.493
542.350	18.410	1606.705	1544.736
543.365	18.346	1605.675	1542.987
544.379	18.313	1604.166	1541.048
545.394	18.414	1603.228	1540.881
546.408	18.242	1601.531	1537.507
547.423	17.983	1600.071	1533.588
548.438	18.089	1598.591	1532.942
549.452	18.275	1598.103	1533.962
550.467	18.215	1597.046	1532.224
551.481	18.313	1595.791	1531.718
552.496	18.375	1595.452	1531.772
553.511	18.402	1594.453	1530.873
554.525	18.462	1592.897	1529.733
555.540	18.445	1592.799	1529.299
556.554	18.552	1591.556	1528.884
557.569	18.491	1589.188	1525.883
558.583	18.376	1587.386	1522.936
559.598	18.419	1586.300	1522.103
560.613	18.388	1585.949	1521.299
561.627	18.339	1585.184	1519.951
562.642	18.378	1583.663	1518.660
563.656	18.584	1582.688	1519.375
564.671	18.389	1581.208	1516.039
565.686	18.515	1580.037	1515.855
566.700	18.404	1578.433	1513.150
567.715	18.308	1576.869	1510.613
568.729	18.205	1575.008	1507.737
569.744	18.101	1573.024	1504.742
570.759	18.229	1571.694	1504.415
571.773	18.156	1571.377	1503.290
572.788	18.427	1570.463	1504.626
573.802	18.293	1569.184	1502.043
574.817	18.514	1567.392	1502.096
575.832	18.582	1567.070	1502.203
576.846	18.682	1565.448	1501.353
577.861	18.384	1564.750	1497.884
578.875	18.483	1564.323	1498.166
579.890	18.681	1562.566	1498.035
580.905	18.725	1562.008	1497.710
581.919	18.735	1561.720	1497.344
582.934	18.778	1560.227	1496.109
583.948	18.805	1558.901	1494.895
584.963	18.695	1557.834	1492.729
585.978	18.646	1556.384	1490.728
586.992	18.645	1555.632	1489.828
588.007	18.777	1555.053	1490.243
589.021	18.531	1553.035	1485.989
590.036	18.263	1551.593	1482.099
591.051	18.219	1551.331	1481.287
592.065	18.564	1549.344	1482.212
593.080	18.648	1547.392	1480.893
594.094	18.680	1545.451	1479.134
595.109	18.416	1544.028	1475.309
596.123	18.262	1543.359	1473.163
597.138	18.407	1542.366	1473.298
598.153	18.672	1541.092	1474.191
599.167	18.687	1539.679	1472.794
600.182	18.596	1539.462	1471.618
601.196	18.539	1539.333	1470.835
602.211	18.716	1537.225	1470.161
603.226	18.652	1536.548	1468.788
604.240	18.843	1534.827	1468.613
605.255	18.896	1533.501	1467.622
606.269	18.873	1532.126	1465.934
607.284	18.666	1531.816	1463.689
608.299	18.721	1530.020	1462.262
609.313	18.670	1528.745	1460.440
610.328	18.770	1527.839	1460.254
611.342	18.827	1526.838	1459.603
612.357	18.957	1525.371	1459.138
613.372	18.888	1524.182	1457.239
614.386	18.797	1523.111	1455.262
615.401	18.746	1522.957	1454.513
616.415	18.964	1521.159	1454.474
617.430	18.956	1521.095	1454.170
618.445	18.882	1520.104	1452.414
619.459	18.889	1518.054	1450.346
620.474	18.688	1516.557	1447.035
621.488	18.455	1515.177	1443.570
622.503	18.168	1514.491	1440.319
623.518	18.373	1514.672	1442.054
624.532	18.757	1512.736	1443.279
625.547	18.775	1511.780	1442.353
626.561	18.974	1511.373	1443.471
627.576	19.006	1510.157	1442.407
628.591	18.583	1508.324	1436.916
629.605	18.527	1506.361	1434.403
630.620	18.567	1504.348	1432.652
631.634	18.367	1503.580	1430.074
632.649	18.372	1503.459	1429.828
633.663	18.640	1502.201	1430.708
634.678	18.797	1501.118	1430.815
635.693	18.970	1500.140	1431.163
636.707	19.170	1498.397	1430.998
637.722	19.174	1497.654	1430.153
638.736	19.099	1496.914	1428.648
639.751	18.970	1496.193	1426.710
640.766	18.972	1494.356	1424.803
641.780	19.041	1493.154	1424.065
642.795	18.990	1492.063	1422.426
643.809	19.018	1491.838	1422.279
644.824	18.992	1491.075	1421.162
645.839	19.000	1490.069	1420.104
646.853	19.034	1488.314	1418.537
647.868	19.033	1486.878	1416.997
648.882	19.000	1485.743	1415.473
649.897	18.859	1484.236	1412.703
650.912	19.008	1483.000	1412.586
651.926	18.981	1481.950	1411.189
652.941	18.775	1480.994	1408.418
653.955	18.677	1478.879	1405.431
654.970	18.505	1477.271	1402.316
655.985	18.572	1476.104	1401.593
656.999	18.717	1474.669	1401.249
658.014	18.801	1472.944	1400.131
659.028	18.783	1472.506	1399.402
660.043	18.886	1472.929	1400.484
661.058	18.986	1470.883	1399.187
662.072	18.921	1470.618	1398.237
663.087	19.044	1468.789	1397.330
664.101	18.922	1468.202	1395.612
665.116	19.104	1467.489	1396.247
666.131	19.151	1465.802	1394.865
667.145	19.138	1464.857	1393.688
668.160	19.247	1463.760	1393.364
669.174	19.326	1462.260	1392.413
670.189	19.171	1461.716	1390.467
671.204	18.969	1461.055	1388.032
672.218	19.106	1460.231	1388.194
673.233	19.090	1458.865	1386.597
674.247	19.273	1457.382	1386.504
675.262	19.173	1456.933	1385.103
676.276	19.215	1455.771	1384.170
677.291	19.167	1454.222	1382.150
678.306	19.139	1452.853	1380.453
679.320	19.160	1451.869	1379.522
680.335	19.170	1451.857	1379.432
681.349	19.228	1450.717	1378.649
682.364	19.101	1449.709	1376.505
683.379	19.176	1448.494	1375.785
684.393	18.984	1447.484	1373.119
685.408	19.467	1445.704	1375.136
686.422	19.203	1444.434	1371.654
687.437	19.319	1443.955	1371.960
688.452	19.220	1443.838	1370.898
689.466	19.152	1442.387	1368.807
690.481	19.049	1440.723	1366.247
691.495	18.909	1439.753	1364.045
692.510	18.670	1437.615	1359.949
693.525	18.555	1435.550	1356.921
694.539	18.727	1435.647	1358.220
695.554	18.940	1435.939	1360.026
696.568	19.216	1434.726	1360.907
697.583	19.324	1433.835	1360.754
698.598	19.204	1433.015	1358.866
699.612	19.376	1431.700	1358.818
700.627	19.380	1430.704	1357.741
701.641	19.368	1429.433	1356.280
702.656	19.412	1428.141	1355.238
703.671	19.536	1427.569	1355.512
704.685	19.525	1427.008	1354.725
705.700	19.364	1425.177	1351.563
706.714	19.301	1423.950	1349.737
707.729	19.253	1422.171	1347.515
708.744	19.166	1421.288	1345.829
709.758	19.145	1420.115	1344.393
710.773	18.885	1418.660	1340.814
711.787	18.904	1417.139	1339.370
712.802	18.940	1416.931	1339.291
713.816	19.017	1416.013	1338.871
714.831	19.311	1414.788	1339.845
715.846	19.359	1413.641	1338.972
716.860	19.432	1411.995	1337.822
717.875	19.387	1411.380	1336.727
718.889	19.348	1410.727	1335.652
719.904	19.473	1409.344	1335.150
720.919	19.340	1408.661	1333.312
721.933	19.493	1408.102	1333.812
722.948	19.663	1407.009	1333.938
723.962	19.467	1405.644	1330.958
724.977	19.655	1404.777	1331.440
725.992	19.577	1404.113	1330.048
727.006	19.458	1402.759	1327.682
728.021	19.493	1401.468	1326.570
729.035	19.647	1399.449	1325.691
730.050	19.615	1398.697	1324.570
731.065	19.514	1397.981	1322.956
732.079	19.476	1397.072	1321.648
733.094	19.506	1395.629	1320.357
734.108	19.390	1393.817	1317.592
735.123	19.604	1391.699	1317.069
736.138	19.503	1392.284	1316.696
737.152	19.552	1391.485	1316.154
738.167	19.545	1390.566	1315.074
739.181	19.561	1389.135	1313.688
740.196	19.682	1388.503	1313.856
741.211	19.639	1387.756	1312.666
742.225	19.552	1386.616	1310.767
743.240	19.569	1385.529	1309.708
744.254	19.503	1383.668	1307.292
745.269	19.628	1382.585	1307.066
746.284	19.607	1381.531	1305.751
747.298	19.535	1380.445	1304.019
748.313	19.216	1379.644	1300.687
749.327	18.738	1378.499	1295.829
750.342	18.775	1377.123	1294.659
751.356	18.583	1375.683	1291.698
752.371	18.907	1374.609	1292.984
753.386	19.304	1373.963	1295.219
754.400	19.474	1373.937	1296.329
755.415	19.597	1373.071	1296.281
756.429	19.579	1372.444	1295.400
757.444	19.573	1371.155	1293.978
758.459	19.633	1370.271	1293.441
759.473	19.721	1369.380	1293.111
760.488	19.799	1367.983	1292.221
761.502	19.783	1366.642	1290.681
762.517	19.609	1365.221	1287.880
763.532	19.610	1363.844	1286.437
764.546	19.390	1362.037	1282.935
765.561	19.293	1360.390	1280.504
766.575	18.936	1360.393	1277.688
767.590	18.947	1359.064	1276.365
768.605	19.297	1357.474	1277.325
769.619	19.358	1357.465	1277.624
770.634	19.509	1356.685	1277.854
771.648	19.585	1356.402	1278.006
772.663	19.643	1355.426	1277.359
773.678	19.759	1354.560	1277.257
774.692	19.705	1353.886	1276.065
775.707	19.836	1353.206	1276.245
776.721	19.751	1352.352	1274.655
777.736	19.882	1350.882	1274.085
778.751	19.777	1349.876	1272.212
779.765	19.646	1349.351	1270.594
780.780	19.683	1348.332	1269.751
781.794	19.633	1347.389	1268.348
782.809	19.514	1346.321	1266.311
783.824	19.632	1344.649	1265.452
784.838	19.344	1342.926	1261.568
785.853	18.826	1342.064	1256.797
786.867	18.969	1340.975	1256.677
787.882	19.178	1340.525	1257.642
788.897	19.259	1340.545	1258.100
789.911	19.427	1339.610	1258.306
790.926	19.537	1338.426	1257.851
791.940	19.677	1336.493	1256.906
792.955	19.633	1335.465	1255.469
793.969	19.473	1335.045	1253.751
794.984	19.572	1334.419	1253.734
795.999	19.822	1333.263	1254.324
797.013	19.835	1330.908	1252.052
798.028	19.604	1329.994	1249.363
799.042	19.841	1329.894	1250.843
800.057	19.894	1328.562	1249.821
801.072	19.884	1327.127	1248.255
802.086	19.793	1326.028	1246.412
803.101	19.833	1325.455	1246.013
804.115	19.864	1324.104	1244.816
805.130	19.860	1323.227	1243.815
806.145	19.901	1322.136	1242.934
807.159	19.852	1320.866	1241.241
808.174	19.781	1318.921	1238.749
809.188	19.744	1318.104	1237.573
810.203	19.589	1316.022	1234.354
811.218	19.285	1314.113	1230.235
812.232	19.248	1312.586	1228.392
813.247	19.223	1311.608	1227.153
814.261	19.404	1311.779	1228.459
815.276	19.546	1311.510	1229.074
816.291	19.726	1310.502	1229.270
817.305	19.886	1309.576	1229.397
818.320	19.826	1308.540	1227.851
819.334	19.993	1307.017	1227.469
820.349	19.950	1305.738	1225.812
821.364	19.957	1304.074	1224.154
822.378	19.998	1303.297	1223.567
823.393	19.736	1301.527	1219.900
824.407	19.982	1300.059	1220.125
825.422	19.962	1299.955	1219.736
826.437	19.728	1298.783	1216.833
827.451	19.810	1296.537	1215.163
828.466	19.166	1295.365	1209.375
829.480	18.977	1293.643	1206.294
830.495	19.195	1291.956	1206.109
831.509	19.374	1291.234	1206.551
832.524	19.610	1290.442	1207.324
833.539	19.621	1289.779	1206.632
834.553	19.905	1288.115	1206.925
835.568	19.936	1287.175	1206.119
836.582	19.965	1286.813	1205.836
837.597	19.988	1285.686	1204.799
838.612	19.954	1284.309	1203.128
839.626	19.720	1282.960	1200.087
840.641	19.655	1281.774	1198.376
841.655	19.436	1281.297	1196.264
842.670	19.110	1280.088	1192.718
843.685	18.994	1278.748	1190.524
844.699	19.392	1277.630	1192.106
845.714	19.688	1277.002	1193.430
846.728	19.665	1276.010	1192.205
847.743	19.922	1274.748	1192.664
848.758	19.910	1273.400	1191.175
849.772	19.990	1272.703	1190.932
850.787	20.091	1271.084	1189.974
851.801	19.848	1270.044	1187.180
852.816	19.681	1269.280	1185.172
853.831	19.745	1267.735	1184.028
854.845	19.814	1265.759	1182.515
855.860	19.661	1263.538	1179.253
856.874	19.546	1262.957	1177.779
857.889	19.526	1261.283	1175.938
858.904	19.280	1259.739	1172.677
859.918	19.059	1257.673	1169.106
860.933	19.044	1256.213	1167.505
861.947	19.192	1255.933	1168.113
862.962	19.487	1255.334	1169.427
863.977	19.548	1254.652	1169.067
864.991	19.617	1254.071	1168.855
866.006	19.656	1253.798	1168.724
867.020	19.936	1253.006	1169.751
868.035	19.819	1251.729	1167.622
869.049	19.898	1250.948	1167.289
870.064	20.076	1249.917	1167.390
871.079	20.110	1248.837	1166.477
872.093	20.043	1248.049	1165.149
873.108	20.097	1246.513	1163.937
874.122	19.868	1245.298	1161.118
875.137	19.565	1244.844	1158.514
876.152	19.568	1244.127	1157.727
877.166	19.645	1242.542	1156.635
878.181	19.808	1241.249	1156.385
879.195	20.112	1240.819	1157.887
880.210	20.017	1239.721	1156.089
881.225	20.131	1239.457	1156.465
882.239	20.134	1238.017	1155.006
883.254	19.881	1237.688	1152.871
884.268	19.998	1236.759	1152.646
885.283	20.184	1234.906	1152.023
886.298	20.073	1232.909	1149.282
887.312	19.981	1232.477	1148.130
888.327	19.997	1231.748	1147.421
889.341	19.927	1230.838	1145.968
890.356	19.957	1230.224	1145.459
891.371	19.866	1230.009	1144.520
892.385	19.816	1229.172	1143.271
893.400	19.769	1227.798	1141.541
894.414	19.828	1225.911	1140.042
895.429	19.484	1223.598	1135.481
896.444	19.038	1222.059	1130.968
897.458	18.821	1220.841	1128.278
898.473	19.188	1220.400	1130.153
899.487	19.479	1219.796	1131.379
900.502	19.742	1219.477	1132.677
901.517	19.865	1218.392	1132.346
902.531	19.843	1217.485	1131.221
903.546	19.853	1217.650	1131.304
904.560	19.922	1215.973	1130.066
905.575	19.929	1215.353	1129.397
906.589	19.922	1215.108	1128.993
907.604	20.002	1213.807	1128.171
