DTS Sentinel unit serial number:	SN409020Multiplexer serial number:	ORYXHardware model number:	OX4-SRSoftware version number:	ORYX F/W v3.00 Oryx Data Collector v3.7.2.0data status	okinstallation	HaddamTimeLapsedifferential loss correction	single-endedforward channel	channel 3reverse channel	N/Adate	2011/06/22time	00:36:17forward acquisition time	30.00reverse acquisition time	0.00gamma	498.7831k internal	0.1752k external	0.1752temperature offset calibration	1.0074default loss term (dB/km)	0.3790temperature slope calibration	1.3530multiplexer offset coefficient	1.0000multiplexer slope coefficient	1.0000fibre end	0.00T internal ref (°C)	22.59T ext. ref 1 (°C)	18.04T ext. ref 2 (°C)	0.06length (m)	temperature (°C)	Stokes	anti-Stokes-747.200	-71.245	-0.700	-0.347
-746.185	102.415	0.397	0.618
-745.171	800.000	0.061	0.353
-744.156	14.590	-0.345	0.358
-743.142	-200.000	-0.038	-0.632
-742.127	800.000	0.138	0.519
-741.112	-107.593	0.094	-0.027
-740.098	46.840	0.278	0.343
-739.083	800.000	0.076	0.416
-738.069	-79.763	0.178	0.079
-737.054	-97.777	-0.228	-0.078
-736.039	-55.150	-0.566	0.337
-735.025	-200.000	-0.088	0.541
-734.010	-110.906	0.353	0.096
-732.996	32.581	-0.322	0.370
-731.981	322.285	-0.086	-0.219
-730.966	-106.968	0.171	-0.050
-729.952	-70.236	-0.562	0.282
-728.937	197.574	-0.108	-0.219
-727.923	-200.000	-0.015	-0.158
-726.908	-96.601	-0.138	-0.048
-725.894	229.961	0.177	-0.386
-724.879	-133.939	-0.270	0.044
-723.864	-87.348	-0.539	0.216
-722.850	447.402	0.143	-0.418
-721.835	312.787	-0.054	-0.136
-720.821	-89.897	-0.693	-0.267
-719.806	-200.000	-0.051	-0.319
-718.791	-59.236	-0.067	0.038
-717.777	-138.622	0.133	0.019
-716.762	49.099	0.163	-0.203
-715.748	-200.000	0.000	0.049
-714.733	64.233	-0.267	0.357
-713.718	-200.000	-0.031	-0.271
-712.704	-4.988	-0.180	-0.164
-711.689	800.000	0.030	0.113
-710.675	-200.000	-0.069	-0.507
-709.660	64.039	-0.147	-0.196
-708.645	-28.614	0.241	-0.183
-707.631	-200.000	-0.042	0.377
-706.616	80.456	-0.114	-0.163
-705.602	-159.052	0.274	-0.020
-704.587	64.445	0.172	-0.230
-703.572	20.249	-0.190	-0.203
-702.558	109.860	0.181	-0.288
-701.543	800.000	-0.069	-0.344
-700.529	-24.970	-0.089	-0.070
-699.514	-200.000	-0.010	0.078
-698.499	-200.000	0.064	-0.613
-697.485	-36.194	-0.257	0.183
-696.470	41.460	-0.322	-0.387
-695.456	8.276	-0.171	-0.170
-694.441	-180.463	-0.342	0.009
-693.426	132.622	0.313	-0.537
-692.412	-22.705	0.251	0.201
-691.397	35.645	-0.057	-0.067
-690.383	2.025	-0.212	0.203
-689.368	-108.657	-0.372	0.105
-688.354	-159.658	0.148	-0.011
-687.339	52.471	0.045	-0.057
-686.324	32.614	-0.114	0.131
-685.310	-121.200	-0.163	0.036
-684.295	800.000	-0.054	0.268
-683.281	-6.725	-0.354	0.319
-682.266	800.000	-0.066	-0.261
-681.251	201.493	-0.117	-0.240
-680.237	58.793	0.222	-0.290
-679.222	92.104	0.257	-0.384
-678.208	800.000	0.081	-0.365
-677.193	-102.510	-0.333	-0.105
-676.178	800.000	0.024	0.090
-675.164	-200.000	0.049	0.523
-674.149	-200.000	0.050	0.348
-673.135	-54.314	0.341	0.204
-672.120	-40.157	-0.029	0.020
-671.105	57.903	-0.097	-0.126
-670.091	-109.779	0.434	-0.120
-669.076	800.000	-0.111	0.549
-668.062	-121.127	-0.422	-0.093
-667.047	141.490	-0.228	-0.400
-666.032	-10.406	0.393	0.344
-665.018	-178.916	-0.067	0.002
-664.003	-45.760	-0.227	0.148
-662.989	163.263	-0.137	-0.255
-661.974	-4.551	-0.241	-0.220
-660.959	59.686	-0.130	-0.170
-659.945	72.082	0.131	-0.180
-658.930	71.518	-0.263	-0.361
-657.916	-36.463	-0.390	-0.277
-656.901	-109.029	-0.148	0.042
-655.886	-53.007	-0.331	0.201
-654.872	-18.258	0.129	-0.107
-653.857	-82.298	0.266	-0.114
-652.843	-58.002	0.193	-0.111
-651.828	79.826	-0.188	-0.268
-650.814	-126.514	0.339	-0.066
-649.799	671.333	-0.177	-0.610
-648.784	48.770	0.153	-0.190
-647.770	-54.115	-0.183	0.110
-646.755	800.000	0.114	0.446
-645.741	-122.777	-0.052	0.011
-644.726	-168.595	-0.046	0.002
-643.711	505.250	0.091	0.281
-642.697	-132.145	-0.528	0.090
-641.682	-115.587	-0.158	0.039
-640.668	-181.946	-0.441	-0.011
-639.653	-28.088	-0.068	0.052
-638.638	800.000	-0.041	-0.176
-637.624	575.357	-0.100	-0.324
-636.609	-200.000	-0.025	0.255
-635.595	-72.512	-0.583	0.284
-634.580	26.457	0.375	0.415
-633.565	-200.000	0.000	-0.009
-632.551	-200.000	0.019	0.450
-631.536	477.742	-0.153	0.459
-630.522	293.386	-0.164	-0.396
-629.507	17.322	0.251	-0.263
-628.492	-103.213	-0.158	0.049
-627.478	195.231	-0.215	0.433
-626.463	-97.449	0.319	0.109
-625.449	-173.737	-0.158	-0.006
-624.434	75.335	-0.122	-0.170
-623.419	442.923	-0.122	-0.356
-622.405	75.668	0.541	-0.757
-621.390	121.585	-0.213	-0.352
-620.376	361.017	-0.045	0.120
-619.361	-52.108	-0.363	0.222
-618.346	205.386	0.055	-0.112
-617.332	650.107	0.041	-0.139
-616.317	-118.728	0.111	0.026
-615.303	-48.110	-0.452	-0.287
-614.288	-123.271	0.681	-0.143
-613.273	192.925	0.252	-0.505
-612.259	-200.000	-0.356	-0.001
-611.244	-25.501	-0.209	-0.163
-610.230	303.500	0.104	-0.256
-609.215	-77.743	0.184	-0.084
-608.201	-155.046	-0.054	-0.005
-607.186	-176.032	0.686	-0.024
-606.171	-36.902	-0.180	0.127
-605.157	380.578	-0.027	-0.073
-604.142	-85.421	-0.237	-0.097
-603.128	800.000	-0.042	0.178
-602.113	-124.359	-0.260	0.053
-601.098	34.425	0.458	-0.529
-600.084	-84.502	0.062	-0.026
-599.069	-110.034	0.049	0.013
-598.055	-69.707	-0.499	-0.251
-597.040	-200.000	0.070	0.504
-596.025	-60.902	0.300	0.167
-595.011	-52.920	0.466	-0.283
-593.996	31.928	-0.264	-0.300
-592.982	131.246	0.125	0.213
-591.967	-118.628	0.128	-0.029
-590.952	-158.142	0.149	-0.011
-589.938	144.661	-0.031	-0.055
-588.923	-105.427	0.524	-0.156
-587.909	105.581	0.212	-0.331
-586.894	135.804	0.167	-0.288
-585.879	-2.909	0.042	-0.039
-584.865	-173.086	0.273	-0.011
-583.850	-200.000	0.065	0.400
-582.836	-44.710	-0.140	0.092
-581.821	-200.000	0.024	0.504
-580.806	-140.535	-0.626	-0.085
-579.792	-47.334	-0.121	0.077
-578.777	-68.111	0.116	-0.059
-577.763	-0.139	-0.210	0.197
-576.748	800.000	0.106	0.399
-575.733	-147.115	0.068	-0.008
-574.719	-31.355	0.307	-0.227
-573.704	-45.699	-0.166	0.108
-572.690	800.000	-0.069	0.326
-571.675	-80.844	0.182	0.079
-570.661	-22.951	-0.125	-0.099
-569.646	22.678	-0.081	0.087
-568.631	-67.751	-0.332	-0.171
-567.617	47.302	0.084	-0.103
-566.602	-14.686	0.147	-0.124
-565.588	194.858	-0.249	0.500
-564.573	-17.662	0.218	0.180
-563.558	110.812	-0.106	-0.169
-562.544	-3.448	0.105	0.097
-561.529	253.979	-0.105	0.237
-560.515	196.374	0.077	0.155
-559.500	-137.565	-0.208	0.031
-558.485	-126.485	-0.288	0.056
-557.471	-5.002	-0.366	-0.332
-556.456	17.434	-0.264	-0.277
-555.442	293.823	-0.132	0.319
-554.427	-143.416	0.317	-0.040
-553.412	-102.636	0.148	-0.046
-552.398	-60.093	0.332	-0.186
-551.383	-151.057	0.198	0.019
-550.369	-93.968	-0.371	0.133
-549.354	-110.124	-0.532	0.145
-548.339	183.177	0.249	-0.486
-547.325	-90.636	0.453	0.172
-546.310	709.274	-0.109	-0.380
-545.296	-130.193	-0.464	0.083
-544.281	30.548	-0.322	-0.363
-543.266	-92.979	-0.118	0.043
-542.252	204.891	0.109	-0.223
-541.237	-200.000	-0.040	0.505
-540.223	172.995	0.194	0.368
-539.208	-142.453	-0.424	-0.054
-538.193	302.423	-0.115	-0.282
-537.179	-200.000	-0.050	-0.532
-536.164	246.401	-0.041	-0.091
-535.150	-60.891	0.373	0.207
-534.135	108.556	0.112	0.177
-533.121	-120.475	0.220	-0.049
-532.106	56.396	0.065	-0.083
-531.091	-200.000	0.015	-0.483
-530.077	-62.653	-0.348	0.189
-529.062	87.067	0.109	0.159
-528.048	-66.970	-0.240	0.124
-527.033	12.120	-0.145	-0.147
-526.018	-115.971	-0.544	-0.132
-525.004	-200.000	-0.014	-0.517
-523.989	-65.596	0.305	-0.160
-522.975	-200.000	0.010	-0.196
-521.960	-39.438	0.346	-0.239
-520.945	-83.342	0.429	0.180
-519.931	316.909	0.086	-0.214
-518.916	453.663	-0.207	-0.605
-517.902	800.000	0.048	-0.180
-516.887	-41.202	0.216	-0.146
-515.872	-200.000	0.001	-0.346
-514.858	35.248	0.083	-0.096
-513.843	-200.000	0.022	0.184
-512.829	-200.000	0.068	0.608
-511.814	-104.631	-0.175	0.053
-510.799	141.226	-0.057	0.100
-509.785	-196.016	-0.199	0.002
-508.770	422.671	0.157	0.444
-507.756	-27.283	-0.190	-0.145
-506.741	-128.976	-0.418	0.076
-505.726	-200.000	0.022	0.188
-504.712	398.651	-0.154	-0.427
-503.697	-103.969	0.197	0.060
-502.683	-7.683	-0.138	-0.123
-501.668	68.546	0.183	0.247
-500.653	-129.141	-0.365	-0.066
-499.639	-84.034	-0.148	0.061
-498.624	-114.488	0.167	0.042
-497.610	-200.000	0.030	0.527
-496.595	-112.319	-0.388	-0.101
-495.581	-23.329	0.327	-0.258
-494.566	4.018	-0.139	0.134
-493.551	800.000	-0.073	0.398
-492.537	60.251	-0.164	-0.213
-491.522	-200.000	0.003	0.195
-490.508	-68.411	-0.404	-0.206
-489.493	800.000	-0.025	0.093
-488.478	545.110	0.125	0.395
-487.464	21.886	-0.362	0.388
-486.449	53.838	-0.432	-0.545
-485.435	278.042	-0.076	-0.178
-484.420	-116.726	-0.670	0.161
-483.405	115.533	0.322	-0.518
-482.391	800.000	0.050	-0.279
-481.376	-200.000	-0.009	-0.369
-480.362	55.470	0.316	0.403
-479.347	-103.594	0.275	-0.084
-478.332	-107.777	0.093	0.026
-477.318	-18.810	0.261	0.213
-476.303	-7.516	0.472	0.419
-475.289	-7.559	0.206	-0.183
-474.274	66.681	0.150	-0.201
-473.259	-200.000	0.033	0.320
-472.245	-200.000	-0.028	0.384
-471.230	-78.707	0.382	0.171
-470.216	-156.263	0.289	0.024
-469.201	30.997	-0.055	0.062
-468.186	-50.752	-0.154	-0.095
-467.172	-200.000	0.018	0.115
-466.157	-200.000	0.022	0.299
-465.143	390.177	-0.022	0.059
-464.128	-40.468	0.487	0.331
-463.113	16.800	-0.056	-0.058
-462.099	800.000	-0.072	0.287
-461.084	-25.019	-0.247	0.192
-460.070	-25.681	0.217	0.168
-459.055	-177.905	-0.369	-0.011
-458.040	-40.524	0.266	0.181
-457.026	28.143	0.098	0.109
-456.011	-34.044	0.175	0.126
-454.997	-71.173	0.390	0.191
-453.982	-76.815	0.140	0.064
-452.968	256.250	-0.144	0.327
-451.953	245.115	0.258	0.572
-450.938	-161.447	0.178	0.012
-449.924	-20.122	-0.125	0.101
-448.909	50.404	-0.163	-0.202
-447.895	36.169	0.344	0.397
-446.880	-171.149	-0.562	0.025
-445.865	148.126	-0.077	0.136
-444.851	84.569	-0.149	0.215
-443.836	-200.000	-0.019	0.389
-442.822	-17.448	-0.260	0.214
-441.807	46.542	0.375	-0.456
-440.792	-7.461	-0.033	-0.029
-439.778	-132.011	0.021	-0.004
-438.763	-182.698	-0.324	0.008
-437.749	-41.385	0.512	-0.345
-436.734	-141.723	-0.264	-0.034
-435.719	62.429	-0.172	-0.225
-434.705	-85.793	-0.181	-0.073
-433.690	-42.242	0.188	0.126
-432.676	362.721	0.169	0.448
-431.661	-54.894	-0.171	0.101
-430.646	-200.000	0.006	-0.250
-429.632	20.624	-0.146	-0.155
-428.617	536.857	-0.015	-0.046
-427.603	-200.000	-0.030	-0.457
-426.588	126.693	0.160	0.266
-425.573	-89.543	-0.224	0.086
-424.559	-40.277	-0.388	-0.264
-423.544	-100.936	-0.248	0.079
-422.530	170.685	0.145	-0.273
-421.515	-133.678	0.574	0.093
-420.500	-200.000	0.043	0.334
-419.486	698.588	-0.066	-0.230
-418.471	-139.543	0.323	-0.045
-417.457	143.693	0.091	0.159
-416.442	8.574	0.257	-0.253
-415.428	292.305	-0.189	0.454
-414.413	38.790	-0.109	-0.128
-413.398	-6.258	-0.077	0.069
-412.384	-141.649	0.364	-0.047
-411.369	-44.543	0.233	-0.152
-410.355	117.625	0.117	0.189
-409.340	800.000	-0.076	-0.431
-408.325	-200.000	-0.054	0.552
-407.311	-200.000	0.072	0.438
-406.296	14.787	0.194	-0.199
-405.282	-95.575	-0.256	-0.089
-404.267	-127.817	-0.527	0.099
-403.252	-170.434	0.307	0.014
-402.238	404.820	0.046	0.127
-401.223	-28.816	0.248	0.187
-400.209	-200.000	-0.074	-0.799
-399.194	51.935	0.168	-0.210
-398.179	162.215	-0.075	-0.139
-397.165	-3.475	-0.297	-0.270
-396.150	213.558	-0.179	-0.373
-395.136	20.306	-0.160	0.169
-394.121	800.000	0.059	0.266
-393.106	-128.814	-0.398	0.073
-392.092	380.441	0.125	-0.337
-391.077	-129.144	0.404	-0.073
-390.063	-200.000	0.057	-0.479
-389.048	14.958	0.351	-0.360
-388.033	358.608	-0.142	0.374
-387.019	-72.572	-0.313	-0.151
-386.004	16.035	-0.195	0.202
-384.990	800.000	-0.028	-0.128
-383.975	91.222	0.131	-0.193
-382.960	150.013	0.053	-0.094
-381.946	-143.511	0.366	-0.045
-380.931	-200.000	-0.002	-0.553
-379.917	800.000	0.105	-0.501
-378.902	394.159	0.141	-0.386
-377.888	-67.065	-0.254	0.131
-376.873	-35.679	-0.194	-0.137
-375.858	-170.790	0.562	0.025
-374.844	95.534	-0.180	-0.270
-373.829	46.997	-0.027	-0.032
-372.815	-64.621	-0.214	-0.113
-371.800	-185.274	-0.490	0.010
-370.785	-167.605	-0.521	-0.027
-369.771	-96.904	0.511	-0.174
-368.756	-200.000	0.022	-0.209
-367.742	-60.325	0.158	0.088
-366.727	90.243	0.123	-0.181
-365.712	123.118	-0.101	-0.166
-364.698	27.768	0.258	-0.284
-363.683	397.123	0.150	-0.411
-362.669	-166.829	-0.624	-0.033
-361.654	-13.861	0.082	-0.069
-360.639	49.841	0.267	-0.329
-359.625	-60.690	0.391	0.216
-358.610	-15.677	-0.209	0.174
-357.596	-184.657	-0.423	0.009
-356.581	800.000	-0.033	-0.171
-355.566	-63.987	-0.241	0.128
-354.552	44.125	-0.074	0.089
-353.537	800.000	0.041	0.222
-352.523	-107.156	-0.647	-0.185
-351.508	800.000	-0.120	0.446
-350.493	87.177	-0.246	-0.356
-349.479	28.753	-0.272	-0.301
-348.464	234.042	-0.050	0.109
-347.450	129.030	-0.255	0.426
-346.435	800.000	-0.116	0.531
-345.420	43.736	-0.208	-0.249
-344.406	-151.441	-0.422	-0.041
-343.391	39.599	-0.355	0.417
-342.377	-100.871	0.339	-0.108
-341.362	169.315	0.204	0.382
-340.348	-165.876	-0.432	-0.024
-339.333	-35.732	-0.361	-0.255
-338.318	800.000	0.022	0.126
-337.304	353.637	-0.149	0.388
-336.289	29.107	0.220	0.244
-335.275	92.466	-0.060	0.089
-334.260	-200.000	-0.028	0.285
-333.245	-48.226	0.091	0.057
-332.231	-200.000	0.036	-0.576
-331.216	-124.765	0.827	0.166
-330.202	-200.000	-0.011	0.256
-329.187	-51.651	-0.130	0.079
-328.172	-101.132	-0.074	0.024
-327.158	-107.035	0.508	0.146
-326.143	-61.149	0.486	0.267
-325.129	-9.534	0.350	0.304
-324.114	-106.938	0.274	-0.079
-323.099	74.647	-0.173	-0.238
-322.085	-121.231	-0.243	0.053
-321.070	800.000	0.007	0.032
-320.056	-25.228	-0.183	0.141
-319.041	309.998	-0.062	-0.153
-318.026	643.818	-0.149	0.500
-317.012	-20.013	-0.215	0.173
-315.997	-54.214	0.030	0.017
-314.983	225.923	0.162	0.345
-313.968	-84.802	0.702	-0.287
-312.953	-121.494	0.091	-0.020
-311.939	115.235	0.049	0.079
-310.924	126.200	-0.121	0.200
-309.910	104.589	-0.240	-0.370
-308.895	-22.849	0.329	-0.259
-307.880	-124.943	-0.335	0.067
-306.866	214.732	-0.134	-0.279
-305.851	-54.059	-0.388	-0.229
-304.837	-54.849	-0.277	0.163
-303.822	-90.604	0.174	-0.065
-302.807	49.135	-0.243	-0.298
-301.793	800.000	0.031	0.179
-300.778	-55.101	-0.296	0.173
-299.764	800.000	-0.033	-0.132
-298.749	-200.000	-0.088	-0.566
-297.735	3.172	0.138	-0.131
-296.720	13.127	0.248	-0.251
-295.705	582.114	0.154	-0.496
-294.691	800.000	-0.053	-0.201
-293.676	-139.869	-0.099	0.013
-292.662	0.320	-0.415	0.386
-291.647	13.610	-0.251	-0.254
-290.632	-200.000	-0.015	0.321
-289.618	800.000	0.044	-0.254
-288.603	101.309	0.191	0.291
-287.589	800.000	-0.163	0.636
-286.574	-200.000	0.022	0.232
-285.559	113.953	0.047	0.075
-284.545	800.000	-0.146	-0.780
-283.530	238.246	-0.200	-0.435
-282.516	-173.056	0.946	0.037
-281.501	-135.997	0.825	0.125
-280.486	-138.879	0.563	-0.079
-279.472	-67.711	0.390	-0.198
-278.457	-37.317	-0.099	-0.069
-277.443	-188.065	0.081	-0.001
-276.428	155.589	-0.066	0.118
-275.413	345.333	0.085	0.220
-274.399	142.336	0.091	-0.159
-273.384	800.000	0.118	-0.498
-272.370	294.330	-0.247	-0.590
-271.355	-69.898	-0.064	-0.031
-270.340	-20.244	-0.519	0.416
-269.326	19.629	0.030	-0.031
-268.311	-149.198	0.500	0.052
-267.297	33.954	0.318	-0.361
-266.282	-200.000	0.077	0.565
-265.267	-100.684	-0.102	-0.032
-264.253	-200.000	0.033	-0.505
-263.238	-200.000	0.025	0.634
-262.224	-200.000	0.008	0.336
-261.209	-128.088	0.177	-0.033
-260.195	-14.403	0.039	-0.032
-259.180	84.067	0.160	-0.228
-258.165	-45.488	0.312	0.201
-257.151	-65.445	-0.149	0.078
-256.136	800.000	0.060	-0.234
-255.122	12.584	0.228	0.230
-254.107	206.835	0.070	0.142
-253.092	161.442	-0.066	0.121
-252.078	-200.000	0.003	-0.369
-251.063	-159.944	0.307	-0.022
-250.049	191.621	0.080	0.158
-249.034	-46.246	0.345	0.221
-248.019	-17.240	-0.235	-0.192
-247.005	-200.000	-0.104	-0.614
-245.990	-89.434	0.466	-0.178
-244.976	-163.055	0.228	0.014
-243.961	-47.371	-0.339	0.214
-242.946	-13.188	-0.088	0.074
-241.932	800.000	-0.141	0.654
-240.917	56.131	-0.400	0.505
-239.903	152.285	0.257	0.459
-238.888	162.950	0.269	0.493
-237.873	13.727	0.292	-0.295
-236.859	-28.961	-0.145	0.108
-235.844	-119.728	-0.501	-0.112
-234.830	68.727	-0.344	0.460
-233.815	48.345	0.291	-0.355
-232.800	98.294	-0.185	0.278
-231.786	-152.672	-0.437	-0.040
-230.771	563.051	0.005	0.017
-229.757	246.269	-0.195	0.429
-228.742	116.512	0.187	-0.300
-227.727	-200.000	-0.094	0.599
-226.713	-133.358	0.251	0.041
-225.698	-121.874	0.275	-0.058
-224.684	-77.313	-0.486	-0.219
-223.669	-9.207	-0.323	0.280
-222.655	-199.870	0.363	-0.002
-221.640	-94.779	0.486	-0.171
-220.625	-7.131	0.248	0.219
-219.611	-57.252	-0.493	0.281
-218.596	800.000	-0.054	-0.241
-217.582	-14.070	-0.339	-0.284
-216.567	-21.070	0.391	0.311
-215.552	14.482	-0.234	-0.238
-214.538	31.945	-0.163	-0.182
-213.523	-10.161	0.214	-0.184
-212.509	-62.260	0.398	-0.215
-211.494	481.127	0.132	-0.392
-210.479	433.631	0.049	-0.140
-209.465	674.283	0.075	0.254
-208.450	132.497	0.116	-0.195
-207.436	90.886	0.237	0.345
-206.421	-167.015	0.369	-0.019
-205.406	-36.683	-0.357	0.249
-204.392	-51.720	0.142	-0.086
-203.377	-82.831	-0.389	0.162
-202.363	800.000	-0.038	0.167
-201.348	39.121	-0.115	0.134
-200.333	301.957	-0.355	0.857
-199.319	-200.000	0.020	-0.263
-198.304	-150.047	0.328	-0.033
-197.290	36.491	-0.293	-0.337
-196.275	236.825	0.115	0.248
-195.260	800.000	0.054	0.196
-194.246	-57.565	-0.228	0.129
-193.231	333.574	-0.193	0.486
-192.217	28.620	-0.350	0.385
-191.202	-100.788	-0.081	-0.026
-190.187	20.373	0.320	0.336
-189.173	74.164	-0.172	-0.235
-188.158	345.670	0.185	0.473
-187.144	-84.180	-0.177	-0.073
-186.129	-22.672	0.256	-0.201
-185.114	-164.305	0.552	0.032
-184.100	11.098	0.168	-0.167
-183.085	-175.905	-0.354	-0.012
-182.071	-78.111	0.268	0.119
-181.056	68.837	0.231	0.309
-180.042	-46.750	0.117	0.074
-179.027	-2.560	-0.111	-0.101
-178.012	-26.260	0.375	-0.286
-176.998	-40.342	0.388	0.262
-175.983	7.999	-0.574	-0.559
-174.969	170.703	0.080	0.150
-173.954	-30.789	-0.201	-0.147
-172.939	37.092	0.433	0.498
-171.925	-125.073	-0.178	-0.035
-170.910	-120.764	0.232	0.050
-169.896	747.106	0.046	-0.161
-168.881	553.309	0.245	-0.769
-167.866	-200.000	0.024	0.194
-166.852	-120.899	-0.291	0.063
-165.837	450.104	0.099	-0.284
-164.823	-91.865	0.210	-0.077
-163.808	-77.079	-0.561	0.253
-162.793	-56.012	-0.455	0.262
-161.779	-37.569	0.288	-0.199
-160.764	-109.255	0.196	-0.054
-159.750	127.615	-0.145	-0.240
-158.735	-66.803	0.344	-0.176
-157.720	-9.278	-0.192	-0.166
-156.706	-158.560	-0.120	0.009
-155.691	37.918	-0.319	-0.368
-154.677	800.000	-0.049	-0.261
-153.662	-200.000	-0.028	-0.292
-152.647	-98.080	0.099	0.033
-151.633	368.528	0.185	0.488
-150.618	-163.004	-0.170	0.011
-149.604	-127.591	-0.545	-0.102
-148.589	-181.689	0.255	-0.006
-147.574	302.944	0.187	0.452
-146.560	456.341	-0.066	-0.190
-145.545	-200.000	0.025	0.149
-144.531	-158.830	-0.352	-0.026
-143.516	-129.901	-0.127	-0.022
-142.502	236.035	-0.102	0.220
-141.487	303.107	0.030	-0.072
-140.472	-200.000	-0.029	0.585
-139.458	530.620	-0.078	0.240
-138.443	-121.423	0.020	0.004
-137.429	319.983	-0.065	0.160
-136.414	99.849	-0.360	-0.542
-135.399	25.305	-0.028	0.030
-134.385	-123.608	-0.391	-0.080
-133.370	-200.000	0.035	0.349
-132.356	-166.397	-0.744	0.040
-131.341	-104.367	0.091	-0.027
-130.326	-131.928	-0.226	-0.038
-129.312	309.966	0.129	0.315
-128.297	-200.000	0.009	-0.089
-127.283	-42.152	0.391	-0.259
-126.268	-200.000	-0.035	-0.327
-125.253	30.503	-0.140	-0.155
-124.239	-200.000	0.038	-0.264
-123.224	583.801	-0.166	-0.533
-122.210	800.000	-0.109	-0.398
-121.195	789.377	0.094	-0.335
-120.180	-174.893	0.193	0.007
-119.166	33.322	0.328	0.369
-118.151	79.477	0.195	-0.272
-117.137	800.000	0.086	-0.318
-116.122	-185.041	0.289	0.006
-115.107	-200.000	0.008	-0.334
-114.093	-194.994	0.205	-0.002
-113.078	-200.000	-0.060	-0.389
-112.064	-86.757	0.450	-0.177
-111.049	311.056	0.132	0.322
-110.034	83.513	0.302	0.427
-109.020	313.125	0.102	0.249
-108.005	-132.327	-0.350	-0.058
-106.991	-159.903	0.626	-0.044
-105.976	-161.424	0.248	-0.016
-104.962	-114.555	0.180	0.044
-103.947	800.000	-0.077	-0.323
-102.932	-200.000	0.017	0.240
-101.918	-49.283	-0.417	0.257
-100.903	-144.596	0.256	-0.030
-99.889	205.843	0.243	0.491
-98.874	-12.517	-0.354	-0.299
-97.859	-200.000	0.046	-0.362
-96.845	473.324	-0.161	-0.473
-95.830	-200.000	0.012	0.068
-94.816	2.370	-0.303	-0.284
-93.801	16.987	0.311	-0.319
-92.786	-85.749	0.300	-0.120
-91.772	425.400	0.178	0.498
-90.757	-75.246	0.354	0.163
-89.743	-131.509	-0.132	-0.022
-88.728	-63.318	-0.157	0.084
-87.713	-200.000	-0.018	0.109
-86.699	-91.787	0.392	-0.143
-85.684	-88.357	-0.548	-0.211
-84.670	-70.031	-0.427	0.210
-83.655	-57.080	0.250	-0.142
-82.640	-14.025	-0.159	0.133
-81.626	-151.411	0.497	0.047
-80.611	-92.480	0.393	0.142
-79.597	-0.730	0.333	-0.305
-78.582	251.852	0.160	-0.353
-77.567	66.881	-0.180	-0.238
-76.553	-62.031	-0.178	-0.096
-75.538	-59.542	-0.091	-0.051
-74.524	-11.971	-0.193	0.164
-73.509	-39.834	0.426	0.287
-72.494	80.240	0.073	-0.102
-71.480	-63.642	-0.372	-0.197
-70.465	-16.361	-0.204	0.167
-69.451	-137.180	-0.381	-0.056
-68.436	-160.765	0.117	-0.008
-67.422	-200.000	0.029	-0.324
-66.407	15.463	-0.123	-0.125
-65.392	513.470	0.150	-0.454
-64.378	162.837	-0.152	0.276
-63.363	-200.000	-0.013	-0.173
-62.349	7.377	-0.482	-0.465
-61.334	34.792	-2.178	-2.463
-60.319	-6.042	1.258	1.111
-59.305	227.594	-3.671	-7.747
-58.290	34.083	4.190	4.721
-57.276	308.790	4.305	10.437
-56.261	-200.000	23.280	321.245
-55.246	352.661	1305.027	3359.771
-54.232	52.451	2847.007	3514.898
-53.217	50.988	2663.333	3265.352
-52.203	31.569	2392.405	2659.089
-51.188	27.896	2057.149	2241.167
-50.173	24.424	1945.384	2078.746
-49.159	23.451	1933.086	2054.199
-48.144	22.966	1928.227	2043.308
-47.130	22.899	1925.921	2040.014
-46.115	22.847	1923.892	2037.178
-45.100	22.824	1922.847	2035.726
-44.086	22.870	1921.241	2034.480
-43.071	22.837	1919.261	2031.914
-42.057	22.714	1917.639	2028.702
-41.042	22.843	1916.407	2028.808
-40.027	22.867	1914.971	2027.477
-39.013	22.823	1913.853	2025.707
-37.998	22.857	1912.134	2024.195
-36.984	22.692	1911.613	2021.667
-35.969	22.833	1909.594	2021.073
-34.954	22.781	1909.074	2019.840
-33.940	22.704	1907.969	2017.714
-32.925	22.695	1906.126	2015.581
-31.911	22.666	1905.080	2014.055
-30.896	22.646	1903.878	2012.477
-29.881	22.782	1902.361	2012.356
-28.867	22.775	1900.168	2009.873
-27.852	22.743	1898.653	2007.829
-26.838	22.527	1898.031	2004.623
-25.823	22.619	1897.722	2005.261
-24.809	22.623	1895.533	2002.915
-23.794	22.631	1894.280	2001.606
-22.779	22.612	1893.680	2000.676
-21.765	22.585	1891.550	1998.042
-20.750	22.582	1890.910	1997.247
-19.736	22.491	1889.680	1994.836
-18.721	22.535	1888.846	1994.377
-17.706	22.562	1886.730	1992.375
-16.692	22.637	1885.511	1991.854
-15.677	22.460	1884.981	1989.203
-14.663	22.496	1883.385	1987.846
-13.648	22.477	1882.208	1986.316
-12.633	22.486	1881.363	1985.452
-11.619	22.528	1879.153	1983.515
-10.604	22.419	1878.928	1981.961
-9.590	22.421	1877.815	1980.736
-8.575	22.417	1876.114	1978.809
-7.560	22.404	1875.490	1977.928
-6.546	22.440	1873.461	1976.116
-5.531	22.446	1872.214	1974.790
-4.517	22.424	1871.623	1973.846
-3.502	22.556	1870.256	1973.804
-2.487	22.522	1869.640	1972.692
-1.473	22.602	1865.943	1969.620
-0.458	22.384	1847.161	1947.288
0.556	19.052	1993.519	2049.473
1.571	17.565	2198.486	2240.272
2.586	18.412	2236.796	2290.432
3.600	18.322	2240.075	2292.294
4.615	18.366	2239.249	2291.765
5.629	18.449	2236.459	2289.751
6.644	18.375	2234.525	2286.504
7.659	18.302	2232.854	2283.548
8.673	18.341	2231.056	2281.955
9.688	18.168	2240.075	2288.575
10.702	17.244	2321.360	2358.450
11.717	15.520	2385.460	2398.556
12.731	7.165	2365.856	2259.172
13.746	0.901	2349.622	2153.984
14.761	0.154	2345.621	2139.389
15.775	0.073	2343.841	2136.353
16.790	0.081	2342.701	2135.171
17.804	0.120	2340.521	2133.491
18.819	0.080	2339.826	2132.028
19.834	0.109	2337.966	2130.486
20.848	0.046	2336.545	2128.041
21.863	0.109	2334.799	2127.090
22.877	0.048	2333.238	2124.550
23.892	0.082	2331.362	2123.077
24.907	0.184	2327.543	2120.782
25.921	0.049	2326.644	2117.798
26.936	0.049	2324.084	2115.216
27.950	-0.015	2322.278	2112.415
28.965	-0.073	2319.609	2108.922
29.980	0.057	2317.666	2108.732
30.994	0.171	2315.231	2107.863
32.009	3.835	2327.332	2170.394
33.023	12.828	2353.102	2322.003
34.038	16.536	2359.527	2380.618
35.053	16.573	2355.271	2376.565
36.067	16.405	2353.455	2372.085
37.082	16.404	2352.192	2370.513
38.096	16.534	2350.502	2370.355
39.111	16.769	2348.568	2371.421
40.126	16.949	2345.874	2370.948
41.140	17.085	2344.149	2370.831
42.155	16.988	2343.744	2368.782
43.169	17.016	2340.847	2365.962
44.184	16.919	2336.659	2360.083
45.199	16.761	2336.093	2357.031
46.213	16.847	2335.395	2357.244
47.228	17.119	2333.450	2358.786
48.242	17.144	2332.731	2358.134
49.257	17.158	2330.461	2355.754
50.271	17.241	2327.644	2353.778
51.286	16.999	2324.944	2347.406
52.301	16.821	2323.263	2342.943
53.315	17.655	2326.739	2357.777
54.330	20.447	2333.846	2403.579
55.344	22.111	2335.233	2427.854
56.359	22.461	2330.732	2427.732
57.374	22.518	2331.238	2428.761
58.388	22.668	2328.006	2427.183
59.403	22.303	2324.610	2418.304
60.417	22.095	2320.636	2411.015
61.432	22.285	2318.507	2411.133
62.447	22.475	2318.033	2412.965
63.461	22.427	2317.708	2411.677
64.476	22.761	2314.336	2412.474
65.490	22.347	2312.612	2404.700
66.505	21.476	2308.608	2388.302
67.520	19.401	2300.654	2351.377
68.534	17.343	2292.017	2314.152
69.549	16.864	2287.511	2302.783
70.563	16.800	2284.796	2298.901
71.578	16.701	2283.625	2296.098
72.593	16.853	2281.031	2295.291
73.607	16.939	2280.706	2295.857
74.622	16.892	2278.413	2292.632
75.636	16.814	2275.336	2288.204
76.651	16.807	2273.064	2285.549
77.666	16.660	2271.008	2281.224
78.680	16.653	2267.987	2277.817
79.695	16.357	2265.610	2271.159
80.709	16.242	2264.822	2268.550
81.724	16.178	2263.135	2265.713
82.739	16.348	2260.329	2264.934
83.753	16.249	2258.872	2261.867
84.768	16.271	2256.784	2259.797
85.782	16.297	2254.280	2257.369
86.797	16.199	2253.629	2255.137
87.812	16.313	2251.367	2254.127
88.826	16.428	2250.127	2254.155
89.841	16.448	2247.712	2251.736
90.855	16.380	2245.032	2247.880
91.870	16.395	2244.565	2247.335
92.884	16.318	2242.657	2244.125
93.899	16.462	2241.339	2244.463
94.914	17.271	2244.169	2257.835
95.928	19.735	2251.925	2298.341
96.943	20.614	2249.217	2307.028
97.957	18.042	2238.283	2261.369
98.972	16.427	2233.241	2234.552
99.987	16.270	2229.729	2228.682
101.001	16.360	2226.709	2226.593
102.016	16.475	2224.484	2225.631
103.030	16.290	2223.288	2221.712
104.045	16.205	2221.012	2218.048
105.060	16.263	2217.810	2215.352
106.074	16.244	2216.780	2213.807
107.089	16.300	2214.724	2212.233
108.103	16.227	2214.477	2210.759
109.118	16.500	2212.150	2211.753
110.133	16.592	2210.714	2211.272
111.147	16.462	2208.469	2207.052
112.162	16.458	2206.981	2205.241
113.176	16.701	2205.051	2206.239
114.191	16.677	2204.412	2205.023
115.206	16.755	2202.210	2203.578
116.220	16.652	2200.772	2200.519
117.235	16.644	2198.811	2198.192
118.249	16.615	2196.339	2195.077
119.264	16.691	2194.000	2193.470
120.279	16.602	2193.640	2191.688
121.293	16.660	2192.453	2190.998
122.308	16.743	2190.025	2189.389
123.322	16.605	2189.062	2186.374
124.337	17.116	2190.424	2194.103
125.352	19.836	2198.279	2237.122
126.366	20.481	2195.815	2242.710
127.381	17.802	2185.348	2197.123
128.395	16.593	2180.318	2176.175
129.410	16.498	2178.457	2172.831
130.424	16.607	2176.465	2171.993
131.439	16.650	2174.876	2170.703
132.454	16.573	2174.117	2168.688
133.468	16.787	2171.192	2168.262
134.483	16.914	2169.791	2168.247
135.497	16.895	2168.203	2166.154
136.512	16.729	2166.278	2161.843
137.527	16.706	2163.551	2158.557
138.541	16.484	2162.487	2154.405
139.556	16.559	2161.789	2154.402
140.570	16.401	2159.855	2150.203
141.585	16.330	2157.336	2146.533
142.600	16.221	2156.034	2143.585
143.614	16.189	2154.977	2141.870
144.629	16.228	2151.851	2139.004
145.643	16.039	2149.898	2134.404
146.658	16.070	2149.010	2133.662
147.673	16.030	2146.197	2130.106
148.687	16.169	2145.367	2130.784
149.702	16.442	2145.895	2134.527
150.716	16.458	2144.384	2132.972
151.731	16.497	2143.014	2131.842
152.746	16.494	2141.455	2130.003
153.760	17.252	2145.136	2143.019
154.775	19.982	2152.558	2184.846
155.789	20.937	2150.450	2194.538
156.804	18.360	2139.051	2150.161
157.819	16.574	2132.830	2121.154
158.833	16.429	2128.379	2114.658
159.848	16.374	2126.986	2112.321
160.862	16.478	2126.076	2112.476
161.877	16.566	2125.598	2112.854
162.892	16.526	2124.685	2111.187
163.906	16.607	2123.400	2110.673
164.921	16.636	2121.115	2108.515
165.935	16.536	2118.770	2104.683
166.950	16.634	2117.713	2104.605
167.964	16.650	2115.723	2102.578
168.979	16.469	2112.549	2096.917
169.994	16.341	2111.270	2093.797
171.008	16.314	2110.063	2092.018
172.023	16.369	2107.739	2090.139
173.037	16.421	2107.739	2090.535
174.052	16.621	2105.481	2090.531
175.067	16.558	2104.093	2088.121
176.081	16.448	2102.716	2085.139
177.096	16.487	2101.610	2084.274
178.110	16.531	2100.547	2083.516
179.125	16.736	2099.466	2084.737
180.140	16.712	2097.219	2081.959
181.154	16.714	2096.291	2080.808
182.169	16.824	2095.332	2080.966
183.183	17.554	2098.583	2092.962
184.198	20.529	2105.634	2136.563
185.213	21.134	2102.180	2140.268
186.227	17.994	2093.715	2092.786
187.242	16.793	2088.561	2072.621
188.256	16.706	2086.701	2069.461
189.271	16.638	2083.443	2065.141
190.286	16.428	2082.267	2061.162
191.300	16.503	2081.106	2060.678
192.315	16.625	2079.347	2060.188
193.329	16.711	2077.803	2059.461
194.344	17.001	2077.401	2062.361
195.359	17.016	2076.014	2060.925
196.373	16.777	2072.765	2054.533
197.388	16.503	2071.104	2049.300
198.402	16.466	2067.829	2045.373
199.417	16.507	2066.095	2043.912
200.432	16.437	2064.843	2041.579
201.446	16.391	2064.733	2040.662
202.461	16.477	2061.412	2038.173
203.475	16.409	2060.272	2035.979
204.490	16.461	2058.170	2034.286
205.504	16.526	2055.903	2032.598
206.519	16.624	2053.982	2031.634
207.534	16.625	2052.699	2030.129
208.548	16.507	2050.875	2026.663
209.563	16.572	2050.756	2027.080
210.577	16.743	2048.888	2027.050
211.592	16.684	2048.631	2025.854
212.607	18.004	2054.067	2046.891
213.621	21.250	2061.276	2092.986
214.636	20.683	2054.671	2079.224
215.650	17.526	2045.272	2031.659
216.665	16.644	2041.334	2016.943
217.680	16.597	2038.955	2013.792
218.694	16.397	2036.988	2009.216
219.709	16.270	2035.688	2006.175
220.723	16.402	2034.660	2006.501
221.738	16.635	2033.665	2008.052
222.753	16.919	2030.834	2008.403
223.767	16.759	2030.399	2005.825
224.782	16.703	2028.746	2003.294
225.796	16.636	2026.842	2000.374
226.811	16.569	2025.266	1997.787
227.826	16.625	2023.569	1996.537
228.840	16.455	2022.736	1993.461
229.855	16.444	2021.681	1992.044
230.869	16.611	2018.539	1990.690
231.884	16.554	2017.474	1988.731
232.899	16.497	2016.304	1986.659
233.913	16.496	2015.768	1985.890
234.928	16.549	2014.709	1985.225
235.942	16.478	2012.049	1981.532
236.957	16.537	2010.297	1980.266
237.972	16.543	2009.552	1979.369
238.986	16.393	2008.311	1976.144
240.001	16.373	2006.109	1973.509
241.015	16.624	2005.993	1976.106
242.030	17.454	2007.964	1987.549
243.045	20.101	2014.630	2025.049
244.059	20.390	2011.516	2025.064
245.074	17.769	2001.681	1984.302
246.088	17.043	1996.130	1970.094
247.103	16.954	1995.676	1968.380
248.117	16.865	1994.488	1965.930
249.132	16.713	1991.811	1961.292
250.147	16.572	1990.278	1957.901
251.161	16.636	1988.442	1956.601
252.176	16.852	1988.079	1958.526
253.190	17.214	1985.999	1960.441
254.205	17.000	1985.795	1957.518
255.220	17.121	1982.706	1955.643
256.234	16.940	1982.121	1952.733
257.249	16.830	1980.377	1949.518
258.263	16.713	1979.799	1947.359
259.278	16.734	1978.491	1946.086
260.293	16.676	1975.394	1942.127
261.307	16.405	1973.788	1937.200
262.322	16.402	1972.568	1935.737
263.336	16.300	1970.368	1932.168
264.351	16.290	1967.717	1929.230
265.366	16.252	1967.048	1927.903
266.380	16.377	1966.838	1928.902
267.395	16.375	1965.541	1927.374
268.409	16.345	1963.947	1925.235
269.424	16.482	1961.802	1924.472
270.439	16.464	1962.025	1924.259
271.453	17.571	1964.400	1939.029
272.468	20.522	1969.371	1977.498
273.482	20.623	1965.658	1974.686
274.497	17.674	1956.289	1931.497
275.512	16.726	1950.869	1915.151
276.526	16.365	1949.923	1909.886
277.541	16.400	1947.551	1907.726
278.555	16.337	1945.593	1904.870
279.570	16.188	1943.686	1901.083
280.585	16.302	1942.951	1901.434
281.599	16.402	1942.636	1902.030
282.614	16.614	1940.788	1902.389
283.628	17.003	1941.113	1906.874
284.643	17.148	1940.537	1907.720
285.657	17.163	1939.666	1906.796
286.672	17.264	1937.838	1905.919
287.687	17.173	1935.017	1901.891
288.701	17.130	1934.110	1900.287
289.716	16.959	1932.588	1896.640
290.730	16.994	1931.166	1895.406
291.745	17.043	1930.591	1895.164
292.760	17.128	1929.522	1894.852
293.774	16.819	1928.538	1890.193
294.789	16.823	1927.051	1888.554
295.803	16.591	1923.878	1882.617
296.818	16.583	1924.221	1882.640
297.833	16.826	1922.371	1883.317
298.847	16.719	1920.984	1880.541
299.862	16.699	1919.854	1878.984
300.876	17.496	1921.336	1889.109
301.891	20.485	1927.227	1928.057
302.906	20.922	1924.105	1929.570
303.920	18.021	1915.496	1888.525
304.935	16.817	1911.628	1871.122
305.949	16.856	1908.450	1868.226
306.964	16.879	1907.230	1867.065
307.979	16.756	1907.055	1865.306
308.993	17.117	1905.889	1867.928
310.008	17.305	1904.875	1868.789
311.022	17.406	1903.276	1868.112
312.037	17.141	1900.958	1862.692
313.052	17.138	1899.097	1860.614
314.066	17.253	1898.100	1860.677
315.081	17.273	1897.215	1859.810
316.095	17.032	1895.817	1855.572
317.110	16.777	1894.454	1851.209
318.125	16.660	1892.058	1847.367
319.139	16.755	1890.127	1846.306
320.154	16.806	1888.979	1845.513
321.168	16.745	1886.982	1842.678
322.183	16.570	1885.450	1839.048
323.197	16.461	1884.032	1836.252
324.212	16.283	1882.331	1832.439
325.227	16.143	1881.088	1829.481
326.241	16.136	1879.092	1827.244
327.256	16.288	1878.344	1827.949
328.270	16.316	1876.240	1825.995
329.285	16.368	1876.297	1826.397
330.300	17.407	1881.343	1842.396
331.314	20.795	1886.737	1884.374
332.329	20.658	1881.825	1877.760
333.343	17.637	1871.685	1834.770
334.358	16.487	1868.528	1819.024
335.373	16.312	1867.247	1815.666
336.387	16.043	1864.696	1810.067
337.402	16.147	1863.075	1809.399
338.416	16.326	1861.655	1809.739
339.431	16.389	1861.142	1809.696
340.446	16.396	1859.048	1807.518
341.460	16.634	1858.105	1808.943
342.475	16.917	1857.550	1811.223
343.489	17.053	1856.720	1811.658
344.504	16.973	1855.563	1809.458
345.519	17.053	1853.540	1808.126
346.533	17.273	1851.512	1808.284
347.548	17.373	1851.120	1808.749
348.562	17.121	1849.413	1804.180
349.577	17.190	1849.090	1804.380
350.592	17.400	1848.289	1805.622
351.606	17.416	1847.448	1804.760
352.621	17.427	1844.824	1802.098
353.635	17.049	1844.194	1797.238
354.650	17.092	1841.879	1795.226
355.665	17.072	1839.195	1792.179
356.679	16.813	1838.391	1788.436
357.694	16.966	1837.164	1788.651
358.708	16.733	1835.958	1784.799
359.723	18.063	1839.553	1802.179
360.738	20.972	1844.961	1838.143
361.752	20.215	1840.202	1825.174
362.767	17.605	1832.683	1789.968
363.781	16.918	1829.317	1779.223
364.796	16.791	1827.101	1775.515
365.810	16.545	1825.837	1771.486
366.825	16.675	1825.541	1772.355
367.840	16.950	1825.112	1774.618
368.854	17.115	1823.224	1774.309
369.869	16.915	1821.110	1769.943
370.883	16.714	1819.678	1766.224
371.898	16.791	1818.506	1765.688
372.913	16.671	1817.120	1762.873
373.927	16.775	1815.817	1762.488
374.942	16.809	1815.225	1762.053
375.956	16.902	1814.236	1761.861
376.971	16.931	1811.424	1759.220
377.986	16.881	1809.339	1756.461
379.000	16.542	1808.641	1752.048
380.015	16.605	1806.860	1750.765
381.029	16.442	1805.013	1747.069
382.044	16.223	1802.587	1742.238
383.059	16.324	1801.769	1742.292
384.073	16.406	1800.225	1741.438
385.088	16.406	1799.577	1740.606
386.102	16.264	1797.860	1737.259
387.117	16.203	1796.376	1734.993
388.132	16.296	1795.558	1734.954
389.146	17.334	1800.907	1750.660
390.161	20.606	1805.900	1789.200
391.175	20.344	1798.667	1779.124
392.190	17.344	1789.281	1738.838
393.205	16.528	1786.771	1727.813
394.219	16.429	1784.910	1724.796
395.234	16.330	1783.596	1722.299
396.248	16.533	1781.180	1721.841
397.263	16.247	1779.889	1717.460
398.278	16.449	1777.712	1717.217
399.292	16.347	1777.416	1715.684
400.307	16.456	1776.416	1715.626
401.321	16.543	1775.825	1715.739
402.336	16.613	1775.050	1715.496
403.350	16.692	1772.963	1714.081
404.365	16.848	1771.465	1714.010
405.380	17.079	1772.315	1716.978
406.394	17.145	1771.331	1716.487
407.409	16.971	1769.159	1712.417
408.423	17.105	1767.935	1712.377
409.438	17.247	1765.840	1711.586
410.453	17.098	1764.615	1708.687
411.467	17.273	1763.629	1709.298
412.482	17.128	1763.239	1707.244
413.496	16.944	1761.280	1703.286
414.511	16.938	1758.764	1700.594
415.526	16.823	1756.782	1697.314
416.540	16.753	1755.098	1694.783
417.555	16.871	1754.271	1694.959
418.569	17.003	1755.038	1696.829
419.584	17.200	1754.635	1698.216
420.599	17.010	1754.289	1695.773
421.613	16.942	1752.464	1693.115
422.628	16.808	1750.942	1690.102
423.642	16.586	1749.602	1686.385
424.657	16.697	1748.161	1685.904
425.672	16.909	1745.845	1685.587
426.686	16.829	1744.786	1683.561
427.701	16.748	1743.678	1681.486
428.715	16.982	1741.847	1681.852
429.730	17.100	1741.340	1682.336
430.745	17.076	1740.688	1681.265
431.759	17.302	1739.492	1682.159
432.774	17.606	1740.039	1685.509
433.788	17.925	1739.973	1688.409
434.803	18.160	1739.486	1690.067
435.818	18.178	1738.933	1689.515
436.832	17.937	1737.993	1686.009
437.847	16.906	1731.367	1669.182
438.861	9.371	1710.513	1574.957
439.876	1.646	1696.455	1486.211
440.890	0.287	1693.157	1469.818
441.905	0.185	1691.049	1466.815
442.920	0.164	1689.803	1465.356
443.934	0.096	1689.149	1463.948
444.949	0.259	1687.352	1463.806
445.963	0.085	1687.599	1462.145
446.978	0.062	1686.467	1460.768
447.993	0.095	1685.041	1459.673
449.007	0.142	1682.692	1457.923
450.022	0.305	1680.426	1457.376
451.036	0.089	1679.689	1454.458
452.051	1.059	1683.736	1467.231
453.066	8.713	1700.948	1557.098
454.080	16.253	1712.617	1641.562
455.095	17.857	1714.662	1659.005
456.109	18.323	1715.077	1663.764
457.124	18.438	1713.493	1663.151
458.139	18.511	1714.164	1664.311
459.153	18.632	1713.221	1664.380
460.168	18.655	1710.729	1661.981
461.182	18.668	1709.306	1660.524
462.197	18.664	1707.247	1658.290
463.212	18.405	1705.832	1654.200
464.226	18.529	1704.081	1653.510
465.241	18.696	1703.057	1653.934
466.255	18.682	1702.613	1653.173
467.270	18.799	1701.075	1652.607
468.285	18.449	1699.801	1647.796
469.299	18.523	1698.029	1646.597
470.314	18.680	1696.546	1646.467
471.328	18.712	1695.054	1645.131
472.343	18.684	1694.310	1643.947
473.358	18.702	1692.885	1642.544
474.372	18.711	1691.920	1641.491
475.387	18.496	1690.945	1638.286
476.401	18.434	1689.453	1636.053
477.416	18.510	1687.608	1634.796
478.430	18.589	1685.701	1633.506
479.445	18.397	1684.981	1630.774
480.460	18.340	1684.023	1629.114
481.474	18.474	1682.649	1628.861
482.489	18.660	1681.186	1629.027
483.503	18.825	1680.381	1629.627
484.518	18.705	1680.319	1628.233
485.533	18.729	1677.951	1625.971
486.547	18.659	1676.204	1623.412
487.562	18.830	1676.202	1624.840
488.576	18.810	1675.057	1623.346
489.591	18.751	1673.603	1621.188
490.606	18.741	1671.807	1619.156
491.620	18.683	1669.808	1616.479
492.635	19.005	1668.319	1617.887
493.649	19.039	1667.560	1617.276
494.664	18.807	1665.505	1612.900
495.679	18.478	1664.301	1608.442
496.693	18.501	1663.016	1607.224
497.708	18.566	1662.895	1607.523
498.722	18.915	1662.354	1610.097
499.737	18.956	1659.825	1607.840
500.752	18.674	1658.763	1603.969
501.766	18.704	1657.057	1602.412
502.781	18.822	1655.421	1601.747
503.795	18.829	1653.880	1600.129
504.810	18.870	1652.853	1599.327
505.825	18.994	1652.740	1600.181
506.839	18.963	1651.779	1598.775
507.854	18.827	1650.765	1596.325
508.868	18.871	1648.817	1594.665
509.883	18.896	1648.163	1594.071
510.898	19.165	1646.263	1594.553
511.912	18.975	1644.135	1590.533
512.927	18.784	1642.994	1587.461
513.941	18.759	1641.559	1585.652
514.956	18.670	1640.387	1583.507
515.971	18.653	1639.131	1581.949
516.985	18.665	1637.944	1580.723
518.000	18.744	1637.868	1581.190
519.014	18.983	1636.757	1582.145
520.029	18.975	1635.485	1580.653
521.043	19.014	1634.161	1579.540
522.058	18.816	1633.646	1577.021
523.073	19.108	1632.715	1578.631
524.087	19.200	1631.983	1578.580
525.102	19.129	1630.233	1576.048
526.116	18.897	1627.690	1571.263
527.131	19.011	1626.284	1570.765
528.146	19.147	1626.125	1571.676
529.160	19.244	1625.057	1571.341
530.175	19.137	1624.866	1569.994
531.189	19.265	1622.914	1569.092
532.204	19.271	1621.684	1567.764
533.219	19.063	1619.694	1563.758
534.233	18.865	1618.743	1560.846
535.248	19.123	1617.878	1562.178
536.262	19.381	1616.800	1563.296
537.277	19.209	1615.543	1560.328
538.292	19.084	1614.053	1557.569
539.306	19.055	1612.042	1555.180
540.321	19.055	1611.064	1554.047
541.335	18.901	1609.781	1551.224
542.350	19.087	1607.979	1550.987
543.365	19.338	1606.568	1551.716
544.379	19.281	1605.583	1550.065
545.394	19.313	1605.115	1549.713
546.408	19.188	1602.875	1546.236
547.423	18.909	1601.235	1541.953
548.438	18.789	1601.034	1540.497
549.452	18.998	1600.264	1541.450
550.467	19.125	1599.134	1541.319
551.481	19.186	1597.555	1540.160
552.496	19.195	1597.664	1540.165
553.511	19.423	1596.381	1540.795
554.525	19.480	1594.822	1539.612
555.540	19.463	1594.677	1539.133
556.554	19.476	1593.353	1537.789
557.569	19.426	1591.759	1535.622
558.583	19.192	1590.622	1532.249
559.598	19.216	1589.335	1531.041
560.613	19.196	1588.261	1529.639
561.627	19.345	1586.702	1529.288
562.642	19.512	1585.521	1529.453
563.656	19.684	1584.609	1529.918
564.671	19.543	1582.909	1526.840
565.686	19.508	1581.499	1524.986
566.700	19.313	1580.329	1521.950
567.715	19.210	1578.451	1519.050
568.729	19.138	1576.275	1516.129
569.744	18.954	1575.588	1513.662
570.759	19.028	1574.462	1513.055
571.773	18.940	1574.243	1511.882
572.788	19.237	1573.343	1513.458
573.802	19.288	1571.471	1511.926
574.817	19.510	1569.960	1512.251
575.832	19.646	1569.171	1512.508
576.846	19.490	1567.742	1509.572
577.861	19.327	1567.202	1507.442
578.875	19.441	1566.712	1507.795
579.890	19.773	1564.694	1508.583
580.905	19.638	1564.354	1506.887
581.919	19.689	1564.149	1506.962
582.934	19.657	1563.370	1505.751
583.948	19.788	1561.255	1504.673
584.963	19.623	1559.952	1501.802
585.978	19.408	1558.619	1498.454
586.992	19.551	1557.892	1498.829
588.007	19.685	1556.555	1498.529
589.021	19.430	1554.696	1494.345
590.036	19.140	1553.182	1490.188
591.051	19.214	1552.373	1489.877
592.065	19.421	1551.177	1490.346
593.080	19.650	1549.514	1490.553
594.094	19.653	1547.849	1488.802
595.109	19.520	1545.297	1485.019
596.123	19.325	1544.378	1482.269
597.138	19.538	1544.110	1483.675
598.153	19.591	1543.250	1483.135
599.167	19.491	1542.528	1481.399
600.182	19.606	1541.670	1481.385
601.196	19.754	1540.900	1481.741
602.211	19.634	1538.866	1478.580
603.226	19.883	1537.823	1479.537
604.240	19.811	1537.028	1477.983
605.255	20.000	1535.592	1478.041
606.269	19.914	1534.305	1475.890
607.284	19.882	1533.577	1474.741
608.299	19.912	1532.307	1473.596
609.313	19.742	1530.700	1470.421
610.328	19.799	1529.596	1469.677
611.342	19.886	1528.408	1469.095
612.357	20.071	1527.272	1469.412
613.372	20.097	1526.000	1468.227
614.386	19.883	1524.850	1465.124
615.401	19.887	1524.719	1464.862
616.415	19.918	1523.665	1463.934
617.430	20.116	1523.224	1465.015
618.445	20.123	1521.533	1463.280
619.459	19.935	1520.447	1460.467
620.474	19.705	1518.929	1456.886
621.488	19.353	1517.499	1452.356
622.503	19.162	1516.108	1449.238
623.518	19.490	1516.030	1451.765
624.532	19.796	1514.393	1452.604
625.547	19.878	1513.572	1452.335
626.561	20.128	1513.000	1453.718
627.576	20.107	1511.917	1452.326
628.591	19.714	1510.191	1447.187
629.605	19.454	1509.029	1443.715
630.620	19.264	1507.274	1440.271
631.634	19.171	1505.559	1437.678
632.649	19.202	1504.667	1436.911
633.663	19.507	1504.073	1438.728
634.678	19.785	1503.276	1440.119
635.693	20.076	1502.021	1441.183
636.707	20.145	1500.651	1440.268
637.722	20.423	1499.895	1441.690
638.736	20.366	1499.133	1440.307
639.751	20.373	1498.165	1439.264
640.766	20.348	1496.249	1437.048
641.780	20.244	1495.159	1434.965
642.795	20.269	1494.317	1434.193
643.809	20.224	1493.726	1433.079
644.824	20.287	1492.433	1432.185
645.839	20.082	1491.552	1429.472
646.853	20.127	1490.726	1428.883
647.868	20.155	1488.924	1427.213
648.882	20.130	1487.361	1425.343
649.897	20.093	1486.653	1424.184
650.912	20.050	1485.185	1422.257
651.926	19.880	1484.176	1419.717
652.941	19.763	1482.382	1416.863
653.955	19.666	1479.963	1413.590
654.970	19.474	1478.154	1410.112
655.985	19.383	1477.573	1408.640
656.999	19.520	1476.317	1408.397
658.014	19.690	1475.460	1408.805
659.028	19.822	1475.192	1409.463
660.043	19.831	1474.728	1408.924
661.058	20.197	1472.435	1409.557
662.072	20.222	1471.745	1408.929
663.087	20.108	1470.932	1407.054
664.101	19.993	1470.877	1405.896
665.116	20.082	1469.135	1404.790
666.131	20.248	1468.046	1404.930
667.145	20.172	1467.111	1403.245
668.160	20.425	1465.800	1403.881
669.174	20.598	1463.909	1403.302
670.189	20.446	1463.571	1401.583
671.204	20.407	1462.738	1400.300
672.218	20.268	1461.698	1398.008
673.233	20.447	1460.315	1397.966
674.247	20.518	1459.317	1397.418
675.262	20.520	1458.825	1396.799
676.276	20.449	1457.780	1395.054
677.291	20.403	1457.216	1393.981
678.306	20.216	1455.118	1390.297
679.320	20.226	1453.700	1388.860
680.335	20.372	1454.043	1390.191
681.349	20.335	1453.564	1389.273
682.364	20.495	1452.184	1389.073
683.379	20.443	1450.526	1386.905
684.393	20.357	1448.829	1384.425
685.408	20.497	1448.444	1385.016
686.422	20.417	1446.861	1382.693
687.437	20.325	1446.265	1381.225
688.452	20.564	1445.917	1382.633
689.466	20.519	1444.395	1380.658
690.481	20.415	1442.426	1377.774
691.495	20.059	1440.972	1373.385
692.510	19.559	1439.958	1368.278
693.525	19.533	1437.738	1365.798
694.539	19.541	1437.649	1365.614
695.554	20.133	1437.990	1370.476
696.568	20.389	1437.410	1371.796
697.583	20.604	1435.815	1371.817
698.598	20.582	1435.642	1371.308
699.612	20.594	1434.207	1369.873
700.627	20.665	1432.816	1368.942
701.641	20.645	1430.904	1366.792
702.656	20.540	1430.815	1365.716
703.671	20.774	1430.421	1367.020
704.685	20.712	1429.404	1365.396
705.700	20.613	1428.293	1363.389
706.714	20.559	1426.164	1360.769
707.729	20.468	1424.402	1358.209
708.744	20.341	1423.264	1355.965
709.758	20.381	1421.324	1354.269
710.773	20.083	1420.402	1350.893
711.787	19.951	1419.177	1348.534
712.802	19.984	1418.045	1347.556
713.816	20.290	1417.588	1349.348
714.831	20.401	1417.055	1349.551
715.846	20.641	1415.905	1350.167
716.860	20.740	1414.017	1348.975
717.875	20.669	1413.684	1347.942
718.889	20.527	1412.974	1345.995
719.904	20.682	1412.053	1346.169
720.919	20.657	1411.043	1344.850
721.933	20.632	1410.628	1344.098
722.948	20.866	1409.000	1344.200
723.962	20.744	1408.436	1342.558
724.977	20.929	1406.844	1342.307
725.992	20.882	1405.973	1340.957
727.006	20.830	1404.355	1338.848
728.021	20.772	1403.049	1336.994
729.035	20.903	1402.317	1337.149
730.050	20.833	1401.357	1335.532
731.065	20.830	1400.386	1334.427
732.079	20.852	1399.811	1333.883
733.094	20.834	1397.572	1331.459
734.108	20.808	1396.193	1329.783
735.123	20.719	1395.273	1328.065
736.138	20.838	1394.385	1327.976
737.152	20.878	1393.073	1326.869
738.167	20.952	1392.536	1326.764
739.181	21.042	1391.698	1326.495
740.196	20.906	1391.453	1325.063
741.211	20.940	1390.447	1324.210
742.225	21.014	1388.596	1322.847
743.240	20.928	1387.209	1320.720
744.254	20.883	1385.926	1318.992
745.269	20.932	1385.141	1318.465
746.284	20.963	1383.905	1317.361
747.298	20.757	1382.945	1314.726
748.313	20.274	1381.238	1309.287
749.327	19.969	1380.474	1306.093
750.342	19.752	1378.859	1302.768
751.356	19.589	1377.208	1299.817
752.371	19.902	1375.935	1300.822
753.386	20.472	1376.213	1305.237
754.400	20.757	1376.325	1307.341
755.415	20.953	1375.144	1307.537
756.429	20.945	1374.123	1306.352
757.444	20.926	1372.814	1304.806
758.459	20.977	1371.702	1303.973
759.473	20.969	1371.333	1303.411
760.488	21.207	1369.971	1303.745
761.502	21.141	1368.596	1301.788
762.517	20.915	1367.720	1299.102
763.532	20.862	1365.593	1296.530
764.546	20.638	1364.513	1293.678
765.561	20.229	1364.158	1290.130
766.575	20.016	1362.369	1286.691
767.590	19.954	1360.804	1284.599
768.605	20.282	1360.545	1286.641
769.619	20.526	1359.581	1287.398
770.634	20.791	1358.518	1288.205
771.648	21.067	1357.965	1289.575
772.663	20.960	1357.728	1288.406
773.678	21.051	1357.215	1288.439
774.692	21.084	1356.538	1287.883
775.707	21.057	1356.222	1287.228
776.721	21.168	1355.113	1286.850
777.736	21.171	1353.445	1285.134
778.751	21.164	1351.826	1283.386
779.765	21.038	1351.533	1282.022
780.780	20.890	1351.373	1280.628
781.794	21.037	1350.012	1280.270
782.809	20.865	1348.705	1277.607
783.824	20.972	1346.871	1276.504
784.838	20.540	1344.423	1270.857
785.853	19.948	1343.575	1265.556
786.867	20.181	1343.418	1266.970
787.882	20.422	1343.503	1268.667
788.897	20.612	1342.562	1269.022
789.911	20.790	1341.910	1269.557
790.926	20.789	1340.800	1268.346
791.940	21.013	1338.931	1268.067
792.955	21.008	1337.773	1266.780
793.969	21.124	1336.821	1266.574
794.984	21.093	1335.913	1265.337
795.999	21.094	1335.243	1264.558
797.013	21.193	1334.112	1264.056
798.028	21.057	1332.949	1261.815
799.042	21.072	1332.437	1261.283
800.057	21.323	1330.918	1261.518
801.072	21.319	1329.454	1259.955
802.086	21.225	1328.300	1258.027
803.101	21.395	1326.604	1257.500
804.115	21.228	1326.218	1255.776
805.130	21.313	1324.726	1254.822
806.145	21.329	1323.514	1253.642
807.159	21.263	1322.179	1251.755
808.174	21.013	1321.583	1249.242
809.188	20.899	1320.498	1247.243
810.203	20.674	1319.354	1244.393
811.218	20.631	1317.250	1241.955
812.232	20.378	1315.052	1237.918
813.247	20.187	1314.212	1235.612
814.261	20.588	1314.326	1238.443
815.276	20.894	1313.586	1239.787
816.291	21.084	1313.091	1240.527
817.305	21.207	1312.414	1240.617
818.320	21.357	1310.777	1239.992
819.334	21.353	1309.511	1238.617
820.349	21.255	1307.515	1235.884
821.364	21.381	1306.802	1235.957
822.378	21.445	1305.737	1235.261
823.393	21.374	1304.057	1233.017
824.407	21.296	1303.849	1232.125
825.422	21.083	1303.530	1230.164
826.437	21.099	1301.953	1228.638
827.451	20.957	1299.285	1224.972
828.466	20.554	1297.048	1219.873
829.480	20.409	1295.177	1216.950
830.495	20.520	1293.704	1216.203
831.509	20.845	1293.429	1218.082
832.524	21.080	1293.421	1219.578
833.539	21.063	1292.736	1218.665
834.553	21.055	1291.921	1217.699
835.568	21.337	1290.665	1218.342
836.582	21.294	1290.071	1217.336
837.597	21.598	1287.929	1217.292
838.612	21.378	1286.569	1214.324
839.626	21.339	1284.961	1212.395
840.641	21.000	1284.145	1209.113
841.655	20.710	1283.389	1206.238
842.670	20.306	1282.053	1202.025
843.685	20.051	1280.906	1199.033
844.699	20.589	1279.820	1201.610
845.714	21.091	1278.372	1203.589
846.728	21.222	1277.559	1203.585
847.743	21.345	1277.426	1204.169
848.758	21.210	1276.564	1202.278
849.772	21.209	1275.490	1201.117
850.787	21.348	1273.840	1200.379
851.801	21.264	1272.792	1198.668
852.816	21.370	1271.364	1197.909
853.831	21.212	1269.980	1195.377
854.845	21.234	1268.003	1193.523
855.860	21.011	1266.369	1190.310
856.874	20.885	1265.276	1188.281
857.889	20.632	1263.983	1185.190
858.904	20.398	1261.981	1181.573
859.918	20.220	1260.119	1178.468
860.933	20.006	1259.665	1176.441
861.947	20.416	1258.700	1178.199
862.962	20.685	1257.767	1179.016
863.977	20.905	1256.670	1179.347
864.991	20.876	1256.323	1178.680
866.006	21.052	1256.413	1179.816
867.020	21.197	1255.065	1179.395
868.035	21.257	1253.996	1178.657
869.049	21.261	1253.667	1178.233
870.064	21.450	1251.703	1177.525
871.079	21.530	1250.952	1177.220
872.093	21.286	1251.028	1175.499
873.108	21.235	1249.508	1173.592
874.122	21.160	1247.983	1171.510
875.137	20.901	1246.438	1168.171
876.152	20.781	1245.712	1166.542
877.166	20.892	1244.122	1165.664
878.181	21.172	1243.615	1166.932
879.195	21.340	1243.617	1167.920
880.210	21.321	1242.189	1166.315
881.225	21.478	1241.592	1166.668
882.239	21.400	1240.869	1165.322
883.254	21.416	1239.837	1164.323
884.268	21.274	1239.133	1162.572
885.283	21.413	1237.698	1162.012
886.298	21.323	1236.169	1159.838
887.312	21.322	1235.391	1158.963
888.327	21.395	1234.362	1158.347
889.341	21.313	1232.486	1155.901
890.356	21.292	1232.074	1155.237
891.371	21.337	1231.916	1155.250
892.385	21.141	1230.841	1152.800
893.400	21.171	1229.427	1151.540
894.414	21.049	1227.953	1149.210
895.429	20.733	1226.030	1145.184
896.444	20.314	1223.300	1139.736
897.458	19.830	1222.758	1135.900
898.473	20.193	1222.862	1138.253
899.487	20.666	1222.475	1140.877
900.502	21.062	1221.648	1142.574
901.517	21.137	1221.105	1142.423
902.531	21.211	1220.493	1142.200
903.546	21.295	1220.023	1142.175
904.560	21.416	1218.729	1141.624
905.575	21.470	1217.628	1140.813
906.589	21.442	1216.855	1139.763
907.604	21.430	1216.188	1138.928
