DTS Sentinel unit serial number:	SN409020Multiplexer serial number:	ORYXHardware model number:	OX4-SRSoftware version number:	ORYX F/W v3.00 Oryx Data Collector v3.7.2.0data status	okinstallation	HaddamTimeLapsedifferential loss correction	single-endedforward channel	channel 3reverse channel	N/Adate	2011/06/21time	22:26:17forward acquisition time	30.00reverse acquisition time	0.00gamma	498.7831k internal	0.1757k external	0.1757temperature offset calibration	1.0074default loss term (dB/km)	0.3790temperature slope calibration	1.3530multiplexer offset coefficient	1.0000multiplexer slope coefficient	1.0000fibre end	0.00T internal ref (°C)	24.22T ext. ref 1 (°C)	18.78T ext. ref 2 (°C)	0.04length (m)	temperature (°C)	Stokes	anti-Stokes-747.200	315.885	-0.148	-0.372
-746.185	-200.000	0.014	0.319
-745.171	187.218	-0.049	-0.098
-744.156	-18.419	0.097	0.080
-743.142	-200.000	-0.058	0.402
-742.127	-17.176	0.314	0.262
-741.112	-51.599	-0.266	-0.164
-740.098	-156.069	0.198	-0.016
-739.083	800.000	-0.031	-0.149
-738.069	432.241	0.089	0.258
-737.054	437.351	-0.087	-0.252
-736.039	800.000	-0.074	0.402
-735.025	-59.610	-0.108	-0.061
-734.010	-96.865	0.516	-0.178
-732.996	3.070	-0.117	-0.112
-731.981	105.720	-0.091	-0.143
-730.966	800.000	0.126	0.517
-729.952	800.000	-0.016	-0.066
-728.937	554.083	-0.085	-0.273
-727.923	-2.717	-0.159	-0.147
-726.908	-10.139	-0.135	0.119
-725.894	-200.000	-0.011	-0.222
-724.879	800.000	0.031	-0.119
-723.864	-103.282	-0.593	-0.184
-722.850	8.685	-0.312	-0.311
-721.835	-11.472	0.270	-0.235
-720.821	-96.706	0.144	0.050
-719.806	-140.431	-0.352	-0.048
-718.791	-89.353	-0.570	0.221
-717.777	800.000	-0.054	-0.215
-716.762	-72.642	-0.321	-0.156
-715.748	-143.527	-0.275	-0.034
-714.733	-200.000	-0.057	0.453
-713.718	-200.000	-0.016	-0.318
-712.704	106.654	-0.245	0.386
-711.689	4.563	-0.190	-0.185
-710.675	210.725	0.167	-0.349
-709.660	-73.274	-0.498	0.240
-708.645	-3.939	0.123	-0.113
-707.631	-200.000	-0.084	-0.547
-706.616	-148.811	0.112	0.012
-705.602	-94.281	-0.195	-0.070
-704.587	800.000	0.045	0.258
-703.572	-43.595	0.137	-0.091
-702.558	68.477	0.077	0.105
-701.543	107.000	-0.144	0.227
-700.529	-200.000	-0.116	0.678
-699.514	90.012	0.150	0.222
-698.499	-66.864	-0.071	0.037
-697.485	-72.750	0.104	-0.050
-696.470	800.000	-0.064	0.328
-695.456	800.000	-0.043	0.247
-694.441	220.134	-0.226	-0.481
-693.426	-66.596	-0.184	0.096
-692.412	-200.000	0.049	0.401
-691.397	-52.742	0.228	-0.139
-690.383	2.172	0.088	-0.084
-689.368	10.399	0.255	-0.257
-688.354	-141.839	0.392	-0.051
-687.339	-8.549	0.528	0.468
-686.324	-85.256	0.177	0.073
-685.310	-200.000	0.005	0.269
-684.295	-200.000	0.008	-0.292
-683.281	-49.949	0.319	-0.200
-682.266	-92.683	0.167	-0.061
-681.251	-200.000	-0.017	-0.325
-680.237	58.918	0.147	-0.191
-679.222	-107.467	0.401	-0.115
-678.208	-38.870	0.269	0.186
-677.193	-131.921	0.166	0.028
-676.178	-133.612	0.297	0.049
-675.164	44.055	0.233	-0.282
-674.149	-82.426	-0.254	0.108
-673.135	-41.408	-0.175	-0.119
-672.120	-27.198	-0.165	0.127
-671.105	800.000	0.089	0.450
-670.091	127.392	-0.067	-0.113
-669.076	141.644	-0.230	-0.403
-668.062	-142.937	0.552	-0.070
-667.047	49.571	-0.070	-0.088
-666.032	-5.886	-0.425	0.383
-665.018	657.024	0.042	0.145
-664.003	39.438	-0.204	-0.241
-662.989	21.414	0.163	0.175
-661.974	66.704	-0.147	0.198
-660.959	-90.132	0.497	-0.190
-659.945	303.231	-0.064	0.157
-658.930	-87.917	-0.265	-0.105
-657.916	-38.567	0.119	0.083
-656.901	-30.788	0.277	0.206
-655.886	-43.571	0.169	-0.112
-654.872	800.000	0.040	-0.175
-653.857	305.108	-0.157	0.386
-652.843	-200.000	0.011	0.563
-651.828	85.943	0.104	-0.151
-650.814	-16.434	-0.198	0.166
-649.799	-120.546	-0.399	0.089
-648.784	101.931	-0.190	-0.293
-647.770	-200.000	-0.005	0.088
-646.755	163.669	0.151	-0.280
-645.741	-200.000	0.006	-0.257
-644.726	-26.758	0.323	-0.249
-643.711	-67.802	0.353	-0.181
-642.697	-177.455	-0.603	-0.019
-641.682	-112.817	-0.381	0.099
-640.668	-72.023	-0.143	0.070
-639.653	-200.000	-0.018	-0.173
-638.638	-93.973	0.238	0.086
-637.624	-127.943	0.268	0.050
-636.609	14.705	0.065	0.067
-635.595	3.309	0.340	0.326
-634.580	-82.143	0.215	-0.092
-633.565	15.005	0.157	0.162
-632.551	-72.836	-0.076	0.037
-631.536	144.556	0.061	-0.108
-630.522	-99.614	0.766	-0.252
-629.507	-177.180	0.363	-0.012
-628.492	800.000	0.046	-0.244
-627.478	239.756	-0.153	-0.337
-626.463	-161.266	-0.462	-0.031
-625.449	26.909	0.183	-0.202
-624.434	-11.467	-0.466	-0.404
-623.419	-200.000	0.022	-0.375
-622.405	-137.319	-0.144	0.021
-621.390	93.595	-0.187	-0.280
-620.376	-114.873	0.151	0.038
-619.361	-200.000	0.020	-0.277
-618.346	-151.876	-0.240	0.023
-617.332	212.904	0.152	-0.317
-616.317	316.455	0.092	0.230
-615.303	-131.463	0.340	-0.059
-614.288	385.950	-0.097	-0.265
-613.273	-200.000	-0.108	-0.925
-612.259	800.000	-0.145	-0.579
-611.244	418.243	-0.184	-0.520
-610.230	106.370	0.119	-0.186
-609.215	28.250	-0.049	0.055
-608.201	800.000	-0.025	0.125
-607.186	302.447	0.210	-0.513
-606.171	800.000	0.048	0.181
-605.157	-200.000	-0.028	-0.275
-604.142	1.684	0.197	-0.187
-603.128	265.513	0.109	0.251
-602.113	800.000	-0.077	0.392
-601.098	-157.424	-0.139	-0.011
-600.084	452.392	0.057	0.167
-599.069	-69.625	0.699	0.350
-598.055	800.000	-0.018	-0.096
-597.040	-104.248	-0.183	0.056
-596.025	800.000	-0.085	0.467
-595.011	53.028	0.279	-0.352
-593.996	-119.579	-0.357	-0.081
-592.982	476.683	0.155	0.463
-591.967	-129.546	0.575	0.104
-590.952	59.427	0.061	-0.079
-589.938	-100.928	0.235	0.075
-588.923	-200.000	-0.031	0.206
-587.909	-51.492	-0.393	-0.241
-586.894	20.327	0.271	-0.288
-585.879	-115.439	0.282	0.069
-584.865	-93.452	-0.327	0.118
-583.850	36.899	-0.274	0.319
-582.836	92.649	-0.346	0.515
-581.821	276.842	0.077	-0.181
-580.806	-52.050	-0.250	-0.152
-579.792	222.344	-0.095	-0.202
-578.777	-89.404	-0.106	-0.041
-577.763	208.950	0.124	-0.256
-576.748	-138.656	0.224	-0.032
-575.733	800.000	0.075	0.386
-574.719	-200.000	0.016	0.283
-573.704	-119.809	0.101	-0.023
-572.690	800.000	-0.077	0.396
-571.675	-200.000	-0.017	0.338
-570.661	156.103	0.330	0.600
-569.646	-38.103	-0.452	-0.315
-568.631	145.846	-0.100	-0.177
-567.617	235.057	0.014	0.030
-566.602	-81.966	0.364	0.156
-565.588	-71.003	0.527	0.260
-564.573	-131.995	0.169	0.029
-563.558	-72.517	0.474	-0.229
-562.544	-103.097	0.410	-0.127
-561.529	-21.117	0.095	0.076
-560.515	-111.419	0.487	0.130
-559.500	-18.833	-0.310	0.253
-558.485	-49.316	0.360	0.225
-557.471	-97.489	0.733	-0.249
-556.456	29.534	0.182	0.204
-555.442	-31.899	0.561	0.412
-554.427	-108.468	0.248	-0.070
-553.412	-12.972	0.279	0.238
-552.398	-42.364	-0.196	0.131
-551.383	-98.109	-0.193	-0.065
-550.369	-54.146	-0.343	-0.204
-549.354	29.931	0.184	0.206
-548.339	-3.426	0.576	-0.526
-547.325	41.993	-0.166	-0.198
-546.310	-130.998	0.245	-0.042
-545.296	201.171	0.038	-0.078
-544.281	324.976	0.168	-0.424
-543.266	-124.407	0.423	-0.086
-542.252	-149.668	0.380	0.039
-541.237	286.647	-0.188	-0.447
-540.223	73.694	0.291	-0.401
-539.208	596.802	0.037	0.120
-538.193	308.789	-0.155	-0.383
-537.179	88.950	0.054	-0.080
-536.164	140.308	-0.108	0.188
-535.150	291.269	0.142	0.341
-534.135	-153.080	-0.118	-0.011
-533.121	-61.918	-0.236	0.129
-532.106	-127.296	-0.389	-0.074
-531.091	800.000	-0.041	0.195
-530.077	357.207	0.133	0.349
-529.062	-100.750	-0.231	0.074
-528.048	-2.561	-0.395	0.362
-527.033	126.231	-0.079	0.132
-526.018	-99.187	0.357	-0.118
-525.004	672.090	0.141	0.482
-523.989	-134.196	-0.162	-0.026
-522.975	-142.568	0.289	-0.037
-521.960	-200.000	-0.056	-0.364
-520.945	-20.328	0.296	0.239
-519.931	17.211	0.139	0.144
-518.916	48.247	0.101	0.124
-517.902	38.443	0.148	-0.173
-516.887	-188.478	-0.408	0.007
-515.872	-74.353	-0.267	0.126
-514.858	20.440	0.291	0.308
-513.843	-169.882	-0.398	-0.018
-512.829	-38.856	-0.243	-0.167
-511.814	800.000	-0.076	0.393
-510.799	-126.489	-0.359	-0.069
-509.785	-162.849	0.214	-0.014
-508.770	-200.000	0.617	-0.002
-507.756	433.141	-0.064	-0.184
-506.741	588.546	-0.020	-0.066
-505.726	-49.391	0.272	-0.170
-504.712	80.105	-0.106	-0.150
-503.697	-150.459	-0.460	-0.046
-502.683	-117.714	-0.279	0.065
-501.668	102.337	0.150	0.230
-500.653	-173.793	0.476	0.018
-499.639	-181.904	-0.410	-0.010
-498.624	-8.177	-0.366	-0.323
-497.610	-200.000	0.237	-0.001
-496.595	-24.744	0.252	-0.196
-495.581	80.566	-0.108	-0.153
-494.566	-46.070	-0.259	-0.167
-493.551	-87.057	-0.196	0.078
-492.537	98.906	-0.178	0.269
-491.522	6.709	-0.147	0.143
-490.508	-94.232	0.558	-0.199
-489.493	77.555	0.338	0.472
-488.478	234.244	0.165	0.358
-487.464	86.286	0.284	-0.411
-486.449	-141.063	0.466	-0.062
-485.435	-55.350	-0.094	0.055
-484.420	-128.073	-0.283	-0.053
-483.405	-118.432	0.460	0.106
-482.391	-186.760	0.171	0.003
-481.376	-2.231	-0.220	0.202
-480.362	-200.000	0.015	0.166
-479.347	243.589	0.070	0.154
-478.332	8.509	0.024	0.024
-477.318	350.568	-0.201	-0.524
-476.303	106.648	0.155	0.242
-475.289	-124.609	0.096	-0.019
-474.274	-31.652	-0.099	0.073
-473.259	-184.431	-0.149	-0.003
-472.245	-200.000	-0.058	-0.381
-471.230	90.909	-0.248	-0.364
-470.216	278.666	0.139	-0.326
-469.201	-28.259	0.195	0.148
-468.186	800.000	0.072	0.305
-467.172	-119.101	0.398	0.090
-466.157	-20.570	-0.087	0.070
-465.143	-144.934	0.100	0.012
-464.128	-4.438	0.328	-0.297
-463.113	-21.137	-0.298	0.238
-462.099	210.429	-0.261	-0.539
-461.084	145.716	0.133	-0.233
-460.070	505.280	-0.156	0.474
-459.055	210.580	-0.031	-0.065
-458.040	-32.105	-0.201	-0.147
-457.026	154.336	-0.019	-0.034
-456.011	-79.805	-0.411	0.180
-454.997	-52.644	0.478	0.288
-453.982	794.217	0.076	0.275
-452.968	358.665	-0.216	0.569
-451.953	21.671	0.277	0.295
-450.938	-76.894	0.325	0.148
-449.924	-154.787	-0.190	0.016
-448.909	114.100	0.059	0.094
-447.895	-44.450	0.354	-0.231
-446.880	-69.975	0.526	-0.261
-445.865	800.000	0.034	-0.186
-444.851	800.000	0.064	0.241
-443.836	800.000	-0.076	-0.384
-442.822	333.013	0.123	-0.313
-441.807	-95.525	0.154	0.054
-440.792	-35.400	0.038	0.027
-439.778	-200.000	-0.012	-0.191
-438.763	35.697	-0.303	0.348
-437.749	0.319	0.203	-0.190
-436.734	-200.000	-0.238	-0.001
-435.719	800.000	-0.037	-0.144
-434.705	-61.741	-0.145	0.079
-433.690	-48.018	-0.129	-0.081
-432.676	-200.000	-0.026	0.350
-431.661	27.360	0.421	0.463
-430.646	-151.425	-0.072	-0.007
-429.632	-12.229	-0.229	0.196
-428.617	-113.349	-0.173	0.044
-427.603	-79.391	0.269	0.118
-426.588	534.633	-0.100	-0.311
-425.573	-64.333	0.296	-0.157
-424.559	800.000	-0.106	-0.600
-423.544	169.527	0.164	0.307
-422.530	421.565	0.097	0.272
-421.515	800.000	-0.070	-0.297
-420.500	225.391	-0.248	-0.526
-419.486	9.169	0.331	-0.327
-418.471	-200.000	0.020	-0.506
-417.457	153.929	-0.051	0.091
-416.442	-158.207	-0.505	0.038
-415.428	-117.564	0.294	-0.069
-414.413	-28.406	0.149	-0.112
-413.398	140.683	-0.263	0.456
-412.384	344.760	0.321	0.826
-411.369	100.205	-0.063	-0.095
-410.355	-63.386	-0.387	-0.207
-409.340	-120.740	-0.436	0.095
-408.325	-135.145	-0.555	0.086
-407.311	-50.351	-0.241	-0.148
-406.296	140.107	-0.222	-0.384
-405.282	-200.000	-0.028	0.408
-404.267	-51.326	0.127	0.077
-403.252	-98.955	0.822	0.271
-402.238	6.674	0.289	0.281
-401.223	-89.472	-0.012	0.005
-400.209	-44.002	0.074	0.049
-399.194	31.867	0.060	0.068
-398.179	-109.915	-0.161	0.044
-397.165	-33.725	0.322	-0.232
-396.150	800.000	0.049	-0.269
-395.136	133.335	0.221	0.374
-394.121	-33.610	-0.154	0.111
-393.106	281.674	0.036	-0.084
-392.092	-16.309	0.047	0.039
-391.077	269.467	0.029	-0.067
-390.063	-141.739	0.324	0.042
-389.048	-179.944	0.315	-0.009
-388.033	675.445	-0.032	-0.108
-387.019	-200.000	-0.060	0.442
-386.004	34.530	0.106	-0.121
-384.990	300.780	-0.057	0.137
-383.975	33.111	0.199	-0.225
-382.960	-120.330	-0.499	-0.110
-381.946	-24.405	0.366	-0.284
-380.931	-120.991	-0.472	0.103
-379.917	140.211	0.319	-0.551
-378.902	800.000	0.025	-0.142
-377.888	-78.089	-0.266	0.119
-376.873	-3.750	-0.281	-0.254
-375.858	-200.000	0.010	0.138
-374.844	-73.796	0.112	0.053
-373.829	34.410	0.387	0.441
-372.815	-13.363	-0.410	0.346
-371.800	221.964	0.110	0.233
-370.785	-55.195	0.382	0.223
-369.771	-125.904	-0.337	0.066
-368.756	-55.288	-0.203	-0.118
-367.742	248.478	-0.072	0.159
-366.727	-190.764	0.478	-0.006
-365.712	206.506	0.242	-0.494
-364.698	536.800	-0.038	0.118
-363.683	-125.602	-0.160	0.031
-362.669	-51.621	0.223	-0.135
-361.654	79.184	0.043	0.060
-360.639	151.742	-0.093	0.166
-359.625	352.407	0.082	0.213
-358.610	-87.449	0.189	0.074
-357.596	-200.000	0.010	0.070
-356.581	54.696	0.221	0.278
-355.566	-200.000	-0.004	0.341
-354.552	-35.814	0.327	0.230
-353.537	188.036	-0.243	-0.475
-352.523	-200.000	0.005	-0.276
-351.508	800.000	0.030	0.163
-350.493	141.750	0.190	-0.329
-349.479	800.000	0.064	-0.334
-348.464	-2.634	0.191	-0.174
-347.450	91.091	0.163	0.239
-346.435	218.269	0.129	-0.269
-345.420	773.355	0.056	-0.201
-344.406	-71.848	-0.427	0.206
-343.391	-117.958	-0.291	-0.067
-342.377	10.214	-0.240	0.238
-341.362	-124.558	-0.208	-0.042
-340.348	-200.000	0.024	0.190
-339.333	-46.626	0.187	0.119
-338.318	-112.340	-0.228	-0.059
-337.304	50.789	-0.263	0.324
-336.289	755.541	-0.106	0.376
-335.275	-122.402	-0.520	0.110
-334.260	-126.081	-0.659	-0.128
-333.245	-102.618	0.338	-0.104
-332.231	-161.960	0.233	0.015
-331.216	112.868	0.309	-0.488
-330.202	800.000	-0.055	0.304
-329.187	21.022	0.171	-0.180
-328.172	42.813	-0.388	0.461
-327.158	220.514	0.101	0.212
-326.143	-106.853	0.164	0.047
-325.129	-103.834	-0.252	0.076
-324.114	-200.000	0.005	0.270
-323.099	-165.455	0.511	0.029
-322.085	217.029	-0.229	-0.477
-321.070	64.159	-0.109	-0.143
-320.056	800.000	-0.062	0.225
-319.041	124.561	0.135	-0.221
-318.026	-71.459	-0.524	-0.254
-317.012	-69.285	0.164	-0.082
-315.997	522.334	0.061	0.187
-314.983	240.325	0.167	0.364
-313.968	127.758	-0.045	-0.075
-312.953	-95.415	-0.278	0.097
-311.939	-1.385	-0.039	0.036
-310.924	-178.500	-0.384	-0.011
-309.910	85.161	-0.143	0.205
-308.895	-10.199	-0.484	-0.418
-307.880	352.794	-0.096	-0.248
-306.866	-200.000	-0.007	0.206
-305.851	-200.000	-0.041	0.289
-304.837	136.718	-0.016	0.027
-303.822	-79.746	0.192	-0.084
-302.807	423.413	0.046	0.128
-301.793	800.000	0.058	0.258
-300.778	290.182	0.065	0.154
-299.764	34.606	-0.280	-0.318
-298.749	144.278	-0.055	0.095
-297.735	-173.267	0.071	0.003
-296.720	-200.000	0.079	0.623
-295.705	-145.385	0.664	-0.077
-294.691	24.095	0.491	-0.527
-293.676	-200.000	0.002	-0.161
-292.662	800.000	-0.013	-0.055
-291.647	-34.666	-0.283	-0.201
-290.632	-43.156	-0.498	-0.327
-289.618	-14.097	0.094	-0.079
-288.603	143.386	0.028	0.049
-287.589	-200.000	-0.038	-0.353
-286.574	-178.282	-0.567	-0.017
-285.559	94.131	-0.258	-0.381
-284.545	-79.948	0.485	0.211
-283.530	-155.127	0.212	-0.018
-282.516	254.512	-0.121	-0.270
-281.501	47.377	-0.196	-0.237
-280.486	-94.363	-0.448	-0.158
-279.472	-36.488	-0.253	0.177
-278.457	-47.976	-0.155	-0.097
-277.443	-85.993	0.277	-0.111
-276.428	-200.000	0.021	0.285
-275.413	-125.777	-0.442	-0.086
-274.399	-40.762	0.110	-0.074
-273.384	-46.856	0.131	0.083
-272.370	31.658	0.113	0.127
-271.355	114.264	-0.120	-0.190
-270.340	314.841	0.114	-0.281
-269.326	-200.000	0.006	0.152
-268.311	-26.107	-0.116	-0.089
-267.297	800.000	-0.057	-0.258
-266.282	37.465	-0.255	-0.294
-265.267	-107.283	0.162	0.046
-264.253	54.677	-0.129	-0.161
-263.238	-93.313	-0.303	0.108
-262.224	525.385	-0.105	-0.323
-261.209	-184.418	0.390	-0.008
-260.195	461.288	-0.210	0.613
-259.180	-98.760	-0.335	0.110
-258.165	-8.487	0.335	0.292
-257.151	800.000	-0.037	-0.194
-256.136	-171.118	-0.739	-0.032
-255.122	-69.348	-0.482	-0.240
-254.107	-200.000	0.087	0.615
-253.092	-99.869	0.349	0.113
-252.078	-159.228	-0.311	0.022
-251.063	215.877	-0.262	-0.542
-250.049	-125.398	0.083	-0.016
-249.034	258.350	0.136	0.305
-248.019	389.522	0.086	0.232
-247.005	-200.000	-0.027	0.324
-245.990	-126.125	-0.455	-0.088
-244.976	123.678	0.084	0.137
-243.961	388.160	-0.081	-0.218
-242.946	-129.714	-0.196	-0.035
-241.932	104.827	-0.348	0.534
-240.917	180.446	0.029	0.056
-239.903	572.901	-0.072	0.230
-238.888	509.976	-0.179	0.542
-237.873	-200.000	-0.014	0.215
-236.859	-103.223	-0.405	-0.123
-235.844	56.767	-0.294	0.372
-234.830	59.651	-0.157	-0.202
-233.815	-33.218	-0.158	-0.113
-232.800	-146.419	-0.513	0.057
-231.786	-100.861	0.270	-0.085
-230.771	98.393	-0.200	-0.300
-229.757	-137.827	-0.263	0.038
-228.742	-140.964	0.349	-0.046
-227.727	-200.000	0.015	-0.182
-226.713	41.157	0.342	0.401
-225.698	352.541	-0.084	-0.218
-224.684	-53.853	-0.109	0.064
-223.669	-200.000	-0.003	0.195
-222.655	57.595	0.343	0.435
-221.640	800.000	0.083	0.312
-220.625	-51.713	-0.181	-0.109
-219.611	-9.337	-0.899	0.778
-218.596	800.000	-0.055	0.278
-217.582	-21.870	-0.499	0.393
-216.567	-79.064	-0.400	-0.175
-215.552	141.431	-0.221	-0.381
-214.538	6.944	0.068	0.066
-213.523	-22.325	-0.208	0.163
-212.509	-189.973	0.084	-0.001
-211.494	23.924	0.294	-0.315
-210.479	219.170	0.130	-0.271
-209.465	-200.000	-0.037	-0.399
-208.450	-27.862	-0.254	-0.191
-207.436	-24.713	-0.274	-0.211
-206.421	-41.712	0.158	-0.105
-205.406	12.393	0.073	-0.072
-204.392	-168.476	-0.109	-0.005
-203.377	-70.628	0.059	-0.029
-202.363	-53.229	-0.457	-0.271
-201.348	-19.888	0.334	-0.267
-200.333	800.000	0.087	0.313
-199.319	350.689	-0.073	0.189
-198.304	39.212	0.192	-0.223
-197.290	-200.000	0.054	-0.533
-196.275	80.379	-0.074	0.103
-195.260	50.009	0.503	0.615
-194.246	-96.856	0.102	-0.034
-193.231	-68.278	0.201	0.101
-192.217	-56.020	0.337	-0.194
-191.202	-200.000	-0.026	0.549
-190.187	19.646	-0.211	-0.219
-189.173	-118.688	-0.333	0.075
-188.158	800.000	-0.073	-0.359
-187.144	-75.921	-0.202	-0.092
-186.129	-50.235	-0.234	-0.143
-185.114	-158.353	-0.193	0.014
-184.100	116.388	0.174	-0.277
-183.085	800.000	-0.078	0.300
-182.071	800.000	-0.086	0.428
-181.056	282.652	-0.053	-0.124
-180.042	-157.840	-0.223	-0.017
-179.027	-200.000	0.042	-0.282
-178.012	-26.980	-0.140	0.106
-176.998	15.249	0.322	-0.327
-175.983	111.871	-0.203	-0.317
-174.969	-59.028	-0.213	0.119
-173.954	225.414	-0.052	-0.110
-172.939	-42.185	-0.388	0.256
-171.925	132.806	0.049	0.081
-170.910	78.424	0.142	-0.196
-169.896	-107.477	-0.093	0.026
-168.881	-93.145	-0.054	0.019
-167.866	-21.963	-0.172	-0.135
-166.852	-151.362	0.220	0.021
-165.837	205.261	0.050	0.101
-164.823	-155.440	-0.183	-0.015
-163.808	196.764	0.108	0.214
-162.793	-67.530	0.615	0.311
-161.779	470.254	-0.198	-0.578
-160.764	-136.332	0.137	-0.020
-159.750	183.975	0.027	0.052
-158.735	-200.000	0.012	0.166
-157.720	-97.370	-0.401	-0.134
-156.706	481.085	-0.151	0.446
-155.691	-22.805	0.503	0.392
-154.677	-67.595	0.216	-0.109
-153.662	-120.362	-0.367	-0.080
-152.647	-68.410	0.161	-0.080
-151.633	-103.214	0.276	-0.084
-150.618	-151.723	0.219	-0.021
-149.604	248.786	0.115	0.252
-148.589	-115.621	0.314	-0.076
-147.574	800.000	-0.113	0.485
-146.560	-200.000	-0.028	-0.184
-145.545	123.953	-0.204	-0.333
-144.531	800.000	-0.073	-0.291
-143.516	-66.633	-0.266	-0.136
-142.502	-43.805	0.261	-0.169
-141.487	444.639	0.163	0.464
-140.472	374.299	0.011	0.029
-139.458	-144.421	0.080	-0.009
-138.443	800.000	0.104	-0.575
-137.429	616.573	-0.064	0.210
-136.414	800.000	-0.068	-0.345
-135.399	89.675	0.157	0.227
-134.385	-84.941	0.302	0.122
-133.370	-200.000	-0.010	-0.263
-132.356	-73.516	-0.357	-0.168
-131.341	-188.960	0.515	0.008
-130.326	49.213	0.432	-0.526
-129.312	35.528	0.384	0.436
-128.297	191.177	0.105	0.204
-127.283	647.539	-0.092	-0.307
-126.268	-61.718	0.138	-0.074
-125.253	-3.740	-0.446	0.400
-124.239	-169.815	0.184	0.008
-123.224	5.551	0.187	-0.179
-122.210	-133.134	-0.440	-0.071
-121.195	800.000	0.081	-0.296
-120.180	-58.640	0.173	-0.097
-119.166	179.712	-0.234	-0.445
-118.151	444.552	0.062	0.177
-117.137	-7.854	-0.180	-0.157
-116.122	-162.453	-0.473	0.030
-115.107	80.749	0.260	0.362
-114.093	164.654	0.061	-0.112
-113.078	-68.718	-0.265	-0.132
-112.064	-110.456	-0.410	0.109
-111.049	-200.000	0.015	-0.091
-110.034	514.317	0.074	0.225
-109.020	800.000	0.020	-0.107
-108.005	172.024	0.055	0.102
-106.991	-69.870	-0.148	0.073
-105.976	-89.264	-0.460	0.174
-104.962	-32.107	-0.145	-0.104
-103.947	-200.000	0.010	-0.132
-102.932	-101.222	-0.371	-0.116
-101.918	74.150	0.085	0.115
-100.903	-101.648	0.489	0.152
-99.889	-94.380	0.381	0.133
-98.874	800.000	-0.141	0.512
-97.859	103.099	0.397	0.602
-96.845	37.908	0.333	0.382
-95.830	-200.000	-0.006	0.280
-94.816	800.000	0.048	0.195
-93.801	-58.676	0.217	-0.121
-92.786	502.475	-0.086	0.258
-91.772	37.731	-0.086	0.099
-90.757	-107.872	-0.647	-0.181
-89.743	212.811	-0.228	0.465
-88.728	-200.000	-0.003	-0.098
-87.713	-100.486	-0.269	0.085
-86.699	-17.179	0.502	0.408
-85.684	-200.000	-0.029	-0.419
-84.670	-113.588	-0.270	-0.068
-83.655	525.241	0.201	-0.613
-82.640	-6.657	0.165	-0.144
-81.626	-82.990	-0.124	0.051
-80.611	75.407	0.527	-0.718
-79.597	-134.769	-0.532	0.083
-78.582	-200.000	0.031	-0.642
-77.567	-56.526	-0.314	0.179
-76.553	-81.315	-0.377	0.160
-75.538	436.204	0.031	-0.088
-74.524	223.087	-0.327	-0.682
-73.509	-103.346	-0.554	-0.168
-72.494	-97.308	-0.539	0.180
-71.480	155.292	0.069	0.124
-70.465	-191.723	0.221	0.003
-69.451	-200.000	0.064	0.480
-68.436	-144.223	0.103	0.012
-67.422	800.000	-0.039	-0.190
-66.407	-182.781	0.294	0.007
-65.392	-200.000	0.015	0.245
-64.378	-21.428	-0.323	0.254
-63.363	-161.200	-0.192	0.013
-62.349	-200.000	-0.032	0.274
-61.334	-40.182	-2.635	-1.765
-60.319	151.885	0.971	1.711
-59.305	244.373	-3.690	-8.019
-58.290	52.583	3.918	4.826
-57.276	338.845	4.082	10.293
-56.261	-200.000	21.467	311.622
-55.246	364.837	1289.092	3359.610
-54.232	53.079	2848.905	3517.160
-53.217	52.533	2668.035	3285.302
-52.203	33.964	2398.871	2692.517
-51.188	29.609	2063.545	2262.569
-50.173	26.242	1947.912	2096.499
-49.159	25.018	1937.465	2070.958
-48.144	24.620	1933.877	2062.421
-47.130	24.562	1930.845	2058.433
-46.115	24.518	1930.162	2057.112
-45.100	24.472	1928.221	2054.438
-44.086	24.490	1927.735	2054.041
-43.071	24.420	1925.719	2051.004
-42.057	24.529	1923.704	2050.030
-41.042	24.396	1922.900	2047.561
-40.027	24.461	1921.236	2046.453
-39.013	24.451	1919.421	2044.331
-37.998	24.387	1917.825	2041.806
-36.984	24.299	1916.927	2039.759
-35.969	24.284	1916.453	2039.006
-34.954	24.333	1914.343	2037.240
-33.940	24.347	1913.504	2036.424
-32.925	24.358	1911.363	2034.190
-31.911	24.138	1911.730	2031.983
-30.896	24.305	1909.268	2031.198
-29.881	24.301	1907.815	2029.524
-28.867	24.300	1906.226	2027.744
-27.852	24.415	1904.458	2027.093
-26.838	24.183	1904.110	2023.996
-25.823	24.196	1902.635	2022.497
-24.809	24.286	1901.086	2021.792
-23.794	24.354	1899.902	2021.225
-22.779	24.337	1898.739	2019.722
-21.765	24.233	1897.460	2017.098
-20.750	24.253	1896.059	2015.757
-19.736	24.181	1894.750	2013.465
-18.721	24.136	1894.095	2012.178
-17.706	24.173	1893.015	2011.372
-16.692	24.130	1891.210	2008.888
-15.677	24.122	1890.217	2007.661
-14.663	24.085	1888.611	2005.456
-13.648	24.145	1887.069	2004.412
-12.633	24.128	1884.821	2001.760
-11.619	24.176	1884.468	2001.842
-10.604	24.088	1883.408	1999.640
-9.590	24.067	1882.535	1998.396
-8.575	24.110	1880.625	1996.775
-7.560	24.126	1879.782	1995.990
-6.546	24.077	1877.987	1993.450
-5.531	24.145	1876.520	1992.580
-4.517	24.097	1875.814	1991.214
-3.502	24.006	1875.339	1989.606
-2.487	24.130	1873.530	1988.998
-1.473	24.028	1871.423	1985.540
-0.458	23.885	1851.625	1962.863
0.556	20.064	1996.393	2058.425
1.571	18.293	2200.297	2245.063
2.586	19.067	2239.707	2295.378
3.600	19.205	2242.218	2299.525
4.615	19.004	2242.795	2297.149
5.629	19.044	2240.050	2294.603
6.644	19.143	2237.111	2292.636
7.659	19.028	2236.386	2290.090
8.673	19.111	2234.222	2288.697
9.688	18.841	2243.600	2294.417
10.702	17.925	2322.420	2362.003
11.717	16.148	2386.040	2401.006
12.731	7.479	2366.151	2257.228
13.746	1.147	2347.355	2149.026
14.761	0.248	2345.085	2133.882
15.775	0.196	2342.857	2130.866
16.790	0.077	2341.174	2127.386
17.804	0.045	2340.346	2125.923
18.819	0.065	2339.438	2125.136
19.834	0.084	2338.136	2123.968
20.848	0.070	2335.883	2121.464
21.863	0.049	2334.176	2119.365
22.877	0.018	2331.936	2116.633
23.892	0.079	2329.686	2115.207
24.907	0.006	2327.381	2111.835
25.921	0.028	2325.810	2110.459
26.936	-0.032	2324.170	2107.871
27.950	0.090	2320.593	2106.092
28.965	0.047	2319.038	2103.831
29.980	0.012	2317.770	2101.926
30.994	0.045	2315.633	2100.204
32.009	3.853	2326.671	2163.592
33.023	13.322	2353.350	2322.321
34.038	17.375	2359.316	2385.174
35.053	17.372	2356.173	2381.660
36.067	17.027	2355.134	2375.473
37.082	17.173	2352.240	2374.319
38.096	17.307	2351.543	2375.220
39.111	17.535	2348.599	2375.159
40.126	17.684	2347.628	2375.974
41.140	17.925	2345.505	2376.924
42.155	17.872	2344.476	2374.856
43.169	17.855	2341.551	2371.367
44.184	17.555	2338.978	2364.288
45.199	17.512	2336.585	2360.986
46.213	17.585	2337.611	2362.760
47.228	17.747	2336.184	2363.288
48.242	17.823	2333.745	2361.599
49.257	17.958	2332.621	2362.055
50.271	18.120	2329.700	2361.063
51.286	17.785	2326.990	2353.396
52.301	17.602	2324.433	2347.994
53.315	18.328	2328.570	2361.955
54.330	21.380	2336.950	2412.572
55.344	23.492	2338.452	2443.117
56.359	23.595	2336.241	2441.941
57.374	23.886	2335.311	2444.702
58.388	23.953	2332.511	2442.394
59.403	23.723	2326.562	2432.715
60.417	23.399	2323.346	2424.598
61.432	23.303	2322.790	2422.418
62.447	23.576	2320.984	2423.994
63.461	23.753	2319.348	2424.419
64.476	23.912	2317.455	2424.323
65.490	23.522	2315.659	2416.823
66.505	22.678	2311.828	2400.984
67.520	20.469	2302.499	2360.879
68.534	18.113	2293.989	2319.776
69.549	17.542	2288.323	2305.997
70.563	17.438	2286.587	2302.557
71.578	17.535	2283.881	2300.875
72.593	17.488	2283.346	2299.426
73.607	17.643	2282.430	2300.323
74.622	17.657	2280.224	2298.016
75.636	17.547	2277.331	2293.341
76.651	17.434	2275.344	2289.533
77.666	17.495	2273.002	2287.724
78.680	17.367	2270.921	2283.637
79.695	17.165	2268.245	2277.950
80.709	17.085	2266.948	2275.290
81.724	17.039	2264.618	2272.066
82.739	17.218	2261.637	2271.198
83.753	17.126	2260.675	2268.737
84.768	17.148	2257.626	2265.690
85.782	16.972	2257.641	2263.075
86.797	16.900	2255.375	2259.569
87.812	16.933	2252.986	2257.351
88.826	17.101	2251.511	2257.848
89.841	17.095	2249.082	2255.061
90.855	17.188	2246.501	2253.440
91.870	17.231	2245.508	2252.746
92.884	17.144	2245.242	2251.057
93.899	17.323	2242.997	2250.916
94.914	18.056	2245.656	2263.080
95.928	20.708	2253.831	2306.423
96.943	21.621	2252.498	2316.929
97.957	19.139	2240.831	2271.776
98.972	17.308	2234.957	2241.311
99.987	17.266	2231.106	2236.623
101.001	17.125	2228.572	2231.955
102.016	17.218	2226.427	2230.756
103.030	17.023	2224.795	2226.288
104.045	17.132	2221.001	2223.658
105.060	17.168	2219.933	2222.802
106.074	17.096	2218.126	2219.775
107.089	17.108	2216.102	2217.647
108.103	17.096	2215.508	2216.619
109.118	17.282	2214.257	2217.542
110.133	17.362	2212.353	2216.419
111.147	17.318	2209.622	2212.852
112.162	17.193	2209.136	2210.464
113.176	17.324	2206.432	2209.198
114.191	17.427	2205.328	2209.179
115.206	17.408	2203.547	2206.885
116.220	17.282	2201.814	2203.238
117.235	17.422	2199.265	2202.248
118.249	17.545	2197.128	2201.442
119.264	17.386	2195.606	2197.590
120.279	17.321	2194.488	2195.366
121.293	17.481	2192.408	2195.088
122.308	17.355	2190.890	2191.675
123.322	17.139	2190.401	2188.128
124.337	17.734	2191.652	2196.829
125.352	20.674	2200.143	2243.234
126.366	21.357	2197.709	2249.318
127.381	18.581	2186.717	2202.027
128.395	17.471	2180.733	2181.449
129.410	17.264	2178.551	2176.330
130.424	17.110	2177.268	2172.807
131.439	17.133	2175.712	2171.289
132.454	17.190	2174.654	2170.716
133.468	17.439	2172.287	2171.287
134.483	17.563	2170.817	2171.149
135.497	17.529	2169.197	2168.828
136.512	17.535	2166.475	2165.929
137.527	17.343	2165.037	2161.768
138.541	17.116	2163.653	2157.230
139.556	17.113	2163.111	2156.393
140.570	17.103	2160.940	2153.851
141.585	16.914	2158.711	2148.960
142.600	16.913	2157.060	2147.048
143.614	16.950	2156.112	2146.312
144.629	16.864	2154.077	2142.940
145.643	16.826	2152.198	2140.332
146.658	16.886	2150.027	2138.673
147.673	16.796	2147.900	2135.170
148.687	16.883	2147.191	2135.304
149.702	17.136	2146.444	2137.510
150.716	17.113	2145.272	2135.798
151.731	17.175	2143.812	2134.875
152.746	17.229	2143.819	2135.303
153.760	18.045	2146.451	2147.982
154.775	20.898	2154.696	2192.105
155.789	21.954	2152.550	2202.988
156.804	19.183	2141.080	2156.170
157.819	17.342	2132.646	2124.324
158.833	17.113	2129.558	2118.122
159.848	17.064	2128.390	2116.098
160.862	17.167	2127.344	2116.085
161.877	17.288	2126.608	2116.619
162.892	17.381	2125.653	2116.572
163.906	17.218	2124.689	2113.331
164.921	17.341	2122.067	2111.998
165.935	17.312	2120.097	2109.422
166.950	17.322	2119.064	2108.276
167.964	17.361	2116.673	2106.122
168.979	17.132	2113.939	2100.301
169.994	17.027	2112.120	2096.940
171.008	16.971	2110.432	2094.321
172.023	16.857	2109.897	2092.122
173.037	17.087	2108.343	2093.182
174.052	17.303	2107.102	2094.376
175.067	17.123	2105.929	2090.734
176.081	17.070	2103.932	2087.850
177.096	17.212	2102.490	2087.918
178.110	17.357	2100.999	2087.982
179.125	17.360	2099.952	2086.726
180.140	17.336	2098.827	2085.063
181.154	17.255	2097.930	2082.918
182.169	17.459	2096.880	2084.135
183.183	18.302	2100.327	2097.703
184.198	21.552	2108.328	2145.555
185.213	22.046	2105.278	2148.276
186.227	18.856	2094.401	2097.829
187.242	17.617	2089.562	2077.559
188.256	17.457	2087.444	2073.244
189.271	17.149	2085.669	2067.464
190.286	17.117	2084.280	2065.448
191.300	17.288	2081.588	2064.621
192.315	17.263	2080.497	2062.987
193.329	17.391	2079.116	2062.934
194.344	17.510	2078.451	2063.480
195.359	17.782	2077.350	2065.453
196.373	17.406	2074.914	2058.205
197.388	17.309	2070.942	2052.841
198.402	17.116	2069.714	2049.044
199.417	17.085	2067.084	2045.811
200.432	17.177	2066.398	2046.005
201.446	17.044	2064.853	2042.623
202.461	17.001	2062.833	2039.860
203.475	17.036	2060.325	2037.557
204.490	17.087	2058.968	2036.591
205.504	17.061	2057.102	2034.187
206.519	17.142	2054.865	2032.700
207.534	17.146	2054.412	2032.063
208.548	17.091	2052.987	2029.746
209.563	17.257	2051.516	2030.047
210.577	17.315	2050.562	2029.550
211.592	17.388	2049.984	2029.615
212.607	18.819	2056.382	2052.908
213.621	22.262	2064.145	2101.840
214.636	21.765	2056.270	2087.624
215.650	18.346	2046.115	2036.262
216.665	17.440	2042.813	2021.926
217.680	17.326	2040.624	2018.148
218.694	17.265	2038.804	2015.379
219.709	17.140	2036.477	2011.353
220.723	17.285	2035.667	2012.042
221.738	17.288	2034.933	2011.112
222.753	17.567	2032.568	2011.838
223.767	17.327	2031.731	2007.921
224.782	17.323	2029.438	2005.375
225.796	17.163	2027.843	2001.667
226.811	17.224	2026.098	2000.420
227.826	17.186	2025.521	1999.156
228.840	17.037	2024.415	1996.074
229.855	17.210	2022.768	1996.253
230.869	17.347	2020.769	1995.650
231.884	17.196	2019.227	1992.107
232.899	17.219	2017.981	1990.920
233.913	17.236	2016.541	1989.457
234.928	17.248	2014.752	1987.593
235.942	17.139	2012.914	1984.260
236.957	17.156	2011.434	1982.762
237.972	17.295	2010.554	1983.290
238.986	17.201	2009.665	1981.070
240.001	17.097	2007.833	1977.815
241.015	17.312	2007.370	1979.644
242.030	18.135	2010.367	1991.996
243.045	21.090	2016.656	2032.644
244.059	21.428	2013.605	2033.279
245.074	18.623	2003.194	1989.874
246.088	17.605	1999.307	1973.924
247.103	17.773	1998.208	1974.553
248.117	17.668	1996.105	1971.018
249.132	17.390	1993.917	1965.390
250.147	17.283	1992.239	1962.259
251.161	17.202	1991.422	1960.287
252.176	17.566	1989.843	1962.710
253.190	17.949	1988.062	1965.153
254.205	17.855	1987.411	1963.184
255.220	17.893	1985.138	1961.147
256.234	17.793	1984.283	1958.915
257.249	17.508	1981.722	1952.865
258.263	17.090	1981.249	1947.349
259.278	17.238	1979.293	1946.898
260.293	17.150	1977.660	1944.040
261.307	17.137	1975.126	1941.173
262.322	17.070	1973.586	1938.657
263.336	16.970	1972.166	1935.881
264.351	16.898	1970.182	1932.876
265.366	16.905	1969.205	1931.763
266.380	17.013	1968.021	1931.608
267.395	17.014	1966.154	1929.556
268.409	17.059	1965.165	1928.872
269.424	17.133	1963.655	1928.000
270.439	17.164	1963.147	1927.626
271.453	18.303	1965.911	1943.107
272.468	21.371	1972.313	1984.269
273.482	21.582	1968.432	1982.523
274.497	18.645	1957.431	1937.911
275.512	17.299	1953.326	1918.362
276.526	17.095	1950.287	1912.838
277.541	17.003	1949.534	1910.826
278.555	16.864	1948.509	1908.021
279.570	16.824	1945.977	1904.861
280.585	16.907	1945.044	1904.659
281.599	17.080	1943.845	1905.212
282.614	17.270	1943.226	1906.520
283.628	17.681	1942.700	1910.410
284.643	17.782	1941.809	1910.434
285.657	17.880	1942.141	1911.644
286.672	17.914	1939.666	1909.359
287.687	17.912	1937.519	1906.993
288.701	17.824	1936.500	1904.774
289.716	17.764	1934.849	1902.245
290.730	17.785	1933.396	1900.833
291.745	17.862	1932.546	1900.626
292.760	17.833	1931.161	1898.714
293.774	17.722	1929.544	1895.660
294.789	17.647	1928.494	1893.560
295.803	17.420	1925.743	1888.103
296.818	17.428	1924.731	1886.974
297.833	17.638	1923.030	1887.414
298.847	17.482	1921.738	1884.184
299.862	17.517	1920.802	1883.428
300.876	18.265	1923.479	1894.150
301.891	21.589	1929.939	1937.322
302.906	22.046	1926.620	1938.831
303.920	18.887	1916.925	1893.917
304.935	17.836	1913.150	1878.337
305.949	17.595	1911.109	1873.448
306.964	17.580	1908.918	1870.910
307.979	17.656	1908.383	1870.996
308.993	17.954	1906.885	1872.583
310.008	18.180	1905.802	1873.794
311.022	18.030	1905.249	1871.370
312.037	17.893	1903.125	1867.550
313.052	18.055	1901.097	1867.116
314.066	18.132	1900.361	1867.016
315.081	18.125	1899.531	1865.902
316.095	17.935	1897.545	1861.651
317.110	17.601	1895.250	1855.513
318.125	17.505	1892.892	1851.938
319.139	17.359	1892.541	1849.775
320.154	17.474	1890.996	1849.300
321.168	17.446	1889.473	1847.286
322.183	17.348	1887.107	1843.683
323.197	17.096	1886.662	1840.277
324.212	16.997	1883.751	1836.144
325.227	16.928	1881.829	1833.302
326.241	16.950	1880.864	1832.376
327.256	17.095	1879.048	1831.961
328.270	17.073	1878.277	1830.757
329.285	16.976	1878.824	1830.018
330.300	18.076	1883.349	1846.154
331.314	21.663	1889.550	1891.012
332.329	21.701	1883.554	1885.192
333.343	18.375	1874.210	1839.759
334.358	17.098	1870.923	1822.544
335.373	17.143	1868.167	1820.122
336.387	16.985	1866.057	1816.149
337.402	16.928	1865.072	1814.360
338.416	17.067	1863.939	1814.537
339.431	17.276	1862.485	1815.153
340.446	17.242	1861.317	1813.425
341.460	17.363	1860.635	1813.848
342.475	18.059	1859.512	1819.983
343.489	18.188	1858.698	1820.350
344.504	18.094	1857.885	1818.331
345.519	18.322	1855.965	1818.666
346.533	18.483	1855.794	1819.999
347.548	18.590	1855.002	1820.148
348.562	18.525	1853.503	1817.771
349.577	18.390	1852.602	1815.226
350.592	18.324	1850.450	1812.200
351.606	18.298	1849.363	1810.645
352.621	18.329	1847.419	1808.850
353.635	18.005	1846.889	1804.679
354.650	17.892	1843.711	1800.154
355.665	17.851	1841.360	1797.214
356.679	17.640	1840.203	1793.632
357.694	17.728	1838.593	1792.787
358.708	17.621	1838.150	1791.002
359.723	18.794	1842.476	1807.416
360.738	22.099	1847.691	1847.316
361.752	21.661	1841.621	1836.407
362.767	18.685	1833.699	1797.015
363.781	17.757	1830.357	1783.780
364.796	17.652	1828.299	1780.454
365.810	17.450	1827.244	1777.098
366.825	17.576	1826.056	1777.042
367.840	17.694	1825.393	1777.430
368.854	17.778	1824.632	1777.352
369.869	17.949	1822.998	1777.331
370.883	17.998	1822.114	1776.777
371.898	18.045	1821.822	1776.767
372.913	17.932	1821.013	1774.580
373.927	18.214	1819.529	1775.871
374.942	18.471	1818.552	1777.386
375.956	18.325	1816.803	1773.943
376.971	18.100	1814.118	1768.770
377.986	18.075	1812.157	1766.380
379.000	17.885	1811.182	1763.244
380.015	17.913	1809.001	1761.209
381.029	17.382	1807.268	1753.807
382.044	17.150	1804.998	1748.996
383.059	17.279	1802.995	1748.170
384.073	17.113	1802.356	1745.626
385.088	17.290	1801.843	1746.752
386.102	17.282	1799.848	1744.527
387.117	17.140	1797.304	1740.392
388.132	17.122	1797.720	1740.402
389.146	18.268	1802.416	1756.562
390.161	21.634	1808.605	1797.166
391.175	21.470	1800.407	1787.128
392.190	18.359	1790.752	1745.504
393.205	17.410	1787.946	1732.853
394.219	17.352	1786.626	1730.771
395.234	17.295	1785.202	1728.600
396.248	17.193	1783.847	1726.042
397.263	17.233	1780.439	1722.947
398.278	17.245	1779.793	1722.239
399.292	17.341	1779.050	1722.283
400.307	17.262	1778.358	1720.603
401.321	17.410	1776.981	1720.575
402.336	17.621	1775.591	1721.162
403.350	17.588	1774.557	1719.618
404.365	17.761	1774.513	1721.123
405.380	18.380	1774.645	1727.325
406.394	18.806	1773.808	1730.620
407.409	18.640	1772.746	1727.692
408.423	18.640	1770.582	1725.379
409.438	18.296	1768.794	1719.956
410.453	18.145	1767.243	1716.720
411.467	18.054	1766.442	1714.814
412.482	17.931	1763.919	1710.924
413.496	17.683	1762.670	1707.017
414.511	17.676	1760.425	1704.562
415.526	17.435	1758.085	1699.678
416.540	17.458	1756.088	1697.770
417.555	17.539	1756.260	1698.548
418.569	17.584	1757.547	1700.035
419.584	17.741	1756.747	1700.636
420.599	17.846	1755.509	1700.289
421.613	17.925	1753.685	1699.105
422.628	17.718	1752.974	1696.146
423.642	17.559	1750.201	1691.674
424.657	17.371	1749.187	1688.613
425.672	17.592	1747.306	1688.798
426.686	17.585	1746.557	1687.796
427.701	17.472	1745.092	1685.060
428.715	17.535	1744.251	1684.669
429.730	17.761	1742.707	1685.223
430.745	17.742	1741.072	1683.249
431.759	17.845	1740.674	1683.683
432.774	18.077	1741.553	1686.638
433.788	18.417	1741.706	1689.951
434.803	18.694	1740.859	1691.673
435.818	18.627	1739.646	1689.630
436.832	18.615	1738.630	1688.326
437.847	17.753	1731.141	1672.356
438.861	9.759	1710.501	1574.079
439.876	1.726	1696.939	1483.004
440.890	0.370	1692.506	1465.705
441.905	0.296	1691.109	1463.592
442.920	0.092	1690.675	1461.058
443.934	0.199	1689.133	1460.588
444.949	0.260	1688.005	1460.033
445.963	0.185	1687.389	1458.596
446.978	0.208	1686.590	1457.953
447.993	0.277	1684.895	1456.988
449.007	0.106	1682.897	1453.419
450.022	0.102	1680.791	1451.390
451.036	0.218	1679.173	1450.942
452.051	1.126	1683.400	1463.237
453.066	8.943	1701.003	1554.764
454.080	16.660	1714.337	1642.293
455.095	18.842	1717.393	1666.321
456.109	19.726	1717.349	1674.695
457.124	19.919	1716.704	1675.738
458.139	19.999	1716.550	1676.171
459.153	20.215	1715.617	1677.156
460.168	20.241	1713.746	1675.377
461.182	20.056	1712.766	1672.427
462.197	20.031	1710.572	1669.838
463.212	19.830	1708.849	1666.011
464.226	19.850	1707.128	1664.326
465.241	20.122	1706.858	1666.496
466.255	20.265	1705.994	1666.834
467.270	20.363	1704.232	1665.856
468.285	20.004	1702.771	1660.770
469.299	19.844	1701.429	1657.724
470.314	20.043	1700.039	1658.082
471.328	20.082	1699.279	1657.517
472.343	20.033	1698.333	1655.928
473.358	20.116	1696.994	1655.220
474.372	20.202	1695.425	1654.314
475.387	19.903	1694.251	1650.108
476.401	19.725	1692.031	1646.046
477.416	19.797	1690.571	1645.120
478.430	19.889	1689.935	1645.176
479.445	19.803	1688.257	1642.531
480.460	19.661	1687.298	1640.045
481.474	19.715	1686.634	1639.719
482.489	20.192	1684.930	1642.407
483.503	20.489	1683.522	1643.660
484.518	20.426	1682.730	1642.089
485.533	20.280	1681.536	1639.342
486.547	20.243	1680.183	1637.476
487.562	20.593	1679.569	1639.999
488.576	20.500	1677.548	1636.955
489.591	20.476	1676.424	1635.427
490.606	20.433	1674.466	1632.924
491.620	20.284	1673.175	1630.062
492.635	20.675	1672.427	1632.823
493.649	20.882	1671.638	1633.806
494.664	20.401	1668.965	1626.474
495.679	19.811	1667.297	1619.100
496.693	19.879	1666.057	1618.349
497.708	20.342	1664.976	1621.448
498.722	20.576	1665.135	1623.608
499.737	20.713	1663.307	1622.917
500.752	20.433	1661.186	1618.027
501.766	20.352	1660.179	1616.092
502.781	20.446	1658.840	1615.483
503.795	20.451	1657.744	1614.264
504.810	20.471	1656.961	1613.495
505.825	20.584	1657.303	1614.692
506.839	20.572	1655.037	1612.173
507.854	20.577	1653.575	1610.608
508.868	20.728	1652.061	1610.343
509.883	20.642	1651.221	1608.537
510.898	20.904	1649.721	1609.312
511.912	20.779	1648.398	1606.666
512.927	20.452	1646.084	1601.197
513.941	20.500	1643.922	1599.344
514.956	20.186	1643.397	1595.737
515.971	20.366	1641.310	1595.179
516.985	20.299	1641.808	1594.858
518.000	20.524	1641.225	1596.176
519.014	20.781	1640.608	1597.753
520.029	20.956	1638.921	1597.534
521.043	20.812	1637.642	1594.767
522.058	20.812	1636.379	1593.349
523.073	20.821	1636.147	1593.018
524.087	21.260	1635.569	1596.295
525.102	21.237	1633.043	1593.429
526.116	20.803	1629.902	1586.203
527.131	20.462	1630.313	1583.289
528.146	20.971	1630.052	1587.504
529.160	21.056	1629.406	1587.463
530.175	21.112	1628.581	1586.982
531.189	21.204	1627.295	1586.378
532.204	21.233	1625.527	1584.725
533.219	20.795	1623.352	1578.425
534.233	20.553	1622.833	1575.532
535.248	20.905	1622.339	1578.069
536.262	21.473	1621.587	1582.313
537.277	21.202	1619.605	1577.726
538.292	20.825	1617.514	1572.084
539.306	20.750	1616.399	1570.129
540.321	20.776	1614.917	1568.738
541.335	20.668	1612.971	1565.680
542.350	20.905	1612.059	1566.755
543.365	21.285	1609.804	1567.806
544.379	21.213	1609.582	1566.748
545.394	21.215	1608.846	1565.866
546.408	20.857	1606.708	1560.368
547.423	20.507	1604.671	1555.059
548.438	20.418	1603.915	1553.339
549.452	20.708	1602.965	1554.839
550.467	20.937	1602.839	1556.590
551.481	21.031	1601.042	1555.499
552.496	21.225	1600.852	1556.868
553.511	21.475	1600.397	1558.478
554.525	21.361	1599.328	1556.227
555.540	21.481	1598.963	1556.765
556.554	21.474	1597.650	1555.236
557.569	21.405	1595.445	1552.290
558.583	21.363	1593.835	1550.160
559.598	21.194	1593.376	1548.021
560.613	21.117	1592.474	1546.275
561.627	21.237	1590.785	1545.515
562.642	21.398	1590.332	1546.316
563.656	21.729	1588.557	1547.352
564.671	21.601	1588.182	1545.663
565.686	21.554	1586.063	1542.997
566.700	21.433	1584.102	1539.838
567.715	21.266	1582.624	1536.735
568.729	20.911	1580.814	1531.664
569.744	20.821	1578.375	1528.320
570.759	20.711	1577.766	1526.575
571.773	21.009	1577.251	1528.521
572.788	21.269	1576.678	1530.073
573.802	21.450	1575.346	1530.194
574.817	21.645	1574.231	1530.634
575.832	21.795	1573.644	1531.202
576.846	21.647	1572.421	1528.524
577.861	21.455	1570.903	1525.187
578.875	21.530	1570.899	1525.656
579.890	21.799	1570.476	1527.424
580.905	21.878	1568.641	1526.143
581.919	21.965	1567.824	1525.927
582.934	22.111	1567.137	1526.353
583.948	21.902	1566.330	1523.558
584.963	21.841	1564.232	1520.806
585.978	21.551	1562.084	1516.011
586.992	21.748	1561.569	1517.041
588.007	21.995	1561.021	1518.476
589.021	21.219	1558.697	1509.296
590.036	20.743	1556.741	1503.086
591.051	21.211	1555.470	1505.738
592.065	21.517	1554.446	1507.214
593.080	21.693	1554.390	1508.509
594.094	21.767	1552.584	1507.210
595.109	21.349	1549.666	1500.594
596.123	21.183	1548.012	1497.380
597.138	21.515	1547.899	1499.954
598.153	21.847	1547.277	1502.026
599.167	21.843	1546.194	1500.768
600.182	21.771	1545.917	1499.694
601.196	21.888	1544.705	1499.342
602.211	21.930	1543.110	1497.975
603.226	22.075	1542.501	1498.450
604.240	22.188	1541.339	1498.114
605.255	22.306	1540.310	1497.942
606.269	22.141	1539.338	1495.408
607.284	22.149	1538.460	1494.441
608.299	22.180	1536.769	1492.890
609.313	22.016	1535.379	1489.956
610.328	22.089	1534.474	1489.526
611.342	22.110	1533.241	1488.324
612.357	22.426	1531.892	1489.529
613.372	22.249	1531.655	1487.611
614.386	22.139	1529.910	1484.806
615.401	22.239	1529.703	1485.280
616.415	22.294	1529.020	1484.904
617.430	22.323	1528.507	1484.476
618.445	22.415	1527.086	1483.694
619.459	22.270	1525.025	1480.292
620.474	21.957	1522.889	1475.395
621.488	21.386	1520.448	1468.035
622.503	21.149	1518.827	1464.291
623.518	21.616	1519.681	1468.880
624.532	22.276	1519.213	1473.813
625.547	22.378	1518.955	1474.243
626.561	22.684	1518.169	1475.879
627.576	22.709	1517.247	1475.014
628.591	22.033	1514.246	1466.252
629.605	21.589	1512.856	1461.006
630.620	21.541	1510.633	1458.282
631.634	21.268	1509.403	1454.633
632.649	21.347	1508.990	1454.730
633.663	21.798	1508.289	1457.649
634.678	22.160	1508.296	1460.502
635.693	22.617	1506.815	1462.709
636.707	22.765	1505.805	1462.782
637.722	22.889	1505.395	1463.242
638.736	22.924	1504.505	1462.496
639.751	22.843	1503.289	1460.463
640.766	22.924	1502.108	1459.817
641.780	22.808	1499.890	1456.518
642.795	22.680	1499.449	1454.856
643.809	22.656	1498.971	1454.017
644.824	22.673	1497.611	1452.671
645.839	22.657	1496.426	1451.211
646.853	22.636	1495.189	1449.667
647.868	22.704	1492.612	1447.559
648.882	22.708	1491.441	1446.282
649.897	22.610	1490.975	1444.849
650.912	22.670	1488.884	1443.137
651.926	22.647	1487.569	1441.509
652.941	22.171	1486.426	1436.312
653.955	21.721	1484.158	1430.263
654.970	21.364	1481.432	1424.542
655.985	21.405	1480.484	1423.792
656.999	21.505	1479.063	1423.072
658.014	21.714	1479.082	1424.630
659.028	22.088	1478.972	1427.411
660.043	22.254	1478.716	1428.346
661.058	22.436	1477.606	1428.587
662.072	22.587	1476.670	1428.738
663.087	22.464	1475.731	1426.658
664.101	22.543	1474.339	1425.786
665.116	22.774	1473.303	1426.494
666.131	22.720	1473.258	1425.837
667.145	22.616	1471.460	1423.085
668.160	22.990	1470.790	1425.294
669.174	23.193	1469.559	1425.579
670.189	23.045	1468.273	1422.960
671.204	22.749	1467.551	1419.697
672.218	22.712	1466.271	1417.991
673.233	23.006	1465.468	1419.417
674.247	23.260	1464.998	1420.842
675.262	23.286	1463.947	1419.866
676.276	23.178	1462.553	1417.470
677.291	23.035	1461.036	1414.682
678.306	22.769	1459.779	1411.158
679.320	22.649	1458.806	1409.084
680.335	23.042	1459.007	1412.263
681.349	23.101	1458.506	1412.086
682.364	23.146	1456.506	1410.340
683.379	23.115	1455.318	1408.770
684.393	22.950	1454.443	1406.437
685.408	22.994	1453.351	1405.568
686.422	22.973	1452.258	1404.171
687.437	23.092	1451.327	1404.053
688.452	23.264	1450.795	1404.739
689.466	23.395	1448.850	1403.735
690.481	23.118	1446.473	1399.058
691.495	22.606	1445.662	1394.042
692.510	21.947	1443.646	1386.696
693.525	21.526	1441.431	1381.065
694.539	21.970	1441.504	1384.491
695.554	22.610	1442.574	1390.429
696.568	23.214	1442.208	1394.690
697.583	23.296	1441.421	1394.414
698.598	23.454	1440.907	1395.003
699.612	23.321	1439.112	1392.048
700.627	23.438	1437.539	1391.276
701.641	23.263	1436.813	1389.030
702.656	23.266	1435.511	1387.630
703.671	23.657	1435.016	1390.061
704.685	23.499	1435.304	1388.930
705.700	23.433	1432.870	1385.893
706.714	23.264	1430.733	1382.331
707.729	23.092	1429.132	1379.273
708.744	22.922	1428.281	1376.952
709.758	22.712	1426.495	1373.421
710.773	22.385	1424.977	1369.245
711.787	22.173	1423.560	1366.057
712.802	22.429	1422.502	1366.877
713.816	22.718	1422.464	1368.932
714.831	23.040	1422.177	1371.000
715.846	23.381	1420.203	1371.592
716.860	23.379	1419.535	1370.762
717.875	23.256	1418.641	1368.779
718.889	23.263	1417.530	1367.601
719.904	23.364	1416.367	1367.102
720.919	23.525	1415.335	1367.189
721.933	23.483	1415.434	1366.797
722.948	23.601	1414.640	1366.774
723.962	23.594	1412.915	1364.888
724.977	23.806	1411.803	1365.294
725.992	23.641	1410.884	1362.966
727.006	23.538	1409.994	1361.151
728.021	23.639	1408.539	1360.363
729.035	23.654	1407.867	1359.660
730.050	23.611	1406.350	1357.705
731.065	23.754	1405.291	1357.615
732.079	24.009	1403.376	1357.558
733.094	23.826	1402.663	1355.305
734.108	23.511	1400.966	1351.094
735.123	23.610	1399.940	1350.699
736.138	23.611	1399.165	1349.796
737.152	23.678	1398.224	1349.241
738.167	23.825	1397.438	1349.444
739.181	23.881	1397.094	1349.376
740.196	23.829	1396.575	1348.320
741.211	23.885	1395.121	1347.179
742.225	23.657	1394.157	1344.349
743.240	23.662	1392.808	1342.924
744.254	23.673	1391.599	1341.686
745.269	23.596	1391.264	1340.617
746.284	23.765	1389.725	1340.254
747.298	23.411	1388.290	1336.024
748.313	23.086	1385.697	1330.916
749.327	22.582	1383.797	1325.118
750.342	22.075	1382.363	1319.763
751.356	21.765	1380.984	1315.946
752.371	22.061	1381.104	1318.140
753.386	23.078	1380.743	1325.302
754.400	23.620	1381.111	1329.578
755.415	23.845	1380.116	1330.157
756.429	23.845	1379.089	1329.002
757.444	23.894	1377.635	1327.809
758.459	23.929	1376.946	1327.252
759.473	24.061	1376.593	1327.744
760.488	23.983	1375.296	1325.747
761.502	24.036	1373.785	1324.527
762.517	23.761	1372.609	1321.186
763.532	23.646	1370.623	1318.256
764.546	23.411	1368.911	1314.694
765.561	22.709	1367.849	1308.293
766.575	22.074	1365.855	1301.497
767.590	22.073	1364.727	1300.258
768.605	22.750	1364.866	1305.275
769.619	23.346	1363.441	1308.179
770.634	23.501	1363.330	1309.065
771.648	23.911	1363.459	1312.073
772.663	24.030	1362.346	1311.725
773.678	24.014	1362.251	1311.357
774.692	23.985	1361.190	1309.970
775.707	23.972	1361.106	1309.636
776.721	24.120	1359.386	1308.913
777.736	24.103	1358.705	1307.976
778.751	24.119	1357.099	1306.390
779.765	24.146	1355.986	1305.361
780.780	24.018	1355.278	1303.587
781.794	24.115	1354.816	1303.694
782.809	23.920	1353.086	1300.442
783.824	23.890	1351.289	1298.339
784.838	23.286	1348.670	1291.242
785.853	22.379	1348.217	1284.005
786.867	22.701	1347.962	1285.968
787.882	22.877	1348.141	1287.276
788.897	23.280	1347.602	1289.560
789.911	23.530	1347.065	1290.719
790.926	23.708	1345.953	1290.798
791.940	23.840	1344.673	1290.382
792.955	24.054	1343.204	1290.375
793.969	23.974	1342.244	1288.720
794.984	24.072	1341.528	1288.586
795.999	24.286	1340.427	1288.934
797.013	24.295	1338.921	1287.398
798.028	24.137	1337.853	1285.065
799.042	24.231	1337.043	1284.819
800.057	24.322	1336.674	1284.969
801.072	24.280	1334.822	1282.731
802.086	24.372	1332.908	1281.398
803.101	24.353	1332.768	1280.976
804.115	24.434	1331.592	1280.279
805.130	24.280	1330.332	1277.804
806.145	24.129	1329.519	1275.781
807.159	24.278	1327.781	1275.029
808.174	24.009	1326.362	1271.588
809.188	23.954	1324.609	1269.359
810.203	23.794	1322.640	1266.171
811.218	23.315	1321.198	1261.216
812.232	22.943	1319.047	1256.349
813.247	22.656	1318.477	1253.610
814.261	23.222	1318.925	1257.927
815.276	23.718	1319.008	1261.401
816.291	24.111	1318.080	1263.165
817.305	24.282	1316.980	1263.173
818.320	24.421	1315.617	1262.703
819.334	24.347	1314.602	1261.056
820.349	24.351	1313.269	1259.656
821.364	24.304	1312.473	1258.405
822.378	24.357	1310.995	1257.210
823.393	24.391	1309.036	1255.424
824.407	24.336	1308.134	1254.019
825.422	24.329	1307.993	1253.688
826.437	24.014	1307.359	1250.703
827.451	23.957	1304.602	1247.512
828.466	23.199	1301.854	1239.405
829.480	22.624	1300.212	1233.651
830.495	23.390	1298.583	1237.336
831.509	23.836	1299.078	1240.789
832.524	24.105	1298.430	1241.909
833.539	24.275	1297.899	1242.441
834.553	24.407	1296.780	1242.147
835.568	24.413	1296.166	1241.451
836.582	24.372	1295.074	1239.973
837.597	24.426	1293.599	1238.785
838.612	24.379	1291.369	1236.172
839.626	24.095	1290.441	1233.164
840.641	23.915	1289.674	1231.028
841.655	23.436	1288.124	1226.069
842.670	22.935	1285.216	1219.684
843.685	22.516	1283.852	1215.337
844.699	23.235	1284.445	1220.738
845.714	23.750	1283.872	1223.617
846.728	23.862	1283.890	1224.257
847.743	24.048	1283.080	1224.629
848.758	24.293	1281.227	1224.402
849.772	24.380	1280.483	1224.147
850.787	24.289	1280.019	1222.928
851.801	24.341	1279.053	1222.219
852.816	24.288	1277.287	1220.022
853.831	24.209	1275.361	1217.492
854.845	24.230	1273.798	1215.999
855.860	24.105	1271.637	1212.937
856.874	23.835	1270.682	1210.029
857.889	23.658	1268.268	1206.378
858.904	23.167	1266.843	1201.530
859.918	22.845	1264.442	1196.913
860.933	22.671	1262.847	1194.078
861.947	23.006	1263.524	1196.854
862.962	23.291	1263.170	1198.315
863.977	23.481	1262.430	1198.757
864.991	23.875	1261.999	1200.882
866.006	23.805	1262.063	1200.322
867.020	24.071	1260.981	1200.958
868.035	24.275	1259.839	1201.108
869.049	24.461	1258.895	1201.322
870.064	24.555	1257.832	1200.796
871.079	24.588	1256.803	1199.893
872.093	24.348	1255.852	1197.223
873.108	24.479	1253.958	1196.158
874.122	24.047	1252.388	1191.613
875.137	23.480	1251.914	1187.203
876.152	23.235	1250.973	1184.521
877.166	23.591	1249.166	1185.056
878.181	23.917	1248.736	1186.693
879.195	24.129	1248.529	1187.778
880.210	24.364	1248.393	1189.080
881.225	24.324	1247.450	1187.773
882.239	24.365	1246.279	1186.788
883.254	24.400	1245.545	1186.182
884.268	24.618	1244.250	1186.264
885.283	24.446	1243.227	1183.996
886.298	24.339	1241.368	1181.375
887.312	24.515	1240.743	1181.810
888.327	24.463	1239.483	1180.122
889.341	24.336	1238.066	1177.786
890.356	24.370	1237.440	1177.277
891.371	24.243	1237.098	1175.966
892.385	24.090	1236.171	1173.933
893.400	23.962	1235.103	1171.927
894.414	23.910	1232.867	1169.324
895.429	23.523	1230.892	1164.755
896.444	22.688	1228.376	1156.733
897.458	22.081	1227.099	1151.394
898.473	22.597	1227.358	1154.897
899.487	23.370	1227.583	1160.065
900.502	23.825	1226.920	1162.287
901.517	24.052	1225.880	1162.656
902.531	24.161	1225.434	1162.809
903.546	24.176	1225.000	1162.354
904.560	24.474	1224.029	1163.250
905.575	24.270	1223.524	1161.293
906.589	24.238	1222.327	1159.808
907.604	24.223	1221.016	1158.325
