DTS Sentinel unit serial number:	SN409020Multiplexer serial number:	ORYXHardware model number:	OX4-SRSoftware version number:	ORYX F/W v3.00 Oryx Data Collector v3.7.2.0data status	okinstallation	HaddamTimeLapsedifferential loss correction	single-endedforward channel	channel 3reverse channel	N/Adate	2011/06/21time	18:31:16forward acquisition time	30.00reverse acquisition time	0.00gamma	498.7831k internal	0.1819k external	0.1819temperature offset calibration	1.0074default loss term (dB/km)	0.3790temperature slope calibration	1.3530multiplexer offset coefficient	1.0000multiplexer slope coefficient	1.0000fibre end	0.00T internal ref (°C)	36.12T ext. ref 1 (°C)	27.02T ext. ref 2 (°C)	0.25length (m)	temperature (°C)	Stokes	anti-Stokes-747.200	43.723	-0.404	-0.474
-746.185	282.310	0.158	0.363
-745.171	-164.221	0.418	0.024
-744.156	-48.213	0.372	-0.229
-743.142	11.727	0.231	0.226
-742.127	4.894	0.504	0.474
-741.112	141.228	0.259	0.439
-740.098	-44.566	0.218	0.139
-739.083	-115.537	0.011	-0.003
-738.069	-200.000	0.005	-0.071
-737.054	-130.109	-0.354	-0.061
-736.039	3.167	-0.454	0.422
-735.025	552.590	-0.111	-0.343
-734.010	-63.962	0.351	-0.183
-732.996	-157.674	-0.289	0.022
-731.981	-200.000	-0.035	-0.613
-730.966	101.930	-0.123	-0.184
-729.952	-87.694	-0.136	0.052
-728.937	-142.018	-0.223	0.028
-727.923	800.000	0.045	-0.171
-726.908	-30.047	0.323	0.234
-725.894	34.943	0.031	-0.034
-724.879	347.345	0.144	0.364
-723.864	-9.425	-0.092	-0.078
-722.850	57.142	-0.374	-0.466
-721.835	118.288	-0.316	-0.498
-720.821	-147.042	0.347	-0.038
-719.806	-91.496	0.543	-0.197
-718.791	161.869	0.227	-0.407
-717.777	800.000	-0.033	0.142
-716.762	-68.621	-0.083	-0.041
-715.748	-200.000	0.002	0.498
-714.733	-200.000	-0.005	0.057
-713.718	-87.677	-0.399	0.153
-712.704	80.817	0.140	-0.194
-711.689	-26.009	-0.233	0.175
-710.675	267.352	0.153	-0.343
-709.660	63.614	0.112	0.144
-708.645	-23.955	-0.300	-0.229
-707.631	108.286	0.270	0.412
-706.616	800.000	-0.047	0.172
-705.602	279.755	-0.252	0.577
-704.587	-138.046	-0.505	-0.071
-703.572	-144.454	-0.423	0.050
-702.558	113.434	0.185	-0.287
-701.543	25.284	-0.318	-0.337
-700.529	-190.744	-0.148	-0.002
-699.514	222.059	-0.145	-0.299
-698.499	800.000	-0.059	0.232
-697.485	-189.364	0.588	-0.009
-696.470	354.800	-0.238	-0.605
-695.456	-136.960	-0.694	-0.101
-694.441	271.834	0.045	0.102
-693.426	800.000	0.025	0.115
-692.412	483.711	-0.106	-0.308
-691.397	800.000	0.075	0.344
-690.383	30.496	-0.260	-0.284
-689.368	297.733	-0.189	0.446
-688.354	342.598	-0.150	0.377
-687.339	-200.000	0.088	0.600
-686.324	43.624	-0.263	-0.307
-685.310	121.134	0.083	0.131
-684.295	-94.062	0.222	-0.077
-683.281	5.429	0.128	-0.120
-682.266	449.128	0.052	0.147
-681.251	0.618	0.346	-0.316
-680.237	800.000	0.030	-0.130
-679.222	-43.116	0.238	-0.154
-678.208	800.000	-0.062	0.253
-677.193	172.790	-0.116	0.214
-676.178	-169.316	0.200	0.009
-675.164	-200.000	-0.007	0.256
-674.149	404.326	-0.109	-0.293
-673.135	-102.928	0.465	-0.140
-672.120	-62.667	0.160	-0.084
-671.105	-125.523	0.271	0.052
-670.091	-70.518	-0.476	0.229
-669.076	-88.942	-0.306	-0.115
-668.062	-116.110	-0.495	0.116
-667.047	-67.995	0.370	0.183
-666.032	33.464	0.235	-0.260
-665.018	-200.000	0.023	-0.474
-664.003	-110.977	-0.409	-0.106
-662.989	364.072	-0.162	0.416
-661.974	228.453	-0.103	0.215
-660.959	-67.047	0.210	0.105
-659.945	104.305	-0.153	0.230
-658.930	-24.494	-0.373	-0.282
-657.916	5.322	0.391	0.368
-656.901	431.604	-0.082	0.228
-655.886	-127.026	-0.359	0.067
-654.872	16.877	0.581	-0.586
-653.857	83.362	0.194	-0.270
-652.843	-82.857	-0.405	0.166
-651.828	-139.976	-0.636	-0.085
-650.814	89.223	-0.197	0.279
-649.799	-24.533	-0.434	0.329
-648.784	-109.047	-0.220	0.059
-647.770	-200.000	-0.014	0.247
-646.755	-200.000	0.047	0.643
-645.741	-148.892	-0.175	0.018
-644.726	-137.496	-0.210	0.030
-643.711	-136.175	0.300	0.044
-642.697	-120.459	0.597	0.128
-641.682	124.218	0.213	-0.341
-640.668	119.777	0.316	-0.500
-639.653	278.129	-0.142	-0.323
-638.638	136.259	-0.223	0.371
-637.624	800.000	0.161	0.597
-636.609	-48.685	-0.510	0.311
-635.595	109.196	0.164	-0.250
-634.580	-59.849	0.250	0.136
-633.565	183.793	-0.050	-0.094
-632.551	-88.346	-0.032	0.012
-631.536	-70.410	0.410	-0.197
-630.522	230.624	-0.154	0.322
-629.507	-25.332	-0.453	0.341
-628.492	-124.376	0.413	-0.081
-627.478	125.680	-0.122	0.197
-626.463	125.826	-0.107	-0.173
-625.449	800.000	0.075	-0.269
-624.434	65.314	-0.418	-0.539
-623.419	-97.284	-0.182	-0.060
-622.405	31.392	-0.150	0.164
-621.390	-133.652	0.343	0.054
-620.376	139.095	0.188	-0.316
-619.361	-56.772	0.617	-0.346
-618.346	-88.656	0.194	-0.073
-617.332	-110.054	-0.305	-0.081
-616.317	-83.808	0.150	-0.061
-615.303	-1.286	0.178	0.160
-614.288	-200.000	-0.001	0.284
-613.273	443.609	0.050	-0.139
-612.259	103.819	0.335	-0.501
-611.244	726.023	-0.067	-0.228
-610.230	-77.466	0.264	-0.116
-609.215	-88.821	0.212	-0.080
-608.201	37.518	-0.333	-0.376
-607.186	-106.929	-0.204	0.057
-606.171	-182.717	-0.369	0.008
-605.157	-135.786	0.329	-0.049
-604.142	-111.544	-0.471	-0.121
-603.128	4.782	0.176	-0.165
-602.113	19.347	0.127	0.130
-601.098	265.992	-0.086	0.191
-600.084	47.005	-0.171	0.202
-599.069	-75.702	-0.212	-0.095
-598.055	279.774	0.120	0.273
-597.040	772.084	-0.041	0.142
-596.025	-200.000	0.004	0.445
-595.011	-121.249	-0.425	0.090
-593.996	-114.684	-0.298	0.072
-592.982	275.556	-0.095	0.216
-591.967	800.000	0.048	0.255
-590.952	-166.122	0.260	-0.014
-589.938	53.920	0.134	0.163
-588.923	14.914	-0.180	-0.179
-587.909	-157.848	0.492	0.037
-586.894	478.529	0.126	-0.363
-585.879	-200.000	0.051	-0.312
-584.865	-47.778	-0.463	0.284
-583.850	42.364	-0.266	-0.308
-582.836	-102.079	0.403	0.123
-581.821	-84.689	0.218	-0.087
-580.806	-108.135	0.304	-0.083
-579.792	715.332	0.089	-0.303
-578.777	-58.744	0.725	0.397
-577.763	800.000	-0.107	-0.494
-576.748	-8.994	0.176	0.149
-575.733	-108.840	-0.248	-0.067
-574.719	284.936	0.186	-0.428
-573.704	-47.859	0.355	0.218
-572.690	-160.266	0.394	-0.027
-571.675	248.287	0.260	0.561
-570.661	800.000	0.107	0.493
-569.646	511.203	-0.048	0.141
-568.631	-200.000	0.012	-0.089
-567.617	297.417	0.271	-0.635
-566.602	33.613	-0.318	-0.351
-565.588	-143.929	-0.508	-0.060
-564.573	17.806	0.333	-0.337
-563.558	-139.591	0.529	-0.071
-562.544	-95.755	0.249	0.084
-561.529	36.044	0.180	-0.201
-560.515	34.821	0.417	-0.463
-559.500	40.894	0.030	0.034
-558.485	-97.354	-0.164	0.054
-557.471	-200.000	-0.037	-0.379
-556.456	-99.174	0.333	-0.106
-555.442	-158.127	0.120	0.009
-554.427	-200.000	-0.015	0.168
-553.412	-104.391	0.014	-0.004
-552.398	77.261	-0.215	0.291
-551.383	-200.000	-0.080	0.460
-550.369	-61.287	0.196	0.104
-549.354	-85.896	-0.189	-0.074
-548.339	-200.000	0.038	-0.522
-547.325	-170.629	-0.444	0.019
-546.310	64.146	-0.127	0.162
-545.296	30.521	-0.176	-0.191
-544.281	-143.316	-0.336	0.040
-543.266	-81.936	0.299	0.123
-542.252	-32.257	0.252	0.178
-541.237	-8.926	0.402	0.341
-540.223	-89.525	-0.728	-0.270
-539.208	-59.401	-0.379	-0.206
-538.193	315.130	0.124	-0.298
-537.179	-200.000	0.025	-0.180
-536.164	-200.000	-0.010	0.243
-535.150	800.000	0.198	0.763
-534.135	-200.000	0.012	0.211
-533.121	196.351	0.110	0.213
-532.106	306.764	0.074	-0.175
-531.091	-36.339	-0.341	-0.232
-530.077	-33.159	-0.307	-0.215
-529.062	-200.000	0.093	0.639
-528.048	-91.289	0.270	-0.097
-527.033	-150.754	-0.059	-0.006
-526.018	59.857	0.203	0.254
-525.004	-82.102	0.368	-0.151
-523.989	-131.974	-0.611	-0.100
-522.975	-72.410	0.316	0.148
-521.960	63.134	0.456	0.580
-520.945	61.407	-0.078	0.099
-519.931	-72.731	0.253	0.118
-518.916	18.513	0.183	0.186
-517.902	-187.015	-0.452	-0.008
-516.887	20.886	-0.055	0.057
-515.872	143.524	-0.183	-0.309
-514.858	-76.254	-0.127	0.056
-513.843	11.248	0.101	-0.098
-512.829	-200.000	0.014	-0.229
-511.814	-121.946	-0.550	-0.114
-510.799	183.528	-0.077	0.144
-509.785	-69.839	-0.206	0.099
-508.770	395.284	0.118	-0.314
-507.756	-77.954	0.472	0.205
-506.741	-90.100	0.469	-0.172
-505.726	-27.774	-0.045	-0.033
-504.712	800.000	0.047	-0.202
-503.697	665.646	0.050	-0.166
-502.683	-200.000	0.005	0.449
-501.668	-148.573	-0.563	0.057
-500.653	156.469	-0.217	-0.380
-499.639	-61.336	-0.273	-0.145
-498.624	-107.981	0.578	-0.158
-497.610	-144.258	0.346	-0.040
-496.595	-131.659	-0.446	-0.074
-495.581	-47.023	0.097	-0.060
-494.566	-21.966	-0.169	-0.130
-493.551	525.567	-0.187	-0.560
-492.537	150.029	0.246	-0.424
-491.522	-44.394	-0.154	-0.097
-490.508	-72.351	-0.262	0.122
-489.493	116.475	-0.173	0.270
-488.478	-117.488	-0.566	-0.129
-487.464	-58.423	-0.322	-0.177
-486.449	222.549	-0.071	0.145
-485.435	-146.897	0.102	-0.011
-484.420	124.715	-0.115	-0.183
-483.405	-200.000	0.040	-0.318
-482.391	-70.980	-0.255	0.121
-481.376	95.725	-0.175	-0.253
-480.362	-127.233	-0.365	0.067
-479.347	56.927	-0.169	-0.209
-478.332	-22.059	-0.250	0.192
-477.318	124.066	-0.135	-0.214
-476.303	-142.898	-0.280	-0.034
-475.289	-151.687	-0.190	0.017
-474.274	-200.000	0.021	0.180
-473.259	800.000	-0.122	-0.587
-472.245	800.000	0.080	-0.334
-471.230	28.891	-0.173	0.185
-470.216	-68.760	-0.263	0.128
-469.201	-72.101	-0.113	-0.053
-468.186	-200.000	-0.024	0.150
-467.172	-177.626	0.655	-0.020
-466.157	-110.916	-0.278	0.072
-465.143	292.429	-0.208	0.481
-464.128	-1.502	0.130	0.115
-463.113	-156.047	-0.300	-0.024
-462.099	-125.231	-0.447	0.086
-461.084	-159.656	0.280	0.019
-460.070	-14.528	0.270	0.219
-459.055	-200.000	-0.008	0.512
-458.040	-200.000	0.019	0.170
-457.026	6.857	0.452	-0.425
-456.011	-200.000	-0.055	-0.382
-454.997	101.164	0.304	-0.447
-453.982	800.000	-0.061	-0.265
-452.968	47.303	-0.308	-0.363
-451.953	587.868	-0.131	-0.410
-450.938	-200.000	-0.044	-0.287
-449.924	-200.000	0.034	-0.383
-448.909	79.263	-0.125	-0.170
-447.895	-137.124	-0.288	-0.041
-446.880	20.319	0.353	0.360
-445.865	0.104	0.277	-0.249
-444.851	-58.474	-0.293	0.160
-443.836	-200.000	-0.047	0.353
-442.822	-200.000	-0.005	-0.168
-441.807	10.919	-0.272	-0.262
-440.792	-114.931	0.271	0.065
-439.778	-83.294	0.229	-0.092
-438.763	-105.590	-0.141	-0.040
-437.749	421.092	-0.145	0.395
-436.734	-200.000	-0.002	0.147
-435.719	-112.087	-0.281	-0.071
-434.705	225.853	-0.086	0.177
-433.690	-44.152	-0.278	-0.176
-432.676	-200.000	-0.033	0.336
-431.661	217.906	-0.057	0.115
-430.646	-91.484	-0.126	-0.045
-429.632	-113.865	0.368	0.090
-428.617	28.174	-0.203	-0.217
-427.603	276.496	-0.142	-0.321
-426.588	-200.000	0.081	-0.482
-425.573	-200.000	0.017	0.404
-424.559	200.760	-0.283	0.551
-423.544	-9.781	0.211	0.178
-422.530	800.000	0.055	-0.287
-421.515	-116.251	-0.147	-0.034
-420.500	44.096	-0.125	-0.144
-419.486	236.635	0.130	-0.272
-418.471	-69.314	0.471	-0.227
-417.457	-46.483	0.187	0.116
-416.442	367.863	0.113	-0.290
-415.428	-46.630	0.518	-0.320
-414.413	-200.000	0.048	-0.528
-413.398	-200.000	-0.048	-0.681
-412.384	-200.000	0.033	0.330
-411.369	6.315	0.306	0.286
-410.355	-99.098	0.355	-0.113
-409.340	-90.536	-0.440	-0.160
-408.325	-73.430	-0.097	-0.045
-407.311	800.000	0.027	-0.110
-406.296	190.817	0.196	-0.374
-405.282	89.544	-0.394	-0.556
-404.267	-200.000	0.089	-0.892
-403.252	-116.921	-0.312	-0.071
-402.238	-200.000	0.022	0.148
-401.223	34.227	0.126	-0.139
-400.209	-200.000	0.039	0.427
-399.194	49.332	0.308	-0.366
-398.179	164.385	0.122	-0.218
-397.165	-1.659	0.226	-0.201
-396.150	-127.119	-0.525	-0.096
-395.136	183.576	-0.044	0.082
-394.121	-23.052	-0.122	0.093
-393.106	141.343	0.235	0.394
-392.092	313.211	0.117	0.278
-391.077	-51.023	-0.161	0.095
-390.063	-78.083	-0.290	-0.125
-389.048	264.049	-0.036	0.080
-388.033	-200.000	0.018	0.398
-387.019	10.719	0.372	-0.357
-386.004	-167.065	-0.397	0.020
-384.990	70.851	-0.189	0.247
-383.975	544.891	0.111	0.338
-382.960	-66.291	0.346	0.173
-381.946	800.000	-0.169	0.758
-380.931	188.374	-0.083	-0.156
-379.917	-200.000	-0.017	0.236
-378.902	800.000	-0.060	0.334
-377.888	-106.336	-0.210	-0.059
-376.873	-57.247	-0.067	0.037
-375.858	-90.037	0.312	0.114
-374.844	142.703	0.104	0.175
-373.829	-99.413	-0.563	0.178
-372.815	-200.000	-0.003	-0.108
-371.800	507.535	0.131	0.385
-370.785	179.968	0.034	-0.063
-369.771	-62.601	-0.144	0.075
-368.756	-82.938	0.310	-0.125
-367.742	89.990	-0.028	0.040
-366.727	6.066	0.253	-0.236
-365.712	-83.942	0.303	-0.121
-364.698	-10.557	-0.433	0.361
-363.683	800.000	0.041	-0.189
-362.669	743.405	0.019	-0.066
-361.654	25.344	-0.175	0.183
-360.639	254.281	0.180	0.389
-359.625	489.164	0.150	-0.434
-358.610	175.325	-0.136	0.250
-357.596	-200.000	-0.034	-0.644
-356.581	-128.892	-0.504	0.088
-355.566	-68.900	0.217	-0.105
-354.552	-115.944	-0.331	0.077
-353.537	-135.726	-0.297	-0.044
-352.523	345.034	-0.127	0.316
-351.508	-72.128	-0.093	0.043
-350.493	46.472	-0.336	-0.392
-349.479	-14.810	-0.303	-0.245
-348.464	-200.000	0.050	-0.468
-347.450	-44.318	0.286	-0.180
-346.435	-139.568	0.485	-0.064
-345.420	-127.748	-0.538	0.097
-344.406	800.000	-0.053	-0.202
-343.391	159.959	-0.070	0.123
-342.377	-109.304	0.509	-0.135
-341.362	-55.600	0.088	-0.050
-340.348	-31.947	-0.313	-0.220
-339.333	-123.398	0.372	-0.074
-338.318	5.129	-0.146	-0.135
-337.304	101.396	-0.233	0.342
-336.289	62.692	-0.300	-0.377
-335.275	-139.083	-0.302	0.041
-334.260	134.366	0.106	-0.173
-333.245	-200.000	0.091	0.605
-332.231	-94.880	-0.264	0.089
-331.216	151.627	0.280	0.482
-330.202	208.040	0.029	0.058
-329.187	-153.859	-0.244	-0.021
-328.172	456.026	0.069	0.193
-327.158	93.580	-0.139	0.198
-326.143	279.238	-0.096	0.216
-325.129	497.601	0.178	0.518
-324.114	78.246	0.189	0.254
-323.099	33.336	0.159	0.173
-322.085	643.188	0.124	0.401
-321.070	-125.015	-0.297	0.057
-320.056	204.473	0.110	-0.214
-319.041	-200.000	0.030	0.223
-318.026	-0.879	-0.269	0.239
-317.012	63.941	-0.319	0.404
-315.997	800.000	-0.045	0.199
-314.983	-200.000	-0.000	-0.201
-313.968	-69.816	-0.131	-0.063
-312.953	-109.992	-0.559	0.146
-311.939	-148.190	-0.189	0.019
-310.924	-67.981	0.136	-0.066
-309.910	31.541	-0.271	0.293
-308.895	321.526	-0.083	0.199
-307.880	-79.485	0.076	-0.032
-306.866	-63.807	0.234	-0.120
-305.851	88.307	-0.194	-0.271
-304.837	-200.000	-0.009	0.068
-303.822	39.103	0.268	-0.301
-302.807	-200.000	0.017	0.216
-301.793	-200.000	-0.017	0.189
-300.778	-200.000	-0.262	0.001
-299.764	-200.000	-0.011	0.314
-298.749	-70.191	0.350	-0.167
-297.735	-88.486	-0.300	-0.112
-296.720	-96.424	-0.305	-0.101
-295.705	759.705	0.086	-0.295
-294.691	415.490	0.302	0.811
-293.676	800.000	0.212	0.782
-292.662	-118.359	-0.155	0.034
-291.647	-138.300	0.272	-0.037
-290.632	-21.619	-0.281	0.215
-289.618	-92.465	0.175	-0.061
-288.603	-129.843	0.419	0.072
-287.589	2.402	-0.038	0.034
-286.574	394.131	-0.196	0.516
-285.559	308.898	-0.092	0.216
-284.545	-55.152	-0.333	-0.188
-283.530	800.000	-0.055	-0.255
-282.516	98.957	-0.125	-0.181
-281.501	-200.000	-0.010	0.422
-280.486	20.207	0.434	0.440
-279.472	-143.910	0.592	-0.069
-278.457	35.022	-0.157	0.172
-277.443	763.860	0.108	0.370
-276.428	402.337	-0.075	0.199
-275.413	79.090	-0.112	0.150
-274.399	-6.690	0.200	-0.170
-273.384	-110.007	0.242	0.063
-272.370	-116.717	-0.197	0.045
-271.355	-142.862	0.182	-0.022
-270.340	-170.647	0.582	0.025
-269.326	-200.000	-0.004	-0.265
-268.311	0.651	-0.340	0.305
-267.297	177.784	-0.087	-0.159
-266.282	-136.888	0.141	-0.020
-265.267	-29.919	0.288	-0.205
-264.253	174.390	-0.203	-0.369
-263.238	1.584	-0.198	0.178
-262.224	800.000	0.095	-0.340
-261.209	40.752	-0.402	-0.455
-260.195	94.803	0.158	-0.225
-259.180	140.819	-0.260	0.432
-258.165	-200.000	0.014	-0.287
-257.151	681.975	-0.109	-0.357
-256.136	-72.560	0.222	0.102
-255.122	54.958	0.298	0.362
-254.107	-200.000	-0.047	0.461
-253.092	-119.507	0.078	0.017
-252.078	-114.148	0.415	0.100
-251.063	-66.517	0.214	-0.106
-250.049	-67.522	-0.084	0.041
-249.034	-121.398	0.653	0.135
-248.019	66.802	0.281	-0.359
-247.005	-49.114	0.345	-0.207
-245.990	-181.910	-0.295	-0.007
-244.976	268.608	-0.098	0.217
-243.961	-200.000	-0.020	0.397
-242.946	64.892	0.058	0.074
-241.932	-200.000	-0.014	0.284
-240.917	190.529	0.172	-0.325
-239.903	-57.564	0.222	0.122
-238.888	-79.681	-0.368	0.155
-237.873	198.444	0.182	0.350
-236.859	-58.847	-0.161	-0.087
-235.844	-6.364	-0.359	0.307
-234.830	492.353	0.009	0.027
-233.815	181.737	-0.108	0.200
-232.800	0.640	-0.264	-0.237
-231.786	1.295	0.392	-0.353
-230.771	-200.000	-0.005	0.216
-229.757	7.982	-0.289	-0.271
-228.742	-144.419	0.548	0.063
-227.727	-131.547	0.306	-0.050
-226.713	125.728	0.026	-0.041
-225.698	-200.000	-0.034	0.493
-224.684	101.259	-0.100	-0.146
-223.669	342.637	0.064	-0.157
-222.655	800.000	0.067	-0.257
-221.640	800.000	-0.056	-0.267
-220.625	-200.000	0.015	-0.213
-219.611	-200.000	0.019	-0.292
-218.596	-200.000	0.012	-0.400
-217.582	-16.850	-0.062	-0.049
-216.567	-111.652	0.117	0.029
-215.552	472.034	-0.175	-0.495
-214.538	2.301	-0.163	0.148
-213.523	-128.906	0.150	-0.026
-212.509	-137.976	0.271	0.037
-211.494	-108.901	-0.075	-0.020
-210.479	-55.424	-0.308	0.172
-209.465	-55.331	-0.871	-0.488
-208.450	93.969	-0.101	0.144
-207.436	-81.194	-0.503	-0.207
-206.421	112.226	-0.166	0.252
-205.406	67.582	0.057	-0.072
-204.392	-27.584	0.286	-0.208
-203.377	-200.000	-0.010	-0.363
-202.363	484.771	-0.167	-0.480
-201.348	-96.201	-0.274	0.090
-200.333	-99.259	-0.311	0.098
-199.319	7.857	-0.220	-0.206
-198.304	-200.000	0.022	0.277
-197.290	-200.000	-0.019	-0.250
-196.275	-23.702	-0.232	-0.174
-195.260	87.707	0.197	0.274
-194.246	88.164	-0.210	-0.292
-193.231	20.106	0.270	0.273
-192.217	-39.078	0.231	0.152
-191.202	134.683	-0.181	-0.294
-190.187	-200.000	-0.000	0.133
-189.173	-200.000	0.001	0.187
-188.158	53.654	0.381	-0.458
-187.144	-45.894	0.372	0.229
-186.129	193.134	0.046	0.088
-185.114	-200.000	-0.006	0.332
-184.100	800.000	-0.054	0.191
-183.085	17.038	0.453	-0.449
-182.071	-200.000	0.009	-0.512
-181.056	-200.000	0.028	0.309
-180.042	-200.000	0.039	0.629
-179.027	-107.533	0.460	0.125
-178.012	24.479	0.424	0.439
-176.998	-74.790	0.262	0.117
-175.983	-115.608	-0.311	0.072
-174.969	-36.642	0.286	0.192
-173.954	9.478	-0.049	0.046
-172.939	-200.000	-0.003	0.081
-171.925	-33.638	0.322	0.222
-170.910	30.238	-0.180	0.192
-169.896	800.000	-0.042	0.204
-168.881	-138.799	-0.203	0.027
-167.866	137.777	-0.099	0.163
-166.852	-116.411	0.024	0.006
-165.837	296.694	0.115	-0.264
-164.823	126.853	-0.089	0.141
-163.808	800.000	0.147	0.578
-162.793	-158.435	0.452	-0.032
-161.779	657.394	-0.034	-0.109
-160.764	-1.151	0.105	0.092
-159.750	-51.268	-0.113	0.066
-158.735	544.987	0.178	-0.534
-157.720	-200.000	0.034	0.280
-156.706	-104.525	0.120	0.034
-155.691	-42.044	0.194	-0.124
-154.677	167.233	0.149	-0.265
-153.662	-112.886	-0.364	0.089
-152.647	113.268	0.109	-0.166
-151.633	-52.925	0.274	-0.157
-150.618	800.000	0.132	-0.488
-149.604	1.435	0.122	-0.110
-148.589	116.168	-0.299	-0.458
-147.574	-200.000	-0.007	0.393
-146.560	-200.000	-0.038	-0.233
-145.545	-200.000	0.023	-0.265
-144.531	-88.974	-0.143	0.053
-143.516	-139.108	-0.600	0.080
-142.502	475.281	-0.017	-0.048
-141.487	-17.502	-0.177	-0.139
-140.472	-53.337	-0.252	0.144
-139.458	625.870	-0.068	-0.215
-138.443	-83.496	0.161	0.064
-137.429	-87.856	-0.319	0.119
-136.414	0.788	-0.207	-0.185
-135.399	154.227	0.049	0.084
-134.385	83.826	0.128	-0.174
-133.370	-123.876	0.677	0.132
-132.356	719.924	-0.040	-0.135
-131.341	-79.163	0.268	0.113
-130.326	343.366	0.082	0.201
-129.312	-140.506	0.202	-0.026
-128.297	-99.879	-0.459	-0.142
-127.283	311.942	-0.130	0.307
-126.268	-81.583	-0.210	0.086
-125.253	-200.000	0.002	-0.316
-124.239	800.000	0.119	-0.443
-123.224	476.851	0.095	0.269
-122.210	-200.000	-0.033	0.342
-121.195	383.118	0.126	0.325
-120.180	-200.000	0.004	0.036
-119.166	-137.169	0.409	0.058
-118.151	179.271	-0.041	-0.074
-117.137	-62.222	0.319	-0.165
-116.122	-200.000	-0.025	0.303
-115.107	16.086	-0.344	0.338
-114.093	-172.753	0.442	-0.017
-113.078	68.959	-0.083	0.107
-112.064	-125.493	0.249	-0.047
-111.049	739.820	-0.064	0.216
-110.034	-25.044	-0.483	0.356
-109.020	-139.313	0.142	0.019
-108.005	208.007	-0.126	-0.246
-106.991	655.097	-0.028	-0.090
-105.976	82.589	0.169	0.230
-104.962	-47.067	-0.436	-0.265
-103.947	-182.639	-0.289	0.006
-102.932	699.292	0.190	0.626
-101.918	-155.296	-0.183	-0.015
-100.903	321.032	0.044	0.105
-99.889	-95.205	0.158	-0.053
-98.874	158.600	0.183	-0.318
-97.859	705.191	-0.151	-0.499
-96.845	-121.317	0.032	0.007
-95.830	-200.000	0.077	0.536
-94.816	800.000	-0.089	-0.426
-93.801	54.691	-0.548	-0.659
-92.786	-17.713	-0.304	-0.238
-91.772	-78.269	0.535	0.228
-90.757	-111.486	0.191	0.048
-89.743	-200.000	-0.021	-0.196
-88.728	282.240	0.036	-0.081
-87.713	7.863	0.111	-0.103
-86.699	-200.000	-0.015	0.735
-85.684	30.696	-0.398	0.425
-84.670	-105.049	0.478	0.135
-83.655	-200.000	-0.302	0.001
-82.640	-10.507	0.333	-0.274
-81.626	311.289	0.166	-0.389
-80.611	-200.000	0.016	-0.122
-79.597	-109.193	0.258	-0.068
-78.582	-134.225	0.621	0.094
-77.567	323.938	-0.072	-0.171
-76.553	24.721	0.502	0.518
-75.538	-200.000	0.040	0.318
-74.524	-131.430	0.175	-0.029
-73.509	-102.130	-0.802	-0.239
-72.494	62.780	-0.093	-0.115
-71.480	-11.345	0.394	0.323
-70.465	12.273	-0.108	0.103
-69.451	-144.300	0.738	-0.085
-68.436	800.000	0.163	-0.702
-67.422	-200.000	0.022	-0.392
-66.407	-143.589	0.261	0.031
-65.392	-54.994	0.041	0.023
-64.378	30.201	-0.171	0.181
-63.363	-200.000	-0.012	0.281
-62.349	339.276	0.160	0.391
-61.334	-10.058	-1.370	-1.132
-60.319	64.650	0.212	0.266
-59.305	294.713	-2.597	-5.935
-58.290	34.747	2.831	3.082
-57.276	585.993	3.666	11.285
-56.261	-200.000	13.555	216.027
-55.246	481.766	1154.300	3279.045
-54.232	65.300	2806.088	3535.283
-53.217	73.825	2705.839	3534.540
-52.203	77.970	2435.948	3236.330
-51.188	38.232	2088.511	2314.576
-50.173	39.666	1960.131	2188.229
-49.159	37.081	1949.574	2147.627
-48.144	36.669	1945.653	2138.651
-47.130	36.576	1943.026	2134.641
-46.115	36.527	1941.738	2132.601
-45.100	36.415	1940.732	2130.169
-44.086	36.401	1939.481	2128.560
-43.071	36.452	1937.153	2126.479
-42.057	36.401	1935.397	2123.906
-41.042	36.443	1934.021	2122.775
-40.027	36.345	1933.599	2121.142
-39.013	36.393	1931.055	2118.797
-37.998	36.431	1929.527	2117.461
-36.984	36.333	1929.028	2115.740
-35.969	36.358	1927.477	2114.230
-34.954	36.242	1927.051	2112.403
-33.940	36.261	1926.072	2111.459
-32.925	36.331	1924.053	2109.930
-31.911	36.243	1922.341	2107.010
-30.896	36.269	1921.529	2106.316
-29.881	36.270	1919.793	2104.342
-28.867	36.177	1919.004	2102.377
-27.852	36.124	1917.865	2100.466
-26.838	36.094	1916.387	2098.435
-25.823	36.192	1914.261	2097.094
-24.809	36.007	1913.797	2094.477
-23.794	36.185	1911.629	2093.964
-22.779	36.154	1910.515	2092.321
-21.765	36.213	1908.697	2090.890
-20.750	36.127	1908.298	2089.433
-19.736	36.099	1907.419	2088.083
-18.721	35.986	1906.627	2085.906
-17.706	36.102	1904.246	2084.478
-16.692	36.054	1903.209	2082.738
-15.677	36.055	1902.477	2081.866
-14.663	36.063	1901.117	2080.386
-13.648	36.001	1899.976	2078.374
-12.633	36.016	1898.142	2076.457
-11.619	36.112	1896.721	2075.857
-10.604	35.974	1895.868	2073.343
-9.590	36.012	1893.979	2071.609
-8.575	35.945	1893.743	2070.538
-7.560	35.849	1892.402	2067.961
-6.546	35.953	1890.645	2067.082
-5.531	35.859	1890.436	2065.758
-4.517	35.949	1888.883	2064.940
-3.502	36.011	1887.982	2064.542
-2.487	35.924	1887.403	2062.888
-1.473	36.066	1883.745	2060.340
-0.458	36.116	1864.685	2039.945
0.556	31.669	1994.651	2118.924
1.571	30.104	2210.295	2327.971
2.586	31.703	2258.700	2399.290
3.600	31.729	2261.001	2401.775
4.615	31.915	2261.000	2403.886
5.629	31.658	2258.616	2397.756
6.644	32.023	2256.228	2399.628
7.659	32.177	2254.878	2399.884
8.673	32.318	2254.780	2401.297
9.688	31.496	2256.823	2392.622
10.702	27.491	2323.473	2409.844
11.717	23.618	2385.955	2421.351
12.731	12.303	2356.996	2237.531
13.746	2.004	2328.804	2070.560
14.761	0.313	2323.717	2042.769
15.775	0.154	2322.074	2038.911
16.790	0.068	2320.748	2036.335
17.804	0.012	2319.592	2034.311
18.819	0.023	2317.834	2032.677
19.834	0.040	2316.181	2031.216
20.848	0.081	2314.793	2030.312
21.863	0.075	2313.261	2028.643
22.877	-0.002	2311.760	2026.034
23.892	0.078	2308.864	2024.341
24.907	0.062	2306.663	2021.954
25.921	-0.006	2305.532	2019.805
26.936	0.081	2302.489	2018.062
27.950	0.128	2300.099	2016.357
28.965	0.077	2298.728	2014.231
29.980	0.054	2297.216	2012.359
30.994	0.143	2296.074	2012.313
32.009	6.297	2316.678	2113.390
33.023	20.654	2359.428	2348.262
34.038	27.379	2373.458	2453.405
35.053	27.976	2370.690	2458.326
36.067	27.835	2366.757	2452.048
37.082	27.442	2365.243	2444.881
38.096	27.431	2363.646	2442.783
39.111	27.776	2361.413	2444.830
40.126	27.704	2359.071	2441.143
41.140	27.951	2358.725	2443.819
42.155	27.784	2355.559	2438.002
43.169	27.592	2353.935	2433.463
44.184	27.698	2352.628	2433.241
45.199	27.822	2349.182	2431.038
46.213	27.729	2347.510	2427.769
47.228	27.657	2346.350	2425.325
48.242	27.815	2345.825	2426.599
49.257	28.123	2344.058	2428.589
50.271	28.263	2341.876	2427.907
51.286	28.323	2340.794	2427.300
52.301	27.823	2338.243	2417.709
53.315	27.735	2335.929	2413.847
54.330	27.686	2335.428	2412.390
55.344	27.906	2332.565	2412.069
56.359	28.137	2329.029	2411.189
57.374	27.927	2328.002	2407.049
58.388	27.934	2324.400	2403.138
59.403	27.861	2320.534	2397.879
60.417	27.604	2318.385	2391.990
61.432	27.836	2317.190	2393.527
62.447	27.721	2315.964	2390.454
63.461	27.842	2313.016	2388.723
64.476	27.915	2310.015	2386.288
65.490	28.017	2311.010	2388.379
66.505	27.691	2308.701	2381.421
67.520	27.431	2307.178	2376.153
68.534	27.411	2304.496	2372.854
69.549	27.294	2299.638	2366.037
70.563	27.118	2297.829	2361.599
71.578	27.140	2296.961	2360.700
72.593	27.723	2295.946	2366.985
73.607	27.816	2293.657	2365.552
74.622	27.920	2291.786	2364.696
75.636	27.794	2288.567	2359.458
76.651	27.731	2285.938	2355.644
77.666	27.865	2285.497	2356.651
78.680	27.654	2282.765	2350.816
79.695	27.356	2279.673	2343.495
80.709	26.581	2276.052	2329.471
81.724	26.436	2273.429	2324.635
82.739	27.003	2273.975	2332.240
83.753	27.855	2274.397	2343.391
84.768	27.829	2272.463	2340.774
85.782	27.797	2271.374	2338.965
86.797	27.855	2269.372	2337.366
87.812	27.753	2266.256	2332.568
88.826	27.590	2265.160	2329.061
89.841	27.960	2262.965	2331.278
90.855	28.379	2261.553	2334.906
91.870	27.913	2258.524	2325.539
92.884	27.869	2256.609	2322.729
93.899	27.903	2256.569	2322.842
94.914	27.439	2254.977	2315.002
95.928	27.055	2253.191	2307.987
96.943	27.142	2250.838	2306.405
97.957	27.782	2250.334	2313.774
98.972	28.059	2248.733	2315.384
99.987	27.750	2244.210	2306.518
101.001	27.782	2241.425	2303.791
102.016	27.761	2240.383	2302.180
103.030	27.698	2237.162	2297.798
104.045	27.633	2235.133	2294.617
105.060	27.836	2234.652	2296.412
106.074	27.989	2233.245	2296.618
107.089	27.650	2228.857	2287.565
108.103	27.198	2228.519	2281.239
109.118	27.429	2227.654	2282.992
110.133	27.583	2224.940	2281.882
111.147	27.497	2223.190	2278.733
112.162	27.636	2221.760	2278.736
113.176	27.732	2219.841	2277.702
114.191	27.600	2216.757	2272.611
115.206	27.435	2214.575	2268.036
116.220	27.624	2214.112	2269.647
117.235	27.367	2211.661	2263.662
118.249	27.378	2209.503	2261.312
119.264	27.468	2208.638	2261.274
120.279	27.474	2206.821	2259.219
121.293	27.355	2205.211	2255.822
122.308	27.382	2203.067	2253.699
123.322	27.045	2201.176	2247.303
124.337	26.655	2198.760	2239.722
125.352	26.773	2199.508	2241.681
126.366	27.610	2200.191	2252.507
127.381	27.861	2197.918	2253.026
128.395	27.970	2194.427	2250.533
129.410	27.603	2192.587	2243.828
130.424	27.523	2189.539	2239.456
131.439	27.798	2188.207	2241.223
132.454	27.471	2186.881	2235.563
133.468	27.804	2184.625	2237.093
134.483	27.833	2182.406	2234.906
135.497	27.669	2181.014	2231.198
136.512	28.001	2179.861	2233.825
137.527	28.191	2178.491	2234.490
138.541	27.933	2177.279	2229.818
139.556	27.709	2176.610	2226.119
140.570	27.616	2174.657	2222.711
141.585	27.448	2171.970	2217.643
142.600	27.412	2170.581	2215.515
143.614	27.403	2169.468	2214.001
144.629	27.753	2168.217	2216.745
145.643	27.567	2165.635	2211.560
146.658	27.460	2163.037	2207.342
147.673	27.294	2159.699	2201.657
148.687	27.204	2159.374	2199.964
149.702	27.430	2158.611	2201.666
150.716	27.548	2158.927	2203.169
151.731	28.258	2159.614	2212.223
152.746	28.631	2158.084	2214.925
153.760	27.905	2155.755	2203.468
154.775	27.206	2153.108	2192.035
155.789	27.076	2151.421	2188.481
156.804	27.374	2149.326	2189.689
157.819	27.503	2145.812	2187.402
158.833	27.555	2143.809	2185.726
159.848	27.730	2142.400	2186.139
160.862	28.011	2141.759	2188.601
161.877	28.214	2141.246	2190.255
162.892	28.263	2139.213	2188.506
163.906	28.114	2139.425	2186.666
164.921	28.184	2135.797	2183.545
165.935	27.988	2133.535	2178.613
166.950	27.492	2130.846	2169.673
167.964	27.580	2127.650	2167.212
168.979	27.390	2126.674	2163.689
169.994	27.497	2125.543	2163.550
171.008	27.417	2123.260	2160.022
172.023	27.307	2122.222	2157.391
173.037	27.725	2122.399	2162.299
174.052	27.711	2120.583	2160.020
175.067	27.512	2117.872	2154.639
176.081	27.367	2116.166	2150.918
177.096	27.452	2116.223	2151.726
178.110	27.431	2114.292	2149.256
179.125	27.305	2112.831	2146.019
180.140	27.623	2110.947	2147.621
181.154	27.849	2110.749	2149.829
182.169	27.788	2109.783	2147.874
183.183	27.485	2109.097	2143.334
184.198	27.533	2106.720	2141.227
185.213	27.537	2104.680	2138.951
186.227	27.727	2103.584	2139.816
187.242	27.584	2100.528	2134.767
188.256	27.431	2099.077	2131.240
189.271	27.820	2097.334	2133.784
190.286	27.871	2095.109	2131.864
191.300	27.399	2092.287	2123.207
192.315	27.259	2091.628	2120.646
193.329	27.664	2091.305	2124.800
194.344	28.015	2090.988	2128.342
195.359	27.904	2088.468	2124.226
196.373	28.063	2087.508	2124.846
197.388	27.979	2083.899	2119.936
198.402	27.811	2081.893	2115.683
199.417	27.854	2079.719	2113.730
200.432	27.729	2078.403	2110.687
201.446	27.639	2076.207	2107.158
202.461	27.608	2074.733	2105.048
203.475	27.603	2072.786	2102.765
204.490	27.433	2070.727	2098.454
205.504	27.624	2068.640	2098.293
206.519	27.567	2065.687	2094.395
207.534	27.754	2065.588	2096.195
208.548	28.073	2065.776	2099.821
209.563	27.732	2062.775	2092.591
210.577	27.880	2063.076	2094.352
211.592	28.419	2063.162	2100.392
212.607	27.909	2061.480	2092.558
213.621	26.912	2058.654	2077.976
214.636	26.908	2057.347	2076.360
215.650	27.966	2057.103	2088.020
216.665	28.455	2056.137	2092.409
217.680	28.358	2054.355	2089.227
218.694	28.155	2052.917	2085.188
219.709	27.642	2049.612	2075.712
220.723	27.676	2048.230	2074.453
221.738	28.230	2047.902	2080.210
222.753	28.473	2045.959	2080.760
223.767	28.060	2043.757	2073.564
224.782	27.744	2039.472	2065.374
225.796	27.665	2038.387	2063.122
226.811	27.647	2038.727	2063.019
227.826	27.722	2037.047	2061.921
228.840	27.797	2034.498	2059.950
229.855	27.743	2034.558	2059.152
230.869	27.563	2031.243	2053.507
231.884	27.560	2029.487	2051.455
232.899	27.785	2029.726	2053.996
233.913	27.806	2028.588	2052.837
234.928	27.823	2027.571	2051.749
235.942	27.633	2025.545	2047.312
236.957	27.377	2023.579	2042.191
237.972	27.494	2022.707	2042.386
238.986	27.683	2021.081	2042.628
240.001	27.428	2018.809	2037.223
241.015	27.282	2016.790	2033.304
242.030	27.571	2017.982	2037.504
243.045	27.744	2016.353	2037.558
244.059	27.930	2014.731	2037.767
245.074	28.105	2013.146	2037.873
246.088	27.785	2009.137	2029.997
247.103	27.767	2008.583	2028.989
248.117	28.017	2007.679	2030.630
249.132	27.929	2006.513	2028.219
250.147	27.633	2003.298	2021.431
251.161	27.223	2000.912	2014.217
252.176	27.279	2000.616	2014.305
253.190	27.323	1996.976	2010.883
254.205	27.295	1995.522	2008.872
255.220	27.331	1994.216	2007.720
256.234	27.132	1992.929	2003.970
257.249	27.161	1991.998	2003.115
258.263	27.320	1991.065	2003.700
259.278	27.450	1990.109	2003.937
260.293	27.399	1989.214	2002.227
261.307	27.385	1986.641	1999.249
262.322	27.494	1985.696	1999.256
263.336	27.205	1982.176	1992.295
264.351	27.062	1981.428	1989.733
265.366	27.498	1981.411	1994.272
266.380	27.764	1980.763	1996.304
267.395	27.495	1979.224	1991.559
268.409	27.691	1977.338	1991.578
269.424	27.965	1975.846	1992.846
270.439	27.966	1975.273	1992.034
271.453	28.328	1973.711	1994.180
272.468	27.672	1970.814	1983.849
273.482	27.151	1969.862	1976.951
274.497	27.574	1967.240	1978.705
275.512	27.929	1965.607	1980.702
276.526	28.083	1963.207	1979.716
277.541	27.773	1960.729	1973.617
278.555	27.316	1959.405	1967.073
279.570	27.232	1956.955	1963.475
280.585	27.279	1955.302	1962.087
281.599	27.420	1955.537	1963.617
282.614	27.641	1953.304	1963.533
283.628	27.283	1950.871	1956.984
284.643	26.675	1949.668	1948.968
285.657	26.283	1947.217	1942.046
286.672	26.168	1944.541	1937.906
287.687	25.931	1941.927	1932.515
288.701	25.771	1940.795	1929.441
289.716	25.111	1938.280	1919.610
290.730	24.095	1934.319	1904.539
291.745	24.957	1935.081	1914.320
292.760	25.703	1935.777	1922.799
293.774	26.372	1937.180	1931.143
294.789	27.502	1938.501	1944.358
295.803	27.722	1936.951	1944.931
296.818	27.561	1935.178	1941.197
297.833	27.919	1934.615	1944.230
298.847	27.946	1932.844	1942.502
299.862	27.647	1930.526	1936.754
300.876	27.633	1928.671	1934.510
301.891	27.663	1929.108	1935.040
302.906	27.796	1927.685	1934.795
303.920	27.902	1926.486	1934.487
304.935	28.070	1924.754	1934.300
305.949	28.167	1921.985	1932.318
306.964	28.055	1921.386	1930.297
307.979	27.460	1917.575	1919.933
308.993	25.573	1910.137	1892.318
310.008	23.649	1904.442	1866.143
311.022	23.410	1903.234	1862.208
312.037	23.900	1902.273	1866.224
313.052	23.816	1899.835	1862.719
314.066	23.277	1897.236	1854.280
315.081	23.431	1896.629	1855.086
316.095	23.616	1895.615	1855.812
317.110	23.381	1894.173	1851.705
318.125	23.262	1892.193	1848.302
319.139	23.209	1891.452	1846.803
320.154	23.426	1890.265	1847.694
321.168	23.487	1889.412	1847.278
322.183	24.618	1892.300	1861.735
323.197	27.061	1895.666	1890.420
324.212	27.780	1895.234	1897.281
325.227	27.640	1893.957	1894.311
326.241	27.580	1892.712	1892.212
327.256	27.915	1891.674	1894.443
328.270	27.829	1889.942	1891.579
329.285	27.941	1890.298	1892.885
330.300	27.813	1890.142	1891.162
331.314	27.299	1887.407	1882.860
332.329	27.236	1885.414	1879.984
333.343	27.610	1884.611	1882.843
334.358	27.939	1882.697	1884.116
335.373	28.077	1881.887	1884.508
336.387	28.332	1879.785	1884.815
337.402	28.197	1878.529	1881.944
338.416	27.991	1875.992	1877.050
339.431	27.819	1874.954	1874.010
340.446	27.880	1872.192	1871.656
341.460	27.104	1868.512	1859.768
342.475	26.774	1865.854	1853.512
343.489	25.729	1862.021	1838.752
344.504	24.225	1858.496	1819.638
345.519	23.646	1854.804	1809.868
346.533	23.461	1851.882	1804.906
347.548	23.461	1850.981	1803.816
348.562	23.560	1850.701	1804.341
349.577	23.562	1849.807	1803.274
350.592	23.589	1849.171	1802.707
351.606	23.542	1847.360	1800.247
352.621	23.357	1844.318	1795.189
353.635	23.300	1843.882	1793.966
354.650	24.370	1846.242	1806.946
355.665	26.428	1848.869	1830.255
356.679	27.171	1849.057	1837.779
357.694	27.526	1849.072	1841.185
358.708	27.818	1848.919	1843.777
359.723	27.997	1847.034	1843.491
360.738	27.579	1845.965	1837.964
361.752	27.541	1845.074	1836.474
362.767	27.997	1843.426	1839.225
363.781	28.069	1841.302	1837.615
364.796	28.020	1840.159	1835.763
365.810	27.935	1839.013	1833.541
366.825	27.593	1835.428	1826.304
367.840	25.747	1828.824	1800.972
368.854	23.651	1823.961	1774.926
369.869	23.182	1821.609	1767.718
370.883	23.425	1820.656	1769.022
371.898	23.603	1819.610	1769.570
372.913	23.851	1818.745	1771.010
373.927	23.457	1815.946	1764.127
374.942	23.442	1816.000	1763.816
375.956	24.502	1818.016	1776.176
376.971	25.354	1816.556	1783.040
377.986	25.432	1815.777	1782.841
379.000	25.350	1814.705	1780.753
380.015	25.525	1813.374	1780.985
381.029	26.563	1815.559	1793.259
382.044	27.527	1816.268	1803.339
383.059	27.682	1814.423	1802.826
384.073	27.801	1812.654	1802.039
385.088	27.657	1813.268	1800.997
386.102	27.943	1812.354	1802.715
387.117	27.863	1809.981	1799.349
388.132	28.055	1808.964	1800.025
389.146	27.835	1808.890	1797.555
390.161	27.490	1806.547	1791.600
391.175	27.360	1802.738	1786.322
392.190	27.363	1799.298	1782.738
393.205	27.555	1798.547	1783.669
394.219	27.783	1797.159	1784.314
395.234	27.676	1795.242	1781.146
396.248	27.622	1793.706	1778.883
397.263	27.429	1790.935	1774.035
398.278	27.509	1789.288	1772.974
399.292	27.281	1788.262	1769.512
400.307	27.088	1787.102	1766.266
401.321	26.520	1784.409	1757.852
402.336	26.170	1782.890	1752.731
403.350	25.940	1781.154	1748.570
404.365	25.949	1779.749	1747.073
405.380	25.766	1776.363	1741.760
406.394	24.234	1771.964	1722.369
407.409	23.674	1769.782	1714.603
408.423	23.665	1768.786	1713.345
409.438	23.512	1766.369	1709.320
410.453	23.224	1765.423	1705.407
411.467	23.596	1764.899	1708.299
412.482	24.298	1765.902	1715.857
413.496	26.299	1770.275	1739.287
414.511	27.579	1770.336	1751.506
415.526	27.658	1767.588	1749.341
416.540	27.656	1766.469	1748.001
417.555	27.641	1766.717	1747.901
418.569	27.473	1765.696	1745.056
419.584	27.485	1764.880	1744.161
420.599	27.459	1764.539	1743.364
421.613	27.739	1763.788	1745.105
422.628	27.590	1762.271	1741.967
423.642	27.658	1759.934	1740.095
424.657	27.303	1756.960	1733.552
425.672	27.152	1756.619	1731.558
426.686	27.266	1755.678	1731.520
427.701	27.185	1753.494	1728.383
428.715	27.121	1751.903	1725.995
429.730	27.316	1751.337	1727.090
430.745	27.937	1750.874	1732.348
431.759	28.299	1751.119	1735.832
432.774	28.701	1751.417	1739.748
433.788	27.141	1746.254	1719.586
434.803	25.395	1742.060	1698.669
435.818	25.030	1741.018	1693.987
436.832	25.022	1740.507	1693.208
437.847	24.397	1734.351	1681.097
438.861	15.765	1708.196	1574.674
439.876	3.522	1685.200	1439.052
440.890	0.434	1679.436	1405.072
441.905	0.253	1677.889	1401.910
442.920	0.188	1676.396	1399.892
443.934	0.117	1674.846	1397.770
444.949	0.059	1673.719	1396.119
445.963	0.065	1673.413	1395.755
446.978	0.122	1673.079	1395.839
447.993	0.036	1671.710	1393.730
449.007	0.075	1669.814	1392.342
450.022	0.058	1667.164	1389.808
451.036	0.199	1665.551	1389.601
452.051	1.566	1672.424	1407.902
453.066	12.851	1698.971	1536.288
454.080	23.719	1715.554	1653.350
455.095	25.961	1721.109	1679.531
456.109	28.427	1725.203	1706.435
457.124	29.443	1724.780	1715.305
458.139	28.805	1721.602	1705.994
459.153	28.214	1720.966	1699.639
460.168	28.037	1719.245	1696.091
461.182	28.539	1718.529	1699.853
462.197	29.274	1718.106	1706.080
463.212	29.460	1717.099	1706.600
464.226	29.734	1716.488	1708.334
465.241	30.081	1716.085	1710.951
466.255	30.204	1715.741	1711.547
467.270	30.129	1714.649	1709.556
468.285	30.337	1713.344	1709.971
469.299	30.680	1713.068	1712.671
470.314	30.883	1711.317	1712.588
471.328	30.973	1709.721	1711.619
472.343	31.061	1708.318	1710.819
473.358	30.957	1708.262	1709.600
474.372	31.073	1706.669	1708.873
475.387	31.307	1706.517	1710.670
476.401	31.254	1704.483	1707.941
477.416	30.686	1702.287	1700.318
478.430	30.795	1701.168	1699.993
479.445	31.044	1699.652	1700.563
480.460	30.625	1698.172	1695.033
481.474	30.985	1697.286	1697.242
482.489	31.265	1697.915	1700.235
483.503	31.222	1694.518	1696.235
484.518	30.742	1693.003	1690.137
485.533	31.050	1692.385	1692.123
486.547	30.886	1690.544	1688.589
487.562	30.524	1688.958	1683.504
488.576	30.859	1688.844	1686.240
489.591	31.452	1687.647	1690.238
490.606	31.388	1686.862	1688.661
491.620	31.411	1685.098	1686.903
492.635	31.461	1683.436	1685.495
493.649	30.882	1680.988	1677.600
494.664	30.593	1679.496	1673.296
495.679	30.567	1678.708	1672.075
496.693	30.771	1676.682	1671.699
497.708	31.009	1676.403	1673.367
498.722	31.173	1675.481	1673.727
499.737	31.450	1674.334	1674.879
500.752	31.261	1672.973	1671.614
501.766	31.217	1671.538	1669.581
502.781	31.451	1670.098	1670.044
503.795	31.255	1668.611	1666.605
504.810	31.096	1667.220	1663.590
505.825	30.985	1667.015	1662.186
506.839	30.712	1664.356	1656.893
507.854	30.672	1662.288	1654.279
508.868	30.518	1660.030	1650.457
509.883	29.975	1658.143	1643.549
510.898	29.359	1655.930	1635.666
511.912	28.906	1652.639	1628.186
512.927	28.485	1650.476	1622.118
513.941	28.350	1649.246	1619.515
514.956	28.734	1650.253	1623.725
515.971	29.616	1649.533	1630.651
516.985	29.366	1646.650	1625.389
518.000	28.823	1645.886	1619.638
519.014	28.627	1644.818	1616.651
520.029	28.707	1643.207	1615.586
521.043	28.643	1641.666	1613.315
522.058	28.504	1640.203	1610.456
523.073	28.679	1640.067	1611.670
524.087	29.168	1639.719	1615.447
525.102	29.709	1640.210	1620.504
526.116	30.041	1639.801	1622.832
527.131	30.616	1639.351	1627.257
528.146	30.839	1639.072	1628.741
529.160	31.009	1638.263	1629.238
530.175	31.356	1637.548	1631.374
531.189	31.422	1636.930	1631.143
532.204	31.403	1635.199	1629.060
533.219	31.367	1633.323	1626.683
534.233	31.068	1632.107	1622.658
535.248	30.871	1630.152	1618.797
536.262	30.770	1629.473	1617.050
537.277	31.124	1629.174	1619.649
538.292	31.529	1628.002	1621.822
539.306	31.469	1625.928	1619.035
540.321	31.081	1623.587	1613.139
541.335	30.589	1622.087	1607.184
542.350	30.920	1621.580	1609.363
543.365	31.562	1620.647	1613.812
544.379	31.721	1620.351	1614.703
545.394	31.545	1618.651	1611.294
546.408	31.097	1616.159	1604.745
547.423	31.078	1614.564	1602.807
548.438	31.330	1614.146	1604.373
549.452	31.351	1613.761	1603.981
550.467	31.066	1612.178	1599.762
551.481	31.166	1610.691	1598.953
552.496	31.141	1610.602	1598.460
553.511	31.291	1609.765	1598.728
554.525	31.375	1607.936	1597.444
555.540	31.299	1607.551	1596.214
556.554	31.459	1606.575	1596.431
557.569	31.255	1603.651	1591.580
558.583	30.658	1601.584	1584.230
559.598	30.558	1600.918	1582.529
560.613	30.673	1599.563	1581.983
561.627	30.620	1597.559	1579.357
562.642	30.155	1594.866	1572.541
563.656	29.596	1592.243	1565.009
564.671	29.280	1590.751	1560.665
565.686	28.970	1589.943	1557.053
566.700	28.952	1588.171	1554.979
567.715	28.889	1586.020	1552.148
568.729	29.020	1586.234	1553.287
569.744	29.542	1585.811	1557.109
570.759	29.807	1583.876	1557.271
571.773	29.461	1582.390	1552.696
572.788	29.401	1580.577	1550.224
573.802	29.227	1578.521	1546.555
574.817	29.065	1576.953	1543.468
575.832	29.102	1576.682	1543.330
576.846	29.883	1576.817	1549.851
577.861	30.483	1576.522	1554.428
578.875	30.839	1576.610	1557.317
579.890	30.988	1576.680	1558.452
580.905	31.245	1575.659	1559.418
581.919	31.262	1576.006	1559.711
582.934	31.494	1574.749	1560.226
583.948	31.235	1572.498	1555.643
584.963	31.292	1571.345	1554.791
585.978	31.037	1569.474	1550.622
586.992	30.743	1567.966	1546.493
588.007	30.863	1567.876	1547.226
589.021	30.474	1565.309	1541.264
590.036	29.422	1563.052	1530.091
591.051	30.162	1562.827	1535.853
592.065	30.804	1562.495	1540.679
593.080	31.020	1561.157	1540.973
594.094	31.214	1559.569	1540.832
595.109	31.054	1557.685	1537.460
596.123	31.271	1557.159	1538.551
597.138	31.673	1555.888	1540.438
598.153	31.227	1554.600	1535.295
599.167	30.962	1552.909	1531.249
600.182	30.717	1551.179	1527.346
601.196	30.922	1550.639	1528.317
602.211	31.198	1551.121	1530.881
603.226	31.149	1549.520	1528.717
604.240	31.267	1548.149	1528.152
605.255	31.259	1547.457	1527.221
606.269	31.375	1545.575	1526.137
607.284	31.096	1544.297	1522.398
608.299	30.859	1543.320	1519.315
609.313	30.621	1541.242	1515.138
610.328	30.581	1539.452	1512.872
611.342	30.887	1537.497	1513.267
612.357	30.590	1536.982	1510.153
613.372	30.419	1535.445	1507.068
614.386	30.266	1533.843	1504.067
615.401	30.332	1533.762	1504.344
616.415	30.088	1532.166	1500.615
617.430	29.626	1530.468	1495.019
618.445	29.328	1528.923	1490.901
619.459	29.139	1527.500	1487.805
620.474	29.184	1526.661	1487.175
621.488	29.524	1525.957	1489.070
622.503	30.176	1525.515	1493.736
623.518	29.778	1523.537	1488.406
624.532	29.390	1521.292	1482.903
625.547	29.206	1520.309	1480.275
626.561	29.225	1519.827	1479.782
627.576	29.401	1518.967	1480.189
628.591	29.566	1517.847	1480.251
629.605	29.815	1517.362	1481.605
630.620	30.123	1516.917	1483.472
631.634	30.856	1516.366	1488.647
632.649	30.881	1516.298	1488.598
633.663	30.486	1513.460	1482.471
634.678	29.903	1510.902	1475.121
635.693	29.501	1508.898	1469.772
636.707	29.270	1507.100	1465.993
637.722	29.335	1506.490	1465.744
638.736	29.915	1506.739	1470.447
639.751	30.601	1505.842	1474.864
640.766	30.698	1504.627	1474.272
641.780	30.640	1504.034	1473.054
642.795	30.836	1504.160	1474.558
643.809	31.038	1503.281	1475.127
644.824	31.079	1502.900	1474.903
645.839	31.280	1501.960	1475.400
646.853	31.333	1500.408	1474.116
647.868	31.083	1498.595	1470.184
648.882	30.929	1496.847	1467.076
649.897	30.829	1494.926	1464.226
650.912	30.680	1493.402	1461.376
651.926	30.705	1493.295	1461.297
652.941	30.651	1492.473	1459.889
653.955	30.495	1489.534	1455.610
654.970	29.610	1487.270	1446.268
655.985	29.299	1485.433	1441.862
656.999	29.213	1483.909	1439.538
658.014	29.521	1482.519	1440.433
659.028	30.025	1482.714	1444.397
660.043	30.505	1483.426	1448.683
661.058	30.602	1482.797	1448.656
662.072	30.656	1481.685	1447.814
663.087	30.617	1480.525	1446.204
664.101	30.367	1479.382	1442.963
665.116	30.677	1477.712	1443.582
666.131	30.702	1476.793	1442.707
667.145	30.890	1476.168	1443.385
668.160	30.745	1474.977	1440.922
669.174	30.716	1472.762	1438.360
670.189	30.759	1472.599	1438.356
671.204	31.023	1472.545	1440.183
672.218	30.916	1471.780	1438.436
673.233	31.038	1470.184	1437.652
674.247	31.129	1468.947	1436.968
675.262	30.855	1467.238	1433.011
676.276	30.812	1466.431	1431.715
677.291	30.815	1465.402	1430.566
678.306	31.026	1465.180	1431.801
679.320	31.003	1463.132	1429.452
680.335	30.628	1461.366	1424.674
681.349	30.658	1461.395	1424.759
682.364	30.723	1460.001	1423.728
683.379	30.357	1458.325	1419.116
684.393	30.069	1456.453	1414.908
685.408	30.090	1455.210	1413.695
686.422	29.981	1453.973	1411.488
687.437	29.645	1452.737	1407.549
688.452	29.383	1451.656	1404.325
689.466	29.344	1449.721	1401.993
690.481	29.505	1447.506	1400.907
691.495	29.621	1448.527	1402.616
692.510	30.305	1448.897	1408.022
693.525	31.022	1447.725	1412.174
694.539	30.585	1445.310	1406.326
695.554	29.866	1443.610	1399.048
696.568	29.294	1442.203	1393.169
697.583	29.250	1441.408	1391.902
698.598	29.577	1441.197	1394.010
699.612	29.775	1440.331	1394.509
700.627	30.075	1439.524	1395.830
701.641	30.381	1439.007	1397.479
702.656	30.652	1437.994	1398.376
703.671	30.643	1437.515	1397.677
704.685	30.737	1437.227	1397.937
705.700	30.756	1435.749	1396.477
706.714	30.461	1433.437	1391.842
707.729	30.371	1431.806	1389.410
708.744	30.487	1430.436	1388.791
709.758	30.027	1429.445	1384.202
710.773	29.589	1426.571	1377.973
711.787	29.477	1425.222	1375.670
712.802	30.160	1425.087	1380.484
713.816	30.216	1425.413	1381.055
714.831	30.405	1423.864	1380.805
715.846	30.390	1422.778	1379.470
716.860	30.337	1421.719	1377.883
717.875	30.295	1420.541	1376.263
718.889	30.104	1419.884	1374.040
719.904	29.984	1419.193	1372.314
720.919	30.086	1417.379	1371.156
721.933	29.991	1416.080	1369.030
722.948	29.866	1414.829	1366.722
723.962	30.050	1414.585	1367.693
724.977	30.009	1413.525	1366.199
725.992	30.349	1412.667	1367.724
727.006	30.695	1411.441	1368.936
728.021	30.672	1410.095	1367.297
729.035	30.605	1409.358	1365.920
730.050	30.637	1408.394	1365.061
731.065	30.583	1406.866	1363.017
732.079	30.398	1405.470	1360.141
733.094	30.389	1405.316	1359.764
734.108	30.619	1403.628	1359.658
735.123	30.564	1402.132	1357.639
736.138	30.291	1401.170	1354.540
737.152	30.340	1399.432	1353.058
738.167	30.327	1398.273	1351.684
739.181	30.462	1398.211	1352.452
740.196	30.413	1397.413	1351.154
741.211	30.335	1396.261	1349.312
742.225	30.156	1395.319	1346.934
743.240	30.093	1393.514	1344.571
744.254	29.864	1391.449	1340.746
745.269	29.606	1390.320	1337.624
746.284	29.291	1389.454	1334.340
747.298	29.153	1389.016	1332.754
748.313	29.428	1388.286	1333.893
749.327	29.804	1388.143	1336.326
750.342	30.397	1388.014	1340.343
751.356	30.905	1387.359	1343.239
752.371	30.737	1385.066	1339.640
753.386	29.957	1382.504	1331.368
754.400	29.883	1381.850	1330.043
755.415	30.244	1381.833	1332.472
756.429	30.487	1381.205	1333.461
757.444	30.552	1379.966	1332.572
758.459	30.403	1378.370	1329.799
759.473	30.137	1377.236	1326.636
760.488	29.938	1375.152	1323.041
761.502	29.738	1374.182	1320.513
762.517	29.806	1373.425	1320.113
763.532	30.323	1371.671	1321.971
764.546	30.105	1369.849	1318.499
765.561	29.498	1368.640	1312.845
766.575	28.918	1367.245	1307.205
767.590	28.873	1366.342	1305.864
768.605	29.676	1365.834	1310.947
769.619	29.979	1365.017	1312.166
770.634	29.965	1364.326	1311.245
771.648	29.833	1363.554	1309.409
772.663	29.700	1362.446	1307.241
773.678	29.982	1361.972	1308.633
774.692	30.202	1361.941	1310.005
775.707	30.215	1361.608	1309.621
776.721	30.335	1360.617	1309.361
777.736	30.209	1358.547	1306.321
778.751	30.323	1357.499	1305.969
779.765	30.218	1356.544	1304.150
780.780	30.147	1356.445	1303.396
781.794	30.253	1355.337	1302.921
782.809	29.935	1353.167	1298.441
783.824	29.439	1351.518	1293.207
784.838	29.446	1350.956	1292.566
785.853	30.202	1350.702	1297.489
786.867	30.068	1349.616	1295.346
787.882	29.637	1348.957	1291.533
788.897	29.186	1347.967	1287.265
789.911	29.103	1346.498	1285.125
790.926	29.348	1344.533	1284.806
791.940	29.443	1343.284	1284.125
792.955	29.604	1342.188	1284.049
793.969	29.597	1341.215	1282.919
794.984	29.741	1340.548	1283.132
795.999	30.012	1340.097	1284.431
797.013	30.139	1338.996	1284.109
798.028	30.045	1337.527	1281.892
799.042	29.958	1337.167	1280.788
800.057	29.913	1336.387	1279.575
801.072	29.923	1334.489	1277.676
802.086	30.055	1333.550	1277.537
803.101	30.081	1332.205	1276.275
804.115	29.942	1331.415	1274.405
805.130	29.937	1330.334	1273.184
806.145	29.875	1328.686	1271.026
807.159	29.620	1327.351	1267.838
808.174	29.690	1326.489	1267.344
809.188	29.702	1325.586	1266.415
810.203	29.667	1323.754	1264.268
811.218	29.670	1321.310	1261.810
812.232	29.151	1319.142	1256.027
813.247	28.833	1319.147	1253.701
814.261	29.068	1319.901	1255.881
815.276	29.598	1318.993	1258.500
816.291	29.578	1317.761	1257.037
817.305	29.520	1316.277	1255.071
818.320	29.696	1315.425	1255.310
819.334	29.837	1315.148	1255.856
820.349	30.001	1313.478	1255.232
821.364	29.982	1312.637	1254.146
822.378	30.004	1310.909	1252.498
823.393	30.015	1309.115	1250.708
824.407	29.854	1308.000	1248.403
825.422	29.717	1307.253	1246.610
826.437	29.501	1306.938	1244.694
827.451	29.493	1304.782	1242.441
828.466	29.663	1304.193	1242.883
829.480	30.076	1302.852	1244.238
830.495	29.689	1299.949	1238.714
831.509	29.289	1299.005	1234.970
832.524	29.368	1298.521	1234.896
833.539	29.661	1298.094	1236.317
834.553	29.746	1296.735	1235.444
835.568	29.748	1296.022	1234.628
836.582	29.735	1294.961	1233.382
837.597	29.836	1293.167	1232.202
838.612	29.761	1291.725	1230.180
839.626	29.539	1290.519	1227.401
840.641	29.310	1289.539	1224.795
841.655	29.229	1288.668	1223.282
842.670	28.839	1286.889	1218.846
843.685	28.444	1285.609	1214.858
844.699	28.895	1284.807	1216.955
845.714	29.163	1283.808	1217.644
846.728	29.179	1282.907	1216.751
847.743	29.247	1282.026	1216.221
848.758	29.404	1281.123	1216.255
849.772	29.726	1280.112	1217.285
850.787	29.657	1278.994	1215.616
851.801	29.659	1277.730	1214.286
852.816	29.593	1276.968	1212.977
853.831	29.566	1275.299	1211.069
854.845	29.518	1272.874	1208.305
855.860	29.404	1271.869	1206.462
856.874	29.299	1270.205	1204.051
857.889	29.430	1270.058	1204.627
858.904	29.670	1269.942	1205.945
859.918	30.029	1268.754	1207.024
860.933	30.338	1267.060	1207.285
861.947	29.951	1265.647	1203.271
862.962	29.377	1264.209	1198.013
863.977	29.295	1262.811	1196.008
864.991	29.287	1261.484	1194.554
866.006	29.172	1261.508	1193.687
867.020	29.241	1260.399	1192.944
868.035	29.641	1258.940	1194.022
869.049	29.637	1258.392	1193.330
870.064	29.782	1257.620	1193.398
871.079	29.750	1256.456	1191.944
872.093	29.394	1256.083	1189.142
873.108	29.240	1254.895	1186.877
874.122	29.237	1252.877	1184.802
875.137	29.036	1251.632	1182.191
876.152	28.849	1250.970	1180.215
877.166	28.796	1249.698	1178.529
878.181	28.777	1248.417	1177.058
879.195	29.018	1248.060	1178.131
880.210	29.229	1247.951	1179.246
881.225	29.374	1247.047	1179.185
882.239	29.458	1245.797	1178.399
883.254	29.456	1244.770	1177.272
884.268	29.489	1244.097	1176.707
885.283	29.535	1242.759	1175.600
886.298	29.566	1241.118	1174.100
887.312	29.543	1239.887	1172.649
888.327	29.634	1238.804	1172.064
889.341	29.550	1237.733	1170.375
890.356	29.247	1237.341	1167.938
891.371	29.121	1237.150	1166.812
892.385	29.277	1235.469	1166.078
893.400	29.163	1234.766	1164.552
894.414	29.139	1233.369	1162.945
895.429	29.269	1232.717	1163.017
896.444	29.958	1232.449	1166.992
897.458	30.560	1231.939	1170.175
898.473	30.142	1229.909	1165.470
899.487	29.748	1228.290	1161.309
900.502	29.111	1227.317	1156.228
901.517	29.207	1225.603	1155.082
902.531	29.106	1224.723	1153.475
903.546	29.220	1225.034	1154.348
904.560	29.375	1223.857	1154.080
905.575	29.477	1222.505	1153.303
906.589	29.278	1220.896	1150.404
907.604	29.194	1220.309	1149.186
