DTS Sentinel unit serial number:	SN409020Multiplexer serial number:	ORYXHardware model number:	OX4-SRSoftware version number:	ORYX F/W v3.00 Oryx Data Collector v3.7.2.0data status	okinstallation	HaddamTimeLapsedifferential loss correction	single-endedforward channel	channel 3reverse channel	N/Adate	2011/06/22time	10:36:17forward acquisition time	30.00reverse acquisition time	0.00gamma	498.7831k internal	0.1811k external	0.1811temperature offset calibration	1.0074default loss term (dB/km)	0.3790temperature slope calibration	1.3530multiplexer offset coefficient	1.0000multiplexer slope coefficient	1.0000fibre end	0.00T internal ref (°C)	30.25T ext. ref 1 (°C)	25.73T ext. ref 2 (°C)	-0.05length (m)	temperature (°C)	Stokes	anti-Stokes-747.200	258.772	-0.303	0.674
-746.185	-174.754	-0.308	0.011
-745.171	257.119	0.177	-0.393
-744.156	-85.741	-0.349	0.139
-743.142	-86.418	0.037	0.015
-742.127	-14.278	-0.115	0.095
-741.112	136.976	0.112	0.188
-740.098	7.450	0.290	0.278
-739.083	-139.046	0.813	0.112
-738.069	-149.527	0.250	0.025
-737.054	-105.238	-0.141	0.041
-736.039	45.310	0.019	-0.023
-735.025	509.843	-0.202	0.605
-734.010	57.927	0.204	0.256
-732.996	26.106	-0.152	-0.163
-731.981	-200.000	-0.010	-0.328
-730.966	374.254	-0.103	-0.269
-729.952	-181.104	-0.106	-0.003
-728.937	43.029	-0.067	0.078
-727.923	60.861	0.304	0.387
-726.908	-82.838	0.495	-0.204
-725.894	44.829	-0.147	-0.174
-724.879	126.980	-0.225	-0.367
-723.864	-44.736	-0.204	-0.130
-722.850	48.665	0.080	0.096
-721.835	35.042	0.170	-0.191
-720.821	6.240	0.135	0.128
-719.806	-1.044	-0.168	-0.152
-718.791	48.945	0.045	0.054
-717.777	-200.000	0.005	-0.151
-716.762	99.843	-0.038	0.056
-715.748	82.970	-0.092	-0.129
-714.733	106.367	0.054	-0.083
-713.718	-142.582	-0.581	-0.072
-712.704	126.844	-0.251	-0.409
-711.689	-191.021	0.502	0.007
-710.675	-22.232	0.580	-0.451
-709.660	32.497	0.059	0.066
-708.645	-65.279	-0.164	-0.084
-707.631	-3.041	0.296	-0.265
-706.616	24.192	-0.106	-0.112
-705.602	-26.858	-0.080	-0.060
-704.587	12.420	-0.147	0.145
-703.572	-200.000	0.012	-0.200
-702.558	282.479	0.066	0.153
-701.543	98.297	0.174	0.258
-700.529	152.751	0.226	0.397
-699.514	800.000	0.104	0.370
-698.499	-142.091	-0.322	-0.041
-697.485	-200.000	-0.007	0.346
-696.470	72.047	-0.173	0.231
-695.456	75.959	-0.156	-0.212
-694.441	-145.686	-0.077	0.009
-693.426	111.256	-0.181	-0.280
-692.412	-92.403	-0.408	0.146
-691.397	-100.665	-0.192	-0.060
-690.383	-2.187	-0.245	-0.220
-689.368	250.590	-0.231	-0.506
-688.354	-79.606	-0.258	0.111
-687.339	-132.605	-0.080	0.013
-686.324	-83.095	0.050	-0.021
-685.310	-175.273	0.255	0.009
-684.295	800.000	-0.054	-0.285
-683.281	-174.906	0.280	-0.010
-682.266	529.226	-0.107	0.326
-681.251	-132.813	-0.599	0.097
-680.237	106.269	0.209	-0.318
-679.222	-56.071	-0.405	-0.230
-678.208	-84.399	-0.352	-0.142
-677.193	-69.974	0.097	-0.047
-676.178	-200.000	-0.017	-0.181
-675.164	160.863	0.376	0.675
-674.149	-51.360	-0.609	0.364
-673.135	125.358	0.180	-0.292
-672.120	-200.000	-0.013	0.173
-671.105	-44.535	-0.166	-0.106
-670.091	-86.829	-0.169	0.066
-669.076	50.217	-0.103	0.125
-668.062	-200.000	-0.030	0.385
-667.047	-89.919	-0.208	0.077
-666.032	250.808	-0.052	-0.113
-665.018	254.609	0.149	0.328
-664.003	-107.217	-0.134	0.038
-662.989	800.000	0.091	0.414
-661.974	96.423	0.149	-0.219
-660.959	135.215	-0.167	0.279
-659.945	38.112	-0.099	-0.113
-658.930	248.982	0.111	0.242
-657.916	-137.564	-0.249	-0.036
-656.901	-142.917	-0.433	0.053
-655.886	-79.510	0.128	0.055
-654.872	-200.000	-0.031	0.378
-653.857	314.039	0.065	-0.156
-652.843	36.621	-0.318	0.359
-651.828	-200.000	-0.052	-0.350
-650.814	-152.851	-0.481	0.043
-649.799	-112.284	-0.327	-0.083
-648.784	-131.459	-0.358	-0.060
-647.770	119.704	0.233	-0.369
-646.755	-200.000	0.002	0.061
-645.741	-177.018	0.590	0.019
-644.726	7.672	0.310	0.296
-643.711	-200.000	-0.008	-0.401
-642.697	-73.055	0.266	-0.124
-641.682	324.469	-0.064	0.156
-640.668	800.000	0.106	-0.546
-639.653	135.579	-0.152	-0.253
-638.638	-124.991	-0.269	-0.052
-637.624	-50.184	-0.413	-0.249
-636.609	170.544	0.178	-0.327
-635.595	404.280	0.126	0.341
-634.580	-165.423	-0.608	0.034
-633.565	78.249	-0.094	-0.128
-632.551	508.622	0.149	-0.443
-631.536	-64.620	-0.166	-0.086
-630.522	800.000	0.033	-0.170
-629.507	-21.696	0.057	-0.044
-628.492	-145.143	0.425	0.049
-627.478	-155.482	-0.341	-0.028
-626.463	-200.000	-0.093	-0.617
-625.449	-170.645	-0.192	-0.008
-624.434	-67.627	-0.285	-0.142
-623.419	-25.613	-0.240	0.181
-622.405	37.947	-0.283	0.322
-621.390	800.000	-0.101	0.442
-620.376	-47.989	0.375	-0.231
-619.361	-181.064	0.451	-0.011
-618.346	-106.056	0.192	-0.055
-617.332	-200.000	0.004	-0.190
-616.317	51.260	0.051	-0.062
-615.303	63.144	-0.432	-0.554
-614.288	-173.061	0.412	0.016
-613.273	-200.000	-0.016	-0.109
-612.259	-105.359	-0.298	0.086
-611.244	-200.000	0.033	-0.376
-610.230	-200.000	-0.036	-0.346
-609.215	-61.571	0.164	-0.087
-608.201	356.689	0.213	-0.546
-607.186	3.244	-0.106	-0.099
-606.171	-52.895	0.108	0.064
-605.157	-8.567	0.269	-0.231
-604.142	-200.000	0.025	-0.451
-603.128	45.163	0.280	-0.330
-602.113	-173.169	-0.081	0.003
-601.098	-50.917	0.402	-0.241
-600.084	359.591	0.157	-0.403
-599.069	235.394	0.028	-0.058
-598.055	559.749	-0.143	-0.443
-597.040	15.750	-0.167	-0.167
-596.025	2.846	0.210	-0.195
-595.011	135.260	-0.106	0.177
-593.996	16.661	-0.242	0.244
-592.982	198.768	-0.103	0.201
-591.967	22.694	-0.377	0.394
-590.952	250.752	-0.169	0.368
-589.938	-200.000	0.047	-0.577
-588.923	359.847	0.129	0.331
-587.909	-200.000	0.620	0.001
-586.894	36.672	0.143	0.161
-585.879	-94.198	-0.356	0.124
-584.865	115.894	-0.128	0.200
-583.850	-50.159	0.391	0.236
-582.836	18.224	-0.329	0.335
-581.821	-85.408	-0.079	0.031
-580.806	-74.065	-0.360	0.166
-579.792	17.277	0.200	0.203
-578.777	-67.632	-0.539	0.268
-577.763	47.234	0.148	0.176
-576.748	637.837	-0.011	-0.037
-575.733	90.200	0.280	-0.401
-574.719	-163.743	0.382	0.023
-573.704	-95.741	-0.169	-0.057
-572.690	111.694	0.157	0.242
-571.675	27.628	-0.033	0.035
-570.661	22.387	-0.245	0.255
-569.646	80.499	0.301	0.414
-568.631	-8.009	0.232	-0.200
-567.617	110.828	0.173	-0.265
-566.602	113.090	-0.098	-0.153
-565.588	-111.532	0.320	-0.082
-564.573	-121.094	0.582	0.123
-563.558	-82.533	0.307	0.126
-562.544	800.000	0.102	-0.480
-561.529	-63.178	0.261	0.137
-560.515	-75.597	0.119	-0.054
-559.500	-41.237	-0.254	-0.166
-558.485	17.501	0.051	0.052
-557.471	38.122	-0.288	-0.326
-556.456	175.538	-0.137	-0.254
-555.442	-21.213	-0.214	-0.167
-554.427	-76.617	-0.189	-0.084
-553.412	-110.209	0.282	-0.074
-552.398	-200.000	0.011	-0.319
-551.383	13.479	0.113	0.112
-550.369	-119.099	-0.485	-0.107
-549.354	-89.555	0.152	0.057
-548.339	-200.000	0.002	0.227
-547.325	39.383	-0.300	-0.343
-546.310	-136.575	-0.207	0.030
-545.296	-113.256	-0.229	-0.057
-544.281	275.414	-0.070	-0.160
-543.266	224.718	-0.181	-0.375
-542.252	-77.021	0.198	0.087
-541.237	490.573	-0.086	-0.253
-540.223	-79.554	-0.507	-0.217
-539.208	87.125	0.180	-0.254
-538.193	-108.268	-0.372	-0.102
-537.179	-57.356	-0.431	0.241
-536.164	-122.252	-0.249	-0.051
-535.150	109.930	-0.325	-0.497
-534.135	252.507	-0.135	0.294
-533.121	58.870	-0.479	0.600
-532.106	113.227	0.075	0.117
-531.091	-200.000	0.043	-0.272
-530.077	-200.000	0.043	-0.612
-529.062	-45.524	0.108	-0.068
-528.048	-18.593	-0.218	-0.173
-527.033	88.696	-0.273	-0.387
-526.018	-200.000	0.093	0.624
-525.004	-136.230	0.493	0.073
-523.989	-142.226	-0.149	0.019
-522.975	-200.000	-0.048	0.385
-521.960	250.368	0.052	0.113
-520.945	17.164	0.077	-0.078
-519.931	80.500	-0.174	0.239
-518.916	-200.000	-0.047	-0.277
-517.902	800.000	0.091	-0.354
-516.887	4.017	-0.387	0.360
-515.872	-113.706	-0.282	0.070
-514.858	59.196	-0.115	-0.144
-513.843	800.000	0.034	-0.168
-512.829	77.268	0.192	0.261
-511.814	144.648	-0.111	-0.189
-510.799	-22.597	-0.114	0.088
-509.785	23.076	0.107	-0.112
-508.770	57.841	-0.207	0.259
-507.756	-130.984	0.191	0.032
-506.741	169.036	-0.117	-0.213
-505.726	74.602	0.118	-0.159
-504.712	-200.000	0.008	0.318
-503.697	-96.894	-0.194	0.064
-502.683	387.636	0.128	0.337
-501.668	-13.397	-0.119	-0.098
-500.653	-200.000	0.064	-0.382
-499.639	72.083	-0.175	0.232
-498.624	-75.176	0.432	-0.195
-497.610	-96.955	0.277	-0.092
-496.595	782.843	-0.044	-0.155
-495.581	800.000	-0.033	-0.132
-494.566	1.002	-0.135	-0.123
-493.551	-66.766	0.254	0.127
-492.537	-38.315	0.158	0.106
-491.522	17.939	0.385	0.390
-490.508	151.166	-0.237	0.411
-489.493	363.546	0.015	-0.038
-488.478	77.329	0.183	0.247
-487.464	-200.000	0.008	-0.144
-486.449	-9.831	-0.145	0.122
-485.435	-200.000	-0.046	-0.394
-484.420	-9.289	-0.123	0.104
-483.405	-18.081	0.286	-0.228
-482.391	4.975	-0.165	0.154
-481.376	-84.713	-0.015	0.006
-480.362	-116.570	-0.271	-0.063
-479.347	-47.145	0.462	-0.285
-478.332	-123.314	0.350	0.070
-477.318	-93.272	0.253	0.089
-476.303	64.611	0.343	-0.440
-475.289	82.306	-0.068	0.093
-474.274	-106.945	-0.512	0.143
-473.259	-78.447	-0.446	0.193
-472.245	-83.801	0.192	0.077
-471.230	5.092	-0.106	0.099
-470.216	-88.554	0.603	0.227
-469.201	111.230	-0.063	0.096
-468.186	107.436	-0.175	0.266
-467.172	-200.000	-0.022	-0.597
-466.157	-38.383	0.212	-0.143
-465.143	-15.787	0.247	0.200
-464.128	449.937	-0.184	0.519
-463.113	-147.822	0.437	0.046
-462.099	800.000	0.067	0.308
-461.084	139.913	-0.240	-0.402
-460.070	87.726	0.135	0.190
-459.055	-50.440	-0.224	-0.134
-458.040	-74.320	-0.207	-0.095
-457.026	-70.878	-0.086	0.041
-456.011	45.826	-0.301	0.354
-454.997	-127.078	-0.307	0.057
-453.982	-74.852	-0.093	0.042
-452.968	-106.513	0.158	0.045
-451.953	-139.644	0.604	0.081
-450.938	-179.568	0.092	0.002
-449.924	18.326	-0.255	-0.258
-448.909	-32.058	0.095	0.068
-447.895	-107.682	-0.091	-0.025
-446.880	-92.683	-0.177	0.062
-445.865	470.802	0.181	0.521
-444.851	13.748	-0.317	-0.313
-443.836	-114.852	-0.412	0.099
-442.822	-161.030	-0.157	-0.010
-441.807	-129.078	0.119	-0.021
-440.792	618.730	0.005	-0.016
-439.778	-92.569	0.175	0.062
-438.763	-200.000	0.009	-0.091
-437.749	-55.133	0.397	-0.226
-436.734	66.941	-0.069	0.089
-435.719	25.954	0.191	-0.202
-434.705	-104.245	0.502	0.147
-433.690	-44.821	-0.608	0.383
-432.676	-30.278	-0.374	0.269
-431.661	-150.168	0.081	-0.008
-430.646	-19.379	-0.430	-0.337
-429.632	-115.388	-0.347	0.082
-428.617	-172.058	0.302	0.012
-427.603	-15.191	0.390	0.316
-426.588	-200.000	0.061	0.398
-425.573	-15.882	-0.352	0.284
-424.559	-9.937	-0.160	-0.135
-423.544	-93.272	0.533	0.187
-422.530	-113.367	0.433	-0.107
-421.515	-22.687	-0.194	-0.149
-420.500	38.794	0.286	0.324
-419.486	-42.058	0.591	0.383
-418.471	8.387	0.237	0.226
-417.457	8.596	0.185	-0.176
-416.442	184.075	0.359	0.675
-415.428	176.213	0.139	0.256
-414.413	-16.737	0.154	0.123
-413.398	-154.059	0.213	-0.018
-412.384	432.675	-0.013	0.035
-411.369	-114.232	-0.393	0.095
-410.355	-6.561	-0.094	-0.081
-409.340	-113.047	0.364	0.090
-408.325	-72.630	0.240	-0.112
-407.311	505.781	0.125	-0.368
-406.296	800.000	-0.077	0.301
-405.282	15.097	-0.338	0.335
-404.267	172.125	0.227	0.415
-403.252	206.012	0.290	0.574
-402.238	-19.656	0.056	-0.044
-401.223	434.194	0.202	0.560
-400.209	-69.178	-0.399	0.193
-399.194	-167.408	-0.213	0.011
-398.179	-108.976	0.368	-0.099
-397.165	119.857	0.299	-0.470
-396.150	294.686	0.048	-0.112
-395.136	163.335	0.099	0.177
-394.121	-46.414	0.380	-0.236
-393.106	800.000	-0.041	-0.171
-392.092	104.651	0.145	-0.216
-391.077	77.094	0.079	-0.107
-390.063	-30.794	0.379	-0.271
-389.048	167.365	0.274	-0.495
-388.033	-104.698	-0.427	-0.124
-387.019	-76.985	-0.303	0.133
-386.004	800.000	-0.106	0.502
-384.990	-142.991	-0.393	-0.048
-383.975	-82.185	0.618	0.254
-382.960	-48.536	-0.270	0.164
-381.946	51.839	-0.056	-0.067
-380.931	-182.599	-0.724	0.016
-379.917	-138.735	-0.417	0.057
-378.902	39.434	-0.048	-0.054
-377.888	-78.412	-0.200	0.086
-376.873	-200.000	-0.032	0.248
-375.858	51.016	-0.172	0.207
-374.844	-200.000	-0.016	0.406
-373.829	-1.324	-0.371	-0.332
-372.815	-40.904	-0.246	-0.161
-371.800	-181.944	-0.312	-0.007
-370.785	-51.617	-0.075	-0.044
-369.771	-200.000	-0.017	-0.205
-368.756	-66.872	0.147	0.073
-367.742	623.892	0.155	0.496
-366.727	-86.197	-0.289	-0.112
-365.712	-88.692	0.459	-0.172
-364.698	73.383	-0.326	0.433
-363.683	89.782	0.236	0.334
-362.669	261.551	-0.102	0.225
-361.654	-164.968	-0.348	-0.019
-360.639	163.158	0.221	0.394
-359.625	100.696	-0.251	0.370
-358.610	404.212	-0.077	-0.205
-357.596	-145.582	0.500	-0.056
-356.581	800.000	0.115	-0.423
-355.566	461.088	0.096	-0.271
-354.552	-21.227	0.281	0.217
-353.537	-200.000	-0.021	-0.516
-352.523	-54.820	-0.392	0.223
-351.508	188.566	-0.055	0.105
-350.493	164.424	0.090	-0.161
-349.479	-52.914	-0.125	0.073
-348.464	-200.000	0.066	-0.419
-347.450	552.896	-0.118	0.361
-346.435	31.536	0.034	0.037
-345.420	0.060	0.281	-0.253
-344.406	184.902	-0.057	-0.107
-343.391	31.502	0.202	-0.220
-342.377	449.378	0.104	-0.292
-341.362	-170.662	0.551	0.024
-340.348	800.000	-0.023	0.086
-339.333	-185.898	-0.115	-0.002
-338.318	238.469	0.212	0.447
-337.304	-116.558	0.180	-0.042
-336.289	-200.000	-0.010	-0.396
-335.275	-40.205	0.179	0.118
-334.260	236.715	0.189	-0.396
-333.245	-81.961	-0.192	0.079
-332.231	102.400	0.185	0.274
-331.216	210.761	0.094	-0.187
-330.202	800.000	-0.013	0.067
-329.187	-188.795	0.216	-0.003
-328.172	620.356	-0.066	0.210
-327.158	-18.411	0.175	0.138
-326.143	163.290	0.086	-0.154
-325.129	270.024	-0.053	-0.119
-324.114	-146.803	-0.347	-0.037
-323.099	-101.813	-0.366	0.111
-322.085	-68.289	0.352	-0.172
-321.070	209.536	-0.114	0.227
-320.056	-200.000	-0.010	-0.152
-319.041	-28.390	-0.176	0.128
-318.026	-200.000	0.021	0.153
-317.012	58.579	-0.193	0.239
-315.997	540.791	-0.131	0.395
-314.983	470.126	-0.067	-0.190
-313.968	-102.075	-0.325	0.098
-312.953	-4.172	0.190	0.166
-311.939	800.000	0.031	-0.142
-310.924	-28.052	0.234	0.171
-309.910	-200.000	0.007	-0.246
-308.895	800.000	0.081	0.364
-307.880	-52.788	-0.281	0.163
-306.866	-146.642	0.048	-0.005
-305.851	171.843	-0.078	-0.142
-304.837	141.415	0.032	-0.053
-303.822	-88.031	0.465	0.175
-302.807	117.772	-0.254	-0.395
-301.793	-21.903	0.566	0.433
-300.778	800.000	0.029	0.125
-299.764	-103.825	-0.266	-0.078
-298.749	-12.741	0.103	0.085
-297.735	430.319	-0.062	-0.171
-296.720	-47.175	0.307	-0.188
-295.705	-53.302	0.485	-0.280
-294.691	-112.036	0.192	0.048
-293.676	-39.365	0.433	0.286
-292.662	88.913	-0.464	0.652
-291.647	-20.461	-0.516	0.400
-290.632	91.027	-0.275	0.389
-289.618	-131.150	-0.413	0.069
-288.603	68.650	-0.106	-0.138
-287.589	79.897	0.223	0.303
-286.574	-30.455	0.410	-0.293
-285.559	-66.652	-0.360	-0.179
-284.545	-45.527	0.424	-0.264
-283.530	134.480	-0.284	0.465
-282.516	-21.777	0.049	0.037
-281.501	91.393	-0.253	0.359
-280.486	-89.712	0.305	-0.112
-279.472	-107.627	0.147	-0.040
-278.457	-53.182	0.358	0.207
-277.443	-79.388	0.117	-0.050
-276.428	-159.579	0.390	-0.027
-275.413	-148.936	-0.412	-0.041
-274.399	-107.593	-0.730	0.200
-273.384	-105.970	-0.442	0.125
-272.370	93.215	-0.246	0.351
-271.355	-200.000	-0.061	0.356
-270.340	-10.600	-0.138	-0.115
-269.326	7.387	-0.340	0.320
-268.311	-3.442	0.088	0.077
-267.297	167.312	-0.206	-0.369
-266.282	-66.172	-0.173	-0.086
-265.267	163.525	-0.090	-0.159
-264.253	46.286	0.187	0.219
-263.238	-97.146	-0.376	-0.123
-262.224	349.873	-0.189	-0.473
-261.209	-200.000	-0.004	-0.163
-260.195	8.087	-0.213	-0.201
-259.180	-122.980	0.063	-0.013
-258.165	-200.000	-0.017	-0.163
-257.151	-145.691	-0.494	-0.055
-256.136	-16.684	-0.393	-0.313
-255.122	-125.700	-0.275	-0.052
-254.107	150.895	-0.166	0.285
-253.092	50.529	0.146	-0.174
-252.078	310.151	0.033	0.078
-251.063	1.837	-0.214	-0.194
-250.049	-200.000	0.001	0.146
-249.034	66.055	0.300	-0.384
-248.019	-30.908	-0.320	-0.227
-247.005	-119.541	-0.392	0.085
-245.990	-97.721	0.725	0.235
-244.976	-43.270	-0.145	-0.092
-243.961	427.924	-0.027	0.074
-242.946	19.081	0.495	-0.500
-241.932	-12.985	0.102	-0.084
-240.917	-74.290	-0.385	-0.174
-239.903	61.405	-0.124	-0.155
-238.888	-100.726	0.165	0.051
-237.873	623.760	-0.034	-0.108
-236.859	678.502	0.132	-0.434
-235.844	24.249	-0.091	-0.094
-234.830	800.000	-0.121	0.462
-233.815	87.029	0.123	-0.172
-232.800	-11.254	0.265	0.220
-231.786	-90.864	0.402	-0.145
-230.771	-178.695	0.297	-0.008
-229.757	-200.000	-0.059	0.360
-228.742	-126.344	0.698	0.130
-227.727	800.000	0.035	-0.192
-226.713	-49.612	0.323	0.193
-225.698	58.294	0.232	-0.287
-224.684	-45.035	0.404	0.253
-223.669	-27.334	0.222	0.163
-222.655	-83.914	0.369	-0.147
-221.640	-27.349	-0.129	0.094
-220.625	10.033	-0.071	0.068
-219.611	13.289	-0.225	0.219
-218.596	800.000	0.119	0.441
-217.582	29.534	-0.104	0.111
-216.567	-63.317	-0.448	0.231
-215.552	-200.000	-0.015	0.161
-214.538	45.082	0.160	-0.186
-213.523	-19.469	-0.250	-0.195
-212.509	42.174	-0.055	0.063
-211.494	-45.441	-0.295	0.183
-210.479	193.369	0.137	-0.261
-209.465	-200.000	-0.008	0.407
-208.450	276.922	-0.115	0.259
-207.436	-50.758	-0.336	-0.198
-206.421	230.948	-0.287	0.593
-205.406	124.318	-0.120	0.190
-204.392	800.000	0.049	0.221
-203.377	19.360	-0.183	-0.185
-202.363	-131.542	-0.610	-0.100
-201.348	490.870	-0.133	0.386
-200.333	-200.000	0.033	-0.328
-199.319	-200.000	-0.103	-0.654
-198.304	-72.983	0.395	-0.182
-197.290	-10.277	0.419	0.349
-196.275	800.000	-0.071	0.293
-195.260	83.123	-0.024	0.033
-194.246	-125.710	-0.180	-0.034
-193.231	-48.388	0.091	0.055
-192.217	800.000	-0.069	-0.343
-191.202	-10.212	0.165	0.137
-190.187	9.735	0.313	-0.298
-189.173	-63.626	0.367	0.189
-188.158	-33.411	-0.250	-0.173
-187.144	-88.511	-0.654	-0.244
-186.129	287.630	0.153	0.349
-185.114	690.828	-0.088	-0.292
-184.100	478.727	0.008	0.022
-183.085	-69.059	0.086	0.041
-182.071	-175.110	0.202	-0.007
-181.056	-200.000	-0.026	-0.521
-180.042	-31.185	0.173	0.122
-179.027	196.141	0.142	0.273
-178.012	675.153	0.129	-0.423
-176.998	-200.000	-0.007	0.126
-175.983	146.108	0.211	-0.357
-174.969	120.680	0.210	-0.329
-173.954	-108.744	0.242	-0.065
-172.939	76.730	-0.162	0.216
-171.925	111.412	0.044	-0.066
-170.910	-67.800	-0.245	0.120
-169.896	-58.807	-0.285	-0.154
-168.881	232.997	-0.136	-0.282
-167.866	-100.938	-0.313	-0.096
-166.852	591.537	-0.133	-0.414
-165.837	-200.000	0.313	0.000
-164.823	-194.697	0.185	-0.002
-163.808	-145.112	0.764	-0.086
-162.793	120.047	-0.184	0.287
-161.779	-109.604	-0.274	0.072
-160.764	389.061	-0.048	0.127
-159.750	-16.518	-0.146	-0.116
-158.735	-57.326	0.438	-0.241
-157.720	-107.506	-0.079	-0.022
-156.706	250.364	0.049	0.106
-155.691	-27.470	-0.267	-0.194
-154.677	266.095	0.115	0.252
-153.662	-76.712	0.250	-0.109
-152.647	-143.024	0.271	0.033
-151.633	12.034	-0.332	0.320
-150.618	-187.397	0.347	-0.006
-149.604	-50.466	-0.343	0.203
-148.589	800.000	0.043	0.221
-147.574	-123.151	0.275	-0.055
-146.560	-200.000	0.070	0.397
-145.545	-41.956	-0.192	-0.123
-144.531	800.000	0.040	-0.194
-143.516	-200.000	-0.020	0.120
-142.502	-9.070	-0.121	0.101
-141.487	-121.376	-0.240	0.050
-140.472	-81.835	-0.278	0.114
-139.458	785.895	-0.110	-0.381
-138.443	-113.191	-0.368	0.090
-137.429	-13.674	0.216	0.175
-136.414	-200.000	-0.048	-0.343
-135.399	-89.724	-0.329	0.120
-134.385	74.848	-0.247	-0.326
-133.370	-28.393	0.085	0.061
-132.356	81.065	-0.097	-0.132
-131.341	-171.715	-0.393	0.016
-130.326	228.259	-0.216	0.443
-129.312	258.570	0.005	0.011
-128.297	679.062	-0.026	-0.087
-127.283	-148.336	-0.402	0.041
-126.268	128.557	0.255	0.408
-125.253	-140.212	0.131	0.017
-124.239	709.502	-0.044	-0.148
-123.224	39.783	-0.288	0.324
-122.210	-55.283	0.115	-0.064
-121.195	212.500	-0.202	0.401
-120.180	-20.124	0.523	0.403
-119.166	-200.000	0.020	0.306
-118.151	-155.299	-0.276	-0.022
-117.137	-127.067	-0.337	-0.061
-116.122	408.537	0.078	-0.208
-115.107	-114.801	0.610	-0.145
-114.093	-29.510	-0.198	-0.141
-113.078	-200.000	0.008	0.201
-112.064	-187.869	0.074	0.001
-111.049	-97.045	0.330	-0.108
-110.034	-13.259	-0.159	-0.129
-109.020	-109.452	-0.311	-0.082
-108.005	-103.619	-0.261	-0.076
-106.991	301.177	0.153	0.356
-105.976	-155.522	0.767	0.061
-104.962	-119.007	0.120	0.026
-103.947	-147.517	-0.280	0.029
-102.932	-168.904	-0.145	0.007
-101.918	29.461	-0.151	0.160
-100.903	-58.687	-0.335	-0.181
-99.889	-23.219	-0.331	-0.249
-98.874	118.375	-0.330	-0.511
-97.859	800.000	0.070	0.247
-96.845	173.062	-0.215	-0.389
-95.830	-134.105	-0.506	0.077
-94.816	-47.623	-0.503	0.305
-93.801	800.000	-0.091	-0.322
-92.786	-200.000	-0.026	-0.310
-91.772	-109.214	0.236	-0.062
-90.757	115.207	0.295	-0.452
-89.743	800.000	-0.052	-0.281
-88.728	-78.055	0.411	-0.176
-87.713	154.251	-0.084	-0.145
-86.699	-200.000	0.002	0.589
-85.684	671.759	-0.125	-0.407
-84.670	113.729	0.282	-0.430
-83.655	184.477	0.315	-0.587
-82.640	-200.000	0.034	0.337
-81.626	167.448	0.174	-0.309
-80.611	800.000	-0.082	0.333
-79.597	-170.236	-0.508	0.022
-78.582	57.991	-0.179	0.219
-77.567	-60.713	-0.095	-0.050
-76.553	-74.527	-0.581	-0.261
-75.538	439.233	0.194	-0.534
-74.524	629.081	-0.055	-0.175
-73.509	-47.795	-0.270	-0.163
-72.494	117.280	-0.090	-0.138
-71.480	-200.000	0.050	0.595
-70.465	488.081	-0.047	0.135
-69.451	178.449	-0.094	-0.172
-68.436	-200.000	0.030	0.168
-67.422	800.000	0.033	0.177
-66.407	298.500	-0.174	0.401
-65.392	-200.000	0.020	0.352
-64.378	4.474	-0.229	-0.210
-63.363	4.126	-0.199	0.182
-62.349	2.410	0.709	0.641
-61.334	-2.612	-2.066	-1.806
-60.319	124.094	0.690	1.086
-59.305	225.969	-3.262	-6.634
-58.290	17.341	3.347	3.322
-57.276	463.118	3.931	11.032
-56.261	-200.000	17.055	254.189
-55.246	443.918	1202.298	3312.923
-54.232	62.585	2824.368	3531.720
-53.217	71.963	2711.788	3530.494
-52.203	63.219	2442.953	3063.094
-51.188	35.959	2097.314	2307.275
-50.173	33.498	1973.774	2143.346
-49.159	31.117	1963.069	2104.670
-48.144	30.635	1959.452	2095.254
-47.130	30.566	1956.829	2091.584
-46.115	30.505	1955.852	2089.764
-45.100	30.523	1953.558	2087.434
-44.086	30.587	1951.555	2085.932
-43.071	30.445	1950.631	2083.263
-42.057	30.443	1948.847	2081.257
-41.042	30.457	1948.361	2080.808
-40.027	30.545	1946.127	2079.330
-39.013	30.451	1944.920	2076.906
-37.998	30.544	1942.851	2075.656
-36.984	30.504	1942.392	2074.638
-35.969	30.477	1939.853	2071.539
-34.954	30.425	1939.085	2070.058
-33.940	30.377	1937.949	2068.219
-32.925	30.362	1936.311	2066.219
-31.911	30.488	1935.220	2066.391
-30.896	30.295	1934.402	2063.268
-29.881	30.383	1932.544	2062.189
-28.867	30.321	1931.899	2060.734
-27.852	30.232	1930.838	2058.521
-26.838	30.164	1929.403	2056.156
-25.823	30.315	1927.700	2055.942
-24.809	30.276	1926.083	2053.697
-23.794	30.196	1925.535	2052.148
-22.779	30.206	1924.011	2050.547
-21.765	30.268	1921.989	2048.996
-20.750	30.324	1920.167	2047.602
-19.736	30.220	1919.552	2045.707
-18.721	30.184	1918.230	2043.822
-17.706	30.272	1916.510	2042.883
-16.692	30.143	1916.707	2041.580
-15.677	30.068	1915.522	2039.407
-14.663	30.106	1913.801	2037.913
-13.648	30.087	1912.613	2036.355
-12.633	30.211	1910.974	2035.895
-11.619	30.139	1909.494	2033.448
-10.604	30.143	1909.203	2033.102
-9.590	30.270	1906.994	2032.063
-8.575	30.075	1906.774	2029.610
-7.560	30.070	1905.158	2027.749
-6.546	30.109	1904.072	2026.943
-5.531	30.022	1902.744	2024.498
-4.517	30.048	1902.014	2023.921
-3.502	30.085	1900.142	2022.253
-2.487	30.229	1899.094	2022.634
-1.473	30.323	1895.728	2019.998
-0.458	30.195	1876.551	1998.103
0.556	26.790	2016.393	2094.978
1.571	25.959	2230.068	2306.020
2.586	27.139	2276.249	2368.967
3.600	27.250	2278.829	2372.822
4.615	27.255	2277.848	2371.580
5.629	27.229	2275.600	2368.615
6.644	27.280	2274.283	2367.633
7.659	27.309	2271.905	2365.249
8.673	27.485	2269.814	2365.087
9.688	26.884	2276.033	2363.423
10.702	24.394	2351.213	2407.467
11.717	22.068	2416.619	2441.677
12.731	12.601	2391.419	2284.405
13.746	2.543	2362.623	2117.407
14.761	0.593	2357.132	2085.193
15.775	0.372	2354.910	2079.915
16.790	0.304	2353.921	2077.843
17.804	0.298	2352.098	2075.908
18.819	0.301	2350.849	2074.587
19.834	0.316	2350.388	2074.142
20.848	0.350	2348.311	2072.537
21.863	0.244	2346.907	2069.586
22.877	0.257	2345.165	2067.984
23.892	0.229	2342.447	2064.947
24.907	0.182	2339.852	2061.768
25.921	0.152	2339.024	2060.375
26.936	0.210	2336.643	2058.830
27.950	0.250	2333.605	2056.455
28.965	0.275	2331.678	2054.850
29.980	0.223	2330.585	2052.927
30.994	0.399	2328.086	2052.896
32.009	5.715	2346.427	2141.997
33.023	19.357	2387.900	2369.210
34.038	26.179	2402.777	2478.144
35.053	27.460	2403.938	2496.706
36.067	27.744	2400.883	2497.142
37.082	27.431	2398.727	2490.299
38.096	27.284	2396.608	2485.792
39.111	27.620	2395.104	2488.547
40.126	28.030	2393.726	2492.425
41.140	28.397	2392.680	2496.066
42.155	27.797	2390.310	2485.086
43.169	27.557	2387.342	2478.429
44.184	27.966	2385.982	2482.304
45.199	27.794	2384.334	2477.948
46.213	27.632	2382.312	2473.341
47.228	27.714	2381.359	2473.166
48.242	27.707	2379.733	2471.096
49.257	27.837	2378.136	2470.910
50.271	28.106	2375.014	2471.015
51.286	27.982	2374.526	2468.530
52.301	27.844	2371.741	2463.474
53.315	27.085	2367.791	2448.790
54.330	25.579	2361.424	2421.554
55.344	24.479	2355.108	2399.924
56.359	24.435	2351.243	2395.102
57.374	24.070	2349.562	2388.188
58.388	24.130	2346.560	2385.661
59.403	24.452	2344.177	2387.273
60.417	24.752	2342.717	2389.530
61.432	24.908	2341.180	2389.782
62.447	24.770	2338.841	2385.255
63.461	24.651	2336.315	2380.800
64.476	24.542	2334.660	2377.365
65.490	25.126	2334.637	2384.874
66.505	25.760	2336.515	2394.988
67.520	26.560	2338.294	2407.217
68.534	26.941	2336.542	2410.220
69.549	27.322	2334.812	2413.217
70.563	27.541	2332.092	2413.042
71.578	27.194	2330.599	2406.585
72.593	27.569	2328.221	2408.820
73.607	27.737	2328.491	2411.052
74.622	27.849	2326.735	2410.433
75.636	27.699	2323.473	2404.774
76.651	27.464	2321.982	2399.836
77.666	27.509	2318.814	2396.858
78.680	27.468	2316.922	2394.081
79.695	27.631	2315.360	2394.331
80.709	27.804	2314.677	2395.625
81.724	27.898	2314.063	2395.936
82.739	28.095	2310.047	2394.092
83.753	27.947	2309.136	2390.915
84.768	27.797	2307.024	2386.470
85.782	27.616	2306.816	2383.582
86.797	27.745	2304.221	2382.305
87.812	27.520	2300.902	2375.651
88.826	27.244	2298.329	2369.098
89.841	27.479	2296.814	2370.323
90.855	27.886	2296.071	2374.584
91.870	27.460	2293.816	2366.417
92.884	27.389	2291.079	2362.381
93.899	27.647	2290.517	2364.886
94.914	27.007	2288.789	2354.472
95.928	25.623	2284.199	2331.453
96.943	25.027	2280.728	2319.881
97.957	26.060	2282.803	2335.161
98.972	26.997	2282.352	2346.601
99.987	26.901	2278.144	2340.743
101.001	27.003	2275.835	2339.413
102.016	27.107	2275.209	2339.841
103.030	27.254	2272.824	2338.998
104.045	27.520	2271.241	2340.527
105.060	27.859	2270.163	2343.507
106.074	27.775	2267.785	2339.692
107.089	27.380	2264.263	2330.702
108.103	27.638	2264.386	2333.873
109.118	27.820	2263.611	2335.127
110.133	27.903	2261.850	2334.101
111.147	27.939	2260.234	2332.611
112.162	27.762	2258.228	2327.993
113.176	27.679	2254.245	2322.549
114.191	27.349	2253.018	2316.781
115.206	27.408	2251.341	2315.542
116.220	27.337	2249.264	2312.215
117.235	27.255	2246.059	2307.597
118.249	27.195	2244.903	2305.374
119.264	27.498	2244.532	2308.576
120.279	27.693	2242.675	2308.874
121.293	27.523	2240.501	2304.192
122.308	27.453	2239.097	2301.589
123.322	27.577	2237.847	2301.599
124.337	26.756	2233.757	2286.712
125.352	25.584	2230.871	2268.629
126.366	25.569	2230.027	2267.306
127.381	26.651	2229.143	2279.843
128.395	27.122	2228.852	2285.230
129.410	27.591	2227.898	2289.901
130.424	27.515	2226.272	2286.992
131.439	27.457	2223.917	2283.566
132.454	27.263	2222.119	2279.010
133.468	27.568	2219.508	2279.895
134.483	27.569	2216.968	2277.021
135.497	27.344	2215.636	2272.562
136.512	27.511	2214.148	2272.855
137.527	27.529	2211.857	2270.452
138.541	27.343	2210.205	2266.163
139.556	27.239	2210.088	2264.472
140.570	27.457	2208.127	2264.917
141.585	27.530	2206.536	2263.925
142.600	27.596	2206.057	2263.983
143.614	27.614	2203.372	2261.186
144.629	27.826	2201.962	2262.104
145.643	27.559	2200.376	2256.878
146.658	27.446	2198.056	2252.830
147.673	27.377	2195.448	2249.021
148.687	27.547	2195.434	2250.848
149.702	27.464	2193.765	2247.842
150.716	27.439	2191.684	2245.137
151.731	27.691	2192.042	2248.357
152.746	27.978	2191.320	2250.893
153.760	27.045	2187.640	2235.312
154.775	25.379	2182.271	2208.976
155.789	24.610	2178.958	2195.862
156.804	25.686	2178.662	2208.586
157.819	26.680	2177.479	2219.364
158.833	27.072	2176.313	2222.731
159.848	27.559	2175.595	2227.727
160.862	27.929	2175.385	2231.791
161.877	28.060	2173.611	2231.312
162.892	27.925	2174.142	2229.925
163.906	28.164	2173.212	2231.635
164.921	28.261	2169.680	2228.937
165.935	28.034	2167.263	2223.402
166.950	27.708	2165.792	2217.649
167.964	27.648	2162.358	2213.129
168.979	27.619	2160.238	2210.345
169.994	27.793	2159.647	2211.599
171.008	27.649	2157.673	2207.558
172.023	27.398	2155.561	2202.076
173.037	27.572	2155.373	2203.741
174.052	27.630	2152.579	2201.329
175.067	27.263	2150.880	2194.875
176.081	27.251	2150.015	2193.579
177.096	27.309	2149.789	2193.789
178.110	27.295	2146.087	2189.581
179.125	27.323	2144.785	2188.335
180.140	27.509	2144.063	2189.573
181.154	27.541	2142.006	2187.604
182.169	27.230	2140.284	2181.833
183.183	26.671	2137.289	2171.786
184.198	25.168	2133.255	2149.335
185.213	24.767	2132.351	2143.333
186.227	26.478	2134.634	2165.983
187.242	27.173	2134.124	2173.565
188.256	27.389	2132.302	2174.035
189.271	27.873	2132.610	2179.900
190.286	27.960	2130.978	2179.015
191.300	27.504	2127.796	2170.047
192.315	27.301	2125.525	2165.044
193.329	27.509	2124.829	2166.564
194.344	27.796	2124.101	2168.992
195.359	27.963	2123.110	2169.708
196.373	28.123	2121.270	2169.475
197.388	28.001	2118.335	2164.758
198.402	27.784	2115.414	2158.938
199.417	27.768	2113.170	2156.198
200.432	27.760	2111.967	2154.620
201.446	27.809	2111.000	2153.958
202.461	27.832	2109.381	2152.313
203.475	27.509	2107.234	2146.046
204.490	27.466	2104.763	2142.766
205.504	27.526	2103.051	2141.470
206.519	27.456	2100.370	2137.662
207.534	27.438	2098.648	2135.443
208.548	27.553	2097.731	2135.610
209.563	27.202	2096.082	2129.536
210.577	27.117	2094.444	2126.623
211.592	27.541	2093.306	2130.199
212.607	26.687	2089.945	2116.496
213.621	24.581	2083.774	2085.307
214.636	24.584	2083.371	2084.691
215.650	26.410	2086.622	2109.125
216.665	27.330	2085.741	2118.758
217.680	27.703	2084.705	2121.818
218.694	27.960	2084.531	2124.390
219.709	27.786	2082.625	2120.157
220.723	27.714	2082.471	2118.902
221.738	27.912	2080.309	2118.760
222.753	27.853	2077.850	2115.320
223.767	27.595	2075.874	2110.055
224.782	27.441	2072.879	2104.966
225.796	27.484	2072.081	2104.399
226.811	27.689	2070.387	2104.803
227.826	27.929	2070.835	2107.796
228.840	27.969	2069.576	2106.719
229.855	27.721	2067.611	2101.599
230.869	27.697	2065.629	2099.052
231.884	27.703	2063.171	2096.379
232.899	27.467	2061.038	2091.236
233.913	27.539	2060.688	2091.457
234.928	27.715	2059.243	2091.773
235.942	27.775	2057.482	2090.421
236.957	27.662	2055.617	2086.983
237.972	27.594	2054.220	2084.524
238.986	27.789	2053.517	2085.811
240.001	27.677	2051.885	2082.611
241.015	27.299	2049.492	2075.601
242.030	27.137	2047.955	2071.942
243.045	25.956	2042.479	2052.644
244.059	25.594	2041.526	2047.300
245.074	26.950	2043.533	2064.586
246.088	27.270	2041.870	2066.317
247.103	27.399	2039.250	2064.888
248.117	27.523	2039.142	2065.939
249.132	27.766	2037.230	2066.525
250.147	27.624	2035.085	2062.491
251.161	27.211	2033.164	2055.600
252.176	27.452	2031.959	2056.867
253.190	27.350	2029.619	2053.098
254.205	26.935	2025.730	2044.228
255.220	26.858	2025.441	2042.811
256.234	26.822	2024.429	2041.145
257.249	26.899	2023.831	2041.165
258.263	26.900	2022.617	2039.707
259.278	26.927	2020.294	2037.424
260.293	26.821	2019.069	2034.751
261.307	27.191	2017.844	2037.448
262.322	27.277	2017.421	2037.738
263.336	27.078	2015.276	2033.092
264.351	26.986	2013.060	2029.584
265.366	27.317	2011.455	2031.438
266.380	27.458	2009.712	2031.006
267.395	27.116	2008.162	2025.365
268.409	27.276	2007.075	2025.828
269.424	27.586	2006.743	2028.719
270.439	27.793	2006.792	2030.834
271.453	27.231	2002.582	2020.061
272.468	25.436	1995.975	1993.155
273.482	24.969	1993.905	1985.647
274.497	26.562	1995.689	2004.932
275.512	27.330	1995.359	2012.913
276.526	27.445	1993.861	2012.439
277.541	27.423	1992.684	2010.764
278.555	27.307	1990.293	2006.825
279.570	26.972	1987.830	2000.395
280.585	26.826	1985.872	1996.565
281.599	27.208	1985.867	2000.547
282.614	27.365	1984.360	2000.523
283.628	27.173	1982.693	1996.480
284.643	27.108	1982.414	1995.251
285.657	27.237	1980.351	1994.357
286.672	27.155	1978.689	1991.541
287.687	26.811	1976.407	1985.213
288.701	26.512	1974.558	1979.840
289.716	26.517	1972.023	1977.115
290.730	26.374	1970.357	1973.637
291.745	26.566	1969.813	1974.958
292.760	26.772	1968.916	1976.083
293.774	26.912	1968.769	1977.235
294.789	27.580	1968.953	1984.490
295.803	27.634	1967.040	1982.919
296.818	27.415	1966.050	1979.287
297.833	27.611	1964.528	1979.660
298.847	27.621	1963.771	1978.766
299.862	27.566	1961.347	1975.493
300.876	26.958	1957.362	1964.629
301.891	25.450	1952.562	1943.198
302.906	25.240	1952.251	1940.373
303.920	27.100	1954.078	1962.168
304.935	27.627	1952.979	1966.548
305.949	27.518	1951.775	1963.913
306.964	27.823	1951.433	1966.640
307.979	27.886	1948.467	1964.100
308.993	26.978	1944.901	1950.465
310.008	26.496	1942.609	1942.728
311.022	26.786	1941.633	1944.649
312.037	26.974	1941.447	1946.264
313.052	26.670	1937.189	1938.490
314.066	25.900	1934.481	1927.275
315.081	25.538	1933.538	1922.209
316.095	25.504	1931.358	1919.456
317.110	25.465	1930.909	1918.357
318.125	26.106	1930.472	1924.568
319.139	26.674	1929.943	1929.891
320.154	27.140	1929.727	1934.434
321.168	26.976	1928.008	1930.729
322.183	27.169	1926.975	1931.517
323.197	27.508	1925.962	1933.890
324.212	27.340	1924.734	1930.642
325.227	27.223	1923.152	1927.570
326.241	27.419	1922.330	1928.608
327.256	27.833	1920.604	1931.041
328.270	27.584	1919.699	1927.253
329.285	27.578	1919.019	1926.282
330.300	27.049	1916.910	1918.323
331.314	25.118	1911.009	1891.727
332.329	24.922	1910.263	1888.686
333.343	26.546	1912.473	1907.864
334.358	27.755	1911.509	1919.465
335.373	28.096	1910.872	1922.202
336.387	28.073	1908.375	1919.217
337.402	27.953	1906.814	1916.155
338.416	27.715	1905.196	1911.783
339.431	27.661	1903.923	1909.715
340.446	28.089	1902.960	1913.025
341.460	27.932	1900.814	1908.986
342.475	27.719	1897.906	1903.597
343.489	27.201	1895.925	1895.962
344.504	26.802	1894.850	1890.474
345.519	26.663	1892.537	1886.491
346.533	26.334	1889.056	1879.350
347.548	26.368	1888.088	1878.521
348.562	26.697	1886.877	1880.521
349.577	26.616	1886.547	1879.122
350.592	26.666	1884.872	1877.751
351.606	26.591	1883.304	1875.183
352.621	26.656	1881.262	1873.601
353.635	26.580	1881.246	1872.569
354.650	26.736	1880.701	1873.427
355.665	26.884	1878.288	1872.334
356.679	27.182	1877.260	1874.173
357.694	27.298	1876.811	1874.701
358.708	27.655	1875.990	1877.360
359.723	27.018	1874.017	1868.567
360.738	25.328	1868.992	1845.886
361.752	25.409	1868.442	1845.963
362.767	27.135	1869.184	1864.284
363.781	27.611	1868.731	1868.516
364.796	27.581	1868.465	1867.716
365.810	27.533	1866.711	1865.246
366.825	27.678	1864.798	1864.601
367.840	27.670	1864.783	1864.287
368.854	27.604	1863.401	1862.004
369.869	27.566	1861.947	1859.938
370.883	27.485	1860.098	1857.038
371.898	27.089	1857.514	1850.177
372.913	26.971	1855.062	1846.315
373.927	26.947	1854.431	1845.214
374.942	27.084	1853.156	1845.122
375.956	27.158	1851.835	1844.349
376.971	26.978	1849.421	1839.887
377.986	26.481	1846.345	1831.549
379.000	26.472	1846.560	1831.450
380.015	27.235	1847.232	1839.657
381.029	27.662	1845.628	1842.178
382.044	27.894	1843.917	1842.601
383.059	27.863	1842.475	1840.633
384.073	27.530	1839.982	1834.554
385.088	27.335	1837.992	1830.376
386.102	27.352	1837.197	1829.533
387.117	27.207	1835.426	1826.094
388.132	27.349	1835.552	1827.430
389.146	27.065	1834.410	1823.209
390.161	25.208	1828.747	1798.666
391.175	25.183	1825.696	1795.201
392.190	26.795	1826.812	1812.295
393.205	27.193	1825.277	1814.547
394.219	27.287	1824.567	1814.567
395.234	27.377	1823.517	1814.206
396.248	27.296	1821.337	1811.014
397.263	27.344	1818.382	1808.339
398.278	27.231	1815.843	1804.472
399.292	26.991	1816.428	1802.440
400.307	27.337	1817.004	1806.248
401.321	27.593	1814.761	1806.346
402.336	26.767	1810.918	1794.092
403.350	26.097	1809.446	1785.762
404.365	26.577	1808.350	1789.231
405.380	26.643	1807.048	1788.387
406.394	26.009	1804.588	1779.454
407.409	25.873	1802.513	1775.842
408.423	25.836	1801.085	1773.864
409.438	25.899	1800.232	1773.437
410.453	25.964	1799.870	1773.507
411.467	26.634	1800.397	1780.438
412.482	27.055	1799.533	1783.529
413.496	27.340	1799.216	1785.811
414.511	27.383	1796.401	1783.223
415.526	27.324	1794.122	1780.173
416.540	27.538	1793.518	1781.461
417.555	27.279	1793.373	1778.553
418.569	27.191	1792.062	1776.176
419.584	27.180	1791.921	1775.722
420.599	27.013	1791.316	1773.264
421.613	26.926	1789.234	1770.147
422.628	26.966	1788.554	1769.645
423.642	27.451	1787.431	1773.072
424.657	27.231	1785.242	1768.537
425.672	26.778	1782.463	1761.156
426.686	26.816	1781.748	1760.603
427.701	26.849	1780.613	1759.595
428.715	26.945	1778.967	1758.695
429.730	27.199	1778.339	1760.339
430.745	27.300	1776.739	1759.520
431.759	27.271	1775.911	1758.211
432.774	26.469	1773.061	1747.391
433.788	25.101	1769.403	1730.320
434.803	24.446	1767.093	1721.509
435.818	24.371	1767.013	1720.496
436.832	24.472	1765.993	1720.274
437.847	23.008	1757.166	1697.352
438.861	13.545	1730.373	1580.897
439.876	2.838	1710.642	1460.695
440.890	0.654	1705.441	1435.241
441.905	0.380	1704.220	1431.425
442.920	0.292	1703.065	1429.441
443.934	0.232	1701.599	1427.470
444.949	0.232	1700.136	1426.070
445.963	0.285	1699.268	1425.674
446.978	0.306	1698.773	1425.293
447.993	0.367	1696.984	1424.194
449.007	0.314	1694.678	1421.584
450.022	0.357	1692.525	1420.017
451.036	0.657	1692.868	1422.983
452.051	2.418	1697.325	1443.259
453.066	10.511	1718.719	1538.717
454.080	20.961	1737.711	1655.817
455.095	24.404	1742.648	1693.229
456.109	25.666	1744.867	1707.225
457.124	25.991	1743.180	1708.465
458.139	25.748	1742.146	1704.930
459.153	25.588	1740.259	1701.367
460.168	25.372	1739.721	1698.577
461.182	25.516	1737.942	1698.007
462.197	25.708	1735.213	1696.954
463.212	25.703	1734.407	1695.914
464.226	25.809	1733.780	1696.102
465.241	25.792	1732.998	1694.976
466.255	25.729	1731.281	1692.499
467.270	25.799	1729.479	1691.191
468.285	25.816	1729.447	1691.117
469.299	26.019	1727.674	1691.098
470.314	25.993	1725.510	1688.529
471.328	25.927	1724.123	1686.352
472.343	25.927	1723.946	1685.982
473.358	25.955	1721.952	1684.094
474.372	25.761	1721.317	1681.442
475.387	25.834	1720.124	1680.763
476.401	25.708	1717.789	1677.102
477.416	25.511	1716.314	1673.618
478.430	25.461	1716.424	1673.054
479.445	25.746	1714.673	1673.816
480.460	25.871	1713.962	1674.089
481.474	25.777	1713.308	1672.369
482.489	25.919	1711.185	1671.417
483.503	25.812	1708.335	1667.443
484.518	25.604	1707.206	1664.201
485.533	25.606	1706.615	1663.445
486.547	25.516	1704.320	1660.177
487.562	25.159	1703.158	1655.532
488.576	25.343	1702.578	1656.482
489.591	25.523	1700.696	1656.115
490.606	25.717	1699.987	1657.024
491.620	25.813	1698.616	1656.375
492.635	25.710	1696.398	1653.064
493.649	25.347	1694.315	1647.492
494.664	25.529	1694.283	1648.942
495.679	25.728	1693.583	1649.894
496.693	25.868	1691.638	1649.094
497.708	25.802	1690.228	1646.914
498.722	25.660	1688.988	1644.205
499.737	25.731	1688.245	1643.930
500.752	25.735	1686.852	1642.417
501.766	25.948	1684.954	1642.321
502.781	25.928	1683.448	1640.475
503.795	25.856	1681.762	1637.981
504.810	25.767	1681.218	1636.438
505.825	25.639	1680.059	1633.942
506.839	25.781	1678.703	1633.724
507.854	25.661	1677.574	1631.338
508.868	25.514	1675.457	1627.749
509.883	25.533	1674.203	1626.505
510.898	25.193	1672.991	1622.043
511.912	25.326	1671.007	1621.137
512.927	25.434	1668.993	1619.969
513.941	25.409	1667.853	1618.442
514.956	25.648	1667.753	1620.309
515.971	25.935	1666.411	1621.406
516.985	25.675	1665.535	1618.011
518.000	25.526	1664.070	1615.047
519.014	25.233	1663.132	1611.306
520.029	25.146	1661.108	1608.363
521.043	25.350	1659.279	1608.243
522.058	25.326	1658.714	1607.279
523.073	25.354	1657.145	1605.824
524.087	25.195	1655.832	1602.932
525.102	25.163	1655.006	1601.647
526.116	25.687	1654.288	1605.467
527.131	25.723	1653.506	1604.834
528.146	25.678	1652.668	1603.428
529.160	25.354	1651.359	1599.066
530.175	25.597	1650.306	1600.028
531.189	25.489	1648.954	1597.556
532.204	25.259	1647.849	1594.247
533.219	25.531	1646.294	1594.977
534.233	25.774	1645.372	1596.055
535.248	25.565	1644.069	1592.737
536.262	25.220	1642.130	1587.606
537.277	25.259	1641.877	1587.513
538.292	25.591	1639.975	1588.437
539.306	25.495	1637.234	1584.739
540.321	25.452	1636.108	1583.077
541.335	25.308	1634.713	1580.264
542.350	25.355	1633.820	1579.625
543.365	25.421	1632.893	1579.124
544.379	25.360	1631.149	1576.712
545.394	25.366	1629.522	1575.004
546.408	25.439	1628.986	1574.944
547.423	25.703	1628.557	1576.658
548.438	25.800	1627.368	1576.177
549.452	25.609	1625.404	1572.409
550.467	25.510	1624.242	1570.224
551.481	25.558	1622.734	1568.998
552.496	25.423	1622.176	1567.089
553.511	25.211	1620.844	1563.758
554.525	25.361	1619.459	1563.549
555.540	25.247	1618.365	1561.307
556.554	25.222	1617.277	1559.850
557.569	25.219	1616.130	1558.530
558.583	25.319	1614.169	1557.324
559.598	25.397	1613.752	1557.420
560.613	25.187	1613.502	1555.158
561.627	25.158	1611.379	1552.679
562.642	25.035	1608.459	1548.605
563.656	24.862	1606.560	1545.093
564.671	24.767	1605.504	1543.070
565.686	24.763	1604.808	1542.184
566.700	24.916	1603.297	1541.871
567.715	25.040	1601.671	1541.191
568.729	25.213	1601.296	1542.142
569.744	25.380	1600.757	1542.880
570.759	25.448	1599.108	1541.692
571.773	25.265	1597.964	1538.829
572.788	25.149	1596.274	1536.015
573.802	24.950	1594.243	1532.166
574.817	24.749	1592.782	1528.852
575.832	24.612	1591.313	1526.088
576.846	24.882	1590.060	1527.019
577.861	25.034	1590.139	1528.214
578.875	25.097	1589.507	1527.959
579.890	25.096	1587.459	1525.806
580.905	24.961	1586.794	1523.825
581.919	25.028	1586.444	1523.881
582.934	24.992	1585.289	1522.280
583.948	24.979	1582.972	1519.763
584.963	24.901	1582.391	1518.354
585.978	25.077	1581.385	1518.708
586.992	24.887	1580.200	1515.771
588.007	24.747	1579.457	1513.689
589.021	24.839	1578.310	1513.193
590.036	24.840	1576.958	1511.722
591.051	24.854	1575.318	1510.086
592.065	24.893	1573.054	1508.062
593.080	24.831	1571.723	1506.085
594.094	24.915	1570.704	1505.639
595.109	25.105	1569.693	1506.092
596.123	25.333	1568.634	1506.821
597.138	25.239	1567.155	1504.428
598.153	25.079	1566.203	1501.987
599.167	25.007	1564.274	1499.350
600.182	24.887	1564.092	1497.986
601.196	24.976	1563.151	1497.653
602.211	25.112	1561.882	1497.401
603.226	24.808	1560.018	1492.886
604.240	24.843	1557.578	1490.665
605.255	24.846	1556.360	1489.343
606.269	24.714	1556.842	1488.525
607.284	24.831	1555.688	1488.221
608.299	24.762	1553.454	1485.326
609.313	24.967	1552.250	1485.706
610.328	24.899	1551.074	1483.843
611.342	24.785	1549.653	1481.352
612.357	24.698	1548.255	1479.118
613.372	24.644	1547.369	1477.649
614.386	24.619	1545.815	1475.778
615.401	24.742	1545.004	1475.847
616.415	24.467	1544.336	1472.748
617.430	24.307	1543.096	1470.069
618.445	24.126	1541.454	1466.826
619.459	24.429	1540.524	1468.277
620.474	24.496	1540.440	1468.570
621.488	25.103	1539.816	1472.815
622.503	25.242	1539.107	1473.111
623.518	24.958	1536.954	1468.534
624.532	24.407	1535.510	1462.436
625.547	24.278	1533.794	1459.569
626.561	24.054	1532.335	1456.160
627.576	23.849	1531.829	1453.826
628.591	24.485	1531.026	1458.106
629.605	24.748	1530.794	1459.869
630.620	24.888	1529.535	1459.641
631.634	25.242	1528.714	1461.583
632.649	25.218	1528.120	1460.642
633.663	24.968	1525.622	1456.042
634.678	24.425	1522.935	1448.873
635.693	24.075	1521.397	1444.378
636.707	24.062	1520.031	1442.808
637.722	23.869	1518.345	1439.459
638.736	24.029	1517.773	1440.051
639.751	24.143	1517.348	1440.399
640.766	24.264	1515.858	1439.795
641.780	24.336	1514.242	1438.674
642.795	24.484	1513.944	1439.414
643.809	24.556	1513.621	1439.519
644.824	24.539	1512.236	1437.892
645.839	24.662	1511.611	1438.121
646.853	24.671	1509.735	1436.234
647.868	24.519	1508.631	1433.787
648.882	24.647	1507.542	1433.614
649.897	24.629	1506.502	1432.312
650.912	24.489	1504.916	1429.501
651.926	24.390	1503.379	1427.074
652.941	24.493	1503.039	1427.406
653.955	24.549	1501.146	1425.890
654.970	24.484	1499.361	1423.504
655.985	24.445	1498.080	1421.806
656.999	24.261	1496.930	1419.068
658.014	24.109	1495.714	1416.536
659.028	24.172	1494.404	1415.628
660.043	24.324	1494.099	1416.383
661.058	24.386	1492.654	1415.338
662.072	24.313	1492.124	1414.082
663.087	24.336	1490.753	1412.797
664.101	24.485	1489.371	1412.504
665.116	24.482	1487.774	1410.798
666.131	24.370	1487.502	1409.476
667.145	24.458	1485.933	1408.523
668.160	24.260	1484.148	1405.091
669.174	24.065	1482.511	1401.833
670.189	24.094	1482.037	1401.444
671.204	24.249	1481.816	1402.298
672.218	24.393	1480.120	1401.661
673.233	24.345	1479.129	1400.170
674.247	24.085	1477.529	1396.444
675.262	24.068	1476.264	1394.944
676.276	24.061	1475.076	1393.602
677.291	24.119	1475.463	1394.254
678.306	24.384	1474.070	1394.858
679.320	24.431	1472.185	1393.276
680.335	24.099	1471.227	1389.598
681.349	24.139	1470.591	1389.140
682.364	24.099	1469.650	1387.778
683.379	24.076	1467.884	1385.759
684.393	23.980	1466.109	1383.167
685.408	23.846	1465.366	1381.258
686.422	23.823	1464.567	1380.154
687.437	23.748	1463.474	1378.379
688.452	23.539	1462.454	1375.622
689.466	23.515	1461.273	1374.164
690.481	23.683	1459.854	1373.968
691.495	23.761	1459.848	1374.408
692.510	24.559	1459.356	1379.977
693.525	25.015	1458.148	1382.203
694.539	24.574	1456.219	1376.798
695.554	23.863	1455.100	1370.069
696.568	23.574	1453.320	1365.996
697.583	23.568	1451.295	1363.878
698.598	23.591	1450.707	1363.340
699.612	23.592	1449.597	1362.145
700.627	23.634	1449.069	1361.809
701.641	23.787	1448.371	1362.165
702.656	23.888	1446.843	1361.342
703.671	23.689	1445.972	1358.832
704.685	23.759	1445.974	1359.210
705.700	23.713	1445.221	1357.982
706.714	23.934	1443.153	1357.573
707.729	24.135	1441.834	1357.716
708.744	24.001	1440.249	1355.034
709.758	23.961	1439.385	1353.749
710.773	23.784	1438.643	1351.539
711.787	23.927	1436.769	1350.703
712.802	23.999	1436.220	1350.577
713.816	24.006	1435.146	1349.464
714.831	23.976	1433.676	1347.688
715.846	24.072	1432.109	1346.782
716.860	23.855	1430.802	1343.746
717.875	23.853	1430.409	1343.202
718.889	23.831	1429.274	1341.805
719.904	23.712	1428.700	1340.205
720.919	23.686	1426.580	1337.858
721.933	23.547	1425.800	1335.914
722.948	23.551	1424.418	1334.487
723.962	23.562	1423.729	1333.766
724.977	23.474	1422.300	1331.608
725.992	23.448	1421.838	1330.813
727.006	23.681	1420.554	1331.212
728.021	23.711	1418.764	1329.603
729.035	23.395	1417.708	1326.078
730.050	23.562	1416.993	1326.504
731.065	23.687	1415.738	1326.112
732.079	23.578	1414.154	1323.650
733.094	23.583	1413.784	1323.178
734.108	23.941	1412.260	1324.273
735.123	23.749	1410.494	1321.026
736.138	23.711	1409.928	1320.055
737.152	23.608	1408.934	1318.197
738.167	23.339	1407.554	1314.745
739.181	23.511	1406.112	1314.521
740.196	23.379	1405.600	1312.898
741.211	23.519	1404.727	1312.967
742.225	23.512	1403.940	1312.028
743.240	23.554	1402.052	1310.413
744.254	23.447	1399.771	1307.333
745.269	23.153	1399.667	1304.904
746.284	23.162	1399.243	1304.414
747.298	23.290	1398.096	1304.134
748.313	23.552	1397.442	1305.306
749.327	24.045	1397.213	1308.584
750.342	24.328	1398.337	1311.572
751.356	24.650	1397.500	1313.009
752.371	24.405	1395.020	1308.717
753.386	23.691	1393.003	1301.408
754.400	23.275	1392.098	1297.342
755.415	23.531	1389.900	1297.024
756.429	23.534	1388.155	1295.264
757.444	23.449	1387.883	1294.229
758.459	23.387	1386.499	1292.331
759.473	23.238	1385.811	1290.443
760.488	23.202	1384.131	1288.455
761.502	23.263	1382.578	1287.302
762.517	23.296	1382.132	1286.973
763.532	23.339	1381.097	1286.170
764.546	23.420	1380.517	1286.070
765.561	23.472	1380.061	1285.871
766.575	23.580	1379.815	1286.273
767.590	23.695	1377.652	1284.940
768.605	23.739	1376.014	1283.575
769.619	23.678	1374.667	1281.721
770.634	23.554	1373.282	1279.380
771.648	23.303	1372.281	1276.478
772.663	23.090	1371.419	1273.983
773.678	23.260	1370.264	1273.985
774.692	23.233	1369.974	1273.366
775.707	23.328	1369.419	1273.386
776.721	23.126	1368.108	1270.559
777.736	23.200	1366.330	1269.287
778.751	23.129	1365.766	1268.099
779.765	23.225	1364.631	1267.584
780.780	23.022	1364.525	1265.870
781.794	23.268	1363.287	1266.344
782.809	23.045	1362.230	1263.603
783.824	22.986	1361.170	1262.047
784.838	23.345	1360.843	1264.170
785.853	23.984	1360.344	1268.132
786.867	23.851	1359.178	1265.940
787.882	23.513	1357.754	1262.047
788.897	23.085	1357.637	1258.725
789.911	23.055	1355.540	1256.420
790.926	22.981	1353.590	1253.931
791.940	22.928	1352.272	1252.187
792.955	22.793	1351.227	1250.103
793.969	22.717	1349.869	1248.159
794.984	22.845	1349.145	1248.252
795.999	22.987	1348.231	1248.265
797.013	22.991	1346.492	1246.530
798.028	23.005	1345.065	1245.158
799.042	22.868	1344.829	1243.825
800.057	22.851	1343.852	1242.649
801.072	23.038	1342.322	1242.411
802.086	22.904	1341.001	1240.093
803.101	22.967	1339.578	1239.072
804.115	22.970	1338.477	1237.924
805.130	22.900	1337.995	1236.836
806.145	22.870	1336.961	1235.523
807.159	23.046	1335.291	1235.067
808.174	23.200	1334.316	1235.098
809.188	23.318	1333.073	1234.625
810.203	23.257	1331.930	1232.992
811.218	23.094	1331.203	1231.032
812.232	23.348	1329.616	1231.191
813.247	23.434	1328.662	1230.762
814.261	23.355	1328.158	1229.596
815.276	23.145	1326.765	1226.694
816.291	22.878	1325.505	1223.523
817.305	22.789	1324.031	1221.403
818.320	22.694	1323.387	1220.000
819.334	22.788	1322.375	1219.575
820.349	22.808	1320.390	1217.732
821.364	22.931	1318.547	1216.738
822.378	22.764	1317.426	1214.409
823.393	22.844	1316.093	1213.584
824.407	22.614	1315.126	1210.961
825.422	22.729	1314.549	1211.080
826.437	22.597	1313.654	1209.198
827.451	22.819	1312.444	1209.471
828.466	23.251	1311.526	1211.451
829.480	23.703	1310.428	1213.395
830.495	23.195	1308.165	1207.668
831.509	22.900	1306.790	1204.233
832.524	22.758	1306.232	1202.606
833.539	22.723	1304.278	1200.423
834.553	22.690	1303.056	1198.928
835.568	22.720	1302.391	1198.376
836.582	22.652	1301.227	1196.699
837.597	22.657	1299.611	1195.107
838.612	22.788	1298.198	1194.550
839.626	22.815	1297.655	1194.095
840.641	22.891	1297.305	1194.146
841.655	23.135	1296.776	1195.176
842.670	23.222	1296.064	1194.965
843.685	23.411	1294.566	1194.719
844.699	23.340	1293.157	1192.798
845.714	22.973	1291.258	1188.424
846.728	22.778	1290.980	1186.705
847.743	22.768	1289.448	1185.086
848.758	22.659	1287.952	1182.839
849.772	22.625	1286.235	1180.893
850.787	22.626	1284.862	1179.498
851.801	22.583	1284.207	1178.459
852.816	22.606	1283.098	1177.459
853.831	22.689	1281.230	1176.159
854.845	22.659	1279.273	1174.024
855.860	22.530	1278.306	1172.133
856.874	22.619	1277.384	1171.739
857.889	23.058	1276.697	1173.901
858.904	23.361	1276.469	1175.573
859.918	23.668	1275.240	1176.343
860.933	23.761	1274.682	1176.310
861.947	23.419	1272.971	1172.315
862.962	22.963	1271.086	1167.411
863.977	22.923	1269.366	1165.427
864.991	22.643	1268.689	1162.808
866.006	22.589	1268.146	1161.815
867.020	22.491	1267.046	1160.020
868.035	22.467	1265.544	1158.346
869.049	22.623	1264.093	1157.908
870.064	22.601	1263.171	1156.778
871.079	22.617	1262.887	1156.488
872.093	22.653	1262.736	1156.446
873.108	22.634	1261.539	1155.092
874.122	22.843	1259.900	1154.823
875.137	23.029	1259.645	1155.672
876.152	23.255	1258.725	1156.178
877.166	22.999	1256.713	1152.510
878.181	22.711	1255.477	1149.356
879.195	22.646	1254.782	1148.155
880.210	22.677	1253.690	1147.221
881.225	22.702	1253.041	1146.656
882.239	22.610	1251.874	1144.848
883.254	22.503	1250.420	1142.681
884.268	22.582	1249.605	1142.318
885.283	22.774	1247.850	1141.821
886.298	22.676	1246.519	1139.831
887.312	22.635	1246.280	1139.211
888.327	22.725	1244.853	1138.356
889.341	22.573	1243.699	1136.177
890.356	22.560	1243.185	1135.492
891.371	22.513	1243.412	1135.256
892.385	22.543	1242.734	1134.693
893.400	22.594	1241.818	1134.052
894.414	22.689	1240.104	1132.964
895.429	22.920	1239.495	1133.762
896.444	23.673	1239.051	1138.075
897.458	24.310	1238.017	1141.091
898.473	23.824	1236.099	1136.064
899.487	23.111	1234.659	1130.025
900.502	22.962	1232.799	1127.233
901.517	22.605	1231.523	1123.646
902.531	22.564	1231.186	1122.940
903.546	22.673	1229.675	1122.124
904.560	22.681	1229.357	1121.747
905.575	22.614	1228.620	1120.518
906.589	22.643	1227.570	1119.610
907.604	22.643	1226.669	1118.653
