DTS Sentinel unit serial number:	SN409020Multiplexer serial number:	ORYXHardware model number:	OX4-SRSoftware version number:	ORYX F/W v3.00 Oryx Data Collector v3.7.2.0data status	okinstallation	HaddamTimeLapsedifferential loss correction	single-endedforward channel	channel 3reverse channel	N/Adate	2011/06/22time	10:56:01forward acquisition time	30.00reverse acquisition time	0.00gamma	498.7831k internal	0.1773k external	0.1773temperature offset calibration	1.0074default loss term (dB/km)	0.3790temperature slope calibration	1.3530multiplexer offset coefficient	1.0000multiplexer slope coefficient	1.0000fibre end	0.00T internal ref (°C)	29.87T ext. ref 1 (°C)	24.77T ext. ref 2 (°C)	-0.10length (m)	temperature (°C)	Stokes	anti-Stokes-747.200	-8.693	-0.267	0.235
-746.185	-200.000	-0.092	0.534
-745.171	435.616	0.026	0.074
-744.156	183.766	-0.134	0.261
-743.142	-83.449	0.176	-0.074
-742.127	-129.347	0.443	0.080
-741.112	-116.505	0.772	-0.185
-740.098	-6.000	0.155	0.139
-739.083	-200.000	0.048	0.403
-738.069	68.561	-0.139	0.187
-737.054	-96.650	0.144	0.049
-736.039	4.838	-0.403	0.388
-735.025	107.288	0.347	0.542
-734.010	4.190	0.160	-0.154
-732.996	-151.877	0.293	0.028
-731.981	-200.000	0.016	0.228
-730.966	-200.000	0.017	-0.243
-729.952	-119.152	-0.229	-0.052
-728.937	-136.950	-0.354	-0.053
-727.923	-74.027	-0.191	0.090
-726.908	292.842	-0.090	0.215
-725.894	-124.536	-0.245	-0.050
-724.879	82.330	-0.163	-0.233
-723.864	-92.276	-0.276	-0.101
-722.850	-131.641	-0.418	-0.071
-721.835	-50.998	-0.356	0.218
-720.821	800.000	-0.098	-0.437
-719.806	800.000	0.159	0.760
-718.791	-200.000	0.039	0.796
-717.777	24.119	0.197	-0.213
-716.762	-39.818	-0.238	0.163
-715.748	-117.226	0.634	0.150
-714.733	-200.000	0.038	-0.326
-713.718	-9.524	0.305	-0.267
-712.704	22.052	0.155	-0.165
-711.689	-143.507	0.193	-0.024
-710.675	133.292	0.208	-0.353
-709.660	223.055	0.124	-0.262
-708.645	90.245	0.252	0.369
-707.631	74.628	-0.229	-0.316
-706.616	-5.853	-0.181	-0.162
-705.602	-176.620	0.471	0.016
-704.587	-59.351	-0.266	0.150
-703.572	477.012	-0.020	0.060
-702.558	188.274	0.097	0.191
-701.543	84.965	-0.074	0.107
-700.529	800.000	-0.161	-0.845
-699.514	437.953	0.139	-0.399
-698.499	188.441	-0.052	-0.103
-697.485	176.994	0.180	-0.345
-696.470	-67.594	0.464	0.237
-695.456	-163.705	0.525	0.032
-694.441	-81.643	-0.243	-0.104
-693.426	-87.137	-0.285	0.113
-692.412	-154.195	-0.544	-0.048
-691.397	-69.272	0.116	0.058
-690.383	800.000	0.041	0.184
-689.368	-19.076	-0.096	-0.078
-688.354	-109.462	-0.293	-0.081
-687.339	223.006	0.130	-0.275
-686.324	-169.612	0.097	0.005
-685.310	7.662	-0.385	-0.377
-684.295	336.835	-0.100	-0.254
-683.281	-13.097	0.252	0.214
-682.266	67.631	0.165	0.221
-681.251	606.445	-0.011	-0.038
-680.237	800.000	-0.152	-0.688
-679.222	-4.441	0.138	0.125
-678.208	-146.843	0.502	0.056
-677.193	800.000	0.025	0.122
-676.178	-0.351	-0.196	-0.182
-675.164	-200.000	-0.566	0.003
-674.149	-155.280	-0.366	-0.031
-673.135	-150.764	0.149	-0.015
-672.120	-11.287	0.394	0.339
-671.105	800.000	0.061	0.314
-670.091	634.946	-0.077	0.257
-669.076	-91.004	-0.429	0.160
-668.062	-100.090	0.163	-0.053
-667.047	-200.000	-0.017	0.147
-666.032	-90.639	-0.768	0.289
-665.018	326.147	-0.145	0.366
-664.003	6.462	-0.482	0.468
-662.989	413.860	-0.084	-0.236
-661.974	63.070	0.094	0.123
-660.959	800.000	-0.063	-0.291
-659.945	-109.951	-0.274	0.075
-658.930	800.000	0.065	0.331
-657.916	58.409	0.222	0.285
-656.901	-37.259	0.065	0.046
-655.886	94.152	-0.386	-0.573
-654.872	122.388	-0.069	0.114
-653.857	12.350	-0.133	0.134
-652.843	546.251	0.022	-0.068
-651.828	-16.891	0.454	0.375
-650.814	-82.715	0.171	-0.072
-649.799	16.947	0.134	0.139
-648.784	-127.809	-0.092	0.017
-647.770	800.000	0.135	-0.611
-646.755	597.141	-0.061	-0.198
-645.741	-58.429	-0.160	-0.091
-644.726	-57.154	-0.240	0.138
-643.711	-45.126	0.204	0.132
-642.697	800.000	-0.057	-0.280
-641.682	-30.200	-0.317	0.235
-640.668	396.537	0.056	0.155
-639.653	-178.924	0.315	0.009
-638.638	95.350	0.229	0.341
-637.624	-89.212	0.697	-0.267
-636.609	-132.664	0.280	0.046
-635.595	148.485	0.214	0.378
-634.580	-200.000	-0.001	0.236
-633.565	-9.915	-0.200	0.174
-632.551	-33.981	-0.305	0.219
-631.536	66.700	0.110	-0.146
-630.522	14.528	0.149	-0.152
-629.507	86.839	0.125	-0.180
-628.492	800.000	-0.064	-0.285
-627.478	-143.573	0.420	0.052
-626.463	57.117	-0.174	-0.222
-625.449	41.320	-0.045	0.053
-624.434	440.040	-0.088	0.252
-623.419	32.400	0.131	-0.148
-622.405	27.239	0.286	-0.313
-621.390	-200.000	-0.042	-0.266
-620.376	-5.976	0.237	-0.211
-619.361	-200.000	0.038	-0.563
-618.346	196.817	-0.045	0.090
-617.332	53.943	-0.266	0.334
-616.317	-158.593	0.170	0.013
-615.303	-2.814	0.213	0.194
-614.288	-95.848	-0.722	-0.250
-613.273	0.829	0.261	-0.243
-612.259	-43.039	0.154	-0.102
-611.244	-200.000	-0.020	-0.543
-610.230	-111.618	0.062	-0.016
-609.215	47.670	-0.161	-0.196
-608.201	-109.468	-0.100	-0.027
-607.186	587.137	0.091	0.294
-606.171	-200.000	-0.014	0.321
-605.157	58.094	-0.208	-0.265
-604.142	156.516	0.293	0.529
-603.128	-200.000	0.032	-0.417
-602.113	-74.096	0.242	0.114
-601.098	15.729	-0.146	0.149
-600.084	-200.000	0.051	-0.461
-599.069	-114.898	-0.205	0.050
-598.055	800.000	-0.132	-0.521
-597.040	-32.400	-0.092	-0.067
-596.025	-126.511	0.348	0.067
-595.011	95.027	-0.044	0.066
-593.996	413.942	-0.094	-0.262
-592.982	111.248	0.097	0.153
-591.967	694.259	-0.093	-0.321
-590.952	-61.071	-0.197	0.108
-589.938	-113.408	-0.394	0.100
-588.923	-56.056	0.193	-0.112
-587.909	-62.066	-0.141	-0.077
-586.894	-139.915	0.207	-0.028
-585.879	89.952	-0.186	0.271
-584.865	113.180	0.022	-0.034
-583.850	147.937	-0.216	-0.380
-582.836	-33.344	0.121	-0.087
-581.821	-94.288	-0.779	-0.276
-580.806	-168.295	-0.191	0.009
-579.792	105.885	-0.157	0.242
-578.777	251.934	-0.143	-0.318
-577.763	40.079	-0.380	-0.445
-576.748	294.506	-0.074	-0.176
-575.733	302.277	-0.145	-0.351
-574.719	-95.974	0.117	-0.040
-573.704	-64.337	-0.362	-0.191
-572.690	-176.836	-0.470	-0.015
-571.675	81.011	-0.120	-0.169
-570.661	721.666	-0.142	-0.496
-569.646	-181.978	0.596	-0.014
-568.631	-52.537	-0.487	0.292
-567.617	-140.922	0.306	-0.040
-566.602	542.608	-0.136	-0.423
-565.588	-74.095	0.469	-0.220
-564.573	-24.021	-0.317	0.246
-563.558	-116.507	0.184	0.044
-562.544	-99.420	-0.498	-0.162
-561.529	-200.000	-0.023	-0.393
-560.515	84.524	0.294	0.419
-559.500	-200.000	0.009	-0.236
-558.485	192.809	0.163	0.321
-557.471	220.045	0.113	-0.237
-556.456	544.399	0.088	-0.275
-555.442	-49.196	-0.270	-0.168
-554.427	-88.305	0.131	-0.051
-553.412	230.248	0.125	-0.266
-552.398	-91.531	0.430	-0.159
-551.383	-167.764	0.378	0.019
-550.369	177.801	-0.042	-0.079
-549.354	102.027	0.323	-0.492
-548.339	-83.131	0.374	0.156
-547.325	-95.072	0.152	0.053
-546.310	-2.995	-0.646	-0.586
-545.296	359.531	0.031	-0.081
-544.281	-78.512	0.266	-0.118
-543.266	163.965	-0.267	0.490
-542.252	-80.356	0.246	0.106
-541.237	532.356	0.109	0.337
-540.223	-29.456	-0.208	-0.155
-539.208	-123.562	0.363	0.074
-538.193	-200.000	0.009	0.324
-537.179	64.284	-0.287	0.376
-536.164	-91.216	-0.452	-0.168
-535.150	41.287	0.097	-0.114
-534.135	-55.970	-0.123	0.071
-533.121	800.000	-0.027	0.154
-532.106	-30.185	0.416	-0.307
-531.091	67.888	-0.229	0.305
-530.077	-6.495	0.109	0.096
-529.062	70.237	-0.218	0.293
-528.048	674.982	0.084	-0.287
-527.033	-83.886	0.494	0.204
-526.018	223.406	-0.133	0.279
-525.004	800.000	0.025	-0.110
-523.989	-197.552	0.493	0.004
-522.975	17.923	-0.021	0.022
-521.960	157.260	-0.082	-0.147
-520.945	89.657	0.068	-0.098
-519.931	800.000	0.083	0.378
-518.916	71.125	0.275	-0.372
-517.902	-200.000	0.018	0.292
-516.887	-169.928	0.420	-0.019
-515.872	78.044	0.056	0.078
-514.858	-140.534	0.258	-0.035
-513.843	-90.003	0.274	0.103
-512.829	800.000	-0.061	0.274
-511.814	-179.825	-0.382	-0.010
-510.799	-177.806	0.460	-0.014
-509.785	-111.031	-0.196	0.052
-508.770	-200.000	-0.104	-0.775
-507.756	311.925	-0.006	0.016
-506.741	-159.267	0.497	0.036
-505.726	29.175	-0.108	-0.119
-504.712	31.782	-0.241	-0.270
-503.697	-83.283	0.577	-0.240
-502.683	31.921	0.296	0.332
-501.668	106.638	-0.056	0.086
-500.653	800.000	0.014	0.065
-499.639	-131.793	0.182	-0.031
-498.624	-55.170	0.106	-0.062
-497.610	230.970	0.177	-0.378
-496.595	-133.814	-0.432	-0.069
-495.581	74.871	0.305	0.417
-494.566	269.777	-0.138	-0.316
-493.551	38.957	-0.105	0.122
-492.537	-123.718	0.387	-0.079
-491.522	31.807	0.139	-0.155
-490.508	-165.182	0.389	-0.022
-489.493	-34.501	-0.073	0.052
-488.478	-86.792	-0.270	0.106
-487.464	-123.344	-0.253	0.052
-486.449	289.209	0.099	0.234
-485.435	-121.717	-0.273	-0.058
-484.420	800.000	-0.041	0.194
-483.405	347.201	0.136	-0.349
-482.391	-200.000	-0.007	-0.114
-481.376	-104.075	0.501	0.150
-480.362	-155.713	0.120	-0.010
-479.347	-30.342	0.258	0.190
-478.332	-200.000	0.023	-0.301
-477.318	-61.759	-0.034	-0.018
-476.303	-200.000	-0.016	0.313
-475.289	-47.534	0.338	-0.213
-474.274	-125.669	0.185	0.036
-473.259	800.000	0.043	-0.233
-472.245	-200.000	0.003	0.109
-471.230	-200.000	-0.014	0.147
-470.216	800.000	-0.048	-0.238
-469.201	69.635	0.288	-0.386
-468.186	-200.000	0.021	-0.270
-467.172	-24.885	-0.201	0.154
-466.157	62.896	0.177	-0.230
-465.143	50.833	-0.169	-0.208
-464.128	800.000	0.038	0.198
-463.113	-76.006	-0.646	-0.295
-462.099	-21.054	0.329	0.261
-461.084	52.147	-0.168	-0.207
-460.070	-123.082	-0.577	-0.119
-459.055	-95.255	-0.368	0.128
-458.040	-110.129	0.600	0.161
-457.026	-35.826	0.294	-0.206
-456.011	39.116	-0.232	0.269
-454.997	-200.000	0.001	0.430
-453.982	155.387	-0.099	0.177
-452.968	-147.354	0.519	-0.056
-451.953	-200.000	-0.011	-0.406
-450.938	800.000	0.029	-0.112
-449.924	-196.324	0.563	-0.005
-448.909	800.000	0.042	0.208
-447.895	-95.981	0.172	0.059
-446.880	-197.079	-0.234	-0.002
-445.865	132.516	0.103	0.173
-444.851	-58.630	0.202	0.113
-443.836	-179.137	-0.427	-0.012
-442.822	-0.670	0.308	0.283
-441.807	800.000	0.044	0.205
-440.792	411.435	0.068	-0.189
-439.778	12.949	-0.323	-0.324
-438.763	-173.064	-0.624	-0.024
-437.749	800.000	-0.141	-0.640
-436.734	-44.093	-0.108	0.070
-435.719	800.000	0.096	-0.410
-434.705	800.000	0.052	-0.217
-433.690	33.956	0.344	-0.388
-432.676	397.759	0.056	-0.153
-431.661	136.636	0.066	0.112
-430.646	16.963	-0.060	-0.062
-429.632	-200.000	0.025	-0.283
-428.617	528.166	0.133	-0.408
-427.603	-63.965	-0.393	-0.207
-426.588	1.091	-0.161	-0.149
-425.573	800.000	0.054	-0.232
-424.559	-125.847	-0.201	-0.039
-423.544	-200.000	0.022	-0.612
-422.530	-161.756	0.080	-0.005
-421.515	200.543	-0.239	0.478
-420.500	302.287	-0.175	0.420
-419.486	156.760	-0.049	-0.089
-418.471	58.789	-0.139	-0.177
-417.457	3.332	0.265	0.250
-416.442	235.850	-0.183	0.393
-415.428	-84.609	-0.235	-0.096
-414.413	-200.000	0.012	0.425
-413.398	61.479	-0.141	-0.181
-412.384	45.431	0.321	-0.384
-411.369	-25.355	-0.070	-0.053
-410.355	-137.108	-0.396	-0.058
-409.340	-23.119	-0.113	-0.088
-408.325	306.594	0.218	0.527
-407.311	-126.845	-0.378	-0.072
-406.296	-200.000	0.040	0.247
-405.282	-157.235	-0.311	0.024
-404.267	-74.991	-0.493	-0.228
-403.252	205.262	-0.151	-0.305
-402.238	50.551	-0.182	-0.223
-401.223	-89.110	0.280	0.107
-400.209	-105.221	-0.393	-0.115
-399.194	-145.326	0.293	0.034
-398.179	-46.242	0.343	0.217
-397.165	28.465	0.092	-0.100
-396.150	-62.683	0.159	0.085
-395.136	-4.551	-0.057	-0.051
-394.121	-24.463	-0.220	-0.170
-393.106	-119.215	0.191	0.043
-392.092	-156.348	-0.428	-0.034
-391.077	634.365	-0.096	0.316
-390.063	-47.681	-0.280	0.175
-389.048	137.313	-0.188	0.319
-388.033	23.887	-0.568	-0.606
-387.019	96.981	0.145	-0.215
-386.004	-82.260	-0.301	-0.126
-384.990	-8.681	0.220	-0.191
-383.975	800.000	0.111	0.600
-382.960	355.376	0.174	0.451
-381.946	-153.434	-0.915	-0.081
-380.931	-134.215	-0.503	0.079
-379.917	-74.139	0.154	0.072
-378.902	301.669	-0.089	0.214
-377.888	77.760	-0.276	0.381
-376.873	436.020	0.157	0.443
-375.858	-52.822	0.439	-0.261
-374.844	70.413	0.121	-0.161
-373.829	-95.804	-0.479	0.164
-372.815	800.000	0.121	0.485
-371.800	61.366	0.447	0.575
-370.785	-61.681	0.062	0.034
-369.771	243.237	-0.078	0.169
-368.756	305.792	-0.231	0.558
-367.742	103.182	0.144	-0.219
-366.727	11.717	0.130	-0.129
-365.712	137.313	-0.201	-0.341
-364.698	61.665	-0.093	-0.120
-363.683	-80.660	0.288	0.123
-362.669	-89.305	0.143	-0.054
-361.654	671.863	-0.218	-0.735
-360.639	479.807	0.095	-0.280
-359.625	-46.097	0.301	0.191
-358.610	123.292	-0.274	0.445
-357.596	51.133	-0.370	0.454
-356.581	18.871	-0.145	0.150
-355.566	-200.000	-0.056	0.565
-354.552	620.300	-0.079	-0.259
-353.537	40.979	-0.388	0.452
-352.523	219.523	0.078	-0.162
-351.508	-87.959	0.494	0.191
-350.493	800.000	-0.109	0.529
-349.479	-145.226	0.283	0.033
-348.464	-183.471	0.521	0.011
-347.450	-192.493	0.398	0.005
-346.435	-76.571	0.353	0.159
-345.420	-167.885	-0.401	-0.020
-344.406	-82.382	-0.210	0.088
-343.391	641.327	-0.103	-0.339
-342.377	-63.011	-0.274	0.146
-341.362	-118.828	0.641	0.144
-340.348	-169.941	0.280	0.013
-339.333	-83.151	-0.359	0.148
-338.318	103.675	0.157	-0.239
-337.304	-59.392	0.148	0.082
-336.289	253.226	-0.234	-0.518
-335.275	-200.000	0.039	0.285
-334.260	3.839	0.194	0.183
-333.245	-15.589	-0.277	-0.228
-332.231	-54.584	0.184	-0.107
-331.216	-19.412	0.039	-0.031
-330.202	-81.645	0.129	0.054
-329.187	656.567	-0.122	0.405
-328.172	151.007	-0.495	-0.871
-327.158	-118.718	0.225	0.051
-326.143	-54.586	-0.213	0.124
-325.129	-200.000	0.001	0.358
-324.114	-65.982	-0.129	0.066
-323.099	-79.297	0.314	0.136
-322.085	74.203	0.321	0.435
-321.070	-30.889	-0.183	-0.133
-320.056	-0.718	-0.398	-0.363
-319.041	-120.176	-0.062	0.014
-318.026	-112.027	-0.169	0.044
-317.012	800.000	0.127	0.528
-315.997	-200.000	0.037	0.586
-314.983	800.000	0.057	0.257
-313.968	-70.884	-0.354	-0.171
-312.953	-88.106	0.275	0.106
-311.939	195.406	-0.119	-0.234
-310.924	-142.262	0.404	-0.051
-309.910	-200.000	-0.026	0.214
-308.895	-136.993	-0.094	0.014
-307.880	-200.000	0.008	-0.109
-306.866	75.750	0.043	0.059
-305.851	-73.578	-0.388	-0.182
-304.837	-200.000	-0.001	0.099
-303.822	-64.137	0.193	-0.101
-302.807	-94.723	-0.081	-0.028
-301.793	75.431	-0.183	0.249
-300.778	105.524	0.276	0.422
-299.764	94.564	0.316	0.464
-298.749	-200.000	-0.021	-0.225
-297.735	54.859	0.081	-0.101
-296.720	670.252	-0.075	0.252
-295.705	-40.983	-0.223	0.148
-294.691	800.000	-0.089	0.461
-293.676	-121.257	0.591	-0.126
-292.662	-200.000	-0.031	-0.298
-291.647	25.913	0.112	-0.120
-290.632	-147.427	0.251	0.027
-289.618	-70.834	-0.349	0.169
-288.603	37.820	-0.055	0.063
-287.589	-37.251	-0.294	0.202
-286.574	-55.753	-0.209	-0.120
-285.559	88.514	0.275	0.394
-284.545	-84.157	0.068	-0.028
-283.530	223.392	0.007	0.015
-282.516	-98.464	-0.139	0.046
-281.501	-26.269	0.074	-0.056
-280.486	324.842	0.168	-0.416
-279.472	234.013	-0.299	-0.637
-278.457	-97.366	0.452	-0.151
-277.443	-34.324	-0.135	-0.095
-276.428	-31.527	0.333	-0.241
-275.413	204.512	-0.114	-0.229
-274.399	178.673	-0.087	-0.163
-273.384	85.598	0.125	0.177
-272.370	41.503	0.360	0.420
-271.355	-200.000	0.009	0.393
-270.340	-111.634	-0.188	0.049
-269.326	-57.827	-0.551	-0.309
-268.311	3.174	0.219	-0.205
-267.297	-101.197	-0.396	0.124
-266.282	-62.215	-0.328	-0.175
-265.267	-150.351	0.049	0.005
-264.253	-98.503	-0.410	-0.134
-263.238	800.000	0.045	-0.243
-262.224	-47.669	-0.539	0.336
-261.209	-44.636	0.112	0.072
-260.195	183.991	0.199	0.381
-259.180	-116.416	-0.178	0.042
-258.165	97.750	0.106	-0.157
-257.151	131.043	-0.224	0.371
-256.136	-200.000	0.058	0.538
-255.122	-87.422	0.417	-0.162
-254.107	52.052	-0.094	0.115
-253.092	455.179	-0.054	0.156
-252.078	800.000	-0.103	0.404
-251.063	702.518	0.083	0.283
-250.049	-76.669	0.254	0.114
-249.034	30.482	0.137	0.151
-248.019	-80.266	0.364	0.156
-247.005	157.866	-0.213	0.381
-245.990	-80.398	0.210	0.090
-244.976	16.288	-0.277	0.281
-243.961	-27.972	0.322	0.239
-242.946	-27.024	-0.281	0.211
-241.932	161.573	0.110	0.199
-240.917	-0.460	0.297	-0.271
-239.903	492.082	0.058	-0.172
-238.888	17.755	0.334	0.341
-237.873	800.000	0.086	0.313
-236.859	53.403	0.170	0.210
-235.844	26.492	0.352	0.379
-234.830	-89.761	-0.438	-0.164
-233.815	224.617	0.232	-0.485
-232.800	20.527	-0.173	0.180
-231.786	-92.802	0.146	0.052
-230.771	69.790	-0.118	0.156
-229.757	-93.980	0.202	0.071
-228.742	-200.000	-0.067	0.589
-227.727	44.744	0.366	-0.433
-226.713	800.000	-0.090	0.341
-225.698	-108.784	0.282	-0.077
-224.684	123.493	-0.025	-0.041
-223.669	-54.278	0.318	-0.185
-222.655	5.196	-0.281	0.266
-221.640	-80.208	-0.065	-0.028
-220.625	-51.812	-0.553	0.330
-219.611	-172.934	-0.330	0.013
-218.596	-65.287	-0.379	0.196
-217.582	-11.764	-0.262	-0.220
-216.567	179.537	0.106	-0.200
-215.552	38.667	0.127	-0.146
-214.538	153.869	-0.148	0.261
-213.523	800.000	0.079	-0.310
-212.509	-140.072	0.617	0.083
-211.494	92.364	0.158	-0.229
-210.479	-45.458	0.101	-0.064
-209.465	62.727	0.204	-0.262
-208.450	-136.816	0.264	-0.039
-207.436	-52.006	-0.180	-0.107
-206.421	36.293	0.309	-0.350
-205.406	-196.321	-0.451	-0.004
-204.392	-91.740	-0.500	-0.181
-203.377	-113.563	-0.281	0.070
-202.363	-26.797	-0.154	-0.115
-201.348	109.289	0.304	-0.468
-200.333	-80.012	-0.414	0.177
-199.319	211.401	0.033	0.067
-198.304	476.839	0.083	0.243
-197.290	68.657	0.103	-0.136
-196.275	800.000	-0.048	-0.264
-195.260	152.521	-0.421	0.739
-194.246	5.826	-0.131	0.124
-193.231	-200.000	-0.005	-0.177
-192.217	40.725	0.265	-0.307
-191.202	619.111	-0.074	-0.240
-190.187	81.545	-0.085	0.118
-189.173	-148.932	0.133	0.014
-188.158	721.780	-0.068	0.235
-187.144	-35.925	-0.140	0.097
-186.129	-164.844	-0.500	0.028
-185.114	-200.000	0.028	-0.399
-184.100	-54.755	0.570	0.329
-183.085	800.000	-0.076	-0.354
-182.071	-89.046	-0.082	0.031
-181.056	187.783	-0.169	0.325
-180.042	-186.255	0.151	-0.003
-179.027	-91.332	-0.521	0.190
-178.012	-142.932	0.208	-0.026
-176.998	-141.555	-0.089	-0.011
-175.983	-179.330	0.233	0.006
-174.969	-38.479	0.132	0.090
-173.954	-11.699	-0.293	-0.246
-172.939	419.374	0.139	-0.383
-171.925	214.083	0.254	-0.516
-170.910	-118.832	-0.544	-0.122
-169.896	-33.863	0.608	0.429
-168.881	-81.325	0.021	0.009
-167.866	377.527	0.145	-0.381
-166.852	-200.000	0.046	0.300
-165.837	-111.926	0.578	0.149
-164.823	136.825	-0.249	-0.419
-163.808	-101.850	-0.274	-0.084
-162.793	800.000	-0.040	0.146
-161.779	800.000	0.039	-0.162
-160.764	-39.999	-0.214	-0.143
-159.750	16.186	0.208	-0.210
-158.735	394.886	-0.013	0.036
-157.720	-200.000	-0.004	0.312
-156.706	178.809	-0.107	-0.201
-155.691	-200.000	0.007	0.478
-154.677	-200.000	0.044	0.378
-153.662	778.979	-0.030	0.107
-152.647	18.075	-0.247	0.252
-151.633	-83.528	-0.249	0.102
-150.618	-200.000	0.226	0.001
-149.604	28.086	0.204	0.221
-148.589	800.000	0.110	-0.485
-147.574	91.953	-0.182	0.263
-146.560	64.597	0.131	-0.169
-145.545	800.000	0.075	-0.386
-144.531	14.249	-0.251	0.250
-143.516	-200.000	-0.020	0.402
-142.502	-200.000	0.011	0.298
-141.487	384.260	-0.123	-0.327
-140.472	45.215	0.242	-0.287
-139.458	-46.340	-0.159	0.100
-138.443	-40.626	0.105	0.070
-137.429	-117.448	-0.311	0.072
-136.414	-29.312	-0.329	0.241
-135.399	-200.000	0.017	0.209
-134.385	30.628	-0.092	0.101
-133.370	-200.000	0.024	0.256
-132.356	-107.442	0.311	-0.087
-131.341	94.359	0.215	0.313
-130.326	-77.542	0.203	0.090
-129.312	208.649	0.216	0.434
-128.297	5.602	0.164	-0.155
-127.283	-167.180	-0.130	0.007
-126.268	-27.249	0.031	0.023
-125.253	357.416	0.159	-0.407
-124.239	-86.896	0.328	-0.127
-123.224	-200.000	0.054	0.310
-122.210	-200.000	0.004	-0.145
-121.195	54.814	0.400	-0.495
-120.180	-122.251	-0.295	0.061
-119.166	4.996	0.436	0.410
-118.151	-31.295	0.309	-0.223
-117.137	-200.000	0.054	-0.320
-116.122	-95.800	-0.460	0.156
-115.107	-124.707	-0.410	-0.080
-114.093	-79.730	-0.359	-0.154
-113.078	-200.000	0.020	0.431
-112.064	82.711	-0.131	0.182
-111.049	-133.540	0.088	0.014
-110.034	95.363	0.112	0.163
-109.020	-83.684	0.162	0.066
-108.005	-178.788	0.509	-0.015
-106.991	-200.000	-0.050	-0.336
-105.976	-52.603	0.373	0.219
-104.962	487.295	0.150	-0.441
-103.947	-29.248	0.313	0.229
-102.932	-200.000	0.011	0.085
-101.918	146.082	0.106	-0.183
-100.903	-39.913	0.234	0.156
-99.889	231.032	0.164	0.345
-98.874	259.971	0.107	-0.237
-97.859	445.291	-0.062	-0.174
-96.845	307.247	-0.102	-0.244
-95.830	-200.000	0.030	-0.611
-94.816	-151.585	-0.235	0.022
-93.801	7.746	-0.094	0.090
-92.786	-160.557	0.488	0.033
-91.772	-63.328	0.364	-0.191
-90.757	302.433	-0.085	-0.201
-89.743	-124.985	-0.183	0.036
-88.728	-39.400	-0.190	-0.127
-87.713	-117.843	0.300	-0.068
-86.699	-115.449	-0.534	0.128
-85.684	-169.075	0.350	-0.016
-84.670	-15.683	0.666	0.542
-83.655	-129.932	-0.130	0.023
-82.640	104.119	0.220	-0.331
-81.626	-115.017	0.276	0.067
-80.611	-197.490	0.305	0.002
-79.597	-21.927	0.179	-0.139
-78.582	-114.350	-0.135	-0.033
-77.567	355.971	0.041	0.105
-76.553	-41.468	0.197	-0.129
-75.538	68.282	0.414	-0.543
-74.524	-58.431	-0.223	-0.124
-73.509	-200.000	0.003	-0.061
-72.494	678.992	-0.102	-0.340
-71.480	9.503	-0.370	-0.358
-70.465	800.000	-0.028	-0.125
-69.451	-30.453	-0.081	0.059
-68.436	800.000	0.055	-0.269
-67.422	-114.279	-0.504	-0.123
-66.407	4.738	-0.313	-0.294
-65.392	564.710	0.043	-0.134
-64.378	-131.242	0.679	0.114
-63.363	800.000	-0.084	-0.405
-62.349	-200.000	-0.008	0.132
-61.334	3.972	-2.088	-1.948
-60.319	95.269	0.920	1.341
-59.305	279.615	-3.193	-7.310
-58.290	38.232	3.715	4.225
-57.276	475.847	3.658	10.606
-56.261	-200.000	19.879	290.455
-55.246	397.022	1247.096	3343.140
-54.232	56.137	2841.691	3525.338
-53.217	66.769	2708.138	3522.520
-52.203	44.941	2438.915	2868.350
-51.188	39.513	2097.459	2400.427
-50.173	32.012	1979.040	2177.728
-49.159	30.692	1968.154	2150.336
-48.144	30.275	1963.711	2140.561
-47.130	30.370	1960.756	2138.354
-46.115	30.203	1960.121	2135.644
-45.100	30.155	1959.054	2133.845
-44.086	30.057	1957.590	2131.036
-43.071	30.270	1954.663	2130.214
-42.057	30.284	1953.903	2129.468
-41.042	30.092	1952.741	2125.897
-40.027	30.029	1951.765	2124.034
-39.013	30.107	1949.449	2122.325
-37.998	29.998	1948.208	2119.633
-36.984	30.109	1946.937	2119.441
-35.969	29.935	1946.148	2116.500
-34.954	30.075	1943.892	2115.571
-33.940	30.029	1943.368	2114.384
-32.925	30.096	1941.480	2113.015
-31.911	29.869	1941.363	2110.211
-30.896	29.923	1939.976	2109.228
-29.881	29.900	1938.271	2107.030
-28.867	30.034	1936.593	2106.650
-27.852	29.931	1936.311	2105.092
-26.838	29.904	1934.420	2102.645
-25.823	29.807	1933.913	2100.893
-24.809	29.866	1932.057	2099.471
-23.794	29.924	1930.391	2098.242
-22.779	29.877	1928.658	2095.740
-21.765	29.783	1927.815	2093.663
-20.750	29.892	1926.629	2093.534
-19.736	29.882	1925.434	2092.036
-18.721	29.814	1923.876	2089.493
-17.706	29.795	1922.856	2088.087
-16.692	29.717	1921.984	2086.177
-15.677	29.912	1919.931	2086.069
-14.663	29.889	1918.435	2084.098
-13.648	29.838	1917.471	2082.397
-12.633	29.795	1915.903	2080.126
-11.619	29.815	1914.470	2078.709
-10.604	29.726	1913.767	2076.856
-9.590	29.696	1912.673	2075.251
-8.575	29.912	1910.946	2075.735
-7.560	29.684	1910.554	2072.654
-6.546	29.691	1909.789	2071.815
-5.531	29.756	1907.850	2070.363
-4.517	29.693	1906.618	2068.235
-3.502	29.676	1905.820	2067.102
-2.487	29.612	1904.596	2064.966
-1.473	29.751	1901.066	2062.622
-0.458	29.387	1882.388	2038.228
0.556	25.632	2025.939	2136.057
1.571	24.282	2235.623	2339.075
2.586	25.381	2278.030	2397.914
3.600	25.510	2281.274	2402.771
4.615	25.671	2280.734	2404.080
5.629	25.736	2278.362	2402.162
6.644	25.719	2276.963	2400.166
7.659	25.767	2274.969	2398.431
8.673	25.661	2273.308	2394.970
9.688	25.130	2279.802	2394.393
10.702	23.516	2357.615	2453.400
11.717	22.147	2424.946	2503.577
12.731	12.317	2399.507	2337.057
13.746	2.271	2370.987	2166.439
14.761	0.420	2365.833	2135.149
15.775	0.351	2362.652	2131.031
16.790	0.281	2361.582	2128.820
17.804	0.208	2360.047	2126.150
18.819	0.168	2359.862	2125.160
19.834	0.165	2357.315	2122.565
20.848	0.188	2355.572	2121.069
21.863	0.174	2354.436	2119.598
22.877	0.104	2352.968	2117.030
23.892	0.235	2349.791	2115.774
24.907	0.249	2348.244	2114.323
25.921	0.260	2345.340	2111.607
26.936	0.318	2344.201	2111.140
27.950	0.249	2341.583	2107.568
28.965	0.333	2338.592	2105.797
29.980	0.288	2337.691	2104.103
30.994	0.359	2336.053	2103.374
32.009	5.571	2353.925	2192.728
33.023	18.609	2392.610	2414.035
34.038	25.085	2407.171	2520.275
35.053	26.477	2406.633	2539.064
36.067	26.536	2405.985	2538.900
37.082	26.523	2404.821	2537.195
38.096	26.632	2402.119	2535.562
39.111	26.765	2400.622	2535.551
40.126	26.956	2399.047	2536.268
41.140	27.171	2398.663	2538.582
42.155	26.832	2395.154	2529.807
43.169	26.662	2392.577	2524.404
44.184	26.939	2389.105	2524.309
45.199	26.810	2388.719	2521.800
46.213	26.705	2387.549	2518.800
47.228	26.653	2386.278	2516.432
48.242	26.512	2384.304	2512.073
49.257	26.687	2381.216	2510.966
50.271	26.810	2379.327	2510.386
51.286	26.817	2378.172	2508.958
52.301	26.687	2375.567	2504.106
53.315	25.893	2373.775	2490.892
54.330	24.872	2369.473	2471.916
55.344	24.292	2364.204	2458.090
56.359	24.265	2360.141	2453.190
57.374	24.009	2358.198	2447.345
58.388	24.096	2355.091	2445.024
59.403	24.345	2352.593	2445.577
60.417	24.513	2351.048	2445.991
61.432	24.570	2349.184	2444.541
62.447	24.431	2346.784	2439.837
63.461	24.492	2343.702	2437.174
64.476	24.541	2342.650	2436.459
65.490	24.858	2343.209	2441.104
66.505	25.323	2345.051	2449.111
67.520	25.969	2343.491	2456.037
68.534	26.015	2340.883	2453.626
69.549	26.151	2339.474	2453.724
70.563	26.301	2337.504	2453.411
71.578	26.237	2335.585	2450.224
72.593	26.450	2333.635	2450.783
73.607	26.756	2334.066	2455.113
74.622	26.779	2332.615	2453.610
75.636	26.692	2329.212	2448.557
76.651	26.603	2326.794	2444.512
77.666	26.630	2324.623	2442.309
78.680	26.704	2322.392	2440.673
79.695	26.808	2321.538	2440.892
80.709	26.897	2321.327	2441.573
81.724	27.039	2319.129	2440.884
82.739	27.073	2316.008	2437.776
83.753	26.959	2313.989	2433.823
84.768	26.876	2311.909	2430.220
85.782	26.775	2310.991	2427.600
86.797	26.742	2308.613	2424.373
87.812	26.423	2307.144	2418.254
88.826	26.394	2304.159	2414.443
89.841	26.559	2302.866	2415.022
90.855	26.932	2301.017	2417.789
91.870	26.672	2298.888	2411.785
92.884	26.555	2296.228	2407.138
93.899	26.760	2296.045	2409.390
94.914	26.303	2294.442	2401.327
95.928	25.201	2290.043	2381.734
96.943	24.747	2286.438	2371.642
97.957	25.540	2287.899	2383.448
98.972	26.285	2287.444	2392.615
99.987	26.256	2283.164	2387.470
101.001	26.257	2281.403	2385.350
102.016	26.378	2279.782	2384.973
103.030	26.464	2278.337	2384.318
104.045	26.662	2275.522	2383.708
105.060	26.890	2274.650	2385.515
106.074	26.829	2271.922	2381.571
107.089	26.446	2270.150	2374.379
108.103	26.680	2269.846	2376.853
109.118	26.828	2268.611	2377.231
110.133	26.836	2267.214	2375.587
111.147	26.936	2265.254	2374.568
112.162	26.996	2262.861	2372.561
113.176	26.842	2259.386	2366.617
114.191	26.555	2258.343	2361.475
115.206	26.646	2256.763	2360.734
116.220	26.564	2254.111	2356.596
117.235	26.400	2251.825	2351.789
118.249	26.331	2249.570	2348.253
119.264	26.503	2248.834	2349.438
120.279	26.714	2247.741	2350.773
121.293	26.429	2245.551	2344.493
122.308	26.333	2243.282	2340.592
123.322	26.328	2241.804	2338.706
124.337	25.668	2239.011	2326.932
125.352	25.033	2236.522	2315.826
126.366	25.178	2235.435	2316.303
127.381	25.829	2234.612	2323.615
128.395	26.259	2232.465	2326.668
129.410	26.588	2231.357	2329.496
130.424	26.568	2229.905	2327.446
131.439	26.441	2227.656	2323.180
132.454	26.296	2225.878	2319.171
133.468	26.483	2223.579	2318.911
134.483	26.518	2222.342	2317.795
135.497	26.360	2221.118	2314.205
136.512	26.607	2218.966	2314.862
137.527	26.583	2216.757	2311.969
138.541	26.521	2215.624	2309.721
139.556	26.473	2213.910	2307.032
140.570	26.482	2212.980	2305.909
141.585	26.623	2211.027	2305.397
142.600	26.654	2209.817	2304.264
143.614	26.665	2207.789	2302.010
144.629	26.838	2207.431	2303.567
145.643	26.433	2205.743	2296.364
146.658	26.423	2201.779	2291.832
147.673	26.348	2200.547	2289.330
148.687	26.584	2200.075	2291.562
149.702	26.713	2198.854	2291.658
150.716	26.642	2197.310	2288.876
151.731	26.799	2196.668	2289.916
152.746	26.980	2196.297	2291.557
153.760	26.344	2193.174	2279.967
154.775	25.032	2188.027	2257.742
155.789	24.342	2185.418	2246.037
156.804	25.306	2183.763	2256.253
157.819	25.854	2183.052	2262.176
158.833	26.300	2182.445	2266.893
159.848	26.787	2180.953	2271.216
160.862	27.044	2179.973	2273.146
161.877	26.967	2179.491	2271.411
162.892	26.997	2177.919	2269.877
163.906	27.054	2176.364	2268.704
164.921	26.994	2174.848	2266.094
165.935	27.102	2172.504	2264.732
166.950	26.939	2169.911	2259.721
167.964	26.719	2167.280	2253.964
168.979	26.544	2165.076	2249.215
169.994	26.654	2164.921	2250.152
171.008	26.783	2163.478	2249.996
172.023	26.625	2160.886	2245.059
173.037	26.696	2160.058	2244.815
174.052	26.679	2157.692	2241.872
175.067	26.451	2155.954	2236.966
176.081	26.374	2154.940	2234.697
177.096	26.476	2153.142	2233.830
178.110	26.206	2150.446	2227.410
179.125	26.116	2148.938	2224.467
180.140	26.372	2148.247	2226.660
181.154	26.316	2147.261	2224.684
182.169	26.276	2144.923	2221.499
183.183	25.789	2142.311	2212.517
184.198	24.791	2139.008	2196.524
185.213	24.484	2137.914	2191.356
186.227	25.751	2138.952	2207.788
187.242	26.224	2138.102	2212.469
188.256	26.255	2137.141	2211.586
189.271	26.768	2136.452	2216.917
190.286	26.806	2134.841	2215.448
191.300	26.465	2131.132	2207.157
192.315	26.291	2129.807	2203.389
193.329	26.706	2129.719	2208.117
194.344	26.968	2128.684	2209.982
195.359	26.819	2127.708	2206.878
196.373	27.136	2125.925	2208.645
197.388	27.122	2123.234	2205.406
198.402	26.747	2120.072	2197.299
199.417	26.705	2117.797	2194.160
200.432	26.749	2116.217	2192.792
201.446	26.789	2116.314	2193.118
202.461	26.947	2114.368	2192.758
203.475	26.708	2111.780	2186.923
204.490	26.422	2109.892	2181.239
205.504	26.502	2107.260	2179.220
206.519	26.325	2104.321	2173.775
207.534	26.534	2103.014	2174.700
208.548	26.617	2102.413	2174.813
209.563	26.365	2100.860	2169.905
210.577	26.261	2099.958	2167.464
211.592	26.548	2098.892	2169.564
212.607	25.895	2096.581	2159.049
213.621	24.222	2091.738	2133.690
214.636	24.278	2090.372	2132.716
215.650	25.677	2092.061	2151.005
216.665	26.304	2090.977	2157.159
217.680	26.646	2089.789	2159.772
218.694	26.896	2089.312	2162.018
219.709	26.737	2087.626	2158.114
220.723	26.913	2085.422	2157.674
221.738	26.943	2083.851	2156.156
222.753	26.844	2081.585	2152.367
223.767	26.660	2079.441	2147.701
224.782	26.358	2078.152	2142.520
225.796	26.442	2076.272	2141.320
226.811	26.732	2075.487	2143.700
227.826	26.914	2074.592	2144.685
228.840	26.998	2073.266	2144.050
229.855	26.731	2071.571	2138.875
230.869	26.913	2070.024	2139.182
231.884	26.772	2067.853	2135.012
232.899	26.648	2066.057	2131.432
233.913	26.593	2065.216	2129.661
234.928	26.769	2064.013	2130.243
235.942	26.754	2061.473	2127.190
236.957	26.643	2059.461	2123.555
237.972	26.612	2058.815	2122.275
238.986	26.738	2058.130	2122.787
240.001	26.581	2055.728	2118.214
241.015	26.259	2053.718	2112.112
242.030	26.062	2052.395	2108.181
243.045	25.325	2047.805	2094.575
244.059	25.120	2047.115	2091.219
245.074	26.120	2047.419	2102.996
246.088	26.388	2044.742	2103.126
247.103	26.453	2043.663	2102.521
248.117	26.627	2042.325	2102.926
249.132	26.837	2040.949	2103.704
250.147	26.608	2038.622	2098.392
251.161	26.326	2037.612	2093.820
252.176	26.574	2035.923	2094.714
253.190	26.565	2033.595	2091.962
254.205	26.188	2031.778	2085.473
255.220	26.393	2029.985	2085.757
256.234	26.336	2029.355	2084.199
257.249	26.184	2028.346	2081.145
258.263	26.050	2027.035	2078.005
259.278	26.099	2025.315	2076.565
260.293	26.175	2023.688	2075.522
261.307	26.466	2022.272	2077.183
262.322	26.607	2020.940	2077.186
263.336	26.315	2017.867	2070.415
264.351	26.060	2017.039	2066.382
265.366	26.019	2017.325	2065.959
266.380	26.292	2014.976	2066.444
267.395	26.180	2012.678	2062.554
268.409	26.310	2010.850	2061.926
269.424	26.804	2010.093	2066.560
270.439	26.806	2011.110	2067.389
271.453	26.404	2007.536	2058.863
272.468	24.856	2003.134	2036.410
273.482	24.631	2001.337	2031.778
274.497	25.694	2001.503	2043.843
275.512	26.589	1999.415	2051.663
276.526	26.531	1998.029	2049.331
277.541	26.528	1996.211	2047.196
278.555	26.471	1994.122	2044.160
279.570	26.017	1991.734	2036.315
280.585	25.856	1991.020	2033.507
281.599	26.237	1989.702	2036.244
282.614	26.399	1988.126	2036.219
283.628	26.363	1987.320	2034.740
284.643	26.501	1986.471	2035.192
285.657	26.397	1986.042	2033.324
286.672	26.369	1983.727	2030.401
287.687	26.223	1980.900	2025.618
288.701	26.119	1979.375	2022.640
289.716	25.906	1977.918	2018.516
290.730	25.896	1976.553	2016.774
291.745	25.997	1975.134	2016.218
292.760	25.986	1974.246	2014.949
293.774	25.960	1974.299	2014.462
294.789	26.602	1973.103	2020.201
295.803	26.791	1970.775	2019.691
296.818	26.587	1969.476	2015.843
297.833	26.571	1968.617	2014.540
298.847	26.550	1966.991	2012.406
299.862	26.523	1964.906	2009.723
300.876	25.945	1962.951	2001.040
301.891	24.931	1958.832	1985.304
302.906	24.839	1958.578	1983.781
303.920	26.129	1959.520	1998.869
304.935	26.637	1957.349	2002.060
305.949	26.609	1955.717	1999.849
306.964	27.035	1954.534	2003.122
307.979	26.769	1953.191	1998.557
308.993	26.153	1949.803	1988.037
310.008	25.860	1947.845	1982.560
311.022	26.166	1946.551	1984.388
312.037	26.300	1945.600	1984.660
313.052	26.028	1943.198	1978.972
314.066	25.454	1940.213	1969.379
315.081	25.205	1939.027	1965.189
316.095	25.103	1937.063	1961.841
317.110	25.211	1935.562	1961.282
318.125	25.457	1935.362	1963.548
319.139	25.853	1934.639	1966.923
320.154	26.229	1934.251	1970.408
321.168	26.263	1931.696	1967.947
322.183	26.270	1932.144	1968.245
323.197	26.467	1929.314	1967.285
324.212	26.294	1928.088	1963.900
325.227	26.283	1926.654	1962.092
326.241	26.392	1925.161	1961.519
327.256	26.664	1924.099	1963.171
328.270	26.566	1923.779	1961.544
329.285	26.467	1923.409	1959.845
330.300	26.197	1921.774	1955.009
331.314	24.801	1915.919	1933.664
332.329	24.689	1914.197	1930.480
333.343	25.873	1916.705	1945.637
334.358	26.790	1916.009	1954.637
335.373	26.964	1914.973	1955.230
336.387	26.797	1912.258	1950.426
337.402	26.739	1910.995	1948.273
338.416	26.532	1909.245	1944.018
339.431	26.575	1907.625	1942.608
340.446	26.963	1905.903	1944.802
341.460	26.847	1904.871	1942.258
342.475	26.828	1902.561	1939.476
343.489	26.392	1899.429	1931.363
344.504	26.195	1898.598	1928.182
345.519	26.076	1896.896	1924.941
346.533	25.951	1893.857	1920.288
347.548	25.798	1893.448	1918.003
348.562	26.159	1892.047	1920.219
349.577	26.146	1891.251	1919.040
350.592	25.959	1890.120	1915.666
351.606	25.996	1888.170	1913.856
352.621	25.909	1886.219	1910.726
353.635	25.968	1885.415	1910.312
354.650	25.901	1885.368	1909.316
355.665	26.035	1883.718	1908.846
356.679	26.397	1881.387	1910.094
357.694	26.454	1880.842	1909.922
358.708	26.621	1879.436	1910.037
359.723	26.259	1877.104	1903.608
360.738	24.945	1874.241	1886.572
361.752	24.958	1874.535	1886.779
362.767	26.139	1873.708	1898.208
363.781	26.672	1872.153	1902.033
364.796	26.667	1871.857	1901.450
365.810	26.612	1870.284	1899.043
366.825	26.621	1869.133	1897.743
367.840	26.751	1868.627	1898.374
368.854	26.938	1867.381	1898.850
369.869	26.861	1865.907	1896.315
370.883	26.767	1864.436	1893.606
371.898	26.412	1862.636	1887.819
372.913	26.376	1859.379	1883.917
373.927	26.263	1859.175	1882.308
374.942	26.371	1857.541	1881.556
375.956	26.395	1856.418	1880.444
376.971	26.134	1854.238	1875.286
377.986	25.830	1851.641	1869.264
379.000	25.908	1850.933	1869.138
380.015	26.540	1849.815	1874.361
381.029	26.735	1848.818	1875.158
382.044	26.874	1847.691	1875.234
383.059	26.805	1846.549	1873.140
384.073	26.496	1844.658	1867.787
385.088	26.240	1842.135	1862.357
386.102	26.317	1841.143	1861.932
387.117	26.440	1838.356	1860.158
388.132	26.357	1839.548	1860.283
389.146	26.141	1838.951	1857.222
390.161	24.810	1834.642	1838.911
391.175	24.675	1831.569	1834.214
392.190	26.100	1830.157	1847.259
393.205	26.373	1829.356	1849.034
394.219	26.334	1829.088	1848.142
395.234	26.356	1827.788	1846.831
396.248	26.335	1825.388	1843.970
397.263	26.441	1822.097	1841.511
398.278	25.974	1821.122	1835.532
399.292	26.151	1820.111	1836.101
400.307	26.331	1820.636	1838.244
401.321	26.396	1819.876	1837.921
402.336	25.966	1815.971	1829.372
403.350	25.547	1813.962	1822.863
404.365	26.103	1813.121	1827.462
405.380	26.065	1811.820	1825.546
406.394	25.574	1810.105	1818.614
407.409	25.496	1808.127	1815.614
408.423	25.381	1806.234	1812.330
409.438	25.410	1804.992	1811.157
410.453	25.788	1804.904	1814.680
411.467	26.151	1805.025	1818.263
412.482	26.508	1804.167	1820.794
413.496	26.486	1803.491	1819.669
414.511	26.570	1800.785	1817.567
415.526	26.361	1798.119	1812.556
416.540	26.470	1797.455	1812.763
417.555	26.511	1796.483	1811.985
418.569	26.237	1795.831	1808.351
419.584	26.274	1795.505	1808.181
420.599	26.225	1794.579	1806.535
421.613	26.087	1792.816	1803.159
422.628	26.216	1791.963	1803.383
423.642	26.611	1790.601	1805.756
424.657	26.412	1789.675	1802.606
425.672	25.951	1787.341	1795.426
426.686	26.141	1785.797	1795.568
427.701	26.071	1784.588	1793.437
428.715	26.162	1782.763	1792.291
429.730	26.349	1782.893	1794.075
430.745	26.647	1781.123	1795.050
431.759	26.507	1779.761	1792.066
432.774	25.655	1777.772	1781.373
433.788	24.429	1774.407	1765.609
434.803	23.929	1771.259	1757.302
435.818	23.715	1771.351	1755.056
436.832	23.740	1770.714	1754.463
437.847	22.529	1761.271	1732.935
438.861	12.512	1734.221	1608.120
439.876	2.258	1715.519	1490.474
440.890	0.455	1710.666	1468.451
441.905	0.352	1709.693	1466.424
442.920	0.221	1709.158	1464.515
443.934	0.294	1707.133	1463.311
444.949	0.145	1705.897	1460.624
445.963	0.238	1704.369	1460.048
446.978	0.116	1704.016	1458.385
447.993	0.186	1702.893	1457.927
449.007	0.186	1700.278	1455.515
450.022	0.229	1698.723	1454.432
451.036	0.433	1697.917	1455.542
452.051	1.428	1701.090	1467.759
453.066	9.051	1720.400	1558.884
454.080	19.988	1741.736	1685.603
455.095	23.686	1747.545	1727.252
456.109	24.918	1748.616	1740.140
457.124	25.188	1747.227	1741.184
458.139	25.054	1746.980	1739.422
459.153	24.880	1745.469	1736.014
460.168	24.728	1743.856	1732.726
461.182	24.702	1742.493	1730.909
462.197	24.803	1740.249	1729.455
463.212	24.787	1739.268	1728.117
464.226	24.940	1737.585	1727.725
465.241	25.061	1735.896	1727.006
466.255	25.067	1734.770	1725.738
467.270	24.954	1733.686	1723.362
468.285	25.170	1732.463	1724.025
469.299	25.143	1731.517	1722.615
470.314	25.199	1728.546	1719.999
471.328	24.997	1728.165	1717.465
472.343	25.018	1727.143	1716.450
473.358	25.016	1725.958	1715.043
474.372	24.809	1725.019	1711.910
475.387	25.000	1724.131	1712.660
476.401	24.792	1721.746	1708.091
477.416	24.798	1720.349	1706.563
478.430	24.763	1719.340	1705.019
479.445	24.949	1718.416	1705.678
480.460	25.049	1717.266	1705.294
481.474	24.984	1716.364	1703.569
482.489	24.786	1714.964	1700.088
483.503	24.866	1712.255	1697.964
484.518	24.791	1710.799	1695.600
485.533	24.853	1709.744	1694.944
486.547	24.792	1708.097	1692.519
487.562	24.658	1706.927	1689.889
488.576	24.799	1705.627	1689.738
489.591	24.789	1704.654	1688.481
490.606	24.919	1704.011	1688.872
491.620	24.950	1702.378	1687.347
492.635	24.961	1699.739	1684.630
493.649	24.711	1698.508	1680.848
494.664	24.779	1697.462	1680.256
495.679	24.893	1696.428	1680.106
496.693	24.877	1695.786	1679.112
497.708	24.960	1693.971	1677.903
498.722	24.819	1693.147	1675.557
499.737	24.859	1691.695	1674.290
500.752	24.940	1690.337	1673.509
501.766	24.967	1688.538	1671.780
502.781	25.125	1686.609	1671.151
503.795	24.959	1686.073	1668.862
504.810	25.117	1684.486	1668.576
505.825	24.893	1684.712	1666.500
506.839	24.994	1683.378	1665.925
507.854	25.067	1681.137	1664.190
508.868	24.905	1679.914	1661.275
509.883	24.885	1678.109	1659.104
510.898	24.617	1677.655	1655.957
511.912	24.593	1675.625	1653.529
512.927	24.706	1673.538	1652.327
513.941	24.924	1672.037	1652.671
514.956	25.046	1671.998	1653.561
515.971	25.209	1670.871	1653.759
516.985	25.232	1669.201	1652.119
518.000	25.031	1668.372	1649.247
519.014	24.744	1667.061	1645.101
520.029	24.760	1665.202	1643.216
521.043	24.789	1663.534	1641.642
522.058	24.718	1662.713	1639.976
523.073	24.756	1661.740	1639.175
524.087	24.798	1660.331	1637.976
525.102	24.816	1658.991	1636.618
526.116	24.811	1658.733	1636.125
527.131	24.937	1657.343	1635.709
528.146	24.921	1656.245	1634.289
529.160	24.823	1655.270	1632.233
530.175	24.821	1654.041	1630.802
531.189	24.902	1652.532	1629.860
532.204	24.799	1651.146	1627.361
533.219	24.708	1650.007	1625.210
534.233	24.748	1649.803	1625.186
535.248	24.712	1647.697	1622.588
536.262	24.543	1646.310	1619.487
537.277	24.762	1645.581	1620.570
538.292	24.950	1643.727	1620.257
539.306	24.774	1642.191	1616.951
540.321	24.693	1640.380	1614.243
541.335	24.512	1639.247	1611.289
542.350	24.741	1637.968	1611.911
543.365	24.804	1636.331	1610.680
544.379	24.736	1634.985	1608.544
545.394	24.781	1634.216	1608.002
546.408	24.780	1632.429	1606.047
547.423	24.851	1631.787	1605.858
548.438	24.859	1631.144	1605.107
549.452	24.856	1629.760	1603.531
550.467	24.737	1628.373	1600.904
551.481	24.751	1626.676	1599.163
552.496	24.639	1626.100	1597.406
553.511	24.634	1624.573	1595.666
554.525	24.659	1623.675	1594.821
555.540	24.756	1622.455	1594.298
556.554	24.781	1621.362	1593.256
557.569	24.638	1620.471	1590.913
558.583	24.828	1618.074	1590.065
559.598	24.751	1617.325	1588.453
560.613	24.677	1616.856	1587.138
561.627	24.628	1614.892	1584.589
562.642	24.589	1613.037	1582.225
563.656	24.552	1611.125	1579.836
564.671	24.353	1610.494	1577.261
565.686	24.346	1609.807	1576.331
566.700	24.468	1608.620	1576.069
567.715	24.564	1607.522	1575.652
568.729	24.598	1606.071	1574.341
569.744	24.870	1605.047	1575.554
570.759	24.949	1603.055	1574.114
571.773	24.956	1602.069	1573.020
572.788	24.695	1601.466	1569.932
573.802	24.595	1599.646	1567.083
574.817	24.597	1597.601	1564.904
575.832	24.360	1596.669	1561.716
576.846	24.605	1594.600	1561.659
577.861	24.651	1593.434	1560.739
578.875	24.563	1593.273	1559.617
579.890	24.555	1592.005	1558.124
580.905	24.590	1590.879	1557.141
581.919	24.525	1590.637	1556.152
582.934	24.516	1589.848	1555.111
583.948	24.620	1587.786	1553.818
584.963	24.422	1586.522	1550.666
585.978	24.570	1585.552	1550.822
586.992	24.517	1584.732	1549.373
588.007	24.406	1584.354	1547.847
589.021	24.503	1582.049	1546.260
590.036	24.409	1580.474	1543.712
591.051	24.496	1579.765	1543.597
592.065	24.497	1577.922	1541.618
593.080	24.514	1576.280	1539.979
594.094	24.457	1575.519	1538.555
595.109	24.560	1573.814	1537.600
596.123	24.717	1572.529	1537.513
597.138	24.654	1571.171	1535.463
598.153	24.640	1569.418	1533.440
599.167	24.600	1567.862	1531.391
600.182	24.537	1567.674	1530.486
601.196	24.441	1567.711	1529.505
602.211	24.508	1565.820	1528.061
603.226	24.400	1563.996	1525.167
604.240	24.457	1562.577	1524.085
605.255	24.508	1561.505	1523.294
606.269	24.488	1560.674	1522.132
607.284	24.330	1560.703	1520.625
608.299	24.438	1558.152	1518.885
609.313	24.501	1556.696	1517.816
610.328	24.511	1555.885	1516.929
611.342	24.455	1554.371	1514.794
612.357	24.425	1552.998	1513.022
613.372	24.501	1551.780	1512.301
614.386	24.332	1551.309	1510.226
615.401	24.256	1550.470	1508.581
616.415	24.436	1548.780	1508.282
617.430	24.345	1547.243	1505.833
618.445	24.225	1546.934	1504.335
619.459	24.293	1546.173	1503.995
620.474	24.441	1545.222	1504.140
621.488	24.769	1544.606	1506.133
622.503	24.939	1543.750	1506.559
623.518	24.551	1541.818	1501.217
624.532	24.342	1540.665	1498.146
625.547	24.270	1538.572	1495.329
626.561	24.080	1537.574	1492.580
627.576	24.113	1536.759	1491.885
628.591	24.464	1536.199	1494.116
629.605	24.683	1535.338	1494.941
630.620	24.925	1534.226	1495.715
631.634	24.904	1533.827	1494.966
632.649	24.814	1532.999	1493.229
633.663	24.632	1531.150	1489.723
634.678	24.451	1528.174	1485.139
635.693	24.322	1525.914	1481.686
636.707	24.056	1523.955	1477.385
637.722	24.047	1523.559	1476.752
638.736	24.056	1522.757	1475.869
639.751	24.281	1521.908	1476.748
640.766	24.252	1521.111	1475.550
641.780	24.168	1519.484	1473.104
642.795	24.273	1518.709	1473.048
643.809	24.230	1518.371	1472.181
644.824	24.444	1517.193	1472.641
645.839	24.399	1516.093	1471.024
646.853	24.434	1514.185	1469.290
647.868	24.267	1512.729	1466.318
648.882	24.352	1512.410	1466.532
649.897	24.309	1511.095	1464.728
650.912	24.272	1509.746	1462.938
651.926	24.377	1508.200	1462.134
652.941	24.343	1507.740	1461.232
653.955	24.412	1505.782	1459.726
654.970	24.230	1504.176	1456.503
655.985	24.325	1502.341	1455.327
656.999	24.224	1501.078	1453.101
658.014	24.266	1499.816	1452.048
659.028	24.269	1499.203	1451.311
660.043	24.391	1498.994	1451.927
661.058	24.383	1497.346	1450.092
662.072	24.330	1496.000	1448.184
663.087	24.306	1495.274	1447.115
664.101	24.323	1494.199	1446.041
665.116	24.245	1492.962	1444.035
666.131	24.212	1491.560	1442.236
667.145	24.238	1490.312	1441.065
668.160	24.282	1488.935	1439.919
669.174	24.086	1487.311	1436.593
670.189	24.190	1486.915	1436.880
671.204	24.271	1486.250	1436.720
672.218	24.389	1484.443	1435.756
673.233	24.262	1484.189	1434.311
674.247	24.047	1482.852	1431.108
675.262	24.118	1480.984	1429.706
676.276	24.086	1480.130	1428.456
677.291	24.177	1479.578	1428.488
678.306	24.330	1478.605	1428.603
679.320	24.243	1477.216	1426.390
680.335	24.094	1476.538	1424.365
681.349	24.110	1475.965	1423.776
682.364	24.110	1474.290	1421.985
683.379	24.203	1472.132	1420.481
684.393	23.990	1471.384	1417.884
685.408	23.978	1470.438	1416.707
686.422	24.053	1469.158	1415.903
687.437	23.948	1468.347	1414.112
688.452	23.661	1467.282	1410.625
689.466	23.899	1465.631	1410.773
690.481	23.911	1465.222	1410.302
691.495	24.070	1465.175	1411.359
692.510	24.511	1464.666	1414.211
693.525	24.627	1463.204	1413.547
694.539	24.430	1462.111	1410.757
695.554	24.065	1460.612	1406.248
696.568	23.899	1458.432	1402.663
697.583	23.737	1457.181	1400.005
698.598	23.649	1456.440	1398.434
699.612	23.674	1454.983	1397.061
700.627	23.792	1454.286	1397.156
701.641	23.908	1453.043	1396.714
702.656	24.049	1451.488	1396.164
703.671	23.844	1451.655	1394.540
704.685	23.925	1451.030	1394.414
705.700	24.025	1449.216	1393.290
706.714	24.082	1447.700	1392.116
707.729	24.084	1446.533	1390.836
708.744	24.055	1445.456	1389.407
709.758	23.986	1444.206	1387.498
710.773	23.973	1443.491	1386.545
711.787	23.968	1442.265	1385.161
712.802	24.032	1440.786	1384.081
713.816	24.215	1439.500	1384.104
714.831	24.081	1438.706	1382.131
715.846	23.949	1437.672	1379.944
716.860	23.915	1436.323	1378.220
717.875	23.938	1435.336	1377.283
718.889	23.958	1433.877	1375.875
719.904	23.968	1432.875	1374.830
720.919	23.899	1431.264	1372.582
721.933	23.786	1430.652	1370.950
722.948	23.846	1429.160	1369.823
723.962	23.722	1428.041	1367.627
724.977	23.623	1427.115	1365.814
725.992	23.734	1426.445	1365.864
727.006	23.838	1424.660	1364.794
728.021	23.913	1423.172	1363.786
729.035	23.800	1423.150	1362.730
730.050	23.722	1422.170	1361.031
731.065	23.765	1420.007	1359.122
732.079	23.763	1418.963	1357.948
733.094	23.816	1418.221	1357.480
734.108	23.914	1417.330	1357.217
735.123	23.778	1415.869	1354.614
736.138	23.934	1414.517	1354.352
737.152	23.702	1413.874	1351.804
738.167	23.634	1412.639	1349.940
739.181	23.567	1411.936	1348.592
740.196	23.755	1410.743	1348.724
741.211	23.648	1409.697	1346.747
742.225	23.719	1408.821	1346.291
743.240	23.737	1407.776	1345.273
744.254	23.683	1406.058	1343.060
745.269	23.618	1404.290	1340.715
746.284	23.518	1403.675	1339.206
747.298	23.588	1403.639	1339.547
748.313	23.910	1403.396	1341.596
749.327	24.184	1402.724	1342.870
750.342	24.434	1402.639	1344.521
751.356	24.668	1401.309	1344.851
752.371	24.452	1399.557	1341.375
753.386	23.913	1397.521	1335.198
754.400	23.613	1396.436	1331.744
755.415	23.683	1394.779	1330.526
756.429	23.830	1393.403	1330.162
757.444	23.742	1392.229	1328.221
758.459	23.672	1391.404	1326.751
759.473	23.583	1390.034	1324.614
760.488	23.556	1389.573	1323.819
761.502	23.399	1388.269	1321.236
762.517	23.502	1387.365	1320.993
763.532	23.729	1385.370	1320.628
764.546	23.844	1384.142	1320.158
765.561	23.772	1384.026	1319.355
766.575	23.640	1383.928	1318.118
767.590	23.789	1382.834	1318.027
768.605	23.898	1381.373	1317.288
769.619	23.826	1380.208	1315.486
770.634	23.696	1378.645	1312.871
771.648	23.621	1376.811	1310.415
772.663	23.422	1376.219	1308.220
773.678	23.485	1375.347	1307.695
774.692	23.644	1374.677	1308.079
775.707	23.672	1374.069	1307.558
776.721	23.569	1372.749	1305.382
777.736	23.425	1372.207	1303.644
778.751	23.361	1371.252	1302.108
779.765	23.553	1369.671	1301.868
780.780	23.605	1368.924	1301.382
781.794	23.656	1368.052	1300.776
782.809	23.399	1366.520	1297.272
783.824	23.505	1365.143	1296.588
784.838	23.529	1364.715	1296.201
785.853	24.078	1364.794	1300.155
786.867	24.012	1364.249	1298.998
787.882	23.714	1363.624	1296.058
788.897	23.587	1361.960	1293.389
789.911	23.461	1360.279	1290.716
790.926	23.296	1359.055	1288.196
791.940	23.304	1357.044	1286.194
792.955	23.284	1355.697	1284.616
793.969	23.082	1355.380	1282.693
794.984	23.136	1354.970	1282.545
795.999	23.237	1353.637	1281.861
797.013	23.295	1351.627	1280.228
798.028	23.202	1350.513	1278.344
799.042	23.370	1349.495	1278.448
800.057	23.202	1349.000	1276.607
801.072	23.385	1347.090	1275.969
802.086	23.336	1345.896	1274.336
803.101	23.086	1345.603	1272.093
804.115	23.204	1344.190	1271.457
805.130	23.351	1343.557	1271.772
806.145	23.101	1342.254	1268.579
807.159	23.219	1340.582	1267.698
808.174	23.411	1339.534	1267.940
809.188	23.383	1338.739	1266.830
810.203	23.523	1337.245	1266.270
811.218	23.575	1335.595	1264.934
812.232	23.581	1334.784	1264.054
813.247	23.388	1333.778	1261.566
814.261	23.562	1332.966	1261.895
815.276	23.622	1331.913	1261.176
816.291	23.202	1330.563	1256.749
817.305	23.153	1329.726	1255.458
818.320	23.068	1328.368	1253.418
819.334	23.259	1327.156	1253.489
820.349	23.376	1325.606	1252.706
821.364	23.018	1324.784	1249.232
822.378	23.036	1323.078	1247.606
823.393	23.180	1320.621	1246.155
824.407	23.141	1319.203	1244.391
825.422	23.057	1319.555	1243.981
826.437	23.135	1319.046	1243.909
827.451	23.092	1317.067	1241.589
828.466	23.615	1317.037	1245.099
829.480	23.903	1315.588	1245.607
830.495	23.639	1313.188	1241.334
831.509	23.044	1312.751	1236.589
832.524	23.140	1311.077	1235.537
833.539	23.114	1309.737	1233.946
834.553	23.017	1308.643	1232.089
835.568	23.120	1307.584	1231.663
836.582	23.014	1306.527	1229.779
837.597	23.198	1304.523	1229.028
838.612	23.134	1303.330	1227.310
839.626	23.048	1302.846	1226.112
840.641	23.232	1302.172	1226.611
841.655	23.479	1301.338	1227.397
842.670	23.632	1300.742	1227.750
843.685	23.561	1300.079	1226.483
844.699	23.379	1298.400	1223.491
845.714	23.305	1296.790	1221.317
846.728	23.327	1295.092	1219.719
847.743	23.228	1293.714	1217.591
848.758	22.979	1293.376	1215.411
849.772	22.943	1291.993	1213.717
850.787	22.920	1290.373	1211.889
851.801	22.922	1289.261	1210.711
852.816	22.935	1287.964	1209.442
853.831	23.234	1285.987	1209.490
854.845	23.095	1284.641	1207.127
855.860	23.058	1282.817	1205.016
856.874	22.981	1282.259	1203.819
857.889	23.357	1281.871	1205.888
858.904	23.692	1281.466	1207.650
859.918	24.008	1279.645	1207.943
860.933	24.113	1278.556	1207.491
861.947	23.733	1277.843	1204.086
862.962	23.402	1275.613	1199.589
863.977	23.262	1274.195	1197.158
864.991	23.132	1273.204	1195.198
866.006	23.028	1273.230	1194.375
867.020	22.974	1271.297	1192.055
868.035	23.091	1269.749	1191.254
869.049	22.868	1269.622	1189.481
870.064	22.979	1268.467	1189.005
871.079	23.032	1267.272	1188.100
872.093	22.983	1266.659	1187.057
873.108	23.126	1265.981	1187.243
874.122	23.269	1265.057	1187.195
875.137	23.143	1265.091	1186.240
876.152	23.432	1263.610	1186.649
877.166	23.334	1261.736	1184.091
878.181	23.184	1260.089	1181.397
879.195	23.033	1258.989	1179.212
880.210	23.046	1258.379	1178.586
881.225	23.069	1257.183	1177.478
882.239	23.055	1256.730	1176.822
883.254	23.111	1255.248	1175.664
884.268	22.874	1254.779	1173.504
885.283	22.856	1254.186	1172.688
886.298	22.985	1251.582	1170.973
887.312	23.092	1250.791	1170.806
888.327	23.016	1250.616	1169.994
889.341	23.081	1248.186	1168.015
890.356	23.069	1247.593	1167.238
891.371	22.910	1247.835	1166.270
892.385	22.938	1247.456	1165.963
893.400	22.945	1246.539	1165.009
894.414	23.042	1245.404	1164.454
895.429	23.292	1243.945	1164.603
896.444	23.979	1242.747	1167.876
897.458	24.252	1242.798	1169.585
898.473	23.853	1241.458	1165.555
899.487	23.482	1239.506	1161.144
900.502	23.130	1237.801	1157.093
901.517	23.149	1236.262	1155.639
902.531	23.042	1235.454	1154.046
903.546	23.128	1234.295	1153.386
904.560	22.996	1233.760	1151.886
905.575	22.927	1233.550	1151.100
906.589	23.207	1232.183	1151.514
907.604	22.941	1231.920	1149.394
