DTS Sentinel unit serial number:	SN409020Multiplexer serial number:	ORYXHardware model number:	OX4-SRSoftware version number:	ORYX F/W v3.00 Oryx Data Collector v3.7.2.0data status	okinstallation	HaddamTimeLapsedifferential loss correction	single-endedforward channel	channel 3reverse channel	N/Adate	2011/06/21time	21:46:16forward acquisition time	30.00reverse acquisition time	0.00gamma	498.7831k internal	0.1761k external	0.1761temperature offset calibration	1.0074default loss term (dB/km)	0.3790temperature slope calibration	1.3530multiplexer offset coefficient	1.0000multiplexer slope coefficient	1.0000fibre end	0.00T internal ref (°C)	25.59T ext. ref 1 (°C)	19.32T ext. ref 2 (°C)	0.04length (m)	temperature (°C)	Stokes	anti-Stokes-747.200	-200.000	-0.028	0.233
-746.185	-29.243	-0.394	0.298
-745.171	26.402	-0.210	-0.231
-744.156	316.201	-0.227	0.567
-743.142	56.903	-0.046	-0.059
-742.127	-16.247	0.267	-0.223
-741.112	-200.000	0.044	-0.364
-740.098	45.925	-0.228	-0.278
-739.083	-0.362	-0.130	-0.122
-738.069	-22.950	0.357	0.283
-737.054	800.000	-0.118	-0.480
-736.039	800.000	-0.012	-0.054
-735.025	302.753	0.120	-0.295
-734.010	-90.727	0.149	-0.056
-732.996	-144.590	0.567	0.068
-731.981	-117.886	0.339	-0.080
-730.966	-159.506	0.109	-0.008
-729.952	124.470	0.137	0.227
-728.937	31.707	-0.152	-0.173
-727.923	49.032	-0.458	-0.568
-726.908	-200.000	-0.037	0.219
-725.894	65.730	0.432	-0.579
-724.879	800.000	0.015	-0.068
-723.864	-120.399	0.166	-0.037
-722.850	72.643	0.186	-0.256
-721.835	-109.658	-0.133	0.037
-720.821	-6.749	-0.238	-0.214
-719.806	-90.546	-0.269	0.102
-718.791	800.000	-0.081	0.405
-717.777	-178.200	0.621	0.019
-716.762	12.190	-0.231	0.234
-715.748	381.370	0.061	-0.167
-714.733	-78.311	0.232	-0.104
-713.718	106.732	0.307	0.481
-712.704	263.530	-0.183	-0.421
-711.689	165.082	-0.295	0.551
-710.675	56.027	0.061	-0.078
-709.660	-80.757	-0.153	0.067
-708.645	290.522	-0.129	0.310
-707.631	-200.000	-0.043	-0.475
-706.616	-200.000	-0.358	-0.001
-705.602	-24.376	-0.244	0.192
-704.587	624.800	-0.086	0.288
-703.572	-143.764	-0.231	-0.028
-702.558	-5.765	0.148	0.134
-701.543	413.281	0.223	-0.629
-700.529	-79.473	0.339	0.151
-699.514	-106.919	0.049	0.014
-698.499	111.237	-0.031	-0.049
-697.485	-200.000	-0.048	-0.626
-696.470	-86.315	0.133	0.054
-695.456	800.000	-0.025	0.125
-694.441	-13.299	-0.158	0.135
-693.426	96.771	0.100	0.151
-692.412	-104.184	-0.302	0.092
-691.397	-30.749	0.458	-0.341
-690.383	-42.833	0.160	0.107
-689.368	56.805	-0.203	-0.261
-688.354	-58.376	0.144	-0.082
-687.339	31.565	0.103	0.116
-686.324	-31.684	-0.113	-0.083
-685.310	-75.553	-0.559	-0.261
-684.295	-67.624	0.327	0.168
-683.281	327.698	0.283	0.719
-682.266	800.000	-0.129	-0.502
-681.251	-135.209	0.377	-0.059
-680.237	800.000	0.048	0.263
-679.222	-34.325	-0.189	0.136
-678.208	-101.888	0.216	-0.068
-677.193	-62.065	-0.348	-0.191
-676.178	204.885	0.257	-0.528
-675.164	51.803	0.316	-0.396
-674.149	502.005	0.097	-0.297
-673.135	-200.000	0.117	-0.729
-672.120	284.379	0.024	-0.058
-671.105	-9.845	-0.224	-0.196
-670.091	-62.204	-0.252	0.138
-669.076	-19.153	-0.214	0.175
-668.062	212.109	0.137	0.285
-667.047	-132.519	-0.597	0.100
-666.032	-117.958	-0.387	0.091
-665.018	290.250	0.123	0.294
-664.003	100.322	-0.236	0.361
-662.989	-98.019	0.139	-0.047
-661.974	-141.949	0.454	-0.059
-660.959	-64.247	0.512	0.274
-659.945	-200.000	-0.131	-0.784
-658.930	-81.335	0.348	0.151
-657.916	-150.780	-0.583	0.058
-656.901	308.106	0.220	-0.544
-655.886	-113.116	-0.357	0.092
-654.872	-33.716	-0.347	-0.251
-653.857	-180.795	-0.346	-0.009
-652.843	-94.755	-0.492	-0.175
-651.828	-5.651	-0.325	0.293
-650.814	-93.105	0.236	0.086
-649.799	32.775	0.221	0.252
-648.784	-200.000	0.016	0.338
-647.770	72.813	0.211	-0.290
-646.755	800.000	0.035	-0.199
-645.741	-140.683	0.469	-0.063
-644.726	382.834	-0.177	0.481
-643.711	-140.241	-0.346	-0.047
-642.697	-141.831	-0.423	-0.055
-641.682	157.502	0.243	-0.443
-640.668	-37.110	0.258	-0.181
-639.653	114.849	-0.088	-0.142
-638.638	-200.000	-0.006	0.125
-637.624	380.812	0.211	0.573
-636.609	-200.000	-0.026	-0.177
-635.595	79.228	0.151	-0.213
-634.580	321.453	-0.147	0.370
-633.565	800.000	0.122	0.656
-632.551	-200.000	-0.010	-0.108
-631.536	-70.615	-0.086	-0.043
-630.522	-43.058	-0.196	-0.131
-629.507	-155.003	-0.137	-0.012
-628.492	800.000	0.076	0.392
-627.478	-200.000	0.011	0.097
-626.463	-47.718	0.293	0.186
-625.449	116.532	-0.130	0.210
-624.434	42.185	-0.194	0.231
-623.419	-121.266	-0.359	-0.078
-622.405	-49.480	0.134	0.084
-621.390	49.395	0.260	0.322
-620.376	24.825	0.356	-0.388
-619.361	-88.832	-0.510	-0.198
-618.346	98.787	-0.188	0.285
-617.332	-77.036	0.434	-0.198
-616.317	739.214	0.058	0.205
-615.303	-158.457	-0.220	-0.016
-614.288	-88.576	0.265	-0.103
-613.273	-43.755	0.180	0.119
-612.259	-114.970	-0.224	-0.055
-611.244	-85.160	0.373	0.152
-610.230	58.684	-0.150	0.194
-609.215	-90.765	0.138	-0.052
-608.201	-129.705	-0.479	-0.086
-607.186	-105.753	0.175	-0.052
-606.171	-103.600	0.211	0.065
-605.157	-29.362	-0.466	0.349
-604.142	-120.988	0.299	0.065
-603.128	-200.000	0.031	-0.385
-602.113	571.759	-0.015	-0.047
-601.098	-82.607	-0.308	-0.131
-600.084	1.694	0.211	0.199
-599.069	179.463	0.130	0.251
-598.055	58.703	-0.408	0.527
-597.040	640.399	-0.070	0.234
-596.025	63.031	-0.081	-0.107
-595.011	-108.961	-0.247	-0.069
-593.996	-35.743	-0.085	-0.061
-592.982	-113.909	0.103	-0.026
-591.967	-83.986	-0.230	0.096
-590.952	800.000	0.021	-0.110
-589.938	292.270	0.294	-0.707
-588.923	545.674	-0.070	-0.222
-587.909	-147.906	-0.294	0.032
-586.894	69.199	0.161	-0.217
-585.879	800.000	-0.042	0.188
-584.865	-166.947	0.405	-0.021
-583.850	-112.162	-0.169	-0.044
-582.836	300.661	-0.249	0.605
-581.821	-133.905	-0.299	-0.048
-580.806	-149.644	-0.194	-0.020
-579.792	-200.000	-0.002	0.067
-578.777	5.100	-0.141	-0.136
-577.763	122.945	-0.146	0.240
-576.748	-80.305	-0.064	0.028
-575.733	-77.210	0.649	-0.295
-574.719	-111.297	0.276	-0.073
-573.704	800.000	0.043	-0.184
-572.690	-46.053	0.060	0.039
-571.675	718.110	-0.081	0.284
-570.661	96.959	-0.280	0.422
-569.646	-118.881	-0.324	0.074
-568.631	377.404	0.040	-0.109
-567.617	-88.146	0.295	-0.115
-566.602	-200.000	-0.013	-0.761
-565.588	800.000	-0.065	-0.353
-564.573	800.000	0.024	0.112
-563.558	456.273	-0.107	0.314
-562.544	-79.856	-0.205	0.090
-561.529	-200.000	-0.024	-0.258
-560.515	-63.697	-0.244	-0.131
-559.500	20.404	0.161	0.170
-558.485	-142.044	0.280	-0.036
-557.471	-36.015	-0.251	0.178
-556.456	90.478	0.294	0.432
-555.442	77.554	-0.383	-0.535
-554.427	62.274	0.078	-0.103
-553.412	-20.989	-0.240	-0.193
-552.398	-66.957	-0.774	-0.399
-551.383	-97.107	0.184	-0.063
-550.369	366.803	0.116	-0.309
-549.354	-200.000	0.030	0.404
-548.339	-115.804	0.256	0.062
-547.325	144.756	0.236	0.415
-546.310	-200.000	-0.034	0.228
-545.296	-200.000	0.009	0.411
-544.281	-200.000	0.039	-0.262
-543.266	177.945	-0.082	0.157
-542.252	-39.419	-0.299	0.205
-541.237	-200.000	0.018	-0.187
-540.223	47.323	-0.199	-0.242
-539.208	-14.809	0.183	-0.154
-538.193	-200.000	-0.026	0.466
-537.179	-71.846	-0.165	0.080
-536.164	-45.214	0.057	-0.037
-535.150	-22.346	-0.209	0.166
-534.135	-23.735	0.157	-0.123
-533.121	185.267	-0.054	0.106
-532.106	35.189	-0.225	0.258
-531.091	-130.950	0.115	0.020
-530.077	131.309	0.112	-0.188
-529.062	88.981	0.293	0.428
-528.048	-120.060	0.295	-0.066
-527.033	-44.849	-0.364	0.237
-526.018	-75.038	0.162	-0.076
-525.004	267.993	-0.239	0.550
-523.989	-175.706	0.205	-0.007
-522.975	649.294	-0.233	-0.784
-521.960	-143.871	0.332	0.040
-520.945	67.013	-0.100	-0.133
-519.931	33.671	-0.262	0.298
-518.916	-22.017	-0.090	-0.071
-517.902	-71.721	-0.230	-0.112
-516.887	-108.790	-0.224	-0.062
-515.872	-1.435	0.204	-0.188
-514.858	29.959	0.217	0.243
-513.843	-109.514	0.146	-0.040
-512.829	135.512	0.185	0.315
-511.814	-200.000	0.026	-0.248
-510.799	-141.700	-0.382	-0.050
-509.785	-52.189	-0.508	-0.307
-508.770	-174.305	-0.464	-0.017
-507.756	31.856	0.381	0.429
-506.741	283.470	-0.115	-0.271
-505.726	-89.057	-0.156	-0.060
-504.712	218.887	-0.140	0.293
-503.697	-59.267	0.226	0.127
-502.683	105.125	-0.246	0.380
-501.668	-152.611	-0.144	0.013
-500.653	-169.083	0.371	-0.018
-499.639	800.000	-0.072	0.265
-498.624	-120.839	0.052	0.011
-497.610	94.811	-0.198	-0.296
-496.595	800.000	-0.114	-0.601
-495.581	-200.000	-0.051	-0.407
-494.566	-84.005	0.380	-0.157
-493.551	279.854	-0.196	0.461
-492.537	-28.653	-0.269	0.202
-491.522	231.236	0.158	0.340
-490.508	-28.209	0.102	0.077
-489.493	-168.812	0.197	-0.010
-488.478	-39.476	-0.234	0.160
-487.464	-200.000	-0.024	-0.285
-486.449	10.663	-0.375	0.374
-485.435	-47.344	0.235	-0.149
-484.420	152.322	0.093	-0.166
-483.405	84.389	-0.162	-0.232
-482.391	-200.000	-0.035	0.244
-481.376	-29.193	0.154	0.115
-480.362	697.769	-0.167	-0.576
-479.347	-125.971	0.173	0.034
-478.332	-105.985	0.131	0.038
-477.318	232.912	-0.046	0.098
-476.303	-79.830	0.342	-0.150
-475.289	-75.150	0.436	0.203
-474.274	-200.000	-0.002	-0.128
-473.259	-200.000	-0.048	0.426
-472.245	-125.735	-0.367	0.072
-471.230	-166.286	-0.427	0.023
-470.216	-11.302	0.366	-0.315
-469.201	-200.000	0.016	0.152
-468.186	800.000	-0.114	-0.585
-467.172	-46.267	0.377	-0.242
-466.157	-24.106	-0.243	-0.189
-465.143	-123.531	-0.317	0.065
-464.128	157.609	0.185	-0.335
-463.113	353.540	0.082	0.214
-462.099	-94.627	0.347	-0.123
-461.084	-82.770	-0.361	-0.152
-460.070	-174.537	0.202	-0.007
-459.055	-3.712	-0.400	0.362
-458.040	-80.870	-0.475	-0.205
-457.026	-86.774	0.216	-0.086
-456.011	-34.960	0.233	0.166
-454.997	396.793	-0.092	0.252
-453.982	-47.214	-0.167	0.106
-452.968	-5.852	-0.458	-0.409
-451.953	-96.295	-0.226	-0.078
-450.938	-107.212	-0.293	0.084
-449.924	-72.451	0.325	-0.156
-448.909	-200.000	0.092	-0.549
-447.895	-20.261	-0.216	-0.173
-446.880	-124.507	0.708	0.142
-445.865	250.297	0.133	0.295
-444.851	800.000	-0.081	-0.347
-443.836	-200.000	-0.039	-0.420
-442.822	-194.979	-0.385	0.004
-441.807	-92.502	-0.459	-0.167
-440.792	-126.010	-0.509	0.099
-439.778	-166.951	0.529	-0.028
-438.763	-142.093	0.509	-0.065
-437.749	527.469	0.084	0.259
-436.734	10.795	-0.210	0.209
-435.719	-51.541	-0.216	-0.131
-434.705	-85.691	-0.117	-0.047
-433.690	-200.000	-0.013	-0.117
-432.676	800.000	0.054	0.266
-431.661	53.148	-0.111	0.139
-430.646	-55.945	-0.135	-0.079
-429.632	-197.546	0.567	0.004
-428.617	800.000	0.035	-0.183
-427.603	-129.337	0.466	0.084
-426.588	-200.000	0.003	-0.168
-425.573	87.834	-0.128	-0.185
-424.559	-125.715	-0.704	0.138
-423.544	-15.812	-0.254	-0.211
-422.530	80.797	-0.206	-0.290
-421.515	21.443	0.257	0.273
-420.500	80.573	-0.161	0.226
-419.486	-50.229	-0.377	-0.232
-418.471	-26.162	-0.139	-0.106
-417.457	119.107	0.135	0.217
-416.442	-26.069	-0.089	0.068
-415.428	67.512	0.263	0.351
-414.413	800.000	-0.085	-0.352
-413.398	179.915	-0.163	-0.312
-412.384	450.140	-0.099	0.285
-411.369	-153.998	-0.355	-0.031
-410.355	39.743	-0.154	0.181
-409.340	19.081	-0.332	-0.347
-408.325	-35.273	-0.191	0.135
-407.311	-117.462	-0.195	0.046
-406.296	-61.023	-0.142	-0.078
-405.282	162.279	0.159	-0.291
-404.267	-105.957	-0.184	-0.054
-403.252	-200.000	-0.002	0.044
-402.238	227.990	0.104	-0.222
-401.223	-200.000	0.001	-0.097
-400.209	162.469	-0.286	0.524
-399.194	-15.081	0.099	0.082
-398.179	-74.963	-0.215	0.100
-397.165	25.371	0.071	-0.077
-396.150	-87.313	0.246	0.097
-395.136	800.000	-0.043	-0.198
-394.121	345.778	-0.053	0.136
-393.106	-21.107	-0.235	0.187
-392.092	-75.396	0.277	0.128
-391.077	-110.912	-0.157	-0.042
-390.063	-147.871	0.115	0.012
-389.048	28.587	0.225	-0.249
-388.033	-130.615	0.350	-0.061
-387.019	-94.182	-0.470	-0.167
-386.004	-200.000	0.033	0.224
-384.990	-85.495	-0.363	-0.146
-383.975	-73.917	-0.160	0.075
-382.960	-200.000	-0.039	-0.280
-381.946	749.485	0.115	0.406
-380.931	-169.961	-0.352	-0.016
-379.917	800.000	-0.061	0.259
-378.902	-15.282	-0.080	0.067
-377.888	209.664	-0.180	-0.368
-376.873	-139.958	-0.137	0.019
-375.858	800.000	0.078	0.354
-374.844	6.530	-0.282	-0.272
-373.829	8.871	-0.128	0.126
-372.815	-19.748	-0.193	-0.155
-371.800	-130.122	0.127	-0.022
-370.785	-121.629	0.425	-0.091
-369.771	-200.000	0.053	-0.623
-368.756	-184.605	0.113	0.002
-367.742	-145.983	-0.386	0.044
-366.727	-200.000	-0.074	-0.437
-365.712	-200.000	-0.017	-0.552
-364.698	-76.918	0.366	0.166
-363.683	-163.773	-0.038	0.002
-362.669	-80.771	-0.608	-0.262
-361.654	-13.580	0.079	0.067
-360.639	-200.000	0.007	-0.068
-359.625	-200.000	0.008	-0.110
-358.610	-154.314	-0.267	-0.023
-357.596	-92.165	-0.096	-0.035
-356.581	-6.302	-0.341	0.303
-355.566	-13.972	0.255	0.214
-354.552	800.000	0.076	0.346
-353.537	104.663	0.205	0.315
-352.523	383.689	-0.070	-0.188
-351.508	-200.000	-0.008	-0.621
-350.493	44.130	-0.578	-0.690
-349.479	-200.000	0.005	-0.341
-348.464	338.225	-0.142	-0.361
-347.450	-200.000	0.034	-0.337
-346.435	-200.000	0.017	0.222
-345.420	-40.600	-0.574	-0.386
-344.406	124.369	-0.125	-0.204
-343.391	-163.648	-0.883	0.053
-342.377	255.981	-0.255	0.572
-341.362	55.798	0.353	0.445
-340.348	256.791	0.272	-0.609
-339.333	-12.928	-0.090	0.076
-338.318	366.415	-0.063	0.167
-337.304	-66.643	0.517	-0.265
-336.289	-79.327	0.336	0.147
-335.275	-200.000	0.385	-0.000
-334.260	-200.000	0.011	-0.261
-333.245	53.630	0.116	0.145
-332.231	-1.428	0.255	0.234
-331.216	-1.312	0.303	-0.278
-330.202	-128.850	0.738	-0.134
-329.187	-100.052	0.503	-0.162
-328.172	-162.110	0.164	-0.011
-327.158	-92.699	-0.396	-0.143
-326.143	-127.446	-0.191	0.036
-325.129	-166.415	-0.168	0.009
-324.114	-156.769	-0.436	0.034
-323.099	800.000	0.123	-0.678
-322.085	-46.207	-0.261	0.167
-321.070	137.124	-0.156	-0.266
-320.056	-8.858	-0.199	-0.173
-319.041	-93.760	0.244	0.087
-318.026	-32.848	0.052	0.037
-317.012	299.899	-0.144	0.347
-315.997	-69.285	0.337	-0.168
-314.983	-27.215	0.185	0.140
-313.968	94.015	0.080	-0.118
-312.953	-30.776	0.048	-0.035
-311.939	-39.497	-0.389	0.264
-310.924	-200.000	0.038	-0.454
-309.910	-113.328	0.300	0.076
-308.895	-160.019	-0.602	-0.042
-307.880	178.367	0.181	0.345
-306.866	-39.714	-0.173	-0.117
-305.851	743.049	-0.107	-0.375
-304.837	800.000	0.047	-0.187
-303.822	-200.000	-0.002	-0.114
-302.807	591.141	0.067	-0.217
-301.793	-89.506	0.441	-0.167
-300.778	-15.122	-0.263	-0.218
-299.764	-180.428	0.187	0.005
-298.749	800.000	-0.052	-0.209
-297.735	800.000	0.121	-0.510
-296.720	-18.601	0.369	-0.298
-295.705	-200.000	0.027	0.207
-294.691	-25.364	0.283	0.217
-293.676	-97.533	0.284	-0.095
-292.662	-200.000	0.500	-0.001
-291.647	-200.000	-0.013	0.420
-290.632	800.000	0.063	0.269
-289.618	-24.046	-0.084	0.065
-288.603	-56.836	0.713	0.407
-287.589	-105.339	0.337	-0.099
-286.574	800.000	0.038	-0.140
-285.559	645.533	0.174	0.580
-284.545	388.151	-0.084	-0.225
-283.530	-39.038	-0.273	-0.186
-282.516	136.575	-0.135	-0.229
-281.501	-174.567	0.208	0.008
-280.486	-200.000	0.055	0.422
-279.472	-109.096	-0.237	0.065
-278.457	-99.107	0.563	-0.184
-277.443	387.662	-0.140	0.377
-276.428	404.260	0.185	0.508
-275.413	183.984	0.344	0.662
-274.399	69.200	0.436	0.583
-273.384	783.732	-0.080	0.285
-272.370	-90.978	-0.236	0.088
-271.355	-5.379	-0.257	-0.229
-270.340	-200.000	0.007	0.153
-269.326	-18.684	0.214	0.173
-268.311	-125.539	0.678	-0.132
-267.297	-67.065	0.319	0.162
-266.282	-200.000	-0.026	0.378
-265.267	800.000	-0.117	0.442
-264.253	107.551	0.089	0.138
-263.238	800.000	-0.049	-0.227
-262.224	725.943	0.096	0.334
-261.209	-155.049	0.304	0.026
-260.195	33.899	0.248	-0.280
-259.180	-185.459	0.094	0.002
-258.165	464.934	0.083	0.242
-257.151	-22.082	0.089	0.070
-256.136	174.489	-0.154	-0.289
-255.122	800.000	-0.087	-0.319
-254.107	-65.980	-0.197	0.102
-253.092	-62.581	-0.230	-0.123
-252.078	-200.000	-0.008	0.161
-251.063	-65.002	-0.746	0.389
-250.049	-94.280	0.148	0.052
-249.034	101.903	0.270	0.409
-248.019	800.000	-0.085	0.416
-247.005	231.269	-0.022	0.048
-245.990	161.169	0.150	-0.271
-244.976	239.565	0.132	0.285
-243.961	90.819	0.189	0.275
-242.946	-122.608	0.384	0.080
-241.932	-93.045	-0.762	-0.274
-240.917	-96.939	0.082	0.028
-239.903	62.647	-0.095	0.123
-238.888	-6.754	0.202	0.177
-237.873	-200.000	-0.003	0.165
-236.859	115.151	-0.120	-0.190
-235.844	222.216	0.105	-0.219
-234.830	-138.813	-0.271	-0.038
-233.815	-88.208	0.195	0.075
-232.800	-47.753	0.304	0.190
-231.786	-135.553	0.069	0.011
-230.771	-68.379	0.205	-0.103
-229.757	117.977	0.052	0.084
-228.742	-7.921	0.392	0.342
-227.727	-83.941	0.422	-0.173
-226.713	151.849	0.249	-0.440
-225.698	-116.095	-0.400	0.096
-224.684	55.247	-0.203	-0.254
-223.669	257.861	-0.141	-0.316
-222.655	-110.317	0.348	0.093
-221.640	312.897	-0.110	0.270
-220.625	218.505	0.090	-0.186
-219.611	265.134	0.112	0.255
-218.596	-59.386	-0.411	-0.228
-217.582	-161.442	0.338	0.022
-216.567	13.044	-0.489	-0.489
-215.552	-131.622	0.211	0.036
-214.538	-99.202	0.408	0.133
-213.523	70.353	-0.300	0.402
-212.509	-11.624	0.292	-0.248
-211.494	786.767	0.038	-0.137
-210.479	90.276	0.046	0.067
-209.465	800.000	-0.059	0.313
-208.450	800.000	0.083	0.470
-207.436	-200.000	0.048	-0.406
-206.421	-18.186	0.221	0.179
-205.406	-130.717	-0.413	-0.071
-204.392	473.065	0.153	-0.449
-203.377	-200.000	-0.022	-0.131
-202.363	-200.000	0.002	0.047
-201.348	800.000	-0.061	-0.331
-200.333	-33.390	0.499	0.356
-199.319	-56.048	-0.535	-0.307
-198.304	-7.667	-0.135	0.118
-197.290	-95.937	-0.248	-0.085
-196.275	57.148	0.251	0.317
-195.260	-181.300	-0.348	0.009
-194.246	-159.198	0.521	-0.037
-193.231	-130.765	0.624	0.107
-192.217	-103.980	0.356	0.107
-191.202	-142.040	-0.178	0.023
-190.187	655.595	0.157	0.525
-189.173	197.974	-0.085	-0.168
-188.158	201.880	-0.047	0.095
-187.144	310.497	-0.145	0.352
-186.129	-27.812	-0.318	0.238
-185.114	108.248	0.214	0.330
-184.100	-45.867	0.496	0.316
-183.085	10.989	0.266	0.263
-182.071	-34.372	0.160	-0.113
-181.056	-59.483	0.312	-0.173
-180.042	-200.000	0.063	-0.499
-179.027	32.872	0.111	0.124
-178.012	-114.088	0.390	-0.097
-176.998	-62.365	-0.255	0.136
-175.983	655.893	0.109	-0.365
-174.969	-199.085	-0.246	-0.002
-173.954	298.830	-0.007	-0.016
-172.939	-200.000	0.021	0.279
-171.925	-118.127	-0.353	0.081
-170.910	382.086	0.070	-0.187
-169.896	-99.628	-0.123	0.040
-168.881	-128.153	-0.392	0.072
-167.866	-63.402	-0.092	-0.049
-166.852	-51.367	0.167	0.100
-165.837	46.193	0.147	-0.176
-164.823	66.071	-0.098	-0.129
-163.808	-9.956	-0.209	0.179
-162.793	-155.177	-0.473	0.039
-161.779	-18.416	0.191	0.154
-160.764	-26.261	-0.261	-0.197
-159.750	94.061	0.306	-0.449
-158.735	-107.555	0.193	-0.054
-157.720	205.206	-0.054	0.109
-156.706	-151.293	0.292	0.028
-155.691	28.315	0.115	-0.125
-154.677	-79.979	0.191	0.082
-153.662	-110.004	-0.181	0.049
-152.647	143.760	0.484	-0.835
-151.633	-9.153	0.286	-0.246
-150.618	-200.000	0.037	0.414
-149.604	2.636	0.338	0.316
-148.589	-128.319	-0.207	0.038
-147.574	215.363	0.032	0.065
-146.560	800.000	0.073	0.311
-145.545	800.000	0.077	0.366
-144.531	-115.150	0.098	0.024
-143.516	-118.411	0.276	0.063
-142.502	-117.895	0.113	-0.026
-141.487	-200.000	0.000	-0.263
-140.472	599.680	-0.025	0.080
-139.458	-47.613	0.383	0.239
-138.443	-0.245	-0.224	0.206
-137.429	95.832	0.139	-0.205
-136.414	375.343	0.186	-0.492
-135.399	8.637	0.168	0.164
-134.385	-119.416	-0.077	0.017
-133.370	112.880	-0.048	0.076
-132.356	38.269	-0.143	0.165
-131.341	-200.000	0.006	0.139
-130.326	-123.660	0.748	0.152
-129.312	-200.000	0.045	0.299
-128.297	-200.000	-0.016	0.261
-127.283	800.000	0.080	0.435
-126.268	-200.000	-0.042	0.255
-125.253	-200.000	0.010	0.109
-124.239	-200.000	-0.061	-0.591
-123.224	-62.143	0.420	0.225
-122.210	800.000	0.085	0.324
-121.195	-200.000	-0.033	0.399
-120.180	91.458	0.363	-0.527
-119.166	-200.000	-0.057	0.357
-118.151	53.615	0.103	0.128
-117.137	28.325	0.172	-0.187
-116.122	-200.000	0.099	0.577
-115.107	800.000	-0.164	0.592
-114.093	-176.330	-0.319	0.011
-113.078	800.000	-0.035	-0.129
-112.064	31.739	0.134	0.149
-111.049	290.302	-0.139	0.326
-110.034	-26.691	-0.263	0.198
-109.020	800.000	-0.101	-0.397
-108.005	70.932	-0.177	0.236
-106.991	-41.663	-0.276	-0.182
-105.976	636.037	-0.097	0.320
-104.962	-200.000	-0.053	-0.485
-103.947	464.913	0.084	-0.245
-102.932	53.738	0.220	-0.272
-101.918	-4.035	-0.401	0.357
-100.903	-143.328	0.352	-0.043
-99.889	790.022	0.092	-0.328
-98.874	-200.000	-0.017	-0.321
-97.859	-82.728	-0.408	0.169
-96.845	-102.223	-0.190	0.058
-95.830	1.607	-0.259	0.240
-94.816	181.296	-0.104	-0.197
-93.801	19.706	-0.260	0.270
-92.786	-110.326	0.361	-0.096
-91.772	-200.000	0.007	0.103
-90.757	-200.000	0.023	-0.142
-89.743	507.233	-0.180	-0.540
-88.728	-6.888	-0.486	-0.425
-87.713	-200.000	-0.023	0.147
-86.699	-37.358	0.322	-0.221
-85.684	-121.745	-0.293	0.062
-84.670	-133.462	0.259	-0.041
-83.655	-82.024	0.307	-0.129
-82.640	184.376	-0.166	0.317
-81.626	-48.995	0.338	0.208
-80.611	-117.243	0.263	0.061
-79.597	56.423	0.163	-0.204
-78.582	307.690	-0.236	-0.569
-77.567	364.863	-0.164	-0.428
-76.553	-48.102	0.236	-0.146
-75.538	-103.012	-0.397	-0.120
-74.524	-200.000	-0.010	-0.446
-73.509	800.000	0.022	0.112
-72.494	800.000	-0.016	-0.065
-71.480	-200.000	0.014	-0.097
-70.465	-107.595	0.216	-0.060
-69.451	-200.000	-0.081	-0.587
-68.436	-200.000	0.111	-0.718
-67.422	-87.906	0.601	-0.231
-66.407	-22.059	0.430	-0.335
-65.392	-23.500	-0.322	-0.248
-64.378	-84.975	-0.317	-0.127
-63.363	295.692	-0.309	0.730
-62.349	-106.614	-0.412	0.117
-61.334	-21.533	-2.178	-1.706
-60.319	78.794	1.281	1.765
-59.305	226.914	-3.396	-7.120
-58.290	67.797	3.557	4.681
-57.276	433.080	3.728	10.457
-56.261	-200.000	20.513	296.867
-55.246	361.926	1293.545	3351.542
-54.232	52.614	2866.460	3523.108
-53.217	53.627	2677.109	3305.909
-52.203	35.553	2407.267	2718.446
-51.188	30.965	2074.711	2286.386
-50.173	27.428	1961.541	2120.267
-49.159	26.434	1949.754	2095.877
-48.144	25.925	1945.920	2085.750
-47.130	25.956	1943.706	2083.656
-46.115	25.751	1943.100	2080.540
-45.100	25.893	1941.413	2080.306
-44.086	25.836	1939.792	2077.825
-43.071	25.913	1936.849	2075.483
-42.057	25.792	1936.006	2073.090
-41.042	25.774	1934.653	2071.358
-40.027	25.725	1933.821	2069.815
-39.013	25.710	1932.437	2068.080
-37.998	25.868	1930.653	2067.908
-36.984	25.723	1929.142	2064.534
-35.969	25.702	1928.622	2063.657
-34.954	25.799	1926.686	2062.618
-33.940	25.694	1925.892	2060.479
-32.925	25.681	1924.282	2058.529
-31.911	25.687	1922.976	2057.114
-30.896	25.729	1921.386	2055.813
-29.881	25.650	1920.190	2053.547
-28.867	25.553	1919.130	2051.225
-27.852	25.638	1916.989	2049.827
-26.838	25.654	1915.647	2048.488
-25.823	25.695	1914.121	2047.246
-24.809	25.628	1913.114	2045.321
-23.794	25.572	1912.021	2043.431
-22.779	25.690	1911.475	2044.115
-21.765	25.555	1910.013	2040.929
-20.750	25.667	1908.497	2040.501
-19.736	25.490	1907.989	2037.868
-18.721	25.559	1905.723	2036.155
-17.706	25.496	1904.814	2034.379
-16.692	25.514	1904.702	2034.381
-15.677	25.476	1902.590	2031.615
-14.663	25.567	1900.709	2030.560
-13.648	25.531	1899.732	2029.025
-12.633	25.502	1898.654	2027.466
-11.619	25.599	1896.214	2025.883
-10.604	25.503	1895.533	2023.981
-9.590	25.548	1894.838	2023.669
-8.575	25.456	1893.963	2021.619
-7.560	25.467	1892.208	2019.790
-6.546	25.462	1890.977	2018.341
-5.531	25.339	1890.855	2016.738
-4.517	25.369	1889.268	2015.299
-3.502	25.493	1888.015	2015.286
-2.487	25.443	1886.740	2013.282
-1.473	25.457	1883.101	2009.479
-0.458	25.066	1864.439	1985.134
0.556	20.893	2009.557	2077.233
1.571	19.035	2215.891	2265.670
2.586	19.726	2255.929	2315.646
3.600	19.773	2259.726	2319.892
4.615	19.669	2258.403	2316.866
5.629	19.667	2257.058	2315.170
6.644	19.626	2254.057	2311.265
7.659	19.690	2251.613	2309.340
8.673	19.739	2249.973	2308.042
9.688	19.552	2259.274	2314.791
10.702	18.546	2338.738	2381.877
11.717	16.625	2403.446	2419.901
12.731	7.913	2382.108	2273.529
13.746	1.083	2363.442	2157.925
14.761	0.233	2360.819	2143.124
15.775	0.185	2358.112	2139.720
16.790	0.086	2357.778	2137.757
17.804	0.150	2355.269	2136.130
18.819	0.047	2355.724	2134.826
19.834	0.181	2352.813	2133.839
20.848	0.093	2351.926	2131.517
21.863	0.050	2349.563	2128.510
22.877	0.088	2348.020	2127.400
23.892	0.049	2345.205	2124.046
24.907	0.127	2342.155	2122.131
25.921	0.037	2340.906	2119.474
26.936	0.064	2339.353	2118.189
27.950	0.027	2336.073	2114.451
28.965	0.071	2335.340	2114.152
29.980	0.100	2332.870	2112.069
30.994	0.157	2329.818	2109.864
32.009	4.033	2342.112	2175.556
33.023	13.583	2370.078	2337.237
34.038	17.597	2376.750	2400.497
35.053	17.643	2373.155	2397.232
36.067	17.451	2370.701	2391.756
37.082	17.390	2368.100	2387.975
38.096	17.500	2367.139	2388.276
39.111	17.788	2365.079	2389.969
40.126	18.071	2363.524	2392.095
41.140	18.180	2361.752	2391.541
42.155	18.185	2360.304	2389.859
43.169	18.143	2357.715	2386.373
44.184	17.846	2354.286	2378.452
45.199	17.813	2351.910	2375.303
46.213	17.942	2351.331	2376.241
47.228	18.027	2351.279	2377.092
48.242	18.049	2349.238	2375.047
49.257	18.159	2347.496	2374.535
50.271	18.313	2344.932	2373.812
51.286	17.977	2341.998	2365.875
52.301	17.679	2339.759	2359.188
53.315	18.494	2344.401	2374.941
54.330	21.898	2353.436	2431.315
55.344	24.133	2355.320	2464.085
56.359	24.272	2352.869	2463.160
57.374	24.272	2352.510	2462.476
58.388	24.555	2348.587	2462.000
59.403	24.251	2344.478	2453.199
60.417	23.897	2339.631	2442.939
61.432	23.824	2339.379	2441.380
62.447	24.087	2337.729	2443.000
63.461	24.271	2336.067	2443.499
64.476	24.178	2335.114	2440.933
65.490	24.029	2332.256	2435.608
66.505	23.155	2328.414	2419.286
67.520	20.737	2319.135	2376.228
68.534	18.427	2308.901	2333.862
69.549	17.631	2304.069	2317.812
70.563	17.514	2301.908	2313.769
71.578	17.616	2299.823	2312.783
72.593	17.588	2298.539	2310.836
73.607	17.772	2297.123	2311.639
74.622	17.760	2294.316	2308.380
75.636	17.620	2292.108	2303.974
76.651	17.514	2289.620	2299.758
77.666	17.373	2288.072	2296.022
78.680	17.376	2284.965	2292.669
79.695	17.183	2281.568	2286.380
80.709	17.015	2280.611	2282.868
81.724	16.997	2278.502	2280.244
82.739	17.021	2275.847	2277.635
83.753	16.977	2274.706	2275.622
84.768	16.887	2273.170	2272.613
85.782	16.887	2271.204	2270.375
86.797	16.739	2268.537	2265.437
87.812	16.839	2266.806	2264.785
88.826	17.099	2265.215	2266.413
89.841	17.176	2263.480	2265.434
90.855	17.098	2260.624	2261.272
91.870	17.204	2259.410	2261.192
92.884	17.139	2257.792	2258.436
93.899	17.215	2256.702	2258.093
94.914	18.001	2260.705	2272.338
95.928	20.892	2269.217	2319.369
96.943	21.951	2267.951	2331.943
97.957	19.021	2254.830	2279.210
98.972	17.121	2248.206	2246.997
99.987	16.867	2244.851	2239.999
101.001	16.935	2242.167	2237.957
102.016	16.933	2239.991	2235.491
103.030	16.814	2238.100	2231.766
104.045	16.995	2235.738	2231.529
105.060	17.094	2233.088	2229.927
106.074	16.924	2232.982	2227.306
107.089	17.045	2231.320	2226.976
108.103	17.063	2230.189	2225.820
109.118	17.194	2228.765	2225.858
110.133	17.309	2226.693	2225.032
111.147	17.112	2224.252	2219.744
112.162	17.182	2223.006	2219.157
113.176	17.357	2220.874	2219.057
114.191	17.548	2219.640	2220.063
115.206	17.401	2218.384	2216.613
116.220	17.398	2216.750	2214.670
117.235	17.521	2214.315	2213.589
118.249	17.573	2213.357	2213.042
119.264	17.508	2211.224	2209.799
120.279	17.414	2210.111	2207.195
121.293	17.496	2207.523	2205.415
122.308	17.458	2206.234	2203.367
123.322	17.382	2204.812	2200.697
124.337	17.880	2205.749	2207.837
125.352	20.964	2215.195	2257.227
126.366	21.812	2213.532	2266.286
127.381	18.936	2200.026	2215.007
128.395	17.418	2196.225	2191.277
129.410	17.479	2192.951	2188.537
130.424	17.249	2191.404	2183.761
131.439	17.440	2190.189	2184.747
132.454	17.547	2188.920	2184.608
133.468	17.682	2186.742	2183.909
134.483	17.824	2185.920	2184.651
135.497	17.784	2184.714	2182.666
136.512	17.737	2181.188	2178.283
137.527	17.471	2179.276	2172.696
138.541	17.239	2177.784	2167.978
139.556	17.254	2176.759	2166.891
140.570	17.245	2174.938	2164.706
141.585	17.055	2171.623	2158.719
142.600	17.043	2171.210	2157.899
143.614	16.909	2170.284	2155.010
144.629	17.001	2166.461	2152.120
145.643	16.889	2166.189	2150.165
146.658	16.826	2164.512	2147.441
147.673	16.778	2161.113	2143.205
148.687	16.804	2160.323	2142.500
149.702	16.895	2160.020	2143.091
150.716	16.931	2159.141	2142.421
151.731	17.056	2157.706	2142.328
152.746	17.104	2157.998	2142.974
153.760	18.060	2160.606	2157.445
154.775	21.331	2168.692	2206.846
155.789	22.352	2167.132	2217.934
156.804	19.327	2154.035	2166.121
157.819	17.247	2146.526	2132.108
158.833	16.911	2144.083	2125.187
159.848	16.994	2141.860	2123.776
160.862	17.140	2140.714	2124.220
161.877	17.242	2140.358	2124.891
162.892	17.417	2138.724	2125.214
163.906	17.368	2138.615	2124.245
164.921	17.318	2136.257	2121.017
165.935	17.380	2133.711	2119.008
166.950	17.424	2133.059	2118.656
167.964	17.497	2129.184	2115.475
168.979	17.030	2127.737	2107.947
169.994	17.063	2124.881	2105.281
171.008	17.024	2123.222	2102.895
172.023	16.952	2123.561	2102.089
173.037	17.117	2122.854	2103.194
174.052	17.277	2121.975	2104.052
175.067	17.460	2119.091	2103.221
176.081	17.121	2119.503	2099.168
177.096	17.403	2117.059	2099.993
178.110	17.408	2116.289	2099.033
179.125	17.555	2114.363	2098.702
180.140	17.424	2113.342	2095.816
181.154	17.490	2112.233	2095.281
182.169	17.720	2111.484	2097.131
183.183	18.609	2113.859	2110.233
184.198	21.989	2121.939	2159.920
185.213	22.558	2119.677	2164.389
186.227	19.378	2108.305	2113.413
187.242	17.985	2103.667	2091.376
188.256	17.679	2102.037	2085.737
189.271	17.342	2099.262	2078.602
190.286	17.420	2097.089	2077.152
191.300	17.378	2096.612	2075.916
192.315	17.425	2093.652	2073.312
193.329	17.682	2092.963	2075.528
194.344	17.955	2092.012	2077.677
195.359	17.932	2091.413	2076.553
196.373	17.684	2087.598	2069.484
197.388	17.248	2085.829	2062.171
198.402	17.130	2083.204	2057.897
199.417	17.100	2080.063	2054.184
200.432	17.173	2078.997	2053.767
201.446	17.183	2078.538	2053.187
202.461	17.162	2075.687	2049.877
203.475	17.021	2073.862	2046.114
204.490	17.050	2072.351	2044.728
205.504	17.009	2070.102	2041.768
206.519	17.010	2068.470	2039.924
207.534	16.919	2067.094	2037.234
208.548	17.103	2065.093	2037.236
209.563	17.150	2065.082	2037.550
210.577	17.330	2064.942	2039.332
211.592	17.350	2063.756	2038.153
212.607	18.887	2069.060	2061.699
213.621	22.620	2077.478	2114.944
214.636	22.150	2070.238	2101.675
215.650	18.422	2060.122	2046.473
216.665	17.473	2056.016	2030.768
217.680	17.383	2053.703	2027.174
218.694	17.106	2052.086	2022.015
219.709	17.061	2050.828	2019.992
220.723	17.172	2049.227	2019.499
221.738	17.318	2047.806	2019.609
222.753	17.565	2045.790	2020.324
223.767	17.619	2044.233	2019.181
224.782	17.534	2042.794	2016.504
225.796	17.350	2040.345	2011.667
226.811	17.313	2039.575	2010.218
227.826	17.325	2038.474	2009.036
228.840	17.230	2036.272	2005.497
229.855	17.101	2034.971	2002.453
230.869	17.284	2032.991	2002.426
231.884	17.218	2031.916	2000.353
232.899	17.475	2030.795	2002.043
233.913	17.469	2030.192	2001.136
234.928	17.392	2028.913	1998.732
235.942	17.479	2026.049	1996.692
236.957	17.580	2024.306	1995.931
237.972	17.504	2024.058	1994.552
238.986	17.322	2023.274	1991.395
240.001	17.478	2021.359	1991.103
241.015	17.658	2020.218	1991.854
242.030	18.575	2022.774	2004.918
243.045	21.488	2030.115	2046.260
244.059	22.030	2026.379	2048.603
245.074	18.879	2016.809	2001.852
246.088	17.762	2012.810	1984.581
247.103	17.993	2010.950	1985.212
248.117	18.004	2008.986	1983.168
249.132	17.662	2006.505	1976.494
250.147	17.598	2004.396	1973.431
251.161	17.580	2004.088	1972.681
252.176	17.765	2002.848	1973.376
253.190	18.066	2000.504	1974.331
254.205	18.190	1999.667	1974.708
255.220	18.255	1997.683	1973.264
256.234	17.922	1997.342	1968.824
257.249	17.636	1994.879	1962.852
258.263	17.383	1992.616	1957.469
259.278	17.342	1991.838	1956.000
260.293	17.179	1990.125	1952.196
261.307	17.068	1988.231	1948.827
262.322	17.100	1987.463	1948.211
263.336	17.066	1984.581	1944.757
264.351	16.963	1982.524	1941.325
265.366	16.837	1980.907	1938.063
266.380	16.819	1980.892	1937.608
267.395	16.956	1978.609	1936.710
268.409	17.009	1977.107	1935.616
269.424	17.011	1975.587	1933.923
270.439	17.232	1975.630	1936.260
271.453	18.346	1978.531	1951.647
272.468	21.840	1985.522	1998.400
273.482	22.017	1981.610	1996.249
274.497	18.588	1971.358	1946.629
275.512	17.167	1966.724	1925.636
276.526	17.006	1964.093	1921.006
277.541	16.901	1961.783	1917.323
278.555	16.840	1959.927	1914.587
279.570	16.868	1957.851	1912.646
280.585	17.039	1956.740	1913.273
281.599	17.178	1955.822	1913.715
282.614	17.519	1955.289	1916.824
283.628	17.916	1954.467	1920.277
284.643	17.852	1954.100	1918.968
285.657	18.038	1953.804	1920.549
286.672	18.117	1952.756	1920.181
287.687	18.032	1950.450	1916.726
288.701	17.915	1948.633	1913.394
289.716	17.963	1947.546	1912.631
290.730	18.143	1946.461	1913.368
291.745	18.096	1945.330	1911.495
292.760	18.023	1944.015	1909.153
293.774	17.956	1942.427	1906.608
294.789	17.804	1941.921	1904.182
295.803	17.768	1938.286	1899.992
296.818	17.746	1936.663	1897.925
297.833	17.774	1935.956	1897.321
298.847	17.746	1934.646	1895.488
299.862	17.723	1933.600	1893.978
300.876	18.512	1935.116	1904.050
301.891	21.933	1942.410	1949.270
302.906	22.341	1939.842	1951.005
303.920	18.989	1930.278	1903.915
304.935	17.879	1926.170	1887.312
305.949	17.793	1923.904	1883.911
306.964	17.848	1921.600	1882.041
307.979	17.876	1920.284	1880.834
308.993	18.046	1919.153	1881.387
310.008	18.315	1918.471	1883.463
311.022	18.253	1918.084	1882.171
312.037	18.105	1915.211	1877.490
313.052	18.128	1913.309	1875.662
314.066	18.272	1912.568	1876.293
315.081	18.307	1911.484	1875.388
316.095	18.090	1910.097	1871.424
317.110	17.825	1906.709	1864.962
318.125	17.585	1905.332	1860.756
319.139	17.552	1904.473	1859.334
320.154	17.824	1902.807	1860.473
321.168	17.583	1901.331	1856.160
322.183	17.365	1899.401	1851.670
323.197	17.228	1898.256	1848.838
324.212	17.133	1895.572	1844.962
325.227	16.828	1894.055	1839.939
326.241	16.835	1892.389	1838.174
327.256	17.038	1890.456	1838.287
328.270	16.933	1889.372	1835.867
329.285	17.125	1889.843	1838.202
330.300	18.204	1895.802	1855.540
331.314	21.968	1901.910	1902.389
332.329	22.075	1895.964	1897.374
333.343	18.315	1886.114	1846.600
334.358	17.015	1881.828	1828.113
335.373	16.865	1880.174	1824.667
336.387	16.794	1877.767	1821.345
337.402	16.819	1876.618	1820.285
338.416	16.909	1875.709	1820.151
339.431	17.153	1874.773	1821.657
340.446	17.243	1872.836	1820.531
341.460	17.450	1871.913	1821.641
342.475	17.724	1871.749	1824.210
343.489	17.843	1870.803	1824.350
344.504	17.937	1869.459	1823.832
345.519	18.062	1868.018	1823.542
346.533	18.268	1866.398	1823.951
347.548	18.343	1866.012	1824.160
348.562	18.870	1866.543	1830.103
349.577	19.457	1866.688	1836.308
350.592	19.029	1863.584	1828.459
351.606	18.782	1861.368	1823.434
352.621	18.549	1859.105	1818.513
353.635	18.056	1857.487	1811.464
354.650	17.878	1855.402	1807.317
355.665	17.792	1853.715	1804.545
356.679	17.695	1852.642	1802.255
357.694	17.658	1851.465	1800.499
358.708	17.484	1849.870	1796.883
359.723	18.938	1853.934	1816.064
360.738	22.382	1860.709	1859.116
361.752	22.144	1854.437	1850.113
362.767	18.852	1845.798	1806.539
363.781	17.811	1843.100	1792.694
364.796	17.771	1840.646	1789.672
365.810	17.536	1839.725	1786.083
366.825	17.734	1837.817	1786.108
367.840	17.805	1837.528	1786.359
368.854	17.705	1837.401	1784.964
369.869	17.692	1835.367	1782.636
370.883	17.877	1833.534	1782.584
371.898	18.080	1833.206	1784.181
372.913	17.963	1830.838	1780.436
373.927	17.953	1829.862	1779.179
374.942	18.055	1828.029	1778.243
375.956	18.044	1826.692	1776.615
376.971	18.085	1825.272	1775.456
377.986	17.839	1823.304	1770.757
379.000	17.788	1821.171	1767.944
380.015	17.686	1820.168	1765.700
381.029	17.547	1817.695	1761.643
382.044	17.222	1815.368	1755.796
383.059	17.229	1814.519	1754.839
384.073	17.066	1813.910	1752.355
385.088	17.184	1812.501	1752.009
386.102	17.130	1810.486	1749.285
387.117	17.032	1809.203	1746.822
388.132	17.107	1809.383	1747.563
389.146	18.368	1813.850	1764.738
390.161	21.960	1819.786	1807.558
391.175	21.806	1811.843	1797.864
392.190	18.349	1802.613	1752.980
393.205	17.548	1798.556	1740.601
394.219	17.338	1797.195	1736.917
395.234	17.117	1796.345	1733.621
396.248	17.255	1794.606	1733.149
397.263	17.262	1791.722	1730.230
398.278	17.199	1790.834	1728.517
399.292	17.187	1790.191	1727.574
400.307	17.368	1789.206	1728.260
401.321	17.647	1788.091	1729.826
402.336	17.575	1787.450	1728.264
403.350	17.648	1786.188	1727.576
404.365	17.938	1784.322	1728.521
405.380	18.070	1784.280	1729.611
406.394	18.390	1784.659	1733.030
407.409	18.740	1783.980	1735.722
408.423	18.847	1782.031	1734.697
409.438	18.438	1780.107	1728.473
410.453	18.215	1778.097	1724.057
411.467	18.330	1777.445	1724.380
412.482	18.148	1775.220	1720.173
413.496	17.793	1772.933	1714.170
414.511	17.711	1771.476	1711.728
415.526	17.631	1769.718	1709.023
416.540	17.581	1767.961	1706.620
417.555	17.544	1767.558	1705.646
418.569	17.656	1768.146	1707.137
419.584	17.773	1767.507	1707.492
420.599	17.674	1766.840	1705.647
421.613	17.640	1764.873	1703.203
422.628	17.563	1762.810	1700.240
423.642	17.453	1761.573	1697.742
424.657	17.492	1759.447	1695.882
425.672	17.630	1758.521	1696.166
426.686	17.752	1757.875	1696.555
427.701	17.568	1756.680	1693.363
428.715	17.784	1755.556	1694.230
429.730	18.023	1753.694	1694.621
430.745	18.002	1752.577	1693.129
431.759	18.044	1752.565	1693.329
432.774	18.503	1752.795	1697.922
433.788	18.885	1752.699	1701.429
434.803	19.286	1752.191	1704.718
435.818	19.001	1751.954	1701.452
436.832	18.920	1751.287	1699.788
437.847	18.056	1744.064	1684.025
438.861	10.249	1721.857	1585.768
439.876	1.792	1707.791	1489.752
440.890	0.281	1703.698	1471.179
441.905	0.204	1702.358	1469.095
442.920	0.235	1700.624	1467.718
443.934	0.217	1699.096	1466.056
444.949	0.171	1697.660	1464.189
445.963	0.190	1697.515	1464.077
446.978	0.193	1697.458	1463.875
447.993	0.128	1695.887	1461.714
449.007	0.176	1693.126	1459.625
450.022	0.250	1691.157	1458.473
451.036	0.224	1689.843	1456.914
452.051	1.106	1694.519	1469.362
453.066	9.032	1712.875	1562.938
454.080	17.231	1726.124	1655.434
455.095	19.381	1730.197	1680.217
456.109	20.460	1730.325	1690.704
457.124	20.707	1729.905	1692.508
458.139	21.005	1729.463	1694.784
459.153	21.044	1728.911	1694.424
460.168	21.115	1726.577	1692.623
461.182	20.921	1724.915	1688.898
462.197	20.914	1723.123	1686.874
463.212	20.768	1721.079	1683.256
464.226	20.813	1720.127	1682.556
465.241	21.068	1719.989	1684.700
466.255	21.172	1719.144	1684.678
467.270	21.135	1717.945	1682.945
468.285	21.020	1715.133	1678.875
469.299	20.775	1714.057	1675.249
470.314	21.020	1712.558	1675.953
471.328	20.874	1711.077	1672.891
472.343	20.952	1710.559	1672.934
473.358	21.235	1708.419	1673.371
474.372	21.111	1708.226	1671.787
475.387	20.967	1705.854	1667.881
476.401	20.785	1704.011	1664.133
477.416	20.707	1703.359	1662.542
478.430	20.863	1702.448	1662.957
479.445	20.716	1700.543	1659.487
480.460	20.650	1699.305	1657.443
481.474	20.679	1699.445	1657.665
482.489	21.034	1698.037	1659.492
483.503	21.337	1696.856	1661.030
484.518	21.373	1695.650	1659.997
485.533	21.436	1693.727	1658.509
486.547	21.286	1692.528	1655.711
487.562	21.668	1692.060	1658.693
488.576	21.416	1690.998	1655.052
489.591	21.472	1688.646	1653.085
490.606	21.307	1687.208	1649.913
491.620	21.323	1686.518	1649.194
492.635	21.521	1685.573	1649.948
493.649	21.785	1684.481	1651.186
494.664	21.249	1681.742	1643.233
495.679	20.727	1679.422	1635.839
496.693	20.894	1678.125	1635.955
497.708	21.107	1678.190	1637.834
498.722	21.653	1677.483	1642.098
499.737	21.671	1676.267	1640.876
500.752	21.336	1674.399	1635.702
501.766	21.230	1673.007	1633.152
502.781	21.358	1671.311	1632.498
503.795	21.296	1669.681	1630.129
504.810	21.296	1669.464	1629.722
505.825	21.636	1669.096	1632.361
506.839	21.515	1668.086	1630.039
507.854	21.604	1665.843	1628.486
508.868	21.516	1665.207	1626.846
509.883	21.468	1664.314	1625.336
510.898	21.816	1663.010	1627.107
511.912	21.618	1660.542	1622.661
512.927	21.393	1658.865	1618.735
513.941	21.351	1656.821	1616.150
514.956	21.227	1654.947	1612.979
515.971	21.159	1654.025	1611.260
516.985	21.302	1653.856	1612.229
518.000	21.516	1652.575	1612.770
519.014	21.834	1652.662	1615.606
520.029	21.829	1651.894	1614.609
521.043	21.797	1650.027	1612.300
522.058	21.726	1648.230	1609.696
523.073	21.845	1648.183	1610.554
524.087	22.358	1647.100	1614.037
525.102	22.084	1645.658	1609.900
526.116	21.565	1643.288	1602.619
527.131	21.531	1642.508	1601.356
528.146	21.973	1642.184	1604.907
529.160	22.092	1641.620	1605.260
530.175	22.115	1640.389	1604.070
531.189	22.306	1639.058	1604.334
532.204	22.257	1638.090	1602.746
533.219	21.777	1636.055	1596.169
534.233	21.409	1634.471	1591.062
535.248	21.702	1634.059	1593.150
536.262	22.331	1634.022	1598.674
537.277	22.275	1631.897	1595.889
538.292	21.866	1630.029	1590.143
539.306	21.737	1628.140	1586.937
540.321	21.861	1626.567	1586.340
541.335	21.650	1625.033	1582.745
542.350	21.955	1624.342	1584.647
543.365	22.219	1623.106	1585.649
544.379	22.296	1621.459	1584.546
545.394	22.298	1621.501	1584.416
546.408	21.838	1618.690	1577.321
547.423	21.377	1617.568	1571.876
548.438	21.555	1615.492	1571.273
549.452	21.842	1615.473	1573.655
550.467	22.009	1614.074	1573.612
551.481	21.990	1613.447	1572.640
552.496	22.222	1613.978	1575.054
553.511	22.455	1612.819	1575.836
554.525	22.347	1611.842	1573.722
555.540	22.561	1611.144	1574.769
556.554	22.703	1609.094	1573.851
557.569	22.580	1607.120	1570.631
558.583	22.395	1605.776	1567.479
559.598	22.242	1604.630	1564.800
560.613	22.265	1603.139	1563.369
561.627	22.356	1602.463	1563.328
562.642	22.463	1601.792	1563.443
563.656	22.830	1600.997	1565.757
564.671	22.765	1600.219	1564.226
565.686	22.658	1598.608	1561.512
566.700	22.262	1596.591	1555.837
567.715	22.298	1594.455	1553.883
568.729	22.077	1591.738	1549.093
569.744	21.739	1590.328	1544.546
570.759	21.674	1590.226	1543.685
571.773	21.877	1589.449	1544.544
572.788	22.224	1588.453	1546.455
573.802	22.504	1587.110	1547.436
574.817	22.563	1586.326	1547.004
575.832	22.822	1586.274	1549.053
576.846	22.747	1584.623	1546.598
577.861	22.487	1582.926	1542.466
578.875	22.629	1582.477	1543.097
579.890	23.012	1581.422	1545.248
580.905	22.934	1580.467	1543.440
581.919	22.992	1579.817	1543.130
582.934	23.111	1578.936	1543.130
583.948	23.304	1577.457	1543.193
584.963	22.938	1576.442	1538.812
585.978	22.492	1574.763	1533.085
586.992	22.682	1574.314	1534.129
588.007	23.076	1573.156	1536.260
589.021	22.389	1570.213	1527.207
590.036	21.580	1570.161	1519.918
591.051	22.241	1568.831	1524.213
592.065	22.690	1567.722	1526.862
593.080	22.833	1566.205	1526.439
594.094	22.925	1563.714	1524.626
595.109	22.460	1561.733	1518.486
596.123	22.131	1560.132	1513.902
597.138	22.648	1559.562	1517.636
598.153	22.955	1558.756	1519.323
599.167	22.862	1557.524	1517.138
600.182	23.039	1557.032	1518.010
601.196	23.034	1556.265	1517.031
602.211	22.948	1555.125	1515.002
603.226	23.190	1554.421	1516.213
604.240	23.254	1553.595	1515.778
605.255	23.488	1552.106	1516.154
606.269	23.408	1551.097	1514.306
607.284	23.273	1549.919	1511.811
608.299	23.428	1547.965	1511.054
609.313	23.054	1547.014	1506.747
610.328	23.213	1546.007	1506.945
611.342	23.365	1544.534	1506.631
612.357	23.425	1544.238	1506.667
613.372	23.581	1542.402	1506.031
614.386	23.224	1541.923	1502.340
615.401	23.324	1541.554	1502.649
616.415	23.375	1540.743	1502.115
617.430	23.505	1540.252	1502.564
618.445	23.757	1538.012	1502.343
619.459	23.379	1537.075	1498.030
620.474	23.058	1534.957	1493.064
621.488	22.400	1532.832	1485.243
622.503	22.018	1531.551	1480.586
623.518	22.838	1531.689	1487.487
624.532	23.424	1530.681	1491.286
625.547	23.536	1530.106	1491.496
626.561	23.884	1530.371	1494.514
627.576	23.874	1528.965	1492.880
628.591	23.310	1525.931	1484.987
629.605	22.759	1524.410	1478.690
630.620	22.657	1522.573	1475.874
631.634	22.324	1521.107	1471.479
632.649	22.537	1520.501	1472.504
633.663	22.908	1520.532	1475.472
634.678	23.367	1520.229	1478.852
635.693	23.808	1518.974	1481.155
636.707	23.892	1517.794	1480.526
637.722	24.133	1517.149	1481.735
638.736	24.034	1515.862	1479.473
639.751	24.101	1514.479	1478.506
640.766	23.899	1513.029	1475.229
641.780	23.966	1511.364	1473.993
642.795	23.812	1510.658	1471.844
643.809	23.751	1511.103	1471.592
644.824	23.818	1509.431	1470.348
645.839	23.679	1508.373	1467.982
646.853	23.891	1506.900	1468.133
647.868	23.999	1504.914	1466.920
648.882	23.786	1503.949	1464.035
649.897	23.742	1502.110	1461.709
650.912	23.893	1500.224	1460.944
651.926	23.692	1499.734	1458.631
652.941	23.171	1498.342	1452.805
653.955	22.926	1495.614	1447.968
654.970	22.409	1492.742	1440.767
655.985	22.523	1491.511	1440.342
656.999	22.495	1490.889	1439.337
658.014	22.755	1490.488	1440.911
659.028	23.086	1491.048	1443.996
660.043	23.489	1490.427	1446.526
661.058	23.559	1489.126	1445.668
662.072	23.634	1488.608	1445.608
663.087	23.646	1487.233	1444.190
664.101	23.555	1486.194	1442.272
665.116	23.821	1484.806	1442.923
666.131	24.033	1484.152	1443.843
667.145	23.751	1483.687	1440.914
668.160	24.048	1482.651	1442.154
669.174	24.205	1481.526	1442.165
670.189	24.347	1479.394	1441.068
671.204	23.960	1478.852	1437.233
672.218	23.970	1477.886	1436.197
673.233	24.229	1477.072	1437.337
674.247	24.536	1475.614	1438.229
675.262	24.605	1475.225	1438.241
676.276	24.433	1474.522	1435.988
677.291	24.154	1472.897	1431.985
678.306	24.026	1471.187	1429.119
679.320	23.933	1470.263	1427.296
680.335	24.195	1469.398	1428.395
681.349	24.366	1469.367	1429.578
682.364	24.519	1468.195	1429.490
683.379	24.306	1466.534	1425.995
684.393	24.286	1464.961	1424.131
685.408	24.511	1464.020	1424.850
686.422	24.258	1462.983	1421.645
687.437	24.411	1463.072	1422.787
688.452	24.523	1463.070	1423.514
689.466	24.386	1460.966	1420.199
690.481	24.336	1458.162	1416.902
691.495	23.860	1456.659	1411.472
692.510	23.095	1454.339	1402.958
693.525	22.812	1451.785	1398.078
694.539	23.140	1452.447	1401.160
695.554	24.085	1453.388	1409.422
696.568	24.581	1452.629	1412.458
697.583	24.584	1452.315	1412.007
698.598	24.604	1451.709	1411.410
699.612	24.828	1450.318	1411.667
700.627	24.707	1449.180	1409.433
701.641	24.728	1447.414	1407.713
702.656	24.726	1446.550	1406.688
703.671	24.815	1446.670	1407.337
704.685	24.724	1446.223	1406.019
705.700	24.673	1444.497	1403.766
706.714	24.432	1442.259	1399.525
707.729	24.357	1440.188	1396.754
708.744	24.141	1439.296	1394.027
709.758	24.010	1437.895	1391.473
710.773	23.420	1435.989	1384.825
711.787	23.533	1433.731	1383.374
712.802	23.664	1433.085	1383.606
713.816	23.996	1432.743	1385.714
714.831	24.310	1432.306	1387.584
715.846	24.596	1431.655	1389.019
716.860	24.729	1430.754	1389.021
717.875	24.727	1429.676	1387.789
718.889	24.556	1428.773	1385.410
719.904	24.641	1428.005	1385.167
720.919	24.729	1426.551	1384.276
721.933	24.931	1425.937	1385.083
722.948	24.877	1425.172	1383.754
723.962	24.990	1424.211	1383.530
724.977	25.150	1422.108	1382.568
725.992	24.950	1422.440	1381.174
727.006	24.894	1420.525	1378.709
728.021	24.972	1419.293	1377.958
729.035	25.016	1418.264	1377.135
730.050	24.838	1417.904	1375.242
731.065	24.896	1416.314	1373.979
732.079	25.096	1415.174	1374.258
733.094	24.943	1413.745	1371.525
734.108	24.786	1412.655	1369.096
735.123	24.842	1411.195	1367.950
736.138	24.916	1409.655	1366.857
737.152	24.838	1409.325	1365.776
738.167	25.174	1408.547	1367.430
739.181	25.159	1407.843	1366.474
740.196	25.132	1407.426	1365.696
741.211	25.175	1406.063	1364.539
742.225	25.039	1404.894	1362.199
743.240	25.077	1403.630	1361.104
744.254	24.998	1402.761	1359.494
745.269	25.031	1401.548	1358.410
746.284	24.967	1400.795	1357.029
747.298	24.825	1399.566	1354.593
748.313	24.405	1396.860	1348.620
749.327	23.617	1395.723	1341.384
750.342	23.227	1394.284	1336.876
751.356	22.985	1391.893	1332.594
752.371	23.194	1391.644	1333.776
753.386	24.251	1392.350	1342.297
754.400	24.923	1392.488	1347.355
755.415	25.314	1391.081	1348.789
756.429	25.394	1389.841	1348.030
757.444	25.055	1389.321	1344.805
758.459	25.231	1388.244	1344.926
759.473	25.502	1386.233	1344.854
760.488	25.354	1385.894	1343.251
761.502	25.264	1384.500	1341.063
762.517	25.175	1383.290	1339.065
763.532	24.945	1381.949	1335.884
764.546	24.512	1379.806	1330.413
765.561	24.074	1378.305	1325.529
766.575	23.187	1376.688	1317.182
767.590	23.348	1375.590	1317.172
768.605	23.883	1375.761	1321.180
769.619	24.427	1374.747	1324.104
770.634	24.763	1374.494	1326.206
771.648	25.131	1373.895	1328.208
772.663	25.309	1373.344	1328.844
773.678	25.388	1372.304	1328.267
774.692	25.249	1372.071	1326.850
775.707	25.379	1371.735	1327.326
776.721	25.534	1370.613	1327.235
777.736	25.328	1369.660	1324.627
778.751	25.530	1368.259	1324.607
779.765	25.574	1366.696	1323.259
780.780	25.513	1366.590	1322.553
781.794	25.377	1365.464	1320.300
782.809	25.069	1364.116	1316.564
783.824	24.976	1362.978	1314.617
784.838	24.494	1360.458	1308.481
785.853	23.758	1358.320	1300.852
786.867	23.976	1358.101	1302.095
787.882	24.432	1358.423	1305.602
788.897	24.670	1358.314	1307.087
789.911	24.845	1357.017	1306.972
790.926	25.157	1355.634	1307.764
791.940	25.105	1354.916	1306.537
792.955	25.345	1353.450	1306.726
793.969	25.408	1352.438	1306.053
794.984	25.307	1351.859	1304.600
795.999	25.516	1351.202	1305.330
797.013	25.674	1349.422	1304.611
798.028	25.513	1347.417	1301.341
799.042	25.593	1347.519	1301.866
800.057	25.678	1346.384	1301.230
801.072	25.746	1344.384	1299.640
802.086	25.747	1343.509	1298.642
803.101	25.650	1343.033	1297.323
804.115	25.715	1342.399	1297.026
805.130	25.678	1341.599	1295.830
806.145	25.572	1340.174	1293.533
807.159	25.569	1338.394	1291.640
808.174	25.366	1337.087	1288.759
809.188	25.324	1335.937	1287.193
810.203	24.923	1334.192	1282.475
811.218	24.481	1332.185	1277.209
812.232	24.147	1329.372	1271.967
813.247	23.946	1328.337	1269.380
814.261	24.480	1328.936	1273.632
815.276	25.045	1329.278	1277.860
816.291	25.282	1329.027	1279.158
817.305	25.635	1327.257	1279.829
818.320	25.691	1326.178	1279.037
819.334	25.494	1325.603	1276.920
820.349	25.643	1324.294	1276.568
821.364	25.794	1322.413	1275.682
822.378	25.598	1321.780	1273.525
823.393	25.725	1320.035	1272.588
824.407	25.662	1319.144	1271.130
825.422	25.607	1318.614	1270.078
826.437	25.606	1317.079	1268.440
827.451	25.324	1314.861	1264.156
828.466	24.486	1311.918	1255.256
829.480	24.086	1310.362	1250.791
830.495	24.671	1308.915	1253.391
831.509	24.931	1309.735	1255.858
832.524	25.211	1309.943	1257.880
833.539	25.396	1308.780	1257.913
834.553	25.561	1307.450	1257.646
835.568	25.722	1306.650	1257.858
836.582	25.789	1305.088	1256.673
837.597	25.799	1303.805	1255.358
838.612	25.640	1302.081	1252.433
839.626	25.672	1300.576	1251.061
840.641	25.239	1299.635	1246.982
841.655	24.845	1298.141	1242.651
842.670	24.162	1296.027	1235.715
843.685	23.579	1294.635	1230.178
844.699	24.436	1294.696	1236.060
845.714	25.168	1293.436	1239.795
846.728	25.196	1293.812	1240.205
847.743	25.518	1293.192	1241.693
848.758	25.659	1292.134	1241.509
849.772	25.730	1290.791	1240.564
850.787	25.809	1289.442	1239.661
851.801	25.714	1288.611	1238.057
852.816	25.741	1287.628	1237.153
853.831	25.699	1285.152	1234.334
854.845	25.685	1283.610	1232.614
855.860	25.436	1282.010	1229.216
856.874	25.093	1281.191	1225.926
857.889	24.863	1279.072	1222.177
858.904	24.450	1277.301	1217.503
859.918	23.892	1275.226	1211.560
860.933	24.001	1273.690	1210.701
861.947	24.211	1273.741	1212.042
862.962	24.704	1272.910	1214.475
863.977	24.838	1272.431	1214.784
864.991	25.201	1272.302	1216.991
866.006	25.403	1271.794	1217.736
867.020	25.489	1270.620	1217.055
868.035	25.593	1269.862	1216.886
869.049	25.731	1269.675	1217.504
870.064	25.831	1268.066	1216.490
871.079	25.769	1266.945	1214.848
872.093	25.649	1266.472	1213.437
873.108	25.459	1264.996	1210.594
874.122	25.297	1262.876	1207.322
875.137	24.724	1262.002	1202.472
876.152	24.514	1260.605	1199.579
877.166	24.790	1259.122	1199.885
878.181	25.224	1258.456	1202.027
879.195	25.377	1258.258	1202.728
880.210	25.513	1257.698	1202.962
881.225	25.751	1257.102	1203.847
882.239	25.752	1256.000	1202.657
883.254	25.926	1254.898	1202.621
884.268	25.923	1254.594	1202.169
885.283	25.831	1253.183	1200.055
886.298	25.754	1251.640	1197.917
887.312	25.821	1250.466	1197.103
888.327	25.712	1249.545	1195.347
889.341	25.650	1248.736	1194.017
890.356	25.464	1247.968	1191.898
891.371	25.583	1247.100	1191.718
892.385	25.464	1245.861	1189.601
893.400	25.383	1244.726	1187.840
894.414	25.272	1242.796	1185.114
895.429	24.875	1240.166	1179.837
896.444	23.891	1237.842	1170.972
897.458	23.377	1236.623	1166.284
898.473	23.870	1236.999	1169.758
899.487	24.507	1237.556	1174.358
900.502	25.002	1236.853	1176.822
901.517	25.382	1235.710	1178.099
902.531	25.587	1234.519	1178.170
903.546	25.727	1234.265	1178.707
904.560	25.762	1233.534	1178.097
905.575	25.852	1232.145	1177.224
906.589	25.635	1231.363	1174.914
907.604	25.530	1231.015	1173.748
