DTS Sentinel unit serial number:	SN409020Multiplexer serial number:	ORYXHardware model number:	OX4-SRSoftware version number:	ORYX F/W v3.00 Oryx Data Collector v3.7.2.0data status	okinstallation	HaddamTimeLapsedifferential loss correction	single-endedforward channel	channel 3reverse channel	N/Adate	2011/06/21time	13:26:44forward acquisition time	30.00reverse acquisition time	0.00gamma	498.7831k internal	0.1798k external	0.1798temperature offset calibration	1.2081default loss term (dB/km)	0.3790temperature slope calibration	1.3581multiplexer offset coefficient	1.0000multiplexer slope coefficient	1.0000fibre end	0.00T internal ref (°C)	33.09T ext. ref 1 (°C)	29.91T ext. ref 2 (°C)	0.24length (m)	temperature (°C)	Stokes	anti-Stokes-747.200	-40.936	-0.140	0.093
-746.185	7.357	0.351	0.339
-745.171	-200.000	-0.008	0.180
-744.156	800.000	-0.111	0.428
-743.142	-36.639	-0.294	0.204
-742.127	-52.064	-0.187	-0.112
-741.112	-200.000	0.019	-0.682
-740.098	-200.000	0.076	0.464
-739.083	174.929	-0.254	0.477
-738.069	800.000	0.036	0.171
-737.054	385.110	-0.012	0.033
-736.039	800.000	0.050	0.267
-735.025	800.000	0.080	0.336
-734.010	69.733	-0.259	0.346
-732.996	-180.606	-0.288	-0.008
-731.981	14.630	0.164	0.165
-730.966	-81.505	-0.086	0.036
-729.952	107.056	0.113	-0.174
-728.937	73.685	0.115	-0.156
-727.923	101.707	0.126	0.191
-726.908	800.000	0.069	0.371
-725.894	457.085	0.144	0.416
-724.879	33.348	-0.479	0.538
-723.864	-87.433	0.307	-0.120
-722.850	800.000	0.079	-0.297
-721.835	-164.062	-0.525	-0.031
-720.821	800.000	-0.040	-0.197
-719.806	-87.317	0.768	0.300
-718.791	800.000	-0.089	0.441
-717.777	-152.257	0.135	0.012
-716.762	-77.080	0.278	0.125
-715.748	-200.000	0.023	0.186
-714.733	-111.167	0.432	-0.113
-713.718	-62.324	0.268	0.144
-712.704	-200.000	-0.043	-0.450
-711.689	-85.445	-0.549	-0.220
-710.675	-57.072	0.114	0.065
-709.660	-50.430	0.206	0.125
-708.645	-200.000	-0.019	0.640
-707.631	-200.000	0.018	0.412
-706.616	-89.456	-0.194	0.073
-705.602	-200.000	-0.062	0.373
-704.587	-142.627	-0.308	-0.038
-703.572	123.486	0.287	0.466
-702.558	-89.909	0.114	0.043
-701.543	112.831	-0.216	0.339
-700.529	765.879	-0.119	-0.421
-699.514	2.840	-0.186	0.174
-698.499	-170.277	0.127	-0.006
-697.485	276.424	-0.143	-0.329
-696.470	-76.434	-0.190	0.086
-695.456	-129.383	-0.442	0.079
-694.441	32.820	-0.192	0.214
-693.426	-178.282	0.332	0.010
-692.412	-135.466	-0.469	0.072
-691.397	230.917	0.098	-0.209
-690.383	-200.000	-0.010	0.118
-689.368	7.190	-0.104	0.100
-688.354	0.731	0.141	-0.130
-687.339	673.695	-0.109	0.366
-686.324	-200.000	0.038	-0.234
-685.310	476.587	0.252	-0.741
-684.295	703.713	0.160	-0.549
-683.281	-107.025	-0.114	0.032
-682.266	31.763	-0.490	-0.544
-681.251	124.181	0.248	-0.404
-680.237	-29.483	0.494	-0.364
-679.222	-91.531	0.272	-0.100
-678.208	60.083	0.216	-0.276
-677.193	800.000	-0.044	0.217
-676.178	-200.000	0.077	-0.515
-675.164	-70.185	-0.353	0.173
-674.149	130.416	-0.079	0.131
-673.135	-49.893	0.172	0.105
-672.120	128.796	0.281	0.463
-671.105	484.256	-0.107	0.317
-670.091	-200.000	0.051	0.422
-669.076	-200.000	0.029	0.490
-668.062	-200.000	0.007	0.142
-667.047	-200.000	0.002	0.274
-666.032	227.778	0.116	0.244
-665.018	-8.415	-0.246	0.213
-664.003	-200.000	-0.221	0.001
-662.989	-45.160	0.055	-0.035
-661.974	317.078	0.092	0.225
-660.959	144.160	-0.244	-0.421
-659.945	-5.997	0.302	-0.266
-658.930	-22.994	0.196	0.152
-657.916	75.917	0.202	0.275
-656.901	68.131	0.319	-0.422
-655.886	760.312	0.031	0.108
-654.872	-88.653	-0.252	0.096
-653.857	263.812	0.079	0.177
-652.843	800.000	-0.079	0.403
-651.828	800.000	-0.064	-0.359
-650.814	-74.944	0.048	-0.022
-649.799	27.318	-0.221	-0.239
-648.784	126.089	-0.083	-0.135
-647.770	-126.736	-0.368	-0.069
-646.755	-47.491	-0.438	0.274
-645.741	61.496	-0.138	-0.176
-644.726	-105.793	0.155	0.045
-643.711	800.000	0.120	-0.542
-642.697	-147.572	0.486	0.052
-641.682	-30.948	-0.307	-0.223
-640.668	40.510	-0.045	-0.052
-639.653	50.666	-0.200	-0.244
-638.638	-1.289	-0.348	-0.317
-637.624	-11.664	-0.171	-0.145
-636.609	800.000	0.053	0.214
-635.595	-12.370	0.296	0.249
-634.580	327.956	0.123	-0.306
-633.565	800.000	-0.043	0.180
-632.551	800.000	-0.081	0.332
-631.536	800.000	0.062	-0.237
-630.522	-200.000	-0.011	0.423
-629.507	546.750	-0.081	-0.251
-628.492	-75.541	0.063	-0.029
-627.478	-171.604	0.250	0.010
-626.463	-200.000	0.045	0.472
-625.449	-200.000	0.007	-0.205
-624.434	-53.128	0.121	0.071
-623.419	-73.440	0.265	0.124
-622.405	-143.017	-0.167	0.021
-621.390	-180.681	0.487	0.013
-620.376	-200.000	-0.014	-0.469
-619.361	36.452	0.356	-0.405
-618.346	-123.733	0.103	0.021
-617.332	-172.785	-0.198	-0.008
-616.317	-128.448	-0.405	-0.073
-615.303	14.583	0.339	-0.340
-614.288	98.742	-0.094	0.140
-613.273	55.863	-0.197	0.246
-612.259	108.129	0.139	-0.214
-611.244	800.000	-0.044	0.227
-610.230	-81.242	-0.142	-0.060
-609.215	-49.714	-0.087	0.053
-608.201	449.047	0.016	0.046
-607.186	-98.405	0.120	0.039
-606.171	154.954	0.147	0.261
-605.157	338.078	-0.048	0.120
-604.142	108.850	-0.170	-0.262
-603.128	-200.000	0.002	-0.405
-602.113	598.605	0.097	0.312
-601.098	800.000	-0.053	-0.289
-600.084	-157.466	-0.451	0.034
-599.069	-141.517	0.411	-0.053
-598.055	-50.709	-0.090	0.054
-597.040	-129.416	-0.258	-0.046
-596.025	-200.000	0.006	0.203
-595.011	23.454	-0.141	-0.149
-593.996	-74.290	-0.371	0.172
-592.982	-100.479	-0.594	0.188
-591.967	-69.073	0.329	0.162
-590.952	482.512	-0.076	0.223
-589.938	-200.000	0.037	0.267
-588.923	-86.463	-0.399	0.157
-587.909	-200.000	-0.001	0.161
-586.894	-200.000	0.046	-0.338
-585.879	-95.407	-0.110	0.038
-584.865	-133.306	0.193	0.031
-583.850	420.086	0.084	-0.232
-582.836	-167.216	-0.500	-0.026
-581.821	-78.959	0.246	-0.107
-580.806	133.424	-0.066	-0.111
-579.792	57.836	0.074	0.093
-578.777	-111.155	-0.213	0.056
-577.763	-89.720	-0.412	-0.154
-576.748	-116.966	-0.346	0.081
-575.733	-46.136	-0.038	-0.024
-574.719	547.766	0.240	-0.741
-573.704	-9.952	0.377	-0.322
-572.690	351.671	-0.077	-0.196
-571.675	185.256	0.315	-0.602
-570.661	108.581	0.123	0.189
-569.646	-92.568	0.737	-0.264
-568.631	-26.755	-0.203	0.153
-567.617	310.807	-0.159	-0.383
-566.602	-41.796	-0.071	0.047
-565.588	17.433	0.056	0.057
-564.573	232.809	-0.160	0.339
-563.558	93.928	0.090	0.132
-562.544	-120.688	0.357	-0.077
-561.529	-200.000	0.021	-0.370
-560.515	800.000	0.029	0.151
-559.500	-7.650	-0.122	-0.106
-558.485	163.051	0.118	-0.213
-557.471	127.376	-0.063	0.103
-556.456	-151.488	0.559	0.053
-555.442	-29.869	0.470	-0.343
-554.427	427.614	0.219	-0.611
-553.412	-200.000	0.024	0.172
-552.398	36.541	-0.116	-0.132
-551.383	-161.497	-0.509	-0.033
-550.369	54.099	-0.189	-0.234
-549.354	125.117	0.177	-0.287
-548.339	-200.000	-0.080	0.666
-547.325	-200.000	0.031	0.210
-546.310	8.480	0.102	-0.099
-545.296	422.823	-0.047	-0.130
-544.281	-9.850	-0.117	-0.100
-543.266	-116.605	0.280	0.066
-542.252	-16.091	-0.398	0.324
-541.237	457.781	-0.013	0.038
-540.223	800.000	0.043	-0.228
-539.208	14.354	0.070	-0.070
-538.193	436.519	-0.132	0.370
-537.179	-36.632	0.125	0.086
-536.164	-79.737	-0.549	0.236
-535.150	-138.782	-0.190	-0.026
-534.135	-41.662	-0.190	-0.125
-533.121	127.117	0.139	0.226
-532.106	196.221	0.246	-0.482
-531.091	-54.792	-0.186	-0.107
-530.077	-66.854	0.172	-0.087
-529.062	-105.091	0.106	0.031
-528.048	61.854	-0.583	0.746
-527.033	113.956	-0.346	0.541
-526.018	264.061	-0.062	-0.139
-525.004	800.000	-0.010	0.058
-523.989	102.249	0.302	0.454
-522.975	-43.894	-0.200	0.129
-521.960	-155.818	0.131	0.011
-520.945	-140.501	-0.128	0.017
-519.931	-69.285	-0.018	-0.009
-518.916	297.279	0.143	-0.338
-517.902	-200.000	-0.059	-0.344
-516.887	-99.636	0.499	-0.160
-515.872	-63.560	0.174	0.091
-514.858	-32.872	0.187	0.133
-513.843	100.535	-0.070	-0.105
-512.829	-51.433	-0.163	0.097
-511.814	-30.295	0.664	0.483
-510.799	66.049	-0.164	0.214
-509.785	4.769	-0.250	-0.235
-508.770	-80.786	-0.323	-0.137
-507.756	447.960	0.186	0.528
-506.741	-78.201	0.373	0.164
-505.726	800.000	-0.054	0.217
-504.712	-67.029	-0.350	-0.176
-503.697	-77.321	0.329	0.146
-502.683	-147.549	0.352	-0.038
-501.668	-186.823	-0.569	-0.010
-500.653	-111.787	-0.467	-0.120
-499.639	-70.706	-0.368	0.177
-498.624	-87.632	-0.396	0.152
-497.610	373.651	-0.092	-0.242
-496.595	77.762	-0.160	-0.218
-495.581	135.540	0.073	-0.122
-494.566	-110.152	-0.332	0.088
-493.551	4.178	-0.236	0.221
-492.537	-17.411	-0.058	-0.046
-491.522	-200.000	-0.001	0.050
-490.508	33.655	-0.290	0.323
-489.493	-200.000	0.012	-0.404
-488.478	17.142	0.222	0.225
-487.464	-10.691	-0.194	-0.164
-486.449	800.000	0.114	0.493
-485.435	42.073	0.395	0.459
-484.420	-97.385	0.216	0.071
-483.405	-200.000	0.097	0.611
-482.391	-141.130	-0.201	-0.026
-481.376	800.000	-0.074	-0.343
-480.362	-21.488	0.238	0.186
-479.347	192.031	-0.137	-0.266
-478.332	288.139	0.110	0.257
-477.318	-60.666	0.098	-0.053
-476.303	-200.000	-0.060	0.544
-475.289	-2.779	-0.303	0.271
-474.274	-76.241	-0.089	0.040
-473.259	-41.020	-0.201	0.133
-472.245	-131.416	-0.487	0.082
-471.230	-200.000	-0.050	-0.297
-470.216	-87.025	0.207	0.080
-469.201	-40.886	0.314	0.207
-468.186	-195.291	0.314	0.003
-467.172	140.195	-0.248	0.419
-466.157	-132.541	-0.198	-0.032
-465.143	248.376	0.112	-0.243
-464.128	800.000	0.046	-0.165
-463.113	254.722	-0.133	-0.293
-462.099	-200.000	0.012	-0.217
-461.084	800.000	0.126	-0.519
-460.070	-85.014	0.446	0.178
-459.055	128.382	-0.209	-0.341
-458.040	800.000	0.095	-0.461
-457.026	2.476	0.595	-0.551
-456.011	22.425	0.374	-0.391
-454.997	99.346	0.109	0.161
-453.982	-65.255	0.158	-0.081
-452.968	800.000	0.094	0.354
-451.953	-116.472	0.357	-0.084
-450.938	89.777	0.130	-0.185
-449.924	-200.000	0.038	-0.305
-448.909	134.116	0.213	-0.355
-447.895	-113.898	0.378	-0.093
-446.880	238.390	-0.197	-0.419
-445.865	99.531	0.140	0.207
-444.851	-200.000	-0.011	0.244
-443.836	-200.000	0.035	-0.403
-442.822	800.000	-0.036	0.137
-441.807	-147.880	-0.619	-0.065
-440.792	-200.000	-0.003	0.222
-439.778	-116.989	-0.240	-0.056
-438.763	-46.301	0.392	-0.246
-437.749	-64.350	-0.284	-0.147
-436.734	-200.000	-0.005	0.051
-435.719	-45.268	0.182	-0.115
-434.705	146.855	0.160	-0.276
-433.690	800.000	0.118	0.532
-432.676	-118.205	0.373	0.084
-431.661	-200.000	0.012	-0.163
-430.646	216.095	0.320	0.652
-429.632	-200.000	0.034	-0.336
-428.617	-69.647	-0.195	-0.095
-427.603	-86.272	-0.498	0.195
-426.588	16.470	-0.172	-0.173
-425.573	457.988	-0.049	-0.140
-424.559	-12.185	-0.396	0.331
-423.544	-108.879	-0.190	-0.052
-422.530	-200.000	-0.053	0.327
-421.515	23.562	0.113	-0.119
-420.500	-75.601	-0.296	0.134
-419.486	-133.203	-0.464	0.074
-418.471	-146.120	0.196	-0.022
-417.457	800.000	0.026	-0.136
-416.442	-76.988	-0.272	0.121
-415.428	800.000	0.036	0.134
-414.413	-77.136	0.097	-0.043
-413.398	6.337	-0.091	-0.086
-412.384	-57.806	0.264	-0.147
-411.369	-96.160	-0.328	0.111
-410.355	-54.833	0.239	0.138
-409.340	-35.608	0.278	-0.192
-408.325	58.319	0.202	0.253
-407.311	-59.407	-0.152	-0.083
-406.296	420.288	-0.155	-0.427
-405.282	-200.000	-0.138	-0.000
-404.267	-77.240	0.147	0.065
-403.252	-131.581	-0.032	0.005
-402.238	-88.374	0.143	0.054
-401.223	430.551	-0.077	-0.214
-400.209	-65.941	-0.081	-0.041
-399.194	-66.034	-0.295	-0.150
-398.179	-111.484	-0.228	0.059
-397.165	-200.000	0.035	-0.434
-396.150	461.739	-0.184	0.526
-395.136	109.174	0.156	0.238
-394.121	109.633	0.147	-0.226
-393.106	-139.531	0.271	0.037
-392.092	47.538	0.134	-0.160
-391.077	-40.001	-0.306	0.203
-390.063	0.142	0.260	0.236
-389.048	-162.721	-0.473	0.029
-388.033	-79.779	-0.787	0.336
-387.019	347.473	-0.198	0.501
-386.004	47.838	0.220	0.262
-384.990	157.262	-0.087	-0.155
-383.975	407.200	0.162	0.439
-382.960	87.909	-0.116	-0.165
-381.946	-200.000	-0.065	0.447
-380.931	-45.864	-0.178	0.112
-379.917	-122.960	-0.125	-0.025
-378.902	706.371	-0.183	-0.618
-377.888	237.479	-0.211	-0.447
-376.873	-19.705	-0.511	-0.403
-375.858	-153.093	0.237	-0.021
-374.844	1.086	0.125	0.114
-373.829	-200.000	0.029	0.296
-372.815	609.282	0.103	0.329
-371.800	168.545	0.066	0.120
-370.785	-74.111	0.110	-0.050
-369.771	-166.502	-0.369	-0.019
-368.756	-4.543	0.078	0.069
-367.742	-129.376	-0.291	-0.051
-366.727	351.909	-0.117	-0.298
-365.712	-2.194	0.386	0.345
-364.698	-200.000	0.003	0.107
-363.683	-88.369	0.337	-0.128
-362.669	-103.687	0.715	0.212
-361.654	-164.289	0.164	-0.009
-360.639	-14.317	-0.355	0.291
-359.625	111.190	0.131	-0.201
-358.610	-53.679	0.473	-0.274
-357.596	-157.966	0.214	0.016
-356.581	-200.000	0.033	-0.564
-355.566	-200.000	0.083	-0.545
-354.552	800.000	-0.075	-0.329
-353.537	-58.790	-0.768	0.422
-352.523	224.362	-0.133	0.274
-351.508	-15.596	-0.191	-0.155
-350.493	6.937	-0.100	-0.095
-349.479	-117.600	0.225	0.051
-348.464	-51.898	-0.316	-0.186
-347.450	-106.329	-0.352	-0.100
-346.435	-1.986	0.129	-0.116
-345.420	-23.247	0.424	0.325
-344.406	-114.713	0.072	0.017
-343.391	-187.525	-0.313	-0.005
-342.377	95.042	-0.120	-0.174
-341.362	-200.000	-0.064	0.000
-340.348	-136.921	0.584	-0.085
-339.333	-36.318	0.315	0.216
-338.318	-41.901	0.103	-0.067
-337.304	215.033	0.061	0.123
-336.289	-37.028	-0.236	0.161
-335.275	39.889	0.200	0.229
-334.260	357.988	0.109	0.278
-333.245	-51.834	0.085	0.050
-332.231	-68.667	-0.130	0.064
-331.216	-94.199	-0.252	-0.087
-330.202	743.598	-0.172	-0.591
-329.187	-157.459	-0.791	0.060
-328.172	800.000	0.080	-0.350
-327.158	-93.901	0.159	-0.055
-326.143	-13.422	-0.516	-0.425
-325.129	-116.680	0.493	0.115
-324.114	32.850	0.295	0.325
-323.099	-67.798	0.155	0.077
-322.085	300.709	-0.032	-0.075
-321.070	-158.815	-0.279	0.020
-320.056	800.000	0.117	0.416
-319.041	-50.680	-0.258	-0.154
-318.026	378.330	-0.112	0.293
-317.012	-53.467	-0.398	0.231
-315.997	-69.149	-0.358	0.175
-314.983	800.000	-0.055	-0.220
-313.968	24.556	-0.227	0.239
-312.953	-51.643	-0.273	0.162
-311.939	632.361	0.141	-0.457
-310.924	655.520	0.091	0.300
-309.910	354.876	0.073	-0.185
-308.895	-78.878	-0.067	0.029
-307.880	-200.000	-0.020	-0.308
-306.866	-73.086	-0.098	-0.045
-305.851	52.534	-0.320	-0.389
-304.837	-11.913	-0.133	-0.110
-303.822	-100.770	-0.126	-0.039
-302.807	-200.000	-0.010	-0.095
-301.793	131.204	0.275	0.450
-300.778	800.000	-0.070	-0.310
-299.764	-200.000	-0.013	-0.129
-298.749	151.248	-0.154	-0.267
-297.735	-75.164	0.544	0.246
-296.720	69.655	0.367	-0.482
-295.705	-138.495	0.214	0.030
-294.691	65.124	0.243	0.313
-293.676	-20.032	-0.342	0.268
-292.662	-154.183	0.397	0.034
-291.647	50.445	0.254	0.306
-290.632	800.000	-0.054	0.301
-289.618	-90.104	0.314	-0.116
-288.603	-200.000	-0.035	0.217
-287.589	-105.830	0.319	-0.091
-286.574	94.993	-0.155	-0.225
-285.559	147.870	0.284	-0.488
-284.545	-96.431	-0.411	-0.137
-283.530	37.368	-0.200	0.225
-282.516	-133.818	0.549	-0.086
-281.501	-47.548	0.565	0.347
-280.486	-200.000	-0.051	0.387
-279.472	-142.534	0.256	0.032
-278.457	378.860	0.188	-0.491
-277.443	-114.781	0.094	-0.023
-276.428	131.627	0.211	0.345
-275.413	151.076	0.210	-0.364
-274.399	83.892	-0.110	0.153
-273.384	-147.080	0.412	0.044
-272.370	232.036	-0.064	-0.133
-271.355	-200.000	0.065	-0.387
-270.340	424.183	-0.134	-0.367
-269.326	-31.701	0.328	-0.234
-268.311	-115.550	-0.208	-0.049
-267.297	-52.368	0.668	0.391
-266.282	-113.751	-0.197	0.048
-265.267	559.389	0.034	0.106
-264.253	-75.225	0.348	0.157
-263.238	-45.425	-0.328	-0.206
-262.224	-200.000	-0.011	-0.129
-261.209	-84.148	0.413	-0.166
-260.195	-93.316	0.319	-0.112
-259.180	-200.000	-0.473	-0.000
-258.165	490.787	-0.178	0.519
-257.151	-66.568	0.388	0.194
-256.136	148.152	0.237	0.406
-255.122	-49.245	0.380	0.230
-254.107	-200.000	-0.000	0.076
-253.092	37.398	-0.108	0.122
-252.078	269.266	-0.190	0.424
-251.063	-200.000	0.070	0.426
-250.049	-66.065	-0.037	-0.019
-249.034	-110.636	-0.460	0.120
-248.019	-126.062	0.315	0.060
-247.005	194.736	-0.192	-0.371
-245.990	-146.434	-0.136	-0.015
-244.976	219.721	-0.098	-0.200
-243.961	47.390	0.269	-0.318
-242.946	483.253	-0.116	0.337
-241.932	157.610	0.127	0.224
-240.917	-51.162	-0.501	-0.297
-239.903	117.876	-0.124	-0.194
-238.888	265.084	0.047	0.105
-237.873	-7.970	-0.469	-0.400
-236.859	126.457	0.300	0.483
-235.844	-34.091	0.064	-0.044
-234.830	51.600	0.154	0.186
-233.815	65.913	-0.238	-0.306
-232.800	-134.469	0.215	0.033
-231.786	-61.644	-0.123	0.065
-230.771	-153.095	0.161	0.014
-229.757	-128.173	-0.363	-0.065
-228.742	-81.697	0.270	0.112
-227.727	-71.117	0.498	-0.236
-226.713	189.003	-0.042	0.080
-225.698	-127.843	0.514	-0.093
-224.684	-70.027	-0.256	0.123
-223.669	-80.429	-0.305	-0.128
-222.655	393.673	-0.185	0.490
-221.640	-95.553	-0.298	0.101
-220.625	138.594	0.177	0.296
-219.611	-16.529	-0.343	0.275
-218.596	-11.634	-0.352	-0.293
-217.582	252.905	0.236	-0.511
-216.567	-2.337	-0.118	-0.104
-215.552	203.682	-0.085	-0.167
-214.538	-200.000	0.045	-0.325
-213.523	42.435	0.079	-0.091
-212.509	-44.285	-0.564	0.357
-211.494	-124.534	-0.525	-0.103
-210.479	353.832	-0.104	0.263
-209.465	-165.915	0.581	-0.031
-208.450	-200.000	-0.001	-0.158
-207.436	-62.991	0.114	0.059
-206.421	62.197	-0.048	-0.061
-205.406	-67.716	0.202	-0.100
-204.392	800.000	0.067	0.331
-203.377	-6.811	-0.173	0.149
-202.363	-200.000	0.046	0.333
-201.348	800.000	0.072	-0.257
-200.333	800.000	-0.018	-0.072
-199.319	154.169	-0.098	0.170
-198.304	-79.981	0.377	-0.160
-197.290	17.378	-0.102	0.103
-196.275	-81.909	0.119	0.049
-195.260	-141.562	-0.259	0.033
-194.246	-22.122	0.391	0.300
-193.231	546.241	0.095	-0.289
-192.217	-62.562	0.284	-0.149
-191.202	-92.486	-0.086	0.031
-190.187	-66.023	-0.448	-0.225
-189.173	-106.798	0.240	-0.067
-188.158	-32.662	-0.060	-0.043
-187.144	-159.093	0.634	0.045
-186.129	-112.039	0.474	0.120
-185.114	-200.000	-0.002	-0.180
-184.100	800.000	-0.037	0.190
-183.085	-200.000	0.003	-0.018
-182.071	-69.555	0.098	-0.047
-181.056	-137.274	0.634	0.090
-180.042	-53.636	0.195	-0.113
-179.027	-20.638	-0.287	0.223
-178.012	409.131	-0.196	-0.528
-176.998	800.000	-0.078	0.349
-175.983	611.021	0.158	0.503
-174.969	57.678	0.049	0.060
-173.954	-101.597	-0.196	-0.060
-172.939	-148.777	0.417	-0.042
-171.925	-91.205	-0.285	-0.103
-170.910	-200.000	0.033	0.415
-169.896	-200.000	-0.009	0.068
-168.881	501.678	-0.070	0.206
-167.866	177.241	-0.282	-0.520
-166.852	-46.921	-0.334	-0.206
-165.837	79.333	-0.122	0.166
-164.823	800.000	0.114	0.491
-163.808	-122.479	-0.269	0.055
-162.793	-84.402	0.633	-0.252
-161.779	144.361	0.225	0.382
-160.764	169.440	0.300	-0.543
-159.750	-51.219	-0.114	-0.067
-158.735	-24.767	0.060	-0.045
-157.720	-70.806	-0.527	0.250
-156.706	-146.939	0.452	0.048
-155.691	-87.149	0.288	0.110
-154.677	-31.337	-0.280	-0.199
-153.662	146.880	0.172	-0.293
-152.647	-200.000	-0.011	0.353
-151.633	72.249	-0.129	0.170
-150.618	213.166	0.226	0.453
-149.604	16.101	0.291	0.290
-148.589	403.877	-0.138	0.369
-147.574	-91.939	-0.068	-0.024
-146.560	-200.000	-0.008	-0.090
-145.545	-159.570	-0.154	0.011
-144.531	-200.000	-0.034	0.266
-143.516	-15.744	0.188	-0.151
-142.502	-200.000	0.037	0.371
-141.487	-164.632	0.254	0.014
-140.472	800.000	0.058	0.204
-139.458	-200.000	-0.021	0.350
-138.443	-20.233	0.104	-0.081
-137.429	-41.221	0.431	0.280
-136.414	80.694	-0.182	0.248
-135.399	-200.000	0.013	-0.206
-134.385	-134.085	-0.247	0.038
-133.370	-101.883	0.280	0.085
-132.356	-120.992	0.255	0.054
-131.341	-143.507	0.074	0.009
-130.326	-38.668	0.211	-0.140
-129.312	-62.225	0.323	-0.170
-128.297	441.496	0.121	0.336
-127.283	-106.493	-0.300	-0.084
-126.268	-200.000	-0.024	-0.297
-125.253	800.000	0.023	-0.103
-124.239	93.305	0.179	0.256
-123.224	278.630	-0.138	0.311
-122.210	-54.159	-0.218	0.125
-121.195	-159.895	-0.253	0.017
-120.180	-98.296	-0.221	0.071
-119.166	-200.000	0.011	0.137
-118.151	42.311	0.212	0.243
-117.137	200.944	-0.114	0.221
-116.122	-134.900	-0.402	-0.061
-115.107	-75.240	0.396	-0.178
-114.093	104.377	0.266	0.397
-113.078	-71.870	-0.281	-0.131
-112.064	-37.681	0.651	-0.436
-111.049	-140.291	0.269	-0.035
-110.034	43.050	-0.363	0.418
-109.020	-108.659	-0.357	-0.096
-108.005	-100.169	0.130	-0.040
-106.991	74.826	0.210	-0.280
-105.976	-57.405	0.279	-0.154
-104.962	-200.000	-0.046	-0.280
-103.947	71.903	-0.212	-0.279
-102.932	-43.769	-0.157	0.100
-101.918	-200.000	-0.017	0.144
-100.903	92.577	-0.106	0.151
-99.889	-77.654	-0.260	-0.113
-98.874	-85.233	-0.172	-0.067
-97.859	-200.000	0.065	0.489
-96.845	197.946	-0.258	0.499
-95.830	-52.914	0.228	0.132
-94.816	-200.000	-0.038	-0.330
-93.801	-33.053	0.132	-0.092
-92.786	-200.000	-0.004	-0.063
-91.772	-63.034	-0.272	-0.141
-90.757	800.000	-0.067	-0.254
-89.743	-0.721	0.175	-0.156
-88.728	-138.802	-0.367	-0.050
-87.713	-200.000	0.000	-0.234
-86.699	145.608	0.011	0.018
-85.684	-200.000	0.043	0.471
-84.670	484.252	-0.039	0.114
-83.655	-53.883	0.694	-0.398
-82.640	69.343	0.137	0.178
-81.626	-58.513	0.266	0.145
-80.611	-119.592	-0.252	-0.055
-79.597	-200.000	0.011	0.367
-78.582	-64.461	0.148	0.076
-77.567	153.920	0.247	0.427
-76.553	-72.543	-0.381	0.177
-75.538	800.000	-0.049	-0.245
-74.524	-159.866	-0.220	-0.015
-73.509	26.861	-0.235	0.248
-72.494	-87.586	-0.378	0.143
-71.480	800.000	0.056	0.273
-70.465	-0.614	0.066	-0.059
-69.451	-4.893	-0.302	-0.262
-68.436	800.000	0.133	-0.730
-67.422	-116.672	0.368	0.085
-66.407	-169.906	-0.255	0.011
-65.392	-200.000	0.051	-0.358
-64.378	-67.664	0.364	-0.179
-63.363	-74.710	0.275	-0.124
-62.349	-79.064	-0.404	-0.172
-61.334	-22.780	-1.472	-1.118
-60.319	-97.568	0.624	0.203
-59.305	225.821	-2.813	-5.764
-58.290	12.628	2.841	2.762
-57.276	458.935	3.519	9.910
-56.261	-200.000	13.168	225.461
-55.246	446.420	1177.107	3275.949
-54.232	59.553	2822.245	3507.926
-53.217	69.043	2706.168	3506.311
-52.203	54.795	2434.774	2960.966
-51.188	40.974	2089.141	2376.086
-50.173	35.897	1962.797	2174.826
-49.159	34.176	1952.453	2143.816
-48.144	33.488	1948.986	2132.149
-47.130	33.369	1946.077	2127.536
-46.115	33.463	1944.168	2126.425
-45.100	33.223	1943.361	2122.754
-44.086	33.355	1941.550	2122.180
-43.071	33.217	1939.882	2118.713
-42.057	33.216	1939.401	2118.087
-41.042	33.071	1938.337	2115.218
-40.027	33.282	1935.893	2114.834
-39.013	33.288	1934.796	2113.625
-37.998	33.354	1933.183	2112.514
-36.984	33.066	1932.902	2108.894
-35.969	33.290	1931.309	2109.586
-34.954	33.218	1929.733	2106.968
-33.940	33.168	1928.628	2105.117
-32.925	33.127	1927.928	2103.812
-31.911	33.251	1926.026	2103.046
-30.896	33.179	1924.914	2100.944
-29.881	33.218	1923.576	2099.828
-28.867	33.200	1921.978	2097.804
-27.852	33.142	1920.582	2095.543
-26.838	33.149	1919.635	2094.510
-25.823	33.082	1917.801	2091.686
-24.809	33.112	1917.103	2091.172
-23.794	33.193	1915.011	2089.706
-22.779	33.116	1913.916	2087.568
-21.765	33.005	1913.773	2086.105
-20.750	33.013	1912.768	2085.014
-19.736	33.077	1910.645	2083.325
-18.721	33.093	1908.795	2081.400
-17.706	33.054	1907.721	2079.713
-16.692	32.998	1907.361	2078.617
-15.677	33.083	1905.567	2077.525
-14.663	33.007	1904.326	2075.245
-13.648	33.049	1902.735	2073.892
-12.633	33.033	1901.403	2072.185
-11.619	32.970	1900.351	2070.267
-10.604	32.864	1899.162	2067.718
-9.590	32.943	1898.560	2067.853
-8.575	33.089	1896.597	2067.233
-7.560	33.024	1895.795	2065.569
-6.546	33.000	1895.026	2064.384
-5.531	32.959	1893.509	2062.201
-4.517	32.958	1892.254	2060.734
-3.502	33.010	1890.920	2059.769
-2.487	32.973	1890.011	2058.299
-1.473	33.165	1886.785	2056.802
-0.458	33.884	1870.146	2046.368
0.556	69.937	2010.562	2163.241
1.571	70.830	2234.057	2412.511
2.586	73.761	2284.085	2496.635
3.600	73.936	2286.783	2501.104
4.615	74.278	2287.440	2505.057
5.629	74.316	2285.628	2503.163
6.644	74.515	2282.856	2501.888
7.659	74.495	2282.719	2501.231
8.673	74.909	2280.413	2502.666
9.688	74.005	2284.763	2497.800
10.702	68.543	2350.506	2511.024
11.717	62.571	2411.559	2509.914
12.731	46.170	2377.758	2292.636
13.746	32.730	2347.308	2112.901
14.761	30.892	2342.684	2087.803
15.775	30.755	2340.462	2084.032
16.790	30.578	2339.546	2080.967
17.804	30.597	2338.159	2079.698
18.819	30.581	2336.877	2078.129
19.834	30.431	2336.249	2075.634
20.848	30.592	2333.921	2075.131
21.863	30.565	2332.228	2073.073
22.877	30.611	2329.602	2071.001
23.892	30.537	2328.249	2068.716
24.907	30.593	2325.317	2066.489
25.921	30.647	2323.901	2065.594
26.936	30.495	2321.872	2061.843
27.950	30.453	2320.169	2059.614
28.965	30.627	2316.391	2057.945
29.980	30.572	2316.014	2056.759
30.994	30.736	2313.854	2056.413
32.009	39.152	2336.564	2170.251
33.023	62.399	2396.550	2486.106
34.038	82.031	2439.760	2747.325
35.053	88.970	2450.593	2834.448
36.067	87.902	2443.839	2814.814
37.082	85.700	2436.800	2782.669
38.096	86.484	2438.965	2793.258
39.111	89.001	2442.077	2823.571
40.126	90.858	2445.290	2846.887
41.140	93.404	2449.757	2879.016
42.155	91.299	2439.927	2844.666
43.169	89.428	2435.124	2818.749
44.184	89.658	2432.866	2818.260
45.199	89.128	2428.976	2807.757
46.213	88.400	2427.056	2797.436
47.228	88.554	2426.439	2798.036
48.242	88.911	2425.881	2800.860
49.257	88.550	2423.120	2793.489
50.271	89.692	2423.485	2805.727
51.286	89.686	2420.502	2801.873
52.301	88.404	2415.888	2782.601
53.315	87.362	2410.631	2765.158
54.330	79.736	2386.602	2656.634
55.344	71.842	2368.146	2551.892
56.359	70.907	2363.236	2536.319
57.374	70.213	2358.796	2523.839
58.388	69.471	2355.091	2511.656
59.403	70.496	2354.818	2521.993
60.417	72.808	2358.315	2550.047
61.432	73.318	2356.583	2553.278
62.447	71.813	2350.948	2530.921
63.461	71.164	2346.238	2518.672
64.476	70.493	2344.860	2509.789
65.490	72.751	2349.840	2538.755
66.505	79.163	2365.887	2623.747
67.520	86.080	2379.739	2711.711
68.534	86.821	2378.006	2717.169
69.549	87.685	2377.894	2725.743
70.563	88.581	2377.094	2733.836
71.578	88.989	2376.741	2737.360
72.593	89.423	2375.701	2740.337
73.607	90.242	2375.876	2748.720
74.622	90.010	2371.971	2741.469
75.636	88.137	2365.931	2714.763
76.651	88.787	2365.008	2720.111
77.666	88.621	2364.468	2717.448
78.680	88.639	2361.775	2714.208
79.695	90.940	2366.401	2743.000
80.709	93.591	2370.878	2775.202
81.724	93.980	2369.088	2776.767
82.739	93.228	2362.856	2761.422
83.753	90.737	2356.687	2728.335
84.768	89.618	2351.676	2710.727
85.782	88.085	2346.493	2688.693
86.797	88.138	2343.937	2685.977
87.812	87.928	2342.090	2681.389
88.826	87.521	2339.762	2674.224
89.841	87.722	2337.933	2673.878
90.855	87.854	2336.145	2672.860
91.870	87.200	2333.254	2662.549
92.884	87.299	2331.279	2660.984
93.899	88.930	2334.667	2681.189
94.914	87.643	2328.769	2660.992
95.928	80.793	2311.896	2571.658
96.943	76.750	2303.706	2520.854
97.957	81.903	2315.015	2585.879
98.972	86.492	2320.517	2638.589
99.987	86.681	2318.262	2637.619
101.001	87.329	2316.644	2642.039
102.016	87.076	2314.883	2637.148
103.030	87.962	2315.425	2646.423
104.045	89.734	2317.814	2666.764
105.060	90.417	2315.375	2670.527
106.074	89.175	2310.493	2652.068
107.089	89.018	2308.850	2648.283
108.103	90.021	2310.746	2660.240
109.118	90.593	2309.155	2663.840
110.133	90.641	2308.344	2663.069
111.147	90.076	2303.867	2651.920
112.162	89.503	2300.924	2642.477
113.176	89.111	2297.806	2634.649
114.191	89.978	2298.477	2643.781
115.206	90.173	2296.881	2643.573
116.220	89.417	2292.770	2630.983
117.235	88.791	2289.540	2620.715
118.249	88.463	2287.433	2614.715
119.264	89.380	2286.984	2623.026
120.279	90.092	2287.297	2630.152
121.293	90.078	2284.976	2627.029
122.308	89.096	2280.967	2612.362
123.322	88.565	2279.706	2605.335
124.337	88.373	2276.279	2599.196
125.352	83.542	2263.667	2536.645
126.366	82.332	2263.367	2523.966
127.381	85.855	2266.856	2562.588
128.395	87.264	2266.713	2576.071
129.410	88.534	2268.343	2590.173
130.424	89.045	2266.950	2593.309
131.439	88.313	2263.922	2582.326
132.454	87.983	2261.452	2575.944
133.468	88.498	2260.820	2579.991
134.483	88.732	2259.372	2580.328
135.497	88.799	2258.492	2579.664
136.512	89.074	2256.325	2579.584
137.527	88.754	2253.780	2573.223
138.541	88.518	2251.386	2567.871
139.556	88.003	2249.751	2560.655
140.570	88.148	2248.179	2559.981
141.585	88.827	2248.155	2566.283
142.600	89.500	2247.609	2571.919
143.614	88.988	2245.962	2564.730
144.629	89.540	2245.694	2569.502
145.643	89.845	2245.049	2571.418
146.658	89.915	2241.914	2568.199
147.673	89.797	2241.029	2565.730
148.687	90.896	2240.634	2575.636
149.702	90.257	2237.565	2565.614
150.716	88.918	2232.151	2546.140
151.731	87.841	2229.799	2532.721
152.746	87.838	2228.733	2531.171
153.760	85.655	2220.224	2500.106
154.775	78.873	2203.101	2414.974
155.789	74.614	2196.277	2365.795
156.804	79.871	2207.365	2428.770
157.819	85.866	2214.854	2494.891
158.833	87.662	2216.299	2513.543
159.848	89.247	2217.946	2530.360
160.862	90.344	2217.863	2540.495
161.877	90.129	2216.899	2537.027
162.892	90.442	2216.817	2539.628
163.906	91.052	2217.483	2545.922
164.921	91.786	2216.589	2551.612
165.935	92.142	2214.356	2552.133
166.950	91.900	2212.900	2547.835
167.964	90.971	2207.980	2533.025
168.979	90.444	2205.016	2524.303
169.994	89.840	2202.548	2515.426
171.008	90.009	2200.890	2514.836
172.023	90.307	2198.671	2514.826
173.037	89.931	2197.905	2510.084
174.052	90.093	2196.758	2510.002
175.067	89.870	2194.549	2505.072
176.081	89.614	2193.350	2500.969
177.096	89.532	2190.588	2496.747
178.110	88.667	2187.137	2484.326
179.125	88.731	2186.727	2484.174
180.140	89.732	2187.309	2493.997
181.154	89.838	2185.624	2492.778
182.169	88.822	2182.265	2479.072
183.183	86.723	2174.722	2450.427
184.198	80.402	2157.506	2371.242
185.213	77.264	2154.213	2337.620
186.227	83.659	2165.837	2410.670
187.242	86.945	2170.169	2446.210
188.256	87.926	2169.505	2454.392
189.271	88.251	2169.567	2457.214
190.286	89.605	2170.517	2470.685
191.300	89.793	2167.862	2469.131
192.315	88.722	2163.391	2453.737
193.329	88.870	2162.718	2454.067
194.344	89.781	2164.589	2464.399
195.359	91.183	2166.421	2479.265
196.373	91.410	2163.638	2477.894
197.388	90.780	2158.158	2465.476
198.402	89.785	2154.880	2452.207
199.417	89.227	2152.603	2444.142
200.432	89.861	2153.036	2450.216
201.446	90.707	2152.649	2457.319
202.461	90.200	2150.613	2450.012
203.475	89.675	2147.448	2441.258
204.490	89.105	2143.769	2431.519
205.504	89.533	2142.386	2433.612
206.519	89.174	2138.708	2425.834
207.534	88.879	2136.988	2420.876
208.548	88.977	2134.935	2419.158
209.563	87.561	2130.919	2401.298
210.577	86.521	2127.358	2387.429
211.592	87.823	2131.114	2403.353
212.607	85.475	2119.854	2368.837
213.621	74.759	2099.123	2247.036
214.636	75.621	2104.714	2260.744
215.650	82.902	2117.208	2341.372
216.665	86.278	2118.886	2373.984
217.680	87.945	2121.057	2391.402
218.694	88.444	2121.477	2396.146
219.709	89.049	2121.830	2401.787
220.723	90.476	2123.633	2416.559
221.738	90.995	2120.580	2417.521
222.753	90.081	2117.194	2405.063
223.767	89.574	2114.777	2397.425
224.782	89.417	2112.998	2393.694
225.796	89.365	2110.994	2390.664
226.811	89.576	2109.413	2390.495
227.826	90.184	2110.303	2396.730
228.840	90.691	2108.856	2399.381
229.855	89.940	2106.516	2389.645
230.869	89.299	2102.128	2378.602
231.884	87.544	2097.662	2357.417
232.899	87.599	2096.955	2356.838
233.913	88.466	2097.295	2364.762
234.928	88.923	2097.276	2368.579
235.942	89.833	2098.304	2377.650
236.957	90.191	2096.186	2378.185
237.972	89.530	2093.746	2369.199
238.986	89.454	2093.073	2367.462
240.001	89.534	2090.750	2365.273
241.015	89.194	2088.240	2359.101
242.030	88.010	2083.522	2342.891
243.045	83.574	2072.201	2290.210
244.059	80.571	2068.040	2258.372
245.074	85.151	2074.873	2306.761
246.088	87.774	2076.364	2331.610
247.103	88.558	2076.186	2338.123
248.117	87.736	2073.244	2327.210
249.132	87.704	2071.464	2324.654
250.147	88.138	2070.975	2327.684
251.161	88.695	2071.799	2333.287
252.176	89.466	2070.019	2337.843
253.190	89.430	2067.539	2334.440
254.205	89.506	2067.046	2334.278
255.220	90.703	2069.055	2346.861
256.234	91.530	2068.913	2353.719
257.249	90.927	2065.910	2344.701
258.263	90.682	2064.840	2341.047
259.278	91.330	2065.233	2346.925
260.293	91.310	2062.363	2343.209
261.307	90.500	2057.954	2330.794
262.322	89.718	2055.242	2320.574
263.336	89.425	2053.002	2315.192
264.351	89.041	2050.371	2308.578
265.366	88.739	2050.186	2305.444
266.380	88.965	2048.612	2305.384
267.395	87.780	2043.551	2289.033
268.409	86.739	2041.561	2277.408
269.424	87.854	2041.793	2287.165
270.439	89.206	2041.953	2298.882
271.453	86.681	2032.917	2266.442
272.468	79.904	2018.371	2190.871
273.482	77.060	2015.330	2162.360
274.497	82.355	2024.350	2218.341
275.512	86.804	2027.497	2260.379
276.526	87.686	2027.502	2267.785
277.541	88.255	2027.244	2272.158
278.555	89.291	2027.836	2281.535
279.570	88.918	2024.414	2274.184
280.585	87.850	2021.503	2261.409
281.599	87.452	2019.750	2255.733
282.614	87.409	2017.971	2253.097
283.628	88.140	2018.068	2259.254
284.643	89.728	2020.624	2275.545
285.657	90.859	2020.917	2285.341
286.672	89.753	2017.513	2271.717
287.687	90.084	2015.203	2271.685
288.701	89.769	2014.799	2268.249
289.716	89.813	2012.794	2266.100
290.730	90.086	2012.096	2267.379
291.745	89.252	2009.281	2256.792
292.760	89.439	2007.813	2256.477
293.774	89.608	2008.175	2258.056
294.789	89.800	2006.819	2257.900
295.803	89.953	2005.736	2257.715
296.818	90.219	2004.056	2257.825
297.833	90.029	2002.726	2254.434
298.847	90.747	2002.172	2259.656
299.862	90.799	2001.001	2258.504
300.876	89.466	1993.582	2238.554
301.891	82.734	1975.789	2161.337
302.906	76.749	1971.243	2105.031
303.920	84.020	1984.921	2181.782
304.935	88.428	1988.165	2222.609
305.949	89.187	1989.029	2229.734
306.964	90.828	1990.152	2244.619
307.979	91.202	1989.064	2246.279
308.993	89.877	1984.134	2229.276
310.008	89.433	1983.374	2224.401
311.022	90.525	1982.504	2232.367
312.037	90.814	1980.892	2232.711
313.052	90.424	1978.279	2226.224
314.066	89.885	1976.623	2219.563
315.081	89.698	1974.129	2214.928
316.095	89.114	1971.784	2207.139
317.110	89.374	1972.553	2209.913
318.125	90.082	1971.527	2214.430
319.139	90.355	1970.567	2215.365
320.154	90.110	1969.113	2211.419
321.168	90.206	1967.774	2210.456
322.183	89.956	1965.335	2205.357
323.197	89.423	1962.917	2197.937
324.212	88.899	1959.705	2189.715
325.227	88.709	1957.563	2185.478
326.241	88.240	1954.253	2177.620
327.256	87.812	1953.781	2173.278
328.270	88.864	1955.844	2184.059
329.285	89.215	1954.670	2185.400
330.300	87.097	1947.216	2159.262
331.314	78.976	1930.014	2072.674
332.329	78.161	1931.464	2067.175
333.343	85.591	1942.390	2140.653
334.358	89.461	1948.195	2178.883
335.373	90.412	1947.696	2185.920
336.387	90.023	1944.426	2178.782
337.402	89.620	1942.981	2173.579
338.416	89.675	1939.949	2170.379
339.431	89.828	1940.266	2171.730
340.446	91.282	1940.010	2183.121
341.460	91.356	1940.002	2183.455
342.475	91.745	1938.614	2184.820
343.489	90.952	1934.800	2173.774
344.504	90.698	1933.947	2170.481
345.519	90.861	1932.088	2169.466
346.533	91.165	1930.931	2170.381
347.548	90.985	1929.209	2166.717
348.562	90.374	1927.250	2159.285
349.577	90.792	1927.637	2162.862
350.592	91.277	1926.282	2165.025
351.606	90.820	1924.716	2159.296
352.621	90.874	1923.356	2157.944
353.635	90.748	1921.450	2154.527
354.650	89.993	1918.009	2144.289
355.665	89.779	1916.577	2140.693
356.679	89.769	1913.982	2137.458
357.694	89.467	1911.810	2132.334
358.708	89.705	1911.404	2133.555
359.723	87.568	1903.371	2107.095
360.738	78.392	1886.405	2014.045
361.752	76.901	1888.210	2003.583
362.767	84.302	1896.719	2072.627
363.781	86.910	1898.829	2095.759
364.796	88.796	1899.829	2111.801
365.810	88.432	1898.380	2107.011
366.825	87.750	1896.161	2098.813
367.840	88.236	1896.490	2102.831
368.854	88.347	1894.692	2101.476
369.869	88.518	1893.606	2101.389
370.883	88.459	1892.490	2099.425
371.898	88.736	1891.657	2100.463
372.913	89.381	1891.217	2104.880
373.927	89.806	1891.527	2108.366
374.942	90.183	1890.396	2109.857
375.956	90.376	1889.198	2109.802
376.971	89.844	1886.938	2102.794
377.986	90.306	1885.305	2104.394
379.000	91.085	1886.153	2111.273
380.015	92.004	1885.803	2117.916
381.029	91.711	1882.891	2112.074
382.044	91.212	1882.222	2107.121
383.059	91.776	1879.563	2108.342
384.073	90.284	1876.359	2092.725
385.088	88.735	1874.354	2077.996
386.102	88.954	1873.946	2079.023
387.117	90.573	1874.592	2092.276
388.132	90.800	1873.273	2092.347
389.146	88.239	1865.133	2062.867
390.161	78.736	1845.064	1965.774
391.175	76.248	1843.723	1944.388
392.190	85.906	1858.315	2036.246
393.205	89.825	1860.714	2069.435
394.219	90.260	1859.936	2071.727
395.234	89.744	1859.365	2066.804
396.248	89.706	1856.429	2062.996
397.263	89.986	1854.789	2063.111
398.278	89.721	1852.474	2058.222
399.292	89.144	1851.968	2052.911
400.307	90.712	1854.275	2067.450
401.321	90.933	1852.193	2066.605
402.336	89.929	1848.315	2054.229
403.350	89.852	1846.563	2051.438
404.365	90.731	1847.766	2059.353
405.380	92.425	1849.695	2074.386
406.394	92.848	1848.537	2076.113
407.409	91.258	1843.676	2058.128
408.423	90.291	1841.122	2047.559
409.438	90.527	1840.663	2048.623
410.453	90.586	1838.677	2046.622
411.467	90.250	1838.365	2043.444
412.482	91.195	1837.794	2049.844
413.496	90.597	1834.389	2041.201
414.511	89.147	1830.625	2025.617
415.526	89.126	1829.885	2024.394
416.540	91.059	1831.813	2041.147
417.555	91.133	1828.875	2038.196
418.569	88.988	1825.213	2017.444
419.584	89.546	1827.220	2023.701
420.599	90.306	1825.848	2027.762
421.613	88.524	1821.900	2009.497
422.628	87.648	1820.686	2001.206
423.642	90.304	1822.840	2023.676
424.657	91.165	1819.807	2026.623
425.672	88.266	1814.506	1998.416
426.686	88.002	1814.453	1996.103
427.701	89.216	1814.893	2005.603
428.715	91.116	1817.870	2023.124
429.730	93.481	1819.494	2042.653
430.745	94.421	1818.550	2048.462
431.759	93.064	1815.297	2034.297
432.774	89.459	1803.430	1993.574
433.788	76.569	1777.764	1867.823
434.803	66.988	1765.075	1781.254
435.818	65.698	1762.547	1768.591
436.832	65.597	1762.398	1767.448
437.847	65.134	1754.472	1755.750
438.861	53.510	1726.761	1639.491
439.876	36.038	1699.905	1480.391
440.890	31.127	1693.165	1436.452
441.905	30.736	1691.654	1431.976
442.920	30.627	1690.391	1429.887
443.934	30.615	1689.041	1428.486
444.949	30.601	1688.343	1427.611
445.963	30.609	1686.483	1425.931
446.978	30.593	1685.255	1424.601
447.993	30.693	1684.697	1424.726
449.007	30.548	1681.877	1421.052
450.022	30.716	1679.566	1420.218
451.036	30.641	1678.805	1418.834
452.051	31.725	1683.861	1431.268
453.066	44.674	1709.865	1553.359
454.080	61.178	1732.632	1700.624
455.095	66.375	1739.686	1746.783
456.109	68.950	1743.090	1769.449
457.124	69.993	1743.769	1777.787
458.139	69.319	1741.412	1770.096
459.153	68.818	1739.567	1764.243
460.168	68.758	1737.983	1761.975
461.182	68.906	1736.906	1761.782
462.197	69.122	1735.191	1761.451
463.212	69.336	1733.970	1761.605
464.226	69.515	1733.089	1761.836
465.241	69.674	1731.984	1761.687
466.255	69.627	1731.053	1760.181
467.270	69.447	1729.888	1757.439
468.285	69.588	1729.510	1757.896
469.299	69.891	1728.695	1759.121
470.314	70.316	1727.141	1760.488
471.328	70.441	1725.885	1759.926
472.343	70.578	1724.952	1759.782
473.358	70.843	1724.206	1760.774
474.372	70.943	1723.505	1760.592
475.387	71.260	1723.599	1762.828
476.401	71.265	1721.116	1760.113
477.416	70.844	1717.993	1753.596
478.430	70.637	1717.001	1750.842
479.445	70.788	1717.941	1752.703
480.460	71.318	1716.374	1754.811
481.474	71.465	1715.232	1754.516
482.489	71.236	1713.826	1751.179
483.503	70.891	1710.524	1745.054
484.518	70.418	1708.809	1739.620
485.533	70.629	1708.798	1740.951
486.547	70.603	1706.382	1738.094
487.562	69.781	1704.144	1729.580
488.576	70.068	1703.870	1731.198
489.591	70.891	1702.835	1735.961
490.606	71.308	1702.419	1738.376
491.620	71.407	1700.756	1737.189
492.635	71.156	1697.331	1731.659
493.649	70.467	1694.607	1723.654
494.664	70.346	1695.401	1723.371
495.679	70.609	1694.085	1723.747
496.693	70.477	1692.489	1720.950
497.708	70.420	1691.294	1719.119
498.722	70.013	1689.625	1714.259
499.737	69.988	1688.290	1712.521
500.752	70.108	1687.030	1711.903
501.766	70.062	1685.223	1709.529
502.781	69.879	1683.380	1706.133
503.795	69.915	1681.855	1704.647
504.810	69.889	1680.909	1703.294
505.825	69.856	1679.130	1701.046
506.839	69.244	1678.674	1695.965
507.854	69.583	1676.406	1695.911
508.868	69.426	1674.195	1692.345
509.883	69.106	1672.436	1688.062
510.898	68.511	1671.646	1682.789
511.912	68.434	1670.138	1680.512
512.927	68.658	1667.858	1679.621
513.941	68.463	1666.826	1676.987
514.956	68.936	1666.758	1680.106
515.971	69.595	1666.396	1684.254
516.985	69.305	1664.391	1679.949
518.000	68.611	1662.661	1673.050
519.014	68.336	1661.785	1670.004
520.029	68.276	1660.198	1667.776
521.043	68.330	1658.930	1666.689
522.058	68.614	1657.501	1667.072
523.073	68.594	1656.277	1665.499
524.087	68.475	1654.289	1662.455
525.102	68.497	1653.485	1661.602
526.116	69.279	1653.645	1667.117
527.131	69.544	1652.902	1668.044
528.146	69.324	1651.979	1665.351
529.160	69.130	1650.190	1661.974
530.175	69.228	1649.358	1661.630
531.189	69.371	1648.421	1661.496
532.204	69.551	1647.108	1661.243
533.219	69.609	1647.057	1661.405
534.233	70.379	1647.388	1666.968
535.248	70.531	1645.481	1665.907
536.262	70.065	1643.358	1660.285
537.277	70.111	1642.801	1659.847
538.292	70.588	1641.875	1662.055
539.306	70.653	1640.042	1660.456
540.321	70.052	1638.027	1654.007
541.335	69.660	1635.366	1648.379
542.350	69.938	1634.782	1649.539
543.365	70.431	1633.818	1651.810
544.379	70.579	1632.847	1651.664
545.394	70.475	1631.166	1649.039
546.408	70.224	1629.804	1645.718
547.423	70.409	1629.225	1646.219
548.438	70.556	1628.452	1646.265
549.452	70.600	1626.726	1644.629
550.467	70.397	1625.200	1641.476
551.481	70.106	1624.080	1638.133
552.496	69.719	1622.202	1633.360
553.511	69.359	1620.584	1629.043
554.525	69.119	1618.475	1625.068
555.540	68.900	1617.958	1622.834
556.554	69.103	1616.724	1622.809
557.569	69.093	1615.054	1620.867
558.583	68.900	1613.478	1617.758
559.598	68.983	1612.758	1617.414
560.613	68.962	1611.625	1615.943
561.627	68.735	1609.873	1612.428
562.642	68.234	1607.813	1606.725
563.656	67.923	1605.777	1602.363
564.671	67.765	1604.794	1600.106
565.686	67.737	1603.078	1598.011
566.700	67.840	1602.212	1597.664
567.715	68.010	1601.120	1597.543
568.729	68.416	1599.719	1598.728
569.744	68.982	1599.207	1601.889
570.759	69.120	1598.143	1601.576
571.773	68.680	1596.628	1596.865
572.788	68.299	1595.346	1592.794
573.802	68.305	1592.861	1590.166
574.817	68.017	1590.787	1585.950
575.832	67.587	1588.866	1580.924
576.846	67.867	1588.888	1582.657
577.861	68.405	1588.791	1586.020
578.875	68.621	1588.235	1586.732
579.890	68.611	1586.613	1584.856
580.905	68.579	1585.782	1583.620
581.919	68.718	1585.326	1583.916
582.934	68.830	1584.198	1583.350
583.948	68.801	1582.467	1581.238
584.963	68.851	1581.662	1580.581
585.978	69.449	1581.751	1584.504
586.992	69.618	1580.495	1584.198
588.007	69.639	1579.172	1582.817
589.021	69.368	1578.682	1580.319
590.036	68.674	1576.735	1573.519
591.051	68.790	1576.004	1573.383
592.065	69.117	1574.419	1573.802
593.080	69.421	1572.354	1573.578
594.094	69.754	1571.624	1574.890
595.109	69.936	1571.266	1575.552
596.123	70.003	1569.579	1574.122
597.138	69.907	1568.539	1572.248
598.153	69.509	1565.878	1566.747
599.167	69.355	1564.839	1564.490
600.182	69.529	1563.796	1564.416
601.196	69.479	1562.802	1562.902
602.211	69.275	1561.483	1560.040
603.226	68.773	1559.419	1554.462
604.240	68.820	1558.050	1553.229
605.255	68.881	1556.710	1552.107
606.269	68.588	1555.822	1549.097
607.284	68.390	1554.887	1546.671
608.299	68.428	1552.319	1544.182
609.313	68.205	1551.985	1542.189
610.328	68.274	1550.236	1540.724
611.342	68.094	1548.557	1537.686
612.357	68.056	1547.320	1536.019
613.372	67.961	1546.599	1534.499
614.386	67.955	1544.853	1532.539
615.401	67.886	1544.544	1531.598
616.415	67.745	1543.301	1529.252
617.430	67.416	1541.650	1525.273
618.445	67.117	1539.987	1521.490
619.459	67.414	1538.885	1522.161
620.474	67.653	1538.713	1523.372
621.488	68.206	1538.586	1526.681
622.503	69.210	1538.836	1533.298
623.518	68.506	1536.051	1525.753
624.532	67.522	1533.556	1516.683
625.547	67.449	1531.956	1514.443
626.561	67.146	1530.657	1511.004
627.576	66.737	1530.657	1508.162
628.591	67.474	1530.148	1512.273
629.605	68.136	1529.936	1516.180
630.620	68.650	1529.454	1518.854
631.634	69.360	1529.074	1522.895
632.649	69.403	1527.382	1521.309
633.663	68.596	1524.906	1513.443
634.678	67.778	1522.352	1505.449
635.693	67.163	1519.903	1498.877
636.707	66.837	1518.820	1495.525
637.722	66.716	1517.149	1492.919
638.736	67.130	1515.717	1493.999
639.751	67.442	1515.466	1495.578
640.766	67.748	1514.614	1496.519
641.780	67.482	1513.553	1493.584
642.795	67.919	1512.606	1495.275
643.809	67.961	1512.054	1494.815
644.824	68.068	1512.248	1495.514
645.839	68.332	1511.251	1496.037
646.853	68.262	1509.894	1494.068
647.868	68.435	1508.849	1493.958
648.882	68.674	1507.449	1493.921
649.897	68.982	1506.417	1494.680
650.912	68.864	1505.209	1492.552
651.926	69.028	1504.113	1492.330
652.941	68.863	1502.760	1489.755
653.955	68.445	1501.668	1485.844
654.970	68.101	1498.886	1480.730
655.985	67.585	1497.516	1475.930
656.999	67.477	1495.459	1473.037
658.014	67.710	1494.109	1473.003
659.028	67.917	1494.119	1474.146
660.043	68.557	1494.323	1478.213
661.058	69.104	1492.876	1480.054
662.072	68.887	1492.139	1477.782
663.087	69.119	1490.979	1477.916
664.101	68.951	1489.946	1475.654
665.116	68.629	1488.615	1472.136
666.131	68.306	1487.199	1468.533
667.145	68.263	1486.031	1466.928
668.160	68.218	1484.562	1465.025
669.174	67.979	1482.268	1461.088
670.189	67.882	1481.668	1459.709
671.204	67.930	1481.414	1459.587
672.218	67.995	1480.397	1458.813
673.233	68.047	1479.010	1457.597
674.247	67.789	1476.292	1453.138
675.262	67.583	1475.290	1450.691
676.276	67.560	1473.819	1448.930
677.291	67.270	1474.144	1447.268
678.306	68.019	1472.919	1450.546
679.320	67.753	1471.284	1447.110
680.335	67.369	1470.511	1443.797
681.349	67.244	1469.827	1442.174
682.364	67.310	1468.906	1441.504
683.379	67.163	1467.499	1439.041
684.393	67.061	1465.700	1436.472
685.408	66.905	1464.469	1434.130
686.422	66.974	1463.108	1433.050
687.437	66.920	1461.797	1431.258
688.452	66.485	1460.844	1427.469
689.466	66.276	1459.238	1424.440
690.481	66.512	1458.000	1424.519
691.495	66.815	1458.303	1426.509
692.510	68.158	1459.284	1435.560
693.525	69.171	1458.494	1440.824
694.539	68.818	1456.120	1436.144
695.554	67.229	1453.370	1423.537
696.568	66.532	1451.820	1417.579
697.583	66.417	1450.744	1415.655
698.598	66.631	1450.049	1416.112
699.612	66.565	1448.858	1414.376
700.627	66.322	1448.575	1412.443
701.641	67.099	1447.302	1415.777
702.656	67.454	1445.685	1416.185
703.671	67.143	1445.321	1413.764
704.685	67.297	1445.425	1414.636
705.700	67.569	1444.414	1415.129
706.714	67.866	1442.985	1415.367
707.729	68.429	1441.735	1417.378
708.744	68.441	1441.111	1416.667
709.758	68.500	1439.877	1415.643
710.773	67.696	1438.468	1409.226
711.787	67.185	1436.890	1404.424
712.802	67.957	1435.375	1407.431
713.816	68.271	1435.193	1408.977
714.831	68.300	1435.079	1408.875
715.846	68.236	1433.177	1406.453
716.860	67.874	1431.947	1402.896
717.875	68.030	1430.299	1402.050
718.889	68.131	1429.604	1401.811
719.904	67.849	1428.336	1398.706
720.919	67.800	1426.618	1396.560
721.933	67.638	1426.035	1394.855
722.948	67.524	1424.967	1392.958
723.962	67.187	1423.441	1389.284
724.977	67.248	1421.736	1387.815
725.992	67.078	1420.918	1385.835
727.006	67.119	1420.097	1385.115
728.021	67.164	1418.145	1383.311
729.035	67.073	1416.817	1381.307
730.050	67.026	1416.313	1380.372
731.065	67.089	1414.990	1379.292
732.079	66.958	1413.626	1377.016
733.094	67.003	1412.486	1376.006
734.108	67.235	1411.126	1375.891
735.123	67.090	1409.701	1373.478
736.138	67.052	1408.594	1372.010
737.152	66.695	1408.090	1369.246
738.167	66.687	1406.604	1367.591
739.181	66.867	1405.569	1367.479
740.196	66.721	1405.178	1366.073
741.211	66.597	1404.132	1364.162
742.225	66.602	1403.215	1363.139
743.240	66.550	1401.394	1360.896
744.254	66.423	1399.527	1358.174
745.269	66.198	1398.056	1355.263
746.284	66.079	1397.474	1353.838
747.298	66.041	1396.943	1352.942
748.313	66.520	1396.480	1355.134
749.327	67.446	1396.779	1360.683
750.342	68.073	1397.140	1364.541
751.356	68.866	1396.661	1368.538
752.371	68.672	1394.540	1365.166
753.386	67.380	1391.163	1354.176
754.400	66.337	1390.144	1346.946
755.415	66.543	1389.134	1347.007
756.429	66.694	1388.456	1347.064
757.444	66.863	1387.439	1346.897
758.459	66.683	1386.431	1344.714
759.473	66.458	1385.720	1342.557
760.488	66.935	1383.675	1343.181
761.502	66.820	1383.303	1341.990
762.517	67.095	1382.318	1342.463
763.532	67.563	1380.983	1343.710
764.546	67.867	1379.371	1343.733
765.561	67.369	1378.769	1340.116
766.575	66.939	1377.037	1335.795
767.590	66.586	1376.172	1332.761
768.605	67.137	1375.915	1335.525
769.619	67.829	1375.435	1338.875
770.634	67.731	1374.162	1336.913
771.648	67.425	1371.812	1332.712
772.663	66.911	1370.831	1328.656
773.678	66.776	1370.181	1327.093
774.692	66.747	1368.968	1325.592
775.707	66.673	1368.429	1324.484
776.721	66.315	1367.491	1321.372
777.736	66.399	1366.310	1320.555
778.751	66.295	1365.986	1319.489
779.765	66.393	1363.993	1317.959
780.780	66.186	1363.054	1315.714
781.794	66.439	1361.905	1315.887
782.809	66.230	1360.630	1313.313
783.824	65.904	1359.999	1310.689
784.838	66.042	1360.104	1311.420
785.853	67.501	1359.557	1319.015
786.867	67.233	1358.729	1316.537
787.882	66.752	1357.012	1311.988
788.897	66.456	1355.426	1308.624
789.911	66.093	1353.809	1304.851
790.926	65.900	1352.514	1302.355
791.940	65.756	1351.322	1300.240
792.955	65.709	1349.317	1297.890
793.969	65.727	1349.026	1297.556
794.984	65.880	1348.510	1297.766
795.999	66.244	1346.772	1297.984
797.013	66.154	1345.156	1295.765
798.028	65.942	1343.994	1293.303
799.042	66.006	1343.616	1293.141
800.057	65.961	1342.890	1292.036
801.072	66.298	1341.233	1292.171
802.086	66.265	1340.243	1290.877
803.101	65.986	1339.130	1288.090
804.115	65.943	1338.450	1287.040
805.130	66.124	1337.760	1287.235
806.145	66.150	1336.242	1285.764
807.159	66.647	1334.680	1286.871
808.174	66.860	1334.149	1287.388
809.188	66.882	1333.706	1286.928
810.203	67.202	1332.293	1287.183
811.218	67.029	1331.060	1284.881
812.232	66.817	1329.674	1282.215
813.247	66.284	1328.061	1277.557
814.261	66.540	1328.728	1279.461
815.276	66.902	1327.278	1279.908
816.291	66.669	1325.356	1276.617
817.305	66.221	1324.591	1273.261
818.320	66.070	1322.792	1270.543
819.334	66.100	1321.623	1269.436
820.349	66.116	1320.462	1268.254
821.364	65.797	1318.958	1264.908
822.378	65.883	1317.626	1263.950
823.393	65.899	1316.083	1262.408
824.407	65.853	1314.341	1260.332
825.422	65.655	1314.259	1259.019
826.437	65.603	1313.523	1257.880
827.451	65.687	1312.051	1256.778
828.466	66.492	1312.106	1261.066
829.480	67.228	1310.855	1263.721
830.495	66.622	1307.925	1257.452
831.509	65.880	1306.142	1251.562
832.524	65.635	1305.194	1249.170
833.539	65.382	1304.337	1246.830
834.553	65.517	1303.399	1246.518
835.568	65.390	1302.158	1244.490
836.582	65.494	1301.256	1244.043
837.597	65.703	1299.722	1243.556
838.612	65.923	1298.014	1242.957
839.626	65.861	1297.667	1242.145
840.641	66.343	1297.565	1244.492
841.655	66.506	1296.264	1243.974
842.670	66.253	1295.096	1241.341
843.685	65.997	1293.994	1238.761
844.699	66.180	1293.107	1238.746
845.714	66.216	1291.760	1237.499
846.728	66.151	1290.560	1235.854
847.743	66.017	1289.774	1234.236
848.758	66.029	1288.010	1232.464
849.772	65.681	1286.984	1229.475
850.787	65.612	1285.351	1227.402
851.801	65.569	1283.908	1225.647
852.816	65.661	1282.948	1225.072
853.831	65.300	1281.718	1221.826
854.845	65.428	1279.770	1220.507
855.860	65.269	1278.228	1218.047
856.874	65.409	1277.177	1217.638
857.889	65.694	1277.494	1219.302
858.904	66.374	1277.350	1222.622
859.918	67.071	1276.303	1225.151
860.933	67.653	1274.911	1226.738
861.947	67.095	1273.022	1221.838
862.962	66.264	1271.504	1215.859
863.977	66.051	1269.087	1212.283
864.991	65.406	1267.805	1207.527
866.006	65.086	1268.042	1205.922
867.020	65.138	1267.062	1205.122
868.035	65.289	1265.060	1203.866
869.049	65.383	1264.118	1203.312
870.064	65.517	1263.245	1203.038
871.079	65.633	1262.431	1202.724
872.093	65.559	1262.357	1202.125
873.108	65.659	1261.719	1201.896
874.122	65.759	1260.228	1200.854
875.137	65.890	1260.012	1201.184
876.152	66.025	1259.140	1200.913
877.166	65.778	1257.264	1197.693
878.181	65.722	1255.756	1195.822
879.195	65.555	1255.384	1194.459
880.210	65.389	1254.229	1192.356
881.225	65.166	1253.092	1189.976
882.239	65.270	1251.827	1189.170
883.254	65.272	1250.667	1187.934
884.268	65.240	1249.860	1186.857
885.283	65.276	1248.967	1186.053
886.298	65.248	1247.125	1184.020
887.312	65.148	1245.825	1182.130
888.327	65.224	1244.483	1181.101
889.341	65.117	1243.442	1179.421
890.356	65.266	1242.820	1179.455
891.371	65.177	1243.016	1179.042
892.385	65.080	1242.361	1177.780
893.400	65.183	1241.279	1177.143
894.414	65.287	1240.366	1176.671
895.429	65.809	1239.002	1177.906
896.444	66.819	1239.805	1183.688
897.458	68.039	1239.033	1189.031
898.473	67.242	1237.220	1183.092
899.487	66.263	1235.026	1175.874
900.502	65.596	1233.318	1170.712
901.517	65.268	1231.787	1167.449
902.531	65.144	1230.799	1165.746
903.546	65.044	1230.163	1164.496
904.560	65.053	1229.060	1163.355
905.575	65.043	1228.373	1162.517
906.589	65.249	1227.057	1162.173
907.604	65.467	1226.067	1162.197
