DTS Sentinel unit serial number:	SN409020Multiplexer serial number:	ORYXHardware model number:	OX4-SRSoftware version number:	ORYX F/W v3.00 Oryx Data Collector v3.7.2.0data status	okinstallation	HaddamTimeLapsedifferential loss correction	single-endedforward channel	channel 3reverse channel	N/Adate	2011/06/22time	05:16:17forward acquisition time	30.00reverse acquisition time	0.00gamma	498.7831k internal	0.1752k external	0.1752temperature offset calibration	1.0074default loss term (dB/km)	0.3790temperature slope calibration	1.3530multiplexer offset coefficient	1.0000multiplexer slope coefficient	1.0000fibre end	0.00T internal ref (°C)	22.62T ext. ref 1 (°C)	17.65T ext. ref 2 (°C)	0.15length (m)	temperature (°C)	Stokes	anti-Stokes-747.200	-148.930	-0.558	-0.059
-746.185	-174.836	0.245	-0.009
-745.171	-30.814	0.249	0.186
-744.156	2.157	-0.048	0.046
-743.142	-69.536	-0.558	-0.283
-742.127	800.000	-0.050	0.285
-741.112	-200.000	0.054	0.446
-740.098	610.747	-0.185	0.616
-739.083	-146.191	0.321	-0.037
-738.069	183.105	0.290	0.570
-737.054	-37.746	-0.518	0.365
-736.039	534.878	0.045	0.143
-735.025	-200.000	0.020	0.560
-734.010	213.102	0.060	0.126
-732.996	-101.635	-0.453	-0.145
-731.981	-88.398	0.428	-0.169
-730.966	800.000	-0.064	-0.364
-729.952	-34.960	-0.415	-0.300
-728.937	586.877	-0.154	-0.505
-727.923	-200.000	-0.020	-0.215
-726.908	-47.901	0.380	-0.244
-725.894	331.626	0.046	0.118
-724.879	-168.929	0.541	-0.026
-723.864	128.921	0.333	-0.564
-722.850	-200.000	-0.006	0.136
-721.835	-51.586	-0.257	-0.159
-720.821	17.983	-0.156	0.165
-719.806	-37.305	0.032	0.022
-718.791	56.774	-0.274	-0.354
-717.777	-154.147	0.411	0.036
-716.762	359.990	-0.074	-0.197
-715.748	9.589	0.535	-0.538
-714.733	-95.469	0.240	0.085
-713.718	-79.014	0.196	-0.088
-712.704	2.012	-0.066	-0.063
-711.689	129.063	-0.303	-0.515
-710.675	-90.041	0.389	-0.150
-709.660	-200.000	-0.028	-0.268
-708.645	102.081	-0.232	-0.361
-707.631	93.771	0.043	-0.065
-706.616	15.688	0.059	-0.061
-705.602	258.090	0.017	0.039
-704.587	140.277	-0.055	-0.096
-703.572	85.684	-0.143	0.208
-702.558	-42.998	-0.242	0.162
-701.543	-40.748	-0.363	0.249
-700.529	273.562	-0.134	0.316
-699.514	-40.457	-0.307	0.211
-698.499	79.167	0.259	0.369
-697.485	-4.229	0.051	0.047
-696.470	458.100	0.138	-0.408
-695.456	-138.707	0.572	-0.082
-694.441	-20.970	-0.370	0.300
-693.426	19.881	-0.141	0.151
-692.412	-200.000	-0.018	-0.298
-691.397	-179.760	0.408	-0.011
-690.383	20.254	0.040	-0.043
-689.368	-116.027	0.355	-0.087
-688.354	-37.685	-0.250	-0.176
-687.339	800.000	0.075	-0.416
-686.324	209.604	-0.055	0.114
-685.310	-88.760	0.316	0.124
-684.295	-37.677	-0.079	-0.056
-683.281	-87.928	-0.160	-0.063
-682.266	132.968	-0.059	0.102
-681.251	-200.000	-0.033	-0.499
-680.237	169.622	0.117	-0.222
-679.222	21.580	-0.127	0.137
-678.208	-175.350	0.211	-0.008
-677.193	-175.622	0.119	0.004
-676.178	9.592	0.264	0.264
-675.164	-45.378	-0.329	-0.215
-674.149	245.333	0.125	-0.279
-673.135	-69.815	0.081	0.041
-672.120	-13.442	-0.103	0.088
-671.105	-180.109	-0.135	-0.004
-670.091	166.312	-0.150	-0.282
-669.076	-123.691	-0.343	-0.071
-668.062	92.030	0.241	0.359
-667.047	-189.276	0.285	0.004
-666.032	23.539	0.240	-0.262
-665.018	39.514	0.124	-0.148
-664.003	132.428	0.169	0.289
-662.989	234.689	0.064	0.141
-661.974	79.275	0.155	0.221
-660.959	-93.459	0.097	0.035
-659.945	-127.227	-0.144	-0.028
-658.930	-161.713	0.372	0.025
-657.916	-26.324	-0.438	0.340
-656.901	61.860	-0.336	0.443
-655.886	-6.725	-0.196	-0.176
-654.872	-88.132	0.106	-0.042
-653.857	-157.802	-0.090	0.007
-652.843	800.000	-0.044	0.244
-651.828	-200.000	-0.014	-0.108
-650.814	161.215	0.032	-0.060
-649.799	225.880	0.143	-0.309
-648.784	297.271	0.102	-0.250
-647.770	-8.558	0.201	-0.178
-646.755	800.000	-0.075	-0.402
-645.741	-22.403	0.330	0.264
-644.726	-156.132	0.461	0.038
-643.711	-71.286	0.071	-0.035
-642.697	59.030	-0.008	0.011
-641.682	-65.419	0.491	0.260
-640.668	-131.887	0.322	0.055
-639.653	-166.146	0.349	0.019
-638.638	22.551	-0.179	0.194
-637.624	-200.000	-0.013	0.236
-636.609	-41.263	-0.458	0.312
-635.595	-156.131	0.102	-0.008
-634.580	-117.242	-0.469	0.112
-633.565	800.000	-0.023	0.135
-632.551	-47.468	-0.435	-0.279
-631.536	-84.653	0.258	0.107
-630.522	-200.000	0.067	0.404
-629.507	136.428	-0.172	0.297
-628.492	-117.825	-0.217	0.051
-627.478	477.126	-0.054	0.161
-626.463	-62.262	0.348	-0.191
-625.449	-200.000	-0.010	0.244
-624.434	-43.449	0.245	-0.163
-623.419	-200.000	0.056	-0.344
-622.405	41.685	0.216	-0.258
-621.390	752.049	0.057	-0.204
-620.376	588.411	-0.072	-0.237
-619.361	-200.000	-0.011	-0.374
-618.346	111.199	-0.288	0.460
-617.332	-1.303	-0.267	0.249
-616.317	-27.013	0.249	0.191
-615.303	-185.659	0.112	0.002
-614.288	778.453	0.119	0.432
-613.273	454.029	-0.073	0.215
-612.259	-101.595	-0.118	0.038
-611.244	-56.552	0.469	0.274
-610.230	262.220	0.081	-0.185
-609.215	-178.166	-0.263	-0.008
-608.201	-153.356	0.687	0.062
-607.186	161.419	-0.148	-0.274
-606.171	125.104	-0.081	-0.134
-605.157	378.879	0.202	-0.549
-604.142	110.898	-0.229	-0.365
-603.128	-113.601	-0.586	-0.150
-602.113	800.000	-0.078	0.405
-601.098	38.256	-0.327	0.385
-600.084	-95.957	0.422	0.147
-599.069	95.938	0.197	-0.298
-598.055	-6.616	-0.292	0.263
-597.040	-80.008	-0.425	0.188
-596.025	-70.959	0.606	0.300
-595.011	-200.000	0.027	0.158
-593.996	554.802	-0.033	-0.106
-592.982	255.459	-0.052	-0.118
-591.967	237.007	-0.036	0.079
-590.952	459.091	-0.128	0.377
-589.938	26.095	-0.271	-0.299
-588.923	-200.000	-0.067	-0.468
-587.909	-64.856	-0.065	0.035
-586.894	800.000	0.088	-0.442
-585.879	-9.122	-0.243	0.214
-584.865	523.998	-0.190	0.592
-583.850	319.927	-0.174	-0.438
-582.836	-11.870	0.068	-0.059
-581.821	-200.000	-0.016	-0.559
-580.806	270.798	-0.279	-0.650
-579.792	-115.493	0.193	0.048
-578.777	-60.286	-0.149	-0.083
-577.763	-19.813	0.169	-0.138
-576.748	41.093	0.257	0.306
-575.733	80.831	-0.189	-0.270
-574.719	183.549	0.046	0.089
-573.704	124.943	-0.178	-0.297
-572.690	38.456	-0.490	-0.576
-571.675	-107.977	0.290	0.083
-570.661	28.082	0.359	-0.400
-569.646	107.754	0.063	-0.100
-568.631	-70.975	0.194	-0.096
-567.617	-70.319	0.613	-0.305
-566.602	-109.385	0.298	-0.082
-565.588	-91.968	0.438	0.163
-564.573	-137.623	0.375	0.055
-563.558	-200.000	0.028	-0.278
-562.544	388.116	-0.093	-0.256
-561.529	-12.989	-0.251	-0.215
-560.515	65.205	0.099	-0.132
-559.500	162.498	-0.104	-0.193
-558.485	-87.793	-0.103	0.041
-557.471	171.591	-0.304	0.577
-556.456	-69.412	0.247	-0.124
-555.442	-155.217	-0.119	0.010
-554.427	45.971	0.158	0.193
-553.412	551.094	-0.058	0.183
-552.398	5.011	-0.344	0.334
-551.383	365.259	0.061	-0.163
-550.369	122.174	-0.162	-0.268
-549.354	-132.743	0.285	0.048
-548.339	282.669	-0.130	0.309
-547.325	-155.382	-0.388	-0.033
-546.310	-94.401	-0.184	-0.066
-545.296	18.912	0.054	-0.057
-544.281	4.192	0.406	-0.392
-543.266	-200.000	-0.055	0.539
-542.252	792.180	0.107	0.391
-541.237	-13.558	0.320	0.273
-540.223	800.000	0.103	-0.402
-539.208	9.862	-0.174	-0.174
-538.193	-156.965	0.083	0.007
-537.179	17.493	0.114	-0.119
-536.164	-123.818	-0.357	-0.074
-535.150	58.669	-0.161	-0.208
-534.135	800.000	-0.039	-0.210
-533.121	1.817	0.170	0.161
-532.106	66.722	0.162	0.217
-531.091	-66.472	0.270	-0.141
-530.077	-161.131	0.411	0.028
-529.062	-125.007	-0.305	0.061
-528.048	-130.542	-0.369	0.065
-527.033	-132.010	0.409	0.069
-526.018	565.612	0.025	-0.079
-525.004	-200.000	0.029	-0.517
-523.989	93.994	0.139	0.208
-522.975	-38.481	-0.388	0.269
-521.960	215.012	-0.029	0.061
-520.945	-90.994	0.320	-0.120
-519.931	-90.575	-0.331	-0.125
-518.916	588.050	-0.126	-0.410
-517.902	157.751	0.251	0.459
-516.887	800.000	0.036	0.178
-515.872	-85.730	0.122	-0.050
-514.858	-184.050	-0.249	-0.005
-513.843	-19.962	-0.272	-0.221
-512.829	10.601	0.188	-0.189
-511.814	23.690	-0.375	0.406
-510.799	106.665	-0.292	-0.457
-509.785	800.000	-0.040	0.206
-508.770	25.481	-0.178	-0.195
-507.756	-104.760	-0.126	-0.038
-506.741	-200.000	-0.007	-0.114
-505.726	-109.818	0.146	-0.040
-504.712	75.254	-0.264	-0.367
-503.697	187.105	-0.048	-0.095
-502.683	24.990	-0.159	0.174
-501.668	-98.380	-0.629	-0.211
-500.653	-56.562	0.127	0.074
-499.639	33.256	-0.281	0.321
-498.624	-44.901	0.370	-0.242
-497.610	-200.000	0.000	0.451
-496.595	-82.509	-0.260	0.110
-495.581	-53.748	-0.232	0.139
-494.566	-33.879	-0.036	0.026
-493.551	23.168	-0.134	-0.144
-492.537	-194.560	0.023	0.000
-491.522	48.211	-0.087	-0.108
-490.508	459.080	0.192	0.566
-489.493	800.000	-0.073	-0.318
-488.478	-200.000	-0.029	-0.322
-487.464	-28.661	-0.080	-0.061
-486.449	4.035	-0.139	0.133
-485.435	573.523	0.094	-0.304
-484.420	-200.000	-0.113	0.782
-483.405	-113.602	0.153	0.039
-482.391	-193.151	-0.355	-0.004
-481.376	234.500	0.150	-0.325
-480.362	9.555	-0.127	-0.127
-479.347	426.395	-0.122	0.347
-478.332	253.917	0.101	0.227
-477.318	-93.679	-0.489	0.176
-476.303	-69.480	0.275	0.138
-475.289	-200.000	0.007	-0.410
-474.274	-162.565	-0.195	-0.012
-473.259	-122.960	-0.227	0.048
-472.245	112.330	0.153	-0.243
-471.230	-104.265	-0.808	0.245
-470.216	-112.907	0.413	-0.107
-469.201	27.553	-0.365	0.403
-468.186	-109.580	0.350	0.096
-467.172	-183.796	0.401	0.009
-466.157	-21.734	0.143	-0.114
-465.143	-122.038	-0.243	0.052
-464.128	388.154	0.010	0.027
-463.113	-45.798	0.613	-0.397
-462.099	145.111	0.130	0.229
-461.084	294.839	0.149	-0.360
-460.070	-19.170	-0.401	-0.326
-459.055	138.350	0.157	0.271
-458.040	-42.423	0.353	-0.236
-457.026	-200.000	-0.010	-0.197
-456.011	10.544	0.087	-0.087
-454.997	-157.582	0.165	-0.013
-453.982	800.000	0.043	0.247
-452.968	115.273	-0.230	-0.370
-451.953	-55.065	0.277	-0.163
-450.938	-76.941	-0.278	0.127
-449.924	-103.641	0.056	-0.017
-448.909	800.000	-0.034	-0.163
-447.895	-17.167	-0.161	-0.133
-446.880	104.778	0.199	-0.308
-445.865	77.603	0.065	-0.091
-444.851	128.110	0.124	0.207
-443.836	-200.000	-0.043	0.255
-442.822	-200.000	-0.011	0.334
-441.807	-59.046	-0.047	0.026
-440.792	-195.475	0.336	0.003
-439.778	116.353	-0.148	-0.238
-438.763	232.489	-0.108	-0.233
-437.749	32.359	0.204	-0.232
-436.734	-10.054	0.168	-0.147
-435.719	53.716	0.116	-0.147
-434.705	-32.503	-0.203	-0.148
-433.690	800.000	-0.065	0.315
-432.676	792.137	0.040	-0.146
-431.661	-42.778	0.304	0.202
-430.646	-58.934	0.426	-0.241
-429.632	318.113	0.206	0.515
-428.617	146.585	-0.087	0.153
-427.603	288.071	-0.204	0.486
-426.588	-200.000	-0.007	-0.120
-425.573	89.674	0.275	-0.403
-424.559	-155.273	0.753	-0.063
-423.544	178.100	0.127	0.243
-422.530	-166.454	0.095	0.005
-421.515	-18.929	-0.076	-0.062
-420.500	-74.655	-0.132	0.062
-419.486	-138.130	0.108	0.016
-418.471	59.584	0.169	0.219
-417.457	-28.324	-0.110	0.083
-416.442	800.000	0.028	-0.153
-415.428	-35.564	0.060	0.043
-414.413	-200.000	0.007	-0.110
-413.398	-87.645	-0.484	0.190
-412.384	50.945	-0.148	-0.184
-411.369	-114.218	-0.395	-0.099
-410.355	123.801	0.271	0.447
-409.340	-163.973	-0.218	0.013
-408.325	-96.613	0.054	0.019
-407.311	-6.671	0.484	0.431
-406.296	-6.598	0.402	-0.358
-405.282	5.868	-0.405	-0.393
-404.267	-200.000	0.051	-0.553
-403.252	-86.218	-0.122	0.049
-402.238	68.857	-0.176	-0.238
-401.223	-43.797	0.042	0.028
-400.209	94.458	-0.011	0.017
-399.194	-200.000	-0.207	0.000
-398.179	561.801	-0.123	-0.390
-397.165	71.622	-0.175	-0.238
-396.150	-63.629	-0.333	-0.178
-395.136	-23.469	-0.235	0.185
-394.121	-16.658	-0.273	-0.226
-393.106	80.338	-0.285	0.402
-392.092	-97.161	0.572	0.195
-391.077	-128.280	0.490	-0.091
-390.063	139.351	-0.234	0.405
-389.048	800.000	0.061	0.284
-388.033	-49.996	-0.452	0.280
-387.019	800.000	0.064	-0.294
-386.004	-200.000	-0.010	0.092
-384.990	-200.000	-0.070	0.474
-383.975	28.302	0.152	-0.168
-382.960	-103.854	0.361	-0.110
-381.946	-130.508	-0.396	0.069
-380.931	-200.000	0.015	0.314
-379.917	130.386	-0.189	0.318
-378.902	-114.752	-0.208	-0.052
-377.888	-195.819	0.554	-0.005
-376.873	-200.000	0.024	-0.523
-375.858	62.806	-0.203	0.266
-374.844	106.193	-0.072	0.112
-373.829	-140.648	-0.324	-0.043
-372.815	-112.719	0.270	-0.070
-371.800	800.000	0.015	0.063
-370.785	190.871	-0.275	0.542
-369.771	-105.364	0.174	-0.051
-368.756	800.000	0.018	0.086
-367.742	800.000	-0.140	-0.563
-366.727	-114.310	-0.422	0.105
-365.712	-158.213	0.448	0.034
-364.698	20.164	-0.116	-0.122
-363.683	661.214	0.053	-0.180
-362.669	-70.064	-0.368	-0.182
-361.654	-95.795	0.603	-0.209
-360.639	88.360	0.284	-0.414
-359.625	-104.054	0.053	-0.016
-358.610	-71.154	-0.233	-0.114
-357.596	-154.905	-0.560	0.048
-356.581	-122.571	0.334	0.070
-355.566	-90.066	0.558	0.212
-354.552	303.357	-0.095	0.232
-353.537	101.868	0.189	-0.289
-352.523	-173.710	0.604	-0.023
-351.508	219.438	0.131	0.274
-350.493	-120.642	-0.256	-0.056
-349.479	45.060	0.409	-0.493
-348.464	800.000	-0.101	0.374
-347.450	-71.154	0.221	0.108
-346.435	-78.607	0.319	-0.142
-345.420	-200.000	-0.027	-0.216
-344.406	-200.000	0.025	0.370
-343.391	249.778	0.162	0.360
-342.377	-103.952	-0.355	0.107
-341.362	646.748	-0.089	-0.298
-340.348	705.951	-0.183	0.635
-339.333	500.863	0.225	0.682
-338.318	800.000	-0.035	-0.147
-337.304	48.177	-0.426	-0.522
-336.289	-200.000	0.024	-0.563
-335.275	-200.000	0.036	0.344
-334.260	800.000	0.069	0.387
-333.245	-200.000	-0.071	-0.435
-332.231	45.532	-0.190	0.229
-331.216	800.000	-0.047	-0.224
-330.202	-23.721	-0.121	0.095
-329.187	-4.482	0.224	0.202
-328.172	-178.544	-0.337	-0.010
-327.158	16.983	0.366	-0.379
-326.143	-120.640	0.132	-0.029
-325.129	-63.740	0.309	-0.165
-324.114	-68.070	-0.387	0.196
-323.099	163.025	-0.132	0.242
-322.085	24.340	0.363	-0.392
-321.070	194.508	0.200	0.398
-320.056	-195.761	-0.315	-0.003
-319.041	-43.255	0.222	-0.147
-318.026	-29.920	-0.121	-0.090
-317.012	72.812	-0.117	-0.160
-315.997	-141.614	-0.333	0.043
-314.983	-98.918	-0.231	-0.076
-313.968	-50.302	-0.154	0.095
-312.953	139.924	-0.201	0.347
-311.939	-200.000	-0.031	0.228
-310.924	-200.000	-0.032	-0.223
-309.910	4.518	0.388	0.372
-308.895	-64.450	0.376	0.199
-307.880	-92.576	0.420	0.153
-306.866	-133.285	-0.370	0.060
-305.851	-191.431	-0.339	-0.004
-304.837	-200.000	0.010	0.202
-303.822	8.913	0.113	-0.112
-302.807	29.202	0.342	0.379
-301.793	18.934	0.238	0.249
-300.778	77.675	0.139	-0.193
-299.764	288.461	-0.115	-0.272
-298.749	-63.738	-0.267	0.142
-297.735	-60.017	-0.127	-0.071
-296.720	-200.000	0.129	-0.824
-295.705	71.717	-0.212	-0.288
-294.691	358.220	0.173	0.453
-293.676	-95.059	0.435	0.152
-292.662	306.776	-0.096	0.235
-291.647	-200.000	0.024	-0.269
-290.632	-81.460	-0.412	0.176
-289.618	-77.293	-0.207	0.093
-288.603	347.635	-0.098	0.252
-287.589	-200.000	0.009	-0.197
-286.574	-200.000	0.011	0.287
-285.559	-59.548	-0.544	0.303
-284.545	-74.701	0.338	0.158
-283.530	32.720	0.217	-0.245
-282.516	-117.973	0.308	-0.071
-281.501	-170.080	0.435	0.020
-280.486	214.400	0.107	0.222
-279.472	199.070	-0.235	-0.470
-278.457	800.000	0.021	-0.083
-277.443	-179.935	0.250	0.007
-276.428	-134.939	0.187	0.029
-275.413	75.423	0.082	-0.112
-274.399	-103.206	-0.564	-0.173
-273.384	-57.555	0.234	0.133
-272.370	-200.000	0.002	-0.050
-271.355	-96.412	-0.242	0.083
-270.340	-200.000	-0.046	-0.505
-269.326	145.410	0.123	0.215
-268.311	-105.100	0.359	-0.106
-267.297	-118.421	0.072	-0.017
-266.282	610.946	0.177	-0.579
-265.267	-60.821	-0.171	0.094
-264.253	734.971	0.088	0.310
-263.238	75.176	0.136	-0.188
-262.224	122.909	-0.139	0.227
-261.209	71.747	0.198	0.269
-260.195	422.254	0.114	-0.321
-259.180	66.918	0.200	0.266
-258.165	4.406	-0.359	0.342
-257.151	-139.911	0.230	0.031
-256.136	-182.211	-0.060	-0.001
-255.122	-165.846	-0.518	-0.029
-254.107	800.000	-0.099	0.376
-253.092	650.353	-0.156	0.524
-252.078	17.926	0.178	0.185
-251.063	-52.354	-0.249	-0.149
-250.049	527.479	0.110	0.339
-249.034	73.944	-0.330	-0.452
-248.019	-70.795	-0.290	-0.142
-247.005	8.539	-0.347	-0.340
-245.990	-82.209	-0.620	0.262
-244.976	479.841	-0.135	-0.400
-243.961	-200.000	0.068	0.640
-242.946	20.875	0.596	0.629
-241.932	-200.000	0.009	0.113
-240.917	800.000	-0.156	-0.630
-239.903	-55.866	0.098	-0.057
-238.888	-63.592	0.548	-0.292
-237.873	21.310	0.151	0.159
-236.859	-200.000	-0.057	0.566
-235.844	236.411	0.082	0.178
-234.830	28.990	-0.130	0.144
-233.815	603.127	0.186	0.606
-232.800	-38.351	-0.207	0.142
-231.786	-74.480	-0.250	0.117
-230.771	-74.937	-0.092	0.043
-229.757	-83.964	-0.245	-0.101
-228.742	-101.550	-0.075	-0.023
-227.727	567.810	0.164	0.521
-226.713	238.955	0.205	0.446
-225.698	283.670	0.080	-0.187
-224.684	-72.602	-0.303	0.145
-223.669	-57.876	0.159	0.090
-222.655	-200.000	0.020	0.116
-221.640	-16.370	-0.266	-0.219
-220.625	-104.002	0.156	-0.047
-219.611	19.545	-0.154	0.161
-218.596	27.118	0.282	-0.308
-217.582	-200.000	0.001	0.316
-216.567	422.914	-0.038	-0.108
-215.552	-88.827	-0.141	-0.054
-214.538	194.852	-0.299	0.592
-213.523	-20.672	-0.235	0.188
-212.509	64.453	0.128	0.168
-211.494	-171.600	-0.231	0.010
-210.479	-102.655	0.385	0.119
-209.465	-19.740	-0.477	0.383
-208.450	-52.640	0.317	-0.190
-207.436	10.723	-0.087	-0.086
-206.421	-4.364	-0.368	-0.330
-205.406	-59.163	0.415	0.232
-204.392	-101.537	-0.223	0.070
-203.377	-140.890	-0.791	0.105
-202.363	372.750	-0.120	0.320
-201.348	450.187	-0.125	-0.360
-200.333	-143.440	0.365	0.045
-199.319	800.000	-0.124	-0.599
-198.304	31.463	0.235	-0.262
-197.290	-200.000	0.014	-0.402
-196.275	-4.570	-0.290	-0.260
-195.260	140.375	-0.046	0.080
-194.246	800.000	0.072	-0.307
-193.231	8.595	0.320	-0.313
-192.217	7.322	-0.175	-0.170
-191.202	-200.000	-0.044	0.352
-190.187	15.766	-0.145	-0.148
-189.173	-9.505	-0.363	0.315
-188.158	-152.291	0.406	-0.038
-187.144	-125.899	0.199	-0.039
-186.129	-40.531	-0.052	-0.035
-185.114	-200.000	0.012	0.164
-184.100	-36.959	-0.460	-0.320
-183.085	92.709	-0.252	-0.369
-182.071	22.287	0.213	0.226
-181.056	49.435	-0.178	-0.218
-180.042	-200.000	0.053	-0.618
-179.027	-31.886	0.322	0.234
-178.012	-101.904	0.150	-0.047
-176.998	72.481	0.028	-0.038
-175.983	104.149	-0.100	0.153
-174.969	433.801	0.061	-0.173
-173.954	800.000	-0.054	-0.204
-172.939	-49.891	0.190	-0.117
-171.925	-200.000	-0.004	-0.334
-170.910	-200.000	0.024	0.275
-169.896	800.000	-0.086	-0.351
-168.881	55.893	-0.314	0.396
-167.866	19.434	0.275	-0.287
-166.852	-55.063	-0.060	0.035
-165.837	-55.299	-0.154	-0.089
-164.823	92.749	0.083	-0.123
-163.808	-106.198	0.117	0.034
-162.793	169.464	0.222	0.412
-161.779	-200.000	-0.001	-0.136
-160.764	-31.054	0.153	-0.112
-159.750	-19.175	0.224	0.181
-158.735	0.290	-0.114	-0.105
-157.720	-71.385	0.453	0.219
-156.706	406.790	-0.104	-0.285
-155.691	-77.217	-0.480	-0.216
-154.677	-66.593	-0.244	-0.125
-153.662	152.434	-0.240	0.427
-152.647	-155.797	0.503	-0.041
-151.633	-15.663	0.304	0.252
-150.618	9.826	0.615	0.605
-149.604	-81.900	-0.098	-0.041
-148.589	142.992	-0.310	0.535
-147.574	-161.376	0.228	-0.015
-146.560	-30.886	0.358	-0.262
-145.545	720.757	0.065	-0.226
-144.531	10.706	-0.096	-0.095
-143.516	-117.542	0.585	-0.136
-142.502	-200.000	0.030	-0.396
-141.487	-23.277	0.138	0.108
-140.472	156.778	0.214	0.384
-139.458	145.068	-0.117	0.203
-138.443	800.000	0.192	1.028
-137.429	-143.623	-0.301	-0.037
-136.414	800.000	0.010	0.056
-135.399	-200.000	-0.030	0.400
-134.385	94.157	-0.169	0.250
-133.370	-43.509	-0.447	-0.292
-132.356	62.762	-0.111	-0.144
-131.341	-165.233	-0.253	0.014
-130.326	-200.000	0.029	-0.239
-129.312	-123.845	-0.256	-0.052
-128.297	-46.287	-0.259	0.165
-127.283	-121.660	-0.084	0.018
-126.268	70.934	-0.121	0.162
-125.253	623.815	-0.072	-0.238
-124.239	-119.056	-0.246	-0.055
-123.224	-200.000	0.022	0.496
-122.210	108.662	-0.084	-0.130
-121.195	-61.355	-0.367	-0.200
-120.180	-200.000	0.042	-0.434
-119.166	86.197	0.301	-0.431
-118.151	-200.000	-0.045	0.433
-117.137	-90.777	0.465	-0.173
-116.122	-104.808	-0.389	0.115
-115.107	26.442	0.288	0.313
-114.093	-105.279	0.557	-0.163
-113.078	-148.733	-0.235	0.024
-112.064	-4.757	-0.129	0.115
-111.049	12.720	0.262	0.262
-110.034	2.284	0.459	0.430
-109.020	-200.000	-0.000	0.188
-108.005	267.967	0.078	-0.178
-106.991	37.506	0.322	0.370
-105.976	1.650	0.241	0.224
-104.962	-142.153	-0.259	-0.033
-103.947	68.824	-0.101	0.134
-102.932	-25.977	0.374	0.285
-101.918	-168.230	0.194	0.010
-100.903	-89.912	-0.121	-0.045
-99.889	-154.568	-0.563	0.048
-98.874	800.000	-0.043	-0.167
-97.859	-200.000	0.060	0.411
-96.845	-149.371	0.124	0.013
-95.830	-145.142	0.227	0.026
-94.816	-200.000	0.039	-0.259
-93.801	-85.137	0.260	0.105
-92.786	6.776	0.213	0.205
-91.772	3.159	0.235	0.221
-90.757	-101.931	-0.336	0.104
-89.743	-80.896	0.047	0.020
-88.728	-91.754	0.574	0.210
-87.713	800.000	0.017	0.094
-86.699	-143.088	0.567	-0.070
-85.684	-200.000	0.053	-0.442
-84.670	-38.385	0.501	0.342
-83.655	-62.404	0.383	0.205
-82.640	47.231	-0.298	-0.360
-81.626	-21.378	0.162	0.128
-80.611	-200.000	-0.034	-0.490
-79.597	-50.752	0.139	-0.084
-78.582	40.119	0.225	-0.262
-77.567	231.130	0.065	0.138
-76.553	-156.180	0.696	-0.056
-75.538	-21.489	0.832	0.656
-74.524	401.940	0.143	0.391
-73.509	161.089	0.049	0.088
-72.494	-176.118	-0.406	0.014
-71.480	-64.937	0.133	0.069
-70.465	216.239	-0.041	-0.084
-69.451	-77.216	-0.230	-0.103
-68.436	-200.000	0.024	-0.305
-67.422	-82.865	0.308	-0.128
-66.407	-12.908	-0.161	-0.135
-65.392	381.695	0.054	-0.145
-64.378	800.000	-0.069	0.337
-63.363	-111.685	0.408	-0.106
-62.349	-45.057	-0.475	-0.304
-61.334	5.137	-2.541	-2.418
-60.319	4.289	1.436	1.359
-59.305	204.483	-3.895	-7.831
-58.290	39.288	4.121	4.770
-57.276	396.641	3.658	9.923
-56.261	-200.000	24.885	321.382
-55.246	353.417	1306.538	3366.567
-54.232	53.248	2842.319	3521.923
-53.217	51.544	2658.897	3268.195
-52.203	31.739	2389.130	2657.621
-51.188	27.816	2055.246	2237.884
-50.173	24.528	1940.830	2074.886
-49.159	23.426	1929.946	2050.363
-48.144	22.887	1925.265	2039.057
-47.130	22.811	1923.743	2036.485
-46.115	22.801	1921.768	2034.198
-45.100	22.835	1920.366	2033.021
-44.086	22.833	1918.534	2030.983
-43.071	22.862	1916.390	2028.964
-42.057	22.836	1915.184	2027.307
-41.042	22.866	1913.244	2025.521
-40.027	22.848	1912.226	2024.157
-39.013	22.810	1910.884	2022.216
-37.998	22.794	1910.185	2021.215
-36.984	22.819	1908.050	2019.156
-35.969	22.744	1907.566	2017.708
-34.954	22.625	1906.778	2015.423
-33.940	22.676	1904.720	2013.756
-32.925	22.775	1903.305	2013.316
-31.911	22.664	1902.034	2010.618
-30.896	22.675	1901.226	2009.808
-29.881	22.822	1899.700	2009.799
-28.867	22.750	1897.910	2007.003
-27.852	22.574	1897.281	2004.244
-26.838	22.572	1895.829	2002.609
-25.823	22.621	1893.887	2001.041
-24.809	22.597	1892.938	1999.679
-23.794	22.688	1890.390	1997.949
-22.779	22.590	1890.618	1996.993
-21.765	22.649	1888.842	1995.705
-20.750	22.634	1887.629	1994.181
-19.736	22.566	1886.812	1992.459
-18.721	22.690	1884.684	1991.545
-17.706	22.549	1884.181	1989.331
-16.692	22.529	1882.825	1987.596
-15.677	22.700	1881.350	1987.896
-14.663	22.640	1880.381	1986.111
-13.648	22.495	1879.576	1983.545
-12.633	22.529	1877.857	1982.038
-11.619	22.501	1877.297	1981.055
-10.604	22.549	1875.253	1979.354
-9.590	22.478	1874.899	1978.109
-8.575	22.522	1873.005	1976.526
-7.560	22.639	1870.929	1975.568
-6.546	22.506	1871.376	1974.472
-5.531	22.501	1869.365	1972.211
-4.517	22.510	1868.064	1970.862
-3.502	22.480	1867.389	1969.739
-2.487	22.612	1866.544	1970.249
-1.473	22.643	1863.064	1966.842
-0.458	22.358	1845.122	1944.656
0.556	18.926	1991.292	2045.477
1.571	17.520	2193.248	2234.119
2.586	18.247	2232.298	2283.377
3.600	18.362	2234.911	2287.332
4.615	18.287	2234.029	2285.148
5.629	18.309	2231.854	2282.933
6.644	18.238	2230.478	2280.302
7.659	18.310	2228.239	2278.714
8.673	18.211	2226.710	2275.555
9.688	17.996	2234.833	2280.693
10.702	16.961	2315.036	2347.860
11.717	15.448	2379.855	2391.657
12.731	7.615	2360.508	2260.281
13.746	1.222	2341.542	2150.950
14.761	0.267	2340.197	2135.851
15.775	0.131	2338.193	2131.821
16.790	0.028	2337.218	2129.221
17.804	-0.023	2336.500	2127.577
18.819	0.039	2334.501	2126.383
19.834	0.047	2332.000	2123.969
20.848	0.062	2331.381	2123.357
21.863	0.067	2329.361	2121.340
22.877	0.088	2327.233	2119.451
23.892	-0.020	2325.280	2115.878
24.907	0.042	2322.511	2113.985
25.921	0.073	2320.444	2112.284
26.936	0.097	2318.259	2110.384
27.950	0.062	2316.072	2107.651
28.965	0.081	2314.473	2106.205
29.980	0.012	2313.160	2103.794
30.994	0.126	2311.261	2103.414
32.009	4.140	2323.153	2170.587
33.023	13.295	2349.083	2324.407
34.038	17.063	2355.238	2383.498
35.053	17.177	2353.875	2383.442
36.067	17.311	2350.749	2381.879
37.082	17.260	2348.800	2378.908
38.096	17.279	2346.466	2376.518
39.111	17.508	2344.286	2377.251
40.126	17.677	2342.631	2377.651
41.140	17.766	2340.451	2376.407
42.155	17.564	2339.270	2372.084
43.169	17.601	2337.423	2370.455
44.184	17.619	2333.788	2366.738
45.199	17.495	2333.028	2363.942
46.213	17.598	2331.585	2363.634
47.228	17.632	2330.963	2363.194
48.242	17.596	2329.210	2360.639
49.257	17.726	2327.174	2360.097
50.271	17.674	2323.597	2355.470
51.286	17.531	2322.495	2352.088
52.301	17.399	2321.107	2348.568
53.315	17.937	2322.456	2357.120
54.330	19.869	2325.647	2386.881
55.344	21.166	2325.476	2404.401
56.359	21.081	2322.937	2400.301
57.374	21.185	2322.274	2400.770
58.388	21.423	2319.396	2400.792
59.403	21.375	2316.040	2396.373
60.417	21.112	2313.038	2389.360
61.432	21.234	2311.438	2389.094
62.447	21.415	2310.781	2390.617
63.461	21.530	2309.478	2390.572
64.476	21.737	2306.456	2389.995
65.490	21.447	2305.456	2384.693
66.505	20.734	2303.280	2372.391
67.520	19.272	2296.553	2345.196
68.534	17.784	2289.665	2317.578
69.549	17.464	2285.121	2308.339
70.563	17.612	2282.863	2307.797
71.578	17.537	2281.460	2305.083
72.593	17.622	2279.499	2303.976
73.607	17.738	2278.753	2304.519
74.622	17.706	2276.584	2301.616
75.636	17.645	2272.801	2296.699
76.651	17.565	2270.702	2293.210
77.666	17.600	2269.289	2291.982
78.680	17.543	2267.255	2288.883
79.695	17.479	2265.130	2285.608
80.709	17.444	2263.924	2283.644
81.724	17.494	2261.859	2281.956
82.739	17.427	2260.053	2278.958
83.753	17.497	2256.637	2276.187
84.768	17.351	2255.803	2273.110
85.782	17.187	2254.898	2269.723
86.797	17.229	2253.326	2268.439
87.812	17.318	2249.997	2266.006
88.826	17.362	2248.521	2264.829
89.841	17.387	2246.522	2262.891
90.855	17.459	2243.591	2260.623
91.870	17.440	2242.267	2258.761
92.884	17.410	2240.555	2256.375
93.899	17.390	2239.555	2254.824
94.914	17.792	2241.158	2261.523
95.928	19.443	2246.584	2288.770
96.943	20.099	2244.303	2294.909
97.957	18.437	2235.998	2264.081
98.972	17.457	2232.294	2247.066
99.987	17.406	2228.046	2241.833
101.001	17.344	2225.566	2238.251
102.016	17.286	2224.549	2236.199
103.030	17.302	2222.726	2234.306
104.045	17.356	2219.665	2231.676
105.060	17.376	2217.460	2229.463
106.074	17.431	2216.086	2228.530
107.089	17.301	2214.002	2224.456
108.103	17.366	2213.798	2224.842
109.118	17.353	2212.040	2222.637
110.133	17.468	2210.639	2222.475
111.147	17.453	2208.522	2219.888
112.162	17.432	2207.156	2217.977
113.176	17.572	2204.846	2217.221
114.191	17.487	2203.505	2214.484
115.206	17.488	2201.656	2212.380
116.220	17.593	2199.413	2211.226
117.235	17.527	2197.041	2207.718
118.249	17.593	2194.316	2205.578
119.264	17.568	2193.491	2204.163
120.279	17.534	2192.764	2202.718
121.293	17.446	2191.126	2199.671
122.308	17.596	2188.688	2198.905
123.322	17.323	2188.320	2194.735
124.337	17.694	2188.824	2199.792
125.352	19.782	2193.873	2231.711
126.366	20.136	2191.786	2233.915
127.381	18.206	2182.969	2199.732
128.395	17.394	2178.794	2184.784
129.410	17.413	2176.983	2182.960
130.424	17.446	2174.893	2181.029
131.439	17.329	2173.464	2177.824
132.454	17.460	2171.303	2177.080
133.468	17.511	2169.199	2175.363
134.483	17.593	2167.533	2174.481
135.497	17.472	2166.649	2171.783
136.512	17.436	2164.043	2168.456
137.527	17.383	2163.094	2166.563
138.541	17.339	2161.239	2163.882
139.556	17.375	2160.769	2163.618
140.570	17.440	2158.665	2162.074
141.585	17.307	2156.704	2158.161
142.600	17.263	2155.969	2156.601
143.614	17.284	2153.810	2154.460
144.629	17.250	2151.977	2151.929
145.643	17.316	2150.439	2150.973
146.658	17.285	2148.001	2147.889
147.673	17.346	2146.609	2147.010
148.687	17.342	2146.055	2146.153
149.702	17.357	2144.311	2144.336
150.716	17.377	2142.678	2142.695
151.731	17.380	2141.920	2141.721
152.746	17.517	2141.555	2142.834
153.760	17.850	2143.277	2148.516
154.775	19.643	2147.924	2175.640
155.789	20.116	2145.064	2178.459
156.804	18.334	2136.893	2147.453
157.819	17.458	2131.827	2131.085
158.833	17.390	2128.695	2126.848
159.848	17.509	2127.235	2126.629
160.862	17.593	2125.157	2125.350
161.877	17.660	2123.790	2124.561
162.892	17.622	2123.352	2123.394
163.906	17.694	2121.918	2122.612
164.921	17.587	2119.721	2118.815
165.935	17.561	2117.145	2115.670
166.950	17.555	2115.836	2114.029
167.964	17.514	2113.883	2111.314
168.979	17.356	2112.619	2107.833
169.994	17.447	2110.896	2106.987
171.008	17.408	2109.061	2104.420
172.023	17.432	2107.211	2102.622
173.037	17.366	2107.398	2101.735
174.052	17.394	2105.328	2099.772
175.067	17.479	2102.930	2098.180
176.081	17.460	2101.861	2096.621
177.096	17.524	2100.683	2095.988
178.110	17.643	2098.319	2094.850
179.125	17.576	2097.320	2092.775
180.140	17.391	2096.362	2089.287
181.154	17.486	2094.868	2088.720
182.169	17.463	2094.072	2087.398
183.183	17.990	2094.593	2094.156
184.198	19.956	2099.724	2123.291
185.213	20.335	2097.250	2125.205
186.227	18.416	2090.146	2094.201
187.242	17.514	2087.737	2080.453
188.256	17.415	2085.518	2076.780
189.271	17.397	2084.658	2075.457
190.286	17.408	2081.612	2072.309
191.300	17.423	2079.677	2070.324
192.315	17.440	2077.492	2068.108
193.329	17.562	2076.861	2068.717
194.344	17.642	2076.749	2069.340
195.359	17.644	2074.958	2067.322
196.373	17.555	2071.521	2062.569
197.388	17.586	2068.869	2060.063
198.402	17.407	2068.233	2057.002
199.417	17.343	2066.560	2054.324
200.432	17.465	2063.819	2052.823
201.446	17.504	2063.482	2052.719
202.461	17.466	2061.368	2049.913
203.475	17.417	2059.982	2047.696
204.490	17.453	2058.152	2046.069
205.504	17.423	2055.090	2042.410
206.519	17.405	2052.847	2039.731
207.534	17.425	2051.342	2038.232
208.548	17.303	2050.619	2035.801
209.563	17.318	2050.713	2035.824
210.577	17.391	2048.589	2034.350
211.592	17.353	2047.821	2032.892
212.607	18.319	2052.002	2048.413
213.621	20.657	2055.942	2080.246
214.636	20.070	2051.176	2068.124
215.650	18.104	2042.654	2035.777
216.665	17.454	2040.724	2025.842
217.680	17.499	2039.621	2025.043
218.694	17.454	2037.278	2021.928
219.709	17.400	2035.366	2019.144
220.723	17.493	2034.820	2019.473
221.738	17.567	2032.607	2017.918
222.753	17.460	2030.545	2014.362
223.767	17.511	2028.893	2013.084
224.782	17.510	2027.094	2011.044
225.796	17.460	2026.016	2009.146
226.811	17.675	2024.394	2009.844
227.826	17.497	2023.483	2006.586
228.840	17.605	2021.386	2005.548
229.855	17.476	2020.731	2003.127
230.869	17.552	2018.551	2001.628
231.884	17.423	2017.980	1999.296
232.899	17.494	2015.471	1997.410
233.913	17.391	2014.129	1994.622
234.928	17.481	2013.627	1994.956
235.942	17.591	2011.502	1993.902
236.957	17.467	2010.109	1990.825
237.972	17.590	2008.162	1990.101
238.986	17.475	2007.957	1988.306
240.001	17.429	2006.687	1986.272
241.015	17.329	2005.260	1983.457
242.030	18.015	2005.626	1991.616
243.045	19.756	2008.299	2014.444
244.059	19.888	2006.157	2013.590
245.074	18.245	1999.066	1987.076
246.088	17.473	1995.999	1974.796
247.103	17.641	1994.319	1974.852
248.117	17.641	1992.950	1973.254
249.132	17.592	1991.321	1970.838
250.147	17.457	1988.709	1966.452
251.161	17.479	1988.638	1966.398
252.176	17.691	1986.697	1966.706
253.190	17.773	1985.136	1965.871
254.205	17.620	1983.280	1962.026
255.220	17.656	1981.718	1960.668
256.234	17.728	1980.565	1960.115
257.249	17.646	1979.870	1958.248
258.263	17.463	1978.862	1954.905
259.278	17.554	1977.353	1954.232
260.293	17.557	1975.990	1952.683
261.307	17.399	1973.980	1948.647
262.322	17.426	1972.389	1947.158
263.336	17.328	1970.353	1943.788
264.351	17.300	1968.879	1941.772
265.366	17.236	1967.473	1939.424
266.380	17.420	1966.021	1939.865
267.395	17.393	1965.036	1938.352
268.409	17.253	1963.725	1935.229
269.424	17.300	1962.306	1934.140
270.439	17.266	1961.478	1932.702
271.453	17.946	1962.629	1941.379
272.468	19.954	1965.706	1967.140
273.482	20.122	1961.684	1964.797
274.497	18.145	1955.146	1935.546
275.512	17.515	1951.372	1924.421
276.526	17.417	1949.510	1921.235
277.541	17.340	1947.625	1918.276
278.555	17.249	1946.510	1915.919
279.570	17.252	1944.215	1913.469
280.585	17.311	1942.897	1912.612
281.599	17.276	1942.019	1911.116
282.614	17.598	1940.276	1912.810
283.628	17.648	1940.328	1913.191
284.643	17.692	1939.321	1912.474
285.657	17.848	1937.948	1912.650
286.672	17.889	1936.374	1911.318
287.687	17.746	1933.846	1906.990
288.701	17.585	1933.119	1904.233
289.716	17.625	1931.574	1902.931
290.730	17.500	1930.134	1899.892
291.745	17.795	1929.294	1902.137
292.760	17.648	1928.842	1899.826
293.774	17.515	1927.821	1897.098
294.789	17.636	1925.579	1896.020
295.803	17.477	1923.140	1891.616
296.818	17.495	1922.133	1890.594
297.833	17.474	1921.453	1889.465
298.847	17.492	1919.731	1887.750
299.862	17.646	1917.547	1887.092
300.876	17.907	1919.036	1891.240
301.891	20.000	1922.343	1917.586
302.906	20.462	1920.613	1920.768
303.920	18.423	1914.919	1892.233
304.935	17.756	1909.817	1879.574
305.949	17.575	1908.045	1875.604
306.964	17.523	1906.577	1873.363
307.979	17.657	1905.234	1873.297
308.993	17.609	1904.430	1871.752
310.008	17.800	1902.381	1871.621
311.022	17.738	1901.442	1869.795
312.037	17.716	1900.379	1868.285
313.052	17.793	1898.095	1866.657
314.066	17.674	1896.435	1863.494
315.081	17.724	1896.285	1863.676
316.095	17.756	1894.589	1862.133
317.110	17.565	1893.161	1858.418
318.125	17.552	1891.473	1856.386
319.139	17.735	1889.599	1856.333
320.154	17.742	1888.732	1855.330
321.168	17.729	1887.328	1853.595
322.183	17.652	1885.507	1850.739
323.197	17.422	1884.221	1846.746
324.212	17.420	1881.398	1843.742
325.227	17.415	1879.488	1841.588
326.241	17.363	1878.332	1839.675
327.256	17.434	1877.613	1839.515
328.270	17.429	1876.915	1838.565
329.285	17.276	1877.354	1837.113
330.300	18.088	1879.833	1848.140
331.314	20.298	1882.808	1874.868
332.329	20.224	1877.620	1868.685
333.343	18.179	1870.945	1839.730
334.358	17.569	1868.023	1830.045
335.373	17.491	1866.602	1827.597
336.387	17.399	1865.307	1825.122
337.402	17.434	1863.770	1823.777
338.416	17.442	1862.154	1822.062
339.431	17.563	1860.769	1821.782
340.446	17.589	1859.514	1820.615
341.460	17.759	1857.734	1820.481
342.475	17.696	1857.433	1819.291
343.489	17.730	1855.484	1817.532
344.504	17.800	1854.375	1816.982
345.519	17.863	1853.274	1816.358
346.533	17.838	1851.436	1814.068
347.548	17.960	1849.930	1813.676
348.562	17.701	1850.012	1810.778
349.577	17.734	1848.564	1809.495
350.592	17.930	1846.724	1809.568
351.606	17.881	1845.570	1807.691
352.621	17.781	1843.222	1804.121
353.635	17.518	1841.764	1799.685
354.650	17.572	1840.137	1798.444
355.665	17.626	1838.619	1797.321
356.679	17.588	1837.429	1795.542
357.694	17.491	1835.705	1792.615
358.708	17.570	1834.464	1792.021
359.723	18.341	1838.383	1803.808
360.738	20.447	1840.253	1827.723
361.752	19.917	1836.239	1817.920
362.767	18.019	1831.267	1792.779
363.781	17.540	1828.033	1784.355
364.796	17.429	1827.549	1782.504
365.810	17.354	1825.613	1779.611
366.825	17.401	1824.625	1778.934
367.840	17.577	1823.841	1779.803
368.854	17.693	1822.384	1779.379
369.869	17.417	1820.505	1774.436
370.883	17.350	1818.812	1771.878
371.898	17.343	1818.054	1770.851
372.913	17.532	1816.311	1770.916
373.927	17.489	1815.400	1769.373
374.942	17.638	1814.425	1769.762
375.956	17.613	1812.867	1767.770
376.971	17.582	1810.660	1765.088
377.986	17.477	1808.914	1762.075
379.000	17.542	1806.845	1760.528
380.015	17.584	1806.436	1760.354
381.029	17.776	1804.589	1760.340
382.044	17.515	1803.124	1755.992
383.059	17.482	1801.664	1754.016
384.073	17.403	1800.334	1751.691
385.088	17.453	1799.318	1751.009
386.102	17.353	1797.923	1748.409
387.117	17.408	1795.376	1746.295
388.132	17.367	1794.777	1745.077
389.146	18.048	1798.295	1755.325
390.161	20.257	1800.654	1780.225
391.175	19.927	1795.208	1771.238
392.190	18.007	1788.601	1744.816
393.205	17.413	1786.062	1736.040
394.219	17.312	1784.342	1733.123
395.234	17.354	1783.278	1732.311
396.248	17.455	1781.354	1731.268
397.263	17.469	1779.329	1729.238
398.278	17.380	1778.049	1726.882
399.292	17.395	1776.496	1725.315
400.307	17.528	1775.876	1725.861
401.321	17.753	1774.527	1726.634
402.336	17.601	1774.164	1724.532
403.350	17.708	1772.569	1723.855
404.365	17.736	1771.220	1722.624
405.380	18.054	1769.636	1724.103
406.394	17.931	1768.792	1721.830
407.409	17.886	1767.123	1719.542
408.423	17.851	1766.775	1718.639
409.438	17.780	1764.990	1715.980
410.453	17.781	1763.813	1714.646
411.467	17.907	1762.633	1714.560
412.482	17.845	1760.683	1711.836
413.496	17.683	1760.072	1709.402
414.511	17.664	1757.592	1706.600
415.526	17.473	1755.634	1702.572
416.540	17.479	1754.228	1701.071
417.555	17.559	1753.061	1700.531
418.569	17.408	1753.644	1699.383
419.584	17.504	1753.435	1699.937
420.599	17.566	1753.063	1700.000
421.613	17.601	1751.709	1698.836
422.628	17.474	1750.522	1696.205
423.642	17.563	1748.706	1695.129
424.657	17.565	1746.696	1692.997
425.672	17.480	1744.745	1690.057
426.686	17.455	1743.267	1688.178
427.701	17.371	1742.159	1686.062
428.715	17.487	1741.260	1686.143
429.730	17.748	1739.393	1686.734
430.745	17.663	1738.653	1684.964
431.759	17.562	1738.297	1683.418
432.774	17.773	1737.369	1684.417
433.788	17.919	1736.988	1685.288
434.803	17.933	1736.290	1684.550
435.818	17.754	1736.217	1682.503
436.832	17.531	1735.513	1679.413
437.847	16.745	1728.500	1664.660
438.861	9.422	1707.746	1572.763
439.876	1.817	1693.056	1484.757
440.890	0.272	1689.525	1466.375
441.905	0.236	1689.209	1465.571
442.920	0.224	1687.595	1463.880
443.934	0.089	1687.476	1462.285
444.949	0.150	1685.810	1461.265
445.963	0.018	1684.233	1458.430
446.978	0.074	1683.805	1458.435
447.993	0.056	1682.908	1457.305
449.007	0.216	1679.717	1455.924
450.022	0.279	1677.425	1454.374
451.036	0.243	1676.787	1453.297
452.051	1.183	1681.498	1466.342
453.066	9.002	1697.393	1556.505
454.080	16.236	1708.785	1637.553
455.095	17.493	1710.969	1651.725
456.109	17.740	1710.930	1653.896
457.124	17.769	1709.945	1653.021
458.139	17.819	1708.276	1651.699
459.153	17.726	1707.685	1650.030
460.168	17.724	1705.564	1647.765
461.182	17.812	1704.093	1646.996
462.197	17.592	1702.849	1643.468
463.212	17.648	1700.794	1641.824
464.226	17.721	1699.220	1640.817
465.241	17.699	1698.426	1639.645
466.255	17.771	1697.601	1639.348
467.270	17.788	1696.621	1638.364
468.285	17.614	1695.074	1634.997
469.299	17.629	1693.510	1633.435
470.314	17.651	1691.663	1631.670
471.328	17.738	1690.438	1631.134
472.343	17.748	1689.772	1630.386
473.358	17.677	1689.026	1628.797
474.372	17.706	1687.484	1627.390
475.387	17.845	1685.449	1626.564
476.401	17.812	1684.496	1625.132
477.416	17.844	1684.286	1625.045
478.430	17.921	1682.008	1623.382
479.445	17.733	1680.874	1620.300
480.460	17.644	1679.681	1618.114
481.474	17.743	1678.474	1617.697
482.489	17.741	1677.604	1616.644
483.503	17.747	1675.737	1614.715
484.518	17.621	1674.941	1612.546
485.533	17.812	1673.734	1613.009
486.547	17.951	1672.465	1612.917
487.562	17.953	1671.567	1611.878
488.576	18.078	1669.922	1611.281
489.591	18.009	1668.352	1608.920
490.606	17.919	1667.053	1606.623
491.620	17.864	1665.407	1604.325
492.635	17.965	1663.588	1603.332
493.649	18.007	1662.313	1602.305
494.664	17.687	1662.520	1599.301
495.679	17.569	1660.389	1595.949
496.693	17.730	1658.687	1595.634
497.708	17.702	1658.110	1594.627
498.722	17.751	1656.487	1593.331
499.737	17.839	1654.539	1592.098
500.752	17.780	1653.369	1590.223
501.766	17.649	1651.954	1587.447
502.781	17.733	1650.881	1587.014
503.795	17.665	1649.620	1584.978
504.810	17.851	1648.261	1585.217
505.825	17.857	1648.268	1585.091
506.839	17.728	1646.942	1582.416
507.854	17.670	1645.587	1580.392
508.868	17.748	1644.033	1579.429
509.883	17.752	1643.132	1578.417
510.898	17.913	1641.583	1578.237
511.912	18.037	1639.104	1576.811
512.927	17.593	1639.128	1572.524
513.941	17.702	1636.899	1571.211
514.956	17.927	1635.651	1571.904
515.971	17.905	1634.486	1570.396
516.985	17.804	1633.606	1568.426
518.000	17.828	1632.658	1567.558
519.014	17.904	1631.449	1566.905
520.029	17.923	1630.309	1565.797
521.043	17.801	1628.893	1563.128
522.058	17.881	1627.357	1562.202
523.073	17.878	1627.083	1561.726
524.087	17.988	1626.013	1561.519
525.102	17.956	1624.173	1559.277
526.116	17.883	1623.331	1557.613
527.131	17.707	1622.284	1554.806
528.146	17.955	1621.440	1556.083
529.160	17.917	1619.577	1553.762
530.175	17.952	1618.082	1552.462
531.189	17.904	1617.886	1551.647
532.204	18.021	1616.162	1550.878
533.219	17.893	1615.309	1548.703
534.233	17.752	1615.339	1547.258
535.248	17.877	1613.963	1546.895
536.262	17.913	1613.247	1546.352
537.277	17.893	1611.378	1544.196
538.292	17.924	1609.365	1542.360
539.306	17.956	1607.794	1540.964
540.321	18.080	1606.448	1540.610
541.335	18.235	1604.562	1540.023
542.350	18.127	1603.297	1537.650
543.365	17.900	1602.402	1534.556
544.379	17.958	1600.835	1533.390
545.394	18.021	1600.192	1533.160
546.408	17.886	1598.866	1530.489
547.423	17.843	1597.128	1528.259
548.438	17.865	1596.351	1527.531
549.452	17.926	1594.993	1526.592
550.467	17.964	1593.383	1525.210
551.481	17.966	1592.349	1524.061
552.496	18.046	1591.173	1523.470
553.511	18.036	1590.383	1522.438
554.525	17.945	1589.521	1520.616
555.540	18.115	1589.288	1521.736
556.554	18.111	1587.634	1519.932
557.569	18.142	1585.844	1518.310
558.583	18.051	1584.525	1516.056
559.598	17.978	1583.411	1514.155
560.613	17.883	1582.798	1512.549
561.627	17.998	1581.177	1511.837
562.642	18.089	1579.664	1511.016
563.656	18.189	1577.936	1510.072
564.671	17.921	1578.041	1507.614
565.686	18.071	1576.641	1507.426
566.700	17.991	1574.871	1504.846
567.715	17.951	1573.641	1503.134
568.729	17.954	1571.586	1501.023
569.744	18.040	1570.600	1500.661
570.759	17.963	1569.955	1499.182
571.773	17.860	1569.953	1498.089
572.788	17.835	1568.357	1496.168
573.802	18.092	1566.318	1496.303
574.817	18.037	1564.061	1493.491
575.832	17.898	1563.552	1491.605
576.846	18.166	1562.058	1492.350
577.861	17.947	1561.374	1489.600
578.875	18.002	1561.007	1489.555
579.890	18.181	1559.523	1489.526
580.905	18.104	1558.318	1487.524
581.919	18.032	1558.704	1487.085
582.934	18.142	1557.891	1487.089
583.948	18.228	1555.882	1485.748
584.963	18.264	1553.824	1483.917
585.978	17.916	1552.923	1479.849
586.992	18.228	1552.006	1481.513
588.007	18.287	1551.620	1481.481
589.021	18.165	1550.085	1478.770
590.036	18.189	1548.423	1477.223
591.051	18.188	1547.778	1476.419
592.065	18.280	1545.898	1475.245
593.080	18.247	1544.519	1473.465
594.094	18.332	1542.883	1472.469
595.109	18.140	1540.511	1468.366
596.123	17.929	1539.851	1465.746
597.138	17.975	1539.586	1465.710
598.153	18.043	1537.835	1464.459
599.167	18.113	1536.156	1463.285
600.182	18.027	1535.256	1461.511
601.196	18.036	1534.339	1460.546
602.211	18.143	1533.385	1460.377
603.226	18.244	1531.773	1459.536
604.240	18.141	1531.350	1458.074
605.255	18.260	1529.845	1457.485
606.269	18.256	1528.818	1456.296
607.284	18.137	1528.390	1454.701
608.299	18.000	1527.420	1452.430
609.313	18.291	1525.609	1453.018
610.328	18.262	1524.331	1451.376
611.342	18.194	1522.186	1448.580
612.357	18.263	1521.476	1448.323
613.372	18.246	1520.648	1447.215
614.386	18.198	1519.318	1445.368
615.401	18.324	1518.945	1445.915
616.415	18.260	1517.780	1444.088
617.430	18.169	1517.367	1442.747
618.445	18.321	1515.761	1442.338
619.459	18.216	1514.103	1439.700
620.474	18.193	1513.199	1438.473
621.488	18.141	1511.976	1436.699
622.503	18.117	1511.242	1435.626
623.518	18.102	1510.536	1434.656
624.532	18.135	1509.553	1433.825
625.547	18.138	1508.065	1432.270
626.561	18.215	1507.583	1432.288
627.576	18.293	1506.891	1432.116
628.591	18.168	1505.729	1429.789
629.605	18.189	1503.931	1428.089
630.620	18.193	1502.685	1426.764
631.634	18.212	1501.936	1426.042
632.649	18.146	1500.708	1424.152
633.663	18.302	1499.423	1424.070
634.678	18.294	1498.059	1422.536
635.693	18.400	1496.316	1421.593
636.707	18.389	1495.214	1420.289
637.722	18.422	1494.255	1419.476
638.736	18.442	1492.690	1417.992
639.751	18.413	1492.175	1417.093
640.766	18.326	1490.391	1414.507
641.780	18.409	1489.024	1413.724
642.795	18.337	1488.683	1412.632
643.809	18.207	1488.361	1411.087
644.824	18.453	1486.937	1411.597
645.839	18.189	1486.086	1408.437
646.853	18.327	1484.565	1407.971
647.868	18.350	1483.355	1406.841
648.882	18.342	1481.717	1405.054
649.897	18.339	1480.565	1403.771
650.912	18.342	1479.776	1402.880
651.926	18.352	1478.413	1401.503
652.941	18.266	1477.286	1399.556
653.955	18.310	1476.013	1398.544
654.970	18.296	1474.121	1396.474
655.985	18.380	1472.764	1395.711
656.999	18.437	1471.506	1394.811
658.014	18.415	1470.739	1393.737
659.028	18.343	1469.840	1392.137
660.043	18.401	1469.645	1392.256
661.058	18.398	1467.704	1390.230
662.072	18.338	1466.521	1388.451
663.087	18.295	1466.374	1387.792
664.101	18.348	1464.929	1386.696
665.116	18.370	1464.200	1386.017
666.131	18.268	1463.044	1383.925
667.145	18.286	1461.143	1382.107
668.160	18.481	1459.712	1382.166
669.174	18.475	1458.753	1381.050
670.189	18.403	1457.808	1379.403
671.204	18.329	1457.140	1378.010
672.218	18.297	1455.908	1376.424
673.233	18.330	1454.488	1375.181
674.247	18.499	1453.854	1375.778
675.262	18.504	1452.594	1374.461
676.276	18.570	1451.435	1373.734
677.291	18.514	1450.402	1372.141
678.306	18.423	1449.396	1370.289
679.320	18.257	1448.549	1367.994
680.335	18.327	1447.335	1367.242
681.349	18.580	1446.229	1368.064
682.364	18.407	1446.121	1366.412
683.379	18.295	1444.330	1363.658
684.393	18.312	1442.929	1362.310
685.408	18.373	1442.433	1362.170
686.422	18.206	1441.292	1359.591
687.437	18.361	1441.085	1360.474
688.452	18.327	1440.401	1359.395
689.466	18.478	1437.789	1357.968
690.481	18.374	1436.793	1356.033
691.495	18.166	1436.695	1354.130
692.510	18.157	1435.220	1352.503
693.525	18.309	1433.116	1351.564
694.539	18.281	1432.202	1350.320
695.554	18.218	1432.779	1350.200
696.568	18.452	1430.983	1350.198
697.583	18.402	1430.134	1348.841
698.598	18.411	1428.798	1347.491
699.612	18.413	1427.645	1346.262
700.627	18.524	1426.122	1345.539
701.641	18.606	1424.693	1344.673
702.656	18.446	1424.248	1342.835
703.671	18.590	1423.808	1343.389
704.685	18.693	1423.075	1343.352
705.700	18.565	1422.180	1341.336
706.714	18.512	1419.763	1338.479
707.729	18.485	1418.560	1336.976
708.744	18.512	1417.528	1336.056
709.758	18.628	1416.184	1335.538
710.773	18.692	1415.652	1335.376
711.787	18.685	1414.383	1333.961
712.802	18.438	1413.182	1330.744
713.816	18.539	1412.494	1330.725
714.831	18.441	1411.528	1328.890
715.846	18.600	1410.385	1328.889
716.860	18.789	1408.236	1328.174
717.875	18.580	1407.668	1325.856
718.889	18.532	1406.837	1324.541
719.904	18.615	1405.706	1323.961
720.919	18.678	1404.674	1323.320
721.933	18.654	1404.363	1322.684
722.948	18.709	1403.075	1321.738
723.962	18.610	1401.845	1319.655
724.977	18.580	1400.834	1318.314
725.992	18.626	1399.709	1317.453
727.006	18.751	1397.977	1316.632
728.021	18.690	1396.889	1314.980
729.035	18.596	1396.108	1313.360
730.050	18.575	1395.476	1312.447
731.065	18.508	1394.304	1310.672
732.079	18.517	1393.634	1309.959
733.094	18.570	1392.173	1308.835
734.108	18.572	1390.533	1307.152
735.123	18.545	1389.324	1305.654
736.138	18.546	1387.882	1304.149
737.152	18.607	1387.111	1303.734
738.167	18.603	1386.405	1302.885
739.181	18.645	1385.750	1302.429
740.196	18.631	1384.792	1301.266
741.211	18.452	1383.805	1298.818
742.225	18.556	1383.078	1298.775
743.240	18.615	1381.835	1297.901
744.254	18.580	1379.883	1295.646
745.269	18.567	1379.659	1295.180
746.284	18.424	1379.229	1293.542
747.298	18.474	1377.432	1292.075
748.313	18.429	1376.468	1290.679
749.327	18.375	1375.906	1289.584
750.342	18.181	1375.029	1287.146
751.356	18.282	1373.600	1286.414
752.371	18.400	1371.909	1285.568
753.386	18.320	1371.624	1284.547
754.400	18.561	1370.342	1285.008
755.415	18.803	1368.887	1285.305
756.429	18.716	1368.122	1283.779
757.444	18.529	1367.194	1281.352
758.459	18.664	1365.963	1281.057
759.473	18.884	1364.800	1281.463
760.488	18.766	1363.743	1279.435
761.502	18.750	1362.811	1278.285
762.517	18.811	1361.220	1277.094
763.532	18.840	1359.771	1275.800
764.546	18.665	1358.981	1273.600
765.561	18.611	1358.450	1272.552
766.575	18.521	1357.555	1270.885
767.590	18.632	1356.384	1270.466
768.605	18.693	1355.305	1269.756
769.619	18.663	1354.077	1268.227
770.634	18.734	1353.124	1267.714
771.648	18.861	1352.322	1267.754
772.663	18.838	1351.711	1266.855
773.678	18.678	1350.816	1264.682
774.692	18.623	1350.486	1263.811
775.707	18.589	1349.959	1262.921
776.721	18.768	1348.364	1262.595
777.736	18.669	1347.041	1260.473
778.751	18.713	1345.811	1259.502
779.765	18.825	1344.859	1259.283
780.780	18.731	1343.938	1257.577
781.794	18.736	1343.509	1257.061
782.809	18.580	1342.761	1255.062
783.824	18.477	1341.531	1253.011
784.838	18.389	1339.784	1250.582
785.853	18.500	1338.788	1250.316
786.867	18.380	1338.539	1249.052
787.882	18.436	1337.803	1248.626
788.897	18.460	1336.773	1247.691
789.911	18.632	1336.117	1248.191
790.926	18.512	1334.808	1245.937
791.940	18.500	1332.891	1243.916
792.955	18.634	1331.848	1243.767
793.969	18.483	1331.378	1242.077
794.984	18.711	1329.917	1242.230
795.999	18.801	1328.879	1241.762
797.013	18.834	1327.161	1240.251
798.028	18.590	1326.460	1237.678
799.042	18.662	1325.890	1237.515
800.057	18.836	1324.308	1237.149
801.072	18.811	1322.922	1235.526
802.086	18.669	1321.765	1233.273
803.101	18.774	1320.911	1233.087
804.115	18.864	1320.409	1233.121
805.130	18.726	1318.808	1230.480
806.145	18.905	1317.649	1230.546
807.159	18.819	1317.050	1229.218
808.174	18.810	1315.028	1227.122
809.188	18.781	1313.646	1225.476
810.203	18.940	1311.942	1224.874
811.218	18.828	1310.952	1223.007
812.232	18.847	1309.285	1221.443
813.247	18.683	1308.694	1219.568
814.261	18.626	1309.055	1219.356
815.276	18.889	1307.016	1219.184
816.291	18.685	1306.304	1216.922
817.305	18.852	1305.401	1217.119
818.320	18.838	1304.384	1215.926
819.334	18.637	1303.042	1213.104
820.349	18.772	1301.677	1212.644
821.364	18.803	1299.878	1211.046
822.378	18.676	1299.307	1209.467
823.393	18.710	1297.523	1207.900
824.407	18.557	1296.631	1205.844
825.422	18.783	1295.544	1206.286
826.437	18.660	1294.431	1204.239
827.451	18.599	1293.275	1202.591
828.466	18.410	1292.115	1200.038
829.480	18.385	1290.270	1198.000
830.495	18.527	1288.262	1196.990
831.509	18.627	1287.814	1197.132
832.524	18.698	1286.684	1196.436
833.539	18.802	1285.977	1196.368
834.553	18.649	1284.767	1194.028
835.568	18.792	1283.896	1194.075
836.582	18.762	1283.005	1192.890
837.597	18.773	1281.598	1191.519
838.612	18.931	1279.843	1190.841
839.626	18.871	1278.994	1189.493
840.641	18.764	1278.532	1188.179
841.655	18.769	1277.269	1186.897
842.670	18.832	1276.041	1186.054
843.685	18.686	1275.429	1184.326
844.699	18.832	1274.085	1183.952
845.714	18.979	1272.614	1183.455
846.728	18.782	1272.252	1181.617
847.743	18.917	1271.070	1181.313
848.758	18.746	1269.993	1178.984
849.772	18.747	1269.139	1178.061
850.787	18.770	1267.368	1176.433
851.801	18.692	1266.458	1174.911
852.816	18.786	1264.661	1173.753
853.831	18.691	1263.260	1171.654
854.845	18.642	1261.927	1169.947
855.860	18.481	1260.241	1167.138
856.874	18.667	1258.882	1167.017
857.889	18.648	1257.577	1165.538
858.904	18.659	1255.883	1163.904
859.918	18.528	1254.588	1161.671
860.933	18.583	1253.535	1160.930
861.947	18.484	1253.094	1159.706
862.962	18.597	1251.704	1159.054
863.977	18.502	1251.016	1157.633
864.991	18.552	1250.274	1157.143
866.006	18.601	1249.819	1156.918
867.020	18.737	1248.458	1156.437
868.035	18.727	1246.734	1154.634
869.049	18.752	1246.567	1154.510
870.064	18.846	1245.302	1153.839
871.079	18.910	1244.239	1153.147
872.093	18.922	1243.795	1152.679
873.108	19.003	1242.826	1152.184
874.122	19.008	1240.887	1150.285
875.137	18.845	1240.824	1148.993
876.152	18.845	1240.187	1148.268
877.166	18.898	1238.354	1146.785
878.181	19.073	1236.782	1146.363
879.195	18.985	1236.434	1145.318
880.210	18.855	1236.193	1144.083
881.225	18.896	1234.945	1143.070
882.239	18.834	1234.648	1142.245
883.254	19.048	1232.830	1141.853
884.268	19.104	1231.408	1140.772
885.283	18.977	1230.430	1138.884
886.298	18.861	1229.449	1137.069
887.312	18.886	1228.297	1136.032
888.327	18.875	1227.486	1135.070
889.341	18.913	1225.831	1133.660
890.356	18.848	1225.267	1132.568
891.371	18.777	1225.374	1132.060
892.385	18.876	1224.395	1131.676
893.400	18.621	1223.860	1129.361
894.414	18.812	1221.877	1128.656
895.429	18.797	1219.737	1126.447
896.444	18.418	1218.735	1122.894
897.458	18.477	1217.589	1122.089
898.473	18.620	1216.508	1121.897
899.487	18.690	1216.260	1121.992
900.502	18.771	1214.967	1121.202
901.517	18.663	1214.161	1119.610
902.531	18.754	1213.238	1119.224
903.546	18.851	1213.188	1119.681
904.560	18.982	1212.127	1119.425
905.575	18.868	1211.129	1117.620
906.589	18.930	1210.816	1117.605
907.604	18.933	1210.289	1117.002
