DTS Sentinel unit serial number:	SN409020Multiplexer serial number:	ORYXHardware model number:	OX4-SRSoftware version number:	ORYX F/W v3.00 Oryx Data Collector v3.7.2.0data status	okinstallation	HaddamTimeLapsedifferential loss correction	single-endedforward channel	channel 3reverse channel	N/Adate	2011/06/22time	01:01:17forward acquisition time	30.00reverse acquisition time	0.00gamma	498.7831k internal	0.1751k external	0.1751temperature offset calibration	1.0074default loss term (dB/km)	0.3790temperature slope calibration	1.3530multiplexer offset coefficient	1.0000multiplexer slope coefficient	1.0000fibre end	0.00T internal ref (°C)	22.53T ext. ref 1 (°C)	17.92T ext. ref 2 (°C)	0.05length (m)	temperature (°C)	Stokes	anti-Stokes-747.200	-140.738	-0.544	0.074
-746.185	-17.189	0.341	0.285
-745.171	-27.827	0.248	-0.191
-744.156	-200.000	-0.034	0.447
-743.142	-32.097	0.187	0.139
-742.127	49.756	-0.331	0.414
-741.112	-200.000	-0.023	-0.180
-740.098	-34.564	-0.252	-0.183
-739.083	86.944	-0.262	-0.386
-738.069	182.292	0.256	0.502
-737.054	-69.623	0.121	0.061
-736.039	50.227	0.247	-0.310
-735.025	-125.451	0.214	-0.043
-734.010	800.000	0.080	-0.350
-732.996	-134.093	0.644	0.105
-731.981	-56.167	0.208	-0.123
-730.966	-53.738	-0.248	-0.150
-729.952	-65.893	0.579	-0.306
-728.937	337.339	-0.261	0.678
-727.923	-200.000	-0.009	0.329
-726.908	-123.306	0.497	0.104
-725.894	-98.501	-0.727	-0.245
-724.879	-107.113	-0.597	-0.174
-723.864	-72.255	-0.195	0.096
-722.850	-65.764	-0.109	0.058
-721.835	-63.407	0.160	0.087
-720.821	-22.075	0.023	-0.019
-719.806	-93.066	-0.120	-0.044
-718.791	-108.536	-0.224	0.063
-717.777	-71.662	0.426	0.210
-716.762	5.711	-0.560	-0.549
-715.748	62.104	0.267	-0.353
-714.733	53.009	-0.109	-0.139
-713.718	800.000	-0.132	-0.489
-712.704	285.953	0.250	-0.600
-711.689	197.511	0.159	0.323
-710.675	-129.253	-0.391	-0.072
-709.660	-166.788	-0.394	-0.021
-708.645	18.293	0.178	-0.188
-707.631	-55.375	-0.341	0.202
-706.616	800.000	0.048	0.273
-705.602	283.504	-0.218	0.521
-704.587	-200.000	0.023	0.387
-703.572	581.707	0.062	0.203
-702.558	-117.298	0.292	-0.070
-701.543	-14.571	-0.394	0.336
-700.529	98.400	-0.160	0.245
-699.514	-37.108	-0.284	0.201
-698.499	-200.000	0.023	-0.257
-697.485	-39.348	-0.176	-0.122
-696.470	-122.828	0.139	-0.029
-695.456	46.329	0.303	0.372
-694.441	70.014	0.209	-0.286
-693.426	413.016	-0.110	-0.310
-692.412	7.747	0.343	0.341
-691.397	-129.797	-0.507	0.092
-690.383	-122.039	0.057	-0.012
-689.368	207.921	0.185	-0.384
-688.354	-200.000	-0.017	-0.117
-687.339	732.192	0.099	0.353
-686.324	44.287	0.259	-0.315
-685.310	117.187	-0.171	0.279
-684.295	-101.755	0.355	0.113
-683.281	-139.868	0.422	-0.059
-682.266	-136.158	-0.228	-0.035
-681.251	-31.573	0.242	0.180
-680.237	274.035	-0.247	0.580
-679.222	5.729	0.265	0.259
-678.208	357.928	0.134	-0.356
-677.193	-200.000	0.054	-0.382
-676.178	-19.720	0.220	0.180
-675.164	-118.783	-0.298	0.069
-674.149	-180.141	-0.395	-0.011
-673.135	53.452	-0.253	-0.321
-672.120	402.313	-0.066	-0.184
-671.105	-101.139	0.244	0.079
-670.091	175.813	-0.186	-0.358
-669.076	-25.494	-0.142	0.111
-668.062	-74.094	0.439	0.210
-667.047	-4.762	0.308	-0.281
-666.032	-82.789	0.216	-0.092
-665.018	154.648	-0.297	0.541
-664.003	-47.417	0.303	0.195
-662.989	300.691	-0.152	0.374
-661.974	800.000	0.025	-0.111
-660.959	147.725	-0.095	-0.169
-659.945	-200.000	-0.009	0.246
-658.930	-155.866	0.273	0.023
-657.916	-25.987	0.157	0.122
-656.901	-19.292	0.218	-0.179
-655.886	-70.841	0.226	0.113
-654.872	-200.000	-0.039	0.233
-653.857	-200.000	-0.024	-0.228
-652.843	-200.000	0.014	-0.433
-651.828	800.000	0.164	-0.698
-650.814	40.785	0.103	0.123
-649.799	-84.232	-0.523	-0.218
-648.784	56.794	-0.062	-0.080
-647.770	-100.209	-0.387	-0.126
-646.755	11.504	-0.020	-0.021
-645.741	-81.338	-0.387	0.168
-644.726	-130.293	-0.156	0.028
-643.711	-73.682	-0.199	0.096
-642.697	-24.178	0.159	0.125
-641.682	-3.009	-0.226	0.209
-640.668	-69.371	0.335	-0.169
-639.653	-42.666	-0.084	-0.056
-638.638	-126.080	-0.444	-0.087
-637.624	-82.425	-0.151	-0.065
-636.609	-70.371	-0.741	0.370
-635.595	-173.451	-0.835	0.033
-634.580	68.304	0.095	-0.129
-633.565	465.502	-0.092	-0.272
-632.551	-110.264	-0.328	0.090
-631.536	-83.411	0.345	0.146
-630.522	21.509	0.225	-0.242
-629.507	-122.269	-0.476	0.102
-628.492	-29.055	-0.295	-0.224
-627.478	-101.371	-0.622	0.199
-626.463	186.079	-0.168	0.332
-625.449	800.000	-0.113	0.569
-624.434	-129.442	0.095	-0.017
-623.419	69.799	-0.040	0.054
-622.405	-28.672	0.259	0.197
-621.390	800.000	-0.112	0.558
-620.376	-200.000	-0.022	-0.213
-619.361	-125.868	-0.076	-0.015
-618.346	108.237	0.163	-0.258
-617.332	256.705	0.105	-0.240
-616.317	100.770	0.112	-0.172
-615.303	6.663	0.152	0.150
-614.288	144.980	-0.127	0.224
-613.273	-91.131	-0.380	-0.143
-612.259	237.234	-0.065	0.144
-611.244	-139.768	-0.260	-0.036
-610.230	207.170	-0.160	-0.332
-609.215	800.000	-0.096	-0.356
-608.201	-48.290	-0.560	-0.356
-607.186	-29.220	-0.520	-0.393
-606.171	-145.002	-0.344	-0.041
-605.157	-200.000	0.058	-0.477
-604.142	-81.404	0.086	-0.037
-603.128	373.878	0.148	-0.401
-602.113	-54.955	-0.370	0.220
-601.098	800.000	0.057	-0.240
-600.084	24.589	-0.170	0.185
-599.069	536.412	-0.078	0.244
-598.055	-14.324	0.070	0.059
-597.040	492.699	0.074	-0.226
-596.025	12.265	0.082	0.083
-595.011	479.830	-0.112	-0.338
-593.996	-18.865	-0.488	-0.401
-592.982	81.464	-0.296	-0.423
-591.967	-101.194	0.127	-0.041
-590.952	-21.628	0.199	0.159
-589.938	-140.482	0.349	-0.047
-588.923	800.000	0.101	0.446
-587.909	-137.559	-0.178	0.026
-586.894	219.372	0.096	0.203
-585.879	242.498	0.124	0.275
-584.865	-11.445	0.075	0.065
-583.850	-77.614	0.561	0.255
-582.836	-200.000	0.059	0.421
-581.821	20.954	0.123	0.132
-580.806	-82.095	0.016	0.007
-579.792	-56.300	-0.487	0.285
-578.777	-30.668	0.435	0.324
-577.763	211.887	0.103	0.215
-576.748	-200.000	0.016	0.422
-575.733	-50.247	0.305	0.190
-574.719	-56.039	-0.273	-0.160
-573.704	-18.495	-0.232	0.191
-572.690	105.926	0.377	0.590
-571.675	327.037	-0.035	0.089
-570.661	475.249	0.060	0.181
-569.646	163.675	0.113	0.211
-568.631	176.223	0.136	0.261
-567.617	170.051	-0.053	-0.099
-566.602	148.704	-0.030	0.054
-565.588	159.807	-0.126	0.231
-564.573	-134.033	0.216	-0.035
-563.558	800.000	0.080	-0.334
-562.544	216.398	-0.051	0.107
-561.529	-43.556	-0.516	-0.342
-560.515	414.590	-0.140	0.395
-559.500	-58.454	0.385	0.220
-558.485	-198.692	0.303	0.002
-557.471	-12.342	-0.476	-0.410
-556.456	21.180	0.238	-0.254
-555.442	147.290	0.249	0.444
-554.427	-50.706	0.205	-0.127
-553.412	-94.460	-0.351	0.126
-552.398	-149.151	-0.321	0.033
-551.383	-139.033	0.078	-0.011
-550.369	-75.937	0.171	-0.080
-549.354	59.949	0.329	-0.428
-548.339	-18.775	-0.326	-0.267
-547.325	-200.000	-0.061	0.631
-546.310	-32.091	-0.090	-0.066
-545.296	-200.000	0.027	-0.192
-544.281	800.000	0.036	-0.204
-543.266	-42.569	0.310	-0.208
-542.252	-200.000	-0.049	-0.354
-541.237	778.279	-0.105	0.379
-540.223	-10.065	-0.219	-0.192
-539.208	-97.034	-0.223	0.076
-538.193	46.603	-0.312	0.382
-537.179	312.110	-0.152	0.378
-536.164	-126.091	-0.515	0.101
-535.150	-200.000	0.039	0.259
-534.135	-92.093	0.397	0.147
-533.121	-77.002	0.154	-0.070
-532.106	-68.842	0.282	-0.143
-531.091	-200.000	0.007	-0.074
-530.077	-200.000	-0.002	-0.040
-529.062	156.334	0.153	-0.280
-528.048	-173.654	0.303	0.012
-527.033	-200.000	0.022	-0.298
-526.018	99.637	0.335	0.511
-525.004	-152.360	-0.615	-0.058
-523.989	800.000	-0.007	0.028
-522.975	626.904	0.066	-0.219
-521.960	-155.978	0.554	0.046
-520.945	-200.000	0.000	0.209
-519.931	-115.275	-0.176	0.044
-518.916	-80.671	-0.357	0.156
-517.902	45.176	-0.378	-0.460
-516.887	168.732	-0.182	0.342
-515.872	333.716	-0.097	0.248
-514.858	24.694	-0.080	-0.087
-513.843	92.510	-0.332	0.494
-512.829	700.490	-0.037	0.128
-511.814	-200.000	0.014	0.125
-510.799	-19.805	-0.246	-0.200
-509.785	-93.542	-0.477	0.172
-508.770	800.000	-0.035	0.139
-507.756	-200.000	0.007	-0.083
-506.741	-40.781	-0.216	0.147
-505.726	-74.001	0.176	0.084
-504.712	-179.387	-0.254	-0.007
-503.697	-200.000	-0.003	-0.319
-502.683	-91.314	0.428	0.160
-501.668	-129.807	-0.504	-0.090
-500.653	31.966	-0.184	0.209
-499.639	377.922	0.035	0.095
-498.624	258.531	0.161	0.367
-497.610	-85.840	0.276	0.112
-496.595	-200.000	-0.131	0.001
-495.581	-100.328	0.243	0.079
-494.566	781.096	-0.074	-0.270
-493.551	74.344	0.274	0.379
-492.537	-200.000	-0.000	-0.312
-491.522	-84.266	0.246	0.102
-490.508	183.414	-0.138	0.269
-489.493	155.189	0.292	-0.530
-488.478	-168.268	-0.319	-0.016
-487.464	-90.308	-0.377	-0.143
-486.449	-110.958	-0.090	0.024
-485.435	-108.938	-0.189	-0.053
-484.420	800.000	0.152	0.658
-483.405	-132.794	0.341	-0.057
-482.391	332.965	-0.083	-0.211
-481.376	-26.060	-0.085	0.066
-480.362	-13.874	0.231	0.196
-479.347	-109.248	0.193	-0.053
-478.332	-12.032	0.200	-0.172
-477.318	-200.000	0.029	-0.197
-476.303	-10.576	0.173	0.151
-475.289	-65.902	0.270	0.142
-474.274	-200.000	0.024	0.290
-473.259	-91.341	0.132	-0.049
-472.245	-200.000	0.013	-0.265
-471.230	386.623	-0.075	-0.204
-470.216	-38.743	-0.219	0.152
-469.201	-97.657	0.704	-0.238
-468.186	222.404	0.133	0.281
-467.172	79.152	0.328	0.462
-466.157	459.561	0.110	0.322
-465.143	371.810	-0.173	-0.462
-464.128	151.602	-0.141	-0.254
-463.113	800.000	0.067	0.362
-462.099	-26.592	-0.360	-0.276
-461.084	-92.365	-0.680	-0.250
-460.070	-174.626	-0.664	0.024
-459.055	-114.103	-0.335	0.085
-458.040	-18.896	0.132	0.108
-457.026	-48.869	0.126	-0.079
-456.011	-130.431	0.250	0.044
-454.997	425.596	-0.127	0.361
-453.982	96.564	-0.172	0.258
-452.968	550.776	0.170	0.540
-451.953	614.992	0.110	0.364
-450.938	515.624	0.048	-0.149
-449.924	-200.000	0.025	-0.152
-448.909	325.395	-0.033	0.083
-447.895	70.171	-0.111	0.150
-446.880	-152.633	0.228	-0.021
-445.865	-58.531	-0.276	0.157
-444.851	-144.907	0.200	-0.024
-443.836	-123.044	0.519	-0.109
-442.822	61.081	-0.474	-0.618
-441.807	-142.740	0.371	-0.047
-440.792	-53.564	0.258	-0.154
-439.778	-88.917	-0.066	0.026
-438.763	35.903	-0.235	0.271
-437.749	-39.367	-0.556	-0.382
-436.734	-108.243	-0.305	0.086
-435.719	-8.018	-0.249	-0.220
-434.705	-200.000	0.051	0.332
-433.690	-10.620	-0.312	0.271
-432.676	-97.793	-0.111	0.037
-431.661	-92.384	-0.220	0.081
-430.646	50.964	-0.036	0.045
-429.632	-7.792	-0.231	-0.205
-428.617	-133.012	-0.412	-0.068
-427.603	-41.770	0.388	-0.261
-426.588	-110.712	-0.386	-0.104
-425.573	704.504	-0.088	-0.308
-424.559	-200.000	0.039	-0.672
-423.544	800.000	-0.058	0.238
-422.530	-141.374	0.038	0.005
-421.515	-200.000	0.005	-0.159
-420.500	-189.846	0.541	-0.008
-419.486	-200.000	-0.024	-0.375
-418.471	-5.091	-0.301	-0.271
-417.457	161.792	0.137	-0.253
-416.442	-81.609	0.216	-0.093
-415.428	800.000	-0.051	0.200
-414.413	-44.029	0.106	-0.070
-413.398	85.068	-0.280	-0.404
-412.384	-97.421	0.363	0.123
-411.369	-18.808	0.136	0.111
-410.355	-106.932	0.377	0.109
-409.340	-158.057	0.308	-0.023
-408.325	-78.163	-0.413	-0.185
-407.311	-183.309	0.118	0.003
-406.296	-129.572	-0.540	0.097
-405.282	-57.157	-0.304	-0.175
-404.267	63.079	0.063	0.083
-403.252	-74.458	0.282	0.133
-402.238	-111.319	0.276	-0.073
-401.223	123.815	0.100	0.164
-400.209	-19.550	0.389	-0.315
-399.194	-200.000	-0.013	0.144
-398.179	-89.876	-0.404	0.154
-397.165	-66.544	0.511	0.265
-396.150	-111.795	0.445	0.117
-395.136	-60.944	-0.361	-0.199
-394.121	-200.000	-0.011	-0.234
-393.106	-82.510	0.137	0.058
-392.092	-200.000	0.040	-0.298
-391.077	92.722	0.149	0.221
-390.063	-103.326	0.527	-0.162
-389.048	70.264	-0.142	0.192
-388.033	-58.823	0.094	0.053
-387.019	800.000	-0.041	-0.173
-386.004	-77.785	-0.145	0.065
-384.990	-188.929	-0.139	0.002
-383.975	-200.000	0.008	0.215
-382.960	29.316	0.047	0.053
-381.946	-132.129	-0.306	0.052
-380.931	-5.031	-0.138	-0.124
-379.917	193.403	0.109	0.217
-378.902	-200.000	0.012	0.511
-377.888	800.000	-0.021	0.079
-376.873	-200.000	0.020	-0.251
-375.858	247.515	-0.142	-0.315
-374.844	-120.249	0.287	0.064
-373.829	209.300	0.192	0.396
-372.815	285.822	-0.057	-0.134
-371.800	133.349	-0.245	-0.415
-370.785	-110.948	-0.241	-0.064
-369.771	800.000	-0.125	-0.586
-368.756	-60.274	-0.201	-0.112
-367.742	-21.789	0.389	-0.309
-366.727	-200.000	-0.002	-0.402
-365.712	733.839	-0.188	-0.661
-364.698	57.014	0.100	-0.128
-363.683	-125.343	0.580	-0.115
-362.669	165.825	0.134	0.248
-361.654	9.997	-0.182	0.181
-360.639	328.555	0.161	0.407
-359.625	129.070	0.220	0.368
-358.610	-61.816	-0.436	-0.238
-357.596	-24.449	-0.436	-0.340
-356.581	-24.161	0.161	0.125
-355.566	311.679	0.075	0.186
-354.552	-148.429	-0.626	0.066
-353.537	-47.742	-0.318	-0.201
-352.523	-81.532	-0.210	0.090
-351.508	-137.426	-0.192	-0.028
-350.493	198.262	0.137	-0.275
-349.479	-7.515	0.461	-0.408
-348.464	127.871	0.251	0.418
-347.450	23.351	-0.283	0.305
-346.435	97.243	-0.079	-0.119
-345.420	-40.850	0.551	0.372
-344.406	-121.823	0.385	0.082
-343.391	69.770	0.091	0.123
-342.377	-200.000	-0.040	-0.271
-341.362	-64.942	0.296	-0.156
-340.348	-82.305	0.412	0.175
-339.333	-78.270	-0.265	0.119
-338.318	-178.170	-0.304	-0.009
-337.304	10.058	0.486	0.482
-336.289	-200.000	0.013	0.286
-335.275	-43.593	-0.200	0.131
-334.260	172.738	0.103	-0.195
-333.245	800.000	-0.124	0.514
-332.231	-200.000	0.072	-0.441
-331.216	-60.390	-0.056	0.031
-330.202	-47.241	0.420	-0.267
-329.187	363.491	0.035	0.093
-328.172	-129.009	-0.161	-0.029
-327.158	762.063	-0.107	-0.380
-326.143	-167.997	-0.360	-0.018
-325.129	800.000	-0.082	-0.461
-324.114	18.451	0.357	-0.373
-323.099	-150.635	-0.169	0.017
-322.085	-11.463	-0.257	0.221
-321.070	-200.000	-0.016	0.521
-320.056	-47.344	0.329	-0.209
-319.041	-101.465	0.133	-0.042
-318.026	5.010	-0.304	0.292
-317.012	36.110	-0.233	-0.268
-315.997	25.392	-0.326	-0.353
-314.983	73.376	0.173	-0.236
-313.968	11.856	-0.373	-0.374
-312.953	-159.567	0.396	-0.028
-311.939	110.783	0.228	0.359
-310.924	-30.779	0.371	-0.274
-309.910	-200.000	-0.015	-0.468
-308.895	197.244	0.091	0.181
-307.880	-167.621	0.158	-0.008
-306.866	78.971	0.131	0.183
-305.851	103.975	0.237	-0.364
-304.837	-71.785	-0.097	0.047
-303.822	-104.759	0.564	-0.168
-302.807	480.252	-0.074	-0.220
-301.793	-59.051	0.346	0.194
-300.778	152.567	-0.162	0.290
-299.764	-83.612	-0.325	0.135
-298.749	-56.213	0.085	0.049
-297.735	800.000	0.048	0.218
-296.720	300.443	0.199	0.481
-295.705	-106.316	-0.320	-0.093
-294.691	70.088	-0.145	0.195
-293.676	386.615	0.071	-0.193
-292.662	-92.389	-0.144	-0.053
-291.647	800.000	0.011	0.064
-290.632	593.394	-0.142	-0.460
-289.618	88.393	-0.287	0.417
-288.603	-119.082	0.244	0.055
-287.589	-178.262	0.170	-0.005
-286.574	459.533	0.100	0.292
-285.559	-121.582	0.426	-0.091
-284.545	178.331	-0.312	-0.595
-283.530	800.000	-0.097	-0.413
-282.516	109.043	0.108	0.169
-281.501	-133.841	0.366	0.059
-280.486	91.486	0.246	-0.361
-279.472	-200.000	-0.007	-0.382
-278.457	511.220	0.133	0.405
-277.443	-17.917	-0.298	0.244
-276.428	-74.415	-0.073	-0.034
-275.413	-160.085	-0.381	-0.027
-274.399	-92.046	-0.492	-0.180
-273.384	-200.000	0.004	-0.054
-272.370	-161.731	-0.372	0.024
-271.355	9.003	-0.175	-0.172
-270.340	-169.889	0.626	-0.029
-269.326	-200.000	0.003	0.128
-268.311	-123.529	-0.081	-0.017
-267.297	-55.699	0.369	0.215
-266.282	800.000	0.053	-0.260
-265.267	-200.000	-0.002	-0.118
-264.253	-39.968	-0.026	0.017
-263.238	190.844	-0.090	-0.177
-262.224	-21.532	-0.092	0.073
-261.209	-105.128	-0.375	0.111
-260.195	38.975	0.133	0.155
-259.180	-107.259	0.267	-0.076
-258.165	-132.665	0.280	0.046
-257.151	-48.111	0.551	0.346
-256.136	-180.866	-0.113	-0.003
-255.122	-101.095	0.268	-0.085
-254.107	48.119	-0.173	0.211
-253.092	-80.822	-0.019	0.008
-252.078	-200.000	-0.026	-0.373
-251.063	414.702	-0.081	-0.225
-250.049	-105.672	0.423	0.124
-249.034	-102.409	0.217	0.067
-248.019	352.576	-0.087	0.226
-247.005	-80.372	0.134	-0.058
-245.990	135.655	0.135	0.229
-244.976	-166.431	-0.380	-0.020
-243.961	800.000	0.106	-0.490
-242.946	-89.643	-0.091	0.034
-241.932	-20.925	0.385	-0.306
-240.917	-75.476	0.250	0.115
-239.903	-73.757	-0.335	-0.158
-238.888	800.000	-0.084	-0.397
-237.873	140.559	0.317	0.547
-236.859	167.656	0.168	-0.311
-235.844	366.697	0.064	0.169
-234.830	-84.918	0.235	-0.096
-233.815	-100.818	0.140	-0.045
-232.800	-61.695	0.274	0.149
-231.786	64.525	0.186	0.245
-230.771	-44.832	0.459	0.297
-229.757	212.517	0.057	-0.118
-228.742	-200.000	0.026	0.200
-227.727	128.691	-0.152	0.252
-226.713	-114.047	0.248	0.062
-225.698	-113.877	-0.398	0.100
-224.684	-159.508	0.404	0.029
-223.669	-50.622	0.062	-0.038
-222.655	-141.743	-0.298	0.039
-221.640	-102.268	-0.299	-0.093
-220.625	108.967	0.182	0.284
-219.611	-24.214	0.255	0.198
-218.596	-200.000	-0.033	0.315
-217.582	-167.512	0.678	-0.035
-216.567	-200.000	0.010	0.250
-215.552	746.698	-0.088	0.311
-214.538	-117.060	-0.233	-0.055
-213.523	-194.305	0.340	0.003
-212.509	184.088	-0.140	-0.271
-211.494	-154.705	-0.377	0.032
-210.479	278.385	-0.067	0.155
-209.465	-22.947	-0.163	0.128
-208.450	-114.568	-0.297	0.073
-207.436	-6.323	0.154	0.137
-206.421	800.000	0.034	-0.157
-205.406	-41.064	0.168	-0.112
-204.392	319.249	-0.196	-0.485
-203.377	11.702	-0.309	0.308
-202.363	-145.527	0.227	-0.026
-201.348	-200.000	0.005	-0.469
-200.333	-138.342	-0.168	-0.024
-199.319	-54.322	0.009	-0.006
-198.304	800.000	0.058	-0.277
-197.290	-18.354	-0.568	0.461
-196.275	-121.300	0.096	0.021
-195.260	-96.555	-0.367	-0.125
-194.246	47.720	0.261	0.317
-193.231	800.000	-0.070	0.354
-192.217	396.352	0.211	0.577
-191.202	206.799	-0.086	-0.175
-190.187	71.438	0.373	-0.504
-189.173	511.893	0.082	-0.250
-188.158	-140.050	0.378	0.051
-187.144	800.000	-0.108	-0.435
-186.129	-78.452	0.182	0.081
-185.114	-0.138	0.457	-0.422
-184.100	-48.080	0.351	0.220
-183.085	-69.006	0.227	0.113
-182.071	106.642	0.083	0.129
-181.056	-19.952	0.046	0.037
-180.042	-20.532	0.179	-0.143
-179.027	-79.536	0.271	0.118
-178.012	-200.000	0.024	0.234
-176.998	-8.046	0.081	-0.071
-175.983	-103.420	0.359	0.109
-174.969	216.516	0.156	0.324
-173.954	745.595	-0.182	-0.640
-172.939	-31.864	0.331	0.240
-171.925	-159.932	0.249	-0.017
-170.910	0.102	-0.213	-0.197
-169.896	-71.164	-0.175	0.085
-168.881	-200.000	-0.003	-0.079
-167.866	-200.000	-0.077	-0.671
-166.852	1.502	-0.562	-0.525
-165.837	-184.367	0.522	0.011
-164.823	-43.281	0.099	-0.065
-163.808	-109.844	-0.360	0.097
-162.793	696.753	0.062	-0.212
-161.779	780.516	0.060	-0.213
-160.764	73.972	-0.158	-0.216
-159.750	189.031	0.150	0.292
-158.735	-200.000	0.035	0.223
-157.720	29.300	0.068	-0.075
-156.706	188.407	-0.085	-0.165
-155.691	-170.366	0.478	0.021
-154.677	-51.647	0.636	0.384
-153.662	199.202	0.161	-0.321
-152.647	144.649	0.127	-0.220
-151.633	-1.824	-0.286	-0.261
-150.618	-8.287	-0.221	0.193
-149.604	65.966	0.167	0.220
-148.589	302.026	-0.118	0.283
-147.574	-200.000	0.046	0.380
-146.560	-200.000	-0.069	-0.463
-145.545	-200.000	0.042	-0.282
-144.531	-132.622	-0.278	-0.046
-143.516	-155.098	-0.195	0.016
-142.502	92.368	0.025	-0.037
-141.487	1.690	0.176	0.164
-140.472	12.182	-0.300	0.299
-139.458	4.592	-0.559	-0.532
-138.443	44.166	-0.172	-0.205
-137.429	5.868	-0.119	-0.114
-136.414	800.000	0.029	-0.124
-135.399	-128.747	-0.475	0.086
-134.385	208.716	-0.056	0.114
-133.370	-70.694	0.379	-0.185
-132.356	-43.159	-0.330	-0.216
-131.341	171.616	0.090	0.168
-130.326	29.340	0.157	0.172
-129.312	532.206	0.089	-0.274
-128.297	65.321	-0.405	-0.532
-127.283	-40.942	-0.087	-0.058
-126.268	-21.238	0.426	-0.337
-125.253	494.798	-0.037	0.112
-124.239	764.631	-0.085	0.303
-123.224	-53.462	-0.473	-0.280
-122.210	-22.088	0.168	-0.132
-121.195	800.000	-0.055	-0.252
-120.180	532.480	-0.077	0.239
-119.166	-3.949	-0.131	0.118
-118.151	5.654	-0.142	-0.136
-117.137	20.991	0.069	-0.072
-116.122	-118.622	0.218	0.050
-115.107	-194.717	-0.200	0.002
-114.093	-137.397	0.067	0.010
-113.078	334.629	0.072	-0.182
-112.064	-200.000	-0.000	0.009
-111.049	57.114	-0.450	-0.569
-110.034	96.834	0.270	-0.402
-109.020	52.321	-0.176	-0.217
-108.005	800.000	-0.079	0.437
-106.991	-162.074	0.051	-0.003
-105.976	158.574	-0.105	0.188
-104.962	-138.736	0.278	0.039
-103.947	-53.197	-0.182	0.108
-102.932	800.000	-0.128	0.541
-101.918	662.455	-0.176	-0.591
-100.903	-163.925	0.534	0.032
-99.889	-200.000	0.039	0.247
-98.874	8.999	0.315	-0.308
-97.859	62.681	-0.257	0.334
-96.845	-138.784	0.408	-0.057
-95.830	-156.992	0.606	0.047
-94.816	-141.910	-0.175	0.022
-93.801	117.748	0.036	-0.057
-92.786	-200.000	0.636	-0.003
-91.772	67.396	0.028	-0.037
-90.757	-89.734	-0.293	0.111
-89.743	-48.496	0.375	0.233
-88.728	126.710	0.094	0.155
-87.713	-111.202	-0.164	-0.043
-86.699	-109.922	-0.059	0.016
-85.684	-160.072	-0.358	0.025
-84.670	-54.851	0.155	-0.090
-83.655	-131.513	0.164	-0.028
-82.640	-76.051	0.430	-0.196
-81.626	540.963	0.059	-0.181
-80.611	753.556	0.091	0.322
-79.597	-59.659	0.249	-0.138
-78.582	107.452	-0.061	0.094
-77.567	-200.000	-0.007	-0.192
-76.553	-13.468	-0.559	-0.468
-75.538	-200.000	-0.053	-0.353
-74.524	-200.000	0.011	-0.187
-73.509	-16.583	0.206	-0.169
-72.494	-70.459	-0.411	-0.201
-71.480	-34.051	0.190	0.135
-70.465	63.151	0.123	-0.159
-69.451	-78.443	-0.437	0.193
-68.436	101.020	-0.260	0.392
-67.422	-24.248	0.162	0.125
-66.407	125.409	-0.028	0.046
-65.392	40.978	0.266	0.311
-64.378	800.000	-0.188	0.775
-63.363	74.818	-0.299	-0.407
-62.349	-51.850	-0.196	0.117
-61.334	45.114	-1.976	-2.356
-60.319	31.645	1.192	1.326
-59.305	238.798	-3.396	-7.325
-58.290	113.969	3.442	5.422
-57.276	368.427	3.935	10.333
-56.261	-200.000	23.418	320.279
-55.246	353.300	1305.135	3363.606
-54.232	52.767	2846.705	3520.619
-53.217	51.283	2661.097	3267.976
-52.203	31.491	2391.504	2657.630
-51.188	27.677	2057.775	2239.699
-50.173	24.408	1943.236	2076.771
-49.159	23.314	1932.701	2052.695
-48.144	22.848	1928.114	2042.327
-47.130	22.716	1925.470	2037.907
-46.115	22.683	1923.480	2035.335
-45.100	22.738	1921.633	2033.944
-44.086	22.791	1920.212	2032.970
-43.071	22.740	1918.157	2030.129
-42.057	22.779	1916.573	2028.817
-41.042	22.647	1915.947	2026.552
-40.027	22.774	1913.876	2025.741
-39.013	22.708	1912.788	2023.745
-37.998	22.688	1911.933	2022.536
-36.984	22.687	1911.313	2021.785
-35.969	22.774	1908.893	2020.152
-34.954	22.702	1907.067	2017.311
-33.940	22.610	1906.235	2015.286
-32.925	22.558	1905.375	2013.701
-31.911	22.640	1904.125	2013.250
-30.896	22.546	1903.292	2011.207
-29.881	22.689	1901.072	2010.415
-28.867	22.578	1899.410	2007.307
-27.852	22.527	1898.341	2005.513
-26.838	22.587	1896.834	2004.537
-25.823	22.442	1896.023	2001.933
-24.809	22.648	1894.181	2002.267
-23.794	22.645	1893.039	2000.940
-22.779	22.557	1892.070	1998.832
-21.765	22.496	1890.415	1996.314
-20.750	22.541	1889.738	1996.030
-19.736	22.521	1888.145	1994.040
-18.721	22.533	1886.891	1992.780
-17.706	22.531	1886.012	1991.745
-16.692	22.560	1884.880	1990.796
-15.677	22.539	1883.878	1989.420
-14.663	22.496	1882.338	1987.234
-13.648	22.371	1881.172	1984.504
-12.633	22.463	1879.668	1983.881
-11.619	22.319	1879.919	1982.442
-10.604	22.262	1878.163	1979.865
-9.590	22.269	1877.000	1978.638
-8.575	22.390	1874.792	1977.593
-7.560	22.456	1873.952	1977.374
-6.546	22.448	1872.343	1975.510
-5.531	22.495	1870.993	1974.542
-4.517	22.486	1870.215	1973.536
-3.502	22.395	1868.642	1970.771
-2.487	22.382	1869.191	1971.126
-1.473	22.640	1864.294	1968.783
-0.458	22.363	1846.154	1946.471
0.556	18.912	1993.266	2048.036
1.571	17.439	2197.034	2237.672
2.586	18.365	2235.410	2288.936
3.600	18.328	2239.118	2291.966
4.615	18.410	2237.402	2291.032
5.629	18.278	2235.917	2287.466
6.644	18.278	2233.884	2285.113
7.659	18.259	2232.320	2282.986
8.673	18.376	2230.505	2282.426
9.688	18.084	2238.803	2286.715
10.702	17.161	2320.330	2356.837
11.717	15.498	2384.631	2398.005
12.731	7.194	2365.518	2259.809
13.746	0.930	2349.537	2154.844
14.761	0.168	2345.513	2140.023
15.775	0.091	2343.991	2137.267
16.790	0.057	2342.981	2135.607
17.804	-0.007	2341.086	2132.719
18.819	-0.019	2340.295	2131.569
19.834	0.113	2338.393	2131.454
20.848	0.060	2336.814	2129.014
21.863	-0.010	2334.411	2125.575
22.877	0.040	2333.519	2125.219
23.892	0.000	2331.042	2122.144
24.907	-0.057	2328.526	2118.786
25.921	0.073	2326.316	2118.361
26.936	0.035	2323.914	2115.382
27.950	0.012	2321.248	2112.376
28.965	-0.063	2320.417	2110.318
29.980	0.064	2318.765	2110.344
30.994	0.126	2315.169	2107.693
32.009	3.824	2327.315	2170.757
33.023	12.755	2353.065	2321.504
34.038	16.392	2358.548	2378.178
35.053	16.370	2354.062	2373.061
36.067	16.094	2351.512	2366.311
37.082	16.130	2350.547	2365.567
38.096	16.221	2349.696	2365.714
39.111	16.525	2347.019	2367.010
40.126	16.779	2345.043	2368.304
41.140	16.909	2343.166	2367.955
42.155	16.840	2342.566	2366.098
43.169	16.769	2340.117	2362.346
44.184	16.576	2336.063	2355.266
45.199	16.503	2335.182	2353.066
46.213	16.690	2334.029	2354.239
47.228	16.772	2333.263	2354.334
48.242	16.827	2331.175	2352.713
49.257	16.891	2329.702	2351.840
50.271	17.053	2326.370	2350.447
51.286	16.820	2323.683	2344.210
52.301	16.531	2323.040	2339.260
53.315	17.452	2325.646	2354.420
54.330	20.170	2334.255	2400.737
55.344	21.894	2334.755	2424.931
56.359	22.125	2331.163	2424.127
57.374	22.278	2331.443	2426.246
58.388	22.484	2327.424	2424.618
59.403	22.347	2323.325	2418.167
60.417	21.945	2319.774	2408.642
61.432	21.998	2318.950	2408.220
62.447	22.192	2317.209	2408.796
63.461	22.396	2316.846	2410.950
64.476	22.542	2314.078	2409.781
65.490	22.274	2311.358	2402.983
66.505	21.368	2308.161	2386.935
67.520	19.047	2300.754	2347.214
68.534	17.063	2291.627	2310.499
69.549	16.508	2286.703	2297.681
70.563	16.438	2284.624	2294.360
71.578	16.362	2283.490	2291.912
72.593	16.525	2281.120	2291.470
73.607	16.643	2279.575	2291.250
74.622	16.610	2278.473	2289.428
75.636	16.511	2275.263	2284.585
76.651	16.411	2273.198	2280.880
77.666	16.426	2270.895	2278.492
78.680	16.386	2267.276	2274.056
79.695	16.188	2265.346	2269.166
80.709	15.918	2265.517	2265.409
81.724	16.043	2262.172	2263.490
82.739	16.139	2259.092	2261.430
83.753	16.172	2256.787	2259.295
84.768	15.994	2254.935	2254.779
85.782	15.776	2254.726	2251.364
86.797	15.809	2252.303	2249.118
87.812	15.891	2250.392	2248.043
88.826	16.001	2248.547	2247.401
89.841	16.029	2246.986	2245.952
90.855	16.031	2244.363	2243.090
91.870	16.227	2242.716	2243.793
92.884	16.034	2242.027	2240.254
93.899	16.195	2240.439	2240.553
94.914	16.975	2243.179	2253.440
95.928	19.614	2250.012	2295.328
96.943	20.442	2248.714	2304.781
97.957	17.712	2238.163	2257.410
98.972	16.198	2231.317	2230.133
99.987	16.066	2227.633	2224.426
101.001	15.986	2226.546	2222.020
102.016	15.991	2223.677	2218.961
103.030	15.980	2221.170	2216.041
104.045	16.015	2219.196	2214.277
105.060	16.043	2217.722	2212.903
106.074	16.046	2216.159	2211.114
107.089	16.027	2214.980	2209.422
108.103	16.078	2212.861	2207.720
109.118	16.086	2211.523	2206.221
110.133	16.272	2210.586	2207.468
111.147	16.137	2207.573	2202.424
112.162	16.093	2206.465	2200.488
113.176	16.431	2204.228	2202.420
114.191	16.447	2202.965	2201.104
115.206	16.434	2201.803	2199.504
116.220	16.318	2199.369	2195.295
117.235	16.313	2197.214	2192.812
118.249	16.447	2195.281	2192.378
119.264	16.395	2194.521	2190.673
120.279	16.338	2191.526	2186.681
121.293	16.398	2190.727	2186.402
122.308	16.301	2189.775	2183.931
123.322	16.275	2188.363	2181.923
124.337	16.814	2190.083	2190.383
125.352	19.610	2197.106	2233.533
126.366	20.256	2195.491	2240.008
127.381	17.505	2184.315	2192.768
128.395	16.415	2178.940	2173.034
129.410	16.240	2177.102	2168.678
130.424	16.251	2174.500	2165.971
131.439	16.293	2173.962	2165.718
132.454	16.329	2172.712	2164.671
133.468	16.517	2171.088	2165.218
134.483	16.614	2168.497	2163.623
135.497	16.697	2167.151	2163.092
136.512	16.525	2164.541	2158.012
137.527	16.482	2162.557	2155.231
138.541	16.191	2161.446	2150.135
139.556	16.129	2160.805	2148.442
140.570	16.241	2159.097	2147.925
141.585	16.013	2156.758	2142.423
142.600	15.978	2155.398	2140.371
143.614	16.011	2153.276	2138.438
144.629	15.987	2150.571	2135.185
145.643	15.883	2149.798	2132.840
146.658	15.969	2147.627	2131.517
147.673	15.709	2146.235	2126.575
148.687	15.936	2144.655	2127.644
149.702	16.112	2144.143	2129.113
150.716	16.102	2142.868	2127.465
151.731	16.164	2141.837	2126.969
152.746	16.153	2141.169	2125.921
153.760	16.945	2144.851	2139.368
154.775	19.745	2151.642	2181.447
155.789	20.541	2150.312	2189.918
156.804	17.986	2138.024	2144.932
157.819	16.253	2131.556	2116.368
158.833	15.946	2128.694	2109.401
159.848	16.028	2126.077	2107.588
160.862	16.242	2125.583	2109.538
161.877	16.229	2124.383	2107.934
162.892	16.259	2124.124	2107.794
163.906	16.328	2122.991	2107.288
164.921	16.363	2120.062	2104.572
165.935	16.369	2118.080	2102.423
166.950	16.505	2117.370	2103.162
167.964	16.484	2114.430	2099.725
168.979	16.233	2111.916	2093.853
169.994	16.179	2110.207	2091.234
171.008	16.237	2108.679	2090.194
172.023	16.126	2107.295	2087.189
173.037	16.178	2106.921	2087.214
174.052	16.411	2105.123	2088.080
175.067	16.216	2104.210	2084.497
176.081	16.108	2102.388	2081.114
177.096	16.222	2100.839	2080.745
178.110	16.373	2099.412	2080.946
179.125	16.427	2098.464	2080.430
180.140	16.326	2097.768	2078.245
181.154	16.350	2095.455	2075.997
182.169	16.471	2095.839	2077.628
183.183	17.331	2097.485	2089.629
184.198	20.358	2104.742	2134.066
185.213	20.761	2102.617	2136.633
186.227	17.864	2092.316	2090.294
187.242	16.533	2088.056	2069.428
188.256	16.467	2085.172	2065.509
189.271	16.316	2083.138	2061.395
190.286	16.093	2082.701	2057.982
191.300	16.233	2079.375	2056.166
192.315	16.444	2077.689	2056.836
193.329	16.576	2077.163	2057.681
194.344	16.687	2076.590	2058.227
195.359	16.717	2074.801	2056.570
196.373	16.428	2073.517	2051.524
197.388	16.285	2069.911	2045.973
198.402	16.152	2067.313	2041.541
199.417	16.087	2065.419	2038.637
200.432	16.201	2064.291	2038.660
201.446	16.183	2063.358	2037.283
202.461	16.079	2060.721	2033.170
203.475	15.972	2059.160	2030.091
204.490	16.057	2057.203	2028.944
205.504	16.049	2055.791	2027.214
206.519	16.220	2052.379	2025.674
207.534	16.121	2051.742	2023.601
208.548	16.184	2050.351	2022.752
209.563	16.049	2049.713	2020.257
210.577	16.328	2047.684	2021.370
211.592	16.425	2047.182	2021.802
212.607	17.733	2053.241	2043.303
213.621	21.047	2061.244	2091.023
214.636	20.434	2053.715	2075.780
215.650	17.169	2044.203	2026.817
216.665	16.381	2041.356	2014.309
217.680	16.312	2038.968	2010.889
218.694	16.138	2036.908	2006.534
219.709	16.101	2034.880	2003.853
220.723	16.145	2034.382	2003.642
221.738	16.378	2033.595	2005.410
222.753	16.472	2030.669	2003.410
223.767	16.393	2029.418	2000.996
224.782	16.444	2026.664	1998.650
225.796	16.344	2025.988	1996.546
226.811	16.268	2024.173	1993.615
227.826	16.340	2022.838	1992.919
228.840	16.378	2021.314	1991.634
229.855	16.194	2020.651	1988.559
230.869	16.203	2018.397	1986.211
231.884	16.242	2016.731	1984.791
232.899	16.219	2014.792	1982.373
233.913	16.327	2013.527	1982.168
234.928	16.324	2013.054	1981.435
235.942	16.203	2011.407	1978.148
236.957	16.370	2009.121	1977.628
237.972	16.313	2009.065	1976.670
238.986	16.302	2007.185	1974.443
240.001	16.140	2006.126	1971.273
241.015	16.328	2005.909	1973.031
242.030	17.124	2007.772	1983.972
243.045	19.959	2013.582	2022.817
244.059	20.275	2009.834	2022.509
245.074	17.403	2001.035	1979.872
246.088	16.503	1996.507	1964.650
247.103	16.698	1994.457	1964.673
248.117	16.524	1993.998	1961.955
249.132	16.286	1992.037	1957.011
250.147	16.362	1990.012	1955.677
251.161	16.350	1988.767	1954.078
252.176	16.566	1987.376	1954.992
253.190	16.931	1985.777	1957.419
254.205	16.949	1983.970	1955.609
255.220	16.816	1982.667	1952.550
256.234	16.734	1981.689	1950.407
257.249	16.545	1979.592	1945.924
258.263	16.537	1978.836	1944.859
259.278	16.562	1978.389	1944.468
260.293	16.401	1975.388	1939.435
261.307	16.083	1973.421	1933.604
262.322	16.155	1971.060	1931.880
263.336	16.141	1969.747	1930.211
264.351	16.006	1967.227	1925.953
265.366	15.903	1966.162	1923.497
266.380	16.086	1965.534	1924.750
267.395	15.963	1964.610	1922.210
268.409	15.985	1963.155	1920.802
269.424	16.144	1960.925	1920.216
270.439	16.269	1960.798	1921.293
271.453	17.217	1964.171	1935.222
272.468	20.177	1970.058	1974.730
273.482	20.472	1964.089	1971.873
274.497	17.467	1955.158	1928.498
275.512	16.286	1950.911	1910.657
276.526	16.038	1949.057	1905.794
277.541	15.963	1947.251	1902.942
278.555	15.960	1945.730	1901.201
279.570	15.862	1942.828	1897.019
280.585	15.976	1942.639	1897.900
281.599	16.015	1942.273	1897.764
282.614	16.247	1940.878	1898.791
283.628	16.651	1940.442	1902.701
284.643	16.889	1939.704	1904.435
285.657	17.056	1938.158	1904.576
286.672	16.999	1937.551	1903.108
287.687	16.877	1935.226	1899.222
288.701	16.796	1933.953	1896.842
289.716	16.784	1933.152	1895.686
290.730	16.792	1931.858	1894.280
291.745	16.863	1930.566	1893.588
292.760	16.998	1928.428	1892.775
293.774	16.699	1927.978	1888.757
294.789	16.609	1925.636	1885.224
295.803	16.381	1922.898	1879.778
296.818	16.420	1921.413	1878.530
297.833	16.497	1921.051	1878.816
298.847	16.392	1920.210	1876.589
299.862	16.490	1918.025	1875.329
300.876	17.249	1920.054	1885.555
301.891	20.160	1927.707	1925.381
302.906	20.709	1923.665	1927.229
303.920	17.640	1914.893	1884.159
304.935	16.644	1910.909	1868.958
305.949	16.614	1908.307	1865.856
306.964	16.526	1907.278	1863.654
307.979	16.641	1905.605	1863.068
308.993	16.876	1905.006	1864.865
310.008	17.229	1903.801	1867.352
311.022	17.204	1902.244	1865.336
312.037	16.909	1901.189	1860.821
313.052	16.910	1898.999	1858.466
314.066	17.013	1897.683	1858.084
315.081	16.988	1896.649	1856.581
316.095	16.900	1895.421	1854.182
317.110	16.619	1893.715	1849.205
318.125	16.688	1891.319	1847.406
319.139	16.540	1890.349	1844.616
320.154	16.613	1888.836	1843.718
321.168	16.614	1886.969	1841.682
322.183	16.284	1886.116	1837.019
323.197	16.095	1883.770	1832.450
324.212	16.136	1881.571	1830.546
325.227	15.923	1879.381	1825.867
326.241	15.934	1878.454	1824.872
327.256	15.927	1877.318	1823.476
328.270	16.045	1876.343	1823.590
329.285	15.971	1876.876	1823.081
330.300	17.183	1880.396	1839.483
331.314	20.571	1886.859	1882.520
332.329	20.378	1881.446	1874.808
333.343	17.277	1872.119	1831.747
334.358	16.162	1868.063	1815.501
335.373	16.049	1865.929	1811.989
336.387	15.908	1863.435	1807.835
337.402	15.880	1862.383	1806.291
338.416	15.958	1861.482	1806.040
339.431	15.922	1861.438	1805.401
340.446	16.026	1859.099	1804.032
341.460	16.277	1858.547	1805.977
342.475	16.774	1856.905	1809.509
343.489	16.804	1856.136	1808.865
344.504	16.687	1854.954	1806.236
345.519	16.691	1853.963	1805.098
346.533	16.959	1852.344	1806.180
347.548	17.084	1850.869	1805.858
348.562	16.814	1849.406	1801.327
349.577	16.970	1848.896	1802.285
350.592	17.097	1848.440	1802.981
351.606	17.169	1847.384	1802.502
352.621	17.310	1844.922	1801.382
353.635	16.943	1843.226	1795.605
354.650	16.693	1841.817	1791.361
355.665	16.647	1839.683	1788.582
356.679	16.636	1837.804	1786.432
357.694	16.556	1836.591	1784.189
358.708	16.464	1835.473	1781.916
359.723	17.756	1839.935	1799.747
360.738	20.763	1844.851	1836.263
361.752	19.869	1839.429	1821.192
362.767	17.255	1831.820	1785.872
363.781	16.667	1827.924	1775.659
364.796	16.522	1825.999	1772.047
365.810	16.282	1825.613	1768.938
366.825	16.495	1824.426	1769.816
367.840	16.788	1823.939	1772.217
368.854	16.774	1823.514	1771.441
369.869	16.461	1821.442	1765.933
370.883	16.414	1818.805	1762.669
371.898	16.334	1817.816	1760.657
372.913	16.347	1816.486	1759.294
373.927	16.414	1815.523	1758.859
374.942	16.570	1814.859	1759.632
375.956	16.529	1813.982	1758.148
376.971	16.567	1811.462	1755.887
377.986	16.552	1808.856	1752.993
379.000	16.433	1807.665	1750.394
380.015	16.413	1806.973	1749.303
381.029	16.337	1804.522	1745.936
382.044	16.082	1802.160	1740.789
383.059	16.093	1800.325	1738.923
384.073	16.088	1800.028	1738.374
385.088	16.202	1799.045	1738.406
386.102	16.147	1797.082	1735.727
387.117	16.064	1795.755	1733.376
388.132	16.256	1794.919	1734.353
389.146	17.179	1800.163	1748.761
390.161	20.538	1804.970	1788.011
391.175	20.275	1798.073	1778.261
392.190	17.350	1788.872	1738.930
393.205	16.498	1786.108	1727.289
394.219	16.418	1784.013	1724.233
395.234	16.171	1783.620	1721.116
396.248	16.338	1781.088	1720.176
397.263	16.229	1778.932	1716.771
398.278	16.257	1776.849	1714.840
399.292	16.071	1777.544	1713.413
400.307	16.203	1776.693	1713.726
401.321	16.175	1775.506	1712.099
402.336	16.297	1774.534	1712.197
403.350	16.497	1772.905	1712.459
404.365	16.485	1771.987	1711.239
405.380	16.882	1770.382	1713.526
406.394	16.940	1769.911	1713.452
407.409	16.794	1768.710	1710.603
408.423	17.069	1766.997	1711.525
409.438	16.942	1765.413	1708.503
410.453	16.746	1765.118	1706.025
411.467	16.890	1764.333	1706.525
412.482	16.827	1762.870	1704.263
413.496	16.487	1761.089	1698.905
414.511	16.493	1758.838	1696.595
415.526	16.476	1756.027	1693.510
416.540	16.289	1754.831	1690.265
417.555	16.445	1754.081	1690.911
418.569	16.671	1754.985	1693.855
419.584	16.764	1754.271	1693.898
420.599	16.612	1753.780	1691.691
421.613	16.570	1752.415	1689.753
422.628	16.580	1750.190	1687.503
423.642	16.298	1748.899	1683.231
424.657	16.265	1747.656	1681.504
425.672	16.584	1745.746	1682.659
426.686	16.475	1744.684	1680.345
427.701	16.617	1742.741	1679.689
428.715	16.658	1741.564	1678.757
429.730	16.753	1740.784	1678.749
430.745	16.844	1739.504	1678.227
431.759	16.922	1739.768	1679.049
432.774	17.370	1740.027	1683.557
433.788	17.824	1740.481	1688.316
434.803	18.037	1739.458	1689.232
435.818	18.074	1738.991	1688.951
436.832	17.890	1738.397	1686.343
437.847	16.927	1730.968	1669.407
438.861	9.206	1710.710	1573.905
439.876	1.662	1696.286	1486.582
440.890	0.377	1692.709	1470.674
441.905	0.158	1691.887	1467.636
442.920	0.073	1691.233	1466.063
443.934	0.288	1688.889	1465.955
444.949	0.216	1687.940	1464.258
445.963	0.085	1687.781	1462.663
446.978	0.084	1687.174	1461.947
447.993	0.128	1685.397	1460.662
449.007	0.197	1682.394	1458.564
450.022	0.102	1681.826	1456.967
451.036	0.187	1679.973	1456.014
452.051	1.169	1684.105	1468.983
453.066	8.446	1700.893	1554.815
454.080	16.297	1712.023	1641.822
455.095	17.778	1714.532	1658.515
456.109	18.118	1714.346	1661.455
457.124	18.210	1713.994	1661.817
458.139	18.219	1713.767	1661.486
459.153	18.263	1712.844	1660.822
460.168	18.485	1710.661	1660.667
461.182	18.295	1708.844	1656.857
462.197	18.300	1706.885	1654.810
463.212	18.220	1705.275	1652.271
464.226	18.327	1703.874	1651.756
465.241	18.376	1702.932	1651.118
466.255	18.670	1701.744	1652.611
467.270	18.423	1701.087	1649.387
468.285	18.297	1699.118	1646.060
469.299	18.228	1697.709	1643.841
470.314	18.396	1695.886	1643.497
471.328	18.205	1695.540	1641.117
472.343	18.369	1694.239	1641.243
473.358	18.388	1692.748	1639.788
474.372	18.524	1691.623	1639.806
475.387	18.265	1690.661	1636.188
476.401	18.230	1688.928	1633.981
477.416	18.317	1687.490	1633.228
478.430	18.409	1686.505	1632.958
479.445	18.173	1685.585	1629.616
480.460	17.947	1684.135	1625.860
481.474	18.157	1683.511	1627.067
482.489	18.372	1682.642	1628.087
483.503	18.517	1680.076	1626.789
484.518	18.668	1678.786	1626.791
485.533	18.455	1677.993	1623.795
486.547	18.477	1676.684	1622.544
487.562	18.633	1675.249	1622.446
488.576	18.647	1674.154	1621.320
489.591	18.641	1672.414	1619.390
490.606	18.631	1671.095	1617.821
491.620	18.401	1670.512	1614.883
492.635	18.669	1668.744	1615.516
493.649	18.865	1666.884	1615.374
494.664	18.531	1665.215	1610.418
495.679	18.218	1663.895	1605.993
496.693	18.353	1662.654	1605.876
497.708	18.506	1661.866	1606.358
498.722	18.683	1661.223	1607.213
499.737	18.809	1659.448	1606.492
500.752	18.508	1657.134	1601.231
501.766	18.482	1655.581	1599.291
502.781	18.350	1655.370	1597.658
503.795	18.458	1653.847	1597.015
504.810	18.453	1653.682	1596.613
505.825	18.536	1652.888	1596.431
506.839	18.702	1651.146	1596.111
507.854	18.803	1648.721	1594.520
508.868	18.639	1648.125	1592.225
509.883	18.632	1647.575	1591.436
510.898	18.794	1645.446	1590.697
511.912	18.792	1643.568	1588.670
512.927	18.562	1642.226	1585.049
513.941	18.579	1640.767	1583.605
514.956	18.444	1640.202	1581.615
515.971	18.393	1639.088	1579.881
516.985	18.458	1637.048	1578.330
518.000	18.621	1636.928	1579.532
519.014	18.742	1636.490	1580.044
520.029	19.022	1634.468	1580.490
521.043	18.915	1632.674	1577.572
522.058	18.711	1631.379	1574.252
523.073	18.833	1630.996	1574.821
524.087	18.917	1631.144	1575.553
525.102	18.937	1628.702	1573.191
526.116	18.641	1627.751	1569.362
527.131	18.659	1626.025	1567.673
528.146	18.801	1626.036	1568.796
529.160	18.960	1625.062	1569.126
530.175	18.902	1623.747	1567.140
531.189	19.049	1622.191	1566.799
532.204	18.959	1620.952	1564.587
533.219	18.738	1619.853	1561.326
534.233	18.606	1618.484	1558.611
535.248	18.699	1618.758	1559.535
536.262	18.983	1617.864	1561.084
537.277	19.035	1615.266	1558.857
538.292	18.762	1613.279	1554.274
539.306	18.687	1612.617	1552.763
540.321	18.686	1611.228	1551.234
541.335	18.733	1609.410	1549.726
542.350	18.915	1607.659	1549.500
543.365	18.942	1606.015	1547.975
544.379	19.064	1605.764	1548.653
545.394	19.011	1604.796	1547.052
546.408	18.761	1602.777	1542.668
547.423	18.588	1601.512	1539.704
548.438	18.595	1600.456	1538.569
549.452	18.901	1599.238	1539.967
550.467	18.910	1598.149	1538.820
551.481	18.911	1597.663	1538.173
552.496	19.128	1596.979	1539.282
553.511	19.166	1595.646	1538.155
554.525	19.147	1594.383	1536.579
555.540	19.251	1593.929	1536.895
556.554	19.189	1592.645	1534.909
557.569	19.039	1591.166	1531.960
558.583	18.922	1589.376	1529.013
559.598	18.994	1587.814	1527.968
560.613	19.012	1587.934	1528.061
561.627	18.961	1586.669	1526.201
562.642	19.093	1584.866	1525.463
563.656	19.267	1584.063	1526.058
564.671	19.357	1582.295	1524.976
565.686	19.252	1581.361	1522.953
566.700	18.924	1580.018	1518.569
567.715	18.921	1577.508	1515.947
568.729	18.965	1576.241	1514.939
569.744	18.705	1574.542	1510.821
570.759	18.715	1573.892	1510.110
571.773	18.905	1572.620	1510.382
572.788	19.014	1571.632	1510.214
573.802	18.979	1570.428	1508.571
574.817	19.082	1569.784	1508.679
575.832	19.174	1568.657	1508.229
576.846	19.311	1567.094	1507.744
577.861	19.235	1566.001	1505.845
578.875	19.073	1566.068	1504.305
579.890	19.447	1564.526	1505.926
580.905	19.337	1563.510	1503.803
581.919	19.386	1563.777	1504.316
582.934	19.490	1562.296	1503.621
583.948	19.457	1560.919	1501.828
584.963	19.398	1558.762	1499.058
585.978	19.234	1557.377	1496.111
586.992	19.285	1557.870	1496.854
588.007	19.344	1556.655	1496.018
589.021	19.108	1554.854	1492.050
590.036	18.836	1552.761	1487.505
591.051	18.952	1552.252	1487.846
592.065	19.166	1550.803	1488.135
593.080	19.279	1549.511	1487.702
594.094	19.395	1547.480	1486.571
595.109	19.205	1545.268	1482.630
596.123	18.956	1543.923	1479.004
597.138	19.198	1543.783	1480.790
598.153	19.400	1542.026	1480.674
599.167	19.390	1541.248	1479.657
600.182	19.258	1540.781	1477.891
601.196	19.450	1539.264	1477.915
602.211	19.403	1538.628	1476.723
603.226	19.582	1537.298	1476.811
604.240	19.606	1535.823	1475.423
605.255	19.561	1535.056	1474.126
606.269	19.617	1533.906	1473.322
607.284	19.520	1532.512	1470.974
608.299	19.612	1531.291	1470.418
609.313	19.530	1530.405	1468.686
610.328	19.503	1528.838	1466.775
611.342	19.476	1527.811	1465.386
612.357	19.556	1527.777	1465.861
613.372	19.607	1526.131	1464.537
614.386	19.468	1525.731	1462.793
615.401	19.398	1525.267	1461.579
616.415	19.510	1523.575	1460.738
617.430	19.708	1522.625	1461.337
618.445	19.773	1521.514	1460.642
619.459	19.610	1519.742	1457.387
620.474	19.364	1518.852	1454.277
621.488	18.929	1516.905	1448.555
622.503	18.870	1514.949	1446.016
623.518	19.216	1515.042	1448.851
624.532	19.426	1514.477	1449.916
625.547	19.555	1513.911	1450.290
626.561	19.766	1512.873	1450.903
627.576	19.809	1511.965	1450.219
628.591	19.461	1508.977	1444.254
629.605	19.188	1507.964	1440.817
630.620	19.217	1506.624	1439.603
631.634	18.958	1505.707	1436.382
632.649	19.200	1503.961	1436.570
633.663	19.295	1503.477	1436.734
634.678	19.598	1502.682	1438.338
635.693	19.671	1501.432	1437.582
636.707	19.825	1500.336	1437.650
637.722	19.958	1499.617	1437.891
638.736	19.883	1498.768	1436.284
639.751	19.865	1497.501	1434.748
640.766	19.837	1496.371	1433.258
641.780	19.873	1494.715	1431.804
642.795	19.844	1493.821	1430.532
643.809	19.786	1493.741	1429.802
644.824	19.820	1493.326	1429.521
645.839	19.739	1491.595	1427.021
646.853	19.802	1490.118	1425.953
647.868	19.724	1489.008	1424.077
648.882	19.888	1486.719	1423.073
649.897	19.717	1486.163	1420.955
650.912	19.785	1484.387	1419.650
651.926	19.724	1483.971	1418.582
652.941	19.529	1482.211	1415.118
653.955	19.280	1479.557	1410.367
654.970	19.093	1478.356	1407.522
655.985	19.266	1476.422	1406.932
656.999	19.255	1475.743	1406.022
658.014	19.407	1475.025	1406.413
659.028	19.436	1474.651	1406.130
660.043	19.620	1473.839	1406.694
661.058	19.793	1473.108	1407.239
662.072	19.861	1471.556	1406.148
663.087	19.755	1470.566	1404.166
664.101	19.815	1469.107	1403.092
665.116	19.876	1468.515	1402.858
666.131	19.862	1467.775	1401.870
667.145	19.856	1466.431	1400.368
668.160	19.879	1465.296	1399.301
669.174	20.134	1463.787	1399.770
670.189	20.168	1462.415	1398.560
671.204	19.814	1462.367	1395.479
672.218	19.905	1461.266	1394.998
673.233	20.081	1459.878	1394.935
674.247	20.093	1459.240	1394.255
675.262	20.085	1458.264	1393.086
676.276	20.027	1457.487	1391.710
677.291	20.026	1456.168	1390.273
678.306	19.830	1454.991	1387.402
679.320	19.940	1452.970	1386.194
680.335	19.946	1453.161	1386.259
681.349	20.156	1452.413	1387.073
682.364	20.134	1451.298	1385.662
683.379	20.093	1449.394	1383.350
684.393	19.967	1447.793	1380.652
685.408	20.063	1447.527	1380.999
686.422	20.007	1446.382	1379.294
687.437	20.069	1445.897	1379.160
688.452	20.123	1445.703	1379.242
689.466	20.139	1443.392	1377.000
690.481	19.948	1441.917	1373.901
691.495	19.596	1441.343	1370.382
692.510	19.397	1438.805	1366.222
693.525	19.201	1437.134	1362.920
694.539	19.338	1436.873	1363.596
695.554	19.769	1436.873	1366.857
696.568	20.055	1436.768	1368.863
697.583	20.088	1435.782	1368.025
698.598	20.163	1434.538	1367.272
699.612	20.208	1433.507	1366.483
700.627	20.309	1432.173	1365.840
701.641	20.236	1430.700	1363.699
702.656	20.231	1429.922	1362.753
703.671	20.431	1429.919	1364.169
704.685	20.326	1429.141	1362.431
705.700	20.382	1427.320	1360.977
706.714	20.222	1425.244	1357.574
707.729	20.009	1424.440	1354.969
708.744	20.058	1422.954	1353.784
709.758	19.894	1421.470	1350.918
710.773	19.660	1420.597	1348.092
711.787	19.550	1419.342	1345.882
712.802	19.546	1418.003	1344.415
713.816	19.868	1416.731	1345.568
714.831	20.060	1416.157	1346.359
715.846	20.083	1415.232	1345.497
716.860	20.219	1414.328	1345.543
717.875	20.149	1413.599	1344.136
718.889	20.127	1412.271	1342.543
719.904	20.245	1411.661	1342.723
720.919	20.362	1410.192	1342.073
721.933	20.434	1409.637	1341.945
722.948	20.479	1408.795	1341.332
723.962	20.494	1407.662	1340.211
724.977	20.386	1406.666	1338.262
725.992	20.391	1405.232	1336.776
727.006	20.460	1403.682	1335.679
728.021	20.455	1402.165	1334.033
729.035	20.467	1401.546	1333.381
730.050	20.468	1400.870	1332.579
731.065	20.451	1399.397	1330.890
732.079	20.542	1398.443	1330.527
733.094	20.489	1397.559	1329.115
734.108	20.321	1396.098	1326.275
735.123	20.408	1394.524	1325.290
736.138	20.340	1393.693	1323.825
737.152	20.390	1393.130	1323.514
738.167	20.486	1392.352	1323.350
739.181	20.555	1391.648	1323.049
740.196	20.527	1390.184	1321.283
741.211	20.472	1389.299	1319.863
742.225	20.489	1387.998	1318.602
743.240	20.547	1386.506	1317.465
744.254	20.398	1385.619	1315.333
745.269	20.425	1384.941	1314.734
746.284	20.432	1384.297	1314.026
747.298	20.245	1382.519	1310.759
748.313	19.858	1381.215	1306.431
749.327	19.629	1379.902	1303.292
750.342	19.475	1378.549	1300.691
751.356	19.295	1376.930	1297.648
752.371	19.405	1375.788	1297.244
753.386	19.900	1376.342	1301.356
754.400	20.287	1375.837	1303.646
755.415	20.637	1374.367	1304.733
756.429	20.625	1373.355	1303.530
757.444	20.477	1372.300	1301.254
758.459	20.391	1372.416	1300.567
759.473	20.552	1370.944	1300.226
760.488	20.629	1369.881	1299.641
761.502	20.712	1368.373	1298.672
762.517	20.551	1367.138	1296.142
763.532	20.551	1365.332	1294.277
764.546	20.363	1363.506	1290.982
765.561	20.130	1362.458	1288.098
766.575	19.806	1361.254	1284.387
767.590	19.727	1360.632	1283.053
768.605	20.033	1359.286	1283.910
769.619	20.254	1358.625	1284.779
770.634	20.304	1358.173	1284.569
771.648	20.626	1357.821	1286.481
772.663	20.641	1357.276	1285.923
773.678	20.663	1356.539	1285.234
774.692	20.784	1355.271	1284.771
775.707	20.706	1354.933	1283.718
776.721	20.741	1353.972	1282.916
777.736	20.863	1352.252	1282.037
778.751	20.921	1351.393	1281.498
779.765	20.709	1350.750	1279.164
780.780	20.615	1349.513	1277.151
781.794	20.644	1348.896	1276.622
782.809	20.651	1347.823	1275.508
783.824	20.398	1346.675	1272.406
784.838	20.128	1343.321	1267.103
785.853	19.681	1342.776	1263.151
786.867	19.665	1343.238	1263.315
787.882	19.984	1342.843	1265.139
788.897	20.205	1341.695	1265.529
789.911	20.220	1341.249	1265.060
790.926	20.405	1339.963	1265.055
791.940	20.402	1338.901	1263.879
792.955	20.587	1337.375	1263.638
793.969	20.649	1336.194	1262.827
794.984	20.708	1335.831	1262.763
795.999	20.491	1335.420	1260.636
797.013	20.675	1333.299	1259.828
798.028	20.581	1331.944	1257.713
799.042	20.732	1331.371	1258.113
800.057	21.079	1329.545	1258.759
801.072	20.818	1328.583	1255.802
802.086	20.776	1327.656	1254.470
803.101	20.920	1326.700	1254.465
804.115	20.782	1325.755	1252.418
805.130	20.842	1325.140	1252.124
806.145	20.778	1323.697	1250.149
807.159	20.741	1322.296	1248.410
808.174	20.692	1320.990	1246.670
809.188	20.596	1318.896	1243.858
810.203	20.455	1317.361	1241.246
811.218	20.275	1315.982	1238.506
812.232	20.009	1313.954	1234.544
813.247	19.838	1313.607	1232.850
814.261	20.099	1313.813	1234.764
815.276	20.574	1312.543	1236.819
816.291	20.621	1311.819	1236.324
817.305	20.879	1311.085	1237.326
818.320	20.791	1309.542	1235.096
819.334	20.719	1308.865	1233.797
820.349	20.795	1307.614	1233.011
821.364	20.953	1306.188	1232.641
822.378	20.809	1305.337	1230.665
823.393	20.865	1302.940	1228.658
824.407	20.780	1302.367	1227.367
825.422	20.704	1301.945	1226.282
826.437	20.690	1301.037	1225.181
827.451	20.537	1298.728	1221.780
828.466	20.057	1296.199	1215.868
829.480	19.895	1294.338	1212.842
830.495	20.153	1293.151	1213.396
831.509	20.401	1293.277	1215.116
832.524	20.706	1292.611	1216.485
833.539	20.788	1291.668	1216.028
834.553	20.793	1290.473	1214.792
835.568	20.782	1289.601	1213.753
836.582	20.998	1288.419	1214.002
837.597	20.948	1287.041	1212.212
838.612	20.903	1285.351	1210.163
839.626	20.633	1284.476	1207.308
840.641	20.522	1283.601	1205.567
841.655	20.570	1282.031	1204.286
842.670	20.017	1280.552	1198.900
843.685	19.817	1279.171	1196.078
844.699	20.292	1278.844	1198.928
845.714	20.509	1278.612	1200.073
846.728	20.612	1277.917	1199.987
847.743	20.778	1276.931	1200.074
848.758	20.818	1275.828	1199.166
849.772	20.865	1274.426	1198.032
850.787	20.883	1272.740	1196.426
851.801	20.861	1271.638	1195.099
852.816	20.884	1270.334	1193.885
853.831	20.760	1269.330	1191.949
854.845	20.639	1267.168	1188.942
855.860	20.589	1265.298	1186.702
856.874	20.404	1264.081	1184.151
857.889	20.367	1262.073	1181.877
858.904	19.961	1261.022	1177.976
859.918	19.883	1258.985	1175.401
860.933	19.706	1257.695	1172.848
861.947	20.217	1257.145	1175.674
862.962	20.353	1257.117	1176.434
863.977	20.395	1255.748	1175.295
864.991	20.516	1255.505	1175.751
866.006	20.573	1255.767	1176.243
867.020	20.877	1254.057	1176.569
868.035	20.738	1253.513	1174.971
869.049	20.892	1252.698	1175.114
870.064	21.087	1251.262	1174.943
871.079	20.920	1250.792	1173.229
872.093	20.947	1249.806	1172.350
873.108	20.986	1248.354	1171.111
874.122	20.788	1246.863	1168.237
875.137	20.394	1246.880	1165.456
876.152	20.477	1245.293	1164.391
877.166	20.519	1243.236	1162.609
878.181	20.841	1242.711	1164.143
879.195	20.836	1242.813	1164.069
880.210	20.978	1241.865	1163.995
881.225	20.938	1240.482	1162.288
882.239	21.014	1239.890	1162.105
883.254	20.941	1239.377	1160.995
884.268	20.956	1238.074	1159.738
885.283	20.954	1236.976	1158.558
886.298	20.948	1235.597	1157.084
887.312	21.086	1234.493	1156.831
888.327	21.041	1233.621	1155.579
889.341	20.917	1232.327	1153.402
890.356	20.843	1231.549	1152.041
891.371	20.832	1231.082	1151.394
892.385	20.821	1230.129	1150.292
893.400	20.791	1228.706	1148.628
894.414	20.621	1227.233	1145.987
895.429	20.528	1225.097	1143.243
896.444	19.981	1222.638	1137.201
897.458	19.592	1221.833	1133.745
898.473	19.785	1221.983	1135.025
899.487	20.299	1221.707	1138.022
900.502	20.643	1221.190	1139.669
901.517	20.720	1220.132	1139.051
902.531	20.851	1219.088	1138.800
903.546	21.016	1218.172	1138.895
904.560	21.066	1217.827	1138.762
905.575	20.974	1217.169	1137.409
906.589	21.014	1216.293	1136.715
907.604	21.075	1215.114	1135.875
