DTS Sentinel unit serial number:	SN409020Multiplexer serial number:	ORYXHardware model number:	OX4-SRSoftware version number:	ORYX F/W v3.00 Oryx Data Collector v3.7.2.0data status	okinstallation	HaddamTimeLapsedifferential loss correction	single-endedforward channel	channel 3reverse channel	N/Adate	2011/06/22time	03:11:17forward acquisition time	30.00reverse acquisition time	0.00gamma	498.7831k internal	0.1750k external	0.1750temperature offset calibration	1.0074default loss term (dB/km)	0.3790temperature slope calibration	1.3530multiplexer offset coefficient	1.0000multiplexer slope coefficient	1.0000fibre end	0.00T internal ref (°C)	22.31T ext. ref 1 (°C)	17.59T ext. ref 2 (°C)	0.05length (m)	temperature (°C)	Stokes	anti-Stokes-747.200	-132.718	-0.341	-0.057
-746.185	-200.000	-0.101	0.685
-745.171	269.414	0.225	0.526
-744.156	234.663	0.225	0.494
-743.142	-126.340	-0.083	-0.016
-742.127	-200.000	-0.051	-0.334
-741.112	-61.765	0.223	-0.124
-740.098	-87.473	-0.388	0.155
-739.083	-200.000	-0.043	0.493
-738.069	-200.000	0.125	0.834
-737.054	32.784	0.209	-0.241
-736.039	-120.638	-0.369	-0.082
-735.025	345.570	-0.063	-0.165
-734.010	-200.000	0.011	0.493
-732.996	127.279	-0.090	0.152
-731.981	-110.325	0.376	-0.103
-730.966	-200.000	0.013	-0.579
-729.952	75.028	0.115	-0.161
-728.937	-117.319	-0.432	0.103
-727.923	-99.369	0.384	0.128
-726.908	-150.693	-0.139	0.014
-725.894	4.363	-0.301	-0.293
-724.879	8.587	-0.134	-0.133
-723.864	64.760	-0.322	-0.432
-722.850	-59.992	0.278	-0.157
-721.835	44.747	0.331	0.405
-720.821	-52.972	-0.240	0.146
-719.806	97.087	0.245	-0.373
-718.791	41.632	-0.256	0.308
-717.777	-200.000	-0.003	-0.374
-716.762	-116.497	0.194	-0.047
-715.748	385.375	-0.098	0.269
-714.733	-34.786	0.271	0.196
-713.718	-69.672	-0.638	-0.322
-712.704	682.265	-0.041	0.142
-711.689	3.241	-0.160	-0.155
-710.675	389.538	0.152	0.419
-709.660	-200.000	-0.018	0.667
-708.645	285.168	-0.109	-0.261
-707.631	129.331	-0.256	-0.435
-706.616	-127.122	0.249	-0.048
-705.602	-86.987	0.615	-0.248
-704.587	-28.360	0.363	0.277
-703.572	19.545	0.428	-0.457
-702.558	-89.376	-0.352	-0.137
-701.543	-147.293	0.604	0.067
-700.529	-180.608	-0.274	-0.007
-699.514	-116.923	-0.394	-0.095
-698.499	-200.000	-0.422	-0.002
-697.485	5.949	0.151	0.148
-696.470	-9.700	-0.266	-0.235
-695.456	-65.867	-0.536	0.283
-694.441	523.115	-0.115	-0.361
-693.426	-11.737	-0.304	0.264
-692.412	661.711	-0.130	0.448
-691.397	-200.000	0.025	0.313
-690.383	45.291	-0.053	0.064
-689.368	-20.982	-0.160	0.129
-688.354	-199.007	0.177	0.001
-687.339	296.573	-0.110	-0.270
-686.324	-98.174	-0.216	-0.073
-685.310	-38.461	-0.493	-0.345
-684.295	800.000	0.033	-0.152
-683.281	85.531	-0.184	0.268
-682.266	-90.416	-0.357	0.137
-681.251	800.000	-0.058	-0.269
-680.237	-73.025	-0.219	0.106
-679.222	-38.524	-0.381	0.266
-678.208	-200.000	0.017	-0.199
-677.193	168.527	0.262	-0.496
-676.178	-58.586	-0.270	0.155
-675.164	-151.476	0.147	-0.014
-674.149	592.129	-0.144	-0.475
-673.135	-6.444	-0.627	0.566
-672.120	111.494	0.071	-0.114
-671.105	214.705	0.090	-0.190
-670.091	-61.553	-0.336	0.186
-669.076	-27.453	-0.247	-0.190
-668.062	-145.358	0.713	-0.084
-667.047	461.088	-0.089	0.264
-666.032	321.285	0.129	-0.326
-665.018	-70.903	-0.375	0.186
-664.003	-46.261	0.296	-0.192
-662.989	-117.870	-0.187	-0.044
-661.974	-13.707	0.453	0.388
-660.959	-125.763	0.192	0.038
-659.945	-35.534	-0.140	-0.100
-658.930	-122.815	-0.461	-0.098
-657.916	-188.058	0.370	-0.006
-656.901	-138.513	-0.341	0.049
-655.886	800.000	-0.151	0.601
-654.872	-31.512	-0.458	-0.340
-653.857	-200.000	0.044	-0.313
-652.843	-200.000	-0.015	-0.204
-651.828	5.769	0.234	0.229
-650.814	778.678	0.065	-0.238
-649.799	92.400	0.189	0.282
-648.784	207.899	0.134	-0.277
-647.770	-5.381	0.297	-0.270
-646.755	-149.749	-0.232	-0.024
-645.741	-47.048	-0.317	-0.204
-644.726	-200.000	0.017	-0.257
-643.711	-90.460	-0.261	-0.099
-642.697	-56.942	0.362	-0.211
-641.682	-68.535	-0.290	-0.148
-640.668	773.028	0.066	-0.238
-639.653	-200.000	0.043	0.356
-638.638	159.917	0.114	0.211
-637.624	0.391	0.237	0.224
-636.609	-97.630	-0.290	0.099
-635.595	-185.374	0.492	0.010
-634.580	-104.613	-0.323	-0.098
-633.565	272.127	-0.218	0.512
-632.551	-156.305	0.530	0.043
-631.536	701.836	0.107	-0.373
-630.522	163.788	-0.374	-0.698
-629.507	-65.739	-0.192	-0.101
-628.492	84.044	0.253	0.365
-627.478	-173.936	0.136	0.005
-626.463	-43.066	-0.102	0.068
-625.449	16.033	-0.345	0.360
-624.434	-140.403	-0.516	-0.070
-623.419	8.000	0.124	-0.123
-622.405	-198.805	0.341	-0.002
-621.390	-63.597	0.170	-0.092
-620.376	10.668	0.154	-0.156
-619.361	-41.864	0.131	0.089
-618.346	-200.000	-0.032	0.196
-617.332	135.795	0.068	-0.117
-616.317	534.070	-0.064	-0.202
-615.303	-90.979	-0.188	0.071
-614.288	36.969	-0.181	-0.212
-613.273	157.929	-0.168	-0.308
-612.259	800.000	0.052	-0.289
-611.244	-103.142	0.198	-0.062
-610.230	800.000	-0.052	0.235
-609.215	-200.000	0.028	-0.389
-608.201	-43.609	-0.062	0.041
-607.186	-91.469	0.249	0.093
-606.171	-43.691	0.528	0.351
-605.157	-130.376	0.337	0.060
-604.142	57.480	0.383	0.495
-603.128	-120.581	0.192	0.043
-602.113	53.309	-0.057	0.072
-601.098	185.264	-0.235	0.462
-600.084	10.892	0.163	-0.164
-599.069	-97.419	0.031	0.011
-598.055	-148.851	0.104	-0.011
-597.040	-51.676	0.208	0.128
-596.025	518.406	-0.049	-0.151
-595.011	-29.860	0.175	-0.132
-593.996	76.742	-0.137	-0.192
-592.982	-200.000	0.016	0.129
-591.967	-38.663	0.165	0.115
-590.952	-170.701	-0.292	0.013
-589.938	-29.020	-0.115	0.087
-588.923	462.941	0.157	-0.465
-587.909	200.182	-0.095	-0.194
-586.894	-24.409	-0.185	0.145
-585.879	800.000	-0.025	-0.125
-584.865	81.851	-0.277	-0.396
-583.850	184.981	0.059	-0.115
-582.836	-77.405	0.456	0.208
-581.821	-26.001	-0.365	-0.283
-580.806	49.474	-0.407	-0.506
-579.792	312.009	0.147	-0.365
-578.777	-123.119	-0.479	-0.101
-577.763	-145.843	0.506	0.059
-576.748	84.202	-0.205	0.296
-575.733	21.685	-0.270	0.290
-574.719	161.408	-0.123	-0.227
-573.704	-137.835	0.247	0.036
-572.690	800.000	-0.064	-0.259
-571.675	-200.000	-0.015	-0.177
-570.661	7.202	-0.432	-0.425
-569.646	-41.206	-0.115	0.078
-568.631	-54.878	0.040	0.024
-567.617	2.627	-0.384	-0.367
-566.602	530.038	-0.086	-0.270
-565.588	12.221	-0.195	0.198
-564.573	176.133	-0.132	0.253
-563.558	221.087	-0.119	0.253
-562.544	-141.643	0.364	-0.048
-561.529	-173.126	0.286	0.011
-560.515	-125.365	-0.161	0.032
-559.500	-145.023	-0.325	0.039
-558.485	248.483	-0.244	-0.546
-557.471	-200.000	0.005	0.106
-556.456	-66.216	0.166	-0.087
-555.442	-52.585	-0.479	-0.291
-554.427	259.547	-0.218	-0.499
-553.412	-200.000	0.004	-0.142
-552.398	-110.973	0.081	0.022
-551.383	800.000	-0.108	-0.491
-550.369	-80.288	0.337	-0.148
-549.354	32.405	0.185	-0.211
-548.339	10.609	0.088	-0.089
-547.325	-200.000	-0.006	0.119
-546.310	393.021	-0.028	-0.078
-545.296	-200.000	-0.040	0.542
-544.281	-25.202	-0.133	-0.104
-543.266	-157.320	-0.415	-0.033
-542.252	-200.000	-0.046	-0.468
-541.237	-117.596	-0.266	0.063
-540.223	31.229	-0.123	-0.139
-539.208	800.000	-0.022	-0.128
-538.193	-200.000	0.013	0.146
-537.179	-120.232	0.217	0.048
-536.164	-103.996	0.243	0.074
-535.150	278.658	0.089	0.210
-534.135	-140.770	-0.292	-0.039
-533.121	-200.000	0.023	0.151
-532.106	42.940	0.101	-0.121
-531.091	366.123	-0.249	-0.664
-530.077	-153.991	0.293	-0.026
-529.062	-130.940	0.022	0.004
-528.048	660.172	-0.083	0.282
-527.033	-90.149	0.362	0.138
-526.018	110.189	-0.079	-0.125
-525.004	-126.070	-0.444	0.087
-523.989	-81.230	0.563	-0.244
-522.975	42.822	0.098	-0.118
-521.960	-200.000	-0.044	-0.352
-520.945	-130.656	0.192	-0.034
-519.931	-94.558	-0.405	-0.145
-518.916	138.585	0.327	-0.567
-517.902	-55.194	-0.147	-0.087
-516.887	209.203	-0.108	0.224
-515.872	166.209	-0.156	-0.292
-514.858	-200.000	0.029	0.331
-513.843	-104.937	0.070	-0.021
-512.829	-1.003	0.011	-0.010
-511.814	215.310	-0.054	0.112
-510.799	-103.759	-0.738	0.226
-509.785	-200.000	0.001	-0.036
-508.770	671.766	-0.090	0.310
-507.756	-200.000	0.013	0.155
-506.741	-70.647	-0.228	0.113
-505.726	-155.339	-0.276	-0.023
-504.712	-28.769	-0.371	0.281
-503.697	-119.360	-0.209	0.047
-502.683	309.887	-0.059	-0.147
-501.668	39.148	0.203	0.239
-500.653	62.717	-0.114	-0.150
-499.639	-200.000	0.014	0.101
-498.624	-13.960	-0.169	-0.144
-497.610	-128.984	-0.437	-0.080
-496.595	141.084	-0.141	-0.246
-495.581	-130.712	-0.380	-0.067
-494.566	16.578	0.237	0.246
-493.551	-31.535	-0.186	-0.138
-492.537	-46.569	-0.198	0.128
-491.522	-135.886	0.413	0.063
-490.508	175.243	-0.154	0.294
-489.493	63.244	0.409	0.540
-488.478	34.566	0.291	-0.335
-487.464	8.142	0.286	0.282
-486.449	123.899	0.300	0.497
-485.435	553.832	0.098	0.311
-484.420	7.791	-0.202	0.199
-483.405	-102.222	-0.159	0.050
-482.391	800.000	-0.054	-0.207
-481.376	-159.288	-0.171	0.012
-480.362	-34.541	0.265	0.190
-479.347	-112.853	-0.167	-0.043
-478.332	74.994	0.036	0.050
-477.318	55.519	-0.062	0.079
-476.303	-71.044	0.273	-0.135
-475.289	800.000	-0.123	0.536
-474.274	800.000	0.134	-0.512
-473.259	-68.548	-0.315	0.160
-472.245	37.215	0.248	-0.289
-471.230	-108.178	-0.655	0.185
-470.216	-200.000	0.031	-0.219
-469.201	281.337	0.297	-0.703
-468.186	-149.014	0.224	0.023
-467.172	-34.873	-0.100	0.072
-466.157	155.774	0.101	0.184
-465.143	-200.000	-0.012	0.131
-464.128	-200.000	0.014	0.206
-463.113	138.440	-0.166	-0.286
-462.099	40.782	0.204	0.242
-461.084	125.979	0.149	-0.249
-460.070	482.723	0.097	-0.291
-459.055	-123.833	-0.107	0.022
-458.040	-59.659	0.301	-0.169
-457.026	47.453	0.231	0.284
-456.011	-32.191	0.259	0.190
-454.997	-93.502	-0.285	-0.103
-453.982	3.288	-0.349	-0.334
-452.968	800.000	0.100	-0.526
-451.953	186.504	-0.102	-0.201
-450.938	-106.164	-0.087	0.026
-449.924	59.480	-0.017	0.022
-448.909	207.372	-0.236	-0.485
-447.895	634.266	0.073	-0.245
-446.880	748.116	-0.030	-0.109
-445.865	129.126	0.189	-0.317
-444.851	110.193	-0.225	0.356
-443.836	-58.564	0.394	-0.223
-442.822	158.830	0.128	-0.235
-441.807	280.571	0.169	-0.399
-440.792	22.955	0.332	0.357
-439.778	-44.540	0.343	-0.224
-438.763	-66.519	0.331	-0.172
-437.749	-66.099	-0.014	0.007
-436.734	-59.063	0.181	-0.102
-435.719	-17.695	0.101	0.083
-434.705	-200.000	-0.015	-0.259
-433.690	-40.500	-0.141	0.096
-432.676	382.896	-0.074	0.200
-431.661	-8.986	0.477	0.418
-430.646	135.244	-0.102	0.174
-429.632	-42.088	-0.225	0.151
-428.617	-76.694	0.248	0.114
-427.603	18.695	0.224	0.235
-426.588	-200.000	-0.015	0.099
-425.573	-117.443	0.619	-0.146
-424.559	-40.278	0.323	-0.220
-423.544	41.128	-0.128	-0.152
-422.530	-3.578	0.183	0.167
-421.515	-39.143	-0.417	-0.287
-420.500	800.000	-0.101	0.557
-419.486	-105.703	-0.229	0.067
-418.471	293.609	0.089	-0.215
-417.457	2.284	-0.448	0.425
-416.442	-200.000	-0.031	0.271
-415.428	333.813	-0.109	0.277
-414.413	308.964	-0.099	-0.243
-413.398	-81.525	0.339	-0.145
-412.384	-39.911	0.295	0.201
-411.369	-147.013	-0.328	0.036
-410.355	140.640	0.139	0.241
-409.340	-67.931	0.372	0.190
-408.325	-200.000	0.006	0.222
-407.311	70.611	-0.091	-0.123
-406.296	-43.306	-0.229	-0.151
-405.282	-164.427	-0.446	-0.026
-404.267	123.943	0.130	-0.214
-403.252	122.675	0.076	0.125
-402.238	-200.000	0.001	0.574
-401.223	-35.626	-0.170	-0.120
-400.209	-123.713	-0.553	-0.114
-399.194	285.107	-0.143	0.339
-398.179	-200.000	0.000	0.122
-397.165	800.000	0.038	0.206
-396.150	313.238	0.150	0.370
-395.136	379.183	0.180	0.485
-394.121	-200.000	-0.017	-0.229
-393.106	800.000	-0.053	-0.266
-392.092	264.501	-0.084	0.192
-391.077	-147.399	0.208	0.023
-390.063	-103.969	0.102	0.031
-389.048	-159.984	0.256	-0.018
-388.033	-113.818	-0.349	0.088
-387.019	-150.279	-0.764	-0.076
-386.004	-147.240	0.229	0.025
-384.990	-0.484	-0.490	0.455
-383.975	-8.735	0.338	0.297
-382.960	-164.662	-0.262	-0.015
-381.946	-98.875	-0.288	-0.095
-380.931	-88.579	-0.054	0.021
-379.917	-200.000	-0.044	-0.277
-378.902	800.000	-0.027	-0.119
-377.888	25.047	0.134	0.146
-376.873	75.159	0.154	-0.212
-375.858	182.791	-0.091	-0.176
-374.844	-126.959	-0.178	-0.034
-373.829	84.369	0.386	-0.553
-372.815	27.025	0.132	0.145
-371.800	-132.016	0.403	-0.068
-370.785	29.548	-0.157	0.175
-369.771	34.247	-0.183	0.209
-368.756	800.000	0.056	-0.233
-367.742	800.000	0.085	0.386
-366.727	-200.000	0.002	0.358
-365.712	800.000	0.039	0.188
-364.698	-95.266	-0.389	-0.136
-363.683	-200.000	0.081	-0.624
-362.669	-147.804	-0.032	-0.003
-361.654	25.556	-0.189	-0.206
-360.639	-45.431	-0.073	0.047
-359.625	-200.000	0.045	0.388
-358.610	69.866	0.063	-0.085
-357.596	21.631	-0.241	0.257
-356.581	-94.872	0.487	-0.172
-355.566	65.149	0.450	-0.595
-354.552	800.000	0.051	0.211
-353.537	-47.751	0.292	0.185
-352.523	-83.667	-0.037	0.015
-351.508	5.915	0.105	0.102
-350.493	-200.000	-0.061	-0.393
-349.479	151.892	0.031	0.056
-348.464	-200.000	-0.029	0.232
-347.450	-57.257	-0.128	-0.074
-346.435	800.000	0.041	0.179
-345.420	-130.428	0.365	0.064
-344.406	-61.060	-0.102	0.056
-343.391	340.945	-0.154	0.394
-342.377	59.922	0.293	0.379
-341.362	800.000	-0.050	-0.247
-340.348	354.991	0.059	0.154
-339.333	-200.000	-0.019	-0.136
-338.318	-95.851	-0.262	-0.091
-337.304	504.800	0.131	0.398
-336.289	-113.810	0.474	0.120
-335.275	-24.214	-0.324	0.253
-334.260	56.276	0.119	-0.152
-333.245	0.996	0.301	0.282
-332.231	167.334	-0.169	0.315
-331.216	-22.299	0.537	0.425
-330.202	514.047	-0.171	0.524
-329.187	-40.235	0.049	0.034
-328.172	-200.000	0.044	0.649
-327.158	42.387	-0.219	0.260
-326.143	266.536	0.013	0.030
-325.129	585.617	0.103	-0.333
-324.114	178.680	-0.216	-0.414
-323.099	534.173	-0.068	0.211
-322.085	161.254	-0.383	-0.702
-321.070	-42.666	0.310	-0.206
-320.056	-17.353	0.115	0.095
-319.041	-16.048	0.139	0.115
-318.026	-75.033	-0.453	0.211
-317.012	11.539	-0.140	-0.140
-315.997	-119.927	0.262	-0.058
-314.983	-107.924	-0.185	-0.052
-313.968	-169.542	0.092	0.004
-312.953	22.498	-0.119	0.127
-311.939	-51.850	0.218	-0.132
-310.924	-200.000	0.001	0.144
-309.910	-137.444	-0.054	0.008
-308.895	84.418	-0.113	0.161
-307.880	-41.910	0.360	0.241
-306.866	-54.341	-0.225	-0.133
-305.851	-119.256	-0.180	0.041
-304.837	-31.427	0.325	-0.238
-303.822	-92.421	-0.532	0.195
-302.807	73.638	-0.335	0.459
-301.793	-200.000	0.035	0.279
-300.778	-131.668	0.600	-0.102
-299.764	-148.503	0.105	0.011
-298.749	277.897	-0.149	0.348
-297.735	180.630	-0.061	-0.118
-296.720	514.432	-0.060	0.184
-295.705	-52.252	-0.533	-0.321
-294.691	-37.656	-0.196	0.136
-293.676	130.800	0.173	-0.291
-292.662	800.000	0.067	-0.350
-291.647	800.000	-0.108	-0.398
-290.632	-54.189	-0.546	-0.323
-289.618	-200.000	0.006	0.242
-288.603	137.955	-0.216	0.371
-287.589	-76.413	0.339	0.155
-286.574	46.005	-0.104	-0.125
-285.559	-200.000	-0.008	-0.133
-284.545	83.479	-0.079	-0.112
-283.530	-128.801	-0.135	-0.025
-282.516	-165.441	-0.564	0.032
-281.501	-162.116	-0.066	-0.004
-280.486	500.942	0.041	-0.125
-279.472	64.340	-0.278	0.366
-278.457	-89.117	-0.385	-0.148
-277.443	-94.408	-0.095	0.034
-276.428	-3.820	-0.268	-0.242
-275.413	800.000	-0.048	-0.264
-274.399	797.933	0.031	-0.113
-273.384	431.800	0.062	-0.177
-272.370	250.382	0.124	0.275
-271.355	-99.318	-0.066	-0.022
-270.340	-32.540	-0.877	-0.636
-269.326	-21.901	0.215	-0.171
-268.311	-18.570	0.267	-0.217
-267.297	-200.000	0.411	-0.002
-266.282	-200.000	0.358	-0.001
-265.267	-200.000	-0.039	-0.264
-264.253	-43.054	0.216	0.143
-263.238	247.939	0.090	0.200
-262.224	191.292	0.128	-0.253
-261.209	800.000	0.027	-0.117
-260.195	244.262	0.122	-0.269
-259.180	-58.005	-0.120	0.068
-258.165	-20.133	-0.224	-0.180
-257.151	241.887	0.100	0.219
-256.136	255.895	0.071	-0.159
-255.122	-68.229	0.436	-0.220
-254.107	-90.051	-0.188	0.071
-253.092	85.089	-0.286	-0.410
-252.078	164.229	0.121	-0.223
-251.063	800.000	-0.038	0.180
-250.049	-13.043	-0.164	0.139
-249.034	-127.915	0.173	0.032
-248.019	800.000	-0.076	0.365
-247.005	800.000	-0.105	0.422
-245.990	-114.132	-0.375	0.094
-244.976	-118.951	0.234	0.053
-243.961	-63.431	0.338	-0.181
-242.946	-129.007	0.330	0.060
-241.932	16.059	0.092	0.094
-240.917	3.940	-0.299	0.284
-239.903	800.000	0.055	0.217
-238.888	800.000	0.087	-0.329
-237.873	-160.122	-0.190	-0.013
-236.859	-79.007	-0.369	-0.163
-235.844	4.742	-0.135	-0.129
-234.830	-200.000	-0.054	0.614
-233.815	-46.868	-0.194	0.123
-232.800	-154.322	0.287	-0.025
-231.786	134.836	0.340	0.576
-230.771	-0.942	0.136	0.125
-229.757	-68.348	-0.162	-0.082
-228.742	-200.000	-0.016	-0.681
-227.727	-12.094	0.264	0.224
-226.713	-200.000	0.045	-0.354
-225.698	-124.538	-0.236	0.047
-224.684	-190.978	-0.337	0.004
-223.669	-18.264	0.387	0.315
-222.655	800.000	0.057	-0.267
-221.640	-147.579	0.166	0.018
-220.625	630.904	-0.080	0.264
-219.611	133.997	-0.226	0.382
-218.596	50.238	-0.208	0.256
-217.582	25.074	-0.099	0.107
-216.567	205.861	0.166	0.337
-215.552	-108.268	0.097	-0.027
-214.538	-59.237	0.034	-0.019
-213.523	-104.177	0.337	-0.101
-212.509	800.000	-0.071	0.392
-211.494	73.862	-0.125	-0.170
-210.479	-73.095	-0.108	-0.051
-209.465	103.896	-0.004	-0.006
-208.450	-200.000	0.034	-0.456
-207.436	-47.774	0.295	-0.186
-206.421	-200.000	0.016	0.297
-205.406	-119.154	0.628	0.142
-204.392	413.163	0.150	-0.418
-203.377	800.000	-0.053	0.290
-202.363	-200.000	-0.118	0.720
-201.348	113.200	0.148	-0.234
-200.333	-73.695	0.485	-0.229
-199.319	96.702	0.201	-0.300
-198.304	-148.627	0.187	-0.020
-197.290	40.555	0.164	0.192
-196.275	347.748	-0.160	-0.413
-195.260	-200.000	-0.181	-0.001
-194.246	-69.152	-0.281	0.140
-193.231	-200.000	-0.003	-0.412
-192.217	-164.487	-0.611	0.036
-191.202	-200.000	-0.044	0.401
-190.187	-105.055	-0.184	-0.054
-189.173	-93.990	-0.337	-0.119
-188.158	-28.133	0.268	-0.201
-187.144	-200.000	-0.030	-0.233
-186.129	-67.376	0.142	-0.072
-185.114	-143.731	0.252	0.031
-184.100	-107.669	0.202	0.057
-183.085	169.720	-0.089	-0.165
-182.071	145.925	-0.088	0.154
-181.056	800.000	-0.065	0.237
-180.042	-200.000	0.073	0.607
-179.027	-114.734	0.479	0.118
-178.012	-133.825	0.460	-0.074
-176.998	93.556	-0.077	0.113
-175.983	48.545	-0.078	-0.095
-174.969	36.300	0.155	0.178
-173.954	65.424	0.193	0.254
-172.939	-73.732	0.203	-0.096
-171.925	-70.695	0.263	0.128
-170.910	-3.406	0.119	0.107
-169.896	800.000	-0.033	0.149
-168.881	-109.132	-0.060	-0.017
-167.866	-32.189	0.064	0.046
-166.852	5.725	-0.402	0.385
-165.837	556.812	0.057	0.178
-164.823	184.206	-0.227	0.438
-163.808	-152.653	-0.444	-0.041
-162.793	-66.664	0.351	0.180
-161.779	-115.126	0.164	-0.040
-160.764	26.693	-0.166	-0.181
-159.750	-164.278	0.086	-0.005
-158.735	-200.000	-0.003	-0.465
-157.720	-200.000	0.014	-0.110
-156.706	-117.026	0.446	0.105
-155.691	-12.167	0.487	0.413
-154.677	800.000	0.026	0.120
-153.662	71.219	0.308	-0.416
-152.647	-200.000	0.037	-0.368
-151.633	70.669	-0.320	-0.431
-150.618	-90.417	0.301	0.113
-149.604	24.609	0.286	-0.308
-148.589	-75.768	-0.024	0.011
-147.574	438.578	0.108	-0.308
-146.560	800.000	-0.048	-0.175
-145.545	800.000	0.098	0.394
-144.531	-5.209	-0.212	0.189
-143.516	-104.004	0.312	0.094
-142.502	-104.646	0.172	0.051
-141.487	255.806	-0.136	0.305
-140.472	-36.611	0.081	-0.056
-139.458	800.000	-0.046	0.183
-138.443	800.000	-0.097	-0.438
-137.429	-200.000	0.019	-0.207
-136.414	324.555	-0.152	0.377
-135.399	145.576	-0.118	0.205
-134.385	25.427	-0.105	-0.113
-133.370	800.000	0.067	-0.283
-132.356	-149.836	0.829	-0.083
-131.341	-128.199	-0.300	-0.055
-130.326	-97.697	-0.099	-0.033
-129.312	-24.835	-0.081	-0.062
-128.297	35.325	0.314	0.357
-127.283	139.247	0.068	0.116
-126.268	-24.805	-0.204	-0.157
-125.253	-9.003	-0.138	-0.120
-124.239	-200.000	-0.047	-0.320
-123.224	-200.000	-0.003	0.204
-122.210	-24.523	-0.011	0.009
-121.195	22.985	-0.111	-0.118
-120.180	37.080	-0.237	0.273
-119.166	-93.423	-0.211	0.075
-118.151	-200.000	-0.052	0.439
-117.137	12.810	0.171	-0.172
-116.122	-200.000	0.053	-0.315
-115.107	113.483	-0.288	0.455
-114.093	26.568	0.023	-0.024
-113.078	-124.398	0.350	0.070
-112.064	191.924	0.104	0.204
-111.049	-124.493	-0.301	0.060
-110.034	-46.411	-0.330	-0.209
-109.020	224.913	0.114	0.239
-108.005	-200.000	0.077	0.625
-106.991	-102.758	0.327	-0.100
-105.976	-34.512	0.222	-0.157
-104.962	156.193	-0.156	0.279
-103.947	568.943	0.076	0.240
-102.932	-143.116	0.315	0.039
-101.918	-131.681	-0.383	0.064
-100.903	-38.172	-0.376	0.258
-99.889	-26.852	-0.521	0.394
-98.874	-200.000	0.033	0.293
-97.859	346.372	-0.046	0.118
-96.845	-78.778	0.242	-0.107
-95.830	160.383	0.245	0.445
-94.816	-58.852	0.395	-0.221
-93.801	-72.921	-0.351	0.166
-92.786	-174.155	0.494	0.018
-91.772	149.519	0.182	0.320
-90.757	-200.000	-0.006	0.156
-89.743	-200.000	-0.091	-0.781
-88.728	-200.000	0.069	-0.464
-87.713	-95.197	-0.238	0.083
-86.699	7.913	0.150	0.145
-85.684	328.970	-0.147	0.367
-84.670	-170.265	0.555	0.025
-83.655	41.837	-0.037	-0.044
-82.640	-153.670	-0.308	-0.027
-81.626	-84.141	-0.418	0.171
-80.611	732.921	0.105	-0.366
-79.597	306.128	0.133	0.321
-78.582	-81.790	0.675	0.285
-77.567	800.000	-0.084	-0.363
-76.553	-69.366	-0.214	0.106
-75.538	131.770	-0.036	-0.061
-74.524	-82.543	0.206	-0.086
-73.509	68.466	0.178	-0.236
-72.494	-101.545	-0.225	-0.070
-71.480	-173.897	-0.072	-0.003
-70.465	-200.000	-0.002	0.029
-69.451	-36.131	0.143	-0.100
-68.436	-85.480	0.292	-0.117
-67.422	-37.564	0.232	-0.160
-66.407	-135.228	0.156	-0.024
-65.392	-33.823	0.198	0.141
-64.378	168.241	0.055	-0.101
-63.363	-40.487	-0.160	0.107
-62.349	633.953	0.206	0.678
-61.334	6.674	-2.164	-2.082
-60.319	104.858	1.302	1.989
-59.305	176.752	-3.822	-7.211
-58.290	53.392	3.933	4.882
-57.276	461.227	3.660	10.607
-56.261	-200.000	24.840	322.303
-55.246	349.842	1310.497	3363.917
-54.232	52.382	2850.090	3519.872
-53.217	50.838	2662.061	3263.615
-52.203	31.159	2390.982	2653.403
-51.188	27.384	2056.973	2236.124
-50.173	24.085	1944.847	2075.565
-49.159	23.158	1931.994	2050.965
-48.144	22.727	1926.946	2040.524
-47.130	22.605	1924.820	2036.775
-46.115	22.502	1923.007	2033.575
-45.100	22.474	1921.698	2031.784
-44.086	22.515	1920.289	2030.694
-43.071	22.397	1918.545	2027.395
-42.057	22.430	1917.067	2026.145
-41.042	22.549	1915.229	2025.492
-40.027	22.450	1914.238	2023.225
-39.013	22.432	1912.420	2021.008
-37.998	22.473	1911.823	2020.770
-36.984	22.495	1910.777	2019.844
-35.969	22.516	1909.033	2018.153
-34.954	22.335	1908.464	2015.393
-33.940	22.400	1906.474	2013.957
-32.925	22.376	1904.582	2011.604
-31.911	22.342	1903.712	2010.215
-30.896	22.278	1902.683	2008.311
-29.881	22.373	1901.340	2007.908
-28.867	22.332	1899.997	2005.942
-27.852	22.407	1898.375	2005.007
-26.838	22.354	1896.289	2002.121
-25.823	22.424	1895.320	2001.818
-24.809	22.258	1894.664	1999.147
-23.794	22.354	1892.662	1998.047
-22.779	22.246	1892.138	1996.184
-21.765	22.406	1889.905	1995.567
-20.750	22.334	1888.809	1993.519
-19.736	22.202	1888.867	1991.990
-18.721	22.327	1886.926	1991.288
-17.706	22.229	1886.471	1989.622
-16.692	22.267	1884.180	1987.553
-15.677	22.288	1883.201	1986.683
-14.663	22.112	1882.598	1983.969
-13.648	22.442	1880.190	1985.091
-12.633	22.290	1879.065	1982.106
-11.619	22.262	1878.519	1981.138
-10.604	22.350	1876.817	1980.250
-9.590	22.154	1876.635	1977.767
-8.575	22.182	1875.305	1976.599
-7.560	22.124	1874.395	1974.908
-6.546	22.200	1872.946	1974.159
-5.531	22.266	1871.132	1972.920
-4.517	22.245	1870.541	1971.973
-3.502	22.135	1869.933	1970.015
-2.487	22.198	1868.444	1969.086
-1.473	22.251	1864.169	1965.088
-0.458	22.027	1846.947	1944.369
0.556	18.726	1993.560	2046.949
1.571	17.305	2196.520	2236.304
2.586	18.094	2236.245	2287.096
3.600	18.144	2238.615	2289.917
4.615	18.032	2237.795	2287.295
5.629	18.137	2235.390	2285.971
6.644	18.011	2233.834	2282.422
7.659	18.059	2231.621	2280.523
8.673	18.116	2229.093	2278.430
9.688	17.816	2237.973	2283.205
10.702	16.919	2318.851	2352.929
11.717	15.390	2383.666	2396.461
12.731	7.159	2363.931	2258.733
13.746	0.979	2347.285	2154.373
14.761	0.267	2343.604	2140.576
15.775	0.086	2342.817	2137.014
16.790	0.124	2340.131	2134.844
17.804	-0.037	2340.588	2132.707
18.819	-0.125	2339.134	2129.884
19.834	0.059	2336.068	2129.450
20.848	-0.015	2335.064	2127.229
21.863	0.071	2333.377	2126.652
22.877	-0.059	2331.910	2123.227
23.892	0.005	2328.791	2121.035
24.907	0.083	2326.315	2119.622
25.921	0.079	2324.908	2118.032
26.936	0.003	2322.679	2114.686
27.950	0.092	2320.188	2113.415
28.965	0.112	2317.903	2111.363
29.980	0.028	2316.844	2108.953
30.994	0.038	2314.633	2106.842
32.009	3.817	2325.702	2170.047
33.023	12.915	2352.091	2323.767
34.038	17.081	2359.537	2389.908
35.053	17.351	2356.486	2390.349
36.067	17.434	2354.492	2389.206
37.082	17.402	2352.621	2386.573
38.096	17.329	2351.484	2384.111
39.111	17.573	2348.337	2384.065
40.126	17.567	2346.779	2382.119
41.140	17.732	2345.133	2382.478
42.155	17.683	2343.417	2379.763
43.169	17.642	2340.762	2376.209
44.184	17.455	2336.755	2369.235
45.199	17.517	2335.810	2368.864
46.213	17.689	2334.687	2369.849
47.228	17.681	2335.158	2369.926
48.242	17.788	2332.252	2368.187
49.257	17.763	2330.792	2366.076
50.271	17.785	2327.642	2362.893
51.286	17.624	2325.755	2358.455
52.301	17.532	2323.378	2354.494
53.315	17.934	2326.034	2362.491
54.330	19.807	2330.393	2392.703
55.344	21.271	2329.768	2412.111
56.359	21.208	2327.620	2408.721
57.374	21.481	2326.513	2411.077
58.388	21.616	2324.683	2410.754
59.403	21.481	2320.361	2404.115
60.417	21.214	2316.709	2396.373
61.432	21.263	2315.982	2396.004
62.447	21.591	2314.029	2398.209
63.461	21.747	2312.758	2398.753
64.476	21.873	2310.516	2397.879
65.490	21.488	2308.666	2390.374
66.505	20.754	2305.697	2376.952
67.520	19.267	2299.555	2349.968
68.534	17.788	2293.159	2322.912
69.549	17.573	2289.166	2315.654
70.563	17.515	2286.971	2312.364
71.578	17.533	2284.990	2310.342
72.593	17.669	2282.195	2309.083
73.607	17.659	2282.081	2308.560
74.622	17.681	2279.895	2306.368
75.636	17.468	2277.341	2300.614
76.651	17.551	2274.682	2298.775
77.666	17.571	2272.769	2296.842
78.680	17.519	2270.879	2293.956
79.695	17.599	2268.534	2292.392
80.709	17.513	2267.969	2290.391
81.724	17.574	2265.474	2288.421
82.739	17.437	2262.702	2283.491
83.753	17.379	2260.810	2280.526
84.768	17.364	2258.431	2277.660
85.782	17.392	2257.504	2276.816
86.797	17.338	2256.139	2274.444
87.812	17.465	2253.209	2272.930
88.826	17.444	2251.450	2270.595
89.841	17.480	2248.920	2268.251
90.855	17.461	2246.978	2265.773
91.870	17.547	2245.445	2265.109
92.884	17.559	2243.159	2262.684
93.899	17.516	2242.006	2260.675
94.914	17.936	2244.311	2268.343
95.928	19.578	2249.045	2294.812
96.943	20.274	2246.816	2301.542
97.957	18.500	2239.136	2269.806
98.972	17.539	2234.245	2251.809
99.987	17.468	2230.664	2246.989
101.001	17.385	2228.344	2243.287
102.016	17.358	2227.279	2241.583
103.030	17.435	2224.471	2239.506
104.045	17.421	2222.838	2237.412
105.060	17.583	2220.065	2236.488
106.074	17.430	2218.760	2232.892
107.089	17.418	2217.299	2231.004
108.103	17.489	2216.060	2230.417
109.118	17.619	2213.978	2229.771
110.133	17.648	2212.920	2228.814
111.147	17.536	2211.126	2225.266
112.162	17.624	2209.470	2224.500
113.176	17.531	2207.251	2220.770
114.191	17.589	2205.855	2219.869
115.206	17.629	2204.387	2218.636
116.220	17.476	2201.940	2213.912
117.235	17.546	2200.002	2212.614
118.249	17.520	2197.099	2209.097
119.264	17.557	2196.225	2208.430
120.279	17.602	2195.400	2207.920
121.293	17.536	2192.831	2204.223
122.308	17.622	2190.529	2202.755
123.322	17.522	2190.356	2201.016
124.337	17.905	2190.847	2206.227
125.352	19.802	2197.047	2236.885
126.366	20.173	2194.075	2238.412
127.381	18.370	2184.810	2205.375
128.395	17.592	2181.189	2191.395
129.410	17.456	2180.341	2188.527
130.424	17.522	2178.030	2186.801
131.439	17.411	2175.632	2182.700
132.454	17.418	2174.813	2181.704
133.468	17.522	2172.104	2180.066
134.483	17.623	2170.418	2179.410
135.497	17.600	2169.485	2177.914
136.512	17.551	2166.954	2174.488
137.527	17.572	2165.682	2173.216
138.541	17.500	2163.924	2170.275
139.556	17.405	2163.110	2167.981
140.570	17.522	2161.165	2167.264
141.585	17.435	2159.308	2164.036
142.600	17.369	2158.706	2162.322
143.614	17.313	2156.091	2158.737
144.629	17.425	2154.285	2158.101
145.643	17.367	2153.312	2156.128
146.658	17.299	2151.454	2153.146
147.673	17.394	2149.325	2151.959
148.687	17.334	2148.127	2149.741
149.702	17.457	2147.161	2150.083
150.716	17.474	2146.290	2149.168
151.731	17.483	2144.243	2146.976
152.746	17.516	2142.799	2145.690
153.760	17.868	2146.080	2153.179
154.775	19.762	2150.343	2181.241
155.789	20.378	2147.283	2185.670
156.804	18.479	2138.604	2152.622
157.819	17.569	2133.190	2135.459
158.833	17.500	2130.839	2131.973
159.848	17.405	2129.822	2129.513
160.862	17.540	2128.163	2129.297
161.877	17.599	2126.338	2127.958
162.892	17.610	2125.607	2127.105
163.906	17.570	2124.966	2125.707
164.921	17.584	2122.796	2123.453
165.935	17.619	2120.528	2121.373
166.950	17.563	2119.414	2119.301
167.964	17.563	2116.617	2116.247
168.979	17.553	2115.205	2114.459
169.994	17.604	2112.978	2112.614
171.008	17.518	2111.594	2109.909
172.023	17.435	2110.217	2107.249
173.037	17.575	2109.320	2107.848
174.052	17.634	2107.543	2106.552
175.067	17.530	2106.024	2103.488
176.081	17.435	2104.315	2100.354
177.096	17.346	2102.987	2097.663
178.110	17.354	2102.125	2096.651
179.125	17.549	2100.709	2097.408
180.140	17.582	2098.588	2095.451
181.154	17.551	2097.191	2093.424
182.169	17.441	2096.981	2091.598
183.183	17.992	2097.906	2099.083
184.198	20.046	2102.665	2128.989
185.213	20.487	2101.141	2132.626
186.227	18.386	2093.427	2098.694
187.242	17.631	2089.613	2085.342
188.256	17.554	2087.921	2082.456
189.271	17.483	2086.058	2079.477
190.286	17.524	2084.862	2078.534
191.300	17.518	2081.910	2075.274
192.315	17.546	2080.463	2073.927
193.329	17.702	2079.062	2074.183
194.344	17.788	2078.144	2074.073
195.359	17.756	2077.105	2072.400
196.373	17.584	2075.213	2068.167
197.388	17.470	2072.711	2064.039
198.402	17.368	2069.773	2059.624
199.417	17.474	2067.971	2058.874
200.432	17.513	2066.549	2057.682
201.446	17.506	2065.787	2056.595
202.461	17.478	2064.629	2054.852
203.475	17.468	2062.240	2052.111
204.490	17.468	2059.745	2049.378
205.504	17.519	2057.981	2047.995
206.519	17.531	2056.254	2046.171
207.534	17.467	2054.010	2042.922
208.548	17.366	2053.436	2040.895
209.563	17.485	2051.718	2040.376
210.577	17.569	2050.810	2040.233
211.592	17.515	2050.988	2039.519
212.607	18.543	2053.061	2053.724
213.621	20.762	2059.281	2086.457
214.636	20.321	2053.992	2075.553
215.650	18.029	2045.663	2039.420
216.665	17.636	2042.696	2031.510
217.680	17.521	2041.739	2028.936
218.694	17.503	2039.201	2025.959
219.709	17.566	2037.333	2024.616
220.723	17.554	2037.759	2024.648
221.738	17.584	2034.946	2021.971
222.753	17.574	2033.461	2020.130
223.767	17.480	2032.399	2017.713
224.782	17.500	2030.123	2015.456
225.796	17.578	2028.118	2014.152
226.811	17.559	2026.615	2012.190
227.826	17.567	2025.555	2010.995
228.840	17.520	2024.861	2009.503
229.855	17.591	2022.968	2008.225
230.869	17.497	2021.868	2005.775
231.884	17.636	2018.870	2004.213
232.899	17.402	2017.375	1999.722
233.913	17.548	2016.633	2000.465
234.928	17.548	2014.901	1998.514
235.942	17.372	2014.207	1995.512
236.957	17.455	2012.999	1995.057
237.972	17.487	2011.546	1993.753
238.986	17.477	2009.611	1991.480
240.001	17.488	2008.856	1990.620
241.015	17.603	2006.146	1989.042
242.030	17.966	2008.293	1995.199
243.045	19.889	2012.072	2021.309
244.059	20.021	2008.966	2019.498
245.074	18.211	2001.510	1990.605
246.088	17.728	1997.506	1980.754
247.103	17.693	1996.706	1979.314
248.117	17.582	1995.858	1976.938
249.132	17.615	1993.421	1974.679
250.147	17.476	1991.898	1971.309
251.161	17.531	1990.348	1970.181
252.176	17.696	1990.083	1971.603
253.190	17.934	1987.465	1971.532
254.205	17.829	1985.638	1968.271
255.220	17.838	1984.615	1967.127
256.234	17.842	1983.750	1966.081
257.249	17.642	1982.212	1961.997
258.263	17.501	1981.105	1959.046
259.278	17.699	1979.964	1959.970
260.293	17.504	1978.389	1955.926
261.307	17.520	1975.172	1952.687
262.322	17.478	1974.018	1950.834
263.336	17.431	1972.201	1948.267
264.351	17.325	1970.898	1945.528
265.366	17.395	1969.769	1944.976
266.380	17.424	1968.324	1943.650
267.395	17.393	1967.221	1941.974
268.409	17.390	1965.163	1939.676
269.424	17.488	1963.686	1939.110
270.439	17.519	1963.029	1938.579
271.453	18.123	1964.639	1946.854
272.468	20.119	1967.703	1972.519
273.482	20.193	1964.776	1970.190
274.497	18.320	1956.406	1940.242
275.512	17.476	1953.513	1927.546
276.526	17.500	1951.789	1925.888
277.541	17.547	1949.965	1924.387
278.555	17.414	1947.885	1920.594
279.570	17.246	1946.573	1917.160
280.585	17.428	1945.465	1917.903
281.599	17.444	1944.055	1916.471
282.614	17.558	1943.016	1916.501
283.628	17.680	1942.155	1916.802
284.643	17.746	1941.953	1917.122
285.657	17.846	1940.459	1916.551
286.672	17.843	1939.361	1915.195
287.687	17.847	1937.112	1912.798
288.701	17.809	1934.678	1909.735
289.716	17.836	1934.035	1909.171
290.730	17.736	1932.688	1906.495
291.745	17.783	1931.284	1905.404
292.760	17.664	1930.697	1903.262
293.774	17.598	1929.976	1901.586
294.789	17.555	1928.203	1899.126
295.803	17.476	1925.266	1895.119
296.818	17.540	1923.699	1894.070
297.833	17.610	1922.428	1893.371
298.847	17.564	1922.681	1892.884
299.862	17.603	1920.221	1890.670
300.876	18.036	1920.122	1895.179
301.891	20.081	1925.013	1922.600
302.906	20.564	1922.594	1925.333
303.920	18.413	1916.440	1895.051
304.935	17.739	1912.442	1883.392
305.949	17.671	1909.445	1879.461
306.964	17.624	1908.582	1877.868
307.979	17.773	1907.054	1877.784
308.993	17.662	1905.738	1875.042
310.008	17.912	1904.458	1876.316
311.022	18.007	1903.191	1875.890
312.037	17.909	1901.838	1873.255
313.052	17.778	1900.442	1870.210
314.066	17.799	1898.776	1868.577
315.081	17.812	1898.422	1868.155
316.095	17.904	1895.971	1866.523
317.110	17.777	1894.819	1863.777
318.125	17.633	1893.380	1860.558
319.139	17.827	1891.483	1860.600
320.154	17.865	1889.077	1858.425
321.168	17.733	1888.634	1856.317
322.183	17.635	1887.321	1853.730
323.197	17.625	1886.276	1852.376
324.212	17.482	1884.362	1848.719
325.227	17.376	1883.345	1846.342
326.241	17.549	1881.084	1845.782
327.256	17.481	1879.710	1843.482
328.270	17.447	1879.057	1842.246
329.285	17.470	1879.178	1842.389
330.300	18.158	1881.753	1852.191
331.314	20.348	1885.352	1879.368
332.329	20.217	1880.971	1873.351
333.343	18.071	1874.230	1843.180
334.358	17.623	1870.745	1834.679
335.373	17.498	1869.498	1831.888
336.387	17.331	1867.474	1827.888
337.402	17.410	1865.796	1826.875
338.416	17.443	1864.314	1825.566
339.431	17.424	1863.271	1824.112
340.446	17.618	1861.444	1824.193
341.460	17.671	1860.338	1823.468
342.475	17.743	1859.492	1823.190
343.489	17.846	1858.035	1822.653
344.504	17.789	1856.718	1820.528
345.519	17.877	1854.835	1819.401
346.533	17.904	1853.480	1818.145
347.548	17.967	1852.435	1817.576
348.562	17.779	1851.973	1814.901
349.577	17.877	1850.466	1814.247
350.592	17.915	1848.572	1812.579
351.606	17.924	1847.494	1811.405
352.621	17.967	1845.307	1809.499
353.635	17.743	1844.143	1805.760
354.650	17.719	1842.346	1803.533
355.665	17.647	1841.075	1801.303
356.679	17.659	1839.655	1799.826
357.694	17.598	1838.238	1797.573
358.708	17.534	1837.598	1796.057
359.723	18.478	1840.046	1808.249
360.738	20.513	1843.325	1832.849
361.752	19.933	1838.715	1821.910
362.767	18.013	1833.041	1795.806
363.781	17.551	1830.065	1787.805
364.796	17.558	1828.330	1785.970
365.810	17.491	1827.394	1784.139
366.825	17.511	1826.564	1783.322
367.840	17.631	1825.738	1783.569
368.854	17.879	1823.504	1783.772
369.869	17.610	1822.402	1779.657
370.883	17.348	1820.855	1775.188
371.898	17.479	1819.362	1774.889
372.913	17.404	1819.230	1773.761
373.927	17.498	1818.234	1773.562
374.942	17.548	1817.405	1773.062
375.956	17.673	1815.789	1772.588
376.971	17.758	1811.752	1769.324
377.986	17.440	1811.733	1765.767
379.000	17.657	1810.051	1766.178
380.015	17.611	1809.006	1764.476
381.029	17.627	1806.586	1762.071
382.044	17.445	1805.950	1759.342
383.059	17.543	1803.819	1758.072
384.073	17.598	1802.743	1757.388
385.088	17.467	1801.237	1754.354
386.102	17.461	1799.238	1752.136
387.117	17.413	1797.726	1749.951
388.132	17.442	1797.502	1749.828
389.146	18.118	1801.738	1760.739
390.161	20.369	1804.351	1786.385
391.175	20.107	1797.556	1776.745
392.190	18.138	1789.897	1748.748
393.205	17.490	1787.698	1739.732
394.219	17.589	1786.301	1739.181
395.234	17.495	1785.146	1736.886
396.248	17.473	1784.239	1735.571
397.263	17.384	1781.980	1732.256
398.278	17.491	1779.795	1731.012
399.292	17.483	1779.680	1730.613
400.307	17.369	1778.599	1728.194
401.321	17.469	1777.426	1727.866
402.336	17.710	1775.699	1728.440
403.350	17.710	1773.536	1726.119
404.365	17.865	1772.890	1726.868
405.380	18.092	1771.306	1727.423
406.394	18.084	1771.504	1727.327
407.409	17.793	1770.272	1722.963
408.423	17.933	1768.361	1722.320
409.438	17.906	1767.106	1720.618
410.453	17.831	1766.549	1719.105
411.467	17.840	1766.063	1718.515
412.482	17.820	1763.426	1715.549
413.496	17.758	1761.492	1712.837
414.511	17.607	1760.249	1709.894
415.526	17.687	1757.525	1707.853
416.540	17.525	1755.857	1704.395
417.555	17.629	1755.947	1705.325
418.569	17.629	1755.580	1704.770
419.584	17.839	1755.172	1706.273
420.599	17.696	1755.018	1704.481
421.613	17.582	1753.588	1701.749
422.628	17.653	1752.497	1701.194
423.642	17.653	1751.080	1699.615
424.657	17.653	1749.522	1697.902
425.672	17.646	1747.894	1696.051
426.686	17.690	1746.600	1695.033
427.701	17.650	1744.847	1692.723
428.715	17.653	1743.705	1691.448
429.730	17.780	1742.980	1691.808
430.745	17.623	1741.104	1688.219
431.759	17.717	1739.938	1687.818
432.774	17.813	1739.358	1688.008
433.788	18.074	1739.017	1690.078
434.803	18.104	1738.069	1689.246
435.818	17.950	1737.947	1687.393
436.832	17.862	1737.094	1685.495
437.847	16.892	1729.463	1668.301
438.861	9.349	1709.626	1574.964
439.876	1.465	1695.905	1484.921
440.890	0.172	1692.204	1468.833
441.905	0.202	1691.602	1468.430
442.920	0.255	1689.553	1466.992
443.934	0.089	1688.646	1464.404
444.949	0.131	1687.692	1463.812
445.963	0.106	1686.483	1462.347
446.978	0.069	1686.174	1461.541
447.993	0.125	1683.712	1459.777
449.007	0.212	1682.220	1459.153
450.022	0.164	1680.317	1456.867
451.036	0.166	1678.607	1455.226
452.051	1.044	1683.128	1467.517
453.066	8.619	1699.871	1556.213
454.080	15.957	1711.237	1638.415
455.095	17.590	1712.495	1655.394
456.109	17.586	1712.474	1655.133
457.124	17.600	1710.947	1653.595
458.139	17.668	1711.009	1654.122
459.153	17.768	1710.255	1654.167
460.168	17.743	1707.926	1651.472
461.182	17.710	1706.165	1649.253
462.197	17.794	1704.579	1648.338
463.212	17.676	1702.685	1645.163
464.226	17.694	1702.108	1644.589
465.241	17.669	1700.940	1643.023
466.255	17.790	1699.086	1642.202
467.270	17.815	1698.517	1641.699
468.285	17.821	1696.854	1639.955
469.299	17.626	1695.603	1636.667
470.314	17.688	1694.077	1635.594
471.328	17.832	1692.409	1635.168
472.343	17.744	1692.070	1633.807
473.358	17.828	1690.657	1633.055
474.372	17.762	1689.024	1630.642
475.387	17.667	1688.070	1628.617
476.401	17.675	1686.219	1626.712
477.416	17.814	1685.392	1627.050
478.430	17.691	1684.417	1624.740
479.445	17.711	1683.090	1623.455
480.460	17.655	1681.615	1621.304
481.474	17.752	1680.195	1620.664
482.489	17.900	1678.767	1620.507
483.503	17.822	1677.778	1618.616
484.518	17.857	1676.213	1617.239
485.533	17.913	1674.917	1616.333
486.547	17.837	1673.704	1614.243
487.562	17.811	1673.408	1613.516
488.576	17.937	1671.202	1612.391
489.591	17.847	1669.671	1609.870
490.606	17.798	1668.733	1608.311
491.620	17.872	1666.981	1607.128
492.635	17.945	1665.552	1606.247
493.649	17.978	1664.071	1604.944
494.664	17.766	1663.656	1602.344
495.679	17.749	1661.825	1600.229
496.693	17.709	1660.240	1598.132
497.708	17.800	1659.430	1598.020
498.722	17.817	1657.946	1596.558
499.737	17.823	1656.992	1595.511
500.752	17.888	1655.509	1594.499
501.766	17.858	1654.239	1592.801
502.781	17.914	1652.227	1591.198
503.795	17.874	1651.360	1589.800
504.810	17.891	1650.595	1589.037
505.825	18.016	1649.628	1589.077
506.839	17.961	1648.366	1587.163
507.854	17.951	1647.056	1585.615
508.868	17.908	1645.694	1583.718
509.883	17.997	1644.021	1582.739
510.898	17.942	1643.643	1581.678
511.912	17.889	1641.684	1579.110
512.927	17.957	1640.089	1578.023
513.941	17.729	1639.017	1574.681
514.956	17.785	1637.285	1573.352
515.971	17.756	1635.550	1571.225
516.985	17.795	1635.199	1571.061
518.000	17.848	1634.234	1570.432
519.014	17.879	1633.191	1569.529
520.029	17.899	1632.200	1568.576
521.043	17.927	1630.632	1567.139
522.058	17.873	1629.454	1565.326
523.073	18.038	1628.311	1565.557
524.087	18.201	1627.033	1565.640
525.102	17.993	1626.093	1562.633
526.116	17.977	1624.309	1560.591
527.131	17.914	1623.018	1558.584
528.146	18.063	1622.838	1559.594
529.160	18.002	1621.693	1557.744
530.175	17.957	1620.923	1556.404
531.189	18.034	1619.830	1555.872
532.204	18.003	1619.012	1554.623
533.219	17.920	1617.180	1551.912
534.233	17.734	1616.319	1549.205
535.248	17.915	1615.598	1549.984
536.262	18.064	1614.774	1550.361
537.277	18.024	1613.713	1548.797
538.292	17.967	1610.670	1545.172
539.306	18.080	1609.084	1544.488
540.321	18.035	1607.888	1542.749
541.335	17.831	1606.654	1539.526
542.350	18.032	1605.545	1540.107
543.365	18.146	1603.863	1539.335
544.379	18.113	1602.669	1537.707
545.394	18.017	1601.732	1535.763
546.408	17.950	1600.161	1533.465
547.423	17.784	1598.906	1530.579
548.438	17.858	1598.332	1530.517
549.452	17.952	1596.942	1529.853
550.467	17.963	1595.919	1528.782
551.481	17.867	1595.182	1527.036
552.496	17.950	1594.971	1527.393
553.511	18.147	1593.200	1527.286
554.525	18.107	1591.532	1525.146
555.540	18.233	1590.952	1525.536
556.554	18.214	1589.398	1523.691
557.569	18.283	1587.474	1522.280
558.583	18.200	1585.903	1519.848
559.598	18.296	1584.621	1519.297
560.613	18.090	1584.526	1517.184
561.627	18.086	1583.573	1516.052
562.642	18.130	1582.023	1514.785
563.656	18.211	1580.626	1513.985
564.671	18.187	1579.574	1512.582
565.686	18.156	1578.136	1510.752
566.700	17.966	1577.198	1507.981
567.715	18.033	1574.997	1506.294
568.729	17.877	1573.646	1503.443
569.744	17.724	1572.130	1500.457
570.759	17.780	1570.927	1499.622
571.773	17.998	1569.747	1500.244
572.788	18.082	1568.305	1499.424
573.802	18.010	1567.072	1497.432
574.817	18.132	1565.911	1497.221
575.832	18.167	1565.494	1496.952
576.846	18.183	1563.447	1494.957
577.861	18.031	1562.603	1492.632
578.875	18.142	1562.411	1493.245
579.890	18.294	1561.396	1493.431
580.905	18.317	1560.254	1492.359
581.919	18.181	1559.781	1490.535
582.934	18.214	1558.861	1489.771
583.948	18.313	1557.475	1489.128
584.963	18.315	1555.431	1487.017
585.978	18.158	1554.545	1484.624
586.992	18.292	1553.815	1484.912
588.007	18.306	1553.251	1484.319
589.021	18.054	1552.143	1480.891
590.036	17.966	1550.554	1478.431
591.051	18.115	1548.945	1478.014
592.065	18.161	1547.542	1476.893
593.080	18.322	1546.237	1476.873
594.094	18.263	1544.486	1474.510
595.109	18.102	1542.766	1471.297
596.123	18.129	1540.777	1469.465
597.138	18.187	1540.963	1469.964
598.153	18.216	1539.051	1468.218
599.167	18.181	1538.422	1467.138
600.182	18.405	1537.308	1467.823
601.196	18.278	1536.707	1465.985
602.211	18.309	1534.994	1464.444
603.226	18.422	1533.710	1464.011
604.240	18.440	1532.783	1463.104
605.255	18.396	1531.254	1461.097
606.269	18.326	1531.116	1460.191
607.284	18.416	1529.524	1459.266
608.299	18.441	1527.757	1457.620
609.313	18.327	1526.381	1455.155
610.328	18.207	1525.734	1453.343
611.342	18.266	1524.958	1452.937
612.357	18.434	1523.889	1453.176
613.372	18.323	1523.136	1451.333
614.386	18.275	1521.865	1449.543
615.401	18.398	1520.971	1449.563
616.415	18.414	1520.220	1448.805
617.430	18.343	1519.460	1447.310
618.445	18.365	1518.662	1446.559
619.459	18.365	1517.167	1444.961
620.474	18.018	1516.469	1441.185
621.488	17.983	1514.341	1438.690
622.503	18.161	1511.925	1437.727
623.518	18.206	1512.064	1438.068
624.532	18.216	1510.904	1436.879
625.547	18.419	1509.938	1437.505
626.561	18.564	1509.505	1438.136
627.576	18.591	1507.425	1436.217
628.591	18.293	1506.117	1432.290
629.605	18.172	1504.845	1429.890
630.620	18.196	1503.409	1428.558
631.634	17.989	1503.347	1426.590
632.649	17.979	1501.906	1424.966
633.663	18.018	1500.782	1424.054
634.678	18.290	1499.209	1424.672
635.693	18.435	1498.375	1424.920
636.707	18.497	1497.224	1424.174
637.722	18.677	1495.971	1424.307
638.736	18.617	1495.135	1422.841
639.751	18.649	1493.798	1421.669
640.766	18.515	1492.424	1419.073
641.780	18.554	1491.674	1418.519
642.795	18.488	1490.530	1416.711
643.809	18.405	1489.683	1415.045
644.824	18.636	1488.769	1415.927
645.839	18.493	1488.085	1413.920
646.853	18.599	1486.838	1413.448
647.868	18.509	1485.600	1411.351
648.882	18.388	1483.540	1408.225
649.897	18.573	1481.979	1408.102
650.912	18.614	1481.046	1407.388
651.926	18.512	1479.576	1404.981
652.941	18.445	1478.926	1403.644
653.955	18.300	1476.943	1400.406
654.970	18.197	1475.906	1398.409
655.985	18.212	1474.025	1396.579
656.999	18.368	1472.566	1396.309
658.014	18.466	1471.700	1396.123
659.028	18.367	1471.715	1395.156
660.043	18.328	1471.007	1394.000
661.058	18.395	1469.027	1392.503
662.072	18.472	1468.677	1392.632
663.087	18.497	1467.557	1391.609
664.101	18.430	1466.701	1390.084
665.116	18.568	1465.398	1389.811
666.131	18.691	1463.625	1388.959
667.145	18.590	1462.328	1386.743
668.160	18.593	1462.292	1386.565
669.174	18.719	1460.742	1385.959
670.189	18.688	1459.550	1384.410
671.204	18.615	1459.158	1383.276
672.218	18.481	1458.324	1381.237
673.233	18.725	1457.217	1381.993
674.247	18.771	1455.741	1380.806
675.262	18.695	1455.065	1379.380
676.276	18.647	1453.425	1377.278
677.291	18.762	1452.263	1376.939
678.306	18.568	1451.384	1374.377
679.320	18.595	1450.403	1373.496
680.335	18.596	1449.559	1372.546
681.349	18.639	1449.028	1372.224
682.364	18.616	1447.867	1370.776
683.379	18.679	1446.139	1369.478
684.393	18.638	1445.011	1367.917
685.408	18.778	1443.968	1367.887
686.422	18.714	1443.172	1366.461
687.437	18.720	1442.437	1365.649
688.452	18.809	1441.605	1365.404
689.466	18.688	1439.969	1362.729
690.481	18.622	1438.610	1360.757
691.495	18.523	1437.759	1358.998
692.510	18.144	1436.208	1354.349
693.525	18.155	1434.668	1352.828
694.539	18.212	1433.950	1352.439
695.554	18.403	1433.902	1353.751
696.568	18.704	1432.602	1354.751
697.583	18.734	1431.896	1354.153
698.598	18.827	1430.825	1353.714
699.612	18.707	1430.348	1352.153
700.627	18.742	1429.233	1351.212
701.641	18.731	1427.197	1349.043
702.656	18.816	1426.619	1349.002
703.671	18.918	1425.639	1348.718
704.685	19.020	1424.869	1348.638
705.700	18.850	1423.972	1346.283
706.714	18.697	1421.976	1343.030
707.729	18.763	1421.230	1342.686
708.744	18.706	1419.727	1340.658
709.758	18.653	1418.028	1338.478
710.773	18.556	1417.747	1337.292
711.787	18.497	1415.888	1334.917
712.802	18.708	1413.806	1334.444
713.816	18.697	1413.409	1333.827
714.831	18.655	1413.121	1333.065
715.846	18.788	1411.780	1332.680
716.860	19.003	1410.373	1332.865
717.875	18.865	1409.475	1330.782
718.889	18.702	1408.564	1328.495
719.904	18.782	1407.806	1328.244
720.919	18.788	1406.907	1327.278
721.933	18.880	1406.205	1327.175
722.948	18.968	1405.354	1326.893
723.962	18.833	1404.384	1324.776
724.977	19.015	1402.743	1324.475
725.992	18.967	1401.345	1322.630
727.006	18.952	1400.411	1321.470
728.021	18.992	1399.313	1320.587
729.035	18.916	1398.420	1318.998
730.050	18.969	1397.168	1318.065
731.065	18.889	1396.303	1316.480
732.079	19.030	1395.285	1316.448
733.094	18.867	1393.871	1313.699
734.108	18.892	1391.794	1311.775
735.123	18.980	1391.052	1311.599
736.138	18.818	1390.152	1309.352
737.152	18.881	1389.257	1308.834
738.167	19.052	1388.239	1309.027
739.181	18.998	1387.796	1308.035
740.196	18.885	1387.295	1306.545
741.211	18.925	1385.905	1305.385
742.225	18.865	1384.834	1303.764
743.240	19.039	1383.147	1303.342
744.254	19.020	1381.773	1301.751
745.269	18.884	1381.217	1300.037
746.284	18.833	1380.976	1299.264
747.298	18.675	1379.947	1296.940
748.313	18.624	1378.014	1294.580
749.327	18.512	1376.246	1291.920
750.342	18.333	1375.067	1289.303
751.356	18.323	1373.718	1287.807
752.371	18.439	1373.247	1288.087
753.386	18.680	1372.796	1289.329
754.400	18.833	1372.721	1290.259
755.415	18.982	1371.119	1289.724
756.429	19.032	1369.608	1288.524
757.444	18.957	1368.663	1286.916
758.459	19.084	1367.363	1286.495
759.473	19.305	1366.836	1287.507
760.488	19.221	1366.097	1286.028
761.502	19.077	1364.909	1283.672
762.517	19.076	1364.114	1282.762
763.532	18.892	1362.104	1279.347
764.546	18.928	1360.589	1278.040
765.561	18.736	1359.964	1275.864
766.575	18.747	1358.795	1274.698
767.590	18.512	1358.083	1272.125
768.605	18.666	1357.179	1272.272
769.619	18.736	1356.282	1271.797
770.634	18.965	1354.236	1271.430
771.648	18.993	1353.743	1271.025
772.663	19.208	1353.595	1272.330
773.678	19.165	1352.647	1270.965
774.692	19.039	1352.044	1269.313
775.707	19.111	1351.652	1269.328
776.721	19.123	1350.310	1268.001
777.736	19.218	1349.043	1267.364
778.751	19.173	1347.760	1265.676
779.765	19.035	1347.558	1264.316
780.780	18.927	1346.810	1262.663
781.794	19.016	1344.958	1261.435
782.809	19.080	1343.655	1260.528
783.824	18.873	1343.535	1258.745
784.838	18.894	1340.450	1255.858
785.853	18.519	1339.366	1251.937
786.867	18.608	1339.637	1252.694
787.882	18.524	1339.714	1252.001
788.897	18.741	1338.689	1252.482
789.911	18.903	1337.803	1252.693
790.926	18.831	1336.749	1251.029
791.940	18.973	1335.316	1250.573
792.955	18.907	1333.874	1248.591
793.969	19.096	1332.745	1248.766
794.984	19.022	1332.713	1248.049
795.999	18.988	1331.772	1246.771
797.013	19.146	1329.383	1245.535
798.028	19.247	1328.088	1244.900
799.042	19.115	1327.795	1243.523
800.057	19.140	1326.808	1242.627
801.072	19.096	1325.484	1240.923
802.086	19.197	1324.037	1240.146
803.101	19.217	1323.238	1239.399
804.115	19.320	1321.980	1238.816
805.130	19.343	1320.466	1237.413
806.145	19.259	1320.233	1236.444
807.159	19.259	1318.178	1234.372
808.174	19.061	1317.709	1232.358
809.188	19.068	1316.038	1230.694
810.203	19.164	1313.613	1228.969
811.218	19.083	1312.262	1226.975
812.232	18.731	1311.381	1223.489
813.247	18.635	1310.749	1222.066
814.261	18.834	1310.517	1223.124
815.276	19.095	1309.494	1223.890
816.291	19.090	1309.178	1223.416
817.305	19.219	1307.934	1223.025
818.320	19.267	1306.324	1221.711
819.334	19.250	1305.447	1220.626
820.349	19.202	1303.922	1218.714
821.364	19.097	1302.769	1216.745
822.378	19.215	1301.445	1216.201
823.393	19.243	1299.651	1214.577
824.407	19.148	1298.882	1213.037
825.422	19.112	1298.283	1212.081
826.437	19.148	1297.241	1211.213
827.451	18.988	1295.557	1208.370
828.466	18.676	1293.755	1204.347
829.480	18.635	1291.438	1201.752
830.495	18.756	1290.421	1201.517
831.509	18.848	1290.351	1201.950
832.524	18.926	1290.137	1202.157
833.539	19.103	1288.701	1201.921
834.553	19.182	1287.411	1201.127
835.568	19.243	1286.237	1200.314
836.582	19.069	1285.553	1198.314
837.597	19.300	1283.613	1197.974
838.612	19.261	1282.203	1196.243
839.626	19.136	1281.606	1194.673
840.641	19.005	1280.462	1192.550
841.655	18.901	1279.815	1191.079
842.670	18.830	1277.759	1188.533
843.685	18.666	1276.734	1186.295
844.699	19.005	1275.953	1187.778
845.714	18.941	1275.005	1186.312
846.728	19.168	1274.272	1187.060
847.743	19.156	1273.583	1186.197
848.758	19.202	1272.477	1185.343
849.772	19.309	1270.693	1184.280
850.787	19.271	1269.126	1182.409
851.801	19.276	1268.644	1181.856
852.816	19.093	1267.417	1179.312
853.831	19.141	1265.593	1177.800
854.845	19.250	1263.657	1176.608
855.860	18.950	1262.341	1173.187
856.874	19.001	1261.031	1172.175
857.889	18.789	1259.617	1169.274
858.904	18.312	1258.874	1165.180
859.918	18.348	1256.492	1163.079
860.933	18.568	1255.203	1163.247
861.947	18.650	1255.061	1163.534
862.962	19.004	1253.708	1164.553
863.977	18.825	1252.685	1162.244
864.991	19.053	1252.293	1163.292
866.006	19.006	1252.254	1162.795
867.020	19.099	1250.891	1162.026
868.035	19.289	1249.448	1161.832
869.049	19.399	1248.844	1161.875
870.064	19.389	1247.718	1160.620
871.079	19.242	1247.298	1159.102
872.093	19.312	1246.652	1158.833
873.108	19.395	1245.478	1158.161
874.122	19.238	1244.004	1155.592
875.137	18.951	1243.854	1153.381
876.152	19.194	1242.076	1153.233
877.166	19.114	1240.467	1151.061
878.181	19.212	1239.795	1150.959
879.195	19.326	1239.112	1150.951
880.210	19.332	1238.340	1150.139
881.225	19.181	1237.733	1148.422
882.239	19.484	1236.023	1148.725
883.254	19.360	1235.226	1147.018
884.268	19.435	1234.938	1147.117
885.283	19.364	1233.288	1144.976
886.298	19.405	1231.625	1143.565
887.312	19.381	1231.156	1142.834
888.327	19.344	1229.818	1141.205
889.341	19.473	1228.588	1140.790
890.356	19.321	1228.095	1139.183
891.371	19.175	1227.578	1137.599
892.385	19.155	1226.796	1136.605
893.400	19.227	1225.678	1135.913
894.414	19.105	1224.585	1133.952
895.429	18.895	1222.881	1130.851
896.444	18.701	1220.348	1127.097
897.458	18.505	1219.001	1124.424
898.473	18.658	1219.414	1125.675
899.487	18.952	1218.903	1127.008
900.502	19.125	1217.948	1127.126
901.517	19.170	1216.686	1126.124
902.531	19.385	1215.603	1126.396
903.546	19.377	1215.321	1125.951
904.560	19.385	1214.379	1124.992
905.575	19.349	1213.771	1124.056
906.589	19.400	1212.819	1123.374
907.604	19.385	1212.355	1122.715
