DTS Sentinel unit serial number:	SN409020Multiplexer serial number:	ORYXHardware model number:	OX4-SRSoftware version number:	ORYX F/W v3.00 Oryx Data Collector v3.7.2.0data status	okinstallation	HaddamTimeLapsedifferential loss correction	single-endedforward channel	channel 3reverse channel	N/Adate	2011/06/22time	01:36:17forward acquisition time	30.00reverse acquisition time	0.00gamma	498.7831k internal	0.1752k external	0.1752temperature offset calibration	1.0074default loss term (dB/km)	0.3790temperature slope calibration	1.3530multiplexer offset coefficient	1.0000multiplexer slope coefficient	1.0000fibre end	0.00T internal ref (°C)	22.50T ext. ref 1 (°C)	17.73T ext. ref 2 (°C)	0.01length (m)	temperature (°C)	Stokes	anti-Stokes-747.200	-138.679	0.384	0.055
-746.185	263.650	-0.050	0.115
-745.171	-30.529	-0.289	0.217
-744.156	156.156	0.121	0.222
-743.142	11.767	0.112	-0.115
-742.127	681.012	0.089	-0.309
-741.112	5.442	-0.501	-0.491
-740.098	-103.670	-0.395	0.122
-739.083	66.256	0.359	0.485
-738.069	-94.244	-0.271	0.098
-737.054	800.000	-0.088	-0.475
-736.039	587.929	-0.061	0.199
-735.025	800.000	-0.054	0.273
-734.010	-118.531	0.471	0.110
-732.996	2.277	0.109	0.105
-731.981	800.000	-0.154	0.691
-730.966	800.000	-0.073	-0.280
-729.952	-114.856	-0.235	-0.059
-728.937	-200.000	-0.048	-0.431
-727.923	-200.000	-0.033	-0.360
-726.908	-25.795	-0.280	-0.219
-725.894	800.000	0.068	0.265
-724.879	98.881	-0.174	-0.267
-723.864	715.015	0.138	-0.487
-722.850	53.462	-0.083	-0.106
-721.835	-114.826	0.377	0.095
-720.821	153.861	-0.273	0.497
-719.806	-1.992	-0.368	-0.343
-718.791	40.581	0.416	-0.497
-717.777	-108.300	-0.301	0.086
-716.762	-200.000	0.044	0.356
-715.748	312.329	0.080	0.201
-714.733	-172.160	-0.229	0.010
-713.718	800.000	-0.054	0.236
-712.704	800.000	-0.038	0.185
-711.689	-153.514	-0.250	-0.023
-710.675	-137.048	0.149	-0.022
-709.660	-200.000	0.030	0.336
-708.645	-97.608	-0.558	-0.191
-707.631	-184.139	0.569	-0.012
-706.616	-109.828	0.871	-0.241
-705.602	-106.060	-0.322	0.095
-704.587	-22.747	0.018	0.015
-703.572	-157.546	0.596	-0.047
-702.558	-9.117	0.267	-0.237
-701.543	-45.017	0.458	0.301
-700.529	-66.080	0.459	-0.242
-699.514	29.969	0.225	-0.254
-698.499	-46.962	-0.055	-0.036
-697.485	212.987	-0.169	-0.355
-696.470	192.147	-0.208	-0.417
-695.456	-200.000	0.059	-0.409
-694.441	-117.192	0.438	0.105
-693.426	-98.650	-0.040	0.014
-692.412	-10.678	-0.227	0.199
-691.397	12.184	-0.146	-0.149
-690.383	-96.276	0.271	0.094
-689.368	78.625	0.300	-0.426
-688.354	463.792	-0.110	0.328
-687.339	-88.476	0.052	0.020
-686.324	25.591	-0.222	-0.244
-685.310	219.144	-0.040	-0.084
-684.295	-82.440	-0.321	0.137
-683.281	-141.815	-0.722	-0.095
-682.266	203.270	0.058	0.119
-681.251	107.972	0.119	-0.188
-680.237	-200.000	-0.027	0.272
-679.222	413.796	-0.220	0.623
-678.208	336.000	-0.110	0.284
-677.193	-1.658	-0.350	0.326
-676.178	-56.100	0.158	-0.093
-675.164	129.227	-0.123	0.208
-674.149	-45.209	0.368	-0.241
-673.135	-84.968	-0.208	-0.086
-672.120	800.000	-0.085	0.493
-671.105	140.393	-0.115	-0.201
-670.091	-82.505	0.641	-0.274
-669.076	366.676	0.106	-0.283
-668.062	800.000	-0.080	-0.323
-667.047	186.056	0.163	-0.322
-666.032	-200.000	0.041	-0.350
-665.018	20.201	-0.145	-0.155
-664.003	-89.341	-0.576	0.223
-662.989	-200.000	-0.037	-0.279
-661.974	41.706	-0.371	0.445
-660.959	-149.495	-0.403	-0.042
-659.945	237.129	0.111	-0.245
-658.930	800.000	-0.050	-0.221
-657.916	-17.255	-0.199	-0.166
-656.901	-152.593	0.273	-0.025
-655.886	-97.574	0.269	0.092
-654.872	-200.000	-0.029	0.434
-653.857	-104.009	0.061	-0.019
-652.843	285.986	-0.192	0.460
-651.828	-200.000	0.015	0.366
-650.814	-109.127	-0.164	0.046
-649.799	7.551	0.350	0.346
-648.784	17.637	0.320	-0.336
-647.770	70.235	-0.073	-0.100
-646.755	-95.006	-0.578	0.205
-645.741	-200.000	0.035	-0.286
-644.726	-27.193	-0.367	-0.283
-643.711	800.000	0.100	-0.368
-642.697	-200.000	-0.006	0.307
-641.682	359.715	0.145	-0.386
-640.668	-114.633	0.300	0.075
-639.653	244.336	0.154	-0.344
-638.638	244.108	0.138	-0.307
-637.624	14.968	0.232	-0.240
-636.609	-90.264	0.401	0.153
-635.595	65.207	0.137	0.184
-634.580	-200.000	0.039	0.394
-633.565	45.257	0.110	0.134
-632.551	-100.912	-0.493	-0.159
-631.536	36.785	-0.194	-0.227
-630.522	23.118	0.073	0.079
-629.507	265.338	-0.242	-0.561
-628.492	800.000	0.143	-0.576
-627.478	510.178	-0.040	0.124
-626.463	102.741	-0.184	0.285
-625.449	-200.000	-0.006	0.221
-624.434	4.852	-0.192	-0.187
-623.419	203.279	0.316	-0.648
-622.405	-82.753	-0.200	-0.085
-621.390	-118.688	0.285	-0.066
-620.376	-106.066	0.103	0.030
-619.361	-21.915	0.219	0.176
-618.346	800.000	0.009	0.048
-617.332	-6.122	-0.431	-0.389
-616.317	-126.607	0.354	-0.069
-615.303	-52.309	-0.309	-0.189
-614.288	202.407	-0.062	-0.127
-613.273	-164.321	-0.360	0.021
-612.259	-200.000	-0.023	-0.264
-611.244	-139.027	-0.158	-0.022
-610.230	-149.909	-0.858	-0.088
-609.215	-200.000	-0.025	-0.431
-608.201	-145.594	0.378	0.044
-607.186	-200.000	0.016	-0.676
-606.171	100.247	0.323	-0.496
-605.157	709.454	-0.025	-0.088
-604.142	-134.460	-0.315	0.050
-603.128	123.528	0.254	0.422
-602.113	-200.000	-0.008	0.388
-601.098	-200.000	-0.030	-0.187
-600.084	800.000	0.078	-0.368
-599.069	44.138	-0.052	-0.063
-598.055	-90.887	0.232	-0.088
-597.040	-78.755	0.462	-0.207
-596.025	800.000	-0.150	0.691
-595.011	-92.217	0.327	-0.121
-593.996	-133.075	-0.278	0.046
-592.982	581.219	0.044	0.143
-591.967	96.616	-0.086	-0.130
-590.952	221.887	0.083	0.176
-589.938	349.957	0.076	-0.198
-588.923	10.489	-0.453	0.456
-587.909	-111.328	-0.392	-0.105
-586.894	736.226	0.032	-0.112
-585.879	-139.307	-0.198	0.028
-584.865	232.153	-0.176	0.383
-583.850	-148.056	-0.467	-0.051
-582.836	-4.992	0.086	0.078
-581.821	-200.000	-0.024	-0.375
-580.806	35.947	0.201	-0.234
-579.792	-161.674	0.614	-0.041
-578.777	252.882	0.161	0.364
-577.763	52.969	0.229	0.289
-576.748	240.077	0.123	0.272
-575.733	-12.982	0.398	-0.341
-574.719	5.874	-0.304	-0.297
-573.704	-13.728	-0.460	-0.392
-572.690	-65.266	0.583	-0.309
-571.675	226.042	-0.101	-0.216
-570.661	133.850	-0.114	0.195
-569.646	-118.652	0.117	0.027
-568.631	-146.669	0.309	-0.035
-567.617	-111.145	0.500	-0.134
-566.602	-36.229	-0.079	0.056
-565.588	800.000	0.029	0.146
-564.573	-70.665	-0.355	-0.176
-563.558	-62.566	-0.552	-0.301
-562.544	247.400	0.065	0.146
-561.529	-13.977	-0.163	0.138
-560.515	-87.183	0.196	-0.078
-559.500	-95.529	-0.552	0.194
-558.485	58.385	0.135	0.174
-557.471	-49.616	0.169	0.106
-556.456	26.800	0.158	-0.174
-555.442	593.961	-0.093	-0.306
-554.427	-122.381	-0.275	0.059
-553.412	-2.726	0.059	0.055
-552.398	-18.145	-0.155	0.128
-551.383	-73.820	0.351	0.168
-550.369	0.730	-0.454	0.427
-549.354	57.627	-0.108	-0.140
-548.339	3.802	0.133	-0.128
-547.325	-40.717	-0.214	-0.146
-546.310	-200.000	0.024	0.295
-545.296	-20.531	-0.078	0.063
-544.281	-124.370	-0.632	-0.129
-543.266	10.708	0.376	0.378
-542.252	800.000	0.050	-0.218
-541.237	41.060	0.266	-0.317
-540.223	-90.295	0.253	0.096
-539.208	-200.000	-0.006	0.266
-538.193	-200.000	0.004	0.236
-537.179	-200.000	0.068	0.000
-536.164	85.680	0.082	0.119
-535.150	322.062	-0.109	0.274
-534.135	-161.436	0.392	0.026
-533.121	-131.926	0.142	0.024
-532.106	-30.330	-0.300	-0.224
-531.091	-37.739	0.463	0.324
-530.077	269.920	0.031	-0.073
-529.062	800.000	-0.077	0.331
-528.048	-69.447	-0.337	-0.170
-527.033	181.272	0.135	-0.263
-526.018	26.891	0.102	-0.112
-525.004	-77.639	0.235	0.107
-523.989	3.979	0.134	-0.129
-522.975	3.761	-0.324	-0.311
-521.960	-24.723	-0.321	-0.251
-520.945	-200.000	0.012	0.444
-519.931	65.422	0.160	0.213
-518.916	-141.468	0.153	-0.020
-517.902	-200.000	-0.048	0.333
-516.887	-159.402	-0.292	-0.021
-515.872	72.248	0.172	-0.236
-514.858	63.109	-0.135	0.178
-513.843	-3.299	0.398	0.365
-512.829	-77.245	0.294	-0.134
-511.814	-21.995	0.074	-0.059
-510.799	377.985	0.051	0.137
-509.785	407.420	-0.099	-0.277
-508.770	-74.147	-0.400	-0.190
-507.756	14.075	0.110	-0.112
-506.741	12.491	-0.155	-0.157
-505.726	61.527	0.090	-0.118
-504.712	-75.557	-0.008	0.004
-503.697	-102.842	-0.448	-0.139
-502.683	-68.282	-0.381	0.194
-501.668	-72.894	-0.369	-0.177
-500.653	-57.411	-0.248	0.143
-499.639	44.704	0.096	-0.116
-498.624	-118.657	0.470	0.108
-497.610	396.297	-0.043	-0.118
-496.595	238.400	-0.131	-0.288
-495.581	-200.000	-0.017	-0.194
-494.566	-116.805	0.661	0.158
-493.551	-132.140	0.190	0.032
-492.537	1.632	0.407	-0.385
-491.522	96.407	0.287	0.432
-490.508	10.031	-0.382	0.381
-489.493	-135.506	0.336	0.052
-488.478	246.313	-0.111	-0.247
-487.464	24.309	-0.170	0.184
-486.449	116.006	-0.296	0.478
-485.435	-33.385	-0.077	-0.056
-484.420	-23.030	0.194	-0.153
-483.405	-169.083	-0.779	-0.037
-482.391	9.988	-0.117	-0.117
-481.376	-58.851	0.380	0.215
-480.362	370.598	0.142	-0.381
-479.347	28.947	-0.301	-0.336
-478.332	800.000	0.105	0.521
-477.318	180.012	0.255	-0.493
-476.303	59.582	-0.198	-0.257
-475.289	586.486	-0.088	-0.287
-474.274	-200.000	0.063	-0.415
-473.259	-200.000	-0.018	-0.266
-472.245	-148.400	0.454	0.048
-471.230	218.485	-0.037	-0.078
-470.216	-143.722	-0.260	0.032
-469.201	-128.910	0.406	-0.074
-468.186	55.515	0.171	0.217
-467.172	-26.857	-0.411	0.315
-466.157	597.905	0.039	0.128
-465.143	40.843	-0.287	0.340
-464.128	800.000	-0.016	-0.094
-463.113	27.781	-0.264	0.293
-462.099	-9.275	-0.255	0.223
-461.084	-92.869	-0.357	-0.130
-460.070	-89.003	-0.182	0.070
-459.055	24.880	0.275	-0.300
-458.040	205.811	-0.045	-0.092
-457.026	-200.000	-0.047	0.346
-456.011	-132.821	0.042	-0.007
-454.997	67.664	-0.433	0.582
-453.982	-59.429	0.234	0.131
-452.968	85.504	0.243	0.351
-451.953	-2.127	-0.408	-0.376
-450.938	-15.274	-0.149	-0.125
-449.924	-57.605	-0.088	0.050
-448.909	-168.443	0.287	0.014
-447.895	-71.617	-0.329	-0.161
-446.880	64.841	0.123	0.163
-445.865	-0.543	-0.078	0.073
-444.851	800.000	-0.141	-0.543
-443.836	57.026	0.125	-0.160
-442.822	-33.015	0.117	-0.085
-441.807	-153.371	-0.319	-0.029
-440.792	800.000	-0.083	0.359
-439.778	-52.274	-0.372	-0.226
-438.763	303.897	-0.082	0.200
-437.749	139.140	0.191	0.331
-436.734	-16.143	-0.102	-0.085
-435.719	182.444	-0.143	0.278
-434.705	218.657	-0.303	0.637
-433.690	223.617	-0.009	0.020
-432.676	91.481	0.146	0.215
-431.661	-107.664	-0.122	0.035
-430.646	247.260	-0.067	0.148
-429.632	-63.537	-0.151	0.081
-428.617	-87.706	0.362	0.143
-427.603	440.146	-0.098	0.283
-426.588	217.731	-0.050	-0.105
-425.573	-22.872	0.159	0.125
-424.559	800.000	0.203	0.838
-423.544	-110.560	-0.208	-0.056
-422.530	-13.434	-0.034	-0.029
-421.515	-52.143	-0.275	0.167
-420.500	-136.103	-0.307	-0.047
-419.486	-78.154	0.599	-0.269
-418.471	-33.434	0.040	-0.029
-417.457	-106.955	0.163	-0.047
-416.442	-81.879	-0.395	-0.169
-415.428	-200.000	-0.067	-0.450
-414.413	168.106	-0.116	-0.218
-413.398	204.156	0.215	0.437
-412.384	-163.796	0.401	0.024
-411.369	184.851	-0.087	-0.170
-410.355	-166.391	-0.327	-0.018
-409.340	-89.173	-0.141	0.054
-408.325	-48.570	0.156	-0.098
-407.311	777.790	-0.043	0.156
-406.296	457.523	-0.064	-0.188
-405.282	-13.332	-0.169	0.144
-404.267	800.000	0.049	-0.206
-403.252	-128.451	0.249	0.046
-402.238	-117.703	0.064	-0.015
-401.223	-84.554	0.317	-0.130
-400.209	-19.502	0.146	-0.118
-399.194	571.960	-0.121	-0.390
-398.179	-0.716	0.275	0.255
-397.165	-18.640	0.189	-0.154
-396.150	111.150	0.220	-0.348
-395.136	-114.002	0.174	-0.044
-394.121	-36.428	-0.289	0.204
-393.106	-56.750	0.128	-0.074
-392.092	-124.076	0.106	-0.022
-391.077	-200.000	-0.023	-0.356
-390.063	292.466	0.130	-0.311
-389.048	402.880	0.084	0.233
-388.033	-133.380	-0.431	-0.070
-387.019	-188.069	0.196	-0.003
-386.004	-103.702	-0.297	0.091
-384.990	-110.799	0.113	-0.030
-383.975	-200.000	-0.057	0.407
-382.960	410.923	0.105	-0.294
-381.946	205.200	-0.118	0.242
-380.931	16.305	0.360	0.372
-379.917	-58.897	-0.421	0.237
-378.902	800.000	-0.091	0.405
-377.888	-61.476	-0.206	-0.113
-376.873	-76.134	-0.172	0.079
-375.858	215.723	-0.136	0.284
-374.844	703.963	0.123	0.426
-373.829	9.294	-0.258	-0.255
-372.815	-135.252	-0.463	-0.072
-371.800	-104.322	0.131	0.040
-370.785	-200.000	0.045	-0.386
-369.771	202.885	-0.057	-0.115
-368.756	800.000	0.054	-0.251
-367.742	-155.752	-0.562	-0.046
-366.727	-115.878	0.581	0.141
-365.712	-86.576	0.146	-0.058
-364.698	-9.553	-0.123	0.107
-363.683	-72.312	-0.385	0.186
-362.669	-128.511	0.352	-0.065
-361.654	-23.551	0.226	0.177
-360.639	-74.485	-0.281	-0.132
-359.625	800.000	0.014	-0.057
-358.610	-124.508	0.143	-0.029
-357.596	-167.317	0.151	-0.008
-356.581	-138.482	-0.330	-0.047
-355.566	-21.071	-0.622	-0.497
-354.552	-73.743	0.472	0.224
-353.537	96.490	0.210	0.315
-352.523	3.418	-0.130	0.124
-351.508	-128.196	0.380	0.070
-350.493	141.868	-0.049	-0.085
-349.479	800.000	0.062	0.274
-348.464	800.000	-0.101	-0.375
-347.450	800.000	-0.090	0.374
-346.435	321.117	-0.090	0.225
-345.420	44.189	0.087	-0.105
-344.406	-200.000	-0.003	-0.128
-343.391	10.559	0.277	-0.276
-342.377	-200.000	-0.018	-0.158
-341.362	22.711	-0.211	-0.226
-340.348	17.378	-0.146	-0.151
-339.333	1.316	0.145	0.136
-338.318	-133.584	0.089	-0.014
-337.304	98.076	-0.206	0.310
-336.289	680.162	0.053	-0.180
-335.275	-22.585	-0.089	-0.070
-334.260	70.000	-0.331	-0.447
-333.245	51.991	-0.324	-0.404
-332.231	253.406	0.046	-0.103
-331.216	-200.000	-0.015	0.278
-330.202	800.000	0.092	-0.380
-329.187	6.540	-0.301	-0.292
-328.172	-200.000	0.041	-0.307
-327.158	169.097	0.089	-0.166
-326.143	426.550	0.187	-0.530
-325.129	155.024	-0.137	-0.246
-324.114	-200.000	0.073	-0.539
-323.099	-74.244	-0.205	-0.097
-322.085	45.538	0.087	0.105
-321.070	228.736	0.170	0.364
-320.056	800.000	-0.050	0.190
-319.041	-143.473	-0.232	0.029
-318.026	-200.000	0.049	0.504
-317.012	-97.616	-0.437	0.147
-315.997	-112.462	-0.550	0.142
-314.983	-200.000	0.026	-0.250
-313.968	128.347	-0.182	0.302
-312.953	-128.907	0.246	-0.045
-311.939	-154.134	0.150	-0.013
-310.924	32.847	0.308	0.348
-309.910	-75.257	-0.152	0.071
-308.895	-54.447	-0.464	-0.274
-307.880	-23.628	-0.068	-0.053
-306.866	-140.334	0.086	0.012
-305.851	-200.000	-0.004	-0.213
-304.837	66.524	0.207	-0.275
-303.822	107.463	-0.096	-0.149
-302.807	-95.680	-0.433	-0.150
-301.793	-106.677	0.332	0.096
-300.778	459.980	0.048	-0.140
-299.764	-171.124	-0.532	0.023
-298.749	575.954	-0.132	-0.423
-297.735	-87.318	-0.535	0.211
-296.720	-200.000	0.016	-0.141
-295.705	705.428	-0.055	-0.191
-294.691	-200.000	-0.001	-0.092
-293.676	-93.955	-0.263	0.094
-292.662	-1.196	0.224	0.206
-291.647	15.203	0.269	0.275
-290.632	-123.619	-0.180	0.037
-289.618	-39.241	0.087	0.059
-288.603	-3.629	0.265	0.240
-287.589	-119.942	0.287	0.064
-286.574	168.982	0.095	-0.177
-285.559	-23.319	-0.227	0.177
-284.545	157.748	-0.132	0.240
-283.530	-200.000	-0.020	0.145
-282.516	124.575	-0.137	0.225
-281.501	168.825	0.204	-0.381
-280.486	718.534	-0.052	0.182
-279.472	-91.550	-0.636	-0.235
-278.457	-24.040	-0.432	-0.336
-277.443	-131.345	0.546	0.093
-276.428	800.000	-0.051	-0.280
-275.413	-75.349	-0.413	0.191
-274.399	77.376	0.375	0.521
-273.384	1.449	-0.266	0.249
-272.370	309.844	-0.140	-0.343
-271.355	800.000	0.050	0.190
-270.340	37.276	0.178	-0.206
-269.326	-74.550	0.548	-0.256
-268.311	-139.007	0.139	0.019
-267.297	-66.443	-0.313	-0.161
-266.282	-143.350	-0.019	0.002
-265.267	-130.661	0.645	0.112
-264.253	-200.000	0.028	-0.166
-263.238	0.111	0.225	-0.209
-262.224	205.084	0.080	0.162
-261.209	-6.625	0.310	-0.275
-260.195	-134.205	0.131	-0.021
-259.180	218.992	0.036	0.076
-258.165	-157.296	0.311	-0.024
-257.151	-20.402	0.576	-0.461
-256.136	204.133	0.207	0.420
-255.122	-148.650	-0.260	0.027
-254.107	180.061	-0.009	0.017
-253.092	488.961	-0.061	-0.183
-252.078	51.322	-0.026	-0.032
-251.063	105.257	0.166	-0.255
-250.049	-48.922	-0.217	-0.135
-249.034	10.565	-0.251	0.249
-248.019	272.722	-0.178	-0.410
-247.005	800.000	0.065	-0.238
-245.990	-200.000	0.025	-0.373
-244.976	371.836	-0.119	0.317
-243.961	-134.925	-0.344	-0.054
-242.946	-111.810	0.146	0.038
-241.932	-93.930	-0.539	0.192
-240.917	-6.162	0.354	0.314
-239.903	-60.105	0.312	0.173
-238.888	-147.387	-0.312	-0.034
-237.873	105.189	0.193	-0.297
-236.859	-73.882	0.392	0.185
-235.844	-200.000	0.003	-0.566
-234.830	-110.712	-0.120	-0.032
-233.815	762.214	0.131	0.465
-232.800	-57.790	0.179	0.102
-231.786	12.834	-0.155	-0.156
-230.771	595.129	-0.100	-0.324
-229.757	-71.500	-0.196	-0.095
-228.742	-120.652	0.184	0.040
-227.727	800.000	0.127	0.491
-226.713	-70.810	0.244	0.119
-225.698	-81.139	-0.197	0.084
-224.684	-22.845	0.198	0.155
-223.669	-200.000	0.010	0.190
-222.655	558.388	0.068	0.216
-221.640	-47.337	0.089	-0.056
-220.625	476.262	-0.027	0.078
-219.611	-79.321	0.429	-0.188
-218.596	777.504	-0.129	0.461
-217.582	-61.672	0.350	0.190
-216.567	-53.328	0.332	0.197
-215.552	132.194	0.243	0.409
-214.538	198.697	0.123	-0.246
-213.523	-200.000	-0.022	0.372
-212.509	-61.728	-0.479	-0.260
-211.494	-157.670	0.195	-0.015
-210.479	-150.555	-0.184	-0.018
-209.465	-124.984	0.552	-0.109
-208.450	-62.349	-0.336	0.181
-207.436	-120.343	0.099	0.022
-206.421	800.000	0.055	0.272
-205.406	-200.000	0.032	0.239
-204.392	800.000	0.154	0.586
-203.377	-129.567	0.306	0.055
-202.363	-200.000	-0.085	-0.590
-201.348	487.649	0.031	0.092
-200.333	-119.232	0.048	-0.011
-199.319	-98.578	0.459	0.151
-198.304	51.653	0.165	-0.205
-197.290	61.661	-0.258	-0.333
-196.275	42.868	0.144	0.170
-195.260	259.649	0.078	0.177
-194.246	-136.514	-0.119	-0.018
-193.231	-81.348	0.164	-0.070
-192.217	-15.102	0.172	-0.143
-191.202	377.974	0.086	0.231
-190.187	-200.000	-0.016	0.238
-189.173	-58.981	-0.393	0.220
-188.158	-200.000	0.005	0.535
-187.144	-122.367	-0.223	0.047
-186.129	166.832	-0.034	-0.064
-185.114	-80.001	0.446	-0.194
-184.100	-9.682	0.297	0.257
-183.085	-200.000	-0.052	-0.406
-182.071	-200.000	-0.011	-0.445
-181.056	800.000	0.087	0.338
-180.042	-4.634	-0.113	-0.101
-179.027	-1.522	-0.107	0.098
-178.012	206.132	0.048	-0.097
-176.998	439.031	-0.157	0.448
-175.983	-140.608	-0.195	-0.026
-174.969	-200.000	-0.002	0.035
-173.954	44.432	-0.030	-0.036
-172.939	-115.803	0.420	0.101
-171.925	-85.744	-0.306	0.123
-170.910	724.381	0.098	0.340
-169.896	364.928	-0.161	0.424
-168.881	778.138	0.158	0.564
-167.866	800.000	0.134	0.723
-166.852	535.012	-0.152	0.471
-165.837	-35.641	0.264	-0.185
-164.823	-23.659	0.360	-0.280
-163.808	433.174	-0.071	0.200
-162.793	-150.531	-0.139	-0.014
-161.779	-200.000	-0.006	-0.121
-160.764	800.000	0.119	-0.541
-159.750	-3.407	-0.142	-0.128
-158.735	800.000	0.085	0.439
-157.720	48.504	0.403	0.490
-156.706	26.495	0.090	0.098
-155.691	-157.583	0.369	0.028
-154.677	-1.546	-0.092	-0.084
-153.662	-158.497	-0.545	-0.040
-152.647	-20.876	0.473	-0.376
-151.633	-200.000	0.046	0.330
-150.618	-139.697	-0.518	-0.071
-149.604	-4.783	-0.527	0.471
-148.589	-99.337	-0.294	-0.096
-147.574	10.688	0.274	-0.271
-146.560	-200.000	-0.017	0.122
-145.545	-19.323	-0.290	-0.233
-144.531	-200.000	0.009	0.252
-143.516	474.055	-0.053	0.157
-142.502	-143.799	0.217	0.026
-141.487	83.433	0.298	0.421
-140.472	-20.836	0.135	-0.107
-139.458	-5.484	-0.337	0.300
-138.443	27.037	-0.122	-0.133
-137.429	-184.763	0.679	-0.014
-136.414	-116.607	-0.394	0.093
-135.399	800.000	0.066	-0.318
-134.385	11.742	-0.126	-0.126
-133.370	-86.332	0.449	0.178
-132.356	558.765	0.212	-0.667
-131.341	499.010	-0.103	-0.308
-130.326	347.203	-0.192	0.493
-129.312	-200.000	-0.009	-0.062
-128.297	-162.999	0.304	0.019
-127.283	540.694	-0.038	0.117
-126.268	-81.413	-0.172	-0.073
-125.253	-124.215	-0.699	-0.141
-124.239	394.842	-0.117	0.318
-123.224	778.804	-0.054	-0.193
-122.210	-66.209	-0.163	0.084
-121.195	-158.228	0.244	-0.018
-120.180	-24.223	-0.229	0.176
-119.166	-115.303	-0.139	-0.034
-118.151	-200.000	-0.080	0.569
-117.137	-23.671	-0.163	0.126
-116.122	19.059	-0.059	0.061
-115.107	-164.631	0.307	-0.018
-114.093	-178.404	-0.326	-0.010
-113.078	4.477	-0.192	0.183
-112.064	-114.731	-0.191	-0.047
-111.049	1.928	0.340	0.317
-110.034	-30.354	-0.063	0.046
-109.020	800.000	0.022	0.098
-108.005	52.610	-0.336	-0.415
-106.991	423.138	0.187	-0.522
-105.976	-93.429	-0.062	0.022
-104.962	131.340	-0.056	0.093
-103.947	-73.724	0.316	0.148
-102.932	-87.200	-0.400	0.157
-101.918	-64.387	0.119	-0.062
-100.903	-200.000	0.047	-0.387
-99.889	-80.697	-0.358	-0.153
-98.874	-169.100	0.373	0.018
-97.859	43.066	0.060	-0.071
-96.845	-106.036	-0.121	0.035
-95.830	800.000	-0.034	0.165
-94.816	-163.838	-0.195	-0.012
-93.801	87.423	-0.149	0.214
-92.786	-42.052	-0.316	0.209
-91.772	-200.000	-0.028	0.468
-90.757	-35.688	0.289	0.202
-89.743	75.288	0.335	0.458
-88.728	-114.596	0.409	-0.101
-87.713	-19.202	0.245	0.197
-86.699	204.814	0.091	-0.184
-85.684	-6.827	-0.470	0.413
-84.670	-94.644	-0.372	-0.130
-83.655	69.654	0.138	-0.185
-82.640	-95.650	0.363	0.125
-81.626	68.734	0.171	0.228
-80.611	-10.792	-0.213	-0.182
-79.597	12.612	0.106	0.106
-78.582	45.157	0.167	-0.199
-77.567	0.563	0.288	0.266
-76.553	800.000	0.038	0.148
-75.538	-60.809	-0.193	0.105
-74.524	800.000	0.090	-0.341
-73.509	-151.712	0.265	0.025
-72.494	122.936	-0.111	-0.180
-71.480	-200.000	-0.016	0.396
-70.465	-48.603	-0.557	0.345
-69.451	-51.909	-0.452	0.271
-68.436	-92.583	-0.330	-0.119
-67.422	-120.991	0.105	0.023
-66.407	-44.047	0.235	0.153
-65.392	800.000	-0.125	0.474
-64.378	-200.000	-0.023	-0.240
-63.363	20.026	0.317	0.330
-62.349	177.078	0.177	0.334
-61.334	-18.858	-2.388	-1.920
-60.319	47.029	1.259	1.515
-59.305	191.889	-4.010	-7.838
-58.290	41.854	4.403	5.164
-57.276	420.379	3.773	10.501
-56.261	-200.000	24.025	320.156
-55.246	352.944	1304.760	3360.308
-54.232	52.433	2848.261	3516.160
-53.217	51.092	2662.472	3265.915
-52.203	31.423	2391.616	2656.146
-51.188	27.748	2056.954	2239.134
-50.173	24.431	1943.563	2076.888
-49.159	23.402	1931.514	2051.956
-48.144	22.920	1927.588	2042.108
-47.130	22.768	1925.255	2037.799
-46.115	22.701	1923.443	2035.012
-45.100	22.729	1922.178	2033.927
-44.086	22.865	1919.766	2032.864
-43.071	22.761	1918.396	2030.130
-42.057	22.650	1917.584	2027.902
-41.042	22.759	1915.773	2027.167
-40.027	22.761	1914.565	2025.832
-39.013	22.637	1913.773	2023.485
-37.998	22.695	1912.279	2022.489
-36.984	22.727	1910.135	2020.517
-35.969	22.753	1909.237	2019.787
-34.954	22.682	1907.762	2017.332
-33.940	22.516	1907.652	2015.221
-32.925	22.472	1906.855	2013.794
-31.911	22.639	1904.196	2012.818
-30.896	22.653	1903.123	2011.773
-29.881	22.613	1902.218	2010.273
-28.867	22.504	1900.684	2007.322
-27.852	22.370	1899.769	2004.747
-26.838	22.587	1896.909	2004.132
-25.823	22.520	1896.925	2003.298
-24.809	22.477	1894.974	2000.670
-23.794	22.565	1893.799	2000.352
-22.779	22.605	1891.905	1998.732
-21.765	22.505	1890.999	1996.557
-20.750	22.464	1890.142	1995.098
-19.736	22.450	1889.215	1993.885
-18.721	22.402	1888.521	1992.530
-17.706	22.433	1887.045	1991.244
-16.692	22.427	1884.919	1988.853
-15.677	22.341	1884.532	1987.383
-14.663	22.402	1881.873	1985.192
-13.648	22.511	1880.246	1984.634
-12.633	22.513	1879.642	1983.944
-11.619	22.329	1879.537	1981.674
-10.604	22.343	1877.479	1979.579
-9.590	22.344	1876.548	1978.528
-8.575	22.452	1875.092	1978.140
-7.560	22.450	1873.798	1976.671
-6.546	22.451	1872.751	1975.499
-5.531	22.387	1871.685	1973.574
-4.517	22.350	1870.807	1972.152
-3.502	22.303	1870.678	1971.414
-2.487	22.362	1868.642	1969.849
-1.473	22.449	1863.843	1965.685
-0.458	22.330	1846.947	1946.468
0.556	18.827	1993.512	2046.777
1.571	17.336	2196.583	2235.321
2.586	18.212	2236.311	2287.253
3.600	18.150	2239.074	2288.968
4.615	18.180	2238.189	2288.186
5.629	18.181	2236.149	2285.846
6.644	18.132	2233.337	2282.044
7.659	18.103	2232.902	2280.929
8.673	18.155	2230.642	2279.045
9.688	17.776	2239.647	2282.874
10.702	17.009	2320.442	2354.252
11.717	15.358	2384.698	2395.483
12.731	7.142	2365.814	2258.804
13.746	1.061	2348.505	2155.253
14.761	0.236	2346.462	2141.345
15.775	0.072	2344.920	2137.328
16.790	0.096	2342.454	2135.165
17.804	0.130	2341.033	2134.109
18.819	0.021	2340.127	2131.475
19.834	0.080	2338.693	2130.746
20.848	0.052	2337.382	2128.906
21.863	0.154	2334.299	2127.294
22.877	0.044	2333.426	2124.683
23.892	-0.026	2331.537	2121.710
24.907	0.022	2329.059	2119.880
25.921	0.018	2326.717	2117.431
26.936	0.080	2324.285	2115.854
27.950	0.039	2321.877	2112.829
28.965	-0.052	2320.566	2110.093
29.980	0.009	2319.098	2109.365
30.994	0.181	2316.536	2109.204
32.009	3.721	2327.948	2169.378
33.023	12.561	2353.543	2318.667
34.038	16.243	2359.763	2376.730
35.053	16.418	2355.371	2374.482
36.067	16.236	2353.197	2369.438
37.082	16.352	2351.438	2369.024
38.096	16.429	2349.490	2367.863
39.111	16.466	2348.848	2367.452
40.126	16.672	2346.587	2367.781
41.140	16.856	2343.831	2367.311
42.155	16.886	2342.641	2366.243
43.169	16.869	2341.066	2364.126
44.184	16.617	2337.478	2356.698
45.199	16.626	2335.116	2354.163
46.213	16.749	2333.851	2354.321
47.228	16.771	2334.102	2354.603
48.242	16.927	2331.302	2353.670
49.257	16.872	2330.864	2352.173
50.271	17.133	2326.309	2350.936
51.286	16.857	2324.738	2345.224
52.301	16.654	2322.312	2339.678
53.315	17.315	2325.771	2352.075
54.330	20.013	2333.353	2397.048
55.344	21.793	2333.716	2421.868
56.359	21.856	2331.133	2419.768
57.374	22.003	2331.243	2421.638
58.388	22.225	2327.669	2420.707
59.403	21.896	2323.885	2411.935
60.417	21.746	2320.321	2405.878
61.432	21.694	2319.365	2403.884
62.447	22.041	2317.709	2406.657
63.461	22.275	2314.984	2406.755
64.476	22.275	2314.239	2405.695
65.490	21.890	2312.172	2397.968
66.505	21.130	2308.086	2383.022
67.520	19.214	2299.927	2348.093
68.534	17.236	2292.720	2313.410
69.549	16.756	2288.661	2302.475
70.563	16.692	2284.709	2297.354
71.578	16.762	2284.150	2297.475
72.593	16.768	2283.002	2296.127
73.607	16.756	2281.550	2294.229
74.622	16.837	2279.442	2292.930
75.636	16.773	2276.108	2288.435
76.651	16.821	2273.902	2286.595
77.666	16.732	2272.257	2283.455
78.680	16.677	2269.908	2280.084
79.695	16.604	2267.600	2276.507
80.709	16.540	2265.429	2273.181
81.724	16.371	2264.530	2269.734
82.739	16.541	2261.797	2269.012
83.753	16.538	2259.884	2266.774
84.768	16.501	2257.882	2264.004
85.782	16.547	2257.039	2263.510
86.797	16.606	2254.562	2261.548
87.812	16.647	2252.847	2260.108
88.826	16.622	2251.816	2258.466
89.841	16.639	2249.285	2255.885
90.855	16.752	2246.304	2254.130
91.870	16.635	2245.510	2251.499
92.884	16.678	2244.072	2250.372
93.899	16.699	2242.295	2248.598
94.914	17.282	2244.867	2258.690
95.928	19.600	2251.157	2295.761
96.943	20.370	2248.725	2303.275
97.957	18.152	2239.631	2264.196
98.972	16.848	2233.925	2240.836
99.987	16.665	2230.014	2234.220
101.001	16.640	2228.632	2232.242
102.016	16.687	2225.967	2229.921
103.030	16.562	2223.860	2225.899
104.045	16.586	2220.855	2222.941
105.060	16.528	2219.541	2220.586
106.074	16.486	2217.421	2217.653
107.089	16.475	2216.608	2216.424
108.103	16.506	2215.269	2215.228
109.118	16.552	2214.298	2214.591
110.133	16.646	2212.665	2213.942
111.147	16.599	2209.836	2210.226
112.162	16.639	2208.720	2209.369
113.176	16.721	2206.626	2208.081
114.191	16.761	2204.743	2206.461
115.206	16.820	2202.396	2204.617
116.220	16.788	2201.119	2202.654
117.235	16.710	2199.157	2199.413
118.249	16.738	2196.997	2197.358
119.264	16.685	2195.374	2194.776
120.279	16.617	2194.516	2192.770
121.293	16.603	2192.225	2190.033
122.308	16.674	2190.676	2189.144
123.322	16.636	2189.559	2187.274
124.337	17.049	2190.831	2193.656
125.352	19.546	2198.506	2233.588
126.366	20.196	2195.456	2238.655
127.381	17.650	2185.174	2194.990
128.395	16.657	2180.828	2177.526
129.410	16.627	2178.113	2174.160
130.424	16.613	2176.791	2172.398
131.439	16.673	2175.193	2171.325
132.454	16.809	2174.136	2171.754
133.468	16.816	2171.310	2168.762
134.483	16.886	2170.022	2168.115
135.497	16.771	2169.063	2165.418
136.512	16.819	2166.363	2163.087
137.527	16.721	2164.493	2159.704
138.541	16.536	2163.863	2156.447
139.556	16.663	2162.691	2156.642
140.570	16.631	2160.623	2153.919
141.585	16.574	2157.716	2150.027
142.600	16.567	2156.021	2147.992
143.614	16.560	2156.056	2147.688
144.629	16.530	2154.628	2145.623
145.643	16.477	2152.920	2142.987
146.658	16.464	2150.716	2140.373
147.673	16.488	2148.209	2137.926
148.687	16.583	2146.858	2137.530
149.702	16.640	2146.963	2138.105
150.716	16.667	2145.968	2137.199
151.731	16.718	2143.940	2135.577
152.746	16.759	2143.799	2135.698
153.760	17.465	2145.854	2146.439
154.775	19.919	2151.574	2183.051
155.789	20.586	2150.670	2190.328
156.804	18.258	2140.364	2150.194
157.819	16.823	2133.693	2125.162
158.833	16.707	2130.439	2120.208
159.848	16.716	2127.891	2117.535
160.862	16.779	2127.623	2117.803
161.877	16.747	2126.631	2116.161
162.892	16.699	2126.387	2115.062
163.906	16.757	2124.417	2113.573
164.921	16.753	2121.784	2110.655
165.935	16.787	2119.174	2108.235
166.950	16.807	2118.343	2107.401
167.964	16.862	2115.927	2105.431
168.979	16.638	2113.545	2100.021
169.994	16.542	2112.554	2097.584
171.008	16.575	2110.252	2095.454
172.023	16.528	2109.804	2094.173
173.037	16.620	2108.195	2093.473
174.052	16.655	2107.296	2092.761
175.067	16.544	2105.209	2089.063
176.081	16.603	2103.090	2087.444
177.096	16.576	2102.692	2086.459
178.110	16.604	2100.338	2084.222
179.125	16.633	2100.049	2084.048
180.140	16.691	2098.063	2082.549
181.154	16.682	2096.507	2080.634
182.169	16.750	2095.844	2080.564
183.183	17.508	2098.068	2091.899
184.198	20.180	2105.962	2132.586
185.213	20.707	2102.785	2135.622
186.227	17.882	2092.694	2090.397
187.242	16.808	2089.307	2073.557
188.256	16.591	2087.675	2069.024
189.271	16.602	2085.023	2066.275
190.286	16.511	2083.930	2063.832
191.300	16.579	2080.992	2061.512
192.315	16.580	2080.002	2060.293
193.329	16.777	2078.333	2060.797
194.344	16.878	2077.840	2061.302
195.359	16.899	2076.393	2059.874
196.373	16.811	2074.009	2056.191
197.388	16.632	2071.729	2051.506
198.402	16.579	2069.049	2047.960
199.417	16.640	2066.996	2046.421
200.432	16.646	2065.599	2044.866
201.446	16.736	2064.216	2044.348
202.461	16.739	2062.317	2042.260
203.475	16.624	2060.925	2039.245
204.490	16.659	2058.705	2037.219
205.504	16.639	2057.175	2035.224
206.519	16.690	2054.451	2032.896
207.534	16.699	2053.464	2031.794
208.548	16.632	2052.301	2029.592
209.563	16.745	2051.267	2029.680
210.577	16.733	2050.796	2028.831
211.592	16.755	2050.206	2028.266
212.607	18.160	2054.474	2049.183
213.621	21.052	2061.306	2090.644
214.636	20.443	2055.631	2077.315
215.650	17.647	2045.933	2033.778
216.665	16.886	2042.591	2021.089
217.680	16.819	2040.464	2017.942
218.694	16.736	2038.860	2015.123
219.709	16.578	2037.802	2011.946
220.723	16.731	2035.769	2011.533
221.738	16.801	2033.705	2010.087
222.753	16.836	2032.907	2009.470
223.767	16.847	2031.005	2007.481
224.782	16.810	2029.004	2004.822
225.796	16.689	2028.298	2002.447
226.811	16.774	2025.813	2000.766
227.826	16.723	2024.811	1998.928
228.840	16.749	2023.952	1998.147
229.855	16.641	2021.633	1994.342
230.869	16.554	2020.555	1992.011
231.884	16.509	2019.305	1990.009
232.899	16.535	2017.991	1988.783
233.913	16.627	2015.971	1987.640
234.928	16.657	2014.132	1985.936
235.942	16.593	2012.786	1983.625
236.957	16.562	2011.392	1981.645
237.972	16.535	2010.172	1979.894
238.986	16.465	2009.133	1977.808
240.001	16.475	2007.571	1976.144
241.015	16.596	2006.582	1976.364
242.030	17.294	2008.796	1986.506
243.045	19.874	2013.760	2021.509
244.059	20.166	2010.583	2021.499
245.074	17.632	2001.685	1982.720
246.088	16.798	1998.017	1969.099
247.103	16.947	1996.574	1969.185
248.117	16.753	1996.021	1966.143
249.132	16.737	1993.190	1962.933
250.147	16.657	1990.717	1959.328
251.161	16.649	1990.028	1958.319
252.176	16.883	1988.476	1959.286
253.190	16.960	1987.326	1958.813
254.205	16.998	1985.072	1956.797
255.220	17.072	1983.657	1956.014
256.234	17.036	1982.169	1953.906
257.249	16.803	1981.829	1950.632
258.263	16.778	1980.914	1949.209
259.278	16.920	1979.006	1948.741
260.293	16.754	1977.473	1945.088
261.307	16.752	1974.909	1942.310
262.322	16.734	1973.537	1940.517
263.336	16.733	1971.271	1938.049
264.351	16.650	1970.542	1936.140
265.366	16.617	1968.822	1933.842
266.380	16.655	1967.788	1933.034
267.395	16.729	1965.761	1931.652
268.409	16.674	1964.233	1929.290
269.424	16.718	1963.628	1928.973
270.439	16.683	1963.581	1928.290
271.453	17.670	1965.258	1941.014
272.468	20.182	1970.224	1974.471
273.482	20.377	1966.214	1972.451
274.497	17.821	1956.312	1933.203
275.512	16.810	1953.641	1918.834
276.526	16.713	1951.286	1915.179
277.541	16.676	1949.091	1912.384
278.555	16.614	1947.896	1910.271
279.570	16.492	1946.823	1907.609
280.585	16.608	1945.411	1907.317
281.599	16.631	1943.537	1905.513
282.614	16.765	1942.806	1906.085
283.628	16.902	1942.109	1906.714
284.643	17.019	1941.403	1907.117
285.657	17.190	1939.748	1907.198
286.672	17.143	1938.210	1904.923
287.687	17.038	1936.854	1902.184
288.701	16.960	1935.269	1899.512
289.716	16.988	1933.434	1897.805
290.730	17.071	1931.700	1896.804
291.745	17.015	1930.941	1895.201
292.760	17.009	1930.762	1894.730
293.774	16.874	1929.759	1892.006
294.789	16.942	1927.211	1890.051
295.803	16.824	1924.807	1886.146
296.818	16.819	1923.405	1884.490
297.833	16.837	1922.431	1883.509
298.847	16.759	1920.686	1880.698
299.862	16.811	1919.317	1879.714
300.876	17.640	1920.623	1890.015
301.891	20.329	1927.438	1926.540
302.906	20.616	1924.238	1926.299
303.920	17.841	1916.599	1887.620
304.935	16.965	1912.993	1874.113
305.949	16.910	1909.203	1869.563
306.964	16.901	1908.282	1868.341
307.979	16.924	1907.076	1867.189
308.993	17.029	1906.460	1867.527
310.008	17.250	1905.096	1868.404
311.022	17.324	1903.416	1867.352
312.037	16.979	1901.743	1861.688
313.052	16.923	1900.242	1859.373
314.066	17.109	1899.085	1860.073
315.081	17.130	1897.798	1858.815
316.095	17.097	1896.612	1857.067
317.110	16.937	1894.582	1853.106
318.125	16.857	1892.321	1849.793
319.139	16.890	1891.297	1848.936
320.154	16.975	1889.942	1848.321
321.168	16.857	1888.935	1845.823
322.183	16.911	1886.544	1843.852
323.197	16.735	1886.304	1841.467
324.212	16.720	1884.181	1839.014
325.227	16.598	1882.073	1835.407
326.241	16.738	1880.190	1834.880
327.256	16.805	1879.817	1835.018
328.270	16.755	1878.308	1832.782
329.285	16.693	1878.053	1831.643
330.300	17.632	1882.359	1845.849
331.314	20.530	1887.283	1882.050
332.329	20.495	1882.035	1876.213
333.343	17.735	1873.607	1837.727
334.358	16.846	1870.126	1824.471
335.373	16.817	1868.465	1822.328
336.387	16.634	1866.854	1818.553
337.402	16.624	1865.177	1816.597
338.416	16.672	1864.048	1815.794
339.431	16.718	1862.501	1814.568
340.446	16.823	1860.559	1813.586
341.460	16.934	1859.133	1813.179
342.475	16.972	1858.588	1812.841
343.489	17.114	1857.343	1812.932
344.504	16.998	1856.513	1810.652
345.519	17.136	1854.309	1809.773
346.533	17.166	1853.405	1808.996
347.548	17.099	1852.370	1807.052
348.562	16.974	1851.022	1804.179
349.577	17.113	1849.942	1804.400
350.592	17.220	1848.969	1804.375
351.606	17.230	1847.146	1802.484
352.621	17.241	1845.455	1800.736
353.635	16.928	1844.944	1796.687
354.650	16.830	1842.726	1793.277
355.665	16.961	1840.824	1792.597
356.679	16.828	1839.437	1789.623
357.694	16.885	1837.907	1788.522
358.708	16.795	1837.137	1786.609
359.723	17.860	1841.268	1801.719
360.738	20.710	1845.003	1835.418
361.752	19.919	1840.344	1822.195
362.767	17.525	1832.783	1789.235
363.781	16.826	1829.789	1778.719
364.796	16.763	1828.967	1777.046
365.810	16.675	1827.081	1774.075
366.825	16.811	1825.858	1774.105
367.840	16.951	1825.500	1775.018
368.854	17.031	1824.605	1774.774
369.869	17.029	1822.018	1772.027
370.883	16.809	1819.636	1767.187
371.898	16.798	1818.721	1765.978
372.913	16.754	1818.202	1764.797
373.927	16.888	1817.027	1764.846
374.942	16.872	1816.501	1763.960
375.956	16.961	1815.107	1763.330
376.971	16.889	1813.032	1760.346
377.986	16.784	1811.147	1757.212
379.000	16.793	1810.048	1756.024
380.015	16.798	1808.765	1754.628
381.029	16.854	1806.278	1752.584
382.044	16.779	1804.432	1749.806
383.059	16.784	1803.259	1748.511
384.073	16.659	1802.662	1746.430
385.088	16.850	1800.678	1746.276
386.102	16.718	1799.343	1743.407
387.117	16.806	1796.952	1741.783
388.132	16.813	1797.295	1741.987
389.146	17.625	1801.340	1754.102
390.161	20.439	1805.782	1787.358
391.175	20.290	1797.902	1777.812
392.190	17.636	1790.130	1742.667
393.205	16.918	1788.362	1733.371
394.219	16.737	1786.625	1729.619
395.234	16.726	1785.656	1728.356
396.248	16.743	1783.967	1726.692
397.263	16.761	1780.838	1723.637
398.278	16.811	1778.740	1721.912
399.292	16.737	1778.439	1720.658
400.307	16.729	1777.718	1719.676
401.321	16.832	1776.519	1719.366
402.336	16.890	1775.458	1718.715
403.350	16.992	1773.868	1718.012
404.365	17.016	1772.772	1716.993
405.380	17.240	1772.681	1718.973
406.394	17.252	1771.477	1717.724
407.409	17.097	1770.060	1714.574
408.423	17.157	1768.494	1713.456
409.438	17.000	1767.494	1710.693
410.453	16.963	1766.038	1708.704
411.467	17.129	1764.787	1708.970
412.482	17.039	1762.945	1706.071
413.496	16.856	1761.892	1702.995
414.511	16.801	1759.555	1699.983
415.526	16.901	1756.883	1698.201
416.540	16.829	1755.065	1695.513
417.555	16.863	1755.114	1695.708
418.569	16.855	1755.893	1696.176
419.584	16.838	1755.375	1695.294
420.599	16.857	1754.832	1694.759
421.613	16.789	1752.413	1691.540
422.628	16.710	1751.344	1689.510
423.642	16.542	1750.693	1687.000
424.657	16.668	1748.716	1686.156
425.672	16.669	1747.234	1684.538
426.686	16.734	1745.078	1682.899
427.701	16.670	1743.743	1680.775
428.715	16.661	1742.837	1679.613
429.730	16.862	1741.670	1680.288
430.745	16.730	1740.327	1677.473
431.759	16.881	1740.258	1678.712
432.774	17.168	1740.961	1682.050
433.788	17.698	1741.006	1687.158
434.803	17.970	1740.100	1688.782
435.818	17.843	1739.209	1686.460
436.832	17.780	1738.193	1684.642
437.847	16.869	1730.682	1668.155
438.861	9.294	1711.024	1574.679
439.876	1.682	1697.474	1487.455
440.890	0.269	1693.956	1470.344
441.905	0.220	1692.137	1468.103
442.920	0.246	1690.903	1467.112
443.934	0.143	1690.235	1465.355
444.949	0.104	1688.865	1463.613
445.963	0.173	1687.461	1462.895
446.978	0.089	1687.567	1461.992
447.993	0.187	1685.900	1461.320
449.007	0.237	1683.205	1459.297
450.022	0.152	1681.304	1456.654
451.036	0.192	1680.124	1455.843
452.051	1.234	1683.372	1468.628
453.066	8.581	1700.250	1555.176
454.080	16.028	1711.834	1638.615
455.095	17.541	1714.762	1656.022
456.109	17.912	1713.933	1658.647
457.124	18.009	1713.722	1659.188
458.139	18.188	1712.726	1659.774
459.153	18.140	1712.585	1658.975
460.168	18.250	1709.928	1657.265
461.182	18.113	1708.445	1654.297
462.197	18.018	1707.045	1651.822
463.212	17.929	1705.599	1649.361
464.226	17.913	1703.943	1647.407
465.241	18.063	1702.807	1647.566
466.255	18.246	1702.320	1648.670
467.270	18.290	1700.668	1647.300
468.285	18.071	1698.822	1643.197
469.299	17.948	1697.810	1640.837
470.314	18.131	1695.924	1640.584
471.328	18.004	1695.095	1638.356
472.343	18.075	1694.739	1638.497
473.358	18.061	1693.250	1636.728
474.372	18.161	1691.303	1635.617
475.387	17.986	1689.852	1632.331
476.401	18.081	1688.322	1631.573
477.416	18.006	1688.126	1630.465
478.430	18.105	1686.777	1629.916
479.445	17.968	1685.225	1626.908
480.460	17.839	1684.056	1624.358
481.474	17.845	1683.192	1623.384
482.489	18.142	1681.767	1624.648
483.503	18.330	1679.920	1624.463
484.518	18.227	1678.976	1622.380
485.533	18.181	1677.894	1620.701
486.547	18.227	1676.198	1619.302
487.562	18.370	1675.394	1619.691
488.576	18.470	1673.473	1618.596
489.591	18.390	1672.036	1616.252
490.606	18.406	1671.357	1615.553
491.620	18.152	1669.784	1611.437
492.635	18.355	1668.215	1611.652
493.649	18.475	1667.052	1611.467
494.664	18.056	1666.031	1606.325
495.679	17.890	1664.499	1603.091
496.693	18.023	1663.010	1602.719
497.708	18.208	1662.084	1603.374
498.722	18.295	1661.640	1603.572
499.737	18.297	1660.270	1602.085
500.752	18.159	1657.877	1598.284
501.766	18.129	1656.431	1596.415
502.781	18.383	1654.558	1596.805
503.795	18.302	1653.256	1594.599
504.810	18.125	1652.391	1591.919
505.825	18.400	1652.488	1594.387
506.839	18.293	1651.014	1591.774
507.854	18.195	1650.050	1589.737
508.868	18.437	1647.700	1589.543
509.883	18.432	1647.183	1588.811
510.898	18.559	1645.703	1588.377
511.912	18.443	1643.808	1585.273
512.927	18.249	1642.208	1581.742
513.941	18.278	1640.978	1580.637
514.956	18.213	1638.923	1577.864
515.971	18.264	1637.527	1576.803
516.985	18.302	1636.893	1576.358
518.000	18.295	1636.849	1576.059
519.014	18.488	1635.549	1576.405
520.029	18.496	1634.063	1574.855
521.043	18.579	1632.472	1573.905
522.058	18.282	1632.370	1570.877
523.073	18.338	1631.790	1570.642
524.087	18.542	1630.686	1571.275
525.102	18.452	1629.722	1569.326
526.116	18.341	1627.212	1565.701
527.131	18.293	1626.076	1563.983
528.146	18.539	1625.681	1565.670
529.160	18.595	1624.643	1564.997
530.175	18.664	1623.328	1564.180
531.189	18.553	1622.734	1562.400
532.204	18.681	1620.401	1561.141
533.219	18.528	1619.267	1558.458
534.233	18.290	1618.987	1555.833
535.248	18.580	1617.960	1557.310
536.262	18.760	1616.966	1557.807
537.277	18.721	1615.497	1555.844
538.292	18.468	1613.591	1551.519
539.306	18.405	1612.229	1549.453
540.321	18.605	1610.249	1549.184
541.335	18.608	1608.125	1546.981
542.350	18.646	1606.767	1545.832
543.365	18.632	1605.798	1544.589
544.379	18.597	1605.175	1543.489
545.394	18.685	1603.882	1542.855
546.408	18.477	1602.949	1539.893
547.423	18.329	1601.659	1537.138
548.438	18.358	1599.942	1535.563
549.452	18.627	1598.746	1536.652
550.467	18.565	1597.915	1535.117
551.481	18.642	1596.803	1534.559
552.496	18.693	1596.516	1534.559
553.511	18.847	1594.960	1534.254
554.525	18.731	1594.071	1532.180
555.540	18.874	1593.653	1532.878
556.554	18.888	1592.589	1531.794
557.569	18.767	1590.995	1528.993
558.583	18.677	1589.338	1526.417
559.598	18.696	1587.493	1524.631
560.613	18.831	1586.286	1524.493
561.627	18.763	1585.907	1523.341
562.642	18.780	1585.107	1522.543
563.656	18.843	1583.969	1521.827
564.671	18.924	1582.145	1520.614
565.686	18.952	1581.044	1519.617
566.700	18.728	1579.790	1516.239
567.715	18.575	1577.694	1512.695
568.729	18.446	1575.896	1509.643
569.744	18.417	1574.443	1507.815
570.759	18.367	1573.397	1506.195
571.773	18.488	1573.258	1506.947
572.788	18.670	1572.007	1507.177
573.802	18.657	1570.404	1505.348
574.817	18.768	1569.113	1504.905
575.832	19.005	1568.552	1506.276
576.846	18.949	1567.078	1504.183
577.861	18.803	1565.454	1501.166
578.875	18.890	1565.067	1501.374
579.890	19.021	1563.693	1501.025
580.905	18.902	1563.504	1499.623
581.919	18.989	1563.153	1499.872
582.934	19.152	1562.034	1500.046
583.948	19.169	1560.280	1498.326
584.963	18.949	1559.082	1495.078
585.978	18.871	1557.792	1492.984
586.992	18.849	1557.190	1492.037
588.007	19.030	1556.437	1492.714
589.021	18.938	1553.754	1489.159
590.036	18.477	1552.502	1483.768
591.051	18.579	1551.804	1483.815
592.065	18.986	1549.768	1485.222
593.080	19.031	1549.018	1484.717
594.094	18.818	1548.469	1482.165
595.109	18.802	1545.494	1479.005
596.123	18.760	1543.453	1476.506
597.138	18.714	1543.323	1475.808
598.153	18.920	1541.919	1476.064
599.167	18.985	1540.721	1475.307
600.182	18.996	1540.099	1474.626
601.196	19.022	1539.748	1474.342
602.211	18.973	1538.301	1472.356
603.226	19.207	1536.626	1472.587
604.240	19.126	1535.570	1470.704
605.255	19.345	1534.517	1471.394
606.269	19.205	1534.124	1469.642
607.284	19.084	1533.011	1467.362
608.299	19.165	1531.410	1466.351
609.313	19.115	1529.980	1464.378
610.328	19.053	1528.962	1462.698
611.342	19.157	1527.471	1461.986
612.357	19.216	1526.644	1461.520
613.372	19.242	1526.016	1460.963
614.386	19.128	1524.549	1458.413
615.401	19.200	1524.613	1458.917
616.415	19.356	1522.850	1458.382
617.430	19.304	1521.944	1456.900
618.445	19.210	1521.058	1455.072
619.459	19.084	1519.781	1452.613
620.474	18.895	1518.332	1449.447
621.488	18.784	1515.823	1445.942
622.503	18.576	1514.565	1442.816
623.518	18.851	1514.613	1445.005
624.532	19.165	1514.131	1447.025
625.547	19.157	1512.840	1445.556
626.561	19.479	1511.934	1447.233
627.576	19.454	1511.453	1446.382
628.591	19.108	1509.330	1441.270
629.605	18.857	1507.749	1437.475
630.620	18.813	1506.189	1435.445
631.634	18.625	1505.276	1432.827
632.649	18.762	1504.091	1432.674
633.663	18.887	1503.437	1432.931
634.678	19.151	1503.101	1434.653
635.693	19.336	1501.527	1434.522
636.707	19.414	1499.972	1433.518
637.722	19.650	1499.532	1434.896
638.736	19.471	1499.058	1432.776
639.751	19.298	1497.446	1429.626
640.766	19.492	1495.491	1429.200
641.780	19.474	1494.275	1427.718
642.795	19.428	1493.616	1426.532
643.809	19.468	1492.750	1425.867
644.824	19.496	1491.687	1424.911
645.839	19.394	1490.837	1423.085
646.853	19.498	1489.850	1422.839
647.868	19.390	1488.367	1420.355
648.882	19.336	1486.941	1418.375
649.897	19.350	1486.052	1417.476
650.912	19.440	1484.070	1416.159
651.926	19.297	1482.918	1413.708
652.941	19.004	1481.473	1409.751
653.955	19.045	1479.567	1408.106
654.970	18.830	1477.670	1404.367
655.985	18.800	1476.593	1402.924
656.999	18.861	1476.279	1402.961
658.014	18.886	1475.337	1402.103
659.028	19.059	1474.378	1402.438
660.043	19.372	1472.545	1403.094
661.058	19.400	1471.445	1402.102
662.072	19.365	1471.682	1401.877
663.087	19.459	1469.868	1400.749
664.101	19.378	1469.053	1399.140
665.116	19.451	1468.281	1398.837
666.131	19.487	1466.885	1397.633
667.145	19.592	1465.643	1397.130
668.160	19.628	1464.816	1396.467
669.174	19.779	1463.253	1396.037
670.189	19.750	1462.367	1394.794
671.204	19.474	1461.909	1391.950
672.218	19.441	1461.068	1390.716
673.233	19.615	1459.706	1390.660
674.247	19.758	1458.994	1390.971
675.262	19.946	1457.926	1391.303
676.276	19.628	1457.058	1387.739
677.291	19.620	1455.423	1385.954
678.306	19.458	1453.857	1382.991
679.320	19.331	1453.139	1381.124
680.335	19.499	1452.841	1382.024
681.349	19.673	1452.218	1382.668
682.364	19.761	1450.682	1381.746
683.379	19.644	1449.237	1379.262
684.393	19.437	1448.631	1376.861
685.408	19.695	1447.281	1377.483
686.422	19.560	1445.895	1374.915
687.437	19.489	1445.997	1374.283
688.452	19.733	1444.853	1374.981
689.466	19.764	1442.766	1373.081
690.481	19.472	1441.741	1369.607
691.495	19.232	1441.023	1366.847
692.510	19.032	1438.872	1363.053
693.525	18.727	1437.383	1359.054
694.539	19.041	1436.750	1360.792
695.554	19.469	1436.146	1363.456
696.568	19.822	1435.687	1365.658
697.583	19.794	1435.154	1364.766
698.598	19.685	1434.600	1363.210
699.612	19.678	1433.479	1361.927
700.627	19.736	1432.106	1360.915
701.641	19.805	1430.598	1359.864
702.656	19.745	1429.504	1358.191
703.671	19.871	1429.047	1358.589
704.685	19.816	1428.646	1357.613
705.700	19.778	1427.406	1355.972
706.714	19.686	1425.807	1353.563
707.729	19.679	1423.658	1351.307
708.744	19.690	1422.147	1349.797
709.758	19.405	1421.773	1347.048
710.773	19.378	1419.774	1344.774
711.787	19.419	1418.113	1343.366
712.802	19.425	1416.815	1342.020
713.816	19.373	1416.827	1341.461
714.831	19.709	1415.876	1343.026
715.846	19.832	1414.971	1342.972
716.860	19.716	1414.141	1341.119
717.875	19.817	1412.327	1340.018
718.889	19.675	1411.658	1338.121
719.904	19.716	1410.938	1337.593
720.919	19.758	1409.975	1336.852
721.933	19.795	1409.395	1336.426
722.948	19.980	1407.877	1336.267
723.962	19.918	1407.073	1334.863
724.977	20.009	1405.943	1334.337
725.992	19.931	1405.032	1332.703
727.006	19.847	1403.238	1330.198
728.021	20.026	1402.097	1330.334
729.035	20.158	1400.704	1329.876
730.050	19.952	1400.420	1327.854
731.065	19.983	1399.079	1326.665
732.079	19.917	1398.269	1325.229
733.094	19.931	1397.077	1324.047
734.108	19.885	1395.015	1321.581
735.123	20.135	1392.875	1321.310
736.138	20.004	1392.623	1319.913
737.152	19.905	1392.475	1318.854
738.167	19.987	1391.605	1318.504
739.181	19.989	1390.711	1317.512
740.196	20.061	1389.659	1316.912
741.211	19.912	1389.094	1315.077
742.225	19.796	1388.100	1313.094
743.240	19.977	1386.422	1312.732
744.254	20.005	1384.782	1311.234
745.269	19.991	1383.890	1310.121
746.284	19.921	1383.018	1308.609
747.298	19.679	1382.198	1305.839
748.313	19.582	1380.605	1303.443
749.327	19.285	1378.918	1299.442
750.342	19.095	1378.224	1297.195
751.356	19.023	1376.539	1294.907
752.371	19.072	1376.051	1294.661
753.386	19.540	1375.938	1297.940
754.400	19.928	1375.180	1300.001
755.415	20.120	1374.096	1300.269
756.429	20.148	1372.325	1298.647
757.444	19.942	1371.660	1296.315
758.459	20.020	1371.673	1296.757
759.473	20.107	1370.590	1296.228
760.488	20.269	1368.330	1295.150
761.502	20.226	1367.327	1293.726
762.517	20.107	1366.397	1291.800
763.532	20.009	1364.544	1289.160
764.546	19.895	1363.738	1287.397
765.561	19.576	1362.529	1283.716
766.575	19.386	1361.070	1280.768
767.590	19.219	1360.509	1278.842
768.605	19.584	1359.509	1280.471
769.619	19.567	1358.838	1279.556
770.634	19.928	1357.063	1280.416
771.648	20.123	1356.976	1281.632
772.663	20.306	1356.588	1282.473
773.678	20.205	1355.526	1280.563
774.692	20.126	1354.640	1278.989
775.707	20.240	1354.467	1279.516
776.721	20.121	1353.935	1277.980
777.736	20.132	1352.116	1276.193
778.751	20.273	1350.997	1276.026
779.765	20.094	1350.522	1274.097
780.780	20.079	1349.446	1272.823
781.794	20.054	1348.482	1271.574
782.809	20.022	1346.947	1269.739
783.824	20.048	1345.791	1268.689
784.838	19.717	1343.770	1264.195
785.853	19.335	1342.356	1259.913
786.867	19.420	1342.043	1260.094
787.882	19.650	1342.240	1261.812
788.897	19.886	1341.487	1262.686
789.911	19.903	1340.867	1262.076
790.926	19.959	1339.198	1260.764
791.940	20.059	1337.718	1259.947
792.955	20.204	1336.608	1259.811
793.969	20.175	1335.591	1258.494
794.984	20.107	1335.355	1257.621
795.999	20.231	1334.163	1257.256
797.013	20.306	1332.032	1255.640
798.028	20.289	1330.905	1254.301
799.042	20.108	1330.622	1252.573
800.057	20.337	1330.041	1253.538
801.072	20.225	1328.764	1251.370
802.086	20.298	1326.892	1249.991
803.101	20.286	1325.942	1248.860
804.115	20.281	1325.562	1248.312
805.130	20.296	1324.252	1247.040
806.145	20.330	1323.212	1246.154
807.159	20.284	1321.764	1244.312
808.174	20.252	1320.230	1242.490
809.188	20.068	1318.984	1239.842
810.203	20.049	1317.418	1238.089
811.218	19.821	1315.657	1234.646
812.232	19.593	1314.297	1231.591
813.247	19.569	1312.937	1229.994
814.261	19.866	1312.831	1231.874
815.276	20.038	1312.610	1232.747
816.291	20.091	1312.178	1232.573
817.305	20.229	1311.092	1232.391
818.320	20.331	1309.421	1231.405
819.334	20.336	1308.140	1230.090
820.349	20.360	1306.944	1228.987
821.364	20.401	1305.492	1227.763
822.378	20.562	1304.183	1227.531
823.393	20.495	1302.511	1225.337
824.407	20.379	1301.714	1223.615
825.422	20.359	1301.680	1223.292
826.437	20.320	1300.324	1221.603
827.451	20.014	1298.230	1217.324
828.466	19.648	1295.951	1212.458
829.480	19.546	1294.172	1209.934
830.495	19.614	1293.164	1209.326
831.509	19.692	1293.519	1210.062
832.524	20.036	1292.584	1211.458
833.539	20.179	1291.397	1211.203
834.553	20.288	1290.295	1210.792
835.568	20.325	1288.703	1209.413
836.582	20.352	1288.020	1208.816
837.597	20.650	1286.735	1209.549
838.612	20.549	1285.017	1207.081
839.626	20.469	1284.164	1205.579
840.641	20.212	1283.054	1202.604
841.655	19.778	1282.488	1198.905
842.670	19.624	1280.824	1196.130
843.685	19.481	1279.582	1193.836
844.699	19.765	1279.116	1195.229
845.714	20.058	1277.917	1196.000
846.728	20.273	1277.072	1196.557
847.743	20.162	1276.638	1195.242
848.758	20.335	1275.036	1194.792
849.772	20.434	1273.699	1194.082
850.787	20.445	1273.025	1193.381
851.801	20.331	1271.970	1191.463
852.816	20.248	1270.354	1189.236
853.831	20.360	1268.329	1187.965
854.845	20.159	1266.880	1185.089
855.860	20.190	1265.125	1183.516
856.874	19.955	1264.343	1181.032
857.889	19.882	1263.066	1179.199
858.904	19.718	1260.779	1175.800
859.918	19.421	1259.239	1172.198
860.933	19.313	1258.471	1170.604
861.947	19.680	1257.996	1172.525
862.962	19.911	1256.753	1172.799
863.977	19.902	1255.738	1171.653
864.991	19.984	1255.925	1172.242
866.006	20.080	1255.415	1172.282
867.020	20.239	1253.715	1171.633
868.035	20.292	1253.031	1171.210
869.049	20.419	1251.875	1170.851
870.064	20.548	1250.902	1170.675
871.079	20.423	1249.897	1168.748
872.093	20.308	1249.820	1167.758
873.108	20.360	1248.634	1166.861
874.122	20.334	1246.907	1164.932
875.137	19.773	1246.812	1160.919
876.152	19.858	1245.078	1159.741
877.166	20.093	1243.611	1159.818
878.181	20.222	1242.146	1159.180
879.195	20.478	1242.217	1160.827
880.210	20.440	1241.651	1159.900
881.225	20.467	1240.707	1159.061
882.239	20.511	1239.371	1157.971
883.254	20.524	1238.585	1157.185
884.268	20.500	1237.794	1156.146
885.283	20.564	1235.644	1154.429
886.298	20.587	1234.381	1153.258
887.312	20.607	1233.647	1152.574
888.327	20.570	1232.360	1150.985
889.341	20.589	1231.240	1149.927
890.356	20.366	1231.158	1148.232
891.371	20.353	1230.926	1147.792
892.385	20.262	1229.916	1146.105
893.400	20.172	1228.917	1144.438
894.414	20.069	1227.311	1142.128
895.429	20.014	1224.604	1139.106
896.444	19.486	1222.486	1133.516
897.458	19.216	1221.556	1130.734
898.473	19.541	1221.756	1132.934
899.487	19.926	1221.143	1134.765
900.502	20.236	1220.536	1136.103
901.517	20.431	1219.476	1136.265
902.531	20.522	1218.257	1135.591
903.546	20.371	1218.296	1134.500
904.560	20.538	1217.704	1134.905
905.575	20.616	1216.171	1133.852
906.589	20.559	1215.342	1132.571
907.604	20.534	1214.421	1131.415
