DTS Sentinel unit serial number:	SN409020Multiplexer serial number:	ORYXHardware model number:	OX4-SRSoftware version number:	ORYX F/W v3.00 Oryx Data Collector v3.7.2.0data status	okinstallation	HaddamTimeLapsedifferential loss correction	single-endedforward channel	channel 3reverse channel	N/Adate	2011/06/22time	00:41:16forward acquisition time	30.00reverse acquisition time	0.00gamma	498.7831k internal	0.1752k external	0.1752temperature offset calibration	1.0074default loss term (dB/km)	0.3790temperature slope calibration	1.3530multiplexer offset coefficient	1.0000multiplexer slope coefficient	1.0000fibre end	0.00T internal ref (°C)	22.56T ext. ref 1 (°C)	18.00T ext. ref 2 (°C)	0.06length (m)	temperature (°C)	Stokes	anti-Stokes-747.200	-24.999	-0.052	0.041
-746.185	53.477	0.158	0.201
-745.171	-15.451	-0.240	0.203
-744.156	32.682	-0.330	0.380
-743.142	7.153	0.134	0.133
-742.127	-41.379	0.553	0.377
-741.112	461.585	-0.067	-0.199
-740.098	-88.847	-0.335	0.131
-739.083	800.000	-0.197	0.817
-738.069	-192.543	0.084	0.001
-737.054	-110.616	0.199	0.054
-736.039	-86.019	-0.416	-0.170
-735.025	-200.000	0.024	-0.289
-734.010	153.831	0.207	-0.377
-732.996	167.838	0.076	-0.144
-731.981	800.000	0.069	0.402
-730.966	-200.000	0.029	-0.251
-729.952	-43.125	0.279	0.187
-728.937	-172.628	0.326	0.013
-727.923	-121.007	-0.026	-0.006
-726.908	80.523	-0.330	-0.472
-725.894	800.000	0.017	-0.068
-724.879	-135.234	-0.360	0.057
-723.864	-93.876	0.173	-0.063
-722.850	800.000	-0.032	0.152
-721.835	5.467	-0.635	-0.621
-720.821	-122.018	0.224	-0.048
-719.806	-200.000	0.021	-0.495
-718.791	-42.549	0.363	-0.244
-717.777	-156.336	-0.203	0.017
-716.762	-156.560	-0.567	-0.046
-715.748	58.999	0.408	0.533
-714.733	-26.465	0.235	-0.182
-713.718	3.002	-0.376	0.362
-712.704	-112.536	-0.273	-0.072
-711.689	-119.539	-0.198	0.045
-710.675	-69.638	-0.225	0.114
-709.660	146.829	-0.067	-0.120
-708.645	-44.451	0.100	0.066
-707.631	-122.799	-0.294	-0.062
-706.616	-43.849	0.143	0.095
-705.602	-155.607	-0.084	0.007
-704.587	-116.718	-0.282	-0.068
-703.572	77.638	0.154	-0.217
-702.558	45.912	-0.401	0.492
-701.543	-112.603	-0.094	0.025
-700.529	-200.000	-0.003	0.388
-699.514	-62.742	-0.384	0.210
-698.499	-29.627	0.388	-0.293
-697.485	326.596	-0.124	0.317
-696.470	221.176	-0.137	0.292
-695.456	-68.673	0.306	-0.156
-694.441	53.201	0.153	-0.194
-693.426	-82.351	0.229	0.098
-692.412	64.358	0.057	0.076
-691.397	-64.669	0.338	0.181
-690.383	-200.000	-0.041	0.304
-689.368	-200.000	0.096	-0.567
-688.354	143.463	-0.104	0.183
-687.339	48.515	-0.311	0.386
-686.324	-200.000	0.015	0.114
-685.310	-200.000	-0.043	0.301
-684.295	342.660	-0.091	0.238
-683.281	-51.812	0.220	-0.135
-682.266	-200.000	0.028	-0.464
-681.251	-19.398	0.200	-0.164
-680.237	106.608	0.344	-0.541
-679.222	-50.866	0.361	-0.224
-678.208	20.390	-0.415	-0.445
-677.193	277.891	0.032	-0.075
-676.178	-96.626	-0.023	0.008
-675.164	35.636	-0.341	-0.397
-674.149	-200.000	-0.040	-0.311
-673.135	-60.177	0.208	-0.117
-672.120	358.349	0.100	-0.266
-671.105	-87.211	0.270	-0.108
-670.091	-98.654	0.460	-0.154
-669.076	-200.000	-0.003	0.072
-668.062	211.847	-0.116	-0.244
-667.047	479.786	-0.245	-0.738
-666.032	-62.852	0.362	0.198
-665.018	28.723	0.208	0.233
-664.003	-35.842	0.269	-0.192
-662.989	15.609	0.201	-0.209
-661.974	-89.800	0.087	-0.034
-660.959	110.518	-0.056	0.089
-659.945	-33.740	0.335	0.244
-658.930	326.750	0.130	0.331
-657.916	51.497	-0.437	-0.549
-656.901	266.080	-0.219	-0.507
-655.886	34.493	0.410	-0.474
-654.872	73.975	0.198	-0.275
-653.857	473.712	-0.100	-0.299
-652.843	-200.000	-0.035	0.278
-651.828	79.202	0.107	0.152
-650.814	-180.727	-0.567	0.015
-649.799	-156.295	-0.452	-0.037
-648.784	421.498	0.053	0.151
-647.770	800.000	-0.030	-0.131
-646.755	-22.869	-0.441	0.351
-645.741	457.234	-0.050	0.149
-644.726	188.449	-0.099	-0.197
-643.711	-63.091	-0.204	-0.111
-642.697	7.038	-0.109	0.108
-641.682	-67.624	0.336	0.174
-640.668	-6.468	0.219	-0.197
-639.653	-121.072	0.291	0.064
-638.638	111.867	-0.115	0.185
-637.624	-200.000	-0.062	0.715
-636.609	-200.000	-0.008	-0.083
-635.595	111.018	-0.034	0.054
-634.580	-99.436	0.285	-0.094
-633.565	800.000	-0.028	-0.160
-632.551	-158.748	-0.208	0.016
-631.536	-89.395	0.095	0.037
-630.522	-139.344	0.203	-0.028
-629.507	148.782	0.209	0.374
-628.492	-109.296	-0.387	0.108
-627.478	-133.129	0.280	-0.046
-626.463	70.510	0.004	-0.005
-625.449	-158.872	-0.379	0.028
-624.434	-85.585	0.344	-0.141
-623.419	-200.000	0.029	-0.349
-622.405	-103.072	0.117	-0.037
-621.390	-20.956	0.299	0.241
-620.376	255.336	-0.220	0.499
-619.361	164.739	-0.016	0.030
-618.346	-156.523	-0.222	0.018
-617.332	-51.992	0.102	-0.062
-616.317	55.214	0.262	-0.335
-615.303	54.003	0.040	-0.051
-614.288	-105.414	0.360	0.108
-613.273	-184.457	-0.275	0.006
-612.259	800.000	0.093	-0.428
-611.244	-65.360	0.220	-0.116
-610.230	296.744	-0.047	-0.113
-609.215	-106.590	0.226	-0.066
-608.201	-24.849	0.321	0.251
-607.186	-57.010	-0.238	-0.138
-606.171	-126.605	0.117	-0.023
-605.157	169.391	0.086	0.163
-604.142	-145.034	-0.129	-0.015
-603.128	-200.000	-0.020	0.229
-602.113	377.547	0.174	-0.472
-601.098	-121.796	-0.141	-0.030
-600.084	-21.323	0.249	-0.200
-599.069	-182.714	0.317	0.007
-598.055	185.881	0.255	-0.502
-597.040	41.933	0.242	0.290
-596.025	79.290	0.053	-0.075
-595.011	-66.478	-0.633	-0.330
-593.996	-43.645	0.221	-0.147
-592.982	-34.500	-0.377	-0.272
-591.967	361.004	-0.185	0.492
-590.952	-141.133	0.750	0.100
-589.938	-46.049	0.175	0.114
-588.923	361.503	-0.040	-0.106
-587.909	-200.000	-0.006	0.086
-586.894	31.961	-0.181	0.206
-585.879	-200.000	0.176	-0.001
-584.865	63.610	-0.037	-0.049
-583.850	9.468	0.260	-0.260
-582.836	-146.038	-0.499	-0.057
-581.821	58.831	-0.120	-0.156
-580.806	800.000	-0.086	-0.359
-579.792	800.000	0.174	-0.713
-578.777	-118.728	-0.141	0.032
-577.763	388.828	-0.056	-0.154
-576.748	-200.000	-0.005	-0.087
-575.733	172.455	0.076	0.144
-574.719	-1.834	-0.100	-0.093
-573.704	-50.117	0.362	-0.226
-572.690	-17.627	0.277	-0.229
-571.675	-50.727	-0.077	0.048
-570.661	-200.000	-0.009	-0.298
-569.646	133.603	0.136	-0.232
-568.631	217.739	0.072	0.151
-567.617	214.490	-0.111	0.234
-566.602	39.854	0.245	-0.290
-565.588	9.665	-0.462	-0.462
-564.573	-54.728	0.159	-0.095
-563.558	-58.139	0.120	-0.069
-562.544	-117.161	-0.420	-0.100
-561.529	75.734	0.049	-0.069
-560.515	758.138	0.071	-0.255
-559.500	-108.846	0.459	-0.128
-558.485	215.717	0.080	0.169
-557.471	318.283	0.041	-0.102
-556.456	104.373	0.241	-0.375
-555.442	117.179	0.218	0.354
-554.427	261.327	-0.048	0.111
-553.412	-158.214	-0.250	0.019
-552.398	-41.666	-0.101	0.068
-551.383	-119.965	0.666	0.149
-550.369	-22.857	-0.241	0.191
-549.354	-200.000	0.020	0.218
-548.339	800.000	0.038	-0.184
-547.325	-200.000	0.008	0.201
-546.310	56.942	0.098	-0.126
-545.296	106.146	0.090	0.141
-544.281	-146.695	0.138	0.016
-543.266	-75.910	0.551	-0.256
-542.252	-134.532	-0.710	0.113
-541.237	-200.000	0.030	-0.309
-540.223	96.693	-0.139	-0.210
-539.208	-104.122	-0.183	0.056
-538.193	-107.804	0.150	0.043
-537.179	-6.021	0.107	-0.097
-536.164	6.503	-0.151	-0.147
-535.150	11.400	-0.258	0.260
-534.135	717.394	0.204	0.718
-533.121	2.069	-0.214	0.203
-532.106	102.033	-0.238	0.366
-531.091	-51.911	0.549	-0.335
-530.077	-128.379	0.511	0.095
-529.062	800.000	-0.017	0.065
-528.048	191.945	-0.196	0.390
-527.033	151.996	-0.280	-0.504
-526.018	162.501	0.072	-0.133
-525.004	23.100	0.321	-0.346
-523.989	-148.459	-0.190	-0.020
-522.975	-67.009	-0.482	0.249
-521.960	55.976	-0.130	-0.166
-520.945	633.703	0.173	0.581
-519.931	-14.471	0.245	-0.207
-518.916	-200.000	0.081	0.595
-517.902	152.066	-0.154	-0.277
-516.887	-200.000	-0.018	0.142
-515.872	-87.156	-0.200	-0.080
-514.858	552.831	0.093	-0.294
-513.843	154.072	-0.267	-0.483
-512.829	-200.000	-0.018	-0.113
-511.814	-200.000	-0.069	0.472
-510.799	37.610	-0.131	-0.153
-509.785	-69.153	0.240	-0.121
-508.770	-21.432	-0.322	0.258
-507.756	-68.909	-0.300	-0.152
-506.741	47.750	-0.029	0.036
-505.726	299.350	-0.083	0.202
-504.712	143.301	-0.045	0.078
-503.697	32.663	-0.113	-0.129
-502.683	176.244	0.113	-0.217
-501.668	77.824	-0.234	0.328
-500.653	-108.970	-0.253	-0.070
-499.639	79.546	0.133	-0.187
-498.624	-200.000	0.009	0.397
-497.610	-1.393	-0.258	-0.240
-496.595	-136.384	0.214	-0.032
-495.581	96.746	-0.127	0.191
-494.566	-72.192	0.291	-0.141
-493.551	-75.938	0.296	0.137
-492.537	312.777	-0.162	0.403
-491.522	230.206	0.154	0.332
-490.508	-128.585	0.184	-0.034
-489.493	800.000	0.066	0.310
-488.478	-77.083	-0.087	-0.040
-487.464	-39.153	0.204	-0.140
-486.449	-200.000	-0.083	0.690
-485.435	-113.314	-0.477	0.122
-484.420	-36.734	-0.231	-0.163
-483.405	-47.784	-0.344	-0.219
-482.391	171.598	0.074	0.140
-481.376	-189.164	-0.310	-0.005
-480.362	48.346	0.165	0.203
-479.347	-63.832	0.486	0.260
-478.332	-200.000	-0.124	0.770
-477.318	-136.211	0.193	-0.029
-476.303	60.698	-0.047	0.061
-475.289	28.474	0.205	-0.228
-474.274	186.521	0.071	0.140
-473.259	-3.060	-0.046	0.043
-472.245	-64.856	-0.381	-0.202
-471.230	-200.000	-0.027	-0.308
-470.216	52.709	0.046	0.058
-469.201	-85.367	0.429	-0.175
-468.186	136.038	-0.281	-0.482
-467.172	17.559	0.251	0.262
-466.157	666.661	0.055	0.186
-465.143	-200.000	-0.017	-0.230
-464.128	-20.447	0.203	0.163
-463.113	40.722	0.306	0.362
-462.099	-93.087	-0.553	0.201
-461.084	90.482	0.050	-0.074
-460.070	800.000	0.097	0.406
-459.055	800.000	-0.111	0.410
-458.040	42.703	0.063	0.075
-457.026	-34.806	0.353	-0.253
-456.011	86.574	0.102	0.148
-454.997	74.429	-0.208	0.288
-453.982	283.419	-0.114	0.271
-452.968	43.804	0.349	-0.420
-451.953	-126.275	0.495	-0.096
-450.938	-200.000	-0.033	-0.207
-449.924	800.000	-0.096	0.435
-448.909	72.309	0.410	0.561
-447.895	-155.772	-0.155	0.013
-446.880	-23.663	0.369	0.290
-445.865	-59.544	0.522	0.293
-444.851	-200.000	-0.009	-0.070
-443.836	162.150	0.240	0.443
-442.822	75.166	-0.091	0.126
-441.807	-26.350	-0.274	0.210
-440.792	97.240	-0.212	0.320
-439.778	-93.664	0.273	-0.098
-438.763	-200.000	0.011	0.508
-437.749	-89.468	-0.236	0.091
-436.734	-26.768	-0.200	-0.153
-435.719	-59.077	-0.307	-0.173
-434.705	-200.000	-0.015	-0.512
-433.690	-143.354	0.706	-0.088
-432.676	800.000	0.109	0.437
-431.661	39.524	-0.506	0.595
-430.646	-200.000	0.011	0.653
-429.632	120.184	-0.169	-0.276
-428.617	-4.557	0.120	-0.109
-427.603	-146.262	-0.411	0.047
-426.588	66.357	0.328	0.438
-425.573	-200.000	-0.589	0.001
-424.559	-52.516	-0.048	0.029
-423.544	-200.000	-0.006	0.184
-422.530	73.872	-0.266	0.366
-421.515	-95.435	-0.272	0.095
-420.500	-76.496	-0.116	-0.053
-419.486	-109.867	-0.575	-0.157
-418.471	-127.561	-0.144	-0.027
-417.457	-200.000	-0.000	-0.023
-416.442	800.000	0.054	0.210
-415.428	-148.996	0.131	0.014
-414.413	-64.514	0.801	-0.425
-413.398	-110.779	-0.478	0.128
-412.384	-76.086	0.309	-0.142
-411.369	-121.531	0.576	0.124
-410.355	130.006	-0.090	-0.151
-409.340	-74.733	-0.228	-0.107
-408.325	-138.946	-0.264	0.037
-407.311	432.419	-0.137	0.393
-406.296	320.052	0.141	-0.351
-405.282	-20.108	-0.125	-0.101
-404.267	116.363	-0.115	-0.186
-403.252	-98.071	-0.321	0.108
-402.238	-109.208	0.287	-0.079
-401.223	23.111	-0.123	-0.132
-400.209	280.533	-0.139	-0.328
-399.194	-200.000	-0.083	-0.564
-398.179	-200.000	-0.012	-0.173
-397.165	800.000	-0.066	-0.294
-396.150	104.876	0.232	-0.358
-395.136	800.000	0.058	0.286
-394.121	624.712	-0.110	-0.365
-393.106	187.235	-0.151	-0.296
-392.092	-160.914	0.266	-0.018
-391.077	-100.324	0.099	-0.032
-390.063	181.986	0.139	0.268
-389.048	-200.000	0.004	-0.063
-388.033	-45.708	-0.455	0.294
-387.019	-200.000	0.065	0.583
-386.004	-118.684	-0.018	0.004
-384.990	-69.824	-0.522	-0.260
-383.975	473.456	-0.142	-0.421
-382.960	-179.206	0.294	0.008
-381.946	-125.067	0.387	-0.077
-380.931	258.330	0.085	0.193
-379.917	50.124	-0.080	-0.099
-378.902	-200.000	-0.004	0.049
-377.888	800.000	-0.093	-0.430
-376.873	-86.200	-0.418	-0.168
-375.858	-0.651	0.305	-0.283
-374.844	25.473	0.276	-0.301
-373.829	-80.571	0.178	-0.077
-372.815	-19.976	-0.040	0.032
-371.800	-19.370	-0.044	-0.036
-370.785	86.844	-0.458	0.662
-369.771	51.484	-0.056	-0.070
-368.756	55.644	-0.100	0.126
-367.742	-200.000	-0.030	0.264
-366.727	-8.177	0.035	-0.031
-365.712	-8.453	0.119	0.105
-364.698	-200.000	0.010	-0.110
-363.683	-21.233	-0.240	-0.192
-362.669	-91.034	-0.516	0.193
-361.654	544.941	0.178	0.559
-360.639	247.009	0.244	0.542
-359.625	-111.201	-0.195	-0.052
-358.610	718.663	0.035	0.123
-357.596	-38.672	0.278	-0.191
-356.581	338.423	-0.136	-0.347
-355.566	161.351	0.151	0.277
-354.552	-168.050	-0.499	0.025
-353.537	-200.000	0.057	0.356
-352.523	78.109	0.155	0.216
-351.508	-126.290	0.217	0.042
-350.493	-155.697	-0.314	-0.026
-349.479	42.900	-0.152	-0.181
-348.464	-64.613	-0.393	-0.208
-347.450	399.625	0.026	0.070
-346.435	24.633	0.218	0.236
-345.420	-170.595	-0.746	0.033
-344.406	-113.285	-0.352	-0.090
-343.391	-200.000	-0.010	-0.379
-342.377	32.763	-0.112	-0.126
-341.362	-61.349	0.454	-0.249
-340.348	800.000	-0.154	-0.574
-339.333	-140.937	0.420	-0.056
-338.318	677.123	-0.115	-0.392
-337.304	128.472	-0.187	-0.311
-336.289	-118.815	-0.494	-0.113
-335.275	-200.000	0.049	-0.286
-334.260	-137.500	0.317	-0.046
-333.245	395.578	0.244	0.668
-332.231	-142.282	-0.424	-0.054
-331.216	-46.935	0.212	0.135
-330.202	-129.951	0.017	0.003
-329.187	-13.354	0.317	-0.268
-328.172	95.161	0.079	-0.117
-327.158	-117.822	-0.235	-0.055
-326.143	3.455	0.356	-0.339
-325.129	800.000	-0.180	-0.717
-324.114	223.708	0.143	-0.303
-323.099	-41.345	0.134	0.090
-322.085	-42.516	0.040	-0.026
-321.070	-33.528	-0.078	0.056
-320.056	173.730	0.132	-0.250
-319.041	-141.572	-0.081	-0.011
-318.026	-93.923	0.351	0.125
-317.012	51.526	-0.292	0.363
-315.997	800.000	0.097	0.388
-314.983	360.544	0.053	-0.140
-313.968	-131.563	0.559	0.095
-312.953	-4.463	0.236	0.213
-311.939	-21.909	0.179	-0.142
-310.924	195.631	0.168	0.335
-309.910	-160.953	0.245	-0.017
-308.895	97.932	-0.347	0.521
-307.880	-150.101	-0.094	-0.009
-306.866	-20.163	-0.241	-0.194
-305.851	145.356	-0.079	-0.139
-304.837	-27.695	0.203	-0.154
-303.822	800.000	-0.016	-0.083
-302.807	-33.376	-0.041	-0.029
-301.793	165.977	0.282	-0.522
-300.778	128.464	-0.235	-0.391
-299.764	108.450	0.259	-0.404
-298.749	-46.071	-0.184	0.118
-297.735	70.387	0.392	0.530
-296.720	-163.076	0.095	-0.006
-295.705	-167.475	0.715	0.037
-294.691	10.287	0.178	-0.176
-293.676	-31.057	-0.163	-0.120
-292.662	-129.770	-0.192	0.034
-291.647	-5.812	0.260	0.232
-290.632	292.656	-0.134	0.320
-289.618	-57.491	-0.202	-0.115
-288.603	800.000	-0.089	-0.367
-287.589	-117.467	0.036	-0.008
-286.574	-39.683	0.185	-0.126
-285.559	-200.000	-0.027	0.233
-284.545	-93.158	0.457	-0.165
-283.530	-140.152	-0.150	0.020
-282.516	-87.564	-0.263	-0.103
-281.501	388.751	0.123	-0.334
-280.486	27.436	0.075	0.082
-279.472	-64.269	0.203	0.108
-278.457	-149.420	-0.368	-0.038
-277.443	-15.347	0.474	0.394
-276.428	402.655	0.041	-0.114
-275.413	-200.000	-0.287	0.001
-274.399	167.477	0.046	-0.085
-273.384	-105.941	-0.527	0.154
-272.370	83.518	0.159	0.227
-271.355	-84.893	-0.074	0.030
-270.340	-200.000	-0.094	0.634
-269.326	40.507	-0.402	-0.473
-268.311	-32.508	-0.552	0.400
-267.297	-192.449	0.440	-0.005
-266.282	-142.749	-0.209	-0.026
-265.267	25.780	-0.108	0.118
-264.253	800.000	0.101	-0.479
-263.238	186.816	-0.320	-0.623
-262.224	295.874	0.130	0.311
-261.209	800.000	-0.021	0.112
-260.195	800.000	-0.143	0.675
-259.180	160.939	0.133	0.243
-258.165	-47.972	-0.155	0.098
-257.151	-28.115	-0.191	-0.144
-256.136	-118.360	-0.178	-0.041
-255.122	17.823	0.114	-0.118
-254.107	-177.897	0.440	-0.013
-253.092	217.492	-0.021	-0.043
-252.078	603.774	0.097	-0.315
-251.063	-95.527	-0.552	0.192
-250.049	800.000	-0.176	0.721
-249.034	-32.921	-0.196	0.142
-248.019	-31.488	-0.115	0.084
-247.005	-147.979	0.608	-0.065
-245.990	453.703	-0.138	-0.399
-244.976	-57.645	-0.308	-0.175
-243.961	54.586	0.063	-0.079
-242.946	-114.978	0.375	0.092
-241.932	-4.778	0.233	-0.209
-240.917	-63.357	-0.351	0.188
-239.903	10.993	-0.479	-0.476
-238.888	-90.529	-0.490	-0.184
-237.873	-125.149	-0.441	0.087
-236.859	9.411	-0.095	-0.094
-235.844	-124.041	0.174	-0.035
-234.830	127.053	-0.088	-0.146
-233.815	-33.838	0.621	0.445
-232.800	345.816	0.080	-0.205
-231.786	152.787	0.126	0.225
-230.771	-200.000	0.001	-0.355
-229.757	170.271	0.113	-0.210
-228.742	-27.113	-0.302	0.229
-227.727	-64.039	-0.231	-0.123
-226.713	-86.086	0.256	-0.102
-225.698	-1.226	-0.137	0.126
-224.684	-110.850	-0.527	-0.140
-223.669	-200.000	-0.004	-0.160
-222.655	11.173	0.167	0.166
-221.640	7.391	0.240	-0.233
-220.625	310.999	-0.213	-0.522
-219.611	-68.401	0.413	-0.208
-218.596	389.837	-0.180	0.487
-217.582	50.266	-0.321	0.395
-216.567	800.000	-0.106	-0.492
-215.552	531.180	0.121	0.375
-214.538	-148.542	-0.251	-0.026
-213.523	-130.226	-0.295	-0.052
-212.509	-103.346	0.449	-0.137
-211.494	-200.000	0.039	-0.370
-210.479	270.028	0.132	0.302
-209.465	-16.390	0.296	-0.244
-208.450	-165.047	-0.200	0.011
-207.436	-200.000	0.030	-0.222
-206.421	397.732	0.126	0.344
-205.406	46.890	-0.202	0.244
-204.392	-90.975	0.365	-0.136
-203.377	-112.972	0.393	-0.100
-202.363	173.910	0.293	-0.552
-201.348	-105.626	-0.046	0.014
-200.333	113.266	0.164	0.259
-199.319	-200.000	-0.002	-0.130
-198.304	-163.778	-0.131	-0.008
-197.290	-82.320	-0.505	0.212
-196.275	800.000	0.053	-0.300
-195.260	101.174	0.205	-0.311
-194.246	-83.007	-0.102	0.043
-193.231	311.337	0.078	0.190
-192.217	-121.073	0.533	-0.115
-191.202	-200.000	0.034	-0.464
-190.187	-153.175	0.383	0.034
-189.173	6.289	0.272	0.262
-188.158	-158.808	0.169	0.012
-187.144	214.186	0.166	0.343
-186.129	131.710	0.113	0.189
-185.114	-200.000	-0.015	0.128
-184.100	199.093	-0.028	-0.056
-183.085	-200.000	-0.020	-0.396
-182.071	-64.860	-0.276	-0.144
-181.056	-50.797	0.023	0.014
-180.042	18.249	0.233	-0.241
-179.027	194.043	0.145	0.285
-178.012	155.179	0.328	-0.588
-176.998	93.756	0.238	0.351
-175.983	55.529	-0.172	0.216
-174.969	-109.626	-0.219	-0.059
-173.954	103.563	-0.172	0.262
-172.939	-8.897	-0.307	0.267
-171.925	-15.996	0.112	-0.093
-170.910	-36.840	-0.325	-0.226
-169.896	-26.574	0.395	-0.300
-168.881	463.013	-0.096	0.281
-167.866	106.186	-0.116	0.179
-166.852	-55.250	-0.387	-0.225
-165.837	-78.464	-0.314	-0.139
-164.823	214.202	0.159	-0.328
-163.808	-40.061	-0.256	0.173
-162.793	-59.149	-0.172	0.096
-161.779	-53.543	0.240	0.142
-160.764	180.537	-0.195	-0.372
-159.750	23.409	-0.198	0.211
-158.735	-144.194	-0.385	0.046
-157.720	6.551	0.185	-0.179
-156.706	-72.930	-0.301	0.143
-155.691	491.621	0.126	0.377
-154.677	-149.474	0.208	0.021
-153.662	-200.000	-0.006	0.307
-152.647	-99.659	-0.142	0.046
-151.633	-82.886	-0.072	-0.030
-150.618	800.000	0.035	0.188
-149.604	-43.827	-0.405	-0.264
-148.589	55.841	0.209	0.263
-147.574	274.860	0.265	0.612
-146.560	-155.692	0.305	-0.025
-145.545	3.668	-0.093	0.088
-144.531	-156.246	0.232	0.019
-143.516	35.212	-0.303	0.345
-142.502	451.034	0.055	0.157
-141.487	-27.329	0.197	0.148
-140.472	800.000	0.106	-0.503
-139.458	-107.164	-0.349	0.099
-138.443	-59.041	0.205	0.114
-137.429	327.308	0.094	0.235
-136.414	21.820	0.250	-0.264
-135.399	-200.000	0.024	-0.568
-134.385	87.349	0.248	0.356
-133.370	-146.168	0.273	0.031
-132.356	-82.336	-0.265	0.111
-131.341	-146.954	-0.129	0.014
-130.326	44.606	0.261	0.311
-129.312	800.000	0.054	0.263
-128.297	-200.000	-0.310	0.001
-127.283	-200.000	0.031	0.214
-126.268	74.270	0.258	0.352
-125.253	2.673	-0.177	0.166
-124.239	69.177	0.187	-0.250
-123.224	-53.097	-0.178	-0.105
-122.210	77.317	0.107	-0.148
-121.195	-54.381	0.163	0.096
-120.180	-200.000	0.018	0.427
-119.166	-91.825	-0.361	0.132
-118.151	-200.000	0.001	-0.213
-117.137	54.573	-0.102	-0.128
-116.122	180.526	-0.159	0.303
-115.107	-129.895	-0.264	-0.046
-114.093	-111.094	0.250	-0.066
-113.078	800.000	0.093	-0.340
-112.064	683.246	-0.144	0.490
-111.049	-93.442	0.446	0.159
-110.034	-110.448	-0.186	-0.050
-109.020	-111.444	-0.203	-0.053
-108.005	90.442	0.162	-0.236
-106.991	24.517	0.229	-0.246
-105.976	-25.025	-0.557	-0.427
-104.962	17.839	-0.236	0.244
-103.947	35.396	-0.182	-0.207
-102.932	-53.689	0.428	-0.252
-101.918	197.432	0.149	-0.295
-100.903	-41.141	-0.244	-0.162
-99.889	-125.691	-0.674	-0.131
-98.874	800.000	-0.094	-0.432
-97.859	29.615	0.094	0.103
-96.845	-58.261	-0.243	-0.137
-95.830	-25.070	0.479	0.367
-94.816	-42.882	-0.469	-0.307
-93.801	-88.732	-0.325	0.125
-92.786	800.000	-0.070	0.260
-91.772	325.662	-0.214	-0.532
-90.757	-24.502	-0.199	-0.153
-89.743	-178.754	0.336	0.010
-88.728	-123.715	-0.429	0.087
-87.713	-119.045	0.448	-0.101
-86.699	47.659	-0.147	0.177
-85.684	-200.000	-0.012	0.088
-84.670	124.279	-0.038	0.062
-83.655	800.000	0.121	0.500
-82.640	376.760	0.008	-0.020
-81.626	-170.167	0.303	-0.014
-80.611	94.569	0.198	-0.291
-79.597	-60.375	0.213	-0.117
-78.582	-44.484	-0.184	0.119
-77.567	27.813	-0.231	0.252
-76.553	-46.274	0.324	0.206
-75.538	219.467	-0.099	0.207
-74.524	-120.239	-0.334	0.073
-73.509	-150.036	0.328	-0.033
-72.494	-59.372	-0.298	-0.165
-71.480	-70.731	-0.190	0.092
-70.465	-8.391	-0.218	0.189
-69.451	800.000	0.083	0.310
-68.436	-200.000	0.040	0.360
-67.422	800.000	-0.048	-0.234
-66.407	-133.959	0.216	-0.034
-65.392	-200.000	-0.005	-0.094
-64.378	-99.471	0.512	-0.166
-63.363	800.000	-0.049	-0.252
-62.349	-109.392	-0.358	-0.097
-61.334	19.367	-2.081	-2.161
-60.319	-32.026	1.909	1.378
-59.305	240.263	-3.438	-7.434
-58.290	96.645	3.533	5.239
-57.276	376.992	3.870	10.264
-56.261	-200.000	23.628	321.638
-55.246	352.504	1304.783	3358.392
-54.232	52.412	2847.331	3514.571
-53.217	50.940	2663.050	3264.185
-52.203	31.477	2392.228	2657.521
-51.188	27.770	2057.970	2240.454
-50.173	24.425	1944.541	2077.811
-49.159	23.501	1932.571	2054.184
-48.144	22.962	1928.451	2043.461
-47.130	22.907	1924.716	2038.784
-46.115	22.877	1924.053	2037.648
-45.100	22.797	1922.676	2035.178
-44.086	22.871	1920.855	2034.030
-43.071	22.795	1918.379	2030.449
-42.057	22.736	1917.418	2028.674
-41.042	22.909	1915.038	2028.069
-40.027	22.725	1915.349	2026.197
-39.013	22.828	1913.243	2025.068
-37.998	22.769	1911.607	2022.584
-36.984	22.796	1911.350	2022.536
-35.969	22.792	1910.075	2021.061
-34.954	22.736	1907.912	2018.052
-33.940	22.656	1907.032	2016.119
-32.925	22.610	1906.612	2015.066
-31.911	22.555	1905.716	2013.415
-30.896	22.594	1903.738	2011.690
-29.881	22.603	1902.685	2010.593
-28.867	22.839	1899.727	2010.089
-27.852	22.591	1899.190	2006.607
-26.838	22.519	1897.634	2004.064
-25.823	22.659	1896.499	2004.384
-24.809	22.616	1895.306	2002.554
-23.794	22.640	1893.723	2001.074
-22.779	22.621	1892.205	1999.173
-21.765	22.538	1891.280	1997.174
-20.750	22.519	1891.013	1996.590
-19.736	22.453	1888.670	1993.291
-18.721	22.510	1887.867	1993.011
-17.706	22.430	1887.254	1991.375
-16.692	22.387	1885.798	1989.272
-15.677	22.334	1884.494	1987.217
-14.663	22.422	1883.186	1986.758
-13.648	22.456	1882.158	1985.976
-12.633	22.545	1879.992	1984.625
-11.619	22.568	1878.663	1983.396
-10.604	22.542	1877.926	1982.243
-9.590	22.413	1877.344	1980.096
-8.575	22.414	1875.382	1977.957
-7.560	22.493	1873.960	1977.274
-6.546	22.436	1873.168	1975.713
-5.531	22.442	1872.603	1975.105
-4.517	22.376	1871.369	1972.989
-3.502	22.427	1870.047	1972.090
-2.487	22.484	1869.152	1971.708
-1.473	22.632	1864.797	1968.694
-0.458	22.260	1847.541	1946.259
0.556	19.015	1993.964	2049.431
1.571	17.702	2197.012	2240.525
2.586	18.433	2235.569	2289.395
3.600	18.399	2239.035	2292.216
4.615	18.435	2237.570	2290.919
5.629	18.289	2236.282	2287.368
6.644	18.325	2233.936	2285.174
7.659	18.273	2232.975	2283.223
8.673	18.377	2230.705	2282.023
9.688	18.091	2239.454	2286.854
10.702	17.280	2319.985	2357.505
11.717	15.578	2384.333	2398.198
12.731	7.227	2364.947	2259.136
13.746	1.090	2348.050	2155.190
14.761	0.187	2345.907	2140.072
15.775	0.091	2344.097	2136.792
16.790	0.123	2341.283	2134.429
17.804	0.019	2341.440	2132.833
18.819	0.074	2340.010	2132.059
19.834	0.059	2337.996	2129.761
20.848	0.054	2337.149	2128.660
21.863	0.196	2334.405	2127.926
22.877	0.052	2332.890	2124.244
23.892	0.051	2330.906	2122.172
24.907	0.063	2328.563	2119.946
25.921	0.081	2326.948	2118.476
26.936	0.003	2325.204	2115.531
27.950	0.023	2321.645	2112.336
28.965	0.097	2319.406	2111.083
29.980	0.070	2318.442	2109.572
30.994	0.229	2315.314	2108.713
32.009	3.711	2327.198	2168.477
33.023	12.736	2352.047	2319.605
34.038	16.385	2359.308	2378.216
35.053	16.466	2355.278	2375.006
36.067	16.375	2352.498	2370.631
37.082	16.413	2350.655	2369.033
38.096	16.496	2349.699	2368.951
39.111	16.826	2346.767	2370.350
40.126	16.916	2346.399	2370.957
41.140	17.091	2343.807	2370.520
42.155	17.088	2342.639	2369.014
43.169	16.971	2341.623	2366.059
44.184	16.797	2337.071	2358.740
45.199	16.796	2334.727	2356.077
46.213	16.836	2334.784	2356.417
47.228	16.928	2334.405	2357.028
48.242	17.049	2331.910	2355.927
49.257	17.202	2330.048	2355.888
50.271	17.215	2327.765	2353.476
51.286	16.871	2325.286	2345.915
52.301	16.657	2322.686	2340.032
53.315	17.541	2326.302	2355.688
54.330	20.376	2334.135	2402.835
55.344	22.078	2335.982	2428.123
56.359	22.411	2331.790	2428.088
57.374	22.594	2331.400	2429.924
58.388	22.571	2329.183	2427.008
59.403	22.385	2324.023	2418.764
60.417	21.980	2321.142	2409.893
61.432	22.198	2319.254	2410.655
62.447	22.350	2318.132	2411.290
63.461	22.526	2317.053	2412.301
64.476	22.630	2314.733	2411.027
65.490	22.353	2312.764	2404.885
66.505	21.341	2309.666	2387.481
67.520	19.308	2299.779	2349.153
68.534	17.325	2291.267	2313.097
69.549	16.739	2286.872	2300.384
70.563	16.637	2284.584	2296.418
71.578	16.585	2283.022	2293.860
72.593	16.684	2281.738	2293.651
73.607	16.733	2281.084	2293.375
74.622	16.847	2277.942	2291.492
75.636	16.694	2275.118	2286.306
76.651	16.623	2273.252	2283.198
77.666	16.534	2271.324	2279.773
78.680	16.473	2268.104	2275.441
79.695	16.341	2265.977	2271.256
80.709	16.270	2264.661	2268.709
81.724	16.253	2262.071	2265.608
82.739	16.237	2259.827	2262.880
83.753	16.286	2257.426	2260.859
84.768	16.251	2255.213	2257.905
85.782	16.050	2255.184	2254.901
86.797	16.013	2252.876	2251.823
87.812	16.077	2250.848	2250.395
88.826	16.405	2248.831	2252.495
89.841	16.495	2246.063	2250.655
90.855	16.535	2244.636	2249.500
91.870	16.545	2243.823	2248.547
92.884	16.549	2241.535	2246.032
93.899	16.707	2241.169	2247.512
94.914	17.365	2244.562	2259.437
95.928	19.818	2251.246	2298.695
96.943	20.582	2249.160	2306.478
97.957	18.075	2238.872	2262.340
98.972	16.546	2233.041	2235.878
99.987	16.389	2229.380	2229.864
101.001	16.310	2227.303	2226.476
102.016	16.492	2224.826	2226.141
103.030	16.372	2222.728	2222.184
104.045	16.410	2219.544	2219.237
105.060	16.344	2218.453	2217.006
106.074	16.162	2217.757	2213.647
107.089	16.183	2215.259	2211.163
108.103	16.216	2214.082	2210.162
109.118	16.366	2211.975	2209.769
110.133	16.408	2210.594	2208.679
111.147	16.223	2208.981	2204.373
112.162	16.276	2207.580	2203.406
113.176	16.426	2205.318	2202.844
114.191	16.589	2202.981	2202.380
115.206	16.629	2201.782	2201.439
116.220	16.452	2200.001	2197.084
117.235	16.422	2198.261	2194.690
118.249	16.588	2196.271	2194.609
119.264	16.515	2194.240	2191.362
120.279	16.485	2193.272	2189.753
121.293	16.499	2191.290	2187.693
122.308	16.512	2190.046	2186.350
123.322	16.397	2188.455	2183.011
124.337	16.875	2189.367	2189.863
125.352	19.688	2198.273	2235.136
126.366	20.410	2195.398	2241.316
127.381	17.738	2184.748	2195.633
128.395	16.656	2179.602	2176.220
129.410	16.524	2177.234	2171.900
130.424	16.398	2175.386	2168.169
131.439	16.440	2173.790	2166.860
132.454	16.479	2172.815	2166.126
133.468	16.715	2170.162	2166.258
134.483	16.912	2168.604	2166.975
135.497	16.737	2169.214	2165.077
136.512	16.674	2164.949	2159.756
137.527	16.617	2163.035	2156.854
138.541	16.365	2161.391	2151.738
139.556	16.316	2161.079	2150.538
140.570	16.210	2159.255	2147.107
141.585	16.336	2156.305	2145.532
142.600	16.152	2155.871	2142.496
143.614	16.198	2154.259	2141.214
144.629	16.348	2151.082	2139.713
145.643	16.251	2149.930	2137.073
146.658	16.262	2147.749	2134.795
147.673	16.120	2145.911	2130.909
148.687	16.285	2144.994	2131.834
149.702	16.445	2145.494	2134.108
150.716	16.502	2144.299	2133.389
151.731	16.622	2142.053	2132.414
152.746	16.752	2141.367	2133.128
153.760	17.415	2145.068	2144.962
154.775	19.924	2152.680	2184.184
155.789	20.895	2149.800	2193.291
156.804	18.299	2139.681	2149.974
157.819	16.574	2132.511	2120.791
158.833	16.482	2128.993	2115.879
159.848	16.484	2127.750	2114.413
160.862	16.525	2125.326	2112.275
161.877	16.644	2125.698	2113.876
162.892	16.681	2124.882	2113.280
163.906	16.625	2123.495	2110.946
164.921	16.660	2120.938	2108.589
165.935	16.666	2118.942	2106.424
166.950	16.748	2117.454	2105.715
167.964	16.714	2114.129	2101.742
168.979	16.414	2112.849	2096.474
169.994	16.334	2110.836	2093.228
171.008	16.291	2109.108	2090.736
172.023	16.167	2107.856	2087.699
173.037	16.298	2107.283	2088.512
174.052	16.516	2106.118	2089.816
175.067	16.453	2103.858	2086.539
176.081	16.347	2101.463	2082.593
177.096	16.342	2101.037	2081.867
178.110	16.449	2099.450	2081.361
179.125	16.614	2098.185	2081.907
180.140	16.489	2096.997	2078.926
181.154	16.428	2096.291	2077.230
182.169	16.599	2094.253	2077.071
183.183	17.440	2098.049	2090.981
184.198	20.458	2105.493	2135.496
185.213	21.004	2102.205	2138.639
186.227	17.985	2092.390	2091.297
187.242	16.673	2087.975	2070.511
188.256	16.627	2085.634	2067.379
189.271	16.497	2083.349	2063.275
190.286	16.324	2081.822	2059.395
191.300	16.416	2079.573	2058.055
192.315	16.384	2078.258	2056.106
193.329	16.623	2077.539	2058.070
194.344	16.761	2077.811	2059.779
195.359	16.930	2076.036	2059.840
196.373	16.624	2072.384	2052.241
197.388	16.499	2069.333	2047.457
198.402	16.352	2068.171	2044.269
199.417	16.385	2065.158	2041.451
200.432	16.634	2063.494	2042.576
201.446	16.522	2063.240	2040.733
202.461	16.443	2061.496	2037.800
203.475	16.359	2059.979	2035.036
204.490	16.383	2058.511	2033.641
205.504	16.425	2055.893	2031.310
206.519	16.459	2054.757	2030.357
207.534	16.442	2053.509	2028.680
208.548	16.529	2051.262	2027.267
209.563	16.599	2049.540	2026.156
210.577	16.798	2048.934	2027.718
211.592	16.802	2048.432	2027.018
212.607	18.146	2054.000	2048.482
213.621	21.407	2060.530	2094.068
214.636	20.760	2053.799	2079.221
215.650	17.692	2044.335	2032.674
216.665	16.828	2041.042	2018.810
217.680	16.697	2039.117	2015.100
218.694	16.493	2037.564	2010.879
219.709	16.450	2035.626	2008.217
220.723	16.589	2034.984	2009.003
221.738	16.658	2033.328	2007.954
222.753	16.850	2031.558	2008.255
223.767	16.724	2030.408	2005.377
224.782	16.739	2027.709	2002.649
225.796	16.575	2027.001	1999.758
226.811	16.537	2025.505	1997.593
227.826	16.602	2023.169	1995.820
228.840	16.578	2020.951	1993.113
229.855	16.455	2020.919	1991.384
230.869	16.400	2019.603	1989.193
231.884	16.463	2017.141	1987.277
232.899	16.534	2015.721	1986.474
233.913	16.458	2014.452	1984.092
234.928	16.430	2013.021	1982.116
235.942	16.413	2011.013	1979.698
236.957	16.455	2010.043	1979.009
237.972	16.383	2009.143	1977.033
238.986	16.426	2007.581	1975.761
240.001	16.308	2005.825	1972.409
241.015	16.449	2004.534	1972.563
242.030	17.322	2007.955	1985.950
243.045	20.041	2014.413	2024.068
244.059	20.267	2010.558	2022.605
245.074	17.710	2000.287	1982.187
246.088	16.626	1996.638	1965.686
247.103	16.767	1995.324	1965.806
248.117	16.741	1993.959	1963.922
249.132	16.642	1991.594	1960.203
250.147	16.444	1989.392	1955.501
251.161	16.525	1987.726	1954.564
252.176	16.728	1987.857	1956.822
253.190	17.064	1985.658	1958.321
254.205	17.127	1983.871	1957.054
255.220	17.001	1983.440	1954.933
256.234	16.987	1981.716	1952.832
257.249	16.711	1980.536	1948.250
258.263	16.738	1979.101	1946.910
259.278	16.738	1978.542	1946.135
260.293	16.666	1975.802	1942.373
261.307	16.502	1973.890	1938.368
262.322	16.484	1972.932	1936.992
263.336	16.408	1970.991	1933.984
264.351	16.337	1968.719	1930.700
265.366	16.352	1966.660	1928.625
266.380	16.433	1966.376	1929.043
267.395	16.443	1965.415	1927.980
268.409	16.580	1963.458	1927.400
269.424	16.610	1961.920	1926.009
270.439	16.623	1962.396	1926.394
271.453	17.664	1964.516	1940.160
272.468	20.486	1969.328	1977.005
273.482	20.570	1966.137	1974.518
274.497	17.844	1955.488	1932.599
275.512	16.706	1951.616	1915.606
276.526	16.589	1949.845	1912.305
277.541	16.618	1947.607	1910.216
278.555	16.479	1946.883	1907.696
279.570	16.446	1944.806	1905.060
280.585	16.340	1943.719	1902.565
281.599	16.383	1942.212	1901.358
282.614	16.642	1941.970	1903.816
283.628	16.960	1941.809	1907.025
284.643	16.979	1940.820	1906.045
285.657	17.099	1939.571	1905.942
286.672	17.253	1937.755	1905.662
287.687	17.159	1936.066	1902.718
288.701	16.974	1934.233	1898.610
289.716	16.966	1932.996	1897.070
290.730	17.021	1930.910	1895.415
291.745	16.984	1930.084	1893.965
292.760	16.988	1929.212	1892.931
293.774	16.766	1928.000	1889.026
294.789	16.698	1926.112	1886.189
295.803	16.482	1923.891	1881.371
296.818	16.379	1922.431	1878.559
297.833	16.708	1921.083	1880.699
298.847	16.619	1919.526	1877.957
299.862	16.504	1918.664	1875.599
300.876	17.289	1920.448	1885.884
301.891	20.393	1926.642	1926.402
302.906	20.874	1923.690	1928.573
303.920	17.782	1915.093	1885.421
304.935	16.762	1910.906	1869.768
305.949	16.615	1908.590	1865.646
306.964	16.491	1906.975	1862.469
307.979	16.596	1906.454	1862.900
308.993	16.876	1905.804	1865.144
310.008	17.264	1904.313	1867.745
311.022	17.317	1903.010	1866.828
312.037	17.058	1900.692	1861.474
313.052	17.062	1898.745	1859.391
314.066	17.227	1898.025	1860.281
315.081	17.253	1897.354	1859.680
316.095	17.070	1895.394	1855.527
317.110	16.922	1893.286	1851.621
318.125	16.691	1891.488	1847.105
319.139	16.762	1890.221	1846.421
320.154	16.793	1889.543	1845.881
321.168	16.708	1888.013	1843.232
322.183	16.601	1886.462	1840.336
323.197	16.533	1884.979	1837.927
324.212	16.461	1882.421	1834.421
325.227	16.467	1880.452	1832.354
326.241	16.419	1878.747	1829.948
327.256	16.580	1877.700	1830.456
328.270	16.473	1876.497	1827.905
329.285	16.521	1877.245	1828.931
330.300	17.494	1881.267	1843.232
331.314	20.811	1886.685	1884.461
332.329	20.635	1881.520	1877.162
333.343	17.621	1872.649	1835.506
334.358	16.490	1869.250	1819.715
335.373	16.344	1867.778	1816.492
336.387	16.236	1865.071	1812.474
337.402	16.354	1863.877	1812.371
338.416	16.389	1862.807	1811.495
339.431	16.455	1861.822	1811.026
340.446	16.604	1859.410	1810.070
341.460	16.605	1859.517	1809.969
342.475	16.994	1857.787	1812.237
343.489	16.945	1857.320	1811.038
344.504	17.011	1855.510	1809.769
345.519	17.045	1854.510	1808.943
346.533	17.085	1852.582	1807.274
347.548	17.248	1851.720	1807.960
348.562	17.032	1850.037	1803.786
349.577	17.190	1848.800	1804.059
350.592	17.294	1848.345	1804.500
351.606	17.294	1847.637	1803.598
352.621	17.247	1845.340	1800.639
353.635	17.090	1843.324	1796.791
354.650	16.899	1841.511	1792.776
355.665	16.767	1838.954	1788.665
356.679	16.576	1838.131	1785.630
357.694	16.470	1836.588	1782.788
358.708	16.405	1835.926	1781.245
359.723	17.787	1839.410	1799.070
360.738	20.902	1844.686	1837.082
361.752	20.156	1838.614	1822.934
362.767	17.393	1832.230	1787.247
363.781	16.716	1828.515	1776.279
364.796	16.490	1826.818	1772.029
365.810	16.402	1825.372	1769.492
366.825	16.419	1825.031	1769.130
367.840	16.800	1824.861	1772.758
368.854	17.064	1822.954	1773.472
369.869	16.778	1820.397	1767.769
370.883	16.784	1818.847	1766.111
371.898	16.545	1818.467	1763.025
372.913	16.780	1816.963	1763.823
373.927	16.747	1816.310	1762.633
374.942	16.777	1815.926	1762.358
375.956	16.946	1814.199	1762.235
376.971	17.030	1811.323	1760.106
377.986	16.841	1809.857	1756.506
379.000	16.836	1808.179	1754.614
380.015	16.747	1807.331	1752.653
381.029	16.617	1804.916	1748.758
382.044	16.393	1802.988	1744.352
383.059	16.483	1801.522	1743.654
384.073	16.503	1800.800	1742.960
385.088	16.590	1799.113	1742.017
386.102	16.445	1798.099	1739.326
387.117	16.395	1795.973	1736.545
388.132	16.468	1795.934	1737.055
389.146	17.519	1800.038	1751.694
390.161	20.631	1806.037	1789.553
391.175	20.411	1798.524	1779.627
392.190	17.498	1789.401	1740.492
393.205	16.612	1787.431	1729.270
394.219	16.627	1784.941	1726.810
395.234	16.589	1783.376	1724.701
396.248	16.641	1781.977	1723.670
397.263	16.454	1779.469	1719.131
398.278	16.507	1778.256	1718.292
399.292	16.537	1777.049	1717.228
400.307	16.515	1776.413	1716.189
401.321	16.691	1774.963	1716.369
402.336	16.705	1774.051	1715.422
403.350	16.766	1772.605	1714.448
404.365	16.911	1771.552	1714.700
405.380	17.115	1771.171	1716.189
406.394	17.154	1770.417	1715.652
407.409	16.984	1769.261	1712.599
408.423	17.217	1767.003	1712.575
409.438	17.118	1766.029	1710.418
410.453	17.001	1764.948	1707.989
411.467	17.129	1764.469	1708.614
412.482	17.091	1762.503	1706.124
413.496	16.739	1761.189	1701.091
414.511	16.743	1758.944	1698.763
415.526	16.690	1756.315	1695.481
416.540	16.576	1754.001	1691.898
417.555	16.538	1753.839	1691.165
418.569	16.645	1754.489	1692.656
419.584	16.791	1754.142	1693.593
420.599	16.789	1753.672	1692.913
421.613	16.638	1752.533	1690.097
422.628	16.537	1751.074	1687.469
423.642	16.497	1749.076	1684.944
424.657	16.485	1747.488	1683.093
425.672	16.801	1745.444	1684.077
426.686	16.732	1744.992	1682.751
427.701	16.643	1743.759	1680.477
428.715	16.744	1742.193	1679.769
429.730	17.017	1740.985	1681.124
430.745	17.026	1739.290	1679.374
431.759	17.001	1739.174	1678.812
432.774	17.351	1739.981	1682.874
433.788	17.827	1740.747	1688.148
434.803	18.182	1740.227	1690.972
435.818	18.062	1739.041	1688.421
436.832	18.053	1737.596	1686.729
437.847	16.788	1730.101	1666.754
438.861	9.129	1709.879	1571.955
439.876	1.596	1695.681	1485.004
440.890	0.296	1693.274	1469.978
441.905	0.178	1691.634	1467.221
442.920	0.141	1690.001	1465.262
443.934	0.149	1689.112	1464.400
444.949	0.236	1688.025	1464.135
445.963	0.125	1687.511	1462.425
446.978	0.106	1686.662	1461.334
447.993	0.112	1685.303	1460.037
449.007	0.116	1683.370	1458.220
450.022	0.136	1681.023	1456.210
451.036	0.220	1678.747	1454.883
452.051	1.133	1683.395	1467.617
453.066	8.663	1700.892	1556.521
454.080	16.228	1712.388	1641.055
455.095	17.856	1714.620	1658.917
456.109	18.227	1715.145	1662.853
457.124	18.447	1713.268	1662.984
458.139	18.498	1713.202	1663.214
459.153	18.671	1712.500	1664.019
460.168	18.638	1710.865	1661.914
461.182	18.507	1709.077	1658.695
462.197	18.534	1706.750	1656.507
463.212	18.393	1705.583	1653.807
464.226	18.446	1704.366	1652.939
465.241	18.558	1703.598	1653.087
466.255	18.700	1702.649	1653.337
467.270	18.578	1701.841	1651.177
468.285	18.543	1700.027	1648.882
469.299	18.372	1697.970	1645.035
470.314	18.491	1697.035	1645.086
471.328	18.628	1695.504	1644.718
472.343	18.495	1694.387	1642.159
473.358	18.585	1693.925	1642.385
474.372	18.605	1692.064	1640.575
475.387	18.494	1690.471	1637.766
476.401	18.480	1688.470	1635.497
477.416	18.538	1687.324	1634.752
478.430	18.543	1686.609	1633.907
479.445	18.456	1684.781	1631.109
480.460	18.226	1684.684	1628.620
481.474	18.316	1683.237	1627.891
482.489	18.798	1681.807	1630.911
483.503	18.858	1680.672	1630.183
484.518	18.678	1679.995	1627.622
485.533	18.680	1678.397	1625.898
486.547	18.575	1677.110	1623.459
487.562	18.936	1675.818	1625.443
488.576	18.880	1673.943	1622.896
489.591	18.783	1673.266	1621.121
490.606	18.691	1671.480	1618.325
491.620	18.654	1670.169	1616.516
492.635	18.882	1668.418	1616.786
493.649	19.136	1667.029	1617.644
494.664	18.720	1665.995	1612.520
495.679	18.364	1664.483	1607.504
496.693	18.449	1663.336	1607.003
497.708	18.656	1662.684	1608.133
498.722	18.905	1661.382	1609.027
499.737	18.784	1660.417	1606.758
500.752	18.659	1658.629	1603.665
501.766	18.641	1656.866	1601.596
502.781	18.686	1655.454	1600.463
503.795	18.813	1652.971	1599.058
504.810	18.790	1652.598	1598.292
505.825	18.832	1652.371	1598.272
506.839	18.776	1651.968	1597.170
507.854	18.748	1650.151	1594.958
508.868	18.901	1648.421	1594.522
509.883	18.919	1647.335	1593.452
510.898	18.931	1647.273	1593.310
511.912	18.920	1644.277	1590.118
512.927	18.806	1642.991	1587.629
513.941	18.671	1642.297	1585.513
514.956	18.626	1639.603	1582.306
515.971	18.603	1638.621	1580.956
516.985	18.524	1638.358	1579.781
518.000	18.793	1637.383	1581.137
519.014	19.125	1635.726	1582.415
520.029	19.134	1634.850	1581.468
521.043	19.047	1634.056	1579.704
522.058	18.905	1632.091	1576.307
523.073	19.134	1630.956	1577.135
524.087	19.288	1630.595	1578.015
525.102	19.146	1629.787	1575.733
526.116	18.722	1628.607	1570.506
527.131	18.774	1626.904	1569.155
528.146	19.033	1626.286	1570.745
529.160	19.229	1624.879	1570.998
530.175	19.176	1623.382	1568.880
531.189	19.173	1622.697	1568.001
532.204	19.271	1620.619	1566.703
533.219	18.989	1619.785	1563.132
534.233	18.838	1619.169	1560.971
535.248	18.954	1618.444	1561.142
536.262	19.289	1617.093	1562.704
537.277	19.180	1615.957	1560.432
538.292	18.889	1614.377	1556.066
539.306	18.890	1612.379	1553.966
540.321	19.075	1610.453	1553.606
541.335	19.087	1608.778	1551.908
542.350	18.973	1608.193	1550.129
543.365	19.254	1607.272	1551.600
544.379	19.185	1606.111	1549.664
545.394	19.214	1605.100	1548.766
546.408	19.148	1602.828	1545.798
547.423	18.881	1601.660	1542.078
548.438	18.853	1600.370	1540.392
549.452	19.127	1599.228	1541.577
550.467	19.169	1598.405	1540.979
551.481	18.999	1598.023	1538.901
552.496	19.329	1597.302	1540.981
553.511	19.479	1596.128	1541.015
554.525	19.355	1595.304	1538.924
555.540	19.333	1594.781	1538.039
556.554	19.417	1593.699	1537.560
557.569	19.309	1591.343	1534.140
558.583	19.194	1589.934	1531.568
559.598	19.219	1588.439	1530.171
560.613	19.310	1587.366	1529.760
561.627	19.330	1586.172	1528.606
562.642	19.499	1584.772	1528.582
563.656	19.550	1583.851	1527.960
564.671	19.568	1582.637	1526.769
565.686	19.588	1581.583	1525.745
566.700	19.289	1579.802	1521.192
567.715	19.117	1578.226	1517.970
568.729	19.053	1576.553	1515.609
569.744	18.844	1574.479	1511.584
570.759	18.998	1573.800	1512.113
571.773	18.936	1573.249	1510.862
572.788	19.130	1572.087	1511.271
573.802	19.215	1571.191	1510.979
574.817	19.492	1570.083	1512.178
575.832	19.499	1569.266	1511.264
576.846	19.581	1567.439	1510.048
577.861	19.398	1566.037	1506.909
578.875	19.564	1565.573	1507.740
579.890	19.668	1564.036	1506.987
580.905	19.589	1564.076	1506.156
581.919	19.607	1563.235	1505.320
582.934	19.805	1562.025	1505.715
583.948	19.800	1560.494	1504.015
584.963	19.620	1558.695	1500.523
585.978	19.477	1558.132	1498.559
586.992	19.635	1557.387	1499.043
588.007	19.617	1556.930	1498.261
589.021	19.309	1554.741	1493.299
590.036	19.105	1552.772	1489.454
591.051	19.244	1551.619	1489.374
592.065	19.383	1550.883	1489.696
593.080	19.667	1549.388	1490.548
594.094	19.572	1548.239	1488.436
595.109	19.354	1545.652	1483.886
596.123	19.248	1543.694	1480.911
597.138	19.365	1544.317	1482.344
598.153	19.471	1543.598	1482.393
599.167	19.481	1542.018	1480.789
600.182	19.684	1540.545	1480.943
601.196	19.778	1539.778	1480.839
602.211	19.556	1539.491	1478.473
603.226	19.680	1537.878	1477.814
604.240	19.842	1536.879	1478.064
605.255	19.898	1535.624	1477.163
606.269	19.905	1534.908	1476.358
607.284	19.833	1533.639	1474.342
608.299	19.793	1531.590	1471.854
609.313	19.722	1530.063	1469.607
610.328	19.757	1529.670	1469.350
611.342	19.717	1528.514	1467.728
612.357	19.769	1527.756	1467.264
613.372	19.974	1526.387	1467.523
614.386	19.863	1524.920	1464.985
615.401	19.794	1524.619	1463.939
616.415	19.851	1524.617	1464.248
617.430	20.028	1523.279	1464.287
618.445	20.002	1521.683	1462.360
619.459	19.872	1520.237	1459.691
620.474	19.591	1519.198	1456.141
621.488	19.251	1517.123	1451.098
622.503	19.054	1515.736	1447.930
623.518	19.441	1515.600	1450.902
624.532	19.862	1514.426	1453.157
625.547	19.825	1513.412	1451.696
626.561	20.095	1513.409	1453.800
627.576	20.041	1512.531	1452.323
628.591	19.731	1510.185	1447.290
629.605	19.357	1509.164	1442.997
630.620	19.392	1506.911	1440.959
631.634	19.146	1505.500	1437.377
632.649	19.235	1505.878	1438.307
633.663	19.524	1503.776	1438.555
634.678	19.841	1502.787	1440.084
635.693	19.982	1501.769	1440.116
636.707	20.011	1500.731	1439.190
637.722	20.146	1500.472	1439.898
638.736	20.218	1499.105	1439.014
639.751	20.200	1497.799	1437.443
640.766	20.157	1496.619	1435.778
641.780	20.250	1494.449	1434.294
642.795	20.124	1494.207	1432.845
643.809	20.259	1493.894	1433.498
644.824	20.172	1492.744	1431.494
645.839	20.051	1491.094	1428.738
646.853	20.122	1490.092	1428.202
647.868	20.191	1488.547	1427.119
648.882	20.047	1487.249	1424.509
649.897	19.986	1486.295	1422.920
650.912	20.055	1484.782	1421.876
651.926	20.038	1482.860	1419.727
652.941	19.786	1481.661	1416.329
653.955	19.534	1479.913	1412.420
654.970	19.397	1477.890	1409.193
655.985	19.288	1476.639	1406.936
656.999	19.259	1476.511	1406.413
658.014	19.642	1475.542	1408.462
659.028	19.857	1474.064	1408.641
660.043	19.870	1474.105	1408.612
661.058	20.109	1472.885	1409.233
662.072	19.968	1472.449	1407.500
663.087	19.958	1471.460	1406.300
664.101	20.075	1469.985	1405.675
665.116	20.166	1469.107	1405.407
666.131	20.144	1468.036	1404.037
667.145	19.989	1466.929	1401.552
668.160	20.210	1466.421	1402.693
669.174	20.334	1464.867	1402.044
670.189	20.358	1463.356	1400.629
671.204	20.355	1461.914	1399.054
672.218	20.135	1461.873	1397.069
673.233	20.269	1461.031	1397.176
674.247	20.461	1459.919	1397.501
675.262	20.513	1459.202	1397.065
676.276	20.364	1457.817	1394.375
677.291	20.404	1455.767	1392.570
678.306	20.311	1454.675	1390.606
679.320	20.255	1453.531	1388.892
680.335	20.249	1453.519	1388.670
681.349	20.393	1453.030	1389.198
682.364	20.422	1451.588	1387.882
683.379	20.423	1449.914	1386.121
684.393	20.372	1448.825	1384.506
685.408	20.409	1447.816	1383.672
686.422	20.358	1447.148	1382.464
687.437	20.319	1446.800	1381.651
688.452	20.415	1446.383	1381.854
689.466	20.487	1443.935	1379.927
690.481	20.185	1442.360	1375.848
691.495	20.093	1441.114	1373.759
692.510	19.653	1439.580	1368.631
693.525	19.452	1437.829	1365.206
694.539	19.696	1437.101	1366.288
695.554	20.062	1437.278	1369.205
696.568	20.388	1436.651	1371.029
697.583	20.412	1436.077	1370.508
698.598	20.513	1435.029	1370.147
699.612	20.480	1433.399	1368.163
700.627	20.758	1432.049	1368.908
701.641	20.572	1430.668	1365.958
702.656	20.497	1430.464	1365.007
703.671	20.659	1430.196	1365.861
704.685	20.631	1429.402	1364.721
705.700	20.599	1427.798	1362.774
706.714	20.567	1425.948	1360.597
707.729	20.323	1424.359	1356.996
708.744	20.358	1423.323	1356.120
709.758	20.203	1422.230	1353.704
710.773	19.960	1420.439	1349.931
711.787	19.840	1419.441	1347.883
712.802	20.008	1417.364	1347.061
713.816	20.342	1416.776	1348.949
714.831	20.207	1416.917	1347.873
715.846	20.621	1415.107	1349.214
716.860	20.585	1414.489	1348.186
717.875	20.475	1413.716	1346.430
718.889	20.500	1412.095	1344.919
719.904	20.702	1411.452	1345.717
720.919	20.685	1410.307	1344.330
721.933	20.657	1410.355	1344.000
722.948	20.728	1409.268	1343.356
723.962	20.876	1408.178	1343.300
724.977	20.857	1406.982	1341.849
725.992	20.744	1405.820	1339.710
727.006	20.681	1404.512	1337.815
728.021	20.897	1402.707	1337.602
729.035	20.894	1401.667	1336.426
730.050	20.860	1401.119	1335.484
731.065	20.785	1399.879	1333.567
732.079	20.969	1398.874	1333.863
733.094	20.656	1397.826	1330.295
734.108	20.665	1396.281	1328.740
735.123	20.658	1394.663	1326.982
736.138	20.622	1394.289	1326.196
737.152	20.744	1393.285	1326.016
738.167	20.842	1392.700	1326.051
739.181	20.926	1391.536	1325.423
740.196	20.902	1390.316	1323.919
741.211	20.811	1389.959	1322.726
742.225	20.625	1389.008	1320.248
743.240	20.736	1387.307	1319.313
744.254	20.800	1385.846	1318.259
745.269	20.840	1384.974	1317.571
746.284	20.704	1384.702	1316.124
747.298	20.477	1383.217	1312.833
748.313	20.206	1381.843	1309.310
749.327	19.877	1380.411	1305.304
750.342	19.633	1378.620	1301.607
751.356	19.538	1376.839	1299.053
752.371	19.644	1377.096	1299.936
753.386	20.363	1376.596	1304.742
754.400	20.737	1376.029	1306.873
755.415	20.883	1375.409	1307.231
756.429	21.014	1373.932	1306.657
757.444	20.911	1372.599	1304.461
758.459	20.954	1371.973	1304.027
759.473	21.040	1371.430	1304.005
760.488	21.026	1369.807	1302.198
761.502	21.049	1368.355	1300.837
762.517	20.819	1367.749	1298.381
763.532	20.750	1365.638	1295.705
764.546	20.596	1363.952	1292.802
765.561	20.307	1363.147	1289.724
766.575	19.942	1362.428	1286.164
767.590	19.928	1360.743	1284.316
768.605	20.116	1359.997	1284.860
769.619	20.418	1359.484	1286.471
770.634	20.614	1358.962	1287.280
771.648	20.880	1357.919	1288.114
772.663	21.012	1357.642	1288.678
773.678	21.025	1356.956	1287.971
774.692	20.981	1356.495	1287.053
775.707	20.940	1355.909	1286.037
776.721	20.987	1354.697	1285.080
777.736	21.114	1352.956	1284.214
778.751	21.051	1352.000	1282.686
779.765	21.051	1351.320	1281.891
780.780	20.995	1350.622	1280.664
781.794	20.900	1349.432	1278.676
782.809	20.993	1348.014	1277.869
783.824	20.805	1347.191	1275.552
784.838	20.517	1344.688	1270.911
785.853	19.796	1343.339	1264.190
786.867	19.923	1343.344	1264.974
787.882	20.196	1343.112	1266.610
788.897	20.444	1342.322	1267.529
789.911	20.573	1341.637	1267.676
790.926	20.842	1340.087	1268.027
791.940	20.754	1339.343	1266.531
792.955	20.906	1337.628	1265.867
793.969	21.004	1336.507	1265.373
794.984	21.026	1336.024	1264.924
795.999	21.086	1334.746	1263.999
797.013	21.299	1333.279	1264.004
798.028	21.139	1331.758	1261.251
799.042	21.154	1331.395	1260.862
800.057	21.291	1330.615	1260.969
801.072	21.243	1329.160	1259.094
802.086	20.917	1328.194	1255.663
803.101	21.230	1326.959	1256.615
804.115	21.151	1326.380	1255.340
805.130	21.206	1325.615	1254.864
806.145	21.093	1324.527	1252.869
807.159	21.187	1322.305	1251.293
808.174	20.948	1321.129	1248.309
809.188	20.988	1319.939	1247.326
810.203	20.863	1318.080	1244.520
811.218	20.649	1316.459	1241.308
812.232	20.232	1314.698	1236.515
813.247	20.203	1313.646	1235.165
814.261	20.428	1314.169	1237.124
815.276	20.820	1313.677	1239.315
816.291	20.922	1313.326	1239.564
817.305	21.147	1311.561	1239.357
818.320	21.191	1310.396	1238.419
819.334	21.224	1309.519	1237.679
820.349	21.206	1308.168	1236.123
821.364	21.251	1307.168	1235.355
822.378	21.197	1305.636	1233.377
823.393	21.250	1303.536	1231.618
824.407	21.151	1303.072	1230.331
825.422	21.016	1302.813	1228.980
826.437	21.131	1301.139	1228.069
827.451	20.897	1298.934	1224.186
828.466	20.249	1296.817	1217.476
829.480	20.282	1294.375	1215.270
830.495	20.521	1293.612	1216.088
831.509	20.843	1293.759	1218.348
832.524	20.878	1293.627	1218.323
833.539	21.208	1292.182	1219.133
834.553	21.390	1290.579	1218.748
835.568	21.301	1289.505	1216.967
836.582	21.398	1288.939	1216.965
837.597	21.337	1287.682	1215.212
838.612	21.451	1286.062	1214.329
839.626	21.164	1285.002	1211.184
840.641	20.942	1284.235	1208.764
841.655	20.684	1283.146	1205.803
842.670	20.364	1281.235	1201.631
843.685	20.074	1280.755	1199.027
844.699	20.424	1280.191	1200.787
845.714	20.853	1279.303	1202.786
846.728	20.951	1278.406	1202.476
847.743	21.173	1277.448	1202.972
848.758	21.327	1276.336	1202.842
849.772	21.334	1274.772	1201.279
850.787	21.296	1273.302	1199.486
851.801	21.138	1273.027	1197.990
852.816	21.117	1271.588	1196.351
853.831	20.984	1269.856	1193.662
854.845	21.079	1267.695	1192.139
855.860	20.867	1266.364	1189.291
856.874	20.798	1264.833	1187.240
857.889	20.645	1264.170	1185.426
858.904	20.359	1261.620	1180.941
859.918	20.187	1259.417	1177.562
860.933	19.899	1259.114	1175.171
861.947	20.196	1259.169	1177.105
862.962	20.644	1257.740	1178.686
863.977	20.741	1256.076	1177.646
864.991	20.855	1256.601	1178.770
866.006	20.846	1256.570	1178.537
867.020	21.141	1255.203	1179.117
868.035	21.072	1254.626	1177.965
869.049	21.176	1253.338	1177.324
870.064	21.310	1252.026	1176.854
871.079	21.295	1251.505	1176.122
872.093	21.415	1250.492	1175.839
873.108	21.321	1249.340	1173.983
874.122	20.888	1247.967	1169.632
875.137	20.559	1247.073	1166.436
876.152	20.536	1246.052	1165.186
877.166	20.719	1244.492	1164.819
878.181	20.916	1244.105	1165.640
879.195	21.106	1243.774	1166.467
880.210	21.166	1242.542	1165.576
881.225	21.189	1241.607	1164.716
882.239	21.324	1240.523	1164.459
883.254	21.290	1239.484	1163.120
884.268	21.320	1238.603	1162.355
885.283	21.433	1237.331	1161.779
886.298	21.365	1236.044	1159.978
887.312	21.159	1235.203	1157.675
888.327	21.309	1233.878	1157.295
889.341	21.262	1232.554	1155.600
890.356	21.162	1231.887	1154.171
891.371	21.128	1231.640	1153.577
892.385	21.075	1231.105	1152.586
893.400	20.958	1229.786	1150.437
894.414	20.982	1228.472	1149.228
895.429	20.701	1225.825	1144.757
896.444	20.084	1223.917	1138.765
897.458	19.713	1222.826	1135.162
898.473	20.097	1222.366	1137.132
899.487	20.539	1222.605	1140.135
900.502	20.961	1221.441	1141.688
901.517	21.117	1220.499	1141.700
902.531	21.268	1219.890	1141.984
903.546	21.224	1219.449	1141.147
904.560	21.288	1218.617	1140.651
905.575	21.282	1217.556	1139.485
906.589	21.291	1216.594	1138.506
907.604	21.341	1215.912	1138.057
