DTS Sentinel unit serial number:	SN409020Multiplexer serial number:	ORYXHardware model number:	OX4-SRSoftware version number:	ORYX F/W v3.00 Oryx Data Collector v3.7.2.0data status	okinstallation	HaddamTimeLapsedifferential loss correction	single-endedforward channel	channel 3reverse channel	N/Adate	2011/06/21time	15:41:16forward acquisition time	30.00reverse acquisition time	0.00gamma	498.7831k internal	0.1808k external	0.1808temperature offset calibration	1.0074default loss term (dB/km)	0.3790temperature slope calibration	1.3530multiplexer offset coefficient	1.0000multiplexer slope coefficient	1.0000fibre end	0.00T internal ref (°C)	36.87T ext. ref 1 (°C)	27.95T ext. ref 2 (°C)	0.23length (m)	temperature (°C)	Stokes	anti-Stokes-747.200	800.000	0.069	-0.265
-746.185	800.000	-0.137	0.503
-745.171	-61.817	-0.383	-0.205
-744.156	-101.711	-0.343	0.106
-743.142	11.642	0.262	0.259
-742.127	-4.921	0.286	0.254
-741.112	45.291	-0.193	0.229
-740.098	800.000	0.031	0.159
-739.083	10.466	-0.105	0.103
-738.069	-55.102	0.306	0.177
-737.054	-57.616	0.168	0.094
-736.039	10.121	-0.241	-0.236
-735.025	-56.421	-0.085	0.049
-734.010	41.073	-0.167	0.194
-732.996	-126.724	-0.092	-0.017
-731.981	800.000	-0.066	-0.249
-730.966	-7.099	-0.121	0.105
-729.952	-200.000	0.067	0.456
-728.937	-109.454	-0.414	0.112
-727.923	-157.081	-0.096	-0.007
-726.908	458.940	0.085	-0.245
-725.894	800.000	0.088	0.364
-724.879	-80.623	0.136	0.058
-723.864	164.501	-0.150	0.272
-722.850	-159.615	-0.217	0.015
-721.835	-200.000	-0.003	-0.038
-720.821	16.664	-0.189	-0.192
-719.806	126.793	-0.148	-0.242
-718.791	19.232	0.179	-0.185
-717.777	-102.118	0.371	0.114
-716.762	2.330	-0.230	0.213
-715.748	-21.156	0.271	-0.212
-714.733	-59.005	0.444	-0.245
-713.718	-127.759	0.394	-0.073
-712.704	-200.000	0.003	0.176
-711.689	139.703	0.113	-0.191
-710.675	800.000	0.055	0.263
-709.660	-135.019	0.270	-0.041
-708.645	530.508	-0.109	-0.334
-707.631	-196.994	0.219	0.002
-706.616	-121.645	-0.145	0.031
-705.602	-96.474	-0.259	-0.087
-704.587	-136.498	-0.228	-0.034
-703.572	-200.000	-0.026	0.380
-702.558	-150.969	0.357	0.034
-701.543	-111.325	0.225	0.058
-700.529	-83.235	0.166	-0.068
-699.514	272.192	-0.043	-0.098
-698.499	-96.867	0.276	-0.093
-697.485	698.252	-0.088	-0.300
-696.470	-199.465	-0.497	0.003
-695.456	549.297	-0.096	0.299
-694.441	-69.462	-0.053	-0.026
-693.426	-71.894	0.280	-0.133
-692.412	33.849	0.057	0.064
-691.397	-183.363	-0.369	-0.008
-690.383	-200.000	-0.000	0.279
-689.368	-58.218	-0.249	0.139
-688.354	-34.274	0.132	-0.093
-687.339	-200.000	0.024	0.185
-686.324	91.932	-0.253	0.366
-685.310	-200.000	-0.002	0.198
-684.295	181.475	0.224	-0.424
-683.281	-120.990	-0.122	0.026
-682.266	-200.000	-0.001	0.442
-681.251	-21.615	0.180	-0.141
-680.237	400.520	-0.176	-0.476
-679.222	269.278	0.295	-0.666
-678.208	190.273	0.229	0.444
-677.193	101.216	-0.048	-0.071
-676.178	-173.262	-0.513	0.020
-675.164	33.828	0.271	-0.303
-674.149	-200.000	-0.036	0.387
-673.135	-25.849	-0.179	-0.135
-672.120	113.463	-0.158	0.246
-671.105	90.137	-0.014	-0.021
-670.091	-38.588	0.489	-0.331
-669.076	-14.782	0.319	-0.262
-668.062	176.758	0.268	-0.502
-667.047	175.376	-0.175	0.325
-666.032	780.248	0.044	-0.154
-665.018	-5.144	-0.267	0.235
-664.003	-88.215	-0.217	0.083
-662.989	-78.832	-0.172	-0.075
-661.974	-200.000	0.022	0.133
-660.959	-164.273	-0.666	0.039
-659.945	-114.381	0.253	0.062
-658.930	143.061	-0.213	0.364
-657.916	-41.200	-0.387	0.256
-656.901	25.778	0.430	0.459
-655.886	-5.730	0.251	-0.220
-654.872	100.714	0.253	-0.378
-653.857	-40.774	-0.272	-0.180
-652.843	800.000	-0.013	0.068
-651.828	-200.000	0.008	0.514
-650.814	-135.533	-0.502	-0.076
-649.799	-200.000	-0.005	-0.451
-648.784	-200.000	0.065	-0.428
-647.770	-200.000	-0.067	0.450
-646.755	-95.498	0.049	-0.017
-645.741	79.131	0.083	-0.114
-644.726	-21.762	0.197	-0.154
-643.711	584.228	-0.073	-0.232
-642.697	50.923	0.101	-0.123
-641.682	-200.000	-0.001	0.069
-640.668	521.138	-0.054	0.163
-639.653	143.919	-0.146	0.250
-638.638	-9.618	0.255	0.217
-637.624	-200.000	0.002	-0.061
-636.609	-34.680	0.283	0.198
-635.595	619.558	-0.047	0.152
-634.580	800.000	-0.125	-0.552
-633.565	24.836	0.081	-0.086
-632.551	-98.298	-0.091	-0.030
-631.536	7.990	-0.245	0.235
-630.522	-200.000	-0.015	0.492
-629.507	800.000	0.078	0.295
-628.492	755.496	0.089	0.312
-627.478	-57.561	0.199	0.111
-626.463	480.812	0.048	-0.140
-625.449	-200.000	-0.075	-0.426
-624.434	-27.268	-0.322	-0.240
-623.419	-26.203	0.367	-0.275
-622.405	95.527	-0.115	0.168
-621.390	-40.283	-0.362	-0.241
-620.376	-118.701	0.319	0.071
-619.361	-50.884	0.154	-0.092
-618.346	-2.760	-0.291	-0.260
-617.332	630.663	-0.111	0.362
-616.317	-10.904	0.219	-0.185
-615.303	-200.000	0.029	-0.701
-614.288	81.225	0.152	0.211
-613.273	-38.712	0.175	0.118
-612.259	2.975	0.146	-0.136
-611.244	800.000	-0.038	0.144
-610.230	-103.080	-0.295	-0.089
-609.215	800.000	-0.076	-0.419
-608.201	-62.134	-0.233	-0.124
-607.186	-200.000	0.079	-0.530
-606.171	-200.000	-0.640	-0.000
-605.157	-17.166	0.110	0.088
-604.142	26.902	0.343	-0.368
-603.128	85.606	-0.333	0.468
-602.113	108.160	0.177	-0.270
-601.098	-69.446	-0.182	-0.089
-600.084	287.842	-0.173	-0.401
-599.069	-84.583	0.468	0.188
-598.055	-53.937	0.330	0.192
-597.040	-200.000	0.009	-0.060
-596.025	-120.985	-0.610	0.130
-595.011	490.740	-0.089	-0.262
-593.996	189.398	0.164	-0.315
-592.982	-56.482	0.056	-0.032
-591.967	-200.000	-0.017	-0.146
-590.952	-63.040	-0.099	0.052
-589.938	85.705	0.126	-0.177
-588.923	661.168	-0.066	0.218
-587.909	204.293	0.170	0.337
-586.894	-50.486	-0.264	-0.159
-585.879	-140.615	0.432	0.057
-584.865	-76.468	-0.238	-0.107
-583.850	528.223	-0.189	-0.572
-582.836	202.066	0.021	-0.042
-581.821	-200.000	0.022	-0.395
-580.806	22.381	-0.156	-0.163
-579.792	-200.000	-0.013	0.441
-578.777	41.159	-0.350	0.405
-577.763	-168.147	-0.301	-0.015
-576.748	800.000	0.084	0.440
-575.733	-138.575	0.307	0.043
-574.719	-133.005	-0.158	-0.025
-573.704	-200.000	-0.033	-0.280
-572.690	800.000	-0.091	-0.354
-571.675	137.537	-0.215	0.361
-570.661	-200.000	-0.007	-0.217
-569.646	-178.434	0.197	0.006
-568.631	-125.707	-0.453	-0.087
-567.617	275.617	0.068	-0.155
-566.602	30.033	0.121	0.131
-565.588	112.247	-0.147	0.228
-564.573	-25.243	-0.330	-0.249
-563.558	3.554	-0.112	0.104
-562.544	74.736	-0.116	0.156
-561.529	536.865	-0.079	-0.240
-560.515	-200.000	0.016	-0.093
-559.500	-150.341	-0.443	-0.043
-558.485	-200.000	-0.050	0.292
-557.471	800.000	0.097	0.366
-556.456	109.652	0.276	-0.423
-555.442	456.556	-0.029	-0.082
-554.427	-120.835	0.522	-0.111
-553.412	-101.852	-0.080	0.025
-552.398	-200.000	-0.005	0.073
-551.383	-126.570	-0.866	0.163
-550.369	-4.392	-0.287	-0.253
-549.354	-160.992	0.623	0.041
-548.339	11.668	0.228	-0.223
-547.325	800.000	0.085	-0.310
-546.310	-52.493	-0.180	0.106
-545.296	-168.177	-0.280	0.014
-544.281	3.400	-0.259	-0.241
-543.266	-148.353	-0.407	-0.042
-542.252	14.092	0.062	0.062
-541.237	-34.904	-0.055	0.038
-540.223	-63.325	0.717	-0.375
-539.208	-122.033	0.375	0.078
-538.193	800.000	-0.054	-0.261
-537.179	-88.719	0.141	0.053
-536.164	-61.203	-0.479	0.257
-535.150	-137.499	0.447	-0.064
-534.135	-171.771	-0.205	-0.008
-533.121	-34.576	0.425	0.296
-532.106	-200.000	0.038	0.265
-531.091	-108.173	-0.277	-0.076
-530.077	-0.587	0.175	0.158
-529.062	-15.723	-0.135	-0.109
-528.048	16.416	-0.351	0.354
-527.033	287.143	0.042	0.098
-526.018	800.000	-0.081	0.356
-525.004	-6.094	-0.101	0.088
-523.989	-7.867	-0.203	-0.174
-522.975	398.221	0.123	-0.329
-521.960	-120.050	-0.511	-0.111
-520.945	134.610	0.148	-0.246
-519.931	526.763	0.050	0.151
-518.916	-39.403	-0.350	-0.234
-517.902	-200.000	0.032	-0.235
-516.887	110.853	-0.374	-0.575
-515.872	-144.319	0.464	0.054
-514.858	32.612	0.390	0.430
-513.843	-166.398	0.520	-0.027
-512.829	620.559	-0.100	-0.323
-511.814	2.161	-0.285	-0.262
-510.799	-200.000	-0.020	0.307
-509.785	-146.817	0.234	-0.025
-508.770	-39.824	0.245	-0.163
-507.756	91.637	0.033	-0.047
-506.741	-65.424	-0.583	-0.297
-505.726	216.749	0.135	0.274
-504.712	800.000	0.032	0.115
-503.697	-47.567	-0.455	-0.281
-502.683	-67.001	-0.136	0.068
-501.668	154.916	-0.112	-0.196
-500.653	72.933	-0.159	0.212
-499.639	-200.000	0.001	0.348
-498.624	-95.300	-0.188	-0.064
-497.610	-177.835	-0.431	0.013
-496.595	-66.703	-0.393	0.198
-495.581	-200.000	0.008	-0.144
-494.566	34.226	-0.150	0.166
-493.551	-69.617	0.163	0.079
-492.537	-94.448	0.211	0.073
-491.522	194.737	-0.060	-0.117
-490.508	559.081	0.103	0.320
-489.493	-200.000	0.001	-0.310
-488.478	800.000	-0.100	-0.381
-487.464	-52.829	0.394	0.231
-486.449	-97.426	0.131	-0.043
-485.435	-93.585	0.492	0.172
-484.420	-200.000	-0.036	0.394
-483.405	59.009	0.190	-0.239
-482.391	-136.309	0.457	0.067
-481.376	-91.600	0.329	-0.119
-480.362	800.000	-0.038	-0.166
-479.347	-97.409	-0.302	-0.099
-478.332	-7.597	-0.182	-0.157
-477.318	-189.569	0.324	-0.005
-476.303	-18.398	0.250	0.198
-475.289	-41.430	0.119	-0.078
-474.274	182.013	0.272	0.511
-473.259	-0.022	-0.112	0.102
-472.245	-158.071	-0.294	0.022
-471.230	46.794	-0.310	0.367
-470.216	-200.000	-0.066	0.386
-469.201	28.909	-0.110	0.119
-468.186	154.186	0.194	0.340
-467.172	-75.093	-0.505	0.229
-466.157	800.000	0.053	0.250
-465.143	174.688	-0.116	-0.215
-464.128	-94.052	0.074	-0.026
-463.113	-103.633	-0.261	-0.077
-462.099	-26.127	-0.092	-0.069
-461.084	164.173	-0.162	-0.291
-460.070	800.000	-0.179	-0.929
-459.055	62.679	-0.282	-0.360
-458.040	183.923	-0.086	-0.162
-457.026	421.889	-0.128	0.351
-456.011	-6.082	-0.194	-0.168
-454.997	181.994	-0.096	-0.180
-453.982	800.000	0.071	0.349
-452.968	-200.000	0.009	-0.156
-451.953	156.983	-0.062	0.109
-450.938	635.969	0.024	0.077
-449.924	34.999	-0.030	0.034
-448.909	-83.231	0.462	-0.188
-447.895	800.000	-0.025	-0.107
-446.880	-27.001	0.292	0.216
-445.865	-200.000	0.005	-0.115
-444.851	-47.665	-0.358	0.220
-443.836	-98.158	-0.517	-0.168
-442.822	-69.482	-0.368	0.179
-441.807	-74.914	-0.552	0.250
-440.792	800.000	0.095	0.400
-439.778	-91.968	0.191	0.068
-438.763	120.137	0.305	0.482
-437.749	-24.388	0.108	0.081
-436.734	-119.101	0.430	0.095
-435.719	-97.781	0.225	0.074
-434.705	-200.000	-0.095	-0.743
-433.690	70.055	0.223	0.293
-432.676	-147.768	0.540	0.057
-431.661	-102.751	-0.382	0.115
-430.646	-200.000	0.009	-0.099
-429.632	-192.992	-0.514	0.006
-428.617	260.957	-0.170	0.375
-427.603	-51.799	0.186	-0.110
-426.588	-20.252	0.153	0.120
-425.573	-134.148	-0.083	-0.013
-424.559	18.920	-0.230	0.234
-423.544	157.190	-0.162	0.285
-422.530	-0.936	-0.322	0.289
-421.515	-125.096	-0.146	-0.028
-420.500	295.127	-0.088	0.206
-419.486	88.255	-0.213	-0.300
-418.471	-4.194	-0.115	-0.101
-417.457	-80.598	0.354	-0.149
-416.442	1.476	0.192	-0.176
-415.428	35.024	-0.278	0.310
-414.413	-66.749	-0.079	-0.040
-413.398	-91.371	-0.484	-0.175
-412.384	1.448	-0.237	-0.216
-411.369	800.000	0.084	-0.313
-410.355	-71.465	0.594	-0.281
-409.340	800.000	0.041	0.203
-408.325	-120.564	0.430	0.092
-407.311	224.224	-0.123	-0.253
-406.296	-168.341	-0.406	0.020
-405.282	-70.300	-0.300	-0.144
-404.267	104.111	-0.134	0.201
-403.252	-102.590	0.023	-0.007
-402.238	195.923	0.077	0.150
-401.223	30.144	-0.374	0.405
-400.209	-136.310	0.492	0.072
-399.194	-99.037	-0.247	-0.079
-398.179	-11.795	0.085	-0.071
-397.165	-48.154	0.445	0.272
-396.150	-200.000	0.052	-0.312
-395.136	-84.757	-0.184	-0.073
-394.121	-45.313	0.126	-0.079
-393.106	40.752	-0.270	-0.309
-392.092	-200.000	-0.055	0.384
-391.077	-158.883	-0.154	0.011
-390.063	800.000	0.116	0.575
-389.048	207.975	0.071	-0.141
-388.033	-153.670	0.185	0.016
-387.019	77.579	0.191	0.258
-386.004	-37.770	-0.153	0.103
-384.990	-96.382	0.489	0.163
-383.975	6.656	-0.269	0.253
-382.960	-99.081	0.276	0.088
-381.946	-134.849	0.161	0.024
-380.931	-155.639	-0.510	0.041
-379.917	329.652	-0.054	-0.133
-378.902	-107.248	0.648	-0.180
-377.888	-62.993	-0.419	0.219
-376.873	52.812	-0.287	0.348
-375.858	-10.165	-0.288	0.242
-374.844	800.000	-0.092	-0.352
-373.829	34.368	0.273	-0.303
-372.815	-17.905	-0.322	0.256
-371.800	-200.000	0.037	-0.807
-370.785	-200.000	-0.011	-0.201
-369.771	28.117	-0.246	-0.263
-368.756	276.174	0.111	0.252
-367.742	-178.912	-0.622	-0.018
-366.727	-23.719	0.061	-0.046
-365.712	-24.134	0.243	0.184
-364.698	-200.000	-0.012	-0.624
-363.683	272.599	0.123	-0.277
-362.669	800.000	-0.086	0.342
-361.654	-13.966	0.160	0.131
-360.639	-200.000	-0.106	-0.925
-359.625	-99.327	0.798	-0.253
-358.610	292.602	0.160	0.371
-357.596	-1.345	0.192	-0.172
-356.581	-200.000	-0.044	-0.249
-355.566	30.800	0.239	0.260
-354.552	800.000	0.064	-0.254
-353.537	-200.000	0.002	-0.028
-352.523	10.097	0.378	0.363
-351.508	-200.000	-0.020	0.153
-350.493	26.092	0.400	-0.423
-349.479	800.000	-0.078	-0.332
-348.464	-200.000	-0.052	0.477
-347.450	-88.045	0.422	-0.159
-346.435	-126.361	0.124	0.023
-345.420	-200.000	-0.015	-0.277
-344.406	-134.369	-0.113	-0.017
-343.391	190.946	0.097	0.185
-342.377	-142.221	-0.397	-0.049
-341.362	371.912	-0.215	-0.555
-340.348	-23.135	0.284	0.216
-339.333	-4.150	0.274	-0.240
-338.318	148.531	-0.089	0.153
-337.304	-104.241	0.517	-0.151
-336.289	800.000	0.140	0.515
-335.275	-116.947	-0.399	0.092
-334.260	-89.192	-0.151	-0.056
-333.245	-44.969	0.323	0.203
-332.231	-43.804	-0.343	0.218
-331.216	5.360	0.149	0.139
-330.202	800.000	0.114	0.499
-329.187	-149.096	-0.061	-0.006
-328.172	-200.000	-0.001	-0.173
-327.158	-200.000	-0.117	0.000
-326.143	-128.409	0.179	0.032
-325.129	800.000	0.034	-0.191
-324.114	-200.000	0.016	0.113
-323.099	800.000	0.101	-0.430
-322.085	-200.000	-0.011	0.088
-321.070	-152.519	-0.623	-0.056
-320.056	-128.392	-0.261	-0.046
-319.041	104.293	0.067	0.100
-318.026	278.969	-0.005	-0.012
-317.012	-200.000	-0.052	-0.305
-315.997	-79.962	-0.342	0.145
-314.983	-200.000	0.115	0.774
-313.968	-200.000	0.104	0.654
-312.953	-184.024	-0.058	-0.001
-311.939	545.943	0.089	-0.270
-310.924	107.132	0.218	-0.329
-309.910	-73.325	-0.197	-0.091
-308.895	-15.109	0.249	0.201
-307.880	-83.280	-0.163	0.066
-306.866	-39.773	0.205	-0.135
-305.851	16.535	0.291	-0.291
-304.837	800.000	0.062	-0.333
-303.822	-100.565	0.396	-0.123
-302.807	-96.053	0.350	0.117
-301.793	-12.134	0.392	-0.324
-300.778	369.205	-0.029	0.075
-299.764	10.434	-0.020	-0.020
-298.749	12.582	0.433	0.423
-297.735	280.312	-0.203	-0.460
-296.720	19.397	-0.142	-0.145
-295.705	-200.000	0.021	0.280
-294.691	530.148	0.170	0.512
-293.676	-150.340	0.427	-0.041
-292.662	442.912	-0.061	-0.170
-291.647	-5.205	-0.414	0.359
-290.632	-143.713	-0.180	0.021
-289.618	480.294	0.101	-0.291
-288.603	800.000	0.063	0.303
-287.589	-33.358	-0.267	0.186
-286.574	2.332	0.267	0.244
-285.559	-200.000	-0.048	0.292
-284.545	-106.131	-0.441	0.124
-283.530	-32.350	0.245	0.173
-282.516	9.562	0.369	0.353
-281.501	-155.043	-0.228	-0.019
-280.486	-11.423	0.014	-0.012
-279.472	221.400	-0.182	0.370
-278.457	800.000	0.070	-0.304
-277.443	-70.671	-0.038	0.018
-276.428	119.190	-0.081	0.127
-275.413	221.390	0.046	-0.093
-274.399	-53.809	0.328	-0.189
-273.384	-97.148	0.465	-0.153
-272.370	-184.052	-0.186	-0.004
-271.355	-83.297	0.104	0.042
-270.340	-39.142	0.188	0.124
-269.326	256.521	0.150	-0.327
-268.311	9.610	0.243	0.232
-267.297	80.708	0.228	0.310
-266.282	-200.000	0.006	-0.071
-265.267	-200.000	-0.057	0.345
-264.253	25.684	-0.088	-0.093
-263.238	334.375	-0.040	-0.098
-262.224	800.000	0.034	0.130
-261.209	-200.000	0.002	0.253
-260.195	-110.080	0.253	-0.066
-259.180	800.000	0.057	-0.281
-258.165	-173.650	0.232	-0.009
-257.151	-75.898	-0.431	-0.192
-256.136	-107.410	-0.188	0.052
-255.122	-45.604	0.458	0.286
-254.107	145.298	-0.293	-0.496
-253.092	-149.868	0.455	0.044
-252.078	-129.516	-0.129	0.022
-251.063	129.457	-0.116	0.188
-250.049	-200.000	0.044	0.258
-249.034	322.058	-0.184	-0.443
-248.019	53.761	0.171	-0.207
-247.005	-90.740	0.347	0.125
-245.990	-137.494	-0.048	-0.007
-244.976	42.241	-0.126	-0.145
-243.961	800.000	0.136	0.674
-242.946	329.463	-0.109	0.265
-241.932	-18.484	0.099	0.078
-240.917	90.619	-0.170	0.241
-239.903	-164.692	0.130	-0.007
-238.888	-97.825	-0.127	0.041
-237.873	800.000	-0.036	-0.161
-236.859	-101.989	0.269	-0.081
-235.844	166.942	0.083	-0.149
-234.830	-106.181	0.625	0.176
-233.815	454.531	-0.132	-0.372
-232.800	-74.125	-0.168	-0.076
-231.786	-98.546	0.038	0.012
-230.771	29.338	0.311	0.333
-229.757	-92.950	-0.236	0.083
-228.742	-98.391	-0.601	-0.193
-227.727	-8.605	-0.691	0.584
-226.713	418.313	-0.047	0.127
-225.698	-24.937	0.053	-0.039
-224.684	-100.800	0.334	0.103
-223.669	139.696	0.213	0.354
-222.655	-200.000	0.066	-0.516
-221.640	-200.000	0.029	0.214
-220.625	-34.594	0.208	0.143
-219.611	160.990	-0.042	-0.075
-218.596	800.000	0.041	0.207
-217.582	-110.724	-0.784	-0.202
-216.567	-7.495	0.358	-0.305
-215.552	135.785	0.275	-0.452
-214.538	-139.608	0.371	0.049
-213.523	800.000	-0.120	0.553
-212.509	-200.000	-0.003	0.376
-211.494	-120.619	-0.476	-0.101
-210.479	280.331	0.071	0.161
-209.465	-6.210	0.059	-0.051
-208.450	71.476	-0.246	-0.322
-207.436	184.011	-0.313	0.584
-206.421	-95.972	0.131	0.044
-205.406	-200.000	-0.009	-0.057
-204.392	-67.057	0.221	-0.109
-203.377	77.584	-0.014	-0.019
-202.363	-110.688	-0.125	0.032
-201.348	93.691	0.208	0.297
-200.333	-47.742	-0.400	0.244
-199.319	43.029	-0.387	0.445
-198.304	91.622	0.109	0.155
-197.290	-129.535	0.510	-0.088
-196.275	271.919	0.146	0.325
-195.260	98.221	0.150	-0.218
-194.246	-66.380	-0.147	-0.073
-193.231	-139.337	0.546	0.073
-192.217	178.501	0.086	0.159
-191.202	-130.176	-0.430	-0.073
-190.187	-148.066	-0.578	-0.060
-189.173	-110.902	-0.148	0.038
-188.158	-87.559	0.592	0.224
-187.144	800.000	-0.071	0.380
-186.129	290.735	-0.285	0.654
-185.114	-82.550	-0.334	-0.136
-184.100	-165.124	0.825	-0.045
-183.085	-86.713	0.470	0.180
-182.071	800.000	-0.056	-0.262
-181.056	181.171	0.061	-0.114
-180.042	66.703	0.294	-0.377
-179.027	-200.000	0.042	-0.274
-178.012	-35.553	-0.223	-0.152
-176.998	61.681	0.191	-0.240
-175.983	131.461	0.325	-0.527
-174.969	785.610	-0.042	-0.145
-173.954	451.829	0.028	0.077
-172.939	-106.130	-0.207	0.058
-171.925	-45.154	0.195	-0.121
-170.910	-96.794	0.293	0.096
-169.896	-94.045	-0.194	-0.066
-168.881	68.020	-0.328	-0.423
-167.866	-200.000	0.005	-0.341
-166.852	116.897	-0.360	-0.558
-165.837	-51.371	-0.428	-0.251
-164.823	310.628	-0.181	0.429
-163.808	-94.894	0.392	-0.133
-162.793	-142.732	-0.187	0.023
-161.779	7.783	0.251	0.236
-160.764	79.191	-0.221	-0.298
-159.750	-150.551	-0.012	-0.001
-158.735	288.607	0.028	0.064
-157.720	-200.000	-0.047	-0.280
-156.706	-45.448	-0.271	0.168
-155.691	-110.030	0.408	-0.106
-154.677	190.598	0.152	0.287
-153.662	-200.000	-0.033	-0.247
-152.647	-158.922	0.436	0.031
-151.633	-156.501	-0.371	0.029
-150.618	-63.831	0.356	-0.183
-149.604	-52.216	0.356	0.207
-148.589	81.441	-0.212	0.289
-147.574	329.999	-0.059	-0.144
-146.560	-8.184	-0.420	0.355
-145.545	-200.000	-0.364	-0.000
-144.531	-200.000	-0.072	-0.639
-143.516	-156.482	-0.557	-0.043
-142.502	-85.267	-0.209	0.081
-141.487	41.972	-0.365	-0.416
-140.472	-29.364	-0.290	-0.208
-139.458	109.668	-0.075	0.113
-138.443	247.863	0.074	0.159
-137.429	644.283	0.108	0.348
-136.414	-134.774	0.167	0.025
-135.399	-75.943	0.636	-0.282
-134.385	-56.164	-0.184	-0.102
-133.370	18.206	0.168	-0.169
-132.356	-143.065	0.183	-0.022
-131.341	89.734	-0.015	0.021
-130.326	-86.161	0.166	-0.064
-129.312	57.325	-0.258	0.316
-128.297	64.750	-0.118	0.149
-127.283	59.817	0.205	-0.254
-126.268	294.715	0.247	0.570
-125.253	-200.000	0.018	0.413
-124.239	-127.784	0.289	0.052
-123.224	800.000	0.115	-0.441
-122.210	78.561	0.232	-0.312
-121.195	10.852	0.418	0.401
-120.180	-159.318	-0.208	0.014
-119.166	-141.977	-0.244	-0.030
-118.151	202.883	0.154	-0.300
-117.137	163.962	-0.183	-0.324
-116.122	140.513	0.045	0.075
-115.107	94.253	0.242	0.345
-114.093	-175.805	0.376	-0.012
-113.078	-58.836	-0.099	-0.054
-112.064	-25.420	0.231	0.171
-111.049	30.302	0.213	-0.229
-110.034	84.105	-0.227	0.312
-109.020	88.067	0.164	-0.228
-108.005	4.773	-0.112	-0.104
-106.991	-172.177	0.038	-0.002
-105.976	41.143	-0.183	0.207
-104.962	220.202	0.084	-0.170
-103.947	34.563	-0.134	-0.147
-102.932	-97.742	-0.174	0.056
-101.918	83.132	-0.159	-0.218
-100.903	-126.966	-0.195	0.036
-99.889	-141.070	0.533	0.068
-98.874	800.000	-0.083	0.387
-97.859	44.937	-0.192	-0.222
-96.845	5.460	-0.319	-0.295
-95.830	-62.515	0.221	-0.115
-94.816	136.162	0.120	0.197
-93.801	800.000	-0.011	-0.059
-92.786	333.455	0.117	0.286
-91.772	-93.386	0.182	0.063
-90.757	-140.944	0.302	0.039
-89.743	345.008	-0.173	0.429
-88.728	93.692	-0.170	-0.241
-87.713	16.158	-0.343	-0.339
-86.699	-44.228	0.363	0.228
-85.684	-126.135	-0.377	-0.070
-84.670	166.519	-0.032	0.058
-83.655	-136.486	0.431	0.062
-82.640	-25.997	0.554	0.408
-81.626	26.891	0.044	0.046
-80.611	-200.000	-0.010	0.286
-79.597	95.527	-0.081	-0.116
-78.582	800.000	-0.087	-0.404
-77.567	255.633	0.061	-0.132
-76.553	243.429	0.217	0.458
-75.538	800.000	-0.075	-0.308
-74.524	30.737	0.050	-0.054
-73.509	-33.624	0.086	0.059
-72.494	-176.514	0.058	-0.002
-71.480	-98.271	0.417	-0.133
-70.465	180.720	0.167	-0.308
-69.451	361.643	0.334	-0.842
-68.436	-124.619	0.410	-0.079
-67.422	-3.832	0.130	-0.113
-66.407	-116.293	0.309	0.071
-65.392	-81.039	0.223	0.092
-64.378	247.227	0.111	-0.236
-63.363	-83.864	0.182	-0.072
-62.349	-13.835	-0.085	-0.069
-61.334	11.232	-1.253	-1.201
-60.319	341.480	0.229	0.563
-59.305	291.014	-2.603	-5.951
-58.290	-4.015	2.993	2.596
-57.276	407.764	3.883	10.330
-56.261	-200.000	13.463	221.155
-55.246	462.635	1172.181	3293.307
-54.232	62.435	2825.847	3537.354
-53.217	71.592	2715.355	3535.776
-52.203	54.638	2440.957	2949.172
-51.188	46.815	2090.932	2433.916
-50.173	39.463	1962.224	2201.789
-49.159	37.894	1951.278	2171.866
-48.144	37.371	1948.164	2162.464
-47.130	37.203	1946.015	2158.121
-46.115	37.194	1944.102	2155.809
-45.100	37.315	1943.040	2155.899
-44.086	37.265	1941.327	2153.359
-43.071	37.242	1939.112	2150.560
-42.057	37.002	1939.330	2148.036
-41.042	37.181	1936.819	2147.160
-40.027	37.148	1936.244	2146.073
-39.013	37.212	1933.338	2143.478
-37.998	37.127	1932.197	2141.183
-36.984	37.101	1931.541	2140.087
-35.969	37.121	1929.906	2138.413
-34.954	37.230	1927.392	2136.746
-33.940	37.043	1927.293	2134.484
-32.925	36.962	1927.022	2133.197
-31.911	36.919	1925.194	2130.620
-30.896	36.893	1924.068	2129.000
-29.881	37.140	1921.855	2129.192
-28.867	36.947	1920.573	2125.555
-27.852	36.923	1919.793	2124.345
-26.838	36.838	1918.034	2121.386
-25.823	36.887	1916.797	2120.472
-24.809	36.814	1915.949	2118.647
-23.794	36.893	1914.131	2117.421
-22.779	36.802	1913.042	2115.130
-21.765	36.743	1911.931	2113.166
-20.750	36.898	1910.193	2112.858
-19.736	36.869	1909.281	2111.447
-18.721	36.867	1907.285	2109.142
-17.706	36.780	1906.454	2107.183
-16.692	36.826	1905.840	2106.926
-15.677	36.704	1904.324	2103.838
-14.663	36.804	1901.906	2102.172
-13.648	36.793	1901.029	2101.001
-12.633	36.776	1900.267	2099.884
-11.619	36.767	1899.323	2098.662
-10.604	36.718	1897.442	2095.964
-9.590	36.676	1896.424	2094.307
-8.575	36.770	1894.945	2093.605
-7.560	36.648	1894.566	2091.782
-6.546	36.838	1891.310	2090.167
-5.531	36.657	1892.275	2089.180
-4.517	36.749	1890.715	2088.376
-3.502	36.765	1889.705	2087.346
-2.487	36.831	1889.104	2087.320
-1.473	36.751	1885.990	2082.925
-0.458	36.356	1863.509	2053.791
0.556	31.190	1993.941	2125.748
1.571	28.974	2207.494	2325.015
2.586	30.296	2254.817	2391.720
3.600	30.274	2258.256	2394.790
4.615	30.455	2257.588	2396.142
5.629	30.241	2255.745	2391.123
6.644	30.354	2252.635	2389.002
7.659	30.443	2250.709	2387.835
8.673	30.609	2250.420	2389.379
9.688	30.119	2254.562	2387.155
10.702	27.181	2325.520	2422.695
11.717	23.927	2390.295	2444.995
12.731	12.215	2359.792	2252.792
13.746	1.986	2332.388	2086.292
14.761	0.417	2327.983	2060.558
15.775	0.325	2325.487	2056.837
16.790	0.208	2324.350	2053.982
17.804	0.258	2322.209	2052.532
18.819	0.180	2320.825	2050.003
19.834	0.199	2319.008	2048.409
20.848	0.163	2318.439	2047.173
21.863	0.094	2317.329	2044.996
22.877	0.127	2314.733	2042.913
23.892	0.189	2311.962	2041.075
24.907	0.234	2309.922	2039.640
25.921	0.232	2308.335	2037.957
26.936	0.249	2306.003	2035.895
27.950	0.200	2303.608	2032.871
28.965	0.267	2301.505	2031.683
29.980	0.240	2300.736	2030.387
30.994	0.255	2299.376	2029.146
32.009	6.409	2319.128	2130.182
33.023	20.178	2361.023	2357.838
34.038	26.527	2372.614	2456.029
35.053	27.320	2371.717	2465.624
36.067	27.496	2369.232	2465.138
37.082	27.359	2367.656	2461.343
38.096	27.284	2365.053	2457.322
39.111	27.558	2364.191	2459.847
40.126	28.107	2362.578	2465.315
41.140	28.456	2362.056	2469.203
42.155	28.085	2359.227	2460.924
43.169	27.869	2357.538	2455.949
44.184	28.178	2354.164	2456.319
45.199	27.951	2353.029	2451.779
46.213	28.038	2350.554	2450.076
47.228	27.950	2350.248	2448.277
48.242	27.925	2348.592	2445.925
49.257	28.026	2346.460	2444.768
50.271	28.387	2345.257	2448.077
51.286	28.302	2342.648	2443.917
52.301	28.003	2339.355	2436.179
53.315	27.979	2341.656	2437.962
54.330	29.574	2344.250	2461.765
55.344	30.558	2343.145	2473.478
56.359	30.651	2340.013	2471.118
57.374	30.476	2338.845	2467.250
58.388	30.246	2335.653	2460.522
59.403	30.347	2331.218	2456.905
60.417	30.307	2327.809	2452.488
61.432	30.486	2327.407	2454.138
62.447	30.360	2325.028	2449.672
63.461	30.342	2322.596	2446.573
64.476	30.237	2320.876	2443.084
65.490	30.478	2320.959	2446.071
66.505	30.403	2318.525	2442.218
67.520	29.264	2313.067	2421.146
68.534	27.550	2305.509	2390.368
69.549	27.071	2301.253	2379.357
70.563	27.030	2298.876	2376.077
71.578	27.066	2297.052	2374.386
72.593	27.132	2296.254	2374.144
73.607	27.455	2294.609	2376.400
74.622	27.319	2293.086	2372.746
75.636	27.283	2288.773	2367.533
76.651	27.108	2287.306	2363.447
77.666	27.214	2285.423	2362.599
78.680	27.300	2284.146	2362.114
79.695	27.439	2282.484	2361.936
80.709	27.446	2281.259	2360.476
81.724	27.607	2278.916	2359.857
82.739	27.487	2276.638	2355.654
83.753	27.492	2274.190	2352.908
84.768	27.415	2272.451	2349.834
85.782	27.437	2271.194	2348.529
86.797	27.377	2269.317	2345.537
87.812	27.220	2267.185	2341.014
88.826	27.061	2264.782	2336.199
89.841	27.158	2262.952	2335.284
90.855	27.398	2260.509	2335.586
91.870	27.169	2258.278	2330.049
92.884	27.096	2258.289	2328.842
93.899	27.212	2257.454	2329.186
94.914	27.529	2257.502	2333.047
95.928	28.506	2259.910	2347.835
96.943	28.941	2257.908	2351.059
97.957	28.029	2252.232	2333.180
98.972	27.291	2247.220	2318.263
99.987	26.964	2244.874	2311.367
101.001	27.012	2241.976	2308.731
102.016	27.007	2240.585	2306.956
103.030	27.141	2237.609	2305.324
104.045	27.307	2236.190	2305.706
105.060	27.514	2235.263	2307.105
106.074	27.419	2234.006	2304.322
107.089	27.276	2231.774	2299.927
108.103	27.323	2230.557	2298.991
109.118	27.506	2229.758	2300.221
110.133	27.615	2227.637	2299.137
111.147	27.475	2224.987	2294.359
112.162	27.427	2223.067	2291.488
113.176	27.401	2221.260	2289.027
114.191	27.466	2219.715	2287.985
115.206	27.398	2217.518	2284.583
116.220	27.204	2215.848	2280.144
117.235	27.066	2213.113	2275.315
118.249	27.219	2211.253	2275.064
119.264	27.290	2210.566	2274.977
120.279	27.275	2207.980	2271.847
121.293	27.349	2205.538	2269.993
122.308	27.170	2204.265	2266.173
123.322	27.038	2203.726	2263.692
124.337	27.079	2202.773	2262.960
125.352	28.587	2207.185	2286.112
126.366	29.402	2207.336	2296.205
127.381	27.913	2199.495	2269.199
128.395	27.150	2194.618	2254.379
129.410	27.368	2192.170	2254.306
130.424	27.280	2191.225	2251.971
131.439	27.272	2190.118	2250.464
132.454	27.249	2188.008	2247.740
133.468	27.291	2185.908	2245.844
134.483	27.467	2184.776	2246.589
135.497	27.674	2183.514	2247.592
136.512	27.824	2181.880	2247.498
137.527	27.688	2180.537	2244.155
138.541	27.444	2177.778	2238.039
139.556	27.146	2176.867	2233.156
140.570	27.251	2175.283	2232.557
141.585	27.412	2173.068	2232.006
142.600	27.429	2172.898	2231.769
143.614	27.369	2170.227	2228.016
144.629	27.537	2168.487	2228.034
145.643	27.289	2167.062	2223.249
146.658	27.260	2165.406	2220.930
147.673	27.158	2162.707	2216.648
148.687	27.351	2160.976	2216.979
149.702	27.338	2160.656	2216.220
150.716	27.233	2160.080	2214.084
151.731	27.350	2158.238	2213.357
152.746	27.331	2157.356	2211.961
153.760	27.305	2157.542	2211.559
154.775	28.162	2159.433	2223.713
155.789	28.865	2158.501	2231.061
156.804	27.842	2152.049	2211.683
157.819	26.868	2146.344	2193.723
158.833	26.798	2144.182	2190.392
159.848	27.152	2142.810	2193.023
160.862	27.479	2141.452	2195.334
161.877	27.611	2141.313	2196.535
162.892	27.851	2141.194	2199.052
163.906	27.950	2139.833	2198.588
164.921	28.000	2138.617	2197.678
165.935	28.022	2136.387	2195.397
166.950	27.869	2133.556	2190.375
167.964	27.778	2130.627	2186.007
168.979	27.493	2129.089	2180.737
169.994	27.475	2127.340	2178.479
171.008	27.503	2124.991	2176.139
172.023	27.333	2123.685	2172.510
173.037	27.487	2123.798	2174.206
174.052	27.539	2121.986	2172.721
175.067	27.571	2120.086	2170.893
176.081	27.346	2117.675	2165.479
177.096	27.295	2117.536	2164.467
178.110	27.276	2115.140	2161.529
179.125	27.223	2113.980	2159.455
180.140	27.233	2113.503	2158.823
181.154	27.300	2112.123	2157.961
182.169	27.521	2110.236	2158.403
183.183	27.698	2111.903	2161.955
184.198	29.257	2114.165	2182.583
185.213	29.248	2111.633	2179.606
186.227	27.911	2105.134	2156.787
187.242	27.182	2102.233	2144.909
188.256	27.154	2099.446	2141.480
189.271	27.332	2098.703	2142.569
190.286	27.369	2097.426	2141.452
191.300	27.330	2094.727	2137.970
192.315	27.198	2092.827	2134.225
193.329	27.493	2092.404	2137.010
194.344	27.792	2092.736	2140.619
195.359	27.995	2091.993	2142.002
196.373	28.242	2090.174	2142.782
197.388	27.866	2086.525	2134.368
198.402	27.637	2083.950	2128.791
199.417	27.718	2081.267	2126.746
200.432	27.747	2079.925	2125.468
201.446	27.471	2079.176	2121.212
202.461	27.472	2076.651	2118.392
203.475	27.222	2074.900	2113.430
204.490	27.293	2071.760	2110.814
205.504	27.202	2071.054	2108.781
206.519	27.201	2067.999	2105.407
207.534	27.295	2067.024	2105.249
208.548	27.309	2065.803	2103.923
209.563	27.150	2063.012	2098.977
210.577	27.055	2062.250	2096.849
211.592	27.397	2062.783	2101.109
212.607	27.563	2063.903	2103.921
213.621	27.985	2064.795	2109.477
214.636	27.999	2062.435	2106.983
215.650	27.424	2057.785	2095.332
216.665	27.150	2055.318	2089.402
217.680	27.309	2053.764	2089.410
218.694	27.289	2051.536	2086.662
219.709	27.273	2051.042	2085.721
220.723	27.509	2049.911	2087.033
221.738	27.791	2048.338	2088.435
222.753	27.917	2045.601	2086.839
223.767	27.402	2043.683	2078.726
224.782	27.291	2041.893	2075.377
225.796	27.458	2040.697	2075.836
226.811	27.639	2040.084	2077.034
227.826	27.776	2038.532	2076.771
228.840	27.623	2036.271	2072.469
229.855	27.553	2035.618	2070.755
230.869	27.499	2033.706	2067.943
231.884	27.359	2031.818	2064.188
232.899	27.329	2031.715	2063.492
233.913	27.477	2030.331	2063.525
234.928	27.608	2029.195	2063.613
235.942	27.573	2027.078	2060.816
236.957	27.349	2026.483	2057.420
237.972	27.457	2024.235	2056.113
238.986	27.446	2022.943	2054.428
240.001	27.325	2020.566	2050.398
241.015	27.217	2018.933	2047.282
242.030	27.759	2019.262	2053.503
243.045	29.255	2022.226	2073.196
244.059	29.653	2022.064	2077.284
245.074	28.413	2014.913	2055.719
246.088	27.612	2011.284	2042.746
247.103	27.727	2009.163	2041.649
248.117	27.810	2008.147	2041.303
249.132	27.565	2006.543	2036.677
250.147	27.422	2004.536	2032.788
251.161	27.312	2003.368	2030.128
252.176	27.533	2002.427	2031.403
253.190	27.585	2000.189	2029.478
254.205	27.553	1997.043	2025.681
255.220	27.534	1996.804	2024.983
256.234	27.348	1995.637	2021.480
257.249	27.273	1994.203	2018.952
258.263	27.216	1993.952	2017.822
259.278	27.476	1992.214	2018.717
260.293	27.437	1990.399	2016.207
261.307	27.380	1988.091	2012.986
262.322	27.351	1986.974	2011.291
263.336	27.081	1984.682	2005.735
264.351	26.956	1982.686	2002.094
265.366	27.068	1980.848	2001.243
266.380	27.157	1980.852	2001.991
267.395	26.977	1978.254	1997.137
268.409	26.944	1976.700	1994.963
269.424	27.295	1975.779	1997.667
270.439	27.136	1975.801	1995.696
271.453	27.622	1975.552	2000.568
272.468	28.900	1977.467	2016.370
273.482	28.948	1975.475	2014.627
274.497	27.579	1969.205	1992.949
275.512	27.244	1964.770	1984.552
276.526	27.112	1963.102	1981.186
277.541	26.994	1961.222	1977.759
278.555	26.969	1959.712	1975.726
279.570	26.733	1957.488	1970.662
280.585	26.907	1955.619	1970.448
281.599	26.944	1955.542	1970.540
282.614	27.139	1954.550	1971.425
283.628	27.614	1954.176	1975.996
284.643	27.843	1953.170	1977.226
285.657	27.693	1952.587	1974.775
286.672	27.678	1950.020	1971.781
287.687	27.563	1948.514	1968.768
288.701	27.215	1946.329	1962.547
289.716	27.238	1944.765	1960.985
290.730	27.528	1944.457	1963.585
291.745	27.653	1943.339	1963.578
292.760	27.550	1942.517	1961.397
293.774	27.432	1941.298	1958.653
294.789	27.471	1940.512	1958.045
295.803	27.597	1939.264	1957.911
296.818	27.557	1937.533	1955.495
297.833	27.532	1936.709	1954.162
298.847	27.594	1934.837	1952.706
299.862	27.563	1933.131	1950.425
300.876	27.906	1932.843	1953.585
301.891	29.335	1935.709	1971.623
302.906	29.592	1933.898	1972.295
303.920	28.207	1928.742	1951.965
304.935	27.697	1925.442	1942.935
305.949	27.610	1923.281	1939.594
306.964	27.916	1922.614	1941.960
307.979	27.766	1920.114	1937.597
308.993	27.365	1917.923	1930.882
310.008	27.318	1915.983	1928.198
311.022	27.466	1915.408	1928.956
312.037	27.489	1914.456	1928.019
313.052	27.553	1911.738	1925.729
314.066	27.378	1909.841	1921.727
315.081	27.427	1909.156	1921.333
316.095	27.379	1908.520	1919.948
317.110	27.317	1907.052	1917.587
318.125	27.198	1905.420	1914.454
319.139	27.151	1903.545	1911.848
320.154	27.267	1901.912	1911.201
321.168	27.050	1900.300	1907.063
322.183	27.239	1898.993	1907.521
323.197	27.405	1898.890	1908.937
324.212	27.401	1897.271	1907.040
325.227	27.298	1893.864	1902.309
326.241	27.098	1891.944	1898.046
327.256	27.170	1891.013	1897.636
328.270	27.138	1891.080	1897.150
329.285	27.305	1889.807	1897.389
330.300	27.644	1890.919	1901.837
331.314	28.787	1892.611	1915.294
332.329	29.022	1890.831	1915.724
333.343	27.723	1885.996	1897.028
334.358	27.205	1883.047	1888.434
335.373	27.336	1880.737	1887.255
336.387	27.239	1879.253	1884.531
337.402	27.142	1877.755	1881.787
338.416	27.199	1876.216	1880.611
339.431	27.220	1874.775	1879.163
340.446	27.344	1873.891	1879.334
341.460	27.565	1871.826	1879.337
342.475	27.541	1871.113	1878.140
343.489	27.388	1867.858	1873.073
344.504	27.156	1867.075	1869.661
345.519	27.281	1865.798	1869.451
346.533	27.420	1863.499	1868.359
347.548	27.353	1862.364	1866.311
348.562	27.245	1861.721	1864.330
349.577	27.442	1861.717	1866.123
350.592	27.690	1860.656	1867.396
351.606	27.920	1859.541	1868.415
352.621	27.791	1857.090	1864.405
353.635	27.468	1855.813	1859.589
354.650	27.223	1853.828	1854.862
355.665	27.238	1851.948	1852.916
356.679	27.337	1850.968	1852.722
357.694	27.375	1850.677	1852.603
358.708	27.458	1850.192	1852.738
359.723	27.922	1850.568	1857.636
360.738	28.968	1851.441	1868.986
361.752	28.963	1849.032	1866.277
362.767	28.087	1843.698	1851.754
363.781	27.572	1841.094	1843.688
364.796	27.517	1839.765	1841.571
365.810	27.593	1838.603	1840.960
366.825	27.274	1837.075	1835.978
367.840	27.028	1836.100	1832.290
368.854	27.086	1834.463	1831.027
369.869	27.089	1832.325	1828.700
370.883	27.081	1830.647	1826.723
371.898	27.122	1830.269	1826.547
372.913	27.166	1828.887	1825.393
373.927	27.218	1827.276	1824.086
374.942	27.100	1826.987	1822.391
375.956	27.291	1825.572	1822.691
376.971	27.097	1823.376	1818.327
377.986	27.328	1822.124	1819.183
379.000	27.512	1820.603	1819.289
380.015	27.519	1818.854	1817.396
381.029	27.358	1817.625	1814.341
382.044	27.470	1816.598	1814.217
383.059	27.523	1814.659	1812.596
384.073	27.240	1813.855	1808.742
385.088	27.041	1812.916	1805.606
386.102	27.279	1811.580	1806.432
387.117	27.413	1809.951	1805.921
388.132	27.459	1809.561	1805.778
389.146	27.679	1810.566	1808.762
390.161	28.719	1811.433	1819.775
391.175	29.074	1806.398	1818.025
392.190	27.939	1801.759	1801.891
393.205	27.398	1799.823	1794.384
394.219	27.294	1798.429	1791.745
395.234	27.191	1796.244	1788.341
396.248	26.990	1794.475	1784.373
397.263	27.049	1792.070	1782.356
398.278	27.058	1790.113	1780.287
399.292	26.827	1789.851	1777.531
400.307	27.207	1789.822	1781.032
401.321	27.449	1788.409	1781.797
402.336	27.489	1786.859	1780.435
403.350	27.410	1785.540	1778.131
404.365	27.573	1784.120	1778.103
405.380	27.579	1783.022	1776.847
406.394	27.392	1781.624	1773.418
407.409	27.159	1779.693	1769.002
408.423	27.228	1778.166	1767.947
409.438	27.259	1777.101	1766.983
410.453	27.143	1776.430	1764.972
411.467	27.168	1775.039	1763.616
412.482	27.110	1773.677	1761.485
413.496	27.198	1772.379	1760.847
414.511	27.272	1771.285	1760.265
415.526	27.389	1768.835	1758.761
416.540	27.559	1767.985	1759.349
417.555	27.418	1766.869	1756.668
418.569	27.315	1767.491	1756.077
419.584	27.511	1766.857	1757.137
420.599	27.504	1765.188	1755.198
421.613	27.167	1763.019	1749.569
422.628	27.025	1761.879	1746.857
423.642	27.191	1760.852	1747.230
424.657	27.081	1759.056	1744.175
425.672	26.922	1757.930	1741.317
426.686	27.071	1757.773	1742.397
427.701	27.321	1756.238	1743.068
428.715	27.711	1754.514	1744.901
429.730	27.898	1754.365	1746.341
430.745	27.863	1752.346	1743.783
431.759	27.598	1751.567	1740.263
432.774	27.241	1750.139	1735.207
433.788	26.508	1746.978	1724.847
434.803	25.932	1745.423	1717.588
435.818	25.881	1744.428	1715.915
436.832	25.888	1743.468	1714.837
437.847	25.330	1737.246	1703.194
438.861	16.238	1710.721	1591.216
439.876	3.535	1687.267	1449.821
440.890	0.587	1680.752	1416.284
441.905	0.335	1679.912	1413.028
442.920	0.237	1678.974	1411.154
443.934	0.258	1677.236	1409.724
444.949	0.138	1676.006	1407.392
445.963	0.220	1674.817	1406.994
446.978	0.189	1674.598	1406.345
447.993	0.169	1673.494	1405.067
449.007	0.177	1671.069	1402.941
450.022	0.156	1669.260	1401.053
451.036	0.168	1667.548	1399.562
452.051	1.500	1674.086	1417.371
453.066	12.163	1699.799	1540.024
454.080	23.649	1717.903	1665.169
455.095	27.280	1724.829	1705.981
456.109	29.920	1729.389	1735.201
457.124	30.617	1729.798	1741.971
458.139	30.254	1727.467	1736.000
459.153	29.765	1726.197	1729.923
460.168	29.580	1723.662	1725.430
461.182	29.597	1721.696	1723.424
462.197	29.621	1720.090	1721.834
463.212	29.551	1718.877	1719.753
464.226	29.519	1717.546	1717.918
465.241	29.995	1716.803	1721.421
466.255	30.184	1715.513	1721.680
467.270	30.106	1714.540	1719.772
468.285	29.931	1712.989	1716.379
469.299	29.768	1711.823	1713.485
470.314	30.028	1710.608	1714.481
471.328	30.001	1709.192	1712.614
472.343	29.942	1708.812	1711.480
473.358	30.011	1707.477	1710.575
474.372	29.820	1705.829	1706.947
475.387	30.031	1703.746	1706.614
476.401	29.967	1702.605	1704.676
477.416	29.716	1701.388	1700.934
478.430	29.955	1700.987	1702.534
479.445	29.986	1698.950	1700.578
480.460	29.730	1697.338	1696.399
481.474	29.655	1696.870	1695.036
482.489	29.900	1695.850	1696.078
483.503	30.139	1694.393	1696.613
484.518	30.153	1693.001	1695.143
485.533	30.206	1691.875	1694.299
486.547	30.340	1690.703	1694.153
487.562	30.739	1689.611	1696.513
488.576	30.749	1688.739	1695.531
489.591	30.757	1687.615	1694.265
490.606	30.584	1685.889	1690.754
491.620	30.482	1684.189	1687.912
492.635	30.775	1682.350	1688.538
493.649	30.602	1680.898	1685.309
494.664	30.189	1679.165	1679.607
495.679	29.498	1677.144	1671.099
496.693	29.761	1675.937	1672.084
497.708	30.201	1675.923	1675.866
498.722	30.468	1676.013	1678.181
499.737	30.634	1674.578	1678.051
500.752	30.510	1672.371	1674.521
501.766	30.252	1670.429	1670.039
502.781	30.345	1668.824	1669.077
503.795	30.332	1667.063	1666.998
504.810	30.232	1666.353	1665.180
505.825	30.314	1666.372	1665.747
506.839	30.385	1665.069	1664.879
507.854	30.302	1663.249	1662.116
508.868	30.250	1661.616	1659.817
509.883	30.023	1660.458	1656.423
510.898	30.070	1658.831	1655.020
511.912	29.971	1657.360	1652.466
512.927	29.833	1654.465	1648.145
513.941	29.896	1653.619	1647.674
514.956	30.267	1653.796	1650.971
515.971	31.110	1653.691	1658.201
516.985	30.653	1652.804	1653.031
518.000	30.375	1651.135	1648.686
519.014	30.357	1649.410	1646.601
520.029	30.241	1647.841	1643.804
521.043	30.109	1645.456	1640.059
522.058	29.853	1644.866	1637.001
523.073	29.962	1644.520	1637.422
524.087	30.342	1643.308	1639.398
525.102	30.601	1641.394	1639.590
526.116	30.249	1640.626	1635.506
527.131	30.205	1639.776	1634.076
528.146	30.617	1639.141	1636.890
529.160	30.782	1638.639	1637.651
530.175	30.884	1637.799	1637.521
531.189	30.958	1637.051	1637.231
532.204	31.064	1635.087	1636.006
533.219	30.676	1633.207	1630.507
534.233	30.276	1631.534	1625.122
535.248	30.339	1630.637	1624.592
536.262	30.854	1630.895	1629.180
537.277	31.248	1629.692	1631.242
538.292	31.183	1628.605	1629.388
539.306	31.084	1626.464	1626.189
540.321	30.996	1624.768	1623.524
541.335	30.660	1623.620	1619.241
542.350	31.036	1621.687	1620.404
543.365	31.262	1621.288	1621.784
544.379	31.339	1620.773	1621.753
545.394	31.475	1619.246	1621.216
546.408	30.877	1615.634	1612.203
547.423	30.352	1613.694	1605.511
548.438	30.078	1613.068	1602.318
549.452	30.303	1612.269	1603.281
550.467	30.534	1611.853	1604.681
551.481	30.773	1611.329	1606.046
552.496	30.794	1611.119	1605.826
553.511	31.147	1610.289	1607.864
554.525	31.094	1608.691	1605.611
555.540	31.002	1607.666	1603.601
556.554	31.047	1606.511	1602.648
557.569	30.951	1604.887	1600.007
558.583	30.744	1603.203	1596.356
559.598	30.801	1601.942	1595.400
560.613	30.708	1600.549	1593.015
561.627	30.748	1599.402	1592.028
562.642	30.628	1597.380	1588.797
563.656	30.651	1596.121	1587.548
564.671	30.550	1594.964	1585.346
565.686	30.441	1593.339	1582.607
566.700	30.303	1592.312	1580.213
567.715	30.514	1590.732	1580.264
568.729	30.776	1589.916	1581.497
569.744	31.289	1589.267	1585.040
570.759	31.409	1589.021	1585.635
571.773	30.947	1587.736	1580.222
572.788	31.054	1585.794	1579.011
573.802	30.825	1583.636	1574.729
574.817	30.581	1581.972	1570.812
575.832	30.532	1580.638	1568.885
576.846	30.816	1579.565	1570.038
577.861	30.774	1579.188	1569.121
578.875	30.980	1578.870	1570.359
579.890	31.309	1577.728	1571.824
580.905	31.327	1577.186	1571.249
581.919	31.545	1576.623	1572.340
582.934	31.644	1575.713	1572.079
583.948	31.542	1574.684	1570.001
584.963	31.372	1572.735	1566.443
585.978	31.066	1570.830	1561.782
586.992	31.063	1570.205	1560.944
588.007	31.412	1570.163	1563.653
589.021	30.992	1568.009	1557.794
590.036	30.228	1566.129	1549.329
591.051	30.929	1565.886	1554.780
592.065	31.550	1564.888	1558.807
593.080	31.833	1563.933	1560.036
594.094	31.818	1562.377	1558.175
595.109	31.259	1559.237	1550.191
596.123	30.845	1556.977	1544.307
597.138	31.176	1556.469	1546.378
598.153	31.228	1555.408	1545.571
599.167	31.263	1554.176	1544.454
600.182	31.150	1553.675	1542.832
601.196	31.148	1553.154	1542.117
602.211	31.213	1551.305	1540.635
603.226	31.369	1550.761	1541.201
604.240	31.377	1549.534	1539.862
605.255	31.559	1547.787	1539.450
606.269	31.608	1547.103	1538.992
607.284	31.315	1546.869	1536.148
608.299	31.436	1544.611	1534.724
609.313	31.369	1542.395	1531.781
610.328	31.292	1541.037	1529.622
611.342	31.305	1540.340	1528.850
612.357	31.308	1539.957	1528.309
613.372	31.189	1538.306	1525.518
614.386	30.986	1537.233	1522.597
615.401	31.177	1536.463	1523.223
616.415	31.141	1535.527	1521.821
617.430	30.868	1534.533	1518.410
618.445	30.764	1533.237	1516.094
619.459	30.879	1531.518	1515.159
620.474	30.900	1530.377	1514.015
621.488	30.975	1530.578	1514.648
622.503	31.488	1530.037	1518.116
623.518	31.370	1527.632	1514.592
624.532	31.065	1526.420	1510.724
625.547	30.903	1525.125	1507.942
626.561	30.842	1524.075	1506.227
627.576	30.826	1523.706	1505.552
628.591	31.388	1522.717	1508.958
629.605	31.767	1522.407	1511.549
630.620	31.982	1520.955	1511.667
631.634	32.094	1520.334	1511.771
632.649	32.101	1519.491	1510.810
633.663	32.117	1517.366	1508.643
634.678	31.591	1515.305	1502.171
635.693	31.286	1512.941	1497.192
636.707	31.110	1511.859	1494.526
637.722	30.997	1510.959	1492.545
638.736	31.212	1510.146	1493.299
639.751	31.455	1509.431	1494.358
640.766	31.505	1508.365	1493.526
641.780	31.390	1506.766	1490.843
642.795	31.406	1505.456	1489.495
643.809	31.673	1505.744	1491.743
644.824	31.820	1505.271	1492.272
645.839	31.798	1504.076	1490.736
646.853	31.847	1502.013	1488.904
647.868	31.563	1500.734	1485.188
648.882	31.417	1499.373	1482.501
649.897	31.489	1497.619	1481.164
650.912	31.644	1496.349	1480.960
651.926	31.860	1496.532	1482.684
652.941	31.830	1495.114	1480.866
653.955	31.458	1492.227	1474.881
654.970	30.834	1489.644	1467.207
655.985	30.760	1488.253	1465.073
656.999	30.508	1487.290	1461.959
658.014	30.828	1486.807	1463.841
659.028	31.304	1486.852	1467.473
660.043	31.818	1486.737	1471.239
661.058	31.882	1485.867	1470.702
662.072	31.784	1485.047	1468.943
663.087	31.596	1483.179	1465.437
664.101	31.377	1481.910	1462.293
665.116	31.289	1481.501	1461.021
666.131	31.468	1479.961	1460.734
667.145	31.667	1478.086	1460.264
668.160	31.717	1477.208	1459.617
669.174	31.608	1476.388	1457.780
670.189	31.808	1474.470	1457.272
671.204	31.825	1473.884	1456.650
672.218	31.686	1473.271	1454.783
673.233	31.769	1472.347	1454.345
674.247	31.953	1471.111	1454.389
675.262	31.831	1470.141	1452.299
676.276	31.702	1468.650	1449.651
677.291	31.767	1467.381	1448.731
678.306	31.644	1466.721	1446.948
679.320	31.488	1464.784	1443.657
680.335	31.464	1463.861	1442.385
681.349	31.534	1463.500	1442.401
682.364	31.639	1462.584	1442.143
683.379	31.479	1460.657	1438.833
684.393	31.408	1458.774	1436.255
685.408	31.336	1458.420	1435.182
686.422	31.202	1456.816	1432.394
687.437	31.081	1456.168	1430.650
688.452	30.935	1455.258	1428.461
689.466	30.865	1453.692	1426.218
690.481	30.917	1452.800	1425.570
691.495	31.371	1452.574	1428.667
692.510	31.880	1453.531	1433.350
693.525	32.246	1451.582	1434.068
694.539	31.878	1449.986	1429.493
695.554	31.359	1448.188	1423.581
696.568	31.105	1446.202	1419.515
697.583	30.825	1445.840	1416.850
698.598	31.069	1444.915	1417.636
699.612	31.323	1443.453	1417.968
700.627	31.361	1442.614	1417.265
701.641	31.590	1441.164	1417.417
702.656	31.542	1440.441	1416.170
703.671	31.501	1440.548	1415.791
704.685	31.626	1440.815	1416.838
705.700	31.496	1439.311	1414.199
706.714	31.627	1436.878	1412.635
707.729	31.574	1435.172	1410.386
708.744	31.728	1433.929	1410.164
709.758	31.869	1432.802	1409.949
710.773	31.133	1430.941	1402.394
711.787	30.764	1429.167	1397.705
712.802	31.448	1428.778	1402.314
713.816	31.849	1428.952	1405.336
714.831	31.784	1428.311	1404.048
715.846	31.767	1426.605	1402.078
716.860	31.662	1425.310	1399.848
717.875	31.655	1424.308	1398.643
718.889	31.443	1423.006	1395.607
719.904	31.539	1421.278	1394.466
720.919	31.446	1420.564	1392.898
721.933	31.425	1419.176	1391.218
722.948	31.396	1418.741	1390.406
723.962	31.475	1417.360	1389.474
724.977	31.455	1416.112	1387.938
725.992	31.479	1415.271	1387.128
727.006	31.670	1414.495	1387.623
728.021	31.666	1412.797	1385.763
729.035	31.805	1411.504	1385.362
730.050	31.578	1410.589	1382.609
731.065	31.482	1409.649	1380.807
732.079	31.432	1408.788	1379.429
733.094	31.544	1407.767	1379.096
734.108	31.569	1406.141	1377.523
735.123	31.481	1404.731	1375.328
736.138	31.424	1403.430	1373.466
737.152	31.351	1402.908	1372.253
738.167	31.302	1401.516	1370.363
739.181	31.478	1400.392	1370.396
740.196	31.491	1399.957	1369.903
741.211	31.502	1398.868	1368.754
742.225	31.317	1398.434	1366.808
743.240	31.353	1396.428	1364.946
744.254	31.166	1395.039	1362.055
745.269	30.991	1393.264	1358.877
746.284	30.791	1392.391	1356.398
747.298	30.869	1392.205	1356.626
748.313	31.236	1391.551	1358.513
749.327	31.627	1391.444	1361.105
750.342	32.220	1391.053	1364.885
751.356	32.243	1390.732	1364.575
752.371	31.946	1388.646	1360.205
753.386	31.421	1386.443	1354.061
754.400	31.215	1385.089	1351.074
755.415	31.284	1384.745	1351.080
756.429	31.576	1383.678	1352.001
757.444	31.700	1381.841	1350.941
758.459	31.619	1381.252	1349.616
759.473	31.260	1380.409	1346.029
760.488	31.256	1378.632	1344.112
761.502	31.072	1377.863	1341.871
762.517	31.288	1376.472	1341.915
763.532	31.489	1375.615	1342.369
764.546	31.592	1374.253	1341.620
765.561	31.127	1373.141	1337.029
766.575	30.441	1370.440	1329.305
767.590	30.439	1369.452	1328.169
768.605	31.224	1369.990	1334.174
769.619	31.633	1368.949	1335.935
770.634	31.598	1367.775	1334.379
771.648	31.217	1366.393	1330.146
772.663	31.135	1365.130	1328.167
773.678	31.242	1364.707	1328.362
774.692	31.452	1364.446	1329.452
775.707	31.467	1363.881	1328.851
776.721	31.501	1362.784	1327.862
777.736	31.253	1361.597	1324.781
778.751	31.335	1360.557	1324.197
779.765	31.378	1360.058	1323.853
780.780	31.133	1359.292	1321.210
781.794	31.220	1358.224	1320.633
782.809	30.994	1356.582	1317.270
783.824	30.584	1355.464	1313.116
784.838	30.814	1354.979	1314.125
785.853	31.489	1354.488	1318.271
786.867	31.775	1353.434	1319.115
787.882	31.268	1352.630	1314.589
788.897	31.008	1351.342	1311.337
789.911	30.689	1349.808	1307.439
790.926	30.678	1348.140	1305.588
791.940	30.763	1346.885	1304.821
792.955	30.677	1345.584	1302.793
793.969	30.689	1345.337	1302.484
794.984	30.717	1344.400	1301.617
795.999	31.120	1343.242	1303.175
797.013	31.070	1341.861	1301.329
798.028	31.218	1339.816	1300.221
799.042	31.104	1339.828	1299.280
800.057	31.209	1338.387	1298.460
801.072	31.091	1337.092	1296.226
802.086	31.135	1335.873	1295.195
803.101	31.182	1334.593	1294.125
804.115	31.030	1334.447	1292.776
805.130	31.190	1333.343	1292.665
806.145	30.936	1331.919	1289.359
807.159	30.953	1330.871	1288.310
808.174	31.199	1329.935	1288.958
809.188	31.300	1328.748	1288.354
810.203	31.276	1327.475	1286.797
811.218	31.081	1325.497	1283.377
812.232	30.802	1323.451	1279.319
813.247	30.499	1322.868	1276.508
814.261	30.985	1322.740	1279.584
815.276	31.157	1322.188	1280.086
816.291	31.008	1320.659	1277.427
817.305	30.681	1319.867	1274.257
818.320	30.883	1318.418	1274.091
819.334	30.871	1317.737	1273.202
820.349	31.106	1315.965	1272.946
821.364	31.015	1314.669	1270.921
822.378	30.826	1313.652	1268.488
823.393	30.875	1311.606	1266.699
824.407	30.760	1311.379	1265.542
825.422	30.704	1311.208	1264.841
826.437	30.693	1310.037	1263.484
827.451	30.701	1307.945	1261.368
828.466	31.029	1307.587	1263.106
829.480	31.563	1305.863	1264.922
830.495	31.155	1304.033	1260.226
831.509	30.706	1302.178	1255.241
832.524	30.772	1300.947	1254.352
833.539	30.838	1300.119	1253.852
834.553	30.968	1298.872	1253.377
835.568	30.759	1297.930	1250.903
836.582	30.902	1296.575	1250.412
837.597	31.005	1295.516	1249.936
838.612	30.768	1294.182	1246.907
839.626	30.828	1293.014	1246.031
840.641	30.791	1292.729	1245.361
841.655	30.818	1291.491	1244.200
842.670	30.562	1289.856	1240.760
843.685	29.967	1288.086	1234.924
844.699	30.391	1287.301	1236.859
845.714	30.726	1286.272	1237.962
846.728	30.644	1285.305	1236.340
847.743	30.493	1284.821	1234.714
848.758	30.620	1283.838	1234.471
849.772	30.570	1282.964	1233.145
850.787	30.798	1281.018	1232.650
851.801	30.556	1280.197	1230.103
852.816	30.666	1279.232	1229.759
853.831	30.705	1277.799	1228.494
854.845	30.603	1276.036	1225.974
855.860	30.417	1274.685	1223.299
856.874	30.534	1273.631	1222.912
857.889	30.858	1272.896	1224.202
858.904	31.410	1272.694	1227.506
859.918	31.694	1271.986	1228.549
860.933	31.835	1270.503	1227.899
861.947	31.510	1269.646	1224.784
862.962	30.864	1268.165	1218.964
863.977	30.702	1265.735	1215.418
864.991	30.539	1265.023	1213.518
866.006	30.458	1264.451	1212.293
867.020	30.527	1262.983	1211.193
868.035	30.546	1261.803	1210.043
869.049	30.446	1261.338	1208.794
870.064	30.662	1259.820	1208.605
871.079	30.692	1258.515	1207.406
872.093	30.646	1258.640	1207.079
873.108	30.373	1257.086	1203.668
874.122	30.416	1255.839	1202.607
875.137	30.187	1255.778	1200.917
876.152	30.196	1254.923	1200.015
877.166	30.239	1252.350	1197.688
878.181	30.356	1250.415	1196.450
879.195	30.373	1250.085	1196.101
880.210	30.271	1249.832	1195.055
881.225	30.424	1249.329	1195.426
882.239	30.414	1248.069	1194.010
883.254	30.545	1247.226	1193.909
884.268	30.466	1246.174	1192.246
885.283	30.452	1244.617	1190.524
886.298	30.365	1242.963	1188.242
887.312	30.382	1242.576	1187.841
888.327	30.466	1241.670	1187.371
889.341	30.473	1240.055	1185.727
890.356	30.442	1239.232	1184.603
891.371	30.329	1239.210	1183.716
892.385	30.537	1238.742	1184.460
893.400	30.456	1237.807	1182.901
894.414	30.418	1236.554	1181.317
895.429	30.634	1235.756	1181.799
896.444	31.235	1235.165	1184.928
897.458	31.644	1234.014	1186.287
898.473	31.715	1232.508	1185.149
899.487	30.954	1231.131	1178.843
900.502	30.592	1229.207	1174.561
901.517	30.279	1228.434	1171.697
902.531	30.320	1227.155	1170.599
903.546	30.371	1226.246	1169.911
904.560	30.363	1225.694	1169.196
905.575	30.255	1225.244	1167.942
906.589	30.130	1224.348	1166.157
907.604	30.178	1223.087	1165.121
