DTS Sentinel unit serial number:	SN409020Multiplexer serial number:	ORYXHardware model number:	OX4-SRSoftware version number:	ORYX F/W v3.00 Oryx Data Collector v3.7.2.0data status	okinstallation	HaddamTimeLapsedifferential loss correction	single-endedforward channel	channel 3reverse channel	N/Adate	2011/06/21time	20:51:16forward acquisition time	30.00reverse acquisition time	0.00gamma	498.7831k internal	0.1770k external	0.1770temperature offset calibration	1.0074default loss term (dB/km)	0.3790temperature slope calibration	1.3530multiplexer offset coefficient	1.0000multiplexer slope coefficient	1.0000fibre end	0.00T internal ref (°C)	28.50T ext. ref 1 (°C)	21.35T ext. ref 2 (°C)	0.03length (m)	temperature (°C)	Stokes	anti-Stokes-747.200	8.549	-0.372	0.368
-746.185	351.738	-0.028	-0.072
-745.171	-177.047	-0.517	-0.017
-744.156	800.000	0.056	0.310
-743.142	122.446	0.045	-0.075
-742.127	-29.163	0.320	0.240
-741.112	-7.460	-0.064	0.057
-740.098	800.000	-0.088	0.467
-739.083	-96.359	-0.328	0.113
-738.069	-200.000	0.008	-0.443
-737.054	37.345	0.176	0.205
-736.039	-200.000	-0.027	0.195
-735.025	-102.995	-0.576	-0.178
-734.010	-61.128	-0.155	0.085
-732.996	-200.000	0.009	-0.498
-731.981	-200.000	-0.021	-0.213
-730.966	-78.803	-0.215	-0.096
-729.952	7.656	-0.429	0.421
-728.937	358.660	-0.077	-0.204
-727.923	-134.803	0.141	-0.022
-726.908	-124.948	-0.172	0.034
-725.894	30.399	0.324	-0.364
-724.879	119.424	-0.077	-0.125
-723.864	-137.275	0.208	-0.031
-722.850	-200.000	0.001	-0.209
-721.835	297.821	0.242	-0.586
-720.821	-94.586	0.281	-0.100
-719.806	-100.716	-0.134	0.043
-718.791	-200.000	-0.020	-0.196
-717.777	408.009	-0.195	-0.544
-716.762	800.000	-0.121	0.664
-715.748	23.991	-0.269	-0.291
-714.733	-103.241	0.209	0.064
-713.718	-58.706	-0.323	-0.183
-712.704	-14.736	0.334	-0.282
-711.689	-80.841	-0.310	-0.135
-710.675	-103.430	0.413	-0.127
-709.660	-199.328	0.252	0.002
-708.645	-200.000	0.072	-0.493
-707.631	-79.778	0.085	0.037
-706.616	-200.000	-0.065	0.569
-705.602	800.000	-0.046	0.240
-704.587	89.212	0.239	0.350
-703.572	800.000	-0.080	0.304
-702.558	-2.076	-0.219	0.202
-701.543	163.148	0.126	-0.233
-700.529	-55.678	-0.172	-0.101
-699.514	16.874	0.161	0.167
-698.499	-83.403	-0.164	0.069
-697.485	-73.487	-0.273	0.130
-696.470	-108.685	0.256	0.071
-695.456	30.125	0.199	-0.222
-694.441	108.215	-0.219	-0.344
-693.426	-200.000	-0.084	0.615
-692.412	-152.414	0.441	0.041
-691.397	-167.869	0.148	-0.008
-690.383	-71.206	0.233	-0.114
-689.368	-23.262	0.273	-0.215
-688.354	99.867	0.085	-0.129
-687.339	373.317	0.056	0.151
-686.324	565.565	-0.059	0.189
-685.310	-200.000	-0.004	0.233
-684.295	-77.474	0.351	0.159
-683.281	-76.778	0.232	-0.106
-682.266	-84.677	-0.410	-0.168
-681.251	-136.407	0.141	0.021
-680.237	-24.661	-0.067	0.052
-679.222	-119.922	-0.452	-0.101
-678.208	-200.000	-0.020	-0.420
-677.193	-137.149	0.229	0.034
-676.178	419.926	-0.115	0.324
-675.164	-103.383	-0.355	-0.109
-674.149	568.638	-0.115	-0.367
-673.135	10.240	0.233	-0.233
-672.120	230.597	0.029	0.062
-671.105	-113.648	-0.448	0.114
-670.091	94.699	-0.214	-0.319
-669.076	-200.000	0.038	-0.604
-668.062	-112.992	-0.308	-0.079
-667.047	93.732	-0.171	-0.254
-666.032	-19.914	-0.432	0.349
-665.018	-13.347	-0.260	0.221
-664.003	252.030	-0.062	-0.138
-662.989	-195.108	0.351	-0.003
-661.974	-32.971	0.073	0.053
-660.959	-8.657	-0.049	0.043
-659.945	217.264	0.111	0.233
-658.930	800.000	0.019	-0.107
-657.916	-52.714	-0.181	-0.109
-656.901	65.765	0.196	-0.261
-655.886	186.947	-0.165	-0.324
-654.872	-107.221	-0.331	0.095
-653.857	74.303	0.194	0.267
-652.843	-97.617	-0.059	-0.020
-651.828	349.754	-0.203	-0.527
-650.814	243.842	-0.044	-0.097
-649.799	-22.160	-0.057	0.046
-648.784	-125.695	0.267	-0.052
-647.770	-80.830	0.125	-0.054
-646.755	270.122	0.058	0.135
-645.741	232.970	0.057	-0.124
-644.726	-34.673	0.223	-0.160
-643.711	143.109	0.263	-0.460
-642.697	-39.494	0.133	-0.091
-641.682	-60.325	-0.528	-0.293
-640.668	800.000	-0.139	-0.547
-639.653	-200.000	0.021	-0.601
-638.638	762.767	-0.029	-0.102
-637.624	164.581	0.197	-0.365
-636.609	89.472	-0.090	-0.132
-635.595	-127.183	0.591	-0.112
-634.580	-60.931	0.283	-0.156
-633.565	-97.867	-0.250	-0.084
-632.551	-4.619	0.166	-0.150
-631.536	-200.000	-0.009	-0.509
-630.522	82.805	0.117	-0.166
-629.507	-52.999	-0.515	-0.309
-628.492	-71.825	0.255	0.124
-627.478	461.086	-0.182	-0.533
-626.463	-35.393	-0.256	0.182
-625.449	-165.025	0.420	0.024
-624.434	-7.705	0.129	0.114
-623.419	-102.528	-0.122	0.038
-622.405	631.731	-0.129	-0.430
-621.390	-155.750	-0.446	-0.037
-620.376	-200.000	-0.027	0.192
-619.361	-85.435	-0.222	-0.090
-618.346	-200.000	0.025	0.167
-617.332	643.304	-0.034	0.112
-616.317	613.140	-0.034	0.114
-615.303	-83.063	0.421	-0.176
-614.288	-200.000	-0.003	-0.450
-613.273	12.715	-0.350	-0.354
-612.259	-49.499	-0.382	0.237
-611.244	800.000	0.011	0.044
-610.230	-65.992	-0.267	0.139
-609.215	800.000	-0.054	-0.257
-608.201	-200.000	0.011	-0.078
-607.186	-3.769	0.259	-0.234
-606.171	81.645	-0.028	0.040
-605.157	14.887	0.088	-0.090
-604.142	-127.594	-0.686	-0.129
-603.128	211.512	0.183	0.379
-602.113	197.997	0.086	0.173
-601.098	-38.708	-0.230	-0.158
-600.084	-4.855	-0.244	0.219
-599.069	201.681	-0.013	-0.027
-598.055	-200.000	-0.005	0.202
-597.040	51.940	-0.206	-0.257
-596.025	-200.000	-0.167	-0.967
-595.011	-32.943	0.277	0.201
-593.996	-200.000	-0.031	-0.407
-592.982	-108.093	-0.444	0.125
-591.967	62.466	-0.200	-0.262
-590.952	-64.694	-0.363	-0.191
-589.938	-96.931	0.383	-0.130
-588.923	8.943	-0.391	0.385
-587.909	78.152	0.206	0.288
-586.894	-105.458	0.213	0.063
-585.879	216.942	0.180	-0.376
-584.865	-143.726	-0.586	0.072
-583.850	-171.276	0.419	-0.018
-582.836	-77.088	0.462	-0.209
-581.821	-33.198	0.110	0.079
-580.806	-200.000	-0.026	-0.202
-579.792	-1.611	-0.431	-0.396
-578.777	-100.909	-0.656	-0.209
-577.763	-6.597	-0.331	-0.294
-576.748	217.133	-0.121	0.252
-575.733	-125.665	0.736	-0.144
-574.719	131.190	0.062	0.104
-573.704	-200.000	0.025	-0.413
-572.690	55.981	0.116	-0.147
-571.675	-54.021	0.092	0.054
-570.661	800.000	-0.094	0.341
-569.646	-78.175	0.592	-0.264
-568.631	41.316	0.243	-0.287
-567.617	-200.000	-0.070	-0.632
-566.602	-21.579	0.204	-0.162
-565.588	354.555	0.081	-0.211
-564.573	-108.237	-0.124	-0.035
-563.558	18.955	-0.371	0.388
-562.544	800.000	-0.036	-0.161
-561.529	-156.356	-0.362	0.029
-560.515	-38.503	0.347	-0.239
-559.500	800.000	0.015	0.076
-558.485	24.505	0.079	0.085
-557.471	-101.796	-0.150	-0.047
-556.456	-200.000	0.005	0.081
-555.442	70.596	0.218	0.294
-554.427	-33.025	0.191	-0.138
-553.412	116.318	-0.092	-0.148
-552.398	304.439	0.179	0.434
-551.383	-103.889	0.250	-0.076
-550.369	-102.665	-0.308	-0.095
-549.354	-153.826	0.264	0.023
-548.339	800.000	0.010	-0.039
-547.325	47.279	-0.145	0.176
-546.310	168.144	-0.171	0.317
-545.296	-11.905	-0.361	-0.308
-544.281	-131.276	-0.430	0.074
-543.266	-80.212	-0.334	0.145
-542.252	800.000	-0.068	0.286
-541.237	-98.454	0.600	0.199
-540.223	-45.800	-0.395	0.254
-539.208	-106.609	0.117	0.034
-538.193	-76.614	0.371	0.169
-537.179	95.178	-0.384	0.571
-536.164	625.384	-0.068	0.225
-535.150	-69.534	-0.147	0.073
-534.135	116.968	0.191	0.306
-533.121	-44.070	0.129	0.084
-532.106	-200.000	0.028	-0.214
-531.091	-200.000	-0.038	0.620
-530.077	362.680	0.062	0.163
-529.062	55.861	-0.089	-0.112
-528.048	-81.475	0.374	-0.160
-527.033	98.269	0.078	-0.117
-526.018	195.918	0.094	-0.187
-525.004	10.074	-0.242	0.239
-523.989	-91.800	-0.653	-0.240
-522.975	-121.333	-0.234	-0.050
-521.960	183.033	-0.230	-0.443
-520.945	737.288	-0.045	0.157
-519.931	-88.670	0.152	0.059
-518.916	-104.118	0.521	-0.157
-517.902	39.760	0.119	-0.139
-516.887	800.000	-0.033	-0.184
-515.872	790.721	-0.138	0.497
-514.858	420.808	0.152	0.427
-513.843	-165.915	0.394	-0.022
-512.829	800.000	-0.063	-0.248
-511.814	247.257	-0.159	-0.352
-510.799	-85.060	-0.232	-0.094
-509.785	-88.017	-0.428	-0.166
-508.770	-200.000	-0.007	-0.088
-507.756	-40.961	0.203	0.136
-506.741	367.936	-0.176	0.466
-505.726	-127.174	0.426	0.080
-504.712	178.276	-0.319	-0.609
-503.697	-73.357	-0.388	0.184
-502.683	-75.246	0.452	0.209
-501.668	33.952	0.117	0.132
-500.653	-47.371	0.253	-0.160
-499.639	240.799	0.236	0.514
-498.624	-200.000	0.016	0.185
-497.610	250.329	-0.037	-0.081
-496.595	800.000	-0.117	-0.468
-495.581	-37.668	-0.360	0.249
-494.566	260.592	-0.118	0.268
-493.551	60.621	0.130	0.167
-492.537	-52.255	-0.457	-0.275
-491.522	-200.000	0.025	0.596
-490.508	-200.000	0.037	0.340
-489.493	196.680	-0.220	-0.438
-488.478	-129.925	-0.203	0.036
-487.464	0.470	-0.402	0.373
-486.449	-6.930	0.247	0.218
-485.435	355.322	0.198	-0.514
-484.420	-145.741	0.335	0.038
-483.405	-11.996	-0.298	0.254
-482.391	800.000	-0.087	-0.378
-481.376	-95.832	0.336	-0.116
-480.362	-92.705	-0.266	0.096
-479.347	729.955	-0.119	-0.415
-478.332	-144.683	0.322	-0.038
-477.318	-173.767	0.275	-0.010
-476.303	-42.647	0.158	-0.104
-475.289	232.649	0.121	-0.259
-474.274	223.521	0.138	-0.291
-473.259	347.806	-0.235	-0.606
-472.245	8.892	0.129	0.126
-471.230	-147.191	-0.205	-0.022
-470.216	-160.837	0.273	0.019
-469.201	-46.476	0.493	-0.314
-468.186	-176.626	-0.223	0.007
-467.172	68.459	-0.365	0.487
-466.157	96.736	-0.276	0.412
-465.143	206.226	0.074	0.150
-464.128	-108.382	0.119	0.033
-463.113	-200.000	0.029	0.522
-462.099	-93.470	-0.228	-0.081
-461.084	-8.960	-0.466	0.405
-460.070	-75.137	-0.220	0.102
-459.055	-134.664	-0.641	0.100
-458.040	363.071	-0.141	0.369
-457.026	-200.000	-0.014	0.103
-456.011	146.210	-0.059	0.103
-454.997	104.734	-0.217	0.333
-453.982	162.990	0.150	-0.274
-452.968	558.106	0.160	-0.503
-451.953	38.632	0.213	0.247
-450.938	-146.998	0.336	0.037
-449.924	110.625	-0.213	-0.333
-448.909	14.724	-0.260	-0.264
-447.895	216.683	0.094	0.194
-446.880	800.000	0.008	0.030
-445.865	800.000	0.054	0.225
-444.851	-131.478	-0.122	-0.021
-443.836	-200.000	-0.037	0.388
-442.822	-200.000	0.008	0.088
-441.807	-200.000	-0.003	0.516
-440.792	-10.929	0.270	0.231
-439.778	-35.155	-0.401	0.283
-438.763	-31.445	0.197	0.144
-437.749	-24.283	0.154	-0.119
-436.734	39.886	-0.206	-0.240
-435.719	-200.000	0.076	-0.000
-434.705	-61.918	0.486	-0.263
-433.690	169.118	0.074	0.138
-432.676	28.439	0.150	-0.165
-431.661	-85.777	-0.268	-0.107
-430.646	-23.797	-0.357	-0.277
-429.632	-52.383	0.207	-0.124
-428.617	396.103	0.163	0.444
-427.603	-82.148	0.415	0.175
-426.588	62.923	-0.257	0.334
-425.573	93.493	0.097	0.143
-424.559	-200.000	-0.038	-0.239
-423.544	69.464	-0.280	0.374
-422.530	-123.466	0.165	-0.034
-421.515	-119.796	0.104	-0.023
-420.500	-147.049	-0.355	0.039
-419.486	800.000	-0.160	-0.590
-418.471	180.852	-0.085	-0.162
-417.457	-165.922	0.231	-0.013
-416.442	-33.115	0.525	-0.377
-415.428	129.317	0.209	0.346
-414.413	38.989	0.196	0.228
-413.398	-150.309	-0.401	-0.040
-412.384	15.243	-0.253	-0.258
-411.369	-129.686	-0.147	0.026
-410.355	-27.459	0.301	0.227
-409.340	262.819	-0.404	0.914
-408.325	-154.656	0.836	0.071
-407.311	-101.368	-0.612	-0.192
-406.296	39.397	0.080	-0.093
-405.282	-38.631	-0.281	-0.192
-404.267	57.093	-0.389	-0.492
-403.252	-32.175	0.438	-0.317
-402.238	-107.840	0.283	0.079
-401.223	78.163	-0.342	0.473
-400.209	672.827	-0.074	-0.249
-399.194	-34.004	-0.334	-0.238
-398.179	800.000	0.089	0.340
-397.165	149.688	-0.153	0.269
-396.150	114.906	-0.060	-0.095
-395.136	55.170	-0.047	-0.060
-394.121	-145.353	0.211	0.024
-393.106	322.187	0.224	0.554
-392.092	-200.000	0.066	0.401
-391.077	-99.541	0.206	-0.067
-390.063	38.939	0.114	-0.132
-389.048	520.602	0.169	0.518
-388.033	-200.000	-0.014	0.388
-387.019	-200.000	0.038	0.521
-386.004	13.441	0.063	0.064
-384.990	-132.788	-0.396	-0.065
-383.975	-28.793	0.099	0.074
-382.960	-93.736	0.401	-0.143
-381.946	-200.000	0.021	0.191
-380.931	657.852	0.081	-0.273
-379.917	-97.886	-0.357	-0.119
-378.902	41.125	0.306	0.358
-377.888	-101.507	-0.351	-0.110
-376.873	-0.504	-0.179	0.165
-375.858	-0.742	0.118	0.108
-374.844	153.144	-0.078	-0.139
-373.829	-189.702	0.357	0.005
-372.815	800.000	-0.050	-0.185
-371.800	2.950	0.201	0.189
-370.785	-70.761	-0.438	0.213
-369.771	-200.000	-0.002	0.629
-368.756	800.000	-0.096	-0.355
-367.742	-107.449	0.306	0.086
-366.727	-200.000	0.018	0.136
-365.712	34.581	-0.273	-0.309
-364.698	-142.199	-0.187	0.024
-363.683	214.467	-0.116	0.238
-362.669	223.663	0.033	-0.069
-361.654	-200.000	-0.007	0.183
-360.639	-200.000	0.815	0.004
-359.625	409.990	-0.132	0.363
-358.610	-86.932	0.225	0.089
-357.596	719.783	-0.092	-0.317
-356.581	3.971	-0.155	0.147
-355.566	708.995	-0.031	0.106
-354.552	-200.000	0.080	-0.804
-353.537	-26.812	-0.291	-0.219
-352.523	30.915	-0.236	-0.262
-351.508	22.433	-0.190	0.201
-350.493	-106.189	0.384	-0.111
-349.479	88.544	-0.189	0.272
-348.464	6.495	0.098	0.095
-347.450	12.148	0.299	0.298
-346.435	-181.099	0.238	-0.006
-345.420	800.000	-0.121	0.452
-344.406	-78.778	0.019	-0.009
-343.391	-85.936	-0.496	0.198
-342.377	-200.000	-0.020	0.124
-341.362	224.843	0.167	0.350
-340.348	-200.000	-0.030	0.298
-339.333	3.706	0.359	-0.339
-338.318	631.689	-0.049	-0.161
-337.304	-200.000	-0.032	-0.189
-336.289	800.000	0.042	-0.187
-335.275	-74.585	-0.237	0.110
-334.260	-114.593	-0.278	0.068
-333.245	-143.121	0.214	0.026
-332.231	-76.030	0.133	-0.060
-331.216	30.767	0.307	0.340
-330.202	-200.000	-0.067	0.382
-329.187	-200.000	-0.032	-0.205
-328.172	-80.396	0.211	0.091
-327.158	52.058	-0.430	0.530
-326.143	8.556	-0.149	-0.145
-325.129	-138.821	0.662	-0.092
-324.114	800.000	-0.107	-0.530
-323.099	94.551	0.088	-0.130
-322.085	-130.110	-0.124	-0.022
-321.070	-200.000	0.007	0.057
-320.056	-118.876	0.107	-0.024
-319.041	-9.751	-0.189	-0.163
-318.026	-176.828	-0.136	-0.004
-317.012	281.553	-0.168	-0.391
-315.997	41.490	-0.201	0.235
-314.983	-3.063	-0.491	0.442
-313.968	-104.477	-0.462	0.137
-312.953	-41.265	0.371	0.247
-311.939	-99.726	-0.231	-0.074
-310.924	-200.000	-0.039	0.455
-309.910	-163.296	-0.475	-0.029
-308.895	-156.221	0.291	-0.023
-307.880	333.382	0.138	-0.347
-306.866	31.819	0.316	-0.352
-305.851	88.539	0.219	-0.315
-304.837	-11.345	0.203	0.172
-303.822	-167.156	0.318	-0.016
-302.807	-112.141	-0.092	0.024
-301.793	-112.985	0.320	0.081
-300.778	7.542	0.330	-0.319
-299.764	-200.000	-0.099	0.001
-298.749	800.000	-0.047	0.196
-297.735	96.825	-0.300	-0.444
-296.720	-170.155	-0.364	-0.016
-295.705	146.610	-0.178	-0.310
-294.691	7.540	-0.542	-0.523
-293.676	-115.232	-0.245	-0.059
-292.662	6.093	0.413	0.395
-291.647	800.000	-0.070	0.283
-290.632	62.882	0.289	-0.374
-289.618	1.520	0.212	0.197
-288.603	222.955	0.263	0.550
-287.589	560.101	-0.216	0.678
-286.574	1.572	0.242	0.225
-285.559	-172.995	-0.314	-0.012
-284.545	57.619	0.150	0.190
-283.530	-200.000	-0.018	-0.320
-282.516	-8.964	0.264	0.228
-281.501	-200.000	0.000	-0.338
-280.486	-88.111	-0.379	0.146
-279.472	-57.906	0.301	-0.169
-278.457	800.000	-0.011	0.050
-277.443	-127.570	-0.190	-0.035
-276.428	-115.270	-0.410	-0.099
-275.413	65.384	0.227	-0.297
-274.399	-26.633	0.145	0.110
-273.384	-107.913	0.567	-0.158
-272.370	179.960	0.160	0.304
-271.355	-66.022	-0.573	0.294
-270.340	319.110	-0.111	-0.274
-269.326	256.461	0.191	-0.424
-268.311	133.023	-0.163	-0.273
-267.297	-58.763	0.393	0.219
-266.282	-145.849	0.294	-0.033
-265.267	153.548	-0.285	0.504
-264.253	-108.923	-0.202	-0.055
-263.238	220.776	-0.103	-0.214
-262.224	243.839	-0.209	0.454
-261.209	-22.627	-0.306	0.238
-260.195	-200.000	0.055	0.632
-259.180	25.125	0.075	-0.080
-258.165	371.069	0.018	0.048
-257.151	-200.000	-0.166	-0.000
-256.136	-109.120	-0.349	-0.095
-255.122	-93.863	-0.492	0.174
-254.107	632.192	0.206	0.677
-253.092	21.642	0.307	-0.323
-252.078	-102.751	0.200	-0.061
-251.063	-200.000	-0.010	0.150
-250.049	-18.326	-0.087	0.070
-249.034	-0.363	-0.103	0.094
-248.019	87.338	0.142	0.202
-247.005	-200.000	0.040	-0.777
-245.990	320.999	-0.234	-0.575
-244.976	479.859	0.028	0.081
-243.961	81.033	0.213	-0.297
-242.946	-110.311	-0.589	-0.157
-241.932	-36.338	-0.518	-0.359
-240.917	-101.527	0.142	0.044
-239.903	230.618	-0.190	-0.402
-238.888	-134.428	-0.295	-0.046
-237.873	-175.298	0.088	-0.003
-236.859	-200.000	0.029	0.180
-235.844	53.294	0.228	0.282
-234.830	-200.000	0.040	-0.395
-233.815	-136.604	0.372	-0.055
-232.800	176.724	0.177	0.332
-231.786	260.765	0.209	-0.467
-230.771	-47.805	-0.328	-0.204
-229.757	-16.087	-0.253	-0.207
-228.742	307.504	-0.084	-0.203
-227.727	5.476	-0.079	-0.075
-226.713	800.000	-0.148	-0.548
-225.698	-152.431	-0.217	-0.020
-224.684	301.874	-0.015	-0.035
-223.669	36.948	-0.135	0.153
-222.655	-200.000	-0.004	-0.034
-221.640	-152.801	0.406	0.037
-220.625	-55.927	-0.220	-0.126
-219.611	7.689	-0.040	-0.039
-218.596	-200.000	-0.097	0.617
-217.582	-119.019	0.340	0.076
-216.567	85.903	0.202	-0.287
-215.552	-17.861	0.332	-0.268
-214.538	-197.608	0.079	-0.001
-213.523	-44.795	-0.197	-0.126
-212.509	-111.310	0.245	-0.064
-211.494	800.000	0.057	-0.312
-210.479	-103.880	0.255	0.076
-209.465	-200.000	-0.015	0.694
-208.450	-200.000	-0.022	0.147
-207.436	134.194	0.088	-0.146
-206.421	-78.606	0.163	0.072
-205.406	-60.032	0.324	-0.178
-204.392	-138.655	0.231	-0.032
-203.377	-77.151	0.161	0.072
-202.363	588.270	0.121	0.386
-201.348	-200.000	0.039	0.256
-200.333	-170.250	0.462	0.021
-199.319	80.287	-0.309	-0.428
-198.304	38.786	0.249	0.286
-197.290	-200.000	-0.011	-0.188
-196.275	454.120	-0.110	-0.316
-195.260	440.766	0.089	-0.250
-194.246	405.576	-0.194	0.530
-193.231	467.500	-0.153	-0.443
-192.217	147.510	0.408	0.708
-191.202	800.000	-0.104	0.556
-190.187	-200.000	0.082	-0.475
-189.173	-141.791	0.587	0.075
-188.158	629.284	-0.117	0.381
-187.144	-89.172	-0.648	-0.245
-186.129	-81.131	0.055	0.023
-185.114	-99.661	0.599	-0.192
-184.100	40.385	0.404	-0.468
-183.085	-137.396	0.134	0.019
-182.071	-61.534	0.168	-0.090
-181.056	-67.912	0.288	0.144
-180.042	-102.571	0.489	0.149
-179.027	-113.509	-0.409	-0.102
-178.012	-159.965	-0.317	0.022
-176.998	-47.694	0.306	-0.190
-175.983	-72.253	-0.340	0.161
-174.969	33.347	-0.229	-0.255
-173.954	-200.000	-0.005	0.303
-172.939	-37.138	-0.097	-0.067
-171.925	-174.904	0.356	-0.013
-170.910	206.141	-0.226	0.453
-169.896	-37.030	0.365	0.251
-168.881	191.160	-0.086	0.167
-167.866	-157.626	0.249	-0.019
-166.852	142.648	-0.283	-0.484
-165.837	800.000	0.061	-0.254
-164.823	-104.111	0.246	-0.073
-163.808	234.038	-0.203	-0.432
-162.793	-45.617	-0.242	0.154
-161.779	-85.010	-0.031	-0.012
-160.764	492.395	0.069	-0.204
-159.750	-15.422	-0.160	-0.132
-158.735	-200.000	0.018	-0.357
-157.720	109.602	0.150	0.231
-156.706	-200.000	-0.011	0.367
-155.691	-105.233	0.092	0.027
-154.677	-200.000	-0.036	0.324
-153.662	180.456	0.109	0.207
-152.647	-111.227	0.568	0.148
-151.633	12.717	0.484	0.479
-150.618	67.444	-0.380	0.498
-149.604	-87.678	-0.357	0.138
-148.589	194.910	0.240	-0.469
-147.574	-61.261	-0.295	-0.159
-146.560	-82.945	-0.192	-0.079
-145.545	146.351	-0.122	0.211
-144.531	31.805	-0.208	0.230
-143.516	529.472	0.153	0.468
-142.502	-116.796	0.316	-0.074
-141.487	-45.519	-0.192	0.122
-140.472	-118.386	-0.599	-0.135
-139.458	-121.129	-0.165	0.035
-138.443	-13.491	0.092	-0.076
-137.429	-41.211	0.116	-0.077
-136.414	800.000	-0.069	-0.339
-135.399	-33.099	-0.077	0.055
-134.385	-54.101	0.339	-0.197
-133.370	607.558	0.058	-0.186
-132.356	-60.720	-0.372	0.202
-131.341	-200.000	-0.062	-0.470
-130.326	404.307	0.081	0.219
-129.312	580.506	-0.176	0.556
-128.297	-34.905	-0.136	-0.095
-127.283	-77.688	-0.469	0.207
-126.268	-197.642	0.331	0.003
-125.253	-200.000	0.000	-0.470
-124.239	-132.542	-0.178	0.029
-123.224	-56.797	-0.265	-0.150
-122.210	-50.915	0.443	0.266
-121.195	-156.771	0.402	0.031
-120.180	604.078	-0.096	0.307
-119.166	174.608	-0.157	0.291
-118.151	99.186	0.079	0.118
-117.137	5.851	-0.156	-0.148
-116.122	-101.096	-0.322	0.101
-115.107	155.862	-0.155	0.274
-114.093	-22.554	0.272	-0.210
-113.078	-22.755	0.267	-0.206
-112.064	-130.075	-0.141	0.024
-111.049	-192.334	0.144	0.002
-110.034	-55.214	-0.293	-0.169
-109.020	-72.493	-0.423	-0.200
-108.005	-73.844	0.366	-0.170
-106.991	-77.018	-0.320	0.142
-105.976	-130.725	0.122	0.021
-104.962	-14.039	0.076	0.063
-103.947	37.001	-0.069	-0.078
-102.932	-106.380	-0.634	0.180
-101.918	305.518	0.237	-0.568
-100.903	139.899	0.178	-0.301
-99.889	-111.440	-0.498	-0.129
-98.874	-151.776	-0.226	0.021
-97.859	-70.554	-0.099	0.048
-96.845	-151.691	0.379	0.035
-95.830	110.413	0.079	0.123
-94.816	165.751	0.191	-0.347
-93.801	-105.426	-0.236	0.068
-92.786	-65.756	-0.467	-0.238
-91.772	-131.942	0.373	-0.062
-90.757	175.141	0.149	-0.277
-89.743	137.626	0.139	0.233
-88.728	202.762	-0.093	0.184
-87.713	-140.180	-0.211	0.028
-86.699	-200.000	0.028	-0.471
-85.684	287.017	-0.134	-0.312
-84.670	-44.220	-0.350	0.224
-83.655	-40.624	-0.455	0.302
-82.640	-128.228	-0.145	0.026
-81.626	800.000	-0.094	-0.374
-80.611	-90.971	-0.335	-0.123
-79.597	11.656	0.056	0.055
-78.582	39.442	-0.133	-0.153
-77.567	-116.527	0.069	-0.016
-76.553	-106.345	-0.486	-0.138
-75.538	544.107	-0.148	-0.455
-74.524	676.576	-0.038	-0.128
-73.509	-75.003	0.672	0.307
-72.494	-200.000	-0.042	0.383
-71.480	-92.300	-0.245	0.088
-70.465	-166.657	-0.405	-0.021
-69.451	307.600	-0.242	0.580
-68.436	94.531	0.167	0.243
-67.422	11.463	0.313	-0.307
-66.407	-42.533	0.426	0.277
-65.392	-68.549	-0.245	0.121
-64.378	800.000	-0.060	0.327
-63.363	-48.927	0.285	0.174
-62.349	282.728	-0.128	-0.296
-61.334	19.805	-1.670	-1.721
-60.319	-45.567	1.341	0.848
-59.305	195.125	-3.615	-7.047
-58.290	77.913	3.218	4.395
-57.276	397.504	3.884	10.441
-56.261	-200.000	20.300	288.341
-55.246	388.776	1258.310	3348.848
-54.232	55.097	2849.654	3525.434
-53.217	53.826	2704.508	3326.024
-52.203	38.489	2432.060	2774.543
-51.188	34.533	2090.319	2336.012
-50.173	30.584	1969.690	2155.208
-49.159	29.271	1958.385	2127.531
-48.144	28.862	1954.998	2119.027
-47.130	28.738	1952.873	2115.206
-46.115	28.784	1950.340	2112.914
-45.100	28.853	1948.861	2112.023
-44.086	28.840	1948.017	2110.870
-43.071	28.782	1946.519	2108.490
-42.057	28.739	1944.921	2106.183
-41.042	28.701	1943.530	2104.154
-40.027	28.633	1942.313	2101.972
-39.013	28.676	1940.398	2100.308
-37.998	28.828	1938.564	2099.994
-36.984	28.640	1937.847	2096.967
-35.969	28.790	1935.649	2096.226
-34.954	28.609	1934.680	2093.017
-33.940	28.623	1933.818	2092.171
-32.925	28.670	1932.211	2090.883
-31.911	28.558	1931.564	2088.821
-30.896	28.709	1929.953	2088.714
-29.881	28.537	1929.218	2085.874
-28.867	28.537	1927.117	2083.526
-27.852	28.626	1924.960	2082.125
-26.838	28.571	1923.336	2079.650
-25.823	28.580	1922.191	2078.433
-24.809	28.510	1920.856	2076.111
-23.794	28.519	1919.757	2074.952
-22.779	28.413	1919.110	2072.963
-21.765	28.453	1917.553	2071.656
-20.750	28.348	1916.445	2069.173
-19.736	28.510	1915.115	2069.499
-18.721	28.424	1913.998	2067.239
-17.706	28.461	1912.376	2065.824
-16.692	28.351	1911.510	2063.558
-15.677	28.520	1910.137	2063.901
-14.663	28.498	1908.882	2062.214
-13.648	28.396	1907.787	2059.801
-12.633	28.335	1906.734	2057.894
-11.619	28.376	1905.196	2056.619
-10.604	28.340	1904.605	2055.490
-9.590	28.347	1902.681	2053.413
-8.575	28.352	1902.039	2052.696
-7.560	28.352	1900.723	2051.185
-6.546	28.418	1898.688	2049.655
-5.531	28.347	1898.330	2048.390
-4.517	28.472	1896.332	2047.551
-3.502	28.300	1896.689	2045.930
-2.487	28.319	1895.459	2044.738
-1.473	28.415	1890.710	2040.598
-0.458	27.808	1871.347	2012.898
0.556	23.179	2012.505	2097.084
1.571	21.057	2221.597	2286.749
2.586	21.999	2263.109	2341.833
3.600	22.106	2264.583	2344.521
4.615	22.111	2264.367	2344.079
5.629	21.943	2262.832	2339.964
6.644	21.943	2260.211	2336.974
7.659	21.964	2258.360	2335.052
8.673	22.098	2256.104	2334.236
9.688	21.809	2264.565	2338.827
10.702	20.411	2344.060	2401.234
11.717	18.404	2408.280	2438.040
12.731	8.953	2384.297	2279.030
13.746	1.318	2363.888	2150.829
14.761	0.317	2359.919	2132.726
15.775	0.118	2358.912	2128.721
16.790	0.110	2356.012	2125.740
17.804	0.010	2355.928	2123.993
18.819	0.091	2354.751	2123.818
19.834	0.001	2353.207	2120.896
20.848	0.036	2350.887	2119.052
21.863	0.058	2348.634	2117.077
22.877	0.058	2347.498	2115.805
23.892	-0.001	2345.128	2112.582
24.907	0.132	2342.353	2111.695
25.921	0.039	2341.286	2109.182
26.936	0.054	2338.835	2106.927
27.950	0.042	2335.810	2103.776
28.965	0.052	2333.822	2101.875
29.980	0.037	2333.255	2100.900
30.994	0.113	2330.570	2099.310
32.009	4.487	2343.559	2172.326
33.023	14.721	2374.689	2346.068
34.038	18.954	2380.927	2411.753
35.053	19.131	2377.320	2410.303
36.067	19.020	2375.270	2406.379
37.082	19.019	2373.850	2404.645
38.096	19.075	2372.097	2403.364
39.111	19.162	2369.531	2401.691
40.126	19.295	2367.745	2401.461
41.140	19.390	2365.833	2400.557
42.155	19.403	2365.220	2399.832
43.169	19.360	2363.363	2397.063
44.184	19.199	2359.640	2390.751
45.199	19.200	2357.262	2388.070
46.213	19.221	2357.732	2388.558
47.228	19.315	2355.895	2387.720
48.242	19.317	2354.532	2386.077
49.257	19.508	2352.003	2385.886
50.271	19.558	2350.036	2384.291
51.286	19.349	2346.438	2377.458
52.301	19.056	2345.638	2372.310
53.315	19.905	2348.180	2386.362
54.330	23.045	2356.996	2438.644
55.344	24.907	2359.141	2466.376
56.359	25.137	2355.951	2465.930
57.374	25.337	2354.711	2467.105
58.388	25.435	2351.628	2464.926
59.403	25.020	2347.834	2454.938
60.417	24.702	2343.252	2445.489
61.432	24.690	2343.210	2444.991
62.447	25.022	2340.923	2446.867
63.461	24.977	2340.107	2445.096
64.476	25.209	2337.106	2444.850
65.490	24.957	2336.017	2439.965
66.505	24.192	2331.431	2424.424
67.520	22.090	2323.296	2387.004
68.534	19.986	2314.568	2349.095
69.549	19.443	2309.952	2336.737
70.563	19.311	2307.145	2331.824
71.578	19.246	2306.347	2329.844
72.593	19.421	2303.383	2328.946
73.607	19.456	2303.638	2329.405
74.622	19.309	2301.671	2325.143
75.636	19.279	2298.065	2320.822
76.651	19.171	2295.534	2316.518
77.666	19.224	2293.950	2315.361
78.680	19.245	2291.125	2312.515
79.695	19.201	2288.795	2309.292
80.709	19.042	2287.510	2305.584
81.724	19.015	2285.713	2303.131
82.739	18.973	2283.283	2299.843
83.753	18.989	2281.272	2297.758
84.768	19.055	2279.462	2296.542
85.782	18.978	2278.068	2293.832
86.797	18.922	2275.783	2290.514
87.812	19.046	2274.198	2290.296
88.826	19.152	2272.508	2289.738
89.841	19.101	2270.625	2286.882
90.855	19.037	2267.804	2282.921
91.870	19.050	2266.879	2281.887
92.884	19.023	2264.969	2279.333
93.899	18.999	2263.351	2277.111
94.914	19.596	2266.149	2287.599
95.928	22.076	2273.066	2327.383
96.943	23.144	2271.657	2339.866
97.957	20.684	2261.606	2296.638
98.972	19.202	2254.856	2269.891
99.987	18.917	2252.724	2263.705
101.001	19.011	2249.598	2261.533
102.016	19.044	2247.999	2260.089
103.030	19.064	2245.098	2257.173
104.045	19.030	2241.957	2253.294
105.060	18.991	2240.116	2250.657
106.074	18.982	2238.622	2248.771
107.089	19.125	2236.993	2248.745
108.103	19.114	2236.256	2247.587
109.118	19.151	2235.205	2246.753
110.133	19.158	2234.203	2245.560
111.147	19.111	2231.048	2241.509
112.162	19.236	2229.384	2241.206
113.176	19.307	2227.888	2240.360
114.191	19.365	2225.690	2238.637
115.206	19.263	2224.248	2235.586
116.220	19.206	2222.992	2233.320
117.235	19.210	2221.244	2231.347
118.249	19.369	2218.604	2230.491
119.264	19.303	2216.978	2227.730
120.279	19.338	2215.133	2226.065
121.293	19.300	2213.422	2223.597
122.308	19.278	2211.291	2220.900
123.322	19.246	2210.378	2219.302
124.337	19.672	2211.840	2226.016
125.352	22.313	2219.880	2268.119
126.366	22.949	2218.835	2275.009
127.381	20.512	2206.821	2231.014
128.395	19.299	2201.300	2209.543
129.410	19.139	2199.774	2205.687
130.424	19.095	2198.682	2203.768
131.439	19.213	2196.312	2202.637
132.454	19.243	2194.845	2201.287
133.468	19.393	2191.841	2199.947
134.483	19.399	2191.115	2199.030
135.497	19.304	2190.121	2196.547
136.512	19.379	2187.123	2194.239
137.527	19.280	2184.668	2190.248
138.541	19.102	2183.925	2186.963
139.556	19.214	2182.969	2187.180
140.570	19.178	2181.176	2184.658
141.585	19.181	2178.529	2181.786
142.600	19.131	2177.537	2179.900
143.614	18.980	2176.107	2176.285
144.629	18.963	2173.660	2173.356
145.643	18.917	2172.589	2171.444
146.658	19.032	2170.824	2170.873
147.673	18.982	2168.000	2167.156
148.687	18.985	2167.034	2165.978
149.702	18.871	2166.449	2163.682
150.716	18.931	2165.335	2163.077
151.731	18.970	2164.400	2162.378
152.746	19.030	2162.326	2160.801
153.760	19.760	2165.476	2172.916
154.775	22.383	2173.067	2213.467
155.789	23.461	2171.142	2224.856
156.804	20.849	2160.989	2181.354
157.819	19.186	2153.169	2152.322
158.833	18.855	2150.380	2145.119
159.848	18.911	2148.094	2143.285
160.862	19.012	2147.039	2143.241
161.877	19.032	2146.332	2142.536
162.892	19.199	2145.287	2143.322
163.906	19.265	2143.101	2141.711
164.921	19.216	2141.597	2139.339
165.935	19.176	2139.773	2136.761
166.950	19.132	2139.642	2135.828
167.964	19.305	2135.830	2133.920
168.979	19.148	2134.443	2130.318
169.994	18.952	2133.846	2127.035
171.008	19.015	2130.854	2124.583
172.023	19.011	2129.448	2122.870
173.037	19.130	2129.060	2123.703
174.052	19.207	2127.036	2122.388
175.067	19.101	2126.016	2119.800
176.081	19.155	2124.535	2118.740
177.096	19.229	2123.339	2118.206
178.110	19.250	2121.405	2116.288
179.125	19.263	2120.384	2115.174
180.140	19.187	2118.871	2112.477
181.154	19.381	2117.122	2112.865
182.169	19.392	2116.494	2112.127
183.183	20.056	2119.050	2122.605
184.198	23.024	2126.722	2166.657
185.213	23.635	2123.495	2170.617
186.227	20.667	2114.757	2125.039
187.242	19.447	2109.245	2104.297
188.256	19.296	2106.930	2099.889
189.271	19.217	2104.993	2096.749
190.286	19.117	2103.384	2093.667
191.300	19.166	2101.162	2091.811
192.315	19.203	2098.938	2089.787
193.329	19.318	2098.417	2090.421
194.344	19.416	2097.397	2090.353
195.359	19.369	2095.887	2088.027
196.373	19.236	2093.614	2083.897
197.388	19.186	2092.068	2081.494
198.402	19.067	2089.728	2077.474
199.417	19.172	2086.994	2075.788
200.432	19.182	2084.618	2073.295
201.446	19.128	2084.306	2072.082
202.461	19.092	2082.463	2069.559
203.475	19.044	2080.779	2067.059
204.490	19.024	2078.786	2064.593
205.504	19.117	2076.430	2063.131
206.519	19.100	2074.709	2060.968
207.534	18.974	2072.450	2056.960
208.548	18.973	2071.748	2056.000
209.563	18.933	2071.090	2054.623
210.577	18.988	2069.187	2053.148
211.592	19.035	2067.976	2052.270
212.607	20.293	2073.200	2072.315
213.621	23.454	2080.296	2117.167
214.636	23.097	2075.006	2107.253
215.650	20.073	2065.132	2060.884
216.665	19.090	2060.514	2044.299
217.680	19.055	2058.750	2041.879
218.694	19.046	2057.270	2040.068
219.709	18.917	2056.790	2037.812
220.723	19.116	2055.693	2038.848
221.738	19.109	2054.137	2036.975
222.753	19.266	2051.381	2035.861
223.767	19.201	2050.376	2033.854
224.782	19.118	2048.573	2030.833
225.796	19.279	2046.320	2030.259
226.811	19.224	2044.988	2028.045
227.826	19.299	2043.025	2026.751
228.840	19.183	2042.198	2024.315
229.855	19.150	2040.541	2022.037
230.869	19.086	2039.723	2020.230
231.884	19.086	2038.098	2018.384
232.899	19.128	2036.751	2017.293
233.913	19.162	2035.233	2015.952
234.928	19.186	2034.727	2015.494
235.942	19.291	2032.011	2013.790
236.957	19.252	2031.065	2012.161
237.972	19.215	2030.197	2010.618
238.986	19.263	2029.254	2010.014
240.001	19.169	2027.081	2006.520
241.015	19.184	2026.578	2005.958
242.030	19.942	2027.699	2015.700
243.045	22.492	2033.980	2051.592
244.059	23.134	2031.525	2056.382
245.074	20.430	2021.543	2014.548
246.088	19.397	2017.090	1997.850
247.103	19.507	2015.329	1997.150
248.117	19.457	2015.179	1996.178
249.132	19.334	2011.918	1991.282
250.147	19.265	2009.991	1988.332
251.161	19.372	2008.353	1987.719
252.176	19.420	2007.699	1987.383
253.190	19.486	2006.022	1986.254
254.205	19.581	2004.114	1985.221
255.220	19.545	2002.949	1983.410
256.234	19.451	2001.693	1980.851
257.249	19.325	2000.431	1977.907
258.263	19.255	1998.558	1975.017
259.278	19.028	1997.670	1971.287
260.293	19.035	1996.918	1970.387
261.307	19.079	1994.826	1968.597
262.322	19.053	1992.724	1965.990
263.336	19.040	1990.173	1963.089
264.351	19.057	1988.156	1961.054
265.366	18.937	1986.779	1958.093
266.380	18.857	1986.916	1957.068
267.395	18.933	1985.007	1955.827
268.409	19.038	1981.916	1953.745
269.424	18.898	1981.697	1951.703
270.439	18.884	1980.784	1950.409
271.453	19.790	1983.001	1962.691
272.468	22.855	1988.981	2003.394
273.482	23.146	1985.647	2003.106
274.497	20.241	1975.755	1959.940
275.512	18.938	1971.582	1940.793
276.526	19.004	1968.756	1938.532
277.541	18.915	1967.421	1935.980
278.555	18.950	1966.446	1935.182
279.570	18.833	1963.967	1931.182
280.585	18.856	1963.496	1930.752
281.599	19.068	1962.065	1931.511
282.614	19.071	1960.977	1930.232
283.628	19.374	1959.950	1932.405
284.643	19.472	1958.747	1932.091
285.657	19.577	1957.493	1931.803
286.672	19.546	1957.003	1930.749
287.687	19.636	1955.105	1929.646
288.701	19.648	1954.136	1928.596
289.716	19.730	1952.724	1927.888
290.730	19.621	1951.363	1925.102
291.745	19.593	1950.239	1923.449
292.760	19.720	1948.270	1922.689
293.774	19.666	1948.694	1922.277
294.789	19.597	1945.937	1918.559
295.803	19.301	1944.211	1913.327
296.818	19.342	1942.160	1911.536
297.833	19.235	1940.802	1908.776
298.847	19.104	1940.418	1906.716
299.862	19.192	1938.674	1905.747
300.876	19.974	1939.227	1914.758
301.891	22.860	1947.045	1954.405
302.906	23.527	1944.408	1958.927
303.920	20.568	1934.959	1916.442
304.935	19.413	1931.122	1899.636
305.949	19.391	1928.610	1896.693
306.964	19.420	1926.318	1894.532
307.979	19.546	1924.397	1893.806
308.993	19.456	1925.174	1893.353
310.008	19.567	1923.855	1893.052
311.022	19.729	1921.236	1892.028
312.037	19.603	1920.087	1889.289
313.052	19.575	1918.204	1886.902
314.066	19.635	1916.368	1885.521
315.081	19.606	1915.622	1884.244
316.095	19.550	1914.491	1882.298
317.110	19.434	1912.267	1878.609
318.125	19.221	1910.033	1873.864
319.139	19.179	1909.066	1872.230
320.154	19.338	1907.155	1871.868
321.168	19.100	1906.053	1867.975
322.183	18.886	1906.138	1865.493
323.197	18.979	1903.043	1863.260
324.212	18.927	1900.540	1860.019
325.227	18.791	1899.488	1857.281
326.241	18.845	1897.933	1856.132
327.256	18.858	1896.920	1855.061
328.270	18.824	1895.404	1852.981
329.285	18.909	1894.723	1853.016
330.300	19.769	1899.371	1866.677
331.314	22.963	1905.535	1907.217
332.329	23.131	1900.640	1903.911
333.343	20.038	1890.658	1860.355
334.358	18.790	1887.516	1843.576
335.373	18.819	1885.212	1841.423
336.387	18.756	1883.360	1838.711
337.402	18.704	1881.528	1836.149
338.416	18.866	1880.676	1836.835
339.431	18.885	1879.594	1835.766
340.446	19.017	1877.406	1834.824
341.460	19.050	1876.515	1834.082
342.475	19.231	1875.640	1834.949
343.489	19.293	1874.325	1834.104
344.504	19.287	1872.262	1831.805
345.519	19.339	1871.551	1831.441
346.533	19.453	1870.129	1831.051
347.548	19.588	1869.835	1831.979
348.562	19.792	1870.072	1834.165
349.577	20.624	1870.227	1842.970
350.592	20.427	1867.582	1838.040
351.606	19.875	1865.693	1830.095
352.621	19.715	1862.883	1825.422
353.635	19.510	1862.246	1822.406
354.650	19.548	1859.987	1820.382
355.665	19.333	1858.374	1816.307
356.679	19.149	1857.810	1813.592
357.694	19.240	1855.806	1812.382
358.708	19.141	1855.391	1810.710
359.723	20.325	1858.345	1825.910
360.738	23.320	1864.207	1863.164
361.752	23.041	1858.849	1854.647
362.767	20.323	1850.515	1817.533
363.781	19.360	1846.973	1803.717
364.796	19.253	1845.405	1800.852
365.810	19.149	1844.248	1798.418
366.825	19.299	1842.481	1798.044
367.840	19.558	1841.011	1799.109
368.854	19.440	1841.333	1797.975
369.869	19.413	1839.779	1795.962
370.883	19.364	1838.901	1794.371
371.898	19.547	1838.047	1795.235
372.913	19.982	1836.848	1798.397
373.927	20.098	1835.574	1798.142
374.942	19.651	1833.372	1791.107
375.956	19.435	1831.596	1786.911
376.971	19.196	1829.656	1782.321
377.986	19.220	1827.018	1779.792
379.000	19.010	1826.246	1776.643
380.015	19.167	1824.674	1776.532
381.029	19.230	1823.022	1775.366
382.044	18.945	1821.851	1771.053
383.059	18.841	1819.524	1767.506
384.073	18.736	1819.474	1766.161
385.088	18.771	1818.568	1765.435
386.102	18.859	1816.048	1763.685
387.117	18.735	1814.226	1760.424
388.132	18.736	1813.915	1759.922
389.146	19.698	1817.939	1773.542
390.161	22.941	1823.093	1811.845
391.175	22.964	1816.043	1804.860
392.190	19.824	1807.315	1763.841
393.205	18.940	1803.696	1751.051
394.219	18.736	1803.054	1748.128
395.234	18.808	1801.516	1747.168
396.248	18.872	1799.484	1745.643
397.263	18.844	1797.417	1743.139
398.278	19.004	1795.228	1742.432
399.292	19.015	1794.216	1741.362
400.307	18.928	1794.272	1740.318
401.321	19.054	1793.285	1740.436
402.336	19.160	1791.720	1739.787
403.350	19.042	1790.667	1737.351
404.365	19.308	1789.119	1738.338
405.380	19.421	1787.725	1737.927
406.394	19.430	1787.131	1737.228
407.409	19.467	1786.206	1736.494
408.423	19.642	1785.517	1737.386
409.438	19.632	1783.568	1735.186
410.453	19.498	1782.699	1732.780
411.467	19.607	1781.704	1732.705
412.482	19.347	1779.631	1727.861
413.496	19.216	1778.101	1724.852
414.511	19.173	1776.076	1722.250
415.526	19.251	1773.616	1720.437
416.540	19.148	1772.164	1717.786
417.555	19.123	1771.401	1716.593
418.569	19.277	1771.975	1718.489
419.584	19.350	1771.290	1718.355
420.599	19.365	1771.293	1718.296
421.613	19.255	1770.663	1716.377
422.628	19.159	1768.575	1713.187
423.642	19.228	1766.316	1711.482
424.657	19.020	1765.001	1707.929
425.672	19.230	1762.910	1707.798
426.686	19.289	1761.666	1706.972
427.701	19.282	1760.178	1705.254
428.715	19.267	1759.994	1704.726
429.730	19.341	1758.826	1704.128
430.745	19.318	1757.547	1702.450
431.759	19.303	1756.486	1701.079
432.774	19.558	1757.486	1704.372
433.788	20.067	1757.146	1708.879
434.803	20.138	1756.113	1708.379
435.818	20.179	1755.441	1707.926
436.832	20.222	1754.567	1707.292
437.847	19.540	1747.761	1693.743
438.861	11.375	1725.383	1592.065
439.876	2.142	1707.987	1485.848
440.890	0.291	1704.101	1464.221
441.905	0.262	1702.896	1462.727
442.920	0.158	1701.179	1460.066
443.934	0.076	1700.627	1458.612
444.949	0.112	1699.633	1457.933
445.963	0.084	1698.233	1456.289
446.978	0.046	1697.469	1455.095
447.993	0.154	1695.684	1454.433
449.007	0.190	1693.645	1452.857
450.022	0.224	1691.923	1451.543
451.036	0.139	1690.856	1449.632
452.051	1.100	1695.649	1462.887
453.066	9.638	1714.922	1562.844
454.080	18.510	1729.286	1662.596
455.095	20.878	1734.452	1690.492
456.109	22.124	1735.599	1703.552
457.124	22.503	1734.462	1705.929
458.139	22.660	1734.341	1707.129
459.153	22.832	1733.241	1707.510
460.168	22.791	1731.192	1704.894
461.182	22.728	1729.278	1702.188
462.197	22.591	1727.933	1699.335
463.212	22.455	1725.669	1695.594
464.226	22.432	1724.937	1694.451
465.241	22.799	1724.257	1697.128
466.255	22.944	1723.752	1697.822
467.270	23.002	1722.158	1696.614
468.285	22.756	1720.047	1691.959
469.299	22.499	1719.472	1688.708
470.314	22.684	1717.526	1688.383
471.328	22.806	1715.572	1687.428
472.343	22.827	1715.214	1687.076
473.358	22.895	1714.476	1686.798
474.372	22.970	1711.807	1684.693
475.387	22.791	1710.030	1681.026
476.401	22.654	1708.834	1678.342
477.416	22.577	1707.969	1676.552
478.430	22.710	1707.033	1676.708
479.445	22.593	1705.546	1673.925
480.460	22.298	1704.379	1669.771
481.474	22.397	1703.844	1669.989
482.489	22.871	1703.237	1673.713
483.503	23.268	1701.377	1675.455
484.518	23.247	1700.185	1673.882
485.533	23.252	1698.943	1672.506
486.547	23.094	1697.575	1669.462
487.562	23.508	1697.526	1673.144
488.576	23.454	1695.811	1670.735
489.591	23.404	1694.348	1668.628
490.606	23.241	1692.314	1664.884
491.620	23.138	1691.211	1662.628
492.635	23.456	1690.601	1664.825
493.649	23.672	1689.806	1665.883
494.664	23.117	1685.994	1656.705
495.679	22.454	1684.524	1648.820
496.693	22.684	1683.152	1649.447
497.708	23.006	1683.234	1652.352
498.722	23.529	1682.293	1656.141
499.737	23.587	1680.911	1655.125
500.752	23.328	1678.564	1650.189
501.766	23.015	1677.066	1645.593
502.781	23.193	1675.881	1645.896
503.795	23.185	1674.433	1644.205
504.810	23.247	1673.710	1643.876
505.825	23.427	1673.774	1645.421
506.839	23.465	1671.881	1643.718
507.854	23.354	1670.115	1640.755
508.868	23.251	1669.682	1639.173
509.883	23.268	1668.191	1637.666
510.898	23.473	1667.608	1638.809
511.912	23.351	1664.711	1634.632
512.927	23.028	1663.042	1629.803
513.941	23.052	1661.785	1628.596
514.956	22.972	1660.454	1626.362
515.971	23.099	1658.754	1625.674
516.985	23.132	1658.259	1625.295
518.000	23.162	1658.270	1625.395
519.014	23.461	1657.761	1627.459
520.029	23.690	1655.599	1627.254
521.043	23.518	1654.759	1624.643
522.058	23.424	1652.711	1621.573
523.073	23.597	1652.556	1622.818
524.087	23.967	1652.510	1625.984
525.102	23.772	1650.830	1622.344
526.116	23.411	1647.839	1615.903
527.131	23.366	1646.869	1614.351
528.146	23.799	1647.014	1618.256
529.160	23.854	1646.570	1618.128
530.175	24.034	1645.222	1618.262
531.189	24.047	1644.521	1617.494
532.204	23.996	1643.420	1615.748
533.219	23.706	1640.202	1609.754
534.233	23.251	1638.871	1604.114
535.248	23.645	1638.809	1607.445
536.262	24.321	1639.108	1613.701
537.277	24.201	1637.613	1610.943
538.292	23.828	1635.418	1605.203
539.306	23.827	1633.222	1602.845
540.321	23.793	1631.905	1601.057
541.335	23.596	1630.216	1597.424
542.350	23.980	1628.855	1599.374
543.365	24.161	1628.388	1600.354
544.379	24.311	1627.010	1600.162
545.394	24.351	1626.004	1599.345
546.408	23.938	1623.724	1593.188
547.423	23.336	1621.667	1585.565
548.438	23.209	1620.205	1582.811
549.452	23.512	1620.149	1585.282
550.467	23.809	1619.002	1586.639
551.481	23.970	1618.264	1587.165
552.496	24.127	1618.126	1588.252
553.511	24.456	1618.510	1591.387
554.525	24.484	1616.423	1589.399
555.540	24.434	1616.262	1588.601
556.554	24.505	1614.859	1587.662
557.569	24.445	1612.533	1584.650
558.583	24.258	1611.096	1581.386
559.598	24.213	1609.686	1579.412
560.613	24.094	1608.678	1577.172
561.627	24.288	1607.101	1577.164
562.642	24.377	1605.751	1576.442
563.656	24.748	1604.793	1578.605
564.671	24.690	1603.876	1576.995
565.686	24.653	1602.386	1575.011
566.700	24.238	1600.767	1569.563
567.715	24.135	1598.315	1566.060
568.729	23.941	1596.750	1562.628
569.744	23.732	1594.854	1558.740
570.759	23.753	1594.982	1558.864
571.773	23.911	1594.082	1559.193
572.788	24.208	1592.964	1560.530
573.802	24.225	1592.208	1559.746
574.817	24.400	1591.243	1560.154
575.832	24.815	1589.999	1562.390
576.846	24.696	1588.763	1559.947
577.861	24.437	1587.525	1556.274
578.875	24.653	1586.845	1557.315
579.890	24.930	1586.380	1559.092
580.905	25.084	1585.590	1559.479
581.919	25.082	1585.168	1558.863
582.934	25.187	1584.138	1558.579
583.948	25.153	1583.265	1557.233
584.963	24.893	1581.274	1552.820
585.978	24.622	1579.204	1548.243
586.992	24.539	1579.421	1547.551
588.007	25.053	1578.251	1550.690
589.021	24.268	1575.056	1540.552
590.036	23.658	1573.405	1533.453
591.051	24.293	1573.099	1538.487
592.065	24.716	1572.051	1540.936
593.080	25.157	1570.772	1543.319
594.094	25.006	1569.480	1540.554
595.109	24.480	1566.196	1532.611
596.123	24.055	1564.413	1527.017
597.138	24.404	1564.815	1530.236
598.153	24.735	1563.691	1531.806
599.167	24.741	1562.558	1530.564
600.182	24.819	1561.856	1530.366
601.196	25.059	1560.752	1531.160
602.211	24.935	1559.801	1528.985
603.226	25.247	1559.020	1530.710
604.240	25.338	1557.930	1530.232
605.255	25.350	1557.032	1529.275
606.269	25.376	1556.103	1528.395
607.284	25.385	1554.330	1526.554
608.299	25.463	1552.675	1525.414
609.313	25.001	1551.654	1520.285
610.328	25.113	1550.433	1519.859
611.342	25.271	1549.015	1519.631
612.357	25.312	1548.697	1519.487
613.372	25.304	1547.978	1518.530
614.386	25.199	1546.882	1516.385
615.401	25.360	1546.156	1516.857
616.415	25.223	1545.316	1514.686
617.430	25.430	1543.989	1514.958
618.445	25.560	1542.891	1514.806
619.459	25.189	1542.208	1510.812
620.474	24.804	1539.803	1505.017
621.488	24.310	1537.675	1498.591
622.503	23.953	1536.364	1494.116
623.518	24.536	1536.105	1498.603
624.532	25.231	1535.477	1503.671
625.547	25.339	1535.016	1503.949
626.561	25.609	1535.243	1506.265
627.576	25.889	1533.633	1506.856
628.591	25.281	1531.191	1499.175
629.605	24.783	1529.356	1493.022
630.620	24.612	1528.075	1490.159
631.634	24.258	1526.262	1485.245
632.649	24.547	1525.653	1486.895
633.663	24.963	1525.209	1489.762
634.678	25.507	1524.404	1493.341
635.693	25.891	1523.001	1494.992
636.707	25.853	1521.918	1493.435
637.722	25.994	1521.932	1494.441
638.736	26.098	1520.438	1493.664
639.751	25.983	1519.213	1491.329
640.766	25.978	1517.388	1489.316
641.780	25.871	1516.655	1487.525
642.795	25.656	1515.568	1484.503
643.809	25.856	1515.093	1485.519
644.824	25.850	1513.661	1483.883
645.839	25.809	1512.406	1482.134
646.853	25.829	1511.979	1481.707
647.868	25.821	1509.761	1479.292
648.882	25.657	1508.633	1476.659
649.897	25.576	1507.227	1474.437
650.912	25.683	1505.318	1473.269
651.926	25.623	1504.629	1471.924
652.941	25.428	1502.807	1468.368
653.955	24.899	1499.986	1461.096
654.970	24.334	1497.967	1454.327
655.985	24.246	1496.560	1452.064
656.999	24.325	1495.689	1451.691
658.014	24.791	1495.494	1455.138
659.028	25.163	1495.474	1457.987
660.043	25.554	1494.867	1460.418
661.058	25.865	1493.831	1461.760
662.072	25.890	1492.704	1460.693
663.087	25.737	1491.642	1458.233
664.101	25.535	1490.955	1455.741
665.116	25.837	1489.345	1456.445
666.131	25.903	1489.306	1456.772
667.145	25.939	1487.758	1455.371
668.160	26.038	1487.204	1455.462
669.174	26.238	1485.936	1455.667
670.189	26.328	1484.670	1454.983
671.204	25.908	1483.829	1450.584
672.218	25.985	1483.328	1450.541
673.233	26.256	1482.572	1451.821
674.247	26.435	1480.962	1451.519
675.262	26.650	1480.412	1452.535
676.276	26.477	1479.100	1449.682
677.291	26.315	1477.585	1446.717
678.306	25.990	1475.940	1442.320
679.320	25.887	1474.511	1439.926
680.335	26.073	1475.123	1441.848
681.349	26.281	1474.197	1442.441
682.364	26.219	1473.259	1440.848
683.379	26.213	1471.502	1438.912
684.393	26.145	1469.731	1436.462
685.408	26.214	1468.815	1435.951
686.422	26.113	1467.723	1433.902
687.437	26.181	1467.471	1434.025
688.452	26.393	1467.382	1435.461
689.466	26.424	1464.642	1432.855
690.481	26.086	1463.532	1428.906
691.495	25.792	1461.574	1424.485
692.510	25.258	1458.882	1417.455
693.525	24.823	1457.110	1412.113
694.539	25.186	1457.512	1415.217
695.554	25.955	1458.257	1421.870
696.568	26.306	1458.429	1424.643
697.583	26.402	1456.801	1423.648
698.598	26.504	1456.241	1423.737
699.612	26.625	1455.099	1423.399
700.627	26.803	1453.375	1422.949
701.641	26.599	1452.224	1420.043
702.656	26.568	1451.478	1418.906
703.671	26.814	1451.534	1420.724
704.685	26.937	1450.253	1420.266
705.700	26.556	1448.913	1415.789
706.714	26.531	1446.905	1413.465
707.729	26.313	1445.052	1409.773
708.744	26.331	1443.764	1408.491
709.758	26.129	1442.404	1405.413
710.773	25.548	1440.139	1398.498
711.787	25.261	1439.075	1395.058
712.802	25.644	1438.273	1397.097
713.816	26.083	1438.141	1400.232
714.831	26.305	1437.619	1401.286
715.846	26.634	1436.169	1402.266
716.860	26.680	1435.490	1401.792
717.875	26.573	1434.038	1399.375
718.889	26.435	1433.205	1397.325
719.904	26.522	1432.520	1397.162
720.919	26.720	1431.263	1397.304
721.933	26.711	1430.617	1396.434
722.948	26.806	1429.689	1396.102
723.962	26.836	1429.141	1395.630
724.977	27.011	1428.157	1395.852
725.992	27.043	1426.397	1394.211
727.006	26.906	1425.340	1391.958
728.021	26.886	1424.620	1390.935
729.035	27.125	1422.652	1390.682
730.050	27.060	1421.650	1389.037
731.065	26.870	1420.537	1386.329
732.079	26.915	1420.119	1386.100
733.094	26.954	1418.495	1384.648
734.108	26.749	1417.445	1381.886
735.123	26.871	1415.312	1380.569
736.138	26.806	1414.689	1379.301
737.152	26.769	1414.159	1378.341
738.167	27.138	1412.968	1379.832
739.181	27.349	1411.461	1379.799
740.196	27.227	1411.551	1378.795
741.211	26.987	1410.834	1376.098
742.225	26.902	1409.700	1374.183
743.240	26.962	1408.259	1373.071
744.254	26.954	1406.650	1371.277
745.269	26.841	1405.454	1369.086
746.284	26.976	1404.334	1368.854
747.298	26.704	1402.937	1365.271
748.313	26.244	1401.010	1359.755
749.327	25.989	1399.328	1356.033
750.342	25.363	1398.196	1350.043
751.356	24.992	1396.558	1345.496
752.371	25.277	1395.896	1346.851
753.386	26.187	1396.799	1354.426
754.400	26.745	1396.840	1358.505
755.415	27.159	1396.103	1360.743
756.429	27.221	1394.608	1359.588
757.444	27.187	1393.162	1357.758
758.459	27.194	1392.806	1357.309
759.473	27.381	1391.450	1357.219
760.488	27.125	1390.206	1353.928
761.502	27.115	1389.049	1352.568
762.517	27.123	1387.228	1350.694
763.532	27.068	1385.955	1348.878
764.546	26.686	1384.508	1344.464
765.561	26.075	1382.722	1338.014
766.575	25.207	1380.654	1329.388
767.590	25.276	1379.197	1328.338
768.605	26.072	1378.871	1333.788
769.619	26.442	1379.497	1336.983
770.634	26.725	1378.955	1338.395
771.648	26.981	1378.691	1339.881
772.663	27.062	1378.293	1339.934
773.678	27.272	1376.665	1339.741
774.692	27.424	1376.365	1340.419
775.707	27.350	1376.492	1339.829
776.721	27.424	1374.752	1338.523
777.736	27.285	1373.676	1336.294
778.751	27.336	1372.797	1335.650
779.765	27.434	1371.390	1334.844
780.780	27.360	1370.524	1333.296
781.794	27.157	1369.761	1330.903
782.809	26.999	1368.488	1328.343
783.824	26.859	1366.619	1325.344
784.838	26.502	1364.120	1320.140
785.853	25.707	1362.578	1312.666
786.867	25.830	1363.275	1314.082
787.882	26.421	1362.733	1317.734
788.897	26.696	1361.779	1318.666
789.911	26.759	1360.924	1318.143
790.926	26.893	1360.443	1318.493
791.940	27.057	1358.862	1318.000
792.955	27.181	1357.484	1317.413
793.969	27.349	1356.026	1317.061
794.984	27.186	1356.347	1316.028
795.999	27.286	1355.660	1315.928
797.013	27.508	1354.282	1316.048
798.028	27.393	1352.468	1313.298
799.042	27.496	1351.650	1313.092
800.057	27.638	1350.643	1312.983
801.072	27.421	1349.403	1310.053
802.086	27.318	1348.762	1308.525
803.101	27.559	1347.931	1309.303
804.115	27.570	1346.421	1307.762
805.130	27.591	1345.099	1306.469
806.145	27.546	1344.079	1305.000
807.159	27.454	1341.936	1302.100
808.174	27.197	1340.995	1299.187
809.188	27.097	1339.698	1297.057
810.203	26.893	1337.697	1293.502
811.218	26.596	1335.666	1289.262
812.232	26.071	1333.573	1283.331
813.247	25.828	1332.384	1280.302
814.261	26.424	1332.945	1284.946
815.276	27.019	1332.975	1289.067
816.291	27.002	1332.926	1288.744
817.305	27.302	1332.006	1289.840
818.320	27.448	1330.420	1289.185
819.334	27.446	1329.554	1288.178
820.349	27.582	1328.337	1287.811
821.364	27.524	1327.292	1286.233
822.378	27.616	1325.710	1285.197
823.393	27.498	1324.331	1282.873
824.407	27.533	1323.418	1282.080
825.422	27.509	1322.346	1280.717
826.437	27.372	1320.867	1278.163
827.451	27.154	1318.856	1274.529
828.466	26.442	1316.456	1267.048
829.480	26.200	1314.221	1263.047
830.495	26.466	1313.453	1264.022
831.509	26.804	1313.952	1266.730
832.524	27.040	1313.521	1267.817
833.539	27.474	1312.463	1269.682
834.553	27.663	1310.989	1269.431
835.568	27.845	1309.731	1269.333
836.582	27.744	1308.920	1267.686
837.597	27.689	1308.167	1266.423
838.612	27.510	1305.945	1262.871
839.626	27.307	1305.174	1260.561
840.641	27.097	1303.357	1257.199
841.655	26.769	1302.127	1253.578
842.670	26.026	1300.081	1246.304
843.685	25.283	1298.483	1239.464
844.699	26.304	1298.340	1246.261
845.714	26.925	1298.387	1250.464
846.728	26.989	1297.979	1250.361
847.743	27.149	1296.706	1250.091
848.758	27.526	1295.761	1251.634
849.772	27.444	1295.041	1250.222
850.787	27.516	1293.235	1248.825
851.801	27.572	1292.656	1248.507
852.816	27.519	1291.785	1247.150
853.831	27.422	1290.113	1244.716
854.845	27.342	1288.525	1242.489
855.860	27.266	1286.108	1239.489
856.874	26.980	1284.978	1236.293
857.889	26.643	1283.807	1232.712
858.904	26.338	1281.976	1228.723
859.918	25.888	1279.625	1223.254
860.933	25.769	1277.570	1220.335
861.947	26.178	1278.213	1223.585
862.962	26.532	1277.781	1225.441
863.977	26.738	1276.618	1225.577
864.991	26.994	1275.841	1226.425
866.006	27.345	1275.932	1228.744
867.020	27.366	1274.842	1227.692
868.035	27.492	1273.880	1227.470
869.049	27.651	1272.910	1227.463
870.064	27.889	1271.715	1227.775
871.079	27.503	1270.986	1224.317
872.093	27.342	1270.035	1222.171
873.108	27.375	1268.676	1220.936
874.122	27.034	1267.267	1217.135
875.137	26.129	1267.060	1210.693
876.152	26.151	1265.410	1209.122
877.166	26.380	1264.111	1209.275
878.181	26.647	1262.923	1209.785
879.195	27.190	1262.647	1213.022
880.210	27.378	1261.524	1213.055
881.225	27.493	1260.889	1213.066
882.239	27.564	1259.870	1212.419
883.254	27.654	1259.123	1212.160
884.268	27.806	1258.317	1212.248
885.283	27.765	1256.947	1210.512
886.298	27.585	1255.778	1208.042
887.312	27.554	1254.681	1206.637
888.327	27.486	1254.051	1205.434
889.341	27.612	1251.848	1204.011
890.356	27.456	1251.309	1202.309
891.371	27.269	1251.176	1200.798
892.385	27.419	1250.064	1200.579
893.400	27.182	1248.777	1197.634
894.414	27.158	1247.605	1196.208
895.429	26.858	1245.309	1191.883
896.444	26.067	1242.053	1183.410
897.458	25.369	1241.339	1177.985
898.473	25.932	1241.187	1181.409
899.487	26.657	1241.308	1186.156
900.502	27.036	1241.183	1188.394
901.517	27.155	1240.069	1187.963
902.531	27.476	1239.092	1188.995
903.546	27.514	1238.548	1188.576
904.560	27.470	1237.953	1187.577
905.575	27.398	1237.562	1186.584
906.589	27.504	1235.960	1185.599
907.604	27.198	1235.052	1182.589
