DTS Sentinel unit serial number:	SN409020Multiplexer serial number:	ORYXHardware model number:	OX4-SRSoftware version number:	ORYX F/W v3.00 Oryx Data Collector v3.7.2.0data status	okinstallation	HaddamTimeLapsedifferential loss correction	single-endedforward channel	channel 3reverse channel	N/Adate	2011/06/22time	06:26:16forward acquisition time	30.00reverse acquisition time	0.00gamma	498.7831k internal	0.1751k external	0.1751temperature offset calibration	1.0074default loss term (dB/km)	0.3790temperature slope calibration	1.3530multiplexer offset coefficient	1.0000multiplexer slope coefficient	1.0000fibre end	0.00T internal ref (°C)	22.62T ext. ref 1 (°C)	18.45T ext. ref 2 (°C)	0.19length (m)	temperature (°C)	Stokes	anti-Stokes-747.200	55.226	-0.205	-0.264
-746.185	-89.016	-0.357	-0.140
-745.171	-60.490	0.286	-0.161
-744.156	-17.837	0.082	0.068
-743.142	112.628	0.146	0.235
-742.127	402.590	0.158	0.444
-741.112	800.000	-0.026	0.132
-740.098	31.095	0.322	0.367
-739.083	-200.000	-0.058	-0.552
-738.069	-91.017	0.117	0.044
-737.054	231.020	-0.254	0.554
-736.039	-51.160	-0.222	-0.138
-735.025	-104.124	0.527	-0.162
-734.010	-200.000	-0.005	0.392
-732.996	-10.245	0.126	-0.111
-731.981	226.036	0.105	-0.228
-730.966	-121.663	0.124	0.027
-729.952	-73.638	-0.073	0.035
-728.937	-145.262	-0.962	0.114
-727.923	-95.088	-0.381	0.136
-726.908	800.000	-0.036	0.174
-725.894	-166.328	0.355	-0.020
-724.879	-23.768	0.418	-0.332
-723.864	-200.000	-0.007	-0.167
-722.850	-14.840	0.150	-0.127
-721.835	-133.069	0.300	-0.050
-720.821	-100.297	-0.223	-0.073
-719.806	-33.007	0.070	-0.051
-718.791	596.151	0.035	-0.115
-717.777	218.608	-0.133	-0.283
-716.762	184.138	-0.242	-0.476
-715.748	204.777	-0.163	-0.337
-714.733	3.828	0.176	-0.171
-713.718	-200.000	-0.005	-0.246
-712.704	-13.368	-0.369	-0.317
-711.689	-200.000	0.155	-0.952
-710.675	597.984	0.033	0.109
-709.660	135.080	-0.087	0.150
-708.645	800.000	-0.022	-0.112
-707.631	-91.147	-0.679	0.257
-706.616	-200.000	0.041	-0.381
-705.602	67.834	-0.135	-0.183
-704.587	-19.598	0.247	-0.203
-703.572	-68.468	-0.121	-0.062
-702.558	-31.304	-0.321	0.239
-701.543	-174.965	-0.337	0.012
-700.529	-123.769	0.516	-0.107
-699.514	-13.644	0.199	-0.170
-698.499	176.436	-0.076	0.148
-697.485	-87.527	-0.591	-0.236
-696.470	-141.281	0.181	0.024
-695.456	-200.000	-0.022	-0.306
-694.441	205.580	0.078	-0.161
-693.426	-120.810	0.228	-0.051
-692.412	120.506	-0.116	0.191
-691.397	46.325	0.061	-0.075
-690.383	560.973	0.144	-0.463
-689.368	170.797	-0.073	0.139
-688.354	-200.000	-0.009	-0.408
-687.339	775.240	-0.080	-0.292
-686.324	40.303	0.211	0.251
-685.310	-103.295	-0.086	-0.027
-684.295	660.708	-0.143	-0.489
-683.281	-66.502	-0.708	-0.371
-682.266	91.204	-0.060	0.090
-681.251	-200.000	-0.016	0.106
-680.237	800.000	-0.009	0.051
-679.222	-75.705	-0.022	0.010
-678.208	138.693	0.102	0.177
-677.193	800.000	-0.097	-0.448
-676.178	331.574	-0.165	-0.424
-675.164	-74.087	0.164	0.078
-674.149	-200.000	-0.024	-0.197
-673.135	800.000	-0.076	-0.372
-672.120	-48.382	-0.368	-0.234
-671.105	-150.203	0.421	0.043
-670.091	-106.811	0.494	0.144
-669.076	-63.514	0.207	0.112
-668.062	800.000	-0.015	0.083
-667.047	-108.947	-0.245	-0.069
-666.032	-186.174	-0.355	-0.007
-665.018	335.915	-0.111	0.285
-664.003	729.783	0.065	0.232
-662.989	-93.809	-0.620	0.225
-661.974	-7.692	0.139	-0.124
-660.959	339.191	-0.196	-0.507
-659.945	69.478	0.185	-0.252
-658.930	-86.463	0.202	-0.082
-657.916	758.268	0.144	-0.518
-656.901	-200.000	0.052	-0.326
-655.886	215.624	-0.054	0.114
-654.872	-40.236	0.514	0.353
-653.857	169.237	0.040	-0.075
-652.843	-71.211	-0.340	-0.168
-651.828	-119.914	0.777	-0.175
-650.814	303.155	-0.046	0.113
-649.799	-131.760	-0.238	0.041
-648.784	-132.333	-0.362	0.061
-647.770	41.055	0.213	-0.255
-646.755	14.005	-0.436	-0.448
-645.741	-94.446	0.515	0.185
-644.726	207.584	0.139	0.289
-643.711	-175.919	0.120	0.004
-642.697	-113.645	-0.239	0.061
-641.682	-167.566	-0.608	-0.032
-640.668	-63.132	-0.501	0.273
-639.653	-27.560	-0.485	-0.372
-638.638	14.906	-0.133	0.138
-637.624	330.611	0.149	-0.382
-636.609	414.093	0.245	-0.693
-635.595	-86.604	-0.453	0.183
-634.580	-43.935	0.386	-0.256
-633.565	72.631	-0.275	0.380
-632.551	-114.656	-0.341	0.086
-631.536	-168.812	0.018	0.001
-630.522	77.057	0.060	-0.085
-629.507	-120.266	0.170	0.038
-628.492	-155.062	0.459	-0.039
-627.478	335.887	-0.094	0.241
-626.463	147.326	-0.094	-0.167
-625.449	-2.199	-0.116	0.107
-624.434	122.479	-0.175	0.289
-623.419	-55.796	0.206	-0.121
-622.405	30.483	0.071	0.080
-621.390	196.966	0.204	0.412
-620.376	-70.793	0.031	0.015
-619.361	267.198	-0.124	-0.288
-618.346	27.167	-0.395	-0.438
-617.332	-16.013	-0.264	0.222
-616.317	711.435	0.046	-0.162
-615.303	-40.967	-0.212	-0.145
-614.288	-152.821	0.337	-0.031
-613.273	-128.706	0.330	-0.061
-612.259	243.632	-0.209	-0.466
-611.244	800.000	0.042	-0.199
-610.230	-27.925	-0.068	-0.052
-609.215	-32.389	-0.257	-0.189
-608.201	58.057	0.161	-0.209
-607.186	-133.144	0.601	-0.100
-606.171	800.000	-0.027	0.118
-605.157	-124.532	-0.720	0.147
-604.142	15.297	-0.078	0.081
-603.128	-82.714	0.121	-0.052
-602.113	-200.000	0.009	0.084
-601.098	-28.553	0.173	-0.131
-600.084	134.222	-0.127	-0.218
-599.069	-155.888	-0.464	-0.038
-598.055	12.822	-0.334	-0.341
-597.040	75.115	-0.243	0.338
-596.025	-114.629	0.254	0.064
-595.011	-74.655	-0.313	-0.148
-593.996	-174.412	-0.307	0.011
-592.982	-118.592	-0.199	-0.046
-591.967	800.000	0.085	-0.424
-590.952	-200.000	-0.001	-0.440
-589.938	-75.233	0.643	0.302
-588.923	314.905	0.022	-0.055
-587.909	135.562	0.097	-0.167
-586.894	774.882	-0.051	-0.186
-585.879	-200.000	0.031	0.220
-584.865	-200.000	-0.057	-0.435
-583.850	-38.287	-0.510	0.356
-582.836	800.000	0.048	-0.266
-581.821	19.120	0.223	0.236
-580.806	-17.974	0.336	-0.277
-579.792	-88.026	0.034	0.013
-578.777	-160.345	-0.264	0.018
-577.763	-118.986	0.134	-0.031
-576.748	800.000	0.048	0.179
-575.733	148.741	-0.250	0.447
-574.719	492.098	-0.023	-0.071
-573.704	455.620	0.086	0.252
-572.690	-117.729	0.155	-0.037
-571.675	800.000	0.101	0.441
-570.661	-71.494	0.213	-0.105
-569.646	458.771	-0.130	0.383
-568.631	460.709	-0.119	0.351
-567.617	134.935	-0.243	-0.418
-566.602	191.604	-0.073	-0.145
-565.588	-41.744	0.311	0.210
-564.573	229.616	0.073	-0.158
-563.558	-91.350	0.234	-0.088
-562.544	46.993	-0.141	-0.173
-561.529	-115.510	0.624	-0.154
-560.515	800.000	-0.140	-0.530
-559.500	-98.624	-0.792	-0.265
-558.485	-35.012	-0.408	0.293
-557.471	-67.968	0.259	-0.133
-556.456	800.000	-0.052	-0.233
-555.442	46.104	-0.163	-0.200
-554.427	-108.998	0.104	-0.029
-553.412	402.987	-0.035	-0.097
-552.398	19.285	-0.117	-0.123
-551.383	-200.000	-0.043	-0.616
-550.369	-27.257	-0.311	-0.238
-549.354	-22.943	0.451	0.358
-548.339	800.000	-0.002	0.007
-547.325	-13.785	-0.372	-0.317
-546.310	92.626	0.237	0.353
-545.296	208.383	0.119	0.247
-544.281	19.163	0.376	0.398
-543.266	800.000	0.047	0.210
-542.252	-8.886	-0.482	0.425
-541.237	365.344	0.048	-0.128
-540.223	23.193	-0.091	-0.099
-539.208	800.000	-0.016	0.063
-538.193	162.757	0.294	-0.546
-537.179	5.128	0.436	-0.423
-536.164	142.591	-0.092	-0.161
-535.150	1.485	0.372	-0.353
-534.135	-200.000	0.050	-0.421
-533.121	82.409	-0.124	0.178
-532.106	-132.033	-0.350	0.060
-531.091	-120.163	0.137	-0.031
-530.077	346.604	-0.229	0.595
-529.062	-52.645	-0.173	0.105
-528.048	-34.621	0.229	0.165
-527.033	-81.643	0.492	0.212
-526.018	800.000	0.106	0.408
-525.004	-38.934	-0.281	-0.195
-523.989	-161.097	-0.332	-0.023
-522.975	-200.000	0.014	0.411
-521.960	-80.731	0.175	-0.076
-520.945	75.604	-0.181	-0.252
-519.931	-124.749	0.279	-0.056
-518.916	101.331	0.016	0.024
-517.902	-45.859	0.516	0.335
-516.887	17.720	0.153	-0.161
-515.872	-197.844	-0.347	0.003
-514.858	19.041	-0.090	0.094
-513.843	-200.000	0.496	-0.003
-512.829	30.082	0.284	-0.319
-511.814	-200.000	-0.020	-0.498
-510.799	-122.615	0.162	0.034
-509.785	-135.629	0.126	0.019
-508.770	-93.939	0.305	0.110
-507.756	-200.000	-0.005	0.394
-506.741	76.964	0.208	0.290
-505.726	-200.000	0.014	-0.250
-504.712	-200.000	-0.075	-0.481
-503.697	-138.270	-0.128	0.018
-502.683	-106.507	-0.143	0.042
-501.668	-186.415	-0.421	0.008
-500.653	16.747	0.260	-0.271
-499.639	-159.001	-0.326	-0.024
-498.624	-88.004	-0.247	-0.097
-497.610	-126.877	0.266	-0.051
-496.595	119.282	-0.127	-0.206
-495.581	-78.084	0.485	-0.219
-494.566	-179.031	0.525	0.015
-493.551	35.926	-0.159	-0.184
-492.537	227.673	0.059	-0.126
-491.522	532.841	0.074	0.232
-490.508	-134.680	-0.556	0.088
-489.493	20.685	-0.177	-0.189
-488.478	489.709	-0.035	-0.107
-487.464	-59.181	-0.267	-0.151
-486.449	-49.948	0.144	0.089
-485.435	80.642	-0.170	0.242
-484.420	-68.162	-0.297	0.151
-483.405	56.003	-0.267	0.341
-482.391	31.878	0.162	-0.183
-481.376	-200.000	-0.054	0.336
-480.362	-200.000	0.014	0.234
-479.347	184.761	0.216	-0.422
-478.332	-100.835	0.455	-0.146
-477.318	-130.437	0.531	0.094
-476.303	13.157	-0.095	0.097
-475.289	-23.579	-0.194	0.152
-474.274	-30.785	0.030	0.022
-473.259	-31.022	0.112	0.083
-472.245	90.858	-0.130	-0.192
-471.230	-76.781	-0.104	-0.048
-470.216	9.677	-0.183	0.182
-469.201	115.187	0.309	0.496
-468.186	67.597	0.139	-0.186
-467.172	-12.292	-0.309	-0.265
-466.157	-66.558	0.376	0.195
-465.143	-200.000	0.039	-0.445
-464.128	65.493	-0.406	-0.541
-463.113	275.649	-0.198	-0.463
-462.099	26.339	0.421	-0.462
-461.084	-200.000	0.059	-0.487
-460.070	-200.000	-0.005	-0.137
-459.055	-200.000	-0.025	-0.224
-458.040	97.978	0.219	0.332
-457.026	66.280	-0.383	0.512
-456.011	-79.360	0.322	-0.142
-454.997	-60.992	0.087	0.048
-453.982	-44.496	0.381	0.250
-452.968	800.000	0.131	0.500
-451.953	487.863	-0.047	-0.143
-450.938	-76.139	-0.220	0.101
-449.924	-157.733	0.315	0.024
-448.909	-157.408	0.368	0.029
-447.895	-75.047	-0.417	-0.195
-446.880	95.925	-0.183	-0.274
-445.865	753.955	0.059	0.211
-444.851	-58.865	-0.311	0.176
-443.836	-57.361	-0.421	0.242
-442.822	-14.522	-0.380	0.321
-441.807	-160.685	-0.258	0.018
-440.792	-52.222	0.231	-0.140
-439.778	-92.168	0.523	-0.193
-438.763	19.320	-0.202	0.212
-437.749	272.410	-0.054	-0.127
-436.734	68.516	-0.337	0.454
-435.719	-14.066	0.126	0.106
-434.705	-73.054	-0.273	-0.131
-433.690	331.533	-0.143	0.364
-432.676	-110.650	0.356	-0.096
-431.661	-115.143	0.789	0.195
-430.646	78.777	0.058	0.081
-429.632	-86.096	0.092	-0.037
-428.617	-15.023	0.069	0.058
-427.603	-25.024	0.167	-0.130
-426.588	800.000	0.106	-0.475
-425.573	130.746	-0.076	0.129
-424.559	-101.181	0.232	-0.074
-423.544	417.251	-0.098	0.275
-422.530	-68.837	-0.183	0.092
-421.515	160.236	0.258	-0.473
-420.500	-48.932	0.371	0.232
-419.486	-128.527	-0.091	-0.017
-418.471	-79.090	0.179	-0.080
-417.457	-59.142	-0.048	0.027
-416.442	17.598	-0.280	0.291
-415.428	-80.635	-0.128	0.056
-414.413	-48.592	-0.337	-0.212
-413.398	-200.000	-0.014	-0.086
-412.384	-114.106	0.553	0.139
-411.369	-89.152	0.696	0.268
-410.355	-110.999	0.315	0.084
-409.340	-153.397	-0.332	-0.030
-408.325	177.458	0.260	0.497
-407.311	-100.608	0.215	0.069
-406.296	17.216	0.267	-0.277
-405.282	81.246	0.253	0.358
-404.267	541.994	0.056	-0.176
-403.252	-19.193	-0.291	-0.236
-402.238	87.515	-0.266	-0.387
-401.223	-52.050	0.787	-0.477
-400.209	97.853	0.150	-0.226
-399.194	98.577	-0.112	0.169
-398.179	1.085	-0.168	-0.157
-397.165	-174.375	-0.175	-0.006
-396.150	800.000	-0.154	-0.594
-395.136	-120.129	0.052	0.012
-394.121	92.907	0.145	-0.215
-393.106	-200.000	0.039	0.254
-392.092	800.000	-0.043	0.233
-391.077	-35.577	-0.078	0.055
-390.063	-58.814	0.596	-0.337
-389.048	-153.768	0.172	-0.015
-388.033	438.004	-0.100	-0.287
-387.019	21.226	0.197	-0.210
-386.004	-20.260	-0.087	-0.070
-384.990	152.995	0.206	-0.370
-383.975	-26.583	0.250	0.192
-382.960	24.755	0.261	0.283
-381.946	397.698	0.047	0.129
-380.931	-38.821	-0.265	-0.182
-379.917	245.607	-0.107	-0.237
-378.902	-200.000	-0.010	0.064
-377.888	28.994	0.338	-0.375
-376.873	-125.919	0.323	-0.063
-375.858	-35.290	0.318	0.226
-374.844	27.737	-0.250	-0.276
-373.829	44.800	0.354	0.426
-372.815	34.659	-0.164	-0.188
-371.800	-94.269	-0.388	0.138
-370.785	40.222	0.196	0.231
-369.771	-65.138	-0.268	0.141
-368.756	-200.000	0.005	-0.053
-367.742	49.388	0.174	-0.214
-366.727	-37.898	-0.069	0.048
-365.712	-43.867	0.363	0.238
-364.698	405.691	-0.075	0.208
-363.683	27.730	0.409	-0.450
-362.669	-143.615	0.737	-0.091
-361.654	4.359	0.162	-0.155
-360.639	-63.890	-0.305	-0.163
-359.625	87.310	-0.005	-0.007
-358.610	-149.947	0.458	-0.046
-357.596	-66.681	-0.137	0.071
-356.581	36.078	-0.264	-0.304
-355.566	119.822	-0.311	0.505
-354.552	690.002	-0.064	0.222
-353.537	5.078	0.498	0.479
-352.523	148.697	-0.198	0.350
-351.508	-114.993	-0.170	0.042
-350.493	-55.318	-0.557	0.326
-349.479	342.488	0.148	0.379
-348.464	-105.703	0.213	0.063
-347.450	116.498	-0.010	0.017
-346.435	457.913	-0.171	0.501
-345.420	-35.430	-0.198	-0.140
-344.406	444.281	-0.062	0.179
-343.391	267.298	-0.033	0.075
-342.377	-104.997	0.250	-0.075
-341.362	-11.812	0.115	0.099
-340.348	443.604	0.054	0.154
-339.333	-76.442	0.286	-0.131
-338.318	-42.476	0.389	-0.258
-337.304	-70.058	-0.090	0.045
-336.289	-200.000	0.010	0.382
-335.275	-48.305	-0.205	0.129
-334.260	-105.471	-0.409	0.121
-333.245	-115.446	-0.163	0.040
-332.231	-155.427	0.356	0.030
-331.216	-137.662	-0.274	0.040
-330.202	39.184	-0.269	-0.314
-329.187	-130.741	0.984	-0.171
-328.172	-124.472	-0.351	-0.071
-327.158	330.319	0.189	0.478
-326.143	325.104	-0.273	0.684
-325.129	-18.047	-0.267	0.218
-324.114	105.265	0.295	0.456
-323.099	257.633	-0.241	0.543
-322.085	-10.568	-0.466	0.403
-321.070	-128.690	-0.455	-0.083
-320.056	402.248	-0.113	-0.313
-319.041	-200.000	0.019	-0.114
-318.026	351.680	0.192	0.498
-317.012	-26.853	0.262	0.200
-315.997	-200.000	0.021	-0.279
-314.983	-126.098	-0.630	0.122
-313.968	399.757	0.081	-0.223
-312.953	-6.405	-0.303	0.270
-311.939	-161.036	-0.226	-0.015
-310.924	249.080	-0.149	0.331
-309.910	-200.000	-0.024	0.179
-308.895	97.377	0.179	0.269
-307.880	-200.000	-0.016	-0.482
-306.866	463.169	0.185	0.541
-305.851	22.664	-0.158	-0.169
-304.837	-81.665	-0.441	0.188
-303.822	-92.279	-0.740	-0.271
-302.807	164.154	-0.108	0.200
-301.793	172.169	-0.160	-0.302
-300.778	-6.071	0.358	0.319
-299.764	-54.295	-0.324	-0.191
-298.749	-42.652	-0.361	-0.239
-297.735	-68.963	-0.198	-0.099
-296.720	-200.000	-0.010	0.357
-295.705	-112.121	-0.329	0.086
-294.691	-124.183	0.599	-0.122
-293.676	-24.617	0.086	-0.066
-292.662	-71.148	-0.153	-0.075
-291.647	-171.620	0.165	0.007
-290.632	800.000	-0.095	0.378
-289.618	-39.631	-0.144	-0.098
-288.603	50.476	-0.152	0.188
-287.589	-54.635	-0.281	-0.165
-286.574	-29.883	-0.202	-0.150
-285.559	49.269	0.188	-0.231
-284.545	-101.942	0.248	0.078
-283.530	173.266	0.102	-0.192
-282.516	-99.274	0.477	-0.156
-281.501	-120.198	0.292	0.064
-280.486	-112.216	0.683	0.178
-279.472	457.151	0.072	-0.211
-278.457	-18.602	-0.375	-0.305
-277.443	23.640	-0.188	-0.202
-276.428	66.986	-0.308	-0.410
-275.413	-133.069	-0.258	-0.042
-274.399	-200.000	-0.025	-0.460
-273.384	-200.000	-0.037	0.489
-272.370	-133.645	-0.348	-0.056
-271.355	83.191	-0.228	0.323
-270.340	-15.005	0.244	-0.203
-269.326	-200.000	0.000	-0.618
-268.311	-84.850	0.432	-0.176
-267.297	0.454	-0.178	-0.166
-266.282	-101.102	0.357	-0.113
-265.267	75.154	0.098	0.135
-264.253	155.719	-0.142	0.255
-263.238	-113.597	0.473	-0.120
-262.224	62.039	0.259	-0.337
-261.209	-128.501	-0.248	-0.045
-260.195	-200.000	0.003	-0.088
-259.180	305.216	-0.110	0.267
-258.165	800.000	0.062	0.323
-257.151	-90.909	-0.548	-0.204
-256.136	-104.888	-0.401	-0.119
-255.122	800.000	-0.102	0.389
-254.107	-97.647	-0.176	-0.059
-253.092	-57.248	-0.477	-0.272
-252.078	-200.000	0.068	-0.429
-251.063	-41.165	0.102	-0.068
-250.049	-52.178	-0.244	0.147
-249.034	112.242	0.132	0.208
-248.019	416.150	0.015	-0.042
-247.005	139.931	-0.213	0.367
-245.990	21.728	0.357	-0.378
-244.976	-47.476	0.184	0.116
-243.961	-200.000	0.049	0.300
-242.946	-51.012	-0.506	0.308
-241.932	40.744	-0.217	0.256
-240.917	6.870	-0.161	0.156
-239.903	-185.016	-0.228	-0.005
-238.888	-200.000	0.014	-0.189
-237.873	18.202	0.230	-0.239
-236.859	610.509	-0.201	0.659
-235.844	35.376	-0.162	-0.185
-234.830	453.572	0.115	-0.332
-233.815	800.000	0.139	-0.706
-232.800	-25.766	0.084	0.065
-231.786	-39.702	-0.238	-0.162
-230.771	-47.544	0.278	-0.175
-229.757	139.562	0.231	0.397
-228.742	-171.337	0.263	-0.011
-227.727	-164.241	0.336	0.020
-226.713	-200.000	0.024	0.458
-225.698	87.953	0.290	0.420
-224.684	-115.616	-0.177	0.043
-223.669	-12.912	0.378	0.320
-222.655	420.500	0.096	-0.270
-221.640	539.373	-0.104	-0.325
-220.625	-145.461	0.478	-0.055
-219.611	129.467	-0.237	-0.395
-218.596	-133.586	-0.016	-0.003
-217.582	-52.893	0.160	-0.095
-216.567	-0.137	0.354	-0.328
-215.552	96.906	-0.087	0.130
-214.538	-200.000	0.002	-0.146
-213.523	800.000	0.037	-0.165
-212.509	170.167	-0.253	0.472
-211.494	-117.126	0.173	-0.041
-210.479	289.787	-0.099	-0.236
-209.465	-35.955	-0.133	-0.093
-208.450	63.546	0.225	-0.294
-207.436	166.180	-0.327	-0.604
-206.421	-143.995	0.130	-0.016
-205.406	-143.982	0.389	0.047
-204.392	-6.939	0.286	0.252
-203.377	800.000	0.048	-0.222
-202.363	800.000	0.092	-0.374
-201.348	-98.922	-0.165	0.054
-200.333	-145.717	-0.229	0.026
-199.319	25.641	0.047	0.051
-198.304	-36.930	-0.206	-0.143
-197.290	55.768	-0.430	-0.543
-196.275	800.000	0.074	-0.395
-195.260	709.416	-0.071	0.246
-194.246	191.018	-0.089	-0.174
-193.231	-200.000	-0.006	-0.385
-192.217	58.453	-0.309	-0.394
-191.202	-109.637	-0.465	0.127
-190.187	-97.660	-0.227	0.076
-189.173	-200.000	0.026	0.223
-188.158	-174.484	0.020	-0.001
-187.144	800.000	-0.031	-0.113
-186.129	636.721	0.077	0.257
-185.114	367.847	0.043	0.113
-184.100	80.333	0.190	-0.266
-183.085	81.590	-0.184	-0.259
-182.071	135.400	-0.189	0.319
-181.056	800.000	0.046	0.201
-180.042	800.000	-0.173	0.636
-179.027	70.938	0.261	0.352
-178.012	800.000	-0.065	0.239
-176.998	-200.000	0.066	-0.402
-175.983	30.736	-0.187	0.208
-174.969	15.590	-0.275	0.281
-173.954	-105.024	0.339	0.100
-172.939	-116.714	0.203	0.048
-171.925	-143.700	-0.320	-0.039
-170.910	-29.033	0.369	0.275
-169.896	-103.578	0.369	-0.112
-168.881	-10.847	0.391	0.335
-167.866	-19.820	0.281	0.225
-166.852	-114.861	0.439	0.108
-165.837	-59.766	-0.548	-0.304
-164.823	79.618	-0.083	0.116
-163.808	-154.761	0.290	0.025
-162.793	-119.100	-0.188	0.042
-161.779	-111.076	-0.651	0.172
-160.764	244.682	0.182	0.399
-159.750	-200.000	0.094	1.004
-158.735	-121.646	0.346	-0.074
-157.720	-142.983	-0.393	-0.049
-156.706	203.237	-0.080	0.160
-155.691	110.379	0.225	0.352
-154.677	-148.062	-0.472	-0.050
-153.662	76.989	-0.184	0.254
-152.647	389.385	-0.094	0.253
-151.633	344.247	0.123	0.315
-150.618	-156.953	0.695	-0.054
-149.604	-200.000	-0.006	0.135
-148.589	250.791	0.104	-0.230
-147.574	-200.000	0.035	0.404
-146.560	800.000	0.141	0.575
-145.545	-176.554	0.198	-0.006
-144.531	-200.000	-0.022	0.261
-143.516	-43.666	0.085	0.055
-142.502	66.666	0.191	0.252
-141.487	-31.283	-0.328	-0.239
-140.472	-65.675	0.307	0.159
-139.458	6.883	-0.048	0.046
-138.443	-186.332	0.222	-0.004
-137.429	215.578	-0.039	0.080
-136.414	349.276	0.104	0.267
-135.399	-200.000	0.001	-0.725
-134.385	52.127	0.244	-0.301
-133.370	615.139	-0.087	-0.284
-132.356	52.026	0.187	-0.231
-131.341	-94.829	-0.315	-0.110
-130.326	-61.696	0.209	0.113
-129.312	449.424	0.187	0.537
-128.297	143.182	0.123	0.212
-127.283	92.871	-0.213	0.313
-126.268	-11.498	0.252	0.215
-125.253	9.972	-0.289	-0.285
-124.239	-135.213	0.264	-0.041
-123.224	-200.000	0.007	-0.043
-122.210	-3.896	-0.234	0.210
-121.195	-92.924	0.497	-0.179
-120.180	-141.454	0.348	0.045
-119.166	72.978	-0.294	0.398
-118.151	-99.110	0.165	0.054
-117.137	-23.292	-0.210	-0.163
-116.122	-169.885	-0.388	-0.018
-115.107	800.000	-0.078	-0.367
-114.093	-200.000	0.015	-0.128
-113.078	-76.847	0.437	-0.197
-112.064	-103.718	0.142	-0.043
-111.049	-155.469	-0.226	-0.019
-110.034	237.104	-0.080	-0.172
-109.020	41.533	0.095	-0.111
-108.005	-200.000	-0.006	0.115
-106.991	-200.000	-0.015	0.471
-105.976	-100.785	0.287	-0.091
-104.962	800.000	0.146	0.562
-103.947	-121.119	-0.210	-0.045
-102.932	-122.401	-0.491	-0.103
-101.918	46.704	-0.029	-0.035
-100.903	-200.000	-0.047	-0.283
-99.889	800.000	-0.053	-0.235
-98.874	49.392	-0.062	-0.075
-97.859	-200.000	0.034	-0.435
-96.845	-200.000	-0.013	0.423
-95.830	-61.099	-0.399	0.217
-94.816	-200.000	-0.028	-0.284
-93.801	-200.000	0.000	0.271
-92.786	108.365	-0.365	0.565
-91.772	-79.066	-0.524	0.229
-90.757	66.898	-0.260	0.343
-89.743	15.314	0.359	-0.364
-88.728	-106.891	0.239	-0.068
-87.713	-143.125	0.111	0.014
-86.699	711.076	0.048	-0.165
-85.684	222.327	0.048	-0.101
-84.670	191.714	0.386	-0.755
-83.655	-151.676	0.092	-0.009
-82.640	-200.000	0.044	-0.295
-81.626	47.705	0.332	-0.401
-80.611	-71.369	-0.651	-0.314
-79.597	275.834	-0.217	-0.501
-78.582	-127.966	0.149	-0.027
-77.567	-95.728	-0.035	-0.012
-76.553	57.946	0.143	-0.181
-75.538	-63.939	0.082	-0.043
-74.524	12.063	0.407	0.405
-73.509	-200.000	-0.005	0.152
-72.494	-129.975	0.455	-0.080
-71.480	-133.538	0.462	0.074
-70.465	-115.935	-0.315	0.075
-69.451	800.000	-0.057	0.295
-68.436	-122.598	0.201	-0.042
-67.422	373.944	0.138	-0.365
-66.407	-99.126	-0.174	-0.057
-65.392	35.560	0.261	0.297
-64.378	-200.000	-0.028	0.540
-63.363	-57.068	-0.475	0.270
-62.349	800.000	0.029	-0.120
-61.334	92.683	-2.008	-2.936
-60.319	-21.372	1.635	1.289
-59.305	203.587	-3.798	-7.624
-58.290	56.760	4.123	5.195
-57.276	395.231	3.815	10.335
-56.261	-200.000	24.705	319.758
-55.246	355.441	1303.154	3367.385
-54.232	53.424	2841.456	3524.712
-53.217	51.662	2658.573	3270.516
-52.203	31.938	2388.278	2660.235
-51.188	27.844	2054.094	2237.597
-50.173	24.516	1940.430	2074.891
-49.159	23.488	1928.342	2049.937
-48.144	22.906	1924.741	2039.287
-47.130	22.881	1922.163	2036.180
-46.115	22.978	1920.129	2035.062
-45.100	22.875	1919.194	2032.805
-44.086	22.826	1917.045	2029.877
-43.071	22.791	1915.737	2028.008
-42.057	22.720	1914.983	2026.312
-41.042	22.926	1912.082	2025.535
-40.027	22.769	1910.976	2022.481
-39.013	22.772	1909.929	2021.321
-37.998	22.779	1908.752	2020.082
-36.984	22.790	1907.487	2018.781
-35.969	22.709	1906.993	2017.248
-34.954	22.817	1905.107	2016.413
-33.940	22.800	1903.771	2014.731
-32.925	22.664	1903.747	2013.062
-31.911	22.705	1901.341	2010.906
-30.896	22.688	1900.401	2009.635
-29.881	22.693	1899.192	2008.337
-28.867	22.750	1897.237	2006.844
-27.852	22.721	1895.277	2004.357
-26.838	22.629	1894.880	2002.802
-25.823	22.652	1893.132	2001.140
-24.809	22.725	1891.569	2000.242
-23.794	22.649	1890.697	1998.377
-22.779	22.650	1889.033	1996.550
-21.765	22.551	1888.284	1994.550
-20.750	22.497	1887.054	1992.561
-19.736	22.539	1886.176	1992.025
-18.721	22.624	1884.475	1991.123
-17.706	22.512	1883.913	1989.178
-16.692	22.569	1882.612	1988.370
-15.677	22.622	1880.927	1987.108
-14.663	22.625	1879.271	1985.316
-13.648	22.607	1878.331	1984.040
-12.633	22.483	1877.122	1981.286
-11.619	22.625	1875.753	1981.368
-10.604	22.498	1874.639	1978.672
-9.590	22.524	1873.663	1977.864
-8.575	22.464	1873.333	1976.752
-7.560	22.453	1871.118	1974.212
-6.546	22.550	1869.919	1973.966
-5.531	22.535	1868.933	1972.675
-4.517	22.499	1867.131	1970.293
-3.502	22.558	1866.006	1969.687
-2.487	22.541	1865.223	1968.594
-1.473	22.731	1861.707	1966.935
-0.458	22.489	1843.769	1945.217
0.556	19.211	1990.088	2048.207
1.571	17.929	2194.031	2240.931
2.586	18.899	2232.043	2292.486
3.600	18.869	2234.724	2294.570
4.615	18.871	2234.756	2294.356
5.629	18.919	2231.875	2291.756
6.644	18.876	2229.648	2288.622
7.659	18.892	2228.117	2286.998
8.673	18.793	2227.205	2284.467
9.688	18.638	2235.153	2290.266
10.702	17.599	2315.434	2357.788
11.717	16.153	2378.739	2401.285
12.731	7.860	2359.222	2263.162
13.746	1.110	2341.497	2149.889
14.761	0.190	2338.712	2133.977
15.775	0.109	2336.418	2130.469
16.790	0.011	2335.336	2127.845
17.804	-0.040	2333.836	2125.499
18.819	0.084	2332.868	2126.116
19.834	0.068	2331.162	2124.083
20.848	-0.053	2329.362	2120.474
21.863	-0.076	2327.976	2118.637
22.877	-0.134	2326.690	2116.388
23.892	0.047	2323.403	2115.696
24.907	0.002	2321.018	2112.646
25.921	0.046	2319.094	2111.253
26.936	0.037	2316.869	2108.850
27.950	-0.010	2314.775	2106.031
28.965	0.065	2312.803	2105.045
29.980	0.081	2310.881	2103.268
30.994	0.181	2308.732	2102.460
32.009	4.200	2322.505	2171.424
33.023	13.968	2350.012	2335.480
34.038	17.985	2356.572	2398.526
35.053	18.396	2354.241	2401.657
36.067	18.435	2352.400	2400.038
37.082	18.466	2350.378	2398.134
38.096	18.454	2348.175	2395.421
39.111	18.495	2346.427	2393.931
40.126	18.696	2343.774	2393.755
41.140	18.767	2342.569	2393.237
42.155	18.502	2341.084	2387.725
43.169	18.580	2339.153	2386.560
44.184	18.492	2336.236	2382.069
45.199	18.585	2333.658	2380.449
46.213	18.596	2331.936	2378.556
47.228	18.543	2332.545	2378.161
48.242	18.551	2329.961	2375.348
49.257	18.518	2328.648	2373.266
50.271	18.549	2325.690	2370.393
51.286	18.495	2323.093	2366.724
52.301	18.550	2321.271	2365.346
53.315	18.782	2321.494	2368.508
54.330	20.161	2324.435	2390.346
55.344	20.975	2324.498	2401.391
56.359	21.093	2321.221	2399.353
57.374	21.051	2320.629	2397.872
58.388	21.249	2317.007	2396.575
59.403	21.288	2313.454	2393.159
60.417	21.211	2310.940	2389.211
61.432	21.203	2309.641	2387.464
62.447	21.429	2307.771	2388.349
63.461	21.489	2306.134	2387.193
64.476	21.502	2305.370	2386.297
65.490	21.516	2303.504	2384.266
66.505	21.159	2300.833	2376.332
67.520	19.975	2295.509	2354.386
68.534	18.774	2290.549	2332.629
69.549	18.650	2286.186	2326.210
70.563	18.580	2285.094	2323.871
71.578	18.593	2283.527	2322.176
72.593	18.698	2281.310	2321.073
73.607	18.821	2280.073	2321.206
74.622	18.641	2278.631	2317.024
75.636	18.620	2274.220	2311.967
76.651	18.634	2273.679	2311.333
77.666	18.726	2271.586	2310.176
78.680	18.665	2268.750	2306.191
79.695	18.615	2267.247	2303.715
80.709	18.628	2266.495	2302.843
81.724	18.697	2264.690	2301.668
82.739	18.683	2261.746	2298.210
83.753	18.594	2260.031	2294.990
84.768	18.675	2257.413	2293.152
85.782	18.617	2255.457	2290.105
86.797	18.614	2253.753	2288.062
87.812	18.542	2253.046	2286.107
88.826	18.502	2250.913	2283.139
89.841	18.659	2248.592	2282.608
90.855	18.704	2246.703	2281.019
91.870	18.677	2244.695	2278.352
92.884	18.636	2242.880	2275.681
93.899	18.558	2242.093	2273.571
94.914	18.698	2242.942	2276.035
95.928	20.063	2246.274	2297.345
96.943	20.504	2244.063	2300.678
97.957	19.298	2236.781	2276.931
98.972	18.651	2233.471	2264.706
99.987	18.395	2230.741	2258.275
101.001	18.418	2228.359	2255.905
102.016	18.424	2226.112	2253.431
103.030	18.471	2224.502	2252.154
104.045	18.599	2222.585	2251.639
105.060	18.617	2220.315	2249.298
106.074	18.518	2219.538	2246.937
107.089	18.535	2217.162	2244.493
108.103	18.549	2215.466	2242.695
109.118	18.526	2214.509	2241.157
110.133	18.686	2212.917	2241.367
111.147	18.719	2210.620	2239.213
112.162	18.740	2209.211	2237.796
113.176	18.791	2205.654	2234.593
114.191	18.547	2205.587	2231.059
115.206	18.613	2203.567	2229.611
116.220	18.638	2201.548	2227.631
117.235	18.555	2198.481	2223.179
118.249	18.529	2196.421	2220.487
119.264	18.543	2195.556	2219.529
120.279	18.759	2193.677	2220.175
121.293	18.655	2191.621	2216.479
122.308	18.703	2190.752	2215.952
123.322	18.605	2189.865	2213.517
124.337	18.794	2189.678	2215.519
125.352	20.192	2193.262	2237.024
126.366	20.562	2190.775	2239.008
127.381	19.092	2184.741	2213.583
128.395	18.505	2181.603	2202.561
129.410	18.711	2178.142	2201.457
130.424	18.651	2177.662	2199.937
131.439	18.579	2174.853	2195.906
132.454	18.596	2172.584	2193.573
133.468	18.573	2170.844	2191.263
134.483	18.544	2169.931	2189.699
135.497	18.519	2167.197	2186.363
136.512	18.661	2165.242	2185.943
137.527	18.582	2164.756	2184.177
138.541	18.568	2162.637	2181.602
139.556	18.540	2161.640	2179.971
140.570	18.486	2161.189	2178.567
141.585	18.444	2159.288	2175.855
142.600	18.475	2157.102	2173.791
143.614	18.534	2155.466	2172.632
144.629	18.457	2153.473	2169.391
145.643	18.485	2152.246	2168.244
146.658	18.544	2149.738	2166.206
147.673	18.452	2148.331	2163.361
148.687	18.642	2147.195	2164.367
149.702	18.683	2146.355	2163.777
150.716	18.631	2145.111	2161.612
151.731	18.523	2144.146	2159.009
152.746	18.652	2142.989	2159.222
153.760	18.934	2144.318	2163.870
154.775	19.966	2148.337	2180.735
155.789	20.322	2144.502	2181.077
156.804	19.103	2136.989	2157.825
157.819	18.536	2132.845	2146.260
158.833	18.592	2130.469	2144.309
159.848	18.680	2128.160	2142.838
160.862	18.786	2127.530	2143.276
161.877	18.776	2126.270	2141.617
162.892	18.695	2125.528	2139.606
163.906	18.667	2123.848	2137.308
164.921	18.671	2122.539	2135.781
165.935	18.688	2119.977	2133.155
166.950	18.645	2118.760	2131.149
167.964	18.711	2115.542	2128.473
168.979	18.587	2113.822	2124.947
169.994	18.671	2112.697	2124.612
171.008	18.635	2111.039	2122.238
172.023	18.742	2109.275	2121.535
173.037	18.675	2108.797	2119.970
174.052	18.669	2106.447	2117.285
175.067	18.677	2104.269	2114.940
176.081	18.630	2103.944	2113.779
177.096	18.586	2102.443	2111.468
178.110	18.427	2101.109	2107.917
179.125	18.595	2098.929	2107.550
180.140	18.719	2097.741	2107.635
181.154	18.652	2096.979	2105.786
182.169	18.603	2095.738	2103.686
183.183	18.871	2095.915	2106.921
184.198	20.222	2099.054	2126.477
185.213	20.564	2097.614	2128.977
186.227	19.387	2091.356	2107.920
187.242	18.884	2088.986	2099.102
188.256	18.739	2086.765	2094.838
189.271	18.685	2086.241	2093.407
190.286	18.704	2084.184	2091.319
191.300	18.600	2081.999	2087.612
192.315	18.584	2079.621	2084.781
193.329	18.681	2078.078	2084.161
194.344	18.846	2077.551	2085.401
195.359	18.763	2076.494	2083.076
196.373	18.667	2074.024	2079.185
197.388	18.562	2072.217	2075.842
198.402	18.601	2069.750	2073.603
199.417	18.674	2066.811	2071.285
200.432	18.611	2065.923	2069.394
201.446	18.582	2066.165	2069.036
202.461	18.578	2062.780	2065.351
203.475	18.495	2061.613	2062.930
204.490	18.479	2060.624	2061.499
205.504	18.586	2057.588	2059.500
206.519	18.626	2055.031	2057.185
207.534	18.497	2054.185	2054.534
208.548	18.440	2052.960	2052.371
209.563	18.482	2051.353	2051.024
210.577	18.567	2049.998	2050.453
211.592	18.684	2048.785	2050.393
212.607	19.281	2051.598	2060.134
213.621	20.755	2054.985	2081.018
214.636	20.490	2050.130	2072.678
215.650	18.895	2043.952	2047.109
216.665	18.648	2041.003	2040.949
217.680	18.601	2040.433	2039.574
218.694	18.583	2039.154	2037.840
219.709	18.669	2037.336	2036.805
220.723	18.622	2036.391	2035.056
221.738	18.650	2034.476	2033.231
222.753	18.638	2031.428	2029.798
223.767	18.625	2030.359	2028.340
224.782	18.475	2029.156	2025.110
225.796	18.714	2027.544	2026.093
226.811	18.865	2026.306	2026.405
227.826	18.721	2025.244	2023.394
228.840	18.645	2024.525	2021.533
229.855	18.691	2022.728	2020.042
230.869	18.804	2020.933	2019.338
231.884	18.817	2018.448	2016.773
232.899	18.717	2016.542	2013.449
233.913	18.606	2016.325	2011.684
234.928	18.571	2015.874	2010.571
235.942	18.666	2014.688	2010.271
236.957	18.892	2010.944	2008.950
237.972	18.637	2010.561	2005.330
238.986	18.746	2009.903	2005.710
240.001	18.684	2008.010	2002.856
241.015	18.544	2006.611	1999.578
242.030	18.894	2006.998	2003.827
243.045	20.153	2008.363	2019.701
244.059	20.211	2006.644	2018.412
245.074	19.075	2001.124	1999.367
246.088	18.673	1998.022	1991.338
247.103	18.728	1995.998	1989.726
248.117	18.731	1995.064	1988.589
249.132	18.670	1993.955	1986.530
250.147	18.703	1990.452	1983.196
251.161	18.483	1989.606	1979.551
252.176	18.617	1988.914	1980.181
253.190	18.968	1986.332	1981.439
254.205	18.789	1984.914	1977.724
255.220	18.791	1984.223	1976.818
256.234	18.786	1982.476	1974.782
257.249	18.802	1981.601	1973.856
258.263	18.788	1979.925	1971.791
259.278	18.771	1979.069	1970.506
260.293	18.753	1976.971	1967.976
261.307	18.463	1976.447	1963.877
262.322	18.513	1974.319	1962.109
263.336	18.530	1971.812	1959.571
264.351	18.671	1970.259	1959.417
265.366	18.605	1969.756	1957.921
266.380	18.647	1968.257	1956.683
267.395	18.598	1967.389	1955.020
268.409	18.551	1965.071	1951.947
269.424	18.516	1964.507	1950.751
270.439	18.724	1962.760	1951.159
271.453	18.955	1963.932	1954.736
272.468	20.373	1964.194	1970.951
273.482	20.417	1961.997	1969.012
274.497	19.138	1956.585	1948.801
275.512	18.614	1953.645	1939.684
276.526	18.570	1951.985	1937.308
277.541	18.525	1949.974	1934.570
278.555	18.582	1948.188	1933.207
279.570	18.560	1946.402	1930.961
280.585	18.541	1944.937	1929.058
281.599	18.728	1942.753	1928.776
282.614	18.763	1942.594	1928.773
283.628	18.845	1941.605	1928.496
284.643	18.802	1941.147	1927.315
285.657	18.862	1939.372	1926.000
286.672	18.902	1937.405	1924.274
287.687	18.950	1935.118	1922.307
288.701	18.811	1935.059	1920.451
289.716	18.851	1933.157	1918.792
290.730	18.832	1931.763	1916.960
291.745	18.827	1930.508	1915.429
292.760	18.902	1928.546	1914.089
293.774	18.644	1928.281	1910.712
294.789	18.645	1927.743	1909.959
295.803	18.643	1925.177	1907.173
296.818	18.551	1924.502	1905.248
297.833	18.581	1922.833	1903.697
298.847	18.679	1920.804	1902.556
299.862	18.595	1919.688	1900.286
300.876	18.883	1919.496	1903.080
301.891	20.234	1922.474	1920.848
302.906	20.703	1920.622	1923.977
303.920	19.271	1915.109	1902.349
304.935	18.755	1912.370	1893.689
305.949	18.651	1909.996	1889.953
306.964	18.658	1907.994	1887.831
307.979	18.774	1906.865	1887.767
308.993	18.596	1906.000	1884.718
310.008	18.778	1904.325	1884.839
311.022	18.725	1904.100	1883.810
312.037	18.852	1901.619	1882.529
313.052	18.799	1900.092	1880.207
314.066	18.839	1896.877	1877.236
315.081	18.927	1896.702	1877.811
316.095	18.758	1896.066	1875.094
317.110	18.725	1894.224	1872.695
318.125	18.765	1892.309	1871.012
319.139	18.831	1891.801	1871.007
320.154	18.906	1890.098	1869.924
321.168	18.994	1888.467	1869.043
322.183	18.936	1887.260	1866.989
323.197	18.735	1885.141	1862.482
324.212	18.589	1884.071	1859.609
325.227	18.435	1883.338	1856.982
326.241	18.716	1880.156	1856.685
327.256	18.743	1879.154	1855.767
328.270	18.774	1878.250	1854.982
329.285	18.642	1878.480	1853.561
330.300	19.268	1880.098	1861.727
331.314	20.752	1881.402	1878.918
332.329	20.538	1877.873	1872.851
333.343	19.086	1872.691	1851.768
334.358	18.840	1870.160	1846.384
335.373	18.775	1868.068	1843.393
336.387	18.732	1866.350	1841.012
337.402	18.778	1865.424	1840.379
338.416	18.759	1863.478	1838.034
339.431	18.685	1862.935	1836.477
340.446	18.890	1861.083	1836.641
341.460	19.021	1859.600	1836.360
342.475	18.935	1858.094	1833.726
343.489	18.984	1857.075	1833.034
344.504	18.900	1855.887	1830.740
345.519	18.999	1854.752	1830.458
346.533	19.060	1852.335	1828.505
347.548	19.034	1851.676	1827.364
348.562	18.897	1850.509	1824.532
349.577	18.835	1850.003	1823.147
350.592	18.889	1848.151	1821.681
351.606	18.866	1846.741	1819.827
352.621	18.781	1844.734	1816.733
353.635	18.706	1842.420	1813.441
354.650	18.653	1841.988	1812.227
355.665	18.664	1840.321	1810.490
356.679	18.604	1839.184	1808.524
357.694	18.665	1837.092	1806.887
358.708	18.674	1836.738	1806.425
359.723	19.376	1838.011	1814.883
360.738	20.671	1839.570	1829.908
361.752	20.099	1836.729	1820.828
362.767	18.884	1831.638	1802.759
363.781	18.621	1828.879	1797.063
364.796	18.596	1827.341	1795.063
365.810	18.469	1827.516	1793.691
366.825	18.656	1825.611	1793.567
367.840	18.769	1824.105	1793.064
368.854	18.731	1824.278	1792.615
369.869	18.518	1822.515	1788.439
370.883	18.300	1821.288	1784.736
371.898	18.461	1819.613	1784.566
372.913	18.580	1817.931	1783.950
373.927	18.566	1816.802	1782.481
374.942	18.655	1815.793	1782.201
375.956	18.730	1814.107	1781.116
376.971	18.642	1812.099	1778.020
377.986	18.625	1809.600	1775.174
379.000	18.648	1808.437	1774.058
380.015	18.866	1807.623	1775.316
381.029	18.941	1806.983	1775.253
382.044	18.768	1804.855	1771.158
383.059	18.805	1803.766	1770.257
384.073	18.760	1801.990	1767.834
385.088	18.627	1800.389	1764.684
386.102	18.618	1798.998	1763.010
387.117	18.567	1796.683	1760.008
388.132	18.647	1796.887	1760.823
389.146	19.077	1798.644	1766.767
390.161	20.599	1800.014	1783.613
391.175	20.444	1795.066	1776.899
392.190	19.057	1789.368	1756.818
393.205	18.666	1787.265	1750.540
394.219	18.780	1785.801	1750.060
395.234	18.614	1784.548	1746.927
396.248	18.683	1782.411	1745.335
397.263	18.524	1780.798	1741.918
398.278	18.636	1779.515	1741.598
399.292	18.559	1778.901	1740.002
400.307	18.766	1778.062	1741.088
401.321	19.027	1777.014	1742.512
402.336	18.695	1776.033	1737.956
403.350	18.717	1775.287	1737.240
404.365	18.924	1773.774	1737.664
405.380	19.019	1772.675	1737.338
406.394	19.012	1771.144	1735.563
407.409	19.065	1769.225	1734.011
408.423	18.919	1768.226	1731.348
409.438	18.933	1766.145	1729.242
410.453	18.921	1765.048	1727.839
411.467	18.918	1764.527	1727.087
412.482	18.870	1762.049	1723.971
413.496	18.877	1760.841	1722.655
414.511	18.685	1759.319	1719.031
415.526	18.598	1756.709	1715.399
416.540	18.589	1754.778	1713.218
417.555	18.552	1754.676	1712.543
418.569	18.557	1754.985	1712.688
419.584	18.560	1755.245	1712.771
420.599	18.614	1754.310	1712.190
421.613	18.671	1752.762	1711.047
422.628	18.576	1751.802	1708.957
423.642	18.605	1749.578	1706.872
424.657	18.644	1748.382	1705.892
425.672	18.502	1746.363	1702.301
426.686	18.464	1746.018	1701.374
427.701	18.430	1743.943	1698.808
428.715	18.360	1742.665	1696.665
429.730	18.727	1740.719	1698.222
430.745	18.654	1739.833	1696.430
431.759	18.707	1739.675	1696.597
432.774	18.650	1738.374	1694.555
433.788	18.497	1737.848	1692.327
434.803	18.688	1736.822	1693.017
435.818	18.624	1735.898	1691.278
436.832	18.416	1735.501	1688.628
437.847	17.565	1727.883	1672.621
438.861	9.892	1707.924	1577.975
439.876	1.797	1692.647	1484.612
440.890	0.221	1689.219	1466.014
441.905	0.122	1688.270	1464.043
442.920	0.138	1686.890	1462.832
443.934	0.112	1685.032	1460.788
444.949	0.090	1683.665	1459.212
445.963	0.100	1682.824	1458.411
446.978	0.190	1682.903	1459.184
447.993	0.123	1681.883	1457.469
449.007	0.118	1678.834	1454.604
450.022	0.218	1677.202	1453.989
451.036	0.083	1676.254	1451.681
452.051	1.229	1679.979	1465.865
453.066	9.051	1697.978	1557.947
454.080	16.787	1709.913	1644.464
455.095	18.014	1711.380	1657.654
456.109	18.195	1711.025	1658.877
457.124	18.396	1708.760	1658.441
458.139	18.293	1708.908	1657.379
459.153	18.231	1708.319	1656.008
460.168	18.239	1706.243	1653.878
461.182	18.180	1704.229	1651.149
462.197	18.159	1702.805	1649.366
463.212	18.305	1700.760	1648.609
464.226	18.321	1699.495	1647.334
465.241	18.234	1698.055	1644.902
466.255	18.374	1697.413	1645.433
467.270	18.283	1696.835	1643.797
468.285	18.347	1695.059	1642.497
469.299	18.263	1693.754	1640.233
470.314	18.336	1691.595	1638.644
471.328	18.423	1690.009	1637.746
472.343	18.291	1689.972	1636.246
473.358	18.269	1688.448	1634.362
474.372	18.285	1687.613	1633.514
475.387	18.310	1685.614	1631.620
476.401	18.343	1684.097	1630.272
477.416	18.233	1683.810	1628.754
478.430	18.240	1682.498	1627.357
479.445	18.335	1681.201	1626.810
480.460	18.262	1680.613	1625.351
481.474	18.250	1679.467	1623.936
482.489	18.327	1677.296	1622.378
483.503	18.342	1675.486	1620.569
484.518	18.324	1674.351	1619.110
485.533	18.236	1673.127	1616.893
486.547	18.433	1671.107	1616.623
487.562	18.277	1670.871	1614.720
488.576	18.272	1670.176	1613.800
489.591	18.189	1668.209	1610.926
490.606	18.286	1667.143	1610.619
491.620	18.327	1664.613	1608.372
492.635	18.336	1663.296	1606.992
493.649	18.306	1662.051	1605.310
494.664	18.272	1661.504	1604.270
495.679	18.112	1660.069	1601.187
496.693	18.233	1658.936	1601.039
497.708	18.280	1657.427	1599.838
498.722	18.150	1656.320	1597.357
499.737	18.280	1655.219	1597.319
500.752	18.166	1653.844	1594.735
501.766	18.224	1651.976	1593.290
502.781	18.268	1650.425	1592.012
503.795	18.301	1649.129	1590.876
504.810	18.303	1648.403	1590.010
505.825	18.353	1647.650	1589.562
506.839	18.269	1646.175	1587.157
507.854	18.307	1645.208	1586.391
508.868	18.289	1642.472	1583.401
509.883	18.412	1641.736	1583.644
510.898	18.287	1641.190	1581.761
511.912	18.302	1638.821	1579.431
512.927	18.187	1637.812	1577.202
513.941	18.227	1636.618	1576.238
514.956	18.304	1635.113	1575.307
515.971	18.366	1634.309	1574.919
516.985	18.341	1633.048	1573.288
518.000	18.185	1632.527	1571.149
519.014	18.176	1631.564	1569.957
520.029	18.458	1629.451	1570.328
521.043	18.260	1627.980	1566.902
522.058	18.298	1626.896	1566.027
523.073	18.231	1626.508	1564.843
524.087	18.327	1625.325	1564.406
525.102	18.414	1624.354	1564.081
526.116	18.348	1622.756	1561.748
527.131	18.310	1622.064	1560.551
528.146	18.329	1621.104	1559.609
529.160	18.319	1619.447	1557.737
530.175	18.227	1619.147	1556.424
531.189	18.227	1617.685	1554.834
532.204	18.283	1616.105	1553.640
533.219	18.259	1614.810	1551.987
534.233	18.278	1613.910	1551.107
535.248	18.300	1613.061	1550.310
536.262	18.292	1611.655	1548.697
537.277	18.358	1610.249	1547.759
538.292	18.431	1608.489	1546.551
539.306	18.479	1607.273	1545.624
540.321	18.404	1605.994	1543.535
541.335	18.523	1604.000	1542.509
542.350	18.348	1603.164	1539.935
543.365	18.321	1601.956	1538.352
544.379	18.332	1600.216	1536.598
545.394	18.390	1599.107	1535.868
546.408	18.334	1597.842	1533.961
547.423	18.298	1596.817	1532.475
548.438	18.376	1595.695	1531.918
549.452	18.402	1593.940	1530.281
550.467	18.301	1593.551	1528.814
551.481	18.328	1591.892	1527.283
552.496	18.262	1591.477	1526.110
553.511	18.380	1589.909	1525.479
554.525	18.319	1589.375	1524.240
555.540	18.220	1589.096	1522.906
556.554	18.300	1587.758	1522.153
557.569	18.217	1585.983	1519.532
558.583	18.299	1583.818	1518.005
559.598	18.407	1582.281	1517.317
560.613	18.331	1582.330	1516.502
561.627	18.256	1580.984	1514.366
562.642	18.358	1578.676	1512.877
563.656	18.262	1577.988	1511.184
564.671	18.194	1577.469	1509.899
565.686	18.243	1575.675	1508.438
566.700	18.395	1573.910	1507.913
567.715	18.298	1572.218	1505.253
568.729	18.172	1571.490	1503.265
569.744	18.259	1570.062	1502.482
570.759	18.316	1568.687	1501.490
571.773	18.332	1568.287	1501.076
572.788	18.236	1567.081	1498.892
573.802	18.153	1565.849	1496.802
574.817	18.325	1563.051	1495.463
575.832	18.144	1562.754	1493.411
576.846	18.248	1561.817	1493.243
577.861	18.287	1560.766	1492.406
578.875	18.340	1560.289	1492.239
579.890	18.335	1558.774	1490.563
580.905	18.207	1557.890	1488.418
581.919	18.286	1557.165	1488.236
582.934	18.278	1556.532	1487.388
583.948	18.182	1555.165	1485.062
584.963	18.363	1552.589	1484.007
585.978	18.288	1551.685	1482.310
586.992	18.389	1551.357	1482.693
588.007	18.350	1551.059	1481.893
589.021	18.346	1549.647	1480.339
590.036	18.286	1548.395	1478.439
591.051	18.385	1546.792	1477.590
592.065	18.340	1545.604	1475.892
593.080	18.374	1543.629	1474.121
594.094	18.406	1542.213	1472.866
595.109	18.458	1539.812	1470.846
596.123	18.238	1539.397	1468.375
597.138	18.327	1538.467	1468.083
598.153	18.318	1537.225	1466.642
599.167	18.272	1535.953	1464.864
600.182	18.369	1534.710	1464.331
601.196	18.335	1533.974	1463.166
602.211	18.230	1533.072	1461.228
603.226	18.180	1531.980	1459.579
604.240	18.311	1530.113	1458.747
605.255	18.380	1528.849	1457.962
606.269	18.321	1528.350	1456.810
607.284	18.349	1526.409	1455.024
608.299	18.453	1525.249	1454.631
609.313	18.361	1524.570	1453.020
610.328	18.333	1523.656	1451.734
611.342	18.335	1521.592	1449.617
612.357	18.302	1521.413	1448.987
613.372	18.507	1519.266	1448.513
614.386	18.399	1518.516	1446.705
615.401	18.433	1517.777	1446.123
616.415	18.394	1517.172	1445.036
617.430	18.406	1515.811	1443.672
618.445	18.386	1514.805	1442.368
619.459	18.480	1513.313	1441.575
620.474	18.281	1512.484	1438.927
621.488	18.335	1512.175	1438.920
622.503	18.310	1511.338	1437.743
623.518	18.235	1509.955	1435.616
624.532	18.229	1508.148	1433.680
625.547	18.384	1507.330	1434.030
626.561	18.256	1506.436	1431.936
627.576	18.340	1504.693	1430.813
628.591	18.292	1503.920	1429.506
629.605	18.312	1502.994	1428.615
630.620	18.329	1501.381	1427.056
631.634	18.206	1500.955	1425.456
632.649	18.310	1499.098	1424.389
633.663	18.224	1498.228	1422.674
634.678	18.187	1497.497	1421.496
635.693	18.296	1495.450	1420.294
636.707	18.406	1493.674	1419.356
637.722	18.316	1492.909	1417.708
638.736	18.427	1492.030	1417.631
639.751	18.386	1490.323	1415.492
640.766	18.380	1489.669	1414.658
641.780	18.426	1488.042	1413.320
642.795	18.522	1487.426	1413.366
643.809	18.364	1486.756	1411.249
644.824	18.373	1486.048	1410.481
645.839	18.357	1485.049	1409.231
646.853	18.279	1484.169	1407.582
647.868	18.480	1482.260	1407.261
648.882	18.360	1480.875	1404.791
649.897	18.503	1479.787	1404.773
650.912	18.461	1478.155	1402.702
651.926	18.399	1477.493	1401.397
652.941	18.417	1476.303	1400.251
653.955	18.437	1474.684	1398.715
654.970	18.592	1473.467	1398.663
655.985	18.385	1472.232	1395.624
656.999	18.529	1470.784	1395.261
658.014	18.448	1468.925	1392.670
659.028	18.409	1468.997	1392.256
660.043	18.340	1468.256	1390.825
661.058	18.464	1466.653	1390.149
662.072	18.445	1465.821	1389.038
663.087	18.496	1464.663	1388.187
664.101	18.281	1463.754	1385.413
665.116	18.328	1462.081	1384.043
666.131	18.355	1461.115	1383.189
667.145	18.439	1460.006	1382.649
668.160	18.412	1458.831	1381.158
669.174	18.540	1456.802	1380.105
670.189	18.526	1456.001	1379.069
671.204	18.398	1455.355	1377.255
672.218	18.386	1454.783	1376.449
673.233	18.399	1453.546	1375.224
674.247	18.414	1452.171	1373.876
675.262	18.421	1451.898	1373.508
676.276	18.456	1450.311	1372.127
677.291	18.543	1449.331	1371.733
678.306	18.473	1448.476	1370.196
679.320	18.282	1447.544	1367.622
680.335	18.396	1446.668	1367.544
681.349	18.433	1445.854	1366.907
682.364	18.381	1444.699	1365.238
683.379	18.502	1442.748	1364.198
684.393	18.384	1441.939	1362.325
685.408	18.376	1440.810	1361.033
686.422	18.273	1440.568	1359.817
687.437	18.240	1440.196	1359.036
688.452	18.347	1438.681	1358.298
689.466	18.421	1437.407	1357.521
690.481	18.328	1435.505	1354.827
691.495	18.273	1434.504	1353.283
692.510	18.402	1433.274	1352.984
693.525	18.225	1432.153	1350.358
694.539	18.290	1431.445	1350.042
695.554	18.273	1431.095	1349.422
696.568	18.389	1429.460	1348.637
697.583	18.470	1428.607	1348.306
698.598	18.447	1427.751	1347.154
699.612	18.463	1426.850	1346.274
700.627	18.436	1425.542	1344.660
701.641	18.507	1423.979	1343.590
702.656	18.442	1423.413	1342.382
703.671	18.458	1422.737	1341.705
704.685	18.388	1422.356	1340.639
705.700	18.345	1420.870	1338.740
706.714	18.557	1418.517	1338.025
707.729	18.433	1418.042	1336.441
708.744	18.506	1416.724	1335.613
709.758	18.481	1415.306	1333.921
710.773	18.398	1414.688	1332.533
711.787	18.445	1413.369	1331.499
712.802	18.627	1411.618	1331.109
713.816	18.556	1410.557	1329.394
714.831	18.576	1409.958	1328.822
715.846	18.567	1408.892	1327.593
716.860	18.651	1407.469	1326.743
717.875	18.657	1406.029	1325.275
718.889	18.537	1405.481	1323.672
719.904	18.508	1404.925	1322.764
720.919	18.541	1403.185	1321.217
721.933	18.519	1402.171	1319.935
722.948	18.629	1401.459	1319.957
723.962	18.451	1401.120	1318.108
724.977	18.557	1399.951	1317.669
725.992	18.456	1398.762	1315.615
727.006	18.461	1397.333	1314.148
728.021	18.422	1395.729	1312.180
729.035	18.519	1394.992	1312.076
730.050	18.567	1393.360	1310.755
731.065	18.397	1392.955	1308.916
732.079	18.373	1391.512	1307.215
733.094	18.311	1390.655	1305.777
734.108	18.540	1388.961	1305.786
735.123	18.575	1387.478	1304.501
736.138	18.481	1386.778	1302.966
737.152	18.599	1385.390	1302.414
738.167	18.477	1384.325	1300.324
739.181	18.479	1384.007	1299.881
740.196	18.491	1383.148	1299.014
741.211	18.447	1382.421	1297.839
742.225	18.379	1381.711	1296.499
743.240	18.407	1379.914	1294.873
744.254	18.397	1378.827	1293.622
745.269	18.262	1377.952	1291.623
746.284	18.249	1377.489	1290.935
747.298	18.299	1375.886	1289.658
748.313	18.183	1374.856	1287.660
749.327	18.294	1374.690	1288.190
750.342	18.293	1373.464	1286.878
751.356	18.353	1372.192	1285.988
752.371	18.287	1371.053	1284.268
753.386	18.280	1369.946	1283.022
754.400	18.555	1368.498	1283.584
755.415	18.545	1367.405	1282.327
756.429	18.538	1366.386	1281.167
757.444	18.520	1365.311	1279.872
758.459	18.492	1364.654	1278.893
759.473	18.460	1363.504	1277.419
760.488	18.645	1363.161	1278.330
761.502	18.439	1361.964	1275.512
762.517	18.481	1360.575	1274.371
763.532	18.615	1358.784	1273.546
764.546	18.507	1357.977	1271.832
765.561	18.449	1357.075	1270.403
766.575	18.629	1356.339	1270.904
767.590	18.765	1354.890	1270.403
768.605	18.435	1354.329	1267.274
769.619	18.574	1352.540	1266.478
770.634	18.421	1352.030	1264.716
771.648	18.533	1351.124	1264.543
772.663	18.462	1350.342	1263.135
773.678	18.447	1349.136	1261.746
774.692	18.504	1348.958	1261.847
775.707	18.577	1347.846	1261.197
776.721	18.594	1346.512	1259.927
777.736	18.660	1345.252	1259.080
778.751	18.573	1344.536	1257.615
779.765	18.665	1343.016	1256.721
780.780	18.593	1342.746	1255.790
781.794	18.656	1341.625	1255.057
782.809	18.370	1341.073	1252.286
783.824	18.498	1339.814	1251.899
784.838	18.389	1338.133	1249.380
785.853	18.349	1337.165	1248.037
786.867	18.315	1337.058	1247.540
787.882	18.218	1335.994	1245.684
788.897	18.442	1335.120	1246.358
789.911	18.625	1334.185	1246.676
790.926	18.509	1333.135	1244.699
791.940	18.556	1331.228	1243.109
792.955	18.470	1329.926	1241.119
793.969	18.523	1329.168	1240.647
794.984	18.453	1328.711	1239.566
795.999	18.485	1327.594	1238.603
797.013	18.727	1324.858	1237.659
798.028	18.612	1324.259	1236.118
799.042	18.624	1323.854	1235.682
800.057	18.617	1323.137	1234.812
801.072	18.557	1321.998	1233.168
802.086	18.494	1320.491	1231.157
803.101	18.678	1319.671	1231.572
804.115	18.625	1318.412	1229.868
805.130	18.621	1317.996	1229.307
806.145	18.636	1316.405	1227.781
807.159	18.736	1314.688	1226.755
808.174	18.516	1313.941	1224.327
809.188	18.631	1312.791	1223.938
810.203	18.617	1311.133	1222.147
811.218	18.456	1309.994	1219.782
812.232	18.522	1308.804	1219.000
813.247	18.504	1307.542	1217.552
814.261	18.523	1307.060	1217.090
815.276	18.733	1305.645	1217.124
816.291	18.591	1305.807	1216.121
817.305	18.634	1304.651	1215.202
818.320	18.697	1302.665	1213.654
819.334	18.434	1301.568	1210.620
820.349	18.572	1300.129	1210.119
821.364	18.743	1298.386	1209.560
822.378	18.538	1297.908	1207.517
823.393	18.589	1296.413	1206.343
824.407	18.691	1294.562	1205.200
825.422	18.517	1294.726	1203.977
826.437	18.493	1293.752	1202.757
827.451	18.603	1291.498	1201.295
828.466	18.325	1290.207	1197.998
829.480	18.337	1288.528	1196.379
830.495	18.436	1287.122	1195.621
831.509	18.530	1286.478	1195.541
832.524	18.465	1285.783	1194.298
833.539	18.423	1284.889	1193.029
834.553	18.752	1282.864	1193.304
835.568	18.584	1282.068	1191.245
836.582	18.585	1281.264	1190.368
837.597	18.622	1279.987	1189.294
838.612	18.723	1278.312	1188.296
839.626	18.712	1278.071	1187.854
840.641	18.546	1277.496	1186.025
841.655	18.520	1276.530	1184.807
842.670	18.553	1275.652	1184.076
843.685	18.494	1274.097	1182.083
844.699	18.661	1272.499	1181.618
845.714	18.670	1271.242	1180.370
846.728	18.540	1270.711	1178.837
847.743	18.756	1269.480	1179.046
848.758	18.745	1268.539	1177.956
849.772	18.695	1267.497	1176.500
850.787	18.642	1266.218	1174.807
851.801	18.587	1264.706	1172.884
852.816	18.583	1263.225	1171.348
853.831	18.497	1262.202	1169.663
854.845	18.522	1260.371	1168.000
855.860	18.479	1258.755	1166.073
856.874	18.376	1257.973	1164.502
857.889	18.395	1257.586	1164.133
858.904	18.286	1255.399	1161.230
859.918	18.328	1253.564	1159.678
860.933	18.356	1252.639	1158.870
861.947	18.418	1251.855	1158.433
862.962	18.529	1250.612	1157.894
863.977	18.533	1249.473	1156.732
864.991	18.465	1248.823	1155.524
866.006	18.473	1248.923	1155.533
867.020	18.537	1247.815	1154.805
868.035	18.766	1245.707	1154.266
869.049	18.689	1245.151	1153.088
870.064	18.711	1244.337	1152.344
871.079	18.627	1243.607	1150.966
872.093	18.838	1242.937	1151.629
873.108	18.769	1241.475	1149.675
874.122	18.684	1240.213	1147.798
875.137	18.657	1240.492	1147.738
876.152	18.899	1238.917	1147.764
877.166	18.866	1237.007	1145.634
878.181	18.632	1236.499	1143.460
879.195	18.662	1236.570	1143.590
880.210	18.599	1235.612	1142.151
881.225	18.701	1234.218	1141.406
882.239	18.793	1232.742	1140.516
883.254	18.842	1231.255	1139.332
884.268	18.772	1230.994	1138.484
885.283	18.700	1229.745	1136.716
886.298	18.697	1228.284	1135.212
887.312	18.770	1227.231	1134.587
888.327	18.869	1225.898	1133.875
889.341	18.829	1224.810	1132.467
890.356	18.820	1224.296	1131.796
891.371	18.663	1224.456	1130.766
892.385	18.735	1223.573	1130.296
893.400	18.625	1222.316	1128.268
894.414	18.645	1221.015	1127.070
895.429	18.590	1219.134	1124.834
896.444	18.498	1217.500	1122.589
897.458	18.399	1216.957	1121.297
898.473	18.606	1216.178	1121.808
899.487	18.673	1215.221	1121.234
900.502	18.780	1214.216	1120.874
901.517	18.839	1212.975	1119.979
902.531	18.773	1212.226	1118.719
903.546	18.747	1212.042	1118.250
904.560	18.906	1211.007	1118.199
905.575	18.840	1210.050	1116.751
906.589	18.820	1209.027	1115.544
907.604	18.820	1208.218	1114.658
