DTS Sentinel unit serial number:	SN409020Multiplexer serial number:	ORYXHardware model number:	OX4-SRSoftware version number:	ORYX F/W v3.00 Oryx Data Collector v3.7.2.0data status	okinstallation	HaddamTimeLapsedifferential loss correction	single-endedforward channel	channel 3reverse channel	N/Adate	2011/06/22time	03:46:17forward acquisition time	30.00reverse acquisition time	0.00gamma	498.7831k internal	0.1751k external	0.1751temperature offset calibration	1.0074default loss term (dB/km)	0.3790temperature slope calibration	1.3530multiplexer offset coefficient	1.0000multiplexer slope coefficient	1.0000fibre end	0.00T internal ref (°C)	22.44T ext. ref 1 (°C)	18.02T ext. ref 2 (°C)	0.08length (m)	temperature (°C)	Stokes	anti-Stokes-747.200	800.000	-0.066	0.254
-746.185	18.607	0.276	-0.294
-745.171	-85.894	-0.450	0.184
-744.156	-43.237	0.425	0.285
-743.142	-135.823	-0.247	0.038
-742.127	-42.092	-0.365	0.248
-741.112	210.092	0.056	-0.118
-740.098	95.223	-0.124	-0.188
-739.083	46.273	-0.102	0.126
-738.069	-104.620	-0.137	-0.042
-737.054	270.586	0.027	0.063
-736.039	-99.048	-0.384	0.129
-735.025	13.260	0.380	0.391
-734.010	-200.000	-0.009	-0.189
-732.996	-56.832	0.062	-0.037
-731.981	-20.541	0.057	0.046
-730.966	-122.507	0.695	-0.149
-729.952	436.845	0.039	0.113
-728.937	-28.776	0.179	-0.136
-727.923	-49.265	-0.012	0.008
-726.908	-3.030	0.207	-0.192
-725.894	30.553	-0.153	-0.174
-724.879	-200.000	-0.054	0.485
-723.864	-143.233	-0.519	-0.065
-722.850	-159.554	-0.254	-0.018
-721.835	-200.000	0.001	-0.083
-720.821	248.063	0.244	-0.550
-719.806	-62.517	-0.165	0.091
-718.791	-1.554	0.132	0.123
-717.777	95.306	-0.193	0.292
-716.762	44.052	-0.167	0.204
-715.748	800.000	0.085	0.461
-714.733	-103.609	-0.409	0.127
-713.718	-83.111	0.198	0.084
-712.704	607.949	-0.046	-0.153
-711.689	-190.852	0.352	-0.005
-710.675	631.543	0.054	0.181
-709.660	-49.191	0.162	-0.102
-708.645	-112.867	0.143	0.037
-707.631	-18.728	0.233	-0.193
-706.616	-129.764	-0.160	-0.029
-705.602	108.967	0.112	0.179
-704.587	800.000	0.059	0.252
-703.572	-200.000	-0.001	0.493
-702.558	405.480	-0.083	-0.235
-701.543	24.883	0.263	-0.289
-700.529	514.230	-0.151	0.469
-699.514	-106.972	0.132	-0.038
-698.499	258.979	0.209	-0.479
-697.485	-9.315	0.404	-0.357
-696.470	-145.600	-0.177	-0.021
-695.456	800.000	-0.039	-0.157
-694.441	-100.382	0.180	0.059
-693.426	29.096	-0.381	-0.428
-692.412	-41.311	-0.309	-0.211
-691.397	-21.069	-0.396	-0.321
-690.383	-26.329	-0.332	-0.258
-689.368	-109.763	-0.126	0.035
-688.354	111.498	0.209	-0.334
-687.339	-146.348	0.161	0.018
-686.324	-92.125	-0.493	-0.183
-685.310	-108.426	0.246	-0.070
-684.295	-146.889	-0.048	0.005
-683.281	-48.935	-0.494	-0.312
-682.266	26.508	-0.031	-0.034
-681.251	-71.815	-0.257	-0.126
-680.237	-58.219	0.306	-0.176
-679.222	-119.849	0.256	-0.058
-678.208	-200.000	0.038	-0.434
-677.193	-48.747	-0.434	0.275
-676.178	-51.976	-0.249	-0.153
-675.164	-50.800	0.272	0.169
-674.149	282.288	-0.186	0.443
-673.135	73.470	-0.220	-0.306
-672.120	127.560	-0.091	0.153
-671.105	-23.241	-0.344	0.273
-670.091	-34.125	0.067	-0.049
-669.076	-200.000	0.002	-0.303
-668.062	133.697	0.122	-0.210
-667.047	-111.226	0.386	0.104
-666.032	-167.863	-0.375	-0.019
-665.018	-33.897	0.402	0.293
-664.003	-118.386	0.452	0.105
-662.989	-88.324	0.418	0.165
-661.974	-162.035	0.692	0.045
-660.959	-29.514	-0.298	-0.225
-659.945	346.851	-0.031	-0.080
-658.930	-50.028	-0.346	-0.216
-657.916	224.312	-0.221	0.474
-656.901	-200.000	0.031	0.248
-655.886	617.665	0.032	-0.108
-654.872	-75.601	-0.284	-0.133
-653.857	51.493	-0.102	-0.128
-652.843	87.457	-0.131	-0.192
-651.828	-38.014	-0.259	0.182
-650.814	-124.374	-0.154	-0.032
-649.799	-73.602	0.126	0.061
-648.784	800.000	-0.087	-0.459
-647.770	212.693	-0.137	0.286
-646.755	-200.000	-0.033	0.414
-645.741	-94.559	0.240	-0.086
-644.726	-46.844	0.272	-0.175
-643.711	-144.118	0.101	-0.012
-642.697	84.208	0.178	0.258
-641.682	151.657	-0.158	-0.285
-640.668	-200.000	0.072	0.938
-639.653	-28.312	0.681	-0.519
-638.638	84.292	0.101	0.146
-637.624	-130.080	-0.154	0.028
-636.609	-11.938	0.237	0.206
-635.595	-51.629	-0.141	0.086
-634.580	-115.394	-0.091	0.023
-633.565	-103.951	-0.105	0.032
-632.551	26.967	0.187	0.208
-631.536	569.503	-0.053	0.171
-630.522	-200.000	0.085	0.543
-629.507	-28.790	-0.121	-0.092
-628.492	-144.462	-0.455	0.055
-627.478	-95.670	-0.259	0.091
-626.463	67.401	0.314	-0.425
-625.449	-200.000	-0.012	-0.304
-624.434	-73.383	0.176	0.084
-623.419	-89.464	0.065	0.025
-622.405	-113.105	0.483	-0.125
-621.390	157.540	0.073	-0.133
-620.376	-200.000	0.044	-0.299
-619.361	138.048	0.147	-0.255
-618.346	-95.487	0.535	0.189
-617.332	-200.000	0.036	0.543
-616.317	800.000	0.047	0.273
-615.303	196.997	-0.359	-0.726
-614.288	-72.429	-0.179	0.087
-613.273	31.676	0.164	-0.186
-612.259	-84.638	-0.275	-0.114
-611.244	118.145	0.093	-0.152
-610.230	-39.820	-0.207	-0.143
-609.215	5.703	-0.255	-0.249
-608.201	111.510	0.265	0.424
-607.186	-49.495	-0.368	-0.231
-606.171	-95.630	0.527	0.185
-605.157	237.155	0.082	-0.180
-604.142	-169.588	0.008	-0.000
-603.128	177.998	0.188	-0.363
-602.113	337.208	-0.094	-0.243
-601.098	-200.000	0.017	-0.295
-600.084	-120.196	-0.505	-0.113
-599.069	800.000	0.008	-0.040
-598.055	219.138	-0.075	-0.160
-597.040	188.109	-0.058	0.114
-596.025	-200.000	0.007	0.087
-595.011	-85.997	0.213	0.086
-593.996	-94.837	0.428	0.152
-592.982	-95.413	0.132	-0.046
-591.967	-83.929	0.149	-0.062
-590.952	-200.000	-0.004	0.177
-589.938	-37.578	0.086	0.061
-588.923	380.020	0.254	-0.690
-587.909	-21.663	-0.071	0.057
-586.894	-180.244	-0.194	0.005
-585.879	-200.000	-0.034	-0.327
-584.865	-39.089	0.410	0.284
-583.850	-200.000	-0.021	-0.210
-582.836	-119.866	-0.402	0.091
-581.821	17.940	-0.360	0.379
-580.806	-106.646	-0.265	0.077
-579.792	-200.000	0.025	-0.225
-578.777	-94.759	-0.440	0.157
-577.763	-86.179	0.517	-0.209
-576.748	-111.472	-0.288	-0.077
-575.733	12.013	-0.194	-0.197
-574.719	-137.084	-0.363	0.054
-573.704	-200.000	-0.046	0.711
-572.690	-200.000	0.046	-0.273
-571.675	438.339	-0.087	-0.252
-570.661	306.406	-0.126	-0.312
-569.646	-49.085	0.361	0.227
-568.631	50.631	-0.097	-0.122
-567.617	93.961	-0.131	-0.196
-566.602	651.351	0.089	0.303
-565.588	-200.000	0.040	-0.312
-564.573	82.151	-0.240	0.343
-563.558	-7.553	-0.318	0.283
-562.544	16.312	0.158	0.164
-561.529	-84.183	-0.285	-0.118
-560.515	-200.000	0.004	-0.130
-559.500	60.139	-0.231	0.301
-558.485	292.359	-0.078	0.189
-557.471	-45.384	0.088	0.057
-556.456	-72.814	0.294	-0.142
-555.442	800.000	0.043	-0.167
-554.427	800.000	0.054	-0.201
-553.412	-63.387	0.342	-0.185
-552.398	222.608	0.251	-0.536
-551.383	40.500	-0.227	0.269
-550.369	373.241	0.157	-0.422
-549.354	277.292	0.172	-0.405
-548.339	-117.601	0.444	0.105
-547.325	122.335	-0.088	-0.146
-546.310	800.000	0.065	-0.248
-545.296	38.446	-0.489	-0.574
-544.281	-89.879	-0.236	0.090
-543.266	53.926	-0.110	0.140
-542.252	-60.330	0.571	0.319
-541.237	-11.469	0.100	-0.087
-540.223	423.544	-0.159	-0.452
-539.208	24.147	-0.064	0.070
-538.193	82.668	0.283	0.406
-537.179	-122.223	-0.364	-0.078
-536.164	-48.504	0.155	-0.098
-535.150	-200.000	0.006	-0.198
-534.135	-150.765	-0.202	0.020
-533.121	56.192	-0.154	-0.198
-532.106	-20.332	0.138	0.112
-531.091	219.816	0.135	0.285
-530.077	-71.915	0.224	0.110
-529.062	800.000	-0.085	-0.465
-528.048	-200.000	0.012	-0.179
-527.033	-128.115	-0.260	-0.049
-526.018	-95.474	0.262	-0.092
-525.004	27.446	0.058	0.065
-523.989	-147.880	-0.546	0.059
-522.975	-62.734	-0.386	-0.210
-521.960	-64.567	-0.170	-0.090
-520.945	108.525	-0.023	-0.037
-519.931	118.298	0.125	-0.203
-518.916	-88.544	-0.271	-0.106
-517.902	-200.000	-0.519	0.003
-516.887	800.000	0.011	0.060
-515.872	-200.000	-0.026	-0.432
-514.858	800.000	-0.040	0.161
-513.843	800.000	0.054	-0.282
-512.829	-157.909	-0.259	0.020
-511.814	-200.000	-0.037	-0.342
-510.799	-56.542	0.143	-0.083
-509.785	-43.030	-0.106	-0.070
-508.770	800.000	-0.040	0.175
-507.756	273.862	0.042	0.098
-506.741	-8.603	0.420	-0.371
-505.726	-29.032	0.038	-0.028
-504.712	-100.559	0.396	-0.128
-503.697	-45.244	-0.026	0.017
-502.683	-200.000	-0.023	0.232
-501.668	800.000	0.081	0.376
-500.653	331.975	-0.067	0.170
-499.639	-46.886	0.470	-0.302
-498.624	-200.000	0.005	-0.362
-497.610	70.617	-0.237	-0.323
-496.595	-91.508	0.168	-0.063
-495.581	-99.282	0.385	0.127
-494.566	15.752	0.320	-0.331
-493.551	800.000	-0.062	-0.342
-492.537	47.252	0.115	0.141
-491.522	-95.931	0.171	0.060
-490.508	-200.000	-0.014	-0.137
-489.493	115.942	0.179	0.289
-488.478	-94.817	0.255	0.091
-487.464	-200.000	0.037	-0.371
-486.449	140.660	0.299	-0.521
-485.435	-65.174	0.146	0.077
-484.420	-126.877	0.324	-0.062
-483.405	129.589	0.133	0.225
-482.391	-10.565	0.398	0.346
-481.376	562.973	0.126	0.403
-480.362	-108.869	-0.154	-0.043
-479.347	733.949	0.086	-0.303
-478.332	800.000	0.070	-0.259
-477.318	-200.000	0.009	-0.107
-476.303	-74.007	0.290	0.137
-475.289	237.010	0.084	-0.183
-474.274	-125.995	0.236	-0.046
-473.259	-166.742	0.585	0.031
-472.245	-19.132	0.361	0.294
-471.230	250.345	-0.216	0.484
-470.216	-51.434	0.242	0.148
-469.201	-145.012	0.269	0.032
-468.186	-189.438	-0.261	0.004
-467.172	-141.572	0.328	0.043
-466.157	-108.443	0.202	0.057
-465.143	-200.000	-0.002	-0.323
-464.128	-96.239	-0.319	-0.110
-463.113	-91.829	0.322	0.119
-462.099	214.723	0.158	-0.329
-461.084	395.171	0.104	-0.286
-460.070	-101.560	0.082	-0.026
-459.055	-124.673	0.278	-0.056
-458.040	31.185	0.269	0.304
-457.026	527.499	-0.015	0.046
-456.011	-91.222	0.127	0.048
-454.997	324.307	0.205	-0.517
-453.982	-64.379	-0.311	-0.166
-452.968	-134.786	-0.357	0.056
-451.953	-200.000	-0.032	0.421
-450.938	-104.095	-0.068	-0.021
-449.924	-161.562	-0.667	-0.044
-448.909	-126.809	0.257	0.049
-447.895	-166.136	0.233	0.013
-446.880	-131.167	-0.449	0.078
-445.865	-135.786	-0.442	-0.068
-444.851	-85.260	-0.149	-0.061
-443.836	-97.523	-0.349	0.118
-442.822	84.007	0.128	-0.184
-441.807	-143.703	0.092	0.011
-440.792	-200.000	-0.050	0.436
-439.778	566.916	-0.071	0.227
-438.763	-84.748	-0.212	-0.087
-437.749	-138.174	-0.277	-0.040
-436.734	-197.856	0.473	0.004
-435.719	693.833	-0.075	0.261
-434.705	-94.453	-0.605	0.215
-433.690	-33.394	0.378	-0.274
-432.676	800.000	-0.030	-0.124
-431.661	-132.599	-0.495	-0.083
-430.646	-54.944	0.206	0.122
-429.632	-108.349	-0.313	-0.088
-428.617	2.495	0.269	-0.255
-427.603	330.397	0.181	-0.460
-426.588	55.009	-0.060	-0.076
-425.573	800.000	0.128	0.585
-424.559	-161.304	-0.410	0.028
-423.544	-130.691	-0.614	-0.107
-422.530	-85.770	-0.356	0.144
-421.515	769.163	0.091	-0.327
-420.500	-200.000	0.067	-0.548
-419.486	-138.666	-0.380	0.054
-418.471	-200.000	0.020	0.180
-417.457	206.922	-0.047	-0.097
-416.442	800.000	0.145	-0.633
-415.428	-11.498	0.237	-0.204
-414.413	-158.604	-0.294	-0.022
-413.398	129.705	0.254	-0.427
-412.384	-135.269	-0.184	-0.029
-411.369	800.000	-0.104	0.413
-410.355	-71.127	-0.338	0.166
-409.340	74.414	-0.158	0.218
-408.325	-35.965	0.156	-0.111
-407.311	-63.817	0.279	0.149
-406.296	800.000	0.054	0.204
-405.282	-200.000	0.006	0.259
-404.267	-200.000	0.009	0.182
-403.252	-178.919	0.454	-0.013
-402.238	-157.781	0.328	-0.025
-401.223	-33.514	0.424	0.306
-400.209	-74.222	0.066	-0.031
-399.194	-143.226	0.244	0.030
-398.179	-200.000	-0.058	0.436
-397.165	168.679	-0.179	0.335
-396.150	80.095	-0.104	0.147
-395.136	-78.963	0.056	0.025
-394.121	800.000	0.030	-0.173
-393.106	54.546	0.140	-0.176
-392.092	91.059	-0.233	-0.344
-391.077	-154.591	-0.536	0.046
-390.063	63.952	0.296	0.391
-389.048	-0.600	0.257	-0.239
-388.033	-45.853	-0.353	0.228
-387.019	389.063	0.124	0.339
-386.004	-124.578	-0.097	-0.020
-384.990	-164.146	-0.361	0.022
-383.975	-173.053	-0.544	0.022
-382.960	-38.385	-0.328	-0.227
-381.946	30.370	0.232	0.260
-380.931	-186.590	0.523	0.010
-379.917	-21.524	-0.098	-0.078
-378.902	38.401	-0.471	-0.550
-377.888	-108.430	-0.315	0.088
-376.873	-136.196	-0.091	0.014
-375.858	-200.000	-0.002	-0.461
-374.844	20.337	0.136	-0.144
-373.829	-200.000	-0.003	0.124
-372.815	56.828	0.149	0.190
-371.800	-200.000	-0.013	0.145
-370.785	481.253	0.083	-0.247
-369.771	-9.354	-0.209	-0.182
-368.756	-178.280	-0.461	-0.014
-367.742	-0.555	0.127	0.118
-366.727	-77.582	-0.346	-0.156
-365.712	800.000	0.010	0.055
-364.698	-42.236	0.535	-0.357
-363.683	-88.081	0.190	-0.074
-362.669	74.847	-0.173	0.239
-361.654	-9.846	-0.494	-0.429
-360.639	418.284	0.093	-0.261
-359.625	365.849	-0.129	-0.341
-358.610	-90.845	-0.205	-0.077
-357.596	-200.000	0.047	-0.285
-356.581	144.157	0.163	-0.286
-355.566	-200.000	-0.003	0.223
-354.552	800.000	0.097	0.377
-353.537	294.334	0.218	0.524
-352.523	-168.973	-0.454	0.022
-351.508	-115.516	-0.009	0.002
-350.493	-53.537	0.087	0.052
-349.479	800.000	0.045	-0.204
-348.464	-56.104	0.347	-0.201
-347.450	-200.000	-0.027	0.388
-346.435	-99.124	-0.298	-0.098
-345.420	-137.275	0.234	0.034
-344.406	-146.797	-0.284	-0.032
-343.391	-200.000	-0.001	0.274
-342.377	-142.517	-0.081	-0.010
-341.362	-42.500	0.301	0.200
-340.348	21.971	0.043	0.045
-339.333	-128.719	0.199	-0.036
-338.318	-200.000	-0.042	-0.334
-337.304	-161.354	-0.269	0.018
-336.289	-93.392	-0.225	-0.081
-335.275	-111.326	-0.436	-0.115
-334.260	709.063	-0.053	-0.185
-333.245	171.892	0.200	0.377
-332.231	800.000	0.154	0.635
-331.216	-175.326	0.327	-0.012
-330.202	-103.157	-0.137	0.042
-329.187	-200.000	0.003	0.138
-328.172	-146.486	0.584	-0.066
-327.158	5.847	-0.209	0.202
-326.143	319.403	-0.173	0.431
-325.129	122.198	-0.295	-0.482
-324.114	-59.512	0.543	-0.304
-323.099	71.233	0.121	0.165
-322.085	590.182	-0.136	0.441
-321.070	-128.811	-0.838	-0.153
-320.056	430.518	-0.133	-0.379
-319.041	-200.000	0.026	0.171
-318.026	45.572	-0.246	-0.297
-317.012	-200.000	-0.057	0.423
-315.997	343.770	0.146	0.374
-314.983	173.656	0.103	-0.196
-313.968	6.616	0.191	0.185
-312.953	27.438	0.246	-0.270
-311.939	-7.023	0.459	-0.407
-310.924	31.934	-0.254	-0.286
-309.910	291.990	-0.121	0.288
-308.895	-120.330	-0.582	0.128
-307.880	95.639	0.135	0.201
-306.866	-125.959	0.593	-0.116
-305.851	769.354	0.046	-0.166
-304.837	-100.717	-0.417	0.133
-303.822	144.852	-0.244	-0.428
-302.807	8.414	-0.352	-0.345
-301.793	-57.838	0.151	-0.086
-300.778	800.000	0.117	-0.488
-299.764	-151.712	-0.084	-0.008
-298.749	-142.371	-0.146	0.019
-297.735	-168.160	-0.415	0.021
-296.720	-87.537	0.280	-0.110
-295.705	-90.074	-0.323	0.122
-294.691	206.629	0.164	0.334
-293.676	87.552	-0.082	-0.118
-292.662	800.000	-0.116	0.517
-291.647	-60.314	-0.247	0.137
-290.632	-89.155	-0.210	0.081
-289.618	67.690	-0.068	0.090
-288.603	232.761	-0.053	-0.114
-287.589	-133.176	0.367	-0.060
-286.574	-200.000	-0.023	0.393
-285.559	298.803	-0.213	0.512
-284.545	235.867	0.174	-0.376
-283.530	18.449	-0.153	0.160
-282.516	-110.776	0.430	0.115
-281.501	800.000	0.023	-0.098
-280.486	-117.889	0.413	0.096
-279.472	-6.402	0.225	0.200
-278.457	800.000	0.055	0.246
-277.443	-139.511	-0.095	-0.013
-276.428	24.515	0.141	-0.152
-275.413	800.000	-0.032	-0.171
-274.399	-44.801	0.160	0.104
-273.384	20.471	-0.284	0.299
-272.370	289.024	0.047	0.110
-271.355	45.583	-0.298	-0.359
-270.340	-37.232	-0.314	0.218
-269.326	-0.645	-0.297	-0.275
-268.311	71.771	-0.406	0.551
-267.297	-54.377	0.402	0.237
-266.282	-165.720	0.463	0.026
-265.267	213.430	0.038	0.079
-264.253	-137.994	-0.174	0.025
-263.238	-190.194	-0.371	0.005
-262.224	-47.286	0.142	-0.090
-261.209	208.512	0.142	-0.290
-260.195	-53.250	-0.306	-0.182
-259.180	-54.786	0.318	0.187
-258.165	-70.505	0.251	0.124
-257.151	234.768	0.103	-0.221
-256.136	-167.365	0.137	-0.007
-255.122	62.393	0.143	0.187
-254.107	113.022	0.264	-0.419
-253.092	-82.117	-0.243	0.103
-252.078	-29.033	-0.245	0.183
-251.063	-200.000	-0.025	-0.165
-250.049	379.230	-0.165	0.444
-249.034	-132.469	-0.307	-0.051
-248.019	280.782	-0.057	0.134
-247.005	-107.664	-0.411	0.116
-245.990	-40.164	0.090	0.061
-244.976	-87.981	-0.135	-0.052
-243.961	-62.862	-0.131	-0.070
-242.946	-200.000	0.003	-0.254
-241.932	-104.935	0.503	0.149
-240.917	87.328	0.470	-0.678
-239.903	-100.970	0.113	0.036
-238.888	-107.749	0.249	0.070
-237.873	-83.576	-0.405	0.168
-236.859	-73.334	-0.328	0.156
-235.844	82.561	-0.152	-0.215
-234.830	-91.361	0.111	0.041
-233.815	-200.000	-0.076	0.695
-232.800	-99.418	0.170	-0.055
-231.786	800.000	0.078	-0.313
-230.771	110.558	-0.302	0.474
-229.757	43.707	0.201	0.240
-228.742	-58.877	-0.105	-0.059
-227.727	-200.000	0.101	-0.745
-226.713	-74.958	0.280	0.130
-225.698	-101.806	0.338	-0.106
-224.684	-96.250	-0.305	0.105
-223.669	-96.515	0.586	0.200
-222.655	202.153	-0.176	0.355
-221.640	-27.186	-0.495	0.375
-220.625	-76.509	0.188	0.085
-219.611	-96.766	-0.376	0.128
-218.596	18.059	-0.161	0.167
-217.582	-181.818	-0.527	0.013
-216.567	371.447	-0.022	0.058
-215.552	19.013	-0.204	-0.213
-214.538	-115.683	-0.357	-0.087
-213.523	-7.717	-0.080	0.071
-212.509	390.804	0.098	0.266
-211.494	-179.033	-0.574	0.016
-210.479	-133.202	0.259	-0.042
-209.465	302.199	-0.212	0.512
-208.450	-15.162	0.415	0.345
-207.436	-8.378	-0.259	0.226
-206.421	-18.429	-0.386	0.313
-205.406	-118.418	-0.645	-0.148
-204.392	800.000	0.039	-0.215
-203.377	800.000	-0.077	-0.313
-202.363	74.403	-0.124	-0.170
-201.348	-200.000	0.329	-0.002
-200.333	41.780	-0.377	0.445
-199.319	86.214	-0.042	0.061
-198.304	-70.760	0.345	-0.169
-197.290	-185.336	-0.236	0.005
-196.275	-28.469	0.284	-0.213
-195.260	-17.145	0.128	-0.105
-194.246	-101.265	0.040	-0.013
-193.231	97.620	-0.064	0.096
-192.217	-86.690	-0.160	0.063
-191.202	800.000	0.095	-0.350
-190.187	-59.311	0.385	0.215
-189.173	2.950	0.207	0.196
-188.158	-200.000	0.017	-0.113
-187.144	-200.000	0.039	0.291
-186.129	-48.525	-0.232	0.145
-185.114	32.674	0.575	0.646
-184.100	-200.000	-0.001	0.165
-183.085	97.971	-0.103	0.154
-182.071	230.134	0.201	-0.429
-181.056	22.250	0.341	0.362
-180.042	-200.000	0.065	0.511
-179.027	-106.137	0.293	-0.085
-178.012	-12.777	-0.108	-0.091
-176.998	56.860	0.428	0.542
-175.983	164.987	-0.139	0.256
-174.969	-182.394	-0.525	0.012
-173.954	-136.347	-0.050	0.008
-172.939	-200.000	0.043	0.276
-171.925	-117.031	0.291	0.068
-170.910	800.000	0.037	-0.208
-169.896	-200.000	-0.030	0.366
-168.881	800.000	0.058	0.278
-167.866	-107.129	-0.138	-0.039
-166.852	119.673	0.142	0.228
-165.837	51.015	0.305	-0.376
-164.823	-50.521	0.340	0.208
-163.808	75.793	-0.265	-0.365
-162.793	118.648	0.162	-0.260
-161.779	176.162	0.257	-0.485
-160.764	-64.962	-0.520	0.272
-159.750	8.752	0.134	0.131
-158.735	27.706	0.151	0.166
-157.720	-200.000	-0.001	-0.216
-156.706	-73.026	0.269	0.128
-155.691	-131.497	-0.393	-0.067
-154.677	692.711	-0.107	-0.368
-153.662	6.915	0.142	0.137
-152.647	1.633	0.125	0.117
-151.633	21.765	0.100	-0.106
-150.618	-45.904	-0.195	0.125
-149.604	-171.478	0.253	-0.011
-148.589	22.847	0.284	-0.302
-147.574	-119.671	-0.053	-0.012
-146.560	1.714	-0.227	0.212
-145.545	-25.511	-0.290	-0.222
-144.531	-123.279	0.532	-0.109
-143.516	57.545	-0.231	0.293
-142.502	-76.760	-0.224	0.101
-141.487	-111.610	0.180	-0.047
-140.472	-73.504	0.192	-0.090
-139.458	334.956	0.088	-0.223
-138.443	-102.516	0.144	-0.044
-137.429	42.896	-0.152	0.179
-136.414	-35.864	-0.362	-0.253
-135.399	-32.138	-0.136	0.099
-134.385	-160.653	0.360	-0.025
-133.370	-180.353	0.563	0.015
-132.356	-132.700	0.134	-0.022
-131.341	16.633	-0.081	0.083
-130.326	800.000	-0.177	0.644
-129.312	-63.029	0.119	0.064
-128.297	308.303	-0.077	0.187
-127.283	-98.496	0.267	0.088
-126.268	800.000	0.050	-0.237
-125.253	-113.694	0.343	-0.086
-124.239	-46.688	0.310	0.196
-123.224	800.000	0.099	0.364
-122.210	42.042	0.219	0.258
-121.195	188.183	0.170	0.331
-120.180	-38.987	-0.160	0.109
-119.166	800.000	-0.148	0.565
-118.151	144.463	0.183	0.318
-117.137	-179.726	0.244	0.007
-116.122	270.888	0.289	0.662
-115.107	32.734	-0.133	-0.149
-114.093	-104.263	-0.228	0.068
-113.078	-65.265	-0.662	0.344
-112.064	155.815	-0.325	0.581
-111.049	-78.390	0.243	0.107
-110.034	-40.906	-0.029	0.019
-109.020	56.677	0.236	-0.298
-108.005	45.343	0.071	0.085
-106.991	-136.593	0.354	-0.053
-105.976	-116.911	0.163	-0.038
-104.962	-68.971	-0.133	0.066
-103.947	-40.613	-0.341	-0.228
-102.932	468.295	-0.092	-0.269
-101.918	107.818	-0.152	-0.236
-100.903	-116.208	0.486	0.116
-99.889	-98.712	0.287	-0.094
-98.874	18.294	0.159	-0.164
-97.859	-74.131	0.118	-0.055
-96.845	33.124	0.404	0.454
-95.830	-200.000	-0.029	0.837
-94.816	199.579	-0.199	0.397
-93.801	62.076	-0.131	0.169
-92.786	34.747	0.234	-0.265
-91.772	121.196	0.080	-0.130
-90.757	-20.969	-0.221	-0.175
-89.743	39.708	-0.237	-0.276
-88.728	16.272	-0.599	-0.611
-87.713	-21.833	-0.209	-0.165
-86.699	-111.666	0.229	0.060
-85.684	-31.720	0.229	0.166
-84.670	-15.593	0.264	-0.218
-83.655	-173.962	0.339	0.013
-82.640	3.207	0.317	-0.298
-81.626	-33.253	0.208	-0.149
-80.611	-56.608	0.640	-0.366
-79.597	3.883	-0.161	0.152
-78.582	187.481	-0.055	0.106
-77.567	62.119	-0.248	0.321
-76.553	-67.671	0.169	0.085
-75.538	-45.595	-0.345	0.220
-74.524	-160.119	-0.418	0.029
-73.509	-145.486	0.151	0.017
-72.494	-200.000	-0.052	-0.406
-71.480	125.350	-0.100	0.164
-70.465	-45.667	-0.268	0.171
-69.451	457.260	0.170	0.490
-68.436	525.530	-0.143	0.438
-67.422	98.333	0.145	-0.216
-66.407	-200.000	-0.714	-0.001
-65.392	-20.898	-0.292	-0.231
-64.378	314.165	-0.075	0.185
-63.363	17.053	-0.114	-0.117
-62.349	-116.459	-0.465	-0.110
-61.334	45.929	-2.171	-2.599
-60.319	-3.621	1.157	1.039
-59.305	215.638	-3.606	-7.429
-58.290	55.461	4.102	5.138
-57.276	553.512	3.335	10.424
-56.261	-200.000	24.190	320.015
-55.246	353.937	1303.878	3363.365
-54.232	52.860	2845.111	3520.472
-53.217	51.302	2659.416	3266.485
-52.203	31.557	2388.832	2655.827
-51.188	27.617	2054.794	2235.892
-50.173	24.209	1941.805	2073.086
-49.159	23.265	1929.382	2048.765
-48.144	22.711	1925.831	2038.481
-47.130	22.720	1922.934	2035.440
-46.115	22.584	1921.934	2032.728
-45.100	22.657	1919.200	2030.592
-44.086	22.585	1918.156	2028.573
-43.071	22.628	1916.091	2026.812
-42.057	22.569	1915.228	2025.139
-41.042	22.458	1914.037	2022.517
-40.027	22.604	1912.315	2022.293
-39.013	22.616	1910.140	2020.056
-37.998	22.573	1909.201	2018.492
-36.984	22.661	1908.336	2018.511
-35.969	22.688	1905.688	2015.939
-34.954	22.476	1905.495	2013.210
-33.940	22.595	1903.844	2012.759
-32.925	22.531	1902.605	2010.630
-31.911	22.657	1900.791	2010.083
-30.896	22.544	1899.844	2007.708
-29.881	22.427	1899.384	2005.797
-28.867	22.550	1897.386	2005.014
-27.852	22.572	1895.973	2003.697
-26.838	22.387	1895.646	2001.159
-25.823	22.356	1893.609	1998.568
-24.809	22.401	1892.500	1997.839
-23.794	22.486	1890.886	1997.017
-22.779	22.468	1888.911	1994.651
-21.765	22.416	1887.621	1992.621
-20.750	22.447	1886.574	1991.791
-19.736	22.416	1886.624	1991.406
-18.721	22.441	1885.320	1990.234
-17.706	22.373	1884.115	1988.115
-16.692	22.323	1883.479	1986.793
-15.677	22.427	1880.958	1985.242
-14.663	22.305	1880.243	1983.025
-13.648	22.266	1879.454	1981.673
-12.633	22.419	1877.276	1981.020
-11.619	22.347	1875.773	1978.548
-10.604	22.400	1874.198	1977.401
-9.590	22.393	1873.733	1976.753
-8.575	22.295	1873.115	1974.922
-7.560	22.226	1871.691	1972.564
-6.546	22.296	1870.802	1972.331
-5.531	22.297	1869.503	1970.902
-4.517	22.327	1868.089	1969.668
-3.502	22.262	1867.512	1968.250
-2.487	22.375	1866.366	1968.233
-1.473	22.436	1862.274	1964.528
-0.458	22.314	1844.619	1944.469
0.556	18.985	1992.101	2047.876
1.571	17.623	2194.786	2237.999
2.586	18.556	2233.746	2289.983
3.600	18.516	2236.163	2291.657
4.615	18.414	2235.996	2289.830
5.629	18.442	2234.906	2288.819
6.644	18.466	2232.507	2286.413
7.659	18.499	2229.962	2283.977
8.673	18.449	2228.372	2281.408
9.688	18.253	2236.930	2287.259
10.702	17.328	2317.176	2356.152
11.717	15.983	2380.925	2401.425
12.731	7.617	2363.008	2263.659
13.746	1.108	2345.658	2154.012
14.761	0.248	2341.333	2137.528
15.775	0.170	2339.277	2134.279
16.790	0.076	2337.255	2130.841
17.804	0.166	2335.900	2130.627
18.819	0.077	2335.610	2128.843
19.834	0.121	2332.849	2126.697
20.848	0.148	2332.197	2126.227
21.863	0.109	2330.351	2123.743
22.877	0.073	2328.027	2120.861
23.892	0.125	2326.106	2119.586
24.907	0.025	2324.152	2116.145
25.921	0.082	2321.652	2114.420
26.936	0.036	2320.529	2112.485
27.950	0.001	2318.316	2109.726
28.965	0.001	2315.928	2107.299
29.980	0.047	2313.459	2105.450
30.994	0.170	2311.980	2105.587
32.009	4.083	2324.924	2172.356
33.023	13.396	2352.075	2329.791
34.038	17.359	2358.916	2392.422
35.053	17.901	2355.102	2395.928
36.067	17.938	2353.928	2394.960
37.082	17.771	2351.842	2390.197
38.096	17.905	2349.166	2389.079
39.111	18.097	2346.612	2388.890
40.126	18.166	2344.766	2387.700
41.140	18.175	2344.685	2387.454
42.155	18.070	2342.387	2383.362
43.169	18.078	2340.657	2381.430
44.184	18.023	2337.218	2376.875
45.199	17.951	2335.502	2373.832
46.213	18.032	2334.255	2373.410
47.228	17.982	2333.332	2371.495
48.242	18.088	2330.904	2370.224
49.257	18.106	2329.525	2368.783
50.271	18.090	2327.039	2365.758
51.286	17.900	2324.437	2360.179
52.301	18.037	2321.922	2359.253
53.315	18.350	2324.228	2365.661
54.330	19.993	2328.779	2392.845
55.344	21.283	2327.764	2409.407
56.359	21.320	2324.736	2406.503
57.374	21.415	2324.818	2407.613
58.388	21.630	2321.380	2406.727
59.403	21.520	2318.480	2401.925
60.417	21.415	2314.511	2396.071
61.432	21.352	2313.568	2393.941
62.447	21.615	2312.664	2396.343
63.461	21.722	2311.109	2395.907
64.476	22.003	2307.004	2395.228
65.490	21.616	2306.977	2389.599
66.505	20.990	2304.311	2377.971
67.520	19.679	2298.433	2353.688
68.534	18.268	2291.599	2327.138
69.549	18.102	2287.393	2320.328
70.563	17.905	2287.057	2317.011
71.578	17.990	2285.298	2316.111
72.593	18.059	2282.203	2313.645
73.607	18.252	2281.930	2315.719
74.622	18.261	2279.407	2312.999
75.636	18.064	2277.218	2307.821
76.651	18.077	2274.657	2305.132
77.666	18.077	2272.697	2302.872
78.680	18.079	2270.750	2300.653
79.695	17.943	2268.890	2296.645
80.709	18.056	2267.680	2296.679
81.724	18.041	2265.494	2293.984
82.739	18.047	2261.885	2290.139
83.753	17.980	2260.670	2287.734
84.768	17.950	2259.392	2285.765
85.782	17.896	2257.431	2282.775
86.797	17.849	2256.491	2280.923
87.812	17.928	2252.853	2278.029
88.826	17.970	2251.335	2276.792
89.841	17.941	2248.646	2273.398
90.855	18.023	2246.940	2272.502
91.870	17.981	2245.183	2269.890
92.884	17.893	2243.879	2267.131
93.899	17.867	2242.649	2265.272
94.914	18.266	2244.058	2271.744
95.928	19.861	2247.919	2296.680
96.943	20.474	2245.671	2302.272
97.957	18.965	2238.839	2274.943
98.972	17.945	2234.529	2256.748
99.987	17.868	2231.448	2252.351
101.001	17.861	2228.102	2248.605
102.016	17.954	2225.758	2247.202
103.030	17.845	2224.621	2244.346
104.045	17.936	2222.274	2242.913
105.060	18.089	2219.527	2241.894
106.074	18.037	2218.243	2239.632
107.089	17.960	2216.994	2237.101
108.103	17.893	2216.313	2235.252
109.118	18.020	2214.063	2234.388
110.133	18.157	2213.129	2234.974
111.147	18.125	2210.522	2231.660
112.162	18.122	2208.664	2229.482
113.176	18.234	2206.189	2228.175
114.191	18.177	2204.866	2225.835
115.206	18.068	2203.921	2223.187
116.220	17.966	2201.553	2219.197
117.235	17.978	2199.111	2216.624
118.249	17.823	2198.251	2213.477
119.264	17.948	2196.417	2212.993
120.279	18.006	2195.118	2212.169
121.293	18.039	2192.950	2210.146
122.308	18.035	2191.388	2208.257
123.322	18.096	2189.282	2206.663
124.337	18.340	2190.227	2210.516
125.352	20.059	2195.032	2237.436
126.366	20.478	2193.131	2240.670
127.381	18.685	2184.640	2208.560
128.395	17.967	2181.224	2195.565
129.410	17.895	2179.448	2192.581
130.424	18.081	2177.299	2192.556
131.439	17.992	2175.649	2189.482
132.454	17.918	2173.653	2186.261
133.468	17.953	2171.726	2184.517
134.483	17.914	2170.011	2182.030
135.497	17.956	2168.879	2181.158
136.512	17.958	2166.407	2178.445
137.527	17.938	2165.106	2176.622
138.541	17.896	2163.431	2174.133
139.556	17.950	2161.732	2172.864
140.570	17.908	2160.487	2170.816
141.585	17.947	2157.913	2168.464
142.600	17.873	2157.702	2167.042
143.614	17.870	2155.539	2164.579
144.629	17.875	2153.903	2162.736
145.643	17.833	2152.608	2160.650
146.658	17.906	2150.489	2159.186
147.673	17.948	2148.890	2157.853
148.687	17.935	2147.286	2155.826
149.702	17.939	2147.902	2156.231
150.716	17.906	2145.718	2153.362
151.731	17.964	2144.497	2152.613
152.746	17.959	2143.687	2151.478
153.760	18.317	2145.371	2157.452
154.775	20.046	2148.821	2182.580
155.789	20.581	2146.089	2186.302
156.804	19.016	2137.804	2157.889
157.819	18.074	2134.106	2142.032
158.833	17.971	2131.116	2137.478
159.848	18.051	2129.526	2136.628
160.862	18.200	2127.173	2135.886
161.877	18.081	2126.871	2133.832
162.892	18.148	2125.748	2133.289
163.906	18.105	2125.288	2132.031
164.921	18.215	2122.141	2130.001
165.935	18.084	2120.663	2126.621
166.950	18.067	2119.009	2124.501
167.964	18.094	2115.895	2121.463
168.979	17.913	2114.396	2117.441
169.994	18.100	2112.752	2117.874
171.008	17.958	2111.700	2114.794
172.023	18.054	2109.447	2113.483
173.037	18.000	2109.022	2112.133
174.052	17.971	2106.790	2109.281
175.067	17.966	2105.035	2107.209
176.081	17.893	2104.691	2105.713
177.096	18.013	2103.083	2105.344
178.110	17.818	2101.824	2101.409
179.125	17.942	2100.057	2100.932
180.140	18.004	2098.613	2099.993
181.154	17.982	2097.128	2097.991
182.169	17.912	2096.506	2096.248
183.183	18.385	2096.958	2102.291
184.198	20.255	2101.482	2129.672
185.213	20.513	2100.305	2131.402
186.227	18.792	2093.135	2102.711
187.242	18.187	2089.355	2091.235
188.256	18.111	2086.606	2087.295
189.271	18.136	2085.570	2086.319
190.286	18.109	2084.010	2084.170
191.300	17.861	2081.772	2078.650
192.315	17.889	2079.965	2076.942
193.329	18.069	2079.155	2078.082
194.344	18.243	2078.253	2079.063
195.359	18.092	2077.223	2075.934
196.373	18.097	2073.764	2072.296
197.388	18.093	2071.802	2070.039
198.402	18.069	2069.343	2067.037
199.417	17.967	2067.397	2063.607
200.432	17.965	2066.742	2062.681
201.446	18.088	2065.829	2063.013
202.461	17.957	2063.408	2058.768
203.475	17.831	2062.320	2055.912
204.490	17.923	2059.804	2054.269
205.504	17.997	2057.556	2052.675
206.519	17.863	2055.822	2049.078
207.534	18.089	2052.955	2048.697
208.548	17.881	2053.026	2046.014
209.563	17.938	2052.159	2045.599
210.577	18.082	2050.219	2045.155
211.592	18.174	2049.219	2045.014
212.607	18.906	2053.125	2057.472
213.621	20.946	2056.670	2085.344
214.636	20.566	2052.008	2075.809
215.650	18.546	2044.938	2044.219
216.665	18.107	2041.951	2035.734
217.680	18.031	2041.421	2034.055
218.694	18.114	2039.237	2032.633
219.709	18.072	2037.860	2030.514
220.723	18.082	2036.605	2029.137
221.738	18.068	2034.557	2026.692
222.753	18.061	2032.794	2024.609
223.767	18.101	2031.936	2023.985
224.782	17.942	2029.760	2019.683
225.796	18.035	2028.256	2019.051
226.811	18.172	2026.595	2018.777
227.826	18.142	2025.044	2016.641
228.840	18.078	2024.023	2014.625
229.855	17.982	2022.956	2012.184
230.869	17.934	2020.576	2009.011
231.884	18.020	2018.953	2008.166
232.899	17.937	2017.937	2005.944
233.913	17.987	2016.615	2004.972
234.928	18.012	2014.909	2003.334
235.942	18.092	2014.206	2003.339
236.957	18.150	2011.654	2001.237
237.972	18.105	2010.505	1999.332
238.986	18.112	2009.773	1998.439
240.001	18.082	2007.896	1995.982
241.015	17.973	2006.724	1993.305
242.030	18.355	2008.020	1998.829
243.045	20.059	2011.047	2021.608
244.059	20.273	2007.744	2020.550
245.074	18.625	2001.518	1994.805
246.088	18.050	1997.510	1983.857
247.103	18.163	1996.103	1983.544
248.117	18.066	1995.581	1981.652
249.132	17.999	1994.341	1979.410
250.147	18.109	1991.191	1977.327
251.161	17.988	1990.049	1974.548
252.176	18.038	1989.585	1974.429
253.190	18.252	1987.299	1974.410
254.205	18.232	1985.159	1971.814
255.220	18.227	1983.971	1970.343
256.234	18.178	1982.948	1968.517
257.249	18.088	1981.330	1965.645
258.263	18.087	1980.346	1964.413
259.278	18.130	1979.410	1963.750
260.293	18.113	1977.553	1961.480
261.307	17.996	1975.772	1958.122
262.322	17.949	1974.431	1956.018
263.336	17.873	1972.563	1953.068
264.351	17.913	1970.434	1951.182
265.366	17.913	1969.559	1950.086
266.380	17.935	1968.347	1948.904
267.395	17.901	1967.036	1946.980
268.409	17.826	1965.340	1944.214
269.424	17.897	1963.888	1943.355
270.439	18.043	1962.992	1943.908
271.453	18.470	1963.798	1949.349
272.468	20.146	1966.979	1971.444
273.482	20.374	1962.766	1969.588
274.497	18.674	1956.487	1943.722
275.512	18.169	1952.889	1934.171
276.526	18.156	1950.761	1931.689
277.541	17.977	1949.364	1928.040
278.555	17.916	1948.128	1925.896
279.570	17.878	1946.493	1923.612
280.585	17.857	1944.684	1921.366
281.599	17.971	1943.972	1921.714
282.614	18.174	1942.858	1922.676
283.628	18.203	1941.930	1921.862
284.643	18.216	1940.650	1920.512
285.657	18.433	1939.357	1921.445
286.672	18.430	1937.809	1919.645
287.687	18.295	1935.598	1915.708
288.701	18.216	1935.497	1914.489
289.716	18.073	1933.141	1910.322
290.730	18.196	1931.740	1910.096
291.745	18.252	1930.624	1909.390
292.760	18.237	1929.691	1908.071
293.774	18.134	1929.037	1906.042
294.789	18.134	1927.466	1904.262
295.803	17.978	1925.559	1900.405
296.818	18.051	1923.866	1899.324
297.833	18.027	1922.560	1897.537
298.847	17.949	1921.181	1895.080
299.862	18.041	1919.310	1894.029
300.876	18.379	1920.415	1898.658
301.891	20.291	1924.495	1923.794
302.906	20.785	1922.179	1926.743
303.920	19.010	1915.906	1900.538
304.935	18.282	1913.047	1889.390
305.949	18.095	1910.530	1884.607
306.964	18.030	1908.532	1881.689
307.979	18.084	1907.678	1881.227
308.993	18.226	1905.348	1880.271
310.008	18.349	1904.107	1880.183
311.022	18.289	1903.544	1878.730
312.037	18.310	1902.371	1877.582
313.052	18.232	1900.560	1874.712
314.066	18.248	1898.943	1873.070
315.081	18.323	1897.377	1872.125
316.095	18.291	1895.367	1869.562
317.110	18.195	1894.253	1867.190
318.125	18.111	1893.400	1865.207
319.139	18.068	1892.840	1863.956
320.154	18.240	1890.920	1863.727
321.168	18.295	1889.048	1862.263
322.183	18.232	1887.490	1859.811
323.197	18.081	1885.896	1856.372
324.212	17.908	1883.994	1852.389
325.227	17.869	1882.345	1850.129
326.241	18.024	1880.128	1849.406
327.256	18.159	1879.338	1849.878
328.270	18.097	1878.559	1848.213
329.285	17.959	1878.734	1846.669
330.300	18.645	1880.932	1856.074
331.314	20.573	1883.388	1879.235
332.329	20.370	1879.490	1872.924
333.343	18.533	1873.305	1846.670
334.358	18.015	1870.583	1838.162
335.373	18.085	1868.514	1836.670
336.387	18.011	1867.071	1834.227
337.402	18.090	1864.913	1832.744
338.416	18.026	1864.241	1831.165
339.431	18.111	1862.783	1830.431
340.446	18.060	1861.888	1828.788
341.460	18.278	1860.005	1829.065
342.475	18.337	1857.757	1827.259
343.489	18.235	1856.964	1825.174
344.504	18.272	1856.141	1824.536
345.519	18.351	1854.519	1823.575
346.533	18.373	1852.944	1822.045
347.548	18.472	1852.208	1822.157
348.562	18.356	1851.097	1819.612
349.577	18.221	1850.450	1817.309
350.592	18.368	1848.378	1816.631
351.606	18.265	1847.207	1814.167
352.621	18.177	1845.270	1811.103
353.635	17.942	1844.420	1807.557
354.650	17.922	1842.312	1805.057
355.665	17.951	1840.569	1803.440
356.679	18.068	1838.838	1802.770
357.694	18.064	1837.601	1801.297
358.708	17.855	1837.301	1798.578
359.723	18.766	1839.794	1810.461
360.738	20.714	1841.546	1832.609
361.752	20.088	1837.654	1821.901
362.767	18.538	1831.674	1799.418
363.781	18.049	1829.330	1791.751
364.796	17.895	1828.399	1789.001
365.810	17.969	1826.334	1787.547
366.825	17.918	1825.323	1785.807
367.840	18.103	1825.217	1787.433
368.854	18.266	1823.744	1787.484
369.869	17.977	1821.324	1781.873
370.883	17.828	1819.799	1778.601
371.898	17.806	1819.375	1777.749
372.913	17.879	1818.810	1777.745
373.927	17.918	1817.409	1776.575
374.942	17.984	1815.921	1775.594
375.956	18.045	1814.267	1774.396
376.971	17.893	1812.632	1771.009
377.986	17.931	1810.673	1769.272
379.000	17.955	1809.076	1767.753
380.015	18.186	1808.383	1769.265
381.029	18.340	1806.348	1768.663
382.044	18.349	1804.239	1766.482
383.059	18.049	1802.874	1761.822
384.073	18.008	1801.972	1760.305
385.088	17.970	1800.865	1758.613
386.102	17.962	1799.300	1756.794
387.117	17.820	1797.853	1753.708
388.132	17.873	1797.431	1753.631
389.146	18.514	1799.634	1762.194
390.161	20.538	1802.872	1786.080
391.175	20.345	1796.624	1777.689
392.190	18.476	1790.580	1752.313
393.205	17.957	1787.479	1743.745
394.219	18.017	1785.988	1742.688
395.234	18.071	1784.035	1741.127
396.248	18.092	1783.157	1740.282
397.263	18.096	1781.104	1738.115
398.278	18.082	1778.994	1735.701
399.292	18.102	1778.452	1735.163
400.307	18.063	1778.815	1734.921
401.321	18.089	1777.534	1733.725
402.336	18.165	1774.685	1731.515
403.350	18.164	1774.090	1730.709
404.365	18.270	1772.910	1730.433
405.380	18.511	1772.525	1732.300
406.394	18.477	1771.795	1731.031
407.409	18.351	1769.726	1727.520
408.423	18.406	1767.934	1726.128
409.438	18.213	1765.998	1722.082
410.453	18.384	1765.079	1722.707
411.467	18.314	1764.213	1720.942
412.482	18.196	1762.626	1717.998
413.496	18.096	1761.954	1716.129
414.511	18.214	1759.510	1714.730
415.526	18.002	1756.416	1709.384
416.540	18.100	1755.145	1708.923
417.555	18.045	1754.600	1707.633
418.569	17.954	1755.255	1707.153
419.584	18.038	1755.064	1707.613
420.599	18.078	1754.437	1707.194
421.613	18.182	1752.771	1706.417
422.628	18.070	1751.870	1704.206
423.642	18.220	1749.517	1703.215
424.657	18.096	1748.564	1700.845
425.672	17.958	1746.569	1697.323
426.686	17.923	1744.884	1695.133
427.701	17.971	1743.176	1693.749
428.715	17.970	1742.813	1693.180
429.730	18.198	1741.217	1693.701
430.745	18.251	1740.165	1693.004
431.759	18.156	1739.906	1691.600
432.774	18.130	1740.003	1691.236
433.788	18.233	1738.879	1690.967
434.803	18.275	1737.844	1690.172
435.818	18.263	1737.701	1689.716
436.832	18.131	1736.253	1686.789
437.847	17.190	1729.103	1670.351
438.861	9.632	1709.749	1577.337
439.876	1.826	1693.562	1485.921
440.890	0.361	1690.938	1469.098
441.905	0.111	1690.303	1465.920
442.920	0.252	1688.105	1465.217
443.934	0.255	1686.427	1463.620
444.949	0.300	1685.381	1462.975
445.963	0.272	1684.110	1461.422
446.978	0.080	1684.566	1459.770
447.993	0.144	1682.497	1458.431
449.007	0.200	1680.011	1456.641
450.022	0.280	1678.293	1455.761
451.036	0.230	1677.414	1454.331
452.051	1.170	1681.845	1467.142
453.066	8.947	1699.112	1558.215
454.080	16.580	1710.951	1643.692
455.095	17.723	1712.130	1655.787
456.109	18.006	1711.619	1657.863
457.124	17.932	1711.057	1656.396
458.139	18.007	1709.501	1655.420
459.153	18.119	1708.177	1655.031
460.168	18.131	1706.711	1653.533
461.182	17.996	1706.210	1651.534
462.197	17.998	1704.641	1649.833
463.212	18.067	1702.076	1647.827
464.226	17.942	1701.231	1645.599
465.241	18.047	1700.021	1645.253
466.255	18.072	1698.987	1644.296
467.270	18.137	1697.168	1642.962
468.285	18.105	1695.187	1640.541
469.299	17.991	1694.802	1638.876
470.314	18.159	1693.592	1639.126
471.328	18.113	1692.490	1637.421
472.343	18.171	1691.147	1636.483
473.358	18.046	1690.034	1634.005
474.372	18.076	1688.582	1632.700
475.387	18.096	1687.307	1631.460
476.401	18.028	1685.620	1628.978
477.416	17.971	1684.637	1627.292
478.430	17.989	1683.642	1626.303
479.445	17.986	1682.227	1624.712
480.460	17.975	1681.457	1623.671
481.474	18.052	1679.720	1622.539
482.489	18.163	1678.100	1621.831
483.503	18.187	1676.954	1620.764
484.518	18.189	1675.538	1619.219
485.533	18.198	1673.737	1617.369
486.547	18.165	1672.769	1615.929
487.562	18.195	1672.121	1615.396
488.576	18.291	1670.517	1614.558
489.591	18.109	1669.274	1611.442
490.606	18.041	1668.373	1609.734
491.620	18.117	1666.836	1608.775
492.635	18.163	1663.919	1606.203
493.649	18.225	1663.239	1605.942
494.664	18.111	1662.896	1604.342
495.679	18.028	1661.159	1601.692
496.693	17.914	1660.575	1599.866
497.708	18.142	1659.182	1600.473
498.722	18.245	1657.287	1599.424
499.737	18.358	1656.030	1599.085
500.752	18.118	1654.384	1595.046
501.766	18.155	1652.143	1593.042
502.781	18.102	1651.051	1591.306
503.795	18.178	1650.231	1591.035
504.810	18.337	1648.669	1590.823
505.825	18.206	1648.340	1589.087
506.839	18.061	1647.618	1586.855
507.854	18.080	1646.313	1585.585
508.868	18.041	1644.756	1583.526
509.883	18.211	1643.119	1583.343
510.898	18.324	1642.582	1583.690
511.912	18.220	1640.973	1580.983
512.927	18.129	1638.534	1577.601
513.941	18.040	1637.627	1575.709
514.956	18.053	1636.935	1574.979
515.971	18.170	1635.186	1574.192
516.985	18.073	1633.810	1571.778
518.000	17.919	1634.046	1570.399
519.014	18.064	1632.785	1570.335
520.029	18.046	1631.341	1568.591
521.043	18.153	1629.174	1567.309
522.058	17.999	1628.575	1565.124
523.073	18.007	1628.304	1564.751
524.087	18.153	1627.088	1564.742
525.102	18.296	1624.535	1563.407
526.116	18.238	1623.333	1561.535
527.131	18.064	1622.911	1559.345
528.146	18.179	1622.404	1559.722
529.160	18.206	1621.214	1558.637
530.175	18.248	1619.549	1557.233
531.189	18.245	1618.658	1556.169
532.204	18.208	1617.224	1554.264
533.219	18.260	1615.828	1553.211
534.233	18.140	1614.938	1551.076
535.248	18.241	1614.099	1551.000
536.262	18.393	1612.980	1551.123
537.277	18.251	1612.110	1548.808
538.292	18.269	1610.133	1546.890
539.306	18.232	1608.594	1544.890
540.321	18.008	1607.601	1541.722
541.335	18.199	1606.128	1541.855
542.350	18.351	1604.183	1541.181
543.365	18.312	1603.036	1539.541
544.379	18.235	1601.564	1537.243
545.394	18.268	1600.401	1536.241
546.408	18.270	1599.445	1535.163
547.423	18.012	1598.521	1531.764
548.438	18.076	1597.613	1531.290
549.452	18.254	1595.926	1531.093
550.467	18.163	1594.825	1529.026
551.481	18.225	1593.643	1528.273
552.496	18.267	1592.743	1527.607
553.511	18.317	1591.875	1527.037
554.525	18.212	1590.665	1524.750
555.540	18.296	1589.596	1524.300
556.554	18.371	1588.725	1523.946
557.569	18.377	1586.733	1521.913
558.583	18.244	1585.185	1519.059
559.598	18.312	1583.985	1518.327
560.613	18.290	1583.626	1517.609
561.627	18.338	1582.118	1516.409
562.642	18.177	1581.100	1513.817
563.656	18.257	1580.306	1513.592
564.671	18.348	1577.948	1511.953
565.686	18.336	1577.076	1510.834
566.700	18.302	1575.375	1508.725
567.715	18.140	1573.924	1505.722
568.729	18.113	1572.579	1504.018
569.744	18.256	1570.935	1503.526
570.759	18.238	1569.434	1501.750
571.773	18.235	1568.484	1500.629
572.788	18.135	1568.217	1499.318
573.802	18.138	1567.049	1498.043
574.817	18.136	1565.523	1496.390
575.832	18.222	1564.470	1495.961
576.846	18.263	1563.664	1495.369
577.861	18.394	1561.841	1494.594
578.875	18.221	1561.638	1492.707
579.890	18.552	1560.033	1493.893
580.905	18.392	1558.625	1490.964
581.919	18.395	1558.663	1490.851
582.934	18.455	1557.761	1490.332
583.948	18.514	1556.179	1489.155
584.963	18.395	1554.356	1486.196
585.978	18.392	1553.609	1485.276
586.992	18.250	1553.532	1483.793
588.007	18.348	1552.920	1483.885
589.021	18.255	1551.408	1481.452
590.036	18.365	1549.351	1480.261
591.051	18.272	1547.940	1477.932
592.065	18.441	1546.254	1477.614
593.080	18.385	1544.976	1475.730
594.094	18.519	1543.228	1475.040
595.109	18.273	1542.198	1471.757
596.123	18.325	1540.474	1470.379
597.138	18.306	1539.563	1469.172
598.153	18.356	1538.531	1468.438
599.167	18.388	1537.325	1467.391
600.182	18.483	1536.523	1467.263
601.196	18.501	1535.720	1466.482
602.211	18.435	1534.457	1464.529
603.226	18.394	1533.503	1463.095
604.240	18.445	1531.865	1461.795
605.255	18.484	1530.072	1460.244
606.269	18.495	1530.162	1460.243
607.284	18.505	1528.613	1458.680
608.299	18.562	1526.600	1457.067
609.313	18.464	1524.944	1454.478
610.328	18.508	1524.090	1453.867
611.342	18.617	1522.582	1453.178
612.357	18.513	1522.765	1452.298
613.372	18.282	1522.582	1449.984
614.386	18.331	1520.739	1448.466
615.401	18.503	1519.656	1448.725
616.415	18.461	1518.953	1447.522
617.430	18.492	1518.276	1446.969
618.445	18.422	1516.516	1444.521
619.459	18.454	1515.242	1443.406
620.474	18.328	1514.112	1441.091
621.488	18.161	1512.971	1438.428
622.503	18.268	1511.231	1437.504
623.518	18.359	1510.318	1437.225
624.532	18.332	1510.084	1436.604
625.547	18.238	1508.939	1434.549
626.561	18.480	1507.893	1435.424
627.576	18.443	1507.415	1434.485
628.591	18.330	1505.431	1431.478
629.605	18.289	1503.713	1429.325
630.620	18.182	1503.131	1427.703
631.634	18.195	1502.034	1426.599
632.649	18.147	1501.218	1425.257
633.663	18.224	1499.661	1424.251
634.678	18.422	1498.268	1424.407
635.693	18.473	1496.522	1423.007
636.707	18.469	1495.151	1421.496
637.722	18.564	1494.982	1421.958
638.736	18.662	1493.127	1420.839
639.751	18.634	1492.540	1419.877
640.766	18.644	1490.821	1418.155
641.780	18.520	1490.581	1416.727
642.795	18.443	1489.570	1414.959
643.809	18.551	1489.050	1415.195
644.824	18.736	1487.338	1414.924
645.839	18.550	1487.180	1413.067
646.853	18.516	1485.822	1411.323
647.868	18.522	1484.217	1409.686
648.882	18.584	1483.463	1409.309
649.897	18.573	1481.934	1407.602
650.912	18.662	1479.534	1405.881
651.926	18.620	1478.357	1404.249
652.941	18.566	1477.941	1403.239
653.955	18.256	1476.265	1398.937
654.970	18.312	1474.692	1397.735
655.985	18.443	1473.322	1397.345
656.999	18.556	1472.049	1396.896
658.014	18.512	1470.708	1395.095
659.028	18.562	1469.883	1394.556
660.043	18.652	1469.338	1394.610
661.058	18.665	1467.957	1393.237
662.072	18.681	1466.851	1392.154
663.087	18.604	1465.907	1390.461
664.101	18.506	1465.209	1388.833
665.116	18.601	1463.718	1388.026
666.131	18.563	1462.803	1386.682
667.145	18.605	1461.530	1385.655
668.160	18.642	1461.115	1385.391
669.174	18.611	1460.074	1383.989
670.189	18.639	1458.603	1382.654
671.204	18.582	1457.708	1381.179
672.218	18.671	1456.878	1380.950
673.233	18.703	1454.938	1379.200
674.247	18.740	1453.761	1378.221
675.262	18.660	1453.257	1376.934
676.276	18.715	1452.456	1376.453
677.291	18.625	1451.753	1374.901
678.306	18.584	1449.793	1372.549
679.320	18.566	1449.029	1371.514
680.335	18.675	1448.578	1371.801
681.349	18.720	1447.695	1371.157
682.364	18.675	1446.179	1369.196
683.379	18.653	1444.977	1367.722
684.393	18.532	1443.798	1365.476
685.408	18.577	1442.425	1364.373
686.422	18.606	1442.073	1364.104
687.437	18.664	1440.810	1363.214
688.452	18.647	1440.201	1362.335
689.466	18.588	1438.755	1360.335
690.481	18.625	1436.964	1358.772
691.495	18.343	1436.568	1355.991
692.510	18.192	1435.211	1353.345
693.525	18.248	1433.158	1351.696
694.539	18.358	1432.237	1351.539
695.554	18.510	1432.340	1352.681
696.568	18.627	1431.291	1352.453
697.583	18.681	1430.448	1351.921
698.598	18.771	1429.486	1351.559
699.612	18.623	1428.571	1349.369
700.627	18.658	1427.479	1348.447
701.641	18.669	1426.078	1347.048
702.656	18.734	1424.647	1346.048
703.671	18.776	1424.001	1345.609
704.685	18.637	1423.560	1343.936
705.700	18.740	1422.879	1343.941
706.714	18.633	1421.568	1341.702
707.729	18.705	1419.315	1339.978
708.744	18.670	1417.933	1338.246
709.758	18.667	1416.694	1336.891
710.773	18.613	1415.929	1335.583
711.787	18.667	1413.796	1333.836
712.802	18.618	1412.867	1332.419
713.816	18.793	1412.576	1333.346
714.831	18.611	1411.871	1331.103
715.846	18.761	1410.994	1331.290
716.860	18.752	1409.589	1329.735
717.875	18.790	1408.534	1328.875
718.889	18.777	1407.598	1327.730
719.904	18.790	1406.680	1326.805
720.919	18.830	1405.491	1325.833
721.933	18.888	1404.148	1324.862
722.948	18.826	1403.660	1323.758
723.962	18.986	1402.721	1323.955
724.977	18.950	1400.877	1321.780
725.992	18.724	1399.998	1319.048
727.006	18.861	1399.067	1319.066
728.021	18.924	1397.268	1317.699
729.035	18.801	1396.984	1316.323
730.050	18.758	1396.315	1315.205
731.065	18.851	1394.553	1314.104
732.079	18.822	1393.689	1312.910
733.094	18.855	1392.401	1311.796
734.108	18.844	1390.726	1309.975
735.123	18.820	1388.934	1307.941
736.138	18.793	1388.446	1307.125
737.152	18.705	1387.984	1305.855
738.167	18.902	1386.775	1306.071
739.181	18.999	1385.862	1305.790
740.196	18.847	1385.341	1303.983
741.211	18.844	1384.530	1303.047
742.225	18.939	1383.285	1302.440
743.240	18.863	1381.458	1299.982
744.254	18.785	1380.101	1297.960
745.269	18.673	1379.449	1296.342
746.284	18.661	1379.379	1296.026
747.298	18.614	1378.286	1294.488
748.313	18.495	1376.390	1291.654
749.327	18.358	1375.108	1289.258
750.342	18.400	1374.616	1288.965
751.356	18.365	1373.375	1287.383
752.371	18.475	1372.705	1287.427
753.386	18.678	1371.660	1287.824
754.400	18.906	1370.021	1287.850
755.415	18.975	1369.180	1287.424
756.429	18.993	1368.292	1286.570
757.444	18.928	1367.320	1285.013
758.459	18.856	1366.831	1283.863
759.473	18.929	1365.550	1283.048
760.488	18.899	1364.324	1281.520
761.502	19.153	1362.642	1281.684
762.517	18.980	1362.268	1279.887
763.532	18.964	1360.468	1277.928
764.546	18.706	1359.807	1275.226
765.561	18.753	1359.037	1274.700
766.575	18.577	1358.113	1272.368
767.590	18.564	1356.680	1270.775
768.605	18.775	1355.127	1270.743
769.619	18.795	1354.562	1270.205
770.634	18.911	1353.139	1269.582
771.648	18.951	1352.276	1268.916
772.663	19.031	1351.832	1268.942
773.678	18.764	1351.971	1266.941
774.692	18.934	1350.941	1267.083
775.707	18.954	1349.974	1266.172
776.721	18.935	1348.967	1264.937
777.736	18.862	1348.005	1263.341
778.751	18.936	1347.022	1262.815
779.765	19.050	1345.544	1262.123
780.780	18.899	1344.779	1260.140
781.794	18.965	1343.706	1259.471
782.809	18.722	1342.968	1256.834
783.824	18.679	1342.112	1255.569
784.838	18.694	1340.059	1253.608
785.853	18.393	1338.892	1250.161
786.867	18.259	1338.687	1248.839
787.882	18.457	1338.389	1249.858
788.897	18.637	1336.923	1249.660
789.911	18.737	1336.137	1249.509
790.926	18.883	1334.478	1248.871
791.940	18.853	1332.931	1247.054
792.955	18.934	1332.100	1246.719
793.969	18.991	1331.108	1246.054
794.984	18.897	1330.519	1244.672
795.999	18.773	1329.734	1242.886
797.013	19.008	1327.630	1242.480
798.028	19.024	1326.429	1241.324
799.042	19.022	1326.229	1240.974
800.057	18.989	1325.289	1239.707
801.072	18.976	1324.056	1238.307
802.086	19.057	1322.752	1237.524
803.101	19.084	1321.659	1236.552
804.115	19.058	1320.867	1235.471
805.130	18.983	1320.073	1234.043
806.145	18.991	1318.606	1232.583
807.159	19.104	1317.020	1231.767
808.174	18.835	1316.061	1228.788
809.188	18.891	1314.117	1227.226
810.203	19.013	1312.696	1226.626
811.218	18.917	1311.436	1224.617
812.232	18.745	1309.628	1221.552
813.247	18.684	1309.078	1220.454
814.261	18.669	1309.245	1220.357
815.276	18.904	1308.682	1221.364
816.291	18.957	1307.402	1220.404
817.305	19.115	1306.212	1220.268
818.320	19.093	1304.812	1218.658
819.334	19.070	1303.702	1217.312
820.349	19.018	1302.852	1216.009
821.364	19.081	1301.537	1215.082
822.378	19.150	1300.004	1213.991
823.393	19.138	1298.150	1212.032
824.407	18.989	1297.414	1210.148
825.422	18.800	1297.287	1208.546
826.437	18.820	1296.215	1207.541
827.451	19.039	1292.913	1205.863
828.466	18.732	1291.963	1202.674
829.480	18.614	1290.411	1200.257
830.495	18.726	1288.811	1199.409
831.509	18.656	1288.784	1198.749
832.524	18.919	1287.910	1199.642
833.539	19.105	1286.358	1199.355
834.553	19.002	1285.688	1197.864
835.568	18.995	1284.879	1196.918
836.582	18.913	1284.350	1195.708
837.597	19.197	1282.332	1195.666
838.612	19.165	1280.303	1193.409
839.626	19.149	1279.440	1192.350
840.641	19.037	1279.336	1191.332
841.655	18.884	1278.190	1189.058
842.670	18.852	1276.796	1187.395
843.685	18.762	1275.354	1185.288
844.699	18.881	1274.411	1185.098
845.714	18.908	1273.541	1184.329
846.728	18.942	1272.883	1183.817
847.743	19.041	1272.069	1183.601
848.758	19.096	1270.549	1182.427
849.772	19.072	1269.183	1180.843
850.787	19.053	1267.678	1179.170
851.801	19.033	1266.766	1178.048
852.816	19.018	1265.540	1176.663
853.831	19.023	1263.677	1174.824
854.845	19.050	1261.790	1173.115
855.860	19.048	1260.428	1171.696
856.874	18.842	1259.454	1169.241
857.889	19.008	1257.807	1168.704
858.904	18.599	1256.928	1164.956
859.918	18.584	1255.364	1163.266
860.933	18.319	1254.620	1160.627
861.947	18.630	1253.564	1161.632
862.962	18.718	1252.107	1160.739
863.977	18.904	1251.020	1160.857
864.991	18.777	1251.227	1160.046
866.006	18.895	1251.082	1160.572
867.020	19.047	1249.375	1159.885
868.035	19.169	1247.693	1159.008
869.049	19.088	1247.584	1158.219
870.064	19.168	1246.331	1157.455
871.079	18.999	1245.790	1155.676
872.093	19.054	1245.660	1155.789
873.108	19.142	1243.866	1154.575
874.122	19.096	1242.569	1152.925
875.137	18.943	1242.306	1151.514
876.152	18.902	1241.588	1150.437
877.166	19.077	1240.073	1150.072
878.181	19.084	1238.573	1148.589
879.195	19.119	1238.207	1148.346
880.210	19.288	1237.035	1148.252
881.225	19.239	1235.995	1146.820
882.239	19.090	1235.164	1144.919
883.254	19.202	1234.429	1144.848
884.268	19.412	1232.922	1144.716
885.283	19.190	1231.908	1142.155
886.298	19.110	1230.481	1140.160
887.312	19.256	1229.679	1140.256
888.327	19.320	1228.402	1139.363
889.341	19.249	1227.182	1137.623
890.356	19.038	1226.943	1135.862
891.371	19.115	1226.571	1135.894
892.385	19.102	1226.010	1135.150
893.400	18.981	1224.491	1132.808
894.414	19.110	1222.792	1131.956
895.429	18.911	1220.785	1128.644
896.444	18.712	1219.514	1126.028
897.458	18.472	1218.783	1123.633
898.473	18.694	1218.010	1124.250
899.487	18.961	1217.364	1125.272
900.502	19.025	1216.792	1125.030
901.517	18.802	1215.887	1122.594
902.531	19.064	1214.692	1123.080
903.546	19.272	1213.903	1123.574
904.560	19.343	1213.226	1123.282
905.575	19.247	1212.972	1122.279
906.589	19.206	1211.510	1120.528
907.604	19.278	1211.005	1120.396
