DTS Sentinel unit serial number:	SN409020Multiplexer serial number:	ORYXHardware model number:	OX4-SRSoftware version number:	ORYX F/W v3.00 Oryx Data Collector v3.7.2.0data status	okinstallation	HaddamTimeLapsedifferential loss correction	single-endedforward channel	channel 3reverse channel	N/Adate	2011/06/21time	22:56:17forward acquisition time	30.00reverse acquisition time	0.00gamma	498.7831k internal	0.1754k external	0.1754temperature offset calibration	1.0074default loss term (dB/km)	0.3790temperature slope calibration	1.3530multiplexer offset coefficient	1.0000multiplexer slope coefficient	1.0000fibre end	0.00T internal ref (°C)	23.56T ext. ref 1 (°C)	18.89T ext. ref 2 (°C)	0.05length (m)	temperature (°C)	Stokes	anti-Stokes-747.200	12.837	-0.179	-0.183
-746.185	114.712	0.230	0.373
-745.171	-37.018	-0.067	0.048
-744.156	214.046	-0.208	0.437
-743.142	-200.000	0.034	-0.329
-742.127	-43.816	-0.379	-0.253
-741.112	-53.791	0.392	-0.237
-740.098	5.132	-0.300	0.293
-739.083	-156.973	-0.255	0.020
-738.069	-200.000	0.008	0.320
-737.054	-85.717	-0.514	-0.210
-736.039	-200.000	-0.040	-0.278
-735.025	-48.759	-0.173	0.110
-734.010	140.797	-0.200	0.351
-732.996	255.497	-0.111	-0.254
-731.981	50.879	-0.161	0.203
-730.966	-116.343	-0.570	-0.139
-729.952	188.185	-0.050	0.100
-728.937	-200.000	0.065	-0.448
-727.923	-16.118	0.337	0.283
-726.908	-31.139	0.240	-0.179
-725.894	-185.916	0.078	-0.001
-724.879	-200.000	-0.470	-0.001
-723.864	-26.613	-0.250	0.194
-722.850	63.701	-0.150	0.199
-721.835	-200.000	-0.055	-0.679
-720.821	29.681	0.273	-0.308
-719.806	-114.606	0.219	0.055
-718.791	-200.000	-0.000	0.260
-717.777	113.557	0.034	-0.054
-716.762	44.599	0.101	0.123
-715.748	111.202	0.108	-0.172
-714.733	-86.906	0.169	-0.068
-713.718	-95.540	0.331	-0.117
-712.704	-136.957	0.354	0.053
-711.689	-113.798	-0.657	-0.168
-710.675	-71.194	0.292	-0.145
-709.660	-177.410	-0.114	-0.004
-708.645	-36.538	0.204	0.145
-707.631	-46.860	0.114	0.073
-706.616	36.232	-0.116	-0.135
-705.602	57.570	0.077	0.099
-704.587	99.366	-0.251	-0.386
-703.572	-76.088	-0.628	-0.293
-702.558	0.255	-0.462	0.436
-701.543	297.747	-0.066	-0.161
-700.529	117.514	0.048	-0.079
-699.514	618.627	0.085	-0.286
-698.499	54.420	0.314	-0.401
-697.485	-53.809	0.413	-0.249
-696.470	-200.000	0.014	0.193
-695.456	43.354	-0.153	-0.185
-694.441	448.968	0.125	-0.365
-693.426	800.000	-0.134	-0.557
-692.412	-2.042	-0.384	-0.357
-691.397	183.654	0.075	-0.147
-690.383	800.000	-0.048	-0.186
-689.368	-82.954	0.043	-0.018
-688.354	-200.000	0.015	-0.267
-687.339	-149.122	0.407	-0.043
-686.324	1.699	-0.167	0.159
-685.310	-105.200	0.270	0.081
-684.295	-146.683	0.058	0.007
-683.281	-200.000	0.006	-0.222
-682.266	-21.919	0.171	-0.138
-681.251	-62.890	0.372	-0.203
-680.237	259.298	-0.184	-0.421
-679.222	-158.225	0.592	-0.045
-678.208	-114.611	-0.182	-0.046
-677.193	-149.487	-0.477	0.049
-676.178	-44.772	0.061	0.040
-675.164	-200.000	-0.044	0.320
-674.149	-110.959	0.298	-0.080
-673.135	-172.095	0.428	-0.018
-672.120	-159.003	-0.078	-0.006
-671.105	344.660	-0.075	-0.195
-670.091	-200.000	-0.035	-0.550
-669.076	603.165	-0.116	-0.382
-668.062	231.140	-0.056	-0.121
-667.047	175.170	0.241	-0.463
-666.032	7.905	0.244	-0.242
-665.018	264.857	0.225	-0.520
-664.003	-200.000	0.002	-0.036
-662.989	-37.860	0.140	0.098
-661.974	110.673	-0.153	0.244
-660.959	-200.000	0.030	0.189
-659.945	-42.193	0.144	-0.097
-658.930	97.296	0.140	-0.213
-657.916	-17.356	-0.089	-0.074
-656.901	800.000	-0.073	-0.393
-655.886	-46.849	-0.319	-0.206
-654.872	-41.866	-0.283	-0.191
-653.857	-98.086	-0.156	-0.053
-652.843	-103.439	-0.340	-0.105
-651.828	16.493	0.125	-0.131
-650.814	225.338	-0.037	-0.080
-649.799	290.143	-0.174	0.419
-648.784	-36.757	-0.173	-0.123
-647.770	-65.030	0.141	-0.075
-646.755	381.488	0.089	-0.243
-645.741	129.394	-0.109	0.184
-644.726	800.000	0.037	-0.183
-643.711	-67.791	-0.440	-0.226
-642.697	114.127	0.377	0.606
-641.682	-162.428	-0.587	0.038
-640.668	150.946	-0.176	0.317
-639.653	-1.543	0.187	-0.174
-638.638	-111.178	-0.300	-0.080
-637.624	-24.715	0.305	0.239
-636.609	-200.000	0.008	0.121
-635.595	-34.129	0.384	-0.278
-634.580	-15.184	-0.330	0.279
-633.565	0.551	-0.056	-0.053
-632.551	-54.028	-0.252	-0.151
-631.536	257.066	-0.038	0.087
-630.522	-53.395	-0.332	-0.200
-629.507	266.321	-0.221	-0.511
-628.492	-171.635	0.185	-0.008
-627.478	203.000	0.051	0.104
-626.463	-12.598	-0.208	0.179
-625.449	17.787	0.170	-0.179
-624.434	-116.075	0.201	0.049
-623.419	-187.484	0.478	0.008
-622.405	-58.696	0.179	0.102
-621.390	800.000	0.105	0.550
-620.376	-126.518	-0.152	-0.029
-619.361	80.861	-0.127	0.182
-618.346	-104.971	-0.644	-0.193
-617.332	87.009	-0.075	0.109
-616.317	-200.000	-0.055	0.326
-615.303	-88.272	-0.221	-0.087
-614.288	149.856	-0.206	0.369
-613.273	122.580	0.236	-0.389
-612.259	800.000	-0.078	-0.309
-611.244	-200.000	-0.063	-0.522
-610.230	-34.879	-0.187	0.134
-609.215	310.780	0.019	-0.048
-608.201	-33.456	0.509	-0.370
-607.186	373.599	-0.090	0.243
-606.171	224.622	0.115	-0.247
-605.157	-97.344	-0.358	-0.122
-604.142	107.040	-0.118	-0.185
-603.128	-200.000	-0.018	0.315
-602.113	-164.270	0.309	0.018
-601.098	148.867	0.094	-0.169
-600.084	-46.531	-0.237	0.153
-599.069	800.000	0.061	0.231
-598.055	-47.537	-0.286	0.182
-597.040	137.790	-0.221	-0.383
-596.025	-107.347	0.300	-0.086
-595.011	41.672	-0.166	-0.199
-593.996	102.350	-0.182	0.281
-592.982	14.252	-0.373	-0.383
-591.967	24.428	0.277	-0.302
-590.952	54.640	-0.169	0.215
-589.938	35.664	0.118	-0.137
-588.923	94.218	-0.151	-0.226
-587.909	-173.803	0.262	-0.010
-586.894	-74.119	0.017	-0.008
-585.879	-55.060	0.481	0.285
-584.865	75.997	0.262	-0.366
-583.850	9.983	-0.203	0.203
-582.836	-71.308	-0.435	0.214
-581.821	525.566	-0.038	0.119
-580.806	-194.829	-0.529	0.005
-579.792	-146.983	0.395	0.044
-578.777	-200.000	-0.017	-0.142
-577.763	-52.828	0.138	0.083
-576.748	-136.562	-0.038	-0.006
-575.733	73.067	0.120	-0.166
-574.719	323.394	0.151	-0.381
-573.704	-200.000	0.035	-0.470
-572.690	166.396	-0.301	-0.563
-571.675	-127.445	-0.288	-0.055
-570.661	-36.646	-0.139	0.098
-569.646	52.834	-0.079	-0.100
-568.631	-200.000	0.041	0.531
-567.617	-200.000	0.026	0.293
-566.602	800.000	-0.021	0.117
-565.588	800.000	-0.038	-0.217
-564.573	631.663	-0.090	-0.302
-563.558	150.337	0.111	-0.199
-562.544	-184.087	0.336	-0.007
-561.529	-35.503	0.249	0.177
-560.515	800.000	-0.035	-0.142
-559.500	47.701	0.068	0.083
-558.485	61.363	0.273	-0.358
-557.471	336.153	-0.083	-0.214
-556.456	-101.895	-0.238	-0.075
-555.442	-42.982	-0.392	0.261
-554.427	151.601	-0.137	0.246
-553.412	-200.000	-0.086	0.510
-552.398	-136.251	0.211	0.032
-551.383	-26.626	0.355	-0.273
-550.369	15.338	-0.260	0.268
-549.354	104.910	0.041	-0.064
-548.339	-200.000	0.030	0.282
-547.325	-110.065	-0.218	0.059
-546.310	461.297	-0.060	-0.176
-545.296	223.421	-0.104	-0.222
-544.281	-200.000	0.040	-0.759
-543.266	275.556	-0.091	-0.213
-542.252	800.000	-0.166	-0.853
-541.237	591.971	0.116	-0.380
-540.223	328.147	0.116	-0.295
-539.208	30.678	-0.096	-0.108
-538.193	-20.775	0.205	0.165
-537.179	-96.378	0.259	-0.090
-536.164	661.211	-0.056	-0.192
-535.150	-94.326	0.231	-0.082
-534.135	13.586	-0.339	-0.346
-533.121	-63.943	-0.354	-0.190
-532.106	181.408	-0.149	-0.290
-531.091	-113.813	-0.352	0.089
-530.077	62.931	-0.118	-0.156
-529.062	-61.025	0.223	-0.123
-528.048	41.160	0.342	0.407
-527.033	22.369	-0.268	-0.288
-526.018	-2.021	0.268	0.247
-525.004	-108.463	-0.279	-0.078
-523.989	396.280	0.115	0.318
-522.975	71.801	0.171	0.235
-521.960	-7.380	-0.143	0.127
-520.945	-200.000	-0.044	-0.448
-519.931	-171.109	-0.308	-0.013
-518.916	-1.076	0.395	0.367
-517.902	-156.868	0.228	0.018
-516.887	-74.686	-0.214	-0.100
-515.872	-100.438	-0.379	0.123
-514.858	-90.783	-0.215	0.081
-513.843	-200.000	-0.021	-0.363
-512.829	26.211	-0.175	0.192
-511.814	-143.761	-0.467	-0.057
-510.799	-10.700	0.209	-0.182
-509.785	330.609	-0.249	0.633
-508.770	-200.000	0.013	-0.153
-507.756	594.784	-0.090	-0.293
-506.741	-92.992	0.281	-0.102
-505.726	-173.123	-0.196	0.008
-504.712	64.483	-0.284	-0.377
-503.697	-109.315	0.685	-0.189
-502.683	-70.298	-0.232	0.115
-501.668	190.522	-0.134	0.265
-500.653	-2.955	0.112	0.102
-499.639	-127.981	-0.178	0.033
-498.624	800.000	0.120	0.659
-497.610	137.146	-0.071	-0.121
-496.595	-114.241	-0.221	0.056
-495.581	37.107	-0.136	0.159
-494.566	-200.000	0.031	-0.763
-493.551	800.000	-0.094	-0.473
-492.537	800.000	0.049	-0.196
-491.522	-76.739	-0.059	-0.027
-490.508	145.264	0.245	-0.431
-489.493	800.000	0.086	-0.409
-488.478	42.729	-0.210	-0.252
-487.464	78.343	0.030	0.043
-486.449	660.068	0.084	0.285
-485.435	58.989	0.135	0.175
-484.420	-60.033	-0.251	0.140
-483.405	-200.000	-0.071	-0.475
-482.391	-200.000	0.004	-0.094
-481.376	800.000	-0.048	-0.244
-480.362	-116.081	0.149	0.036
-479.347	-200.000	-0.038	0.494
-478.332	413.379	0.042	0.118
-477.318	-128.583	0.212	0.039
-476.303	-185.084	-0.279	-0.006
-475.289	-71.485	0.228	0.112
-474.274	-107.541	-0.150	-0.043
-473.259	320.345	0.256	-0.641
-472.245	101.481	-0.046	-0.071
-471.230	-122.711	-0.483	0.102
-470.216	80.104	0.072	0.101
-469.201	125.871	0.204	-0.338
-468.186	-54.238	-0.305	-0.181
-467.172	-95.224	-0.465	0.164
-466.157	-48.359	-0.207	0.131
-465.143	-143.830	-0.304	-0.037
-464.128	-200.000	0.007	0.280
-463.113	118.192	0.176	0.285
-462.099	-114.038	-0.184	-0.046
-461.084	88.738	0.139	0.203
-460.070	-200.000	-0.010	0.362
-459.055	800.000	-0.003	0.015
-458.040	-5.703	-0.349	0.313
-457.026	-46.084	0.330	0.213
-456.011	-54.501	-0.413	0.244
-454.997	69.216	-0.112	-0.152
-453.982	-166.339	-0.103	0.006
-452.968	-77.278	0.208	-0.094
-451.953	-53.925	0.089	-0.053
-450.938	-50.026	0.171	0.106
-449.924	800.000	-0.034	0.171
-448.909	-28.940	-0.227	-0.170
-447.895	-144.274	-0.290	0.035
-446.880	-110.710	-0.604	0.162
-445.865	-149.669	0.643	-0.066
-444.851	-65.575	-0.178	-0.093
-443.836	-33.845	-0.215	0.155
-442.822	-24.383	0.323	-0.252
-441.807	-64.416	0.409	-0.217
-440.792	430.125	0.142	0.404
-439.778	-52.852	-0.039	0.024
-438.763	105.731	0.211	0.328
-437.749	251.325	0.140	0.313
-436.734	152.364	-0.083	-0.149
-435.719	-101.102	0.079	0.025
-434.705	-194.723	-0.166	0.002
-433.690	92.702	-0.250	-0.370
-432.676	134.058	0.164	-0.279
-431.661	-74.071	0.432	-0.204
-430.646	-200.000	0.022	-0.167
-429.632	-98.981	-0.139	0.046
-428.617	71.720	0.053	-0.072
-427.603	-119.888	0.448	0.100
-426.588	164.114	0.165	0.306
-425.573	28.032	-0.356	-0.393
-424.559	-9.925	-0.100	-0.087
-423.544	413.488	0.279	0.782
-422.530	588.059	0.139	-0.451
-421.515	81.240	-0.255	-0.361
-420.500	800.000	-0.104	-0.531
-419.486	4.999	-0.470	-0.453
-418.471	17.239	-0.272	-0.282
-417.457	800.000	0.063	-0.345
-416.442	-109.111	0.238	-0.066
-415.428	-88.077	-0.195	-0.076
-414.413	154.705	0.429	0.774
-413.398	-200.000	-0.002	-0.084
-412.384	-39.059	-0.094	0.065
-411.369	-82.840	-0.075	-0.032
-410.355	-124.635	0.279	0.056
-409.340	-125.480	0.355	0.070
-408.325	-101.738	-0.225	-0.071
-407.311	737.777	0.061	0.214
-406.296	800.000	0.025	-0.134
-405.282	-200.000	0.008	0.052
-404.267	358.602	0.097	-0.255
-403.252	-102.770	-0.262	-0.081
-402.238	-10.948	-0.208	0.180
-401.223	-113.844	0.646	0.163
-400.209	-85.526	-0.311	-0.126
-399.194	-136.843	0.354	0.053
-398.179	-200.000	0.033	0.390
-397.165	-41.513	-0.380	0.255
-396.150	-126.857	0.377	0.072
-395.136	51.765	0.212	-0.265
-394.121	800.000	0.097	-0.390
-393.106	151.815	-0.193	-0.345
-392.092	-44.540	0.086	0.056
-391.077	224.437	0.128	-0.271
-390.063	40.890	-0.211	-0.249
-389.048	724.911	-0.036	-0.125
-388.033	86.453	-0.118	-0.171
-387.019	-49.406	0.321	-0.200
-386.004	685.463	0.209	0.719
-384.990	-31.965	-0.160	-0.117
-383.975	-200.000	-0.006	-0.260
-382.960	-47.509	0.100	0.063
-381.946	161.360	-0.162	0.298
-380.931	-66.394	0.175	-0.091
-379.917	466.640	-0.090	-0.265
-378.902	-34.875	0.164	-0.117
-377.888	-120.719	0.172	-0.038
-376.873	-97.220	0.274	0.093
-375.858	642.323	0.069	-0.232
-374.844	236.629	0.101	0.219
-373.829	45.262	0.079	0.095
-372.815	3.118	0.149	-0.141
-371.800	-36.826	-0.417	0.292
-370.785	64.882	-0.224	-0.295
-369.771	404.704	-0.090	0.249
-368.756	104.051	-0.194	0.299
-367.742	-27.484	-0.201	-0.153
-366.727	343.879	-0.118	0.302
-365.712	800.000	0.065	0.324
-364.698	58.079	-0.240	0.307
-363.683	-200.000	0.238	0.001
-362.669	76.281	0.234	0.324
-361.654	190.859	0.228	0.449
-360.639	-200.000	0.026	0.653
-359.625	264.939	0.183	0.418
-358.610	306.753	-0.186	0.454
-357.596	-106.476	-0.271	0.078
-356.581	-97.403	-0.207	0.070
-355.566	-200.000	0.062	0.368
-354.552	42.397	0.246	-0.292
-353.537	-81.304	0.144	0.062
-352.523	86.914	0.107	-0.155
-351.508	58.918	0.292	0.375
-350.493	-161.656	-0.383	-0.025
-349.479	-115.656	-0.093	-0.023
-348.464	-200.000	0.018	0.329
-347.450	-161.399	-0.456	0.030
-346.435	-200.000	-0.020	-0.239
-345.420	507.512	-0.081	0.247
-344.406	-35.775	-0.186	0.131
-343.391	-83.678	-0.267	-0.111
-342.377	17.042	0.242	0.250
-341.362	174.100	-0.107	-0.202
-340.348	199.475	-0.044	-0.088
-339.333	177.915	0.293	0.559
-338.318	11.365	0.384	0.384
-337.304	63.963	0.006	0.008
-336.289	-10.980	-0.101	0.087
-335.275	-136.780	-0.466	-0.069
-334.260	128.881	-0.275	0.459
-333.245	-200.000	0.004	0.433
-332.231	7.598	-0.160	-0.156
-331.216	-200.000	0.003	0.018
-330.202	-156.424	0.068	-0.005
-329.187	800.000	-0.039	-0.219
-328.172	-200.000	-0.044	0.302
-327.158	-42.330	0.259	-0.172
-326.143	-200.000	0.003	0.321
-325.129	753.269	0.063	0.222
-324.114	469.465	0.083	-0.244
-323.099	278.812	-0.221	0.516
-322.085	-95.954	-0.357	0.123
-321.070	-200.000	-0.013	0.112
-320.056	257.882	0.060	0.136
-319.041	243.830	-0.079	0.173
-318.026	184.793	-0.098	0.190
-317.012	-28.976	-0.114	0.085
-315.997	-34.061	0.645	-0.462
-314.983	54.878	0.074	-0.093
-313.968	261.193	0.193	0.438
-312.953	-64.100	-0.468	-0.248
-311.939	-82.692	-0.085	0.036
-310.924	-105.603	0.104	0.031
-309.910	-29.032	-0.249	-0.186
-308.895	-114.463	0.632	0.157
-307.880	330.850	0.112	0.283
-306.866	-68.979	0.122	-0.061
-305.851	82.829	0.232	0.329
-304.837	-200.000	-0.027	0.323
-303.822	-81.934	-0.305	0.129
-302.807	-24.082	0.373	0.290
-301.793	-36.371	0.241	0.169
-300.778	-51.346	-0.243	0.148
-299.764	-95.848	0.074	-0.026
-298.749	175.994	-0.042	0.080
-297.735	37.004	0.142	-0.164
-296.720	-22.738	-0.021	-0.016
-295.705	155.540	0.204	0.367
-294.691	23.262	0.157	-0.168
-293.676	-101.866	0.240	0.075
-292.662	-89.673	-0.316	-0.120
-291.647	-28.423	0.266	-0.199
-290.632	-18.874	0.325	-0.264
-289.618	-200.000	-0.023	0.293
-288.603	48.729	-0.144	0.176
-287.589	48.944	0.174	-0.213
-286.574	-87.489	0.109	-0.043
-285.559	270.847	-0.142	-0.327
-284.545	800.000	0.039	-0.166
-283.530	-200.000	-0.052	0.314
-282.516	61.881	0.212	0.275
-281.501	86.707	0.205	-0.295
-280.486	-141.406	-0.175	0.023
-279.472	-76.374	0.279	-0.127
-278.457	314.603	-0.069	-0.170
-277.443	-20.285	-0.413	-0.331
-276.428	57.247	-0.361	-0.459
-275.413	-145.057	-0.353	-0.041
-274.399	12.927	0.161	0.162
-273.384	222.196	0.250	-0.526
-272.370	59.577	0.131	0.168
-271.355	-183.656	0.423	-0.009
-270.340	-107.422	-0.381	-0.108
-269.326	213.710	0.195	-0.402
-268.311	261.730	-0.238	-0.539
-267.297	-154.062	0.559	-0.049
-266.282	433.496	-0.058	-0.165
-265.267	800.000	-0.096	-0.385
-264.253	145.594	-0.179	-0.312
-263.238	101.330	-0.370	-0.561
-262.224	-101.925	-0.194	0.060
-261.209	-96.803	-0.360	0.123
-260.195	-154.110	0.405	0.035
-259.180	434.093	0.139	0.396
-258.165	-65.606	0.173	-0.090
-257.151	219.644	-0.055	-0.115
-256.136	-127.094	0.206	0.039
-255.122	132.086	-0.054	0.091
-254.107	34.680	0.184	0.209
-253.092	-4.238	0.218	0.196
-252.078	-200.000	0.004	0.217
-251.063	-103.535	0.267	-0.081
-250.049	327.449	0.090	0.225
-249.034	-173.817	-0.469	-0.018
-248.019	-74.306	0.048	0.022
-247.005	-136.289	0.109	-0.016
-245.990	118.707	0.176	0.283
-244.976	76.606	-0.111	-0.154
-243.961	488.945	-0.131	0.390
-242.946	-200.000	-0.011	0.069
-241.932	-88.021	0.148	-0.058
-240.917	-95.458	0.270	0.094
-239.903	800.000	-0.013	-0.053
-238.888	-59.348	0.156	-0.087
-237.873	24.873	-0.237	-0.255
-236.859	-107.303	0.179	0.051
-235.844	145.175	0.123	0.215
-234.830	-112.635	-0.019	0.005
-233.815	-38.373	-0.456	-0.313
-232.800	-66.984	-0.219	-0.112
-231.786	-72.062	0.420	0.202
-230.771	-29.339	0.119	-0.088
-229.757	386.902	0.051	-0.138
-228.742	-135.802	0.465	0.071
-227.727	-10.932	-0.257	0.221
-226.713	800.000	0.034	-0.142
-225.698	208.448	-0.135	0.275
-224.684	-88.818	-0.237	0.091
-223.669	186.386	0.270	-0.523
-222.655	-128.308	0.392	0.072
-221.640	101.159	-0.070	0.107
-220.625	-130.813	0.270	-0.047
-219.611	-6.150	0.277	-0.246
-218.596	58.981	-0.246	0.315
-217.582	-16.152	0.125	-0.103
-216.567	-107.758	0.354	-0.100
-215.552	-200.000	-0.023	0.145
-214.538	-200.000	-0.010	-0.328
-213.523	-197.509	0.250	-0.002
-212.509	-139.606	0.296	0.041
-211.494	209.987	0.072	0.147
-210.479	411.820	0.098	0.270
-209.465	390.357	-0.139	0.377
-208.450	72.381	-0.291	0.394
-207.436	-16.304	0.311	0.256
-206.421	152.524	-0.211	0.375
-205.406	-42.286	0.237	0.157
-204.392	-45.587	0.521	0.334
-203.377	267.834	0.166	0.379
-202.363	-27.056	-0.160	0.121
-201.348	-131.396	0.054	-0.009
-200.333	-81.185	-0.053	-0.023
-199.319	-17.666	0.254	0.207
-198.304	-44.293	-0.456	-0.296
-197.290	-87.339	0.244	-0.096
-196.275	263.575	-0.182	-0.413
-195.260	-64.445	0.427	-0.224
-194.246	-47.254	-0.232	0.147
-193.231	280.927	0.080	0.187
-192.217	-135.772	0.075	-0.011
-191.202	-200.000	-0.014	0.244
-190.187	-200.000	0.091	-0.594
-189.173	249.575	0.131	-0.290
-188.158	-23.258	-0.246	-0.192
-187.144	-94.021	-0.315	-0.112
-186.129	-200.000	0.005	-0.114
-185.114	-122.504	0.121	-0.025
-184.100	-151.416	0.252	0.024
-183.085	89.806	-0.071	0.103
-182.071	800.000	0.200	-0.906
-181.056	45.982	-0.238	-0.286
-180.042	-200.000	0.008	0.082
-179.027	-43.901	0.716	-0.466
-178.012	-200.000	0.002	-0.116
-176.998	-59.832	-0.153	0.085
-175.983	536.251	0.108	0.334
-174.969	59.867	0.167	0.214
-173.954	-168.389	-0.145	-0.007
-172.939	-139.448	0.474	-0.065
-171.925	-39.109	-0.230	0.156
-170.910	518.162	0.031	0.094
-169.896	35.815	-0.112	0.128
-168.881	-39.116	0.326	-0.222
-167.866	800.000	-0.025	-0.093
-166.852	675.404	-0.107	-0.363
-165.837	-25.423	-0.094	0.072
-164.823	-200.000	-0.062	-0.495
-163.808	-120.551	-0.598	-0.130
-162.793	-30.170	-0.189	-0.139
-161.779	-45.641	-0.649	-0.415
-160.764	-32.426	-0.211	0.152
-159.750	-1.008	0.109	0.100
-158.735	-200.000	-0.100	0.581
-157.720	-151.616	-0.209	0.020
-156.706	77.407	-0.115	0.158
-155.691	60.798	0.401	0.516
-154.677	376.153	0.144	0.383
-153.662	-21.091	0.435	0.345
-152.647	-54.807	0.539	0.314
-151.633	-74.262	-0.171	0.080
-150.618	-103.414	0.208	-0.063
-149.604	17.242	-0.401	-0.412
-148.589	273.333	-0.246	0.565
-147.574	-138.693	-0.177	0.025
-146.560	-26.303	-0.539	-0.409
-145.545	20.369	-0.108	0.113
-144.531	-114.546	0.147	-0.036
-143.516	800.000	0.117	-0.525
-142.502	-96.780	-0.583	-0.197
-141.487	-85.157	-0.425	-0.171
-140.472	64.934	-0.289	0.378
-139.458	-114.977	0.310	0.076
-138.443	424.027	-0.048	0.134
-137.429	45.136	-0.059	-0.071
-136.414	-176.430	0.125	0.004
-135.399	800.000	-0.130	0.586
-134.385	-200.000	0.008	0.177
-133.370	800.000	-0.100	-0.379
-132.356	-121.867	0.174	-0.037
-131.341	-158.615	-0.179	0.013
-130.326	-200.000	0.004	-0.167
-129.312	-200.000	-0.006	0.276
-128.297	23.169	0.289	0.307
-127.283	-200.000	-0.021	0.248
-126.268	149.107	-0.126	-0.222
-125.253	-43.649	0.206	-0.134
-124.239	800.000	0.127	0.542
-123.224	-109.466	0.121	-0.033
-122.210	17.477	0.141	-0.145
-121.195	49.801	-0.130	-0.158
-120.180	-77.337	-0.166	-0.074
-119.166	-200.000	-0.024	-0.472
-118.151	-157.732	-0.534	0.041
-117.137	771.211	-0.202	-0.717
-116.122	-194.489	-0.508	0.005
-115.107	-120.361	-0.617	0.135
-114.093	800.000	-0.037	-0.145
-113.078	153.448	0.050	-0.089
-112.064	138.631	0.192	0.326
-111.049	185.149	0.257	0.494
-110.034	446.839	0.099	-0.284
-109.020	-67.037	0.327	0.166
-108.005	303.844	0.017	0.041
-106.991	-16.810	0.568	0.464
-105.976	150.622	0.068	0.120
-104.962	-177.198	-0.381	-0.012
-103.947	800.000	0.074	-0.361
-102.932	237.562	-0.220	-0.473
-101.918	36.699	-0.433	-0.494
-100.903	-43.030	-0.170	-0.111
-99.889	-56.871	-0.425	-0.242
-98.874	-200.000	0.021	0.314
-97.859	-31.980	-0.118	0.085
-96.845	-73.014	0.289	0.137
-95.830	264.234	-0.224	0.506
-94.816	84.097	-0.481	-0.681
-93.801	-98.210	-0.322	0.106
-92.786	261.066	-0.131	-0.295
-91.772	8.948	-0.324	-0.316
-90.757	372.905	-0.125	-0.331
-89.743	-200.000	0.032	-0.330
-88.728	-200.000	0.065	0.428
-87.713	179.743	0.182	0.345
-86.699	-200.000	-0.024	0.618
-85.684	-200.000	0.024	0.544
-84.670	800.000	-0.105	0.418
-83.655	-121.788	0.273	0.058
-82.640	70.726	0.084	0.112
-81.626	-70.132	0.434	0.213
-80.611	-14.204	0.087	0.072
-79.597	-200.000	-0.008	0.246
-78.582	323.973	-0.073	0.180
-77.567	85.058	-0.321	-0.455
-76.553	36.007	-0.149	-0.170
-75.538	-109.672	0.139	-0.038
-74.524	-113.840	-0.117	0.029
-73.509	8.795	0.134	0.131
-72.494	-200.000	0.007	0.054
-71.480	-57.051	0.341	-0.193
-70.465	29.175	-0.226	-0.248
-69.451	-172.414	0.371	-0.015
-68.436	-107.702	-0.238	0.067
-67.422	-200.000	-0.005	-0.226
-66.407	-143.500	-0.346	-0.042
-65.392	2.322	-0.431	-0.402
-64.378	21.046	-0.023	-0.024
-63.363	-60.497	-0.108	0.059
-62.349	-21.464	-0.145	0.114
-61.334	40.904	-2.187	-2.549
-60.319	29.065	1.204	1.319
-59.305	242.141	-3.602	-7.807
-58.290	42.916	3.979	4.685
-57.276	311.136	4.214	10.239
-56.261	-200.000	22.215	314.900
-55.246	360.448	1293.967	3359.594
-54.232	53.053	2846.606	3519.642
-53.217	51.946	2664.637	3277.408
-52.203	32.862	2395.383	2677.292
-51.188	28.882	2060.002	2253.434
-50.173	25.363	1946.097	2087.710
-49.159	24.347	1934.988	2063.893
-48.144	23.929	1929.809	2053.442
-47.130	23.851	1927.150	2049.624
-46.115	23.832	1926.386	2048.507
-45.100	23.822	1925.775	2047.657
-44.086	23.919	1923.225	2045.994
-43.071	23.779	1922.893	2043.937
-42.057	23.792	1920.856	2041.843
-41.042	23.789	1919.834	2040.638
-40.027	23.722	1917.909	2037.738
-39.013	23.775	1916.004	2036.245
-37.998	23.694	1915.261	2034.444
-36.984	23.880	1913.383	2034.507
-35.969	23.675	1912.721	2031.370
-34.954	23.687	1910.690	2029.263
-33.940	23.616	1911.030	2028.730
-32.925	23.713	1908.152	2026.701
-31.911	23.781	1906.503	2025.655
-30.896	23.685	1905.699	2023.618
-29.881	23.724	1904.979	2023.221
-28.867	23.644	1903.643	2020.808
-27.852	23.564	1902.145	2018.223
-26.838	23.530	1900.371	2015.867
-25.823	23.620	1899.101	2015.467
-24.809	23.581	1898.069	2013.848
-23.794	23.652	1896.542	2012.963
-22.779	23.487	1895.599	2010.005
-21.765	23.496	1894.192	2008.536
-20.750	23.462	1893.368	2007.195
-19.736	23.497	1891.959	2006.010
-18.721	23.521	1891.545	2005.772
-17.706	23.434	1890.057	2003.123
-16.692	23.674	1887.041	2002.570
-15.677	23.524	1886.660	2000.385
-14.663	23.401	1885.333	1997.503
-13.648	23.448	1883.819	1996.354
-12.633	23.395	1883.166	1994.984
-11.619	23.434	1881.671	1993.766
-10.604	23.519	1880.163	1993.043
-9.590	23.500	1879.044	1991.563
-8.575	23.492	1877.074	1989.303
-7.560	23.375	1877.212	1988.056
-6.546	23.331	1876.122	1986.323
-5.531	23.515	1874.180	1986.262
-4.517	23.418	1873.920	1984.810
-3.502	23.499	1872.020	1983.631
-2.487	23.489	1870.967	1982.328
-1.473	23.510	1868.116	1979.465
-0.458	23.249	1850.000	1957.288
0.556	19.771	1996.553	2058.456
1.571	18.377	2199.726	2249.261
2.586	19.093	2238.437	2298.186
3.600	19.211	2241.040	2302.168
4.615	19.056	2240.511	2299.264
5.629	19.039	2238.847	2297.055
6.644	18.920	2236.878	2293.169
7.659	19.000	2235.119	2292.163
8.673	19.068	2232.128	2289.728
9.688	18.950	2241.656	2297.645
10.702	18.293	2323.068	2371.651
11.717	16.654	2387.811	2413.979
12.731	8.058	2366.492	2269.537
13.746	1.202	2347.788	2153.716
14.761	0.289	2344.499	2137.431
15.775	0.244	2342.152	2134.401
16.790	0.243	2339.910	2132.081
17.804	0.161	2339.078	2129.911
18.819	0.152	2338.609	2129.094
19.834	0.045	2337.650	2126.446
20.848	0.102	2335.832	2125.342
21.863	0.018	2333.732	2121.997
22.877	0.045	2331.934	2120.488
23.892	0.141	2328.521	2118.479
24.907	0.022	2327.308	2115.447
25.921	-0.073	2326.361	2112.983
26.936	0.112	2322.736	2112.058
27.950	0.001	2320.186	2107.922
28.965	0.068	2318.341	2106.934
29.980	0.118	2317.811	2106.904
30.994	0.190	2316.116	2106.120
32.009	4.401	2328.355	2176.422
33.023	13.890	2356.208	2336.999
34.038	17.677	2362.238	2396.304
35.053	17.750	2359.443	2394.210
36.067	17.924	2355.473	2392.350
37.082	17.794	2355.196	2389.958
38.096	17.891	2352.863	2388.667
39.111	17.930	2350.023	2386.041
40.126	18.038	2347.810	2385.024
41.140	18.136	2346.270	2384.546
42.155	18.154	2344.991	2383.219
43.169	18.190	2342.621	2381.026
44.184	17.938	2340.207	2374.759
45.199	17.902	2338.222	2371.965
46.213	18.150	2335.964	2372.842
47.228	18.144	2336.310	2372.826
48.242	18.159	2334.187	2370.606
49.257	18.208	2332.889	2369.677
50.271	18.244	2329.997	2366.952
51.286	18.014	2327.352	2360.799
52.301	17.760	2324.998	2354.607
53.315	18.533	2327.416	2367.501
54.330	21.370	2335.316	2414.698
55.344	23.337	2336.251	2442.669
56.359	23.354	2334.034	2440.288
57.374	23.441	2333.847	2441.009
58.388	23.551	2331.326	2439.598
59.403	23.380	2325.856	2431.227
60.417	23.056	2322.583	2423.059
61.432	23.010	2321.421	2420.921
62.447	23.296	2319.829	2422.898
63.461	23.425	2318.506	2423.008
64.476	23.551	2316.609	2422.454
65.490	23.282	2314.123	2415.881
66.505	22.571	2308.969	2400.481
67.520	20.447	2302.855	2364.805
68.534	18.518	2295.347	2330.475
69.549	17.998	2290.485	2318.180
70.563	17.910	2288.144	2314.326
71.578	17.886	2286.074	2311.629
72.593	17.999	2283.959	2310.748
73.607	18.022	2283.548	2310.372
74.622	18.064	2281.161	2308.256
75.636	17.899	2278.433	2302.984
76.651	17.883	2275.783	2299.805
77.666	17.911	2274.858	2298.970
78.680	17.939	2272.179	2296.373
79.695	17.703	2270.174	2290.884
80.709	17.686	2268.919	2289.112
81.724	17.706	2266.807	2286.972
82.739	17.729	2263.071	2283.238
83.753	17.653	2261.409	2280.275
84.768	17.635	2259.639	2277.972
85.782	17.534	2258.454	2275.152
86.797	17.417	2257.006	2271.842
87.812	17.381	2253.918	2267.979
88.826	17.475	2252.202	2267.248
89.841	17.398	2249.963	2263.688
90.855	17.406	2246.584	2260.127
91.870	17.459	2245.372	2259.342
92.884	17.440	2244.139	2257.578
93.899	17.420	2242.856	2255.756
94.914	18.094	2245.188	2266.811
95.928	20.551	2252.993	2307.238
96.943	21.445	2251.196	2317.038
97.957	19.025	2240.607	2273.756
98.972	17.447	2235.662	2247.527
99.987	17.377	2233.329	2243.986
101.001	17.478	2229.610	2241.319
102.016	17.503	2227.384	2239.146
103.030	17.443	2224.641	2235.323
104.045	17.607	2222.415	2234.989
105.060	17.530	2220.762	2232.043
106.074	17.568	2219.476	2230.977
107.089	17.653	2218.882	2231.240
108.103	17.657	2217.392	2229.519
109.118	17.727	2216.463	2229.244
110.133	17.908	2213.503	2228.376
111.147	17.881	2211.450	2225.691
112.162	17.789	2210.695	2223.448
113.176	17.916	2209.028	2223.174
114.191	18.079	2207.221	2223.221
115.206	18.011	2205.910	2220.744
116.220	18.018	2204.185	2218.833
117.235	17.972	2202.519	2216.287
118.249	18.077	2199.874	2214.726
119.264	17.923	2199.027	2211.608
120.279	17.816	2196.684	2207.599
121.293	17.851	2194.969	2206.060
122.308	17.797	2193.699	2203.825
123.322	17.853	2193.070	2203.657
124.337	18.252	2193.362	2208.860
125.352	20.732	2200.446	2247.963
126.366	21.505	2197.814	2255.029
127.381	19.000	2187.812	2212.153
128.395	17.908	2183.065	2193.002
129.410	17.874	2180.460	2189.674
130.424	17.724	2178.515	2185.534
131.439	17.883	2177.469	2186.263
132.454	17.971	2176.428	2186.094
133.468	18.189	2173.497	2185.688
134.483	18.172	2172.837	2184.548
135.497	18.283	2170.805	2183.664
136.512	18.165	2169.444	2180.516
137.527	18.125	2166.419	2176.702
138.541	17.902	2165.554	2172.726
139.556	17.897	2164.827	2171.669
140.570	17.874	2162.765	2169.047
141.585	17.723	2160.542	2164.629
142.600	17.654	2159.513	2162.466
143.614	17.603	2157.616	2159.658
144.629	17.671	2155.048	2157.684
145.643	17.583	2153.356	2154.624
146.658	17.499	2151.824	2151.759
147.673	17.347	2149.354	2147.110
148.687	17.418	2148.012	2146.404
149.702	17.536	2147.630	2147.259
150.716	17.399	2146.827	2144.468
151.731	17.333	2145.089	2141.646
152.746	17.324	2144.067	2140.255
153.760	17.987	2146.655	2150.973
154.775	20.849	2153.326	2193.683
155.789	21.725	2151.746	2202.877
156.804	19.095	2140.686	2158.197
157.819	17.516	2133.787	2131.135
158.833	17.439	2130.385	2126.505
159.848	17.428	2129.224	2124.952
160.862	17.573	2128.822	2126.115
161.877	17.696	2127.395	2125.988
162.892	17.777	2126.159	2125.509
163.906	17.701	2126.359	2124.507
164.921	17.721	2123.238	2121.385
165.935	17.762	2121.598	2120.005
166.950	17.890	2120.155	2119.899
167.964	17.920	2117.873	2117.739
168.979	17.982	2115.219	2115.610
169.994	17.772	2114.367	2111.886
171.008	17.715	2113.363	2109.926
172.023	17.876	2112.147	2110.462
173.037	17.920	2110.988	2109.590
174.052	17.932	2109.719	2108.226
175.067	18.066	2108.178	2108.093
176.081	17.995	2106.923	2105.700
177.096	18.015	2105.149	2103.928
178.110	18.034	2103.402	2102.163
179.125	18.073	2102.199	2101.185
180.140	17.915	2100.877	2097.665
181.154	17.928	2099.683	2096.381
182.169	18.123	2099.212	2098.068
183.183	18.764	2101.999	2108.514
184.198	21.596	2107.142	2148.404
185.213	22.052	2104.922	2151.504
186.227	19.323	2095.338	2107.946
187.242	18.197	2091.166	2089.688
188.256	18.022	2089.086	2085.209
189.271	17.772	2087.157	2079.973
190.286	17.710	2085.969	2077.780
191.300	17.914	2083.148	2077.216
192.315	17.861	2081.939	2075.106
193.329	18.087	2080.914	2076.597
194.344	18.192	2080.437	2077.162
195.359	18.178	2079.395	2075.701
196.373	18.180	2076.112	2072.203
197.388	17.895	2074.568	2066.938
198.402	17.835	2072.527	2063.935
199.417	17.737	2069.499	2059.483
200.432	17.773	2067.638	2057.815
201.446	17.678	2066.921	2055.702
202.461	17.735	2065.014	2054.252
203.475	17.567	2063.280	2050.253
204.490	17.535	2061.490	2047.833
205.504	17.673	2058.491	2046.280
206.519	17.627	2056.066	2043.069
207.534	17.568	2054.375	2040.435
208.548	17.410	2052.753	2036.674
209.563	17.397	2052.592	2036.118
210.577	17.368	2051.951	2034.892
211.592	17.520	2050.311	2034.848
212.607	18.877	2055.253	2055.828
213.621	22.077	2063.094	2101.981
214.636	21.554	2056.614	2088.861
215.650	18.483	2046.939	2042.059
216.665	17.606	2042.784	2027.185
217.680	17.591	2041.226	2025.221
218.694	17.426	2039.216	2021.013
219.709	17.427	2038.235	2019.815
220.723	17.593	2037.440	2020.762
221.738	17.659	2035.724	2019.610
222.753	17.854	2033.600	2019.575
223.767	17.807	2032.627	2017.814
224.782	17.867	2031.665	2017.322
225.796	18.027	2031.169	2018.495
226.811	18.081	2028.939	2016.671
227.826	17.917	2027.365	2012.931
228.840	17.905	2025.458	2010.649
229.855	17.754	2024.865	2008.027
230.869	17.945	2022.485	2007.693
231.884	17.890	2021.357	2005.684
232.899	17.932	2020.283	2004.874
233.913	17.879	2018.961	2002.697
234.928	18.021	2016.800	2001.986
235.942	17.945	2015.017	1999.079
236.957	17.879	2014.006	1997.056
237.972	17.919	2011.885	1995.185
238.986	17.796	2011.172	1992.793
240.001	17.866	2009.872	1992.094
241.015	17.968	2008.621	1991.812
242.030	18.643	2010.769	2001.621
243.045	21.151	2016.103	2036.128
244.059	21.559	2012.398	2036.922
245.074	19.115	2003.980	1999.652
246.088	18.186	2000.827	1985.434
247.103	18.172	1999.713	1983.926
248.117	18.258	1997.133	1982.130
249.132	17.916	1995.531	1976.323
250.147	17.947	1993.893	1974.835
251.161	18.060	1992.181	1974.213
252.176	18.139	1991.654	1974.365
253.190	18.257	1989.687	1973.546
254.205	18.301	1987.273	1971.425
255.220	18.209	1985.797	1968.668
256.234	18.131	1984.839	1966.583
257.249	17.972	1983.425	1963.106
258.263	18.044	1982.669	1962.948
259.278	18.161	1981.031	1962.449
260.293	18.037	1980.187	1959.939
261.307	17.852	1977.950	1955.362
262.322	17.873	1975.012	1952.464
263.336	17.704	1972.783	1948.090
264.351	17.612	1971.004	1945.043
265.366	17.488	1969.909	1942.308
266.380	17.557	1968.763	1941.735
267.395	17.457	1967.400	1939.019
268.409	17.254	1965.233	1934.328
269.424	17.266	1964.079	1933.094
270.439	17.309	1963.579	1932.861
271.453	18.378	1966.688	1947.925
272.468	21.244	1972.270	1986.022
273.482	21.452	1967.365	1983.213
274.497	18.743	1957.758	1942.529
275.512	17.546	1953.599	1924.581
276.526	17.428	1952.496	1921.926
277.541	17.319	1949.965	1917.963
278.555	17.313	1948.556	1916.287
279.570	17.362	1947.562	1915.627
280.585	17.601	1946.623	1917.185
281.599	17.523	1945.460	1914.926
282.614	17.794	1944.369	1916.685
283.628	18.000	1944.022	1918.435
284.643	18.159	1942.588	1918.582
285.657	18.295	1941.833	1919.147
286.672	18.422	1939.351	1917.885
287.687	18.216	1938.817	1914.818
288.701	18.091	1937.296	1911.676
289.716	18.027	1935.615	1909.074
290.730	18.191	1934.260	1909.351
291.745	18.313	1933.357	1909.592
292.760	18.179	1932.214	1906.738
293.774	18.059	1931.410	1904.371
294.789	18.042	1929.111	1901.682
295.803	18.009	1927.428	1899.428
296.818	18.067	1926.010	1898.449
297.833	18.033	1923.865	1895.731
298.847	18.054	1922.572	1894.466
299.862	18.149	1921.444	1894.186
300.876	18.804	1923.323	1903.106
301.891	21.628	1929.227	1940.213
302.906	21.923	1926.829	1940.851
303.920	19.013	1918.854	1900.321
304.935	18.157	1914.599	1886.399
305.949	18.054	1913.133	1883.579
306.964	17.929	1910.954	1879.828
307.979	17.935	1909.845	1878.580
308.993	18.076	1908.242	1878.331
310.008	18.336	1906.423	1879.194
311.022	18.456	1905.000	1878.884
312.037	18.128	1903.738	1873.806
313.052	18.236	1902.399	1873.444
314.066	18.621	1900.905	1875.989
315.081	18.534	1899.795	1873.714
316.095	18.327	1898.396	1869.838
317.110	18.075	1895.984	1864.476
318.125	17.941	1895.202	1862.012
319.139	18.037	1893.300	1860.975
320.154	18.160	1891.758	1860.576
321.168	17.992	1890.265	1857.053
322.183	17.713	1888.439	1851.991
323.197	17.673	1886.794	1849.720
324.212	17.539	1884.400	1845.690
325.227	17.481	1881.877	1842.365
326.241	17.201	1881.378	1838.614
327.256	17.272	1879.411	1837.238
328.270	17.328	1878.467	1836.703
329.285	17.285	1878.754	1836.296
330.300	18.374	1882.617	1851.697
331.314	21.428	1888.858	1890.856
332.329	21.500	1883.526	1886.072
333.343	18.424	1874.436	1843.525
334.358	17.408	1870.232	1828.207
335.373	17.354	1868.284	1825.496
336.387	17.113	1867.301	1821.717
337.402	17.152	1866.253	1820.904
338.416	17.456	1864.551	1822.297
339.431	17.573	1864.128	1822.917
340.446	17.664	1861.297	1820.913
341.460	17.834	1860.799	1822.028
342.475	18.020	1859.604	1822.637
343.489	18.077	1858.679	1822.124
344.504	18.188	1857.158	1821.599
345.519	18.243	1856.568	1821.394
346.533	18.403	1855.683	1822.016
347.548	18.909	1855.337	1826.873
348.562	19.450	1855.841	1832.921
349.577	19.363	1853.783	1829.739
350.592	18.718	1850.342	1819.263
351.606	18.317	1849.708	1814.152
352.621	18.298	1847.363	1811.430
353.635	18.052	1845.685	1806.956
354.650	17.856	1844.798	1803.786
355.665	17.851	1842.843	1801.609
356.679	18.025	1841.903	1802.312
357.694	17.931	1840.041	1799.287
358.708	17.893	1838.857	1797.513
359.723	19.106	1843.048	1814.251
360.738	22.035	1847.640	1849.611
361.752	21.460	1842.482	1838.155
362.767	19.053	1835.005	1805.119
363.781	18.336	1831.512	1793.925
364.796	17.986	1830.025	1788.573
365.810	17.828	1828.328	1785.032
366.825	17.843	1826.071	1782.776
367.840	17.854	1826.225	1782.824
368.854	17.967	1825.037	1782.639
369.869	18.010	1823.959	1781.821
370.883	18.748	1823.715	1789.104
371.898	19.153	1823.531	1792.950
372.913	18.561	1820.785	1783.845
373.927	18.461	1819.716	1781.547
374.942	18.493	1819.408	1781.364
375.956	18.715	1816.986	1781.096
376.971	18.333	1815.073	1775.019
377.986	17.978	1812.793	1768.886
379.000	17.844	1810.913	1765.449
380.015	17.963	1809.123	1764.723
381.029	17.797	1807.531	1761.241
382.044	17.537	1805.892	1756.733
383.059	17.536	1804.118	1754.790
384.073	17.427	1802.671	1752.046
385.088	17.400	1802.162	1751.064
386.102	17.346	1800.446	1748.630
387.117	17.315	1798.672	1746.373
388.132	17.300	1798.361	1745.704
389.146	18.345	1802.588	1760.406
390.161	21.526	1807.138	1797.535
391.175	21.399	1799.185	1788.104
392.190	18.484	1790.996	1749.888
393.205	17.635	1788.383	1738.421
394.219	17.535	1786.715	1735.560
395.234	17.443	1785.023	1732.771
396.248	17.448	1783.604	1731.243
397.263	17.270	1781.792	1727.458
398.278	17.628	1780.496	1729.645
399.292	17.605	1780.033	1728.750
400.307	17.578	1779.023	1727.286
401.321	17.904	1777.746	1729.161
402.336	17.880	1777.298	1728.271
403.350	17.909	1776.129	1727.224
404.365	18.371	1775.552	1731.154
405.380	18.582	1774.911	1732.464
406.394	18.549	1773.766	1730.808
407.409	18.563	1772.115	1729.127
408.423	18.478	1770.459	1726.444
409.438	18.547	1768.262	1724.792
410.453	18.419	1767.574	1722.622
411.467	18.325	1765.780	1719.720
412.482	18.094	1764.378	1715.820
413.496	17.840	1763.280	1711.980
414.511	17.906	1761.592	1710.805
415.526	18.021	1759.114	1709.351
416.540	17.943	1757.527	1706.820
417.555	17.978	1756.933	1706.386
418.569	18.405	1756.845	1710.383
419.584	18.317	1757.209	1709.651
420.599	18.186	1756.629	1707.570
421.613	18.145	1754.867	1705.240
422.628	18.073	1753.297	1702.788
423.642	17.971	1751.792	1700.099
424.657	17.940	1750.391	1698.231
425.672	18.152	1748.875	1698.677
426.686	18.196	1747.990	1698.047
427.701	18.301	1746.176	1697.131
428.715	18.424	1744.621	1696.636
429.730	18.334	1743.872	1694.816
430.745	18.314	1741.965	1692.563
431.759	18.325	1741.277	1691.801
432.774	18.413	1742.077	1693.244
433.788	18.720	1741.238	1695.277
434.803	18.890	1740.887	1696.415
435.818	18.806	1740.119	1694.631
436.832	18.865	1739.716	1694.623
437.847	17.906	1733.041	1678.448
438.861	10.178	1712.141	1582.288
439.876	2.004	1695.818	1487.172
440.890	0.369	1692.479	1468.068
441.905	0.180	1691.800	1465.460
442.920	0.054	1690.784	1463.167
443.934	0.142	1688.625	1461.983
444.949	0.182	1687.142	1460.915
445.963	0.104	1687.117	1459.960
446.978	0.201	1686.571	1460.262
447.993	0.186	1684.300	1457.966
449.007	0.216	1682.631	1456.641
450.022	0.223	1680.833	1454.977
451.036	0.261	1679.314	1453.855
452.051	1.215	1683.918	1466.947
453.066	9.205	1702.027	1560.806
454.080	17.221	1714.640	1650.752
455.095	18.808	1716.908	1668.249
456.109	19.307	1716.855	1672.861
457.124	19.571	1715.417	1673.832
458.139	19.834	1714.733	1675.531
459.153	19.786	1714.646	1674.773
460.168	19.881	1712.608	1673.506
461.182	19.841	1711.752	1672.083
462.197	19.795	1709.057	1668.800
463.212	19.627	1707.497	1665.455
464.226	19.723	1706.927	1665.632
465.241	19.784	1705.980	1665.092
466.255	19.979	1704.843	1665.673
467.270	20.035	1703.504	1664.701
468.285	19.670	1701.793	1659.315
469.299	19.618	1700.721	1657.566
470.314	19.846	1698.314	1657.216
471.328	19.814	1697.560	1655.972
472.343	19.752	1697.408	1655.029
473.358	19.891	1696.116	1654.905
474.372	19.857	1694.282	1652.595
475.387	19.645	1692.785	1648.907
476.401	19.474	1690.893	1645.230
477.416	19.590	1690.003	1645.271
478.430	19.655	1688.659	1644.392
479.445	19.429	1687.526	1640.933
480.460	19.472	1685.871	1639.534
481.474	19.451	1684.950	1638.238
482.489	19.709	1684.712	1640.273
483.503	20.018	1682.753	1641.119
484.518	20.025	1681.814	1640.069
485.533	19.911	1680.664	1637.665
486.547	19.838	1678.452	1634.622
487.562	20.023	1678.392	1636.123
488.576	19.995	1676.900	1634.208
489.591	19.981	1675.349	1632.373
490.606	19.865	1673.960	1629.720
491.620	19.997	1672.093	1628.959
492.635	20.319	1670.698	1630.444
493.649	20.303	1670.060	1629.476
494.664	19.996	1668.374	1624.739
495.679	19.610	1665.899	1618.506
496.693	19.694	1665.459	1618.673
497.708	19.836	1665.327	1619.691
498.722	20.093	1664.018	1620.633
499.737	20.249	1662.401	1620.332
500.752	20.008	1660.984	1616.494
501.766	19.922	1658.804	1613.372
502.781	20.020	1657.467	1612.798
503.795	20.003	1656.255	1611.263
504.810	20.085	1655.165	1610.779
505.825	20.241	1655.362	1612.239
506.839	20.242	1653.664	1610.399
507.854	20.183	1651.854	1607.893
508.868	20.214	1651.351	1607.497
509.883	20.185	1650.120	1605.837
510.898	20.455	1648.756	1606.828
511.912	20.124	1647.412	1602.256
512.927	19.878	1645.397	1597.817
513.941	19.988	1643.722	1597.020
514.956	19.860	1641.814	1593.788
515.971	19.858	1640.384	1592.193
516.985	19.892	1639.614	1591.574
518.000	20.052	1639.553	1592.802
519.014	20.285	1638.693	1593.928
520.029	20.410	1637.566	1593.794
521.043	20.314	1635.958	1591.149
522.058	20.352	1634.719	1590.101
523.073	20.518	1634.261	1590.995
524.087	20.734	1634.186	1592.717
525.102	20.509	1632.215	1588.540
526.116	20.285	1629.996	1584.131
527.131	20.117	1629.834	1582.245
528.146	20.517	1628.876	1584.792
529.160	20.621	1627.843	1584.556
530.175	20.509	1626.889	1582.411
531.189	20.699	1625.773	1582.874
532.204	20.856	1623.842	1582.233
533.219	20.419	1622.024	1576.288
534.233	20.134	1621.417	1572.915
535.248	20.380	1620.883	1574.448
536.262	20.691	1620.372	1576.594
537.277	20.656	1618.954	1574.708
538.292	20.288	1616.847	1569.128
539.306	20.339	1614.874	1567.492
540.321	20.229	1613.425	1564.893
541.335	20.279	1611.637	1563.430
542.350	20.276	1611.132	1562.722
543.365	20.580	1609.380	1563.588
544.379	20.610	1608.919	1563.223
545.394	20.651	1608.173	1562.678
546.408	20.427	1605.153	1557.535
547.423	20.042	1604.191	1552.948
548.438	20.050	1602.889	1551.578
549.452	20.343	1602.213	1553.374
550.467	20.486	1601.295	1553.582
551.481	20.488	1599.820	1551.984
552.496	20.615	1600.273	1553.376
553.511	20.787	1599.980	1554.452
554.525	20.839	1598.199	1553.000
555.540	20.862	1597.731	1552.567
556.554	21.043	1596.060	1552.375
557.569	20.953	1594.098	1549.472
558.583	20.792	1592.261	1546.072
559.598	20.644	1591.572	1543.895
560.613	20.694	1590.551	1543.166
561.627	20.631	1589.520	1541.423
562.642	20.901	1588.409	1542.560
563.656	21.189	1587.278	1543.836
564.671	21.149	1585.681	1541.746
565.686	20.964	1584.654	1538.922
566.700	20.841	1582.710	1535.759
567.715	20.598	1580.700	1531.468
568.729	20.450	1578.951	1528.284
569.744	20.244	1577.347	1524.729
570.759	20.274	1576.055	1523.561
571.773	20.447	1575.847	1524.710
572.788	20.619	1575.044	1525.263
573.802	20.748	1574.088	1525.287
574.817	20.890	1573.092	1525.391
575.832	21.218	1572.214	1527.240
576.846	21.153	1570.595	1524.916
577.861	20.935	1569.763	1522.012
578.875	20.911	1569.249	1521.124
579.890	21.280	1568.815	1523.752
580.905	21.212	1566.961	1521.179
581.919	21.287	1566.593	1521.293
582.934	21.451	1565.735	1521.710
583.948	21.302	1564.580	1519.107
584.963	21.230	1563.172	1516.927
585.978	20.986	1561.571	1513.062
586.992	21.120	1560.327	1512.842
588.007	21.274	1559.606	1513.311
589.021	20.816	1556.446	1506.083
590.036	20.364	1555.060	1500.633
591.051	20.510	1554.952	1501.619
592.065	20.837	1553.878	1503.239
593.080	21.078	1552.167	1503.488
594.094	21.151	1550.548	1502.372
595.109	20.760	1548.714	1497.039
596.123	20.503	1547.474	1493.442
597.138	20.848	1547.647	1496.406
598.153	21.131	1545.946	1497.025
599.167	21.195	1544.438	1495.939
600.182	21.306	1543.660	1495.957
601.196	21.329	1543.322	1495.652
602.211	21.206	1542.430	1493.549
603.226	21.384	1541.376	1493.879
604.240	21.520	1539.823	1493.364
605.255	21.728	1538.172	1493.363
606.269	21.561	1537.355	1490.963
607.284	21.452	1536.857	1489.366
608.299	21.584	1534.796	1488.321
609.313	21.412	1532.635	1484.577
610.328	21.320	1532.533	1483.518
611.342	21.357	1531.480	1482.637
612.357	21.595	1530.915	1483.940
613.372	21.758	1528.908	1483.198
614.386	21.611	1527.756	1480.659
615.401	21.477	1528.197	1479.772
616.415	21.706	1527.251	1480.622
617.430	21.596	1526.467	1478.753
618.445	21.740	1525.361	1478.723
619.459	21.566	1523.581	1475.349
620.474	21.251	1521.603	1470.585
621.488	20.779	1518.752	1463.668
622.503	20.470	1518.232	1460.380
623.518	20.972	1518.718	1464.917
624.532	21.420	1517.166	1467.027
625.547	21.641	1516.680	1468.244
626.561	21.894	1516.554	1470.077
627.576	21.980	1515.661	1469.753
628.591	21.412	1512.388	1461.638
629.605	20.960	1511.404	1456.713
630.620	20.756	1509.465	1452.956
631.634	20.547	1507.767	1449.400
632.649	20.795	1506.553	1450.135
633.663	21.147	1506.291	1452.654
634.678	21.527	1505.983	1455.357
635.693	21.867	1504.656	1456.746
636.707	21.933	1503.839	1456.331
637.722	22.221	1503.676	1458.399
638.736	22.030	1502.737	1455.721
639.751	22.141	1501.619	1455.387
640.766	22.086	1499.770	1452.968
641.780	22.136	1497.858	1451.356
642.795	21.959	1497.490	1449.351
643.809	22.016	1497.026	1449.202
644.824	22.107	1495.835	1448.633
645.839	21.949	1494.434	1445.796
646.853	21.872	1493.652	1444.226
647.868	21.844	1492.327	1442.537
648.882	21.783	1490.812	1440.403
649.897	21.738	1489.735	1438.818
650.912	21.816	1487.839	1437.451
651.926	21.760	1486.570	1435.597
652.941	21.424	1484.708	1430.866
653.955	21.205	1482.419	1426.687
654.970	20.833	1480.220	1421.349
655.985	20.814	1478.716	1419.584
656.999	20.935	1477.871	1419.594
658.014	21.145	1477.652	1420.924
659.028	21.439	1476.983	1422.520
660.043	21.573	1476.703	1423.174
661.058	21.899	1475.412	1424.422
662.072	21.854	1475.103	1423.581
663.087	21.842	1474.165	1422.411
664.101	21.874	1472.996	1421.372
665.116	21.968	1472.274	1421.268
666.131	21.955	1471.353	1420.104
667.145	21.930	1470.654	1419.058
668.160	22.237	1469.440	1420.214
669.174	22.377	1467.812	1419.606
670.189	22.252	1466.549	1417.194
671.204	22.071	1465.637	1414.678
672.218	21.955	1464.877	1412.844
673.233	22.322	1462.956	1413.786
674.247	22.509	1462.296	1414.485
675.262	22.576	1462.079	1414.650
676.276	22.492	1460.661	1412.432
677.291	22.342	1459.590	1410.014
678.306	22.206	1457.734	1406.960
679.320	21.951	1457.808	1404.808
680.335	22.256	1456.875	1406.193
681.349	22.597	1456.224	1408.137
682.364	22.379	1455.275	1405.305
683.379	22.440	1453.193	1403.612
684.393	22.194	1452.172	1400.490
685.408	22.509	1451.399	1402.093
686.422	22.180	1450.628	1398.549
687.437	22.239	1450.625	1398.857
688.452	22.576	1449.189	1399.995
689.466	22.484	1447.395	1397.357
690.481	22.252	1445.449	1393.465
691.495	21.743	1444.819	1388.641
692.510	21.168	1442.173	1381.359
693.525	20.955	1439.627	1377.063
694.539	21.181	1439.596	1378.660
695.554	21.858	1440.594	1384.829
696.568	22.393	1440.257	1388.580
697.583	22.397	1439.738	1387.946
698.598	22.634	1438.462	1388.423
699.612	22.725	1437.220	1387.779
700.627	22.635	1435.949	1385.679
701.641	22.689	1434.543	1384.578
702.656	22.524	1433.942	1382.534
703.671	22.765	1433.802	1384.133
704.685	22.794	1432.981	1383.398
705.700	22.620	1431.292	1380.234
706.714	22.466	1429.592	1377.218
707.729	22.358	1427.579	1374.272
708.744	22.250	1426.122	1371.859
709.758	21.962	1425.318	1368.665
710.773	21.629	1423.174	1363.837
711.787	21.458	1421.535	1360.765
712.802	21.771	1420.439	1361.997
713.816	21.992	1420.221	1363.344
714.831	22.198	1420.392	1364.957
715.846	22.397	1419.309	1365.303
716.860	22.429	1417.929	1364.066
717.875	22.501	1416.800	1363.373
718.889	22.491	1415.947	1362.315
719.904	22.440	1415.251	1361.083
720.919	22.671	1413.588	1361.115
721.933	22.786	1413.336	1361.598
722.948	22.849	1412.424	1361.045
723.962	22.711	1411.505	1358.926
724.977	22.874	1410.549	1359.104
725.992	22.910	1409.126	1357.853
727.006	22.860	1407.556	1355.787
728.021	22.952	1406.544	1355.359
729.035	22.881	1405.665	1353.807
730.050	22.968	1404.194	1352.895
731.065	22.877	1403.143	1351.025
732.079	22.947	1403.136	1351.389
733.094	22.987	1401.510	1349.974
734.108	22.911	1399.053	1346.858
735.123	22.797	1397.966	1344.781
736.138	22.860	1397.186	1344.350
737.152	22.931	1396.347	1343.929
738.167	22.980	1395.475	1343.297
739.181	23.005	1395.294	1343.152
740.196	23.065	1394.407	1342.600
741.211	22.958	1393.547	1340.794
742.225	22.949	1392.383	1339.449
743.240	22.941	1391.160	1338.049
744.254	22.931	1389.659	1336.370
745.269	22.936	1388.153	1334.795
746.284	22.983	1387.338	1334.215
747.298	22.501	1386.747	1329.827
748.313	22.252	1384.495	1325.618
749.327	21.823	1382.952	1320.736
750.342	21.451	1381.415	1316.302
751.356	21.042	1379.740	1311.451
752.371	21.430	1379.349	1313.859
753.386	22.200	1379.614	1319.762
754.400	22.714	1379.470	1323.344
755.415	22.972	1378.788	1324.476
756.429	23.053	1377.687	1323.872
757.444	22.858	1376.819	1321.408
758.459	22.948	1375.933	1321.077
759.473	23.247	1375.020	1322.293
760.488	23.218	1373.695	1320.636
761.502	23.189	1371.966	1318.602
762.517	23.065	1371.086	1316.668
763.532	22.818	1368.482	1312.166
764.546	22.565	1367.285	1308.976
765.561	22.140	1365.967	1304.386
766.575	21.548	1364.236	1298.165
767.590	21.483	1363.845	1297.153
768.605	21.955	1363.743	1300.414
769.619	22.387	1362.661	1302.439
770.634	22.678	1362.283	1304.087
771.648	23.033	1361.425	1305.747
772.663	23.279	1360.543	1306.567
773.678	23.260	1360.498	1306.228
774.692	23.227	1359.596	1304.961
775.707	23.212	1359.413	1304.518
776.721	23.307	1357.851	1303.569
777.736	23.195	1356.754	1301.527
778.751	23.310	1355.682	1301.192
779.765	23.360	1354.647	1300.412
780.780	23.161	1354.558	1298.703
781.794	23.117	1353.257	1296.975
782.809	23.031	1351.627	1294.630
783.824	23.035	1349.759	1292.715
784.838	22.506	1347.254	1286.279
785.853	21.711	1346.284	1279.367
786.867	21.864	1346.364	1280.409
787.882	22.269	1345.955	1282.835
788.897	22.666	1345.142	1284.818
789.911	22.798	1344.645	1285.154
790.926	22.934	1343.547	1284.943
791.940	23.011	1341.771	1283.654
792.955	23.175	1341.102	1284.057
793.969	23.251	1340.920	1284.286
794.984	23.187	1339.716	1282.513
795.999	23.238	1339.422	1282.446
797.013	23.381	1336.686	1280.711
798.028	23.369	1335.502	1279.340
799.042	23.416	1335.791	1279.802
800.057	23.469	1334.072	1278.391
801.072	23.493	1332.909	1277.297
802.086	23.397	1331.922	1275.502
803.101	23.475	1331.201	1275.223
804.115	23.541	1329.676	1274.087
805.130	23.435	1328.585	1272.122
806.145	23.317	1327.615	1270.189
807.159	23.388	1326.389	1269.380
808.174	23.225	1324.746	1266.479
809.188	23.078	1323.211	1263.809
810.203	22.870	1320.937	1259.989
811.218	22.502	1318.944	1255.302
812.232	22.078	1317.277	1250.533
813.247	21.906	1316.030	1247.969
814.261	22.378	1317.305	1252.405
815.276	22.918	1316.881	1255.713
816.291	23.128	1316.258	1256.465
817.305	23.450	1315.318	1257.713
818.320	23.290	1314.630	1255.770
819.334	23.282	1313.871	1254.838
820.349	23.504	1311.699	1254.190
821.364	23.526	1309.951	1252.524
822.378	23.529	1308.959	1251.449
823.393	23.465	1307.413	1249.365
824.407	23.555	1306.554	1249.033
825.422	23.393	1306.496	1247.682
826.437	23.473	1304.474	1246.167
827.451	22.896	1302.785	1240.332
828.466	22.294	1300.201	1233.485
829.480	22.108	1298.312	1230.236
830.495	22.409	1297.303	1231.247
831.509	22.852	1297.119	1234.034
832.524	23.096	1297.321	1235.794
833.539	23.284	1296.204	1235.899
834.553	23.540	1294.980	1236.380
835.568	23.496	1293.921	1234.915
836.582	23.449	1293.629	1234.161
837.597	23.523	1291.830	1232.814
838.612	23.577	1289.884	1231.181
839.626	23.319	1288.443	1227.864
840.641	23.020	1287.729	1224.956
841.655	22.671	1286.267	1220.988
842.670	22.201	1283.990	1215.413
843.685	21.705	1283.071	1210.957
844.699	22.336	1283.253	1215.361
845.714	22.762	1282.195	1217.172
846.728	23.149	1281.406	1218.956
847.743	23.292	1281.536	1219.925
848.758	23.479	1279.924	1219.538
849.772	23.594	1279.060	1219.364
850.787	23.509	1277.734	1217.365
851.801	23.472	1276.768	1216.047
852.816	23.546	1274.639	1214.382
853.831	23.372	1273.368	1211.825
854.845	23.421	1271.540	1210.280
855.860	23.063	1270.244	1206.448
856.874	22.904	1269.341	1204.354
857.889	22.714	1267.151	1200.832
858.904	22.144	1265.360	1195.097
859.918	22.091	1263.191	1192.543
860.933	21.695	1261.512	1188.119
861.947	22.143	1262.059	1191.541
862.962	22.647	1260.856	1193.693
863.977	22.778	1260.101	1193.730
864.991	23.085	1260.035	1195.610
866.006	23.174	1259.908	1195.952
867.020	23.299	1258.596	1195.409
868.035	23.437	1257.346	1195.012
869.049	23.543	1257.033	1195.293
870.064	23.562	1255.568	1193.887
871.079	23.614	1254.786	1193.348
872.093	23.423	1254.606	1191.748
873.108	23.542	1252.913	1190.795
874.122	23.144	1250.875	1186.039
875.137	22.507	1250.329	1181.086
876.152	22.582	1248.857	1180.058
877.166	22.729	1247.607	1179.728
878.181	23.210	1246.572	1181.835
879.195	23.303	1246.524	1182.270
880.210	23.535	1246.219	1183.396
881.225	23.467	1244.784	1181.435
882.239	23.475	1244.340	1180.928
883.254	23.713	1243.053	1181.154
884.268	23.606	1242.403	1179.683
885.283	23.511	1241.594	1178.138
886.298	23.360	1239.990	1175.468
887.312	23.556	1239.266	1175.948
888.327	23.552	1237.603	1174.202
889.341	23.750	1236.351	1174.191
890.356	23.461	1235.875	1171.676
891.371	23.375	1235.571	1170.675
892.385	23.280	1234.819	1169.197
893.400	23.034	1234.074	1166.720
894.414	22.934	1231.829	1163.793
895.429	22.627	1229.141	1159.084
896.444	22.042	1226.320	1152.431
897.458	21.449	1224.977	1147.118
898.473	22.063	1225.432	1151.458
899.487	22.351	1226.360	1154.093
900.502	23.036	1225.511	1157.661
901.517	23.242	1224.455	1157.884
902.531	23.373	1223.564	1157.761
903.546	23.483	1223.136	1157.941
904.560	23.428	1221.980	1156.348
905.575	23.600	1221.145	1156.548
906.589	23.546	1220.375	1155.322
907.604	23.547	1219.495	1154.358
