DTS Sentinel unit serial number:	SN409020Multiplexer serial number:	ORYXHardware model number:	OX4-SRSoftware version number:	ORYX F/W v3.00 Oryx Data Collector v3.7.2.0data status	okinstallation	HaddamTimeLapsedifferential loss correction	single-endedforward channel	channel 3reverse channel	N/Adate	2011/06/21time	15:46:17forward acquisition time	30.00reverse acquisition time	0.00gamma	498.7831k internal	0.1806k external	0.1806temperature offset calibration	1.0074default loss term (dB/km)	0.3790temperature slope calibration	1.3530multiplexer offset coefficient	1.0000multiplexer slope coefficient	1.0000fibre end	0.00T internal ref (°C)	36.56T ext. ref 1 (°C)	27.74T ext. ref 2 (°C)	0.23length (m)	temperature (°C)	Stokes	anti-Stokes-747.200	-46.455	-0.371	-0.234
-746.185	800.000	-0.146	0.829
-745.171	-67.761	-0.332	-0.166
-744.156	291.273	-0.043	0.100
-743.142	-165.555	-0.543	0.030
-742.127	-36.555	-0.467	0.322
-741.112	295.069	0.165	0.390
-740.098	-200.000	0.086	0.838
-739.083	206.871	0.155	-0.313
-738.069	-120.298	0.194	-0.042
-737.054	-97.772	-0.189	-0.062
-736.039	10.942	0.047	0.046
-735.025	164.104	-0.195	-0.354
-734.010	149.719	-0.187	0.327
-732.996	102.901	0.252	-0.381
-731.981	722.988	0.044	0.152
-730.966	362.729	-0.053	-0.139
-729.952	311.382	0.115	-0.278
-728.937	-30.132	-0.252	0.184
-727.923	6.230	-0.219	-0.209
-726.908	-35.592	0.324	0.226
-725.894	-136.146	0.380	0.057
-724.879	375.300	-0.069	-0.182
-723.864	-36.491	-0.049	0.034
-722.850	800.000	0.075	0.406
-721.835	800.000	0.136	-0.702
-720.821	800.000	-0.077	-0.281
-719.806	109.017	0.114	0.176
-718.791	-49.648	0.320	0.195
-717.777	47.566	-0.144	-0.173
-716.762	-133.827	0.293	-0.046
-715.748	800.000	0.082	-0.449
-714.733	800.000	-0.052	0.274
-713.718	158.161	0.180	-0.322
-712.704	-116.935	-0.261	-0.061
-711.689	175.725	-0.077	0.144
-710.675	-186.969	-0.264	0.005
-709.660	34.795	0.687	0.773
-708.645	800.000	-0.046	0.217
-707.631	79.567	0.294	0.406
-706.616	-155.773	0.569	0.046
-705.602	722.693	-0.029	0.099
-704.587	-44.474	-0.362	-0.232
-703.572	-157.608	-0.495	0.038
-702.558	20.549	0.324	-0.337
-701.543	240.887	-0.179	-0.384
-700.529	800.000	-0.048	-0.224
-699.514	-200.000	0.009	-0.740
-698.499	117.267	-0.266	-0.422
-697.485	-12.234	0.484	-0.406
-696.470	160.435	0.266	-0.477
-695.456	-77.442	0.128	0.057
-694.441	20.846	0.445	-0.463
-693.426	2.687	0.208	0.193
-692.412	445.154	0.050	0.142
-691.397	-117.546	0.218	0.050
-690.383	70.724	0.052	-0.070
-689.368	397.358	0.046	-0.125
-688.354	-154.302	0.386	0.033
-687.339	-200.000	0.043	-0.714
-686.324	-101.476	-0.048	-0.015
-685.310	-88.574	-0.387	0.147
-684.295	-200.000	-0.000	0.018
-683.281	106.793	-0.209	0.319
-682.266	-84.705	0.181	0.073
-681.251	800.000	0.014	-0.076
-680.237	-136.553	-0.736	-0.108
-679.222	-200.000	-0.040	0.278
-678.208	-98.596	0.030	0.010
-677.193	-20.060	0.176	-0.139
-676.178	-58.304	0.174	-0.097
-675.164	74.370	-0.372	-0.502
-674.149	129.096	0.124	0.203
-673.135	-86.018	-0.135	-0.053
-672.120	207.618	0.199	0.399
-671.105	390.459	-0.212	0.568
-670.091	-78.213	-0.408	-0.179
-669.076	-200.000	-0.039	0.284
-668.062	-112.791	-0.394	-0.100
-667.047	-200.000	0.003	-0.133
-666.032	-121.844	0.113	-0.024
-665.018	-75.112	0.437	0.200
-664.003	-200.000	0.015	0.683
-662.989	-64.585	-0.273	-0.141
-661.974	71.910	-0.173	-0.231
-660.959	-73.137	-0.139	0.065
-659.945	-15.312	-0.145	-0.119
-658.930	-200.000	0.021	-0.213
-657.916	-80.508	0.310	0.132
-656.901	91.719	0.248	-0.359
-655.886	-15.292	-0.091	-0.075
-654.872	110.501	0.263	-0.406
-653.857	-17.081	-0.015	0.012
-652.843	-50.330	-0.389	0.235
-651.828	-200.000	-0.002	0.137
-650.814	138.814	-0.066	-0.111
-649.799	191.832	0.109	-0.211
-648.784	474.172	-0.152	0.442
-647.770	800.000	-0.054	0.236
-646.755	-177.102	-0.366	0.012
-645.741	-7.568	0.169	-0.147
-644.726	-1.944	-0.225	0.203
-643.711	-87.137	-0.138	-0.053
-642.697	66.284	0.133	0.174
-641.682	-183.790	-0.201	-0.004
-640.668	-200.000	0.028	0.503
-639.653	-130.989	-0.020	-0.003
-638.638	-148.971	-0.142	0.014
-637.624	-155.672	-0.207	-0.017
-636.609	-54.660	-0.045	0.026
-635.595	-200.000	-0.006	-0.338
-634.580	-168.826	0.322	-0.015
-633.565	-104.227	-0.776	0.229
-632.551	-129.911	-0.347	-0.060
-631.536	164.231	0.253	-0.458
-630.522	-200.000	-0.062	-0.578
-629.507	-114.967	-0.425	-0.103
-628.492	-5.583	-0.257	-0.226
-627.478	-139.625	-0.250	-0.034
-626.463	1.142	0.181	0.167
-625.449	-55.307	-0.202	-0.116
-624.434	-111.451	-0.429	-0.111
-623.419	-3.398	0.748	-0.666
-622.405	800.000	-0.062	-0.231
-621.390	93.274	-0.094	0.137
-620.376	335.564	-0.050	-0.125
-619.361	-200.000	0.002	0.068
-618.346	-18.999	-0.176	-0.140
-617.332	694.307	-0.057	0.193
-616.317	-119.887	-0.222	0.048
-615.303	800.000	-0.115	-0.425
-614.288	-103.587	0.418	0.125
-613.273	-40.662	0.094	0.062
-612.259	176.339	0.171	0.319
-611.244	-3.678	0.532	0.474
-610.230	9.892	-0.135	0.131
-609.215	4.930	0.147	-0.138
-608.201	128.654	-0.081	0.133
-607.186	112.098	-0.135	0.209
-606.171	139.086	-0.141	0.238
-605.157	-141.046	-0.163	-0.021
-604.142	463.251	0.126	0.362
-603.128	157.192	-0.070	-0.125
-602.113	96.071	0.266	-0.389
-601.098	-71.305	-0.146	-0.070
-600.084	-48.565	0.201	0.123
-599.069	-200.000	-0.026	-0.295
-598.055	-107.546	0.070	-0.019
-597.040	-93.245	-0.373	0.132
-596.025	-52.800	0.215	0.126
-595.011	-200.000	0.007	-0.562
-593.996	800.000	-0.101	-0.376
-592.982	32.058	0.110	-0.121
-591.967	-107.196	-0.085	-0.024
-590.952	139.716	0.283	0.478
-589.938	-99.618	0.262	0.084
-588.923	-68.835	-0.174	0.085
-587.909	139.761	0.122	-0.205
-586.894	-200.000	0.014	0.252
-585.879	-131.124	0.198	-0.033
-584.865	-28.733	0.585	-0.430
-583.850	-200.000	-0.025	-0.369
-582.836	800.000	0.149	-0.606
-581.821	176.600	-0.061	-0.115
-580.806	800.000	-0.114	-0.446
-579.792	329.250	-0.007	0.018
-578.777	33.178	-0.135	-0.150
-577.763	-29.440	-0.159	-0.116
-576.748	-59.685	-0.146	-0.080
-575.733	-137.649	-0.236	-0.034
-574.719	-200.000	-0.037	-0.228
-573.704	64.252	-0.348	-0.449
-572.690	67.252	0.070	-0.091
-571.675	-195.916	0.260	-0.002
-570.661	5.526	0.017	-0.016
-569.646	344.399	-0.178	-0.448
-568.631	422.227	-0.099	-0.273
-567.617	-102.353	-0.251	0.077
-566.602	41.758	-0.134	0.156
-565.588	-119.581	0.150	-0.033
-564.573	55.547	0.173	0.214
-563.558	69.087	-0.206	0.271
-562.544	114.246	0.241	0.375
-561.529	-8.379	0.093	-0.080
-560.515	243.386	-0.008	0.016
-559.500	28.656	-0.232	-0.252
-558.485	234.537	-0.059	0.124
-557.471	329.737	-0.196	-0.484
-556.456	183.043	0.214	-0.404
-555.442	-83.666	0.161	-0.065
-554.427	-114.963	-0.143	0.034
-553.412	87.164	0.175	-0.247
-552.398	-200.000	-0.008	-0.340
-551.383	19.876	-0.379	0.390
-550.369	800.000	0.038	-0.155
-549.354	-72.978	-0.445	0.208
-548.339	-200.000	0.009	0.215
-547.325	-111.967	-0.227	-0.058
-546.310	800.000	0.059	-0.284
-545.296	138.812	0.044	0.074
-544.281	-200.000	-0.000	-0.108
-543.266	800.000	-0.079	-0.345
-542.252	-40.724	-0.197	-0.130
-541.237	255.751	0.220	-0.484
-540.223	-102.022	0.353	0.108
-539.208	-177.224	-0.492	-0.015
-538.193	-125.458	0.135	-0.026
-537.179	-1.398	-0.434	-0.391
-536.164	-148.258	-0.480	-0.050
-535.150	-1.195	0.298	0.269
-534.135	800.000	0.124	0.568
-533.121	-73.721	-0.073	-0.034
-532.106	217.919	-0.150	0.307
-531.091	97.353	0.284	0.417
-530.077	-200.000	0.005	0.480
-529.062	48.203	0.110	-0.131
-528.048	-55.088	0.546	0.313
-527.033	23.985	-0.127	0.134
-526.018	-56.849	-0.354	0.199
-525.004	-143.923	0.431	0.051
-523.989	-88.718	-0.555	0.209
-522.975	-155.670	-0.181	-0.015
-521.960	97.551	-0.109	0.160
-520.945	98.132	-0.078	-0.114
-519.931	-172.089	-0.414	0.017
-518.916	-63.512	0.327	-0.171
-517.902	-200.000	-0.052	0.428
-516.887	194.025	0.143	-0.277
-515.872	123.240	0.203	-0.325
-514.858	62.104	-0.175	-0.223
-513.843	-62.159	-0.689	-0.366
-512.829	-59.572	-0.277	-0.151
-511.814	-16.424	-0.110	0.089
-510.799	116.588	0.253	-0.397
-509.785	-200.000	0.045	-0.345
-508.770	-87.222	0.145	0.056
-507.756	-100.656	-0.227	-0.071
-506.741	-68.964	0.321	0.157
-505.726	306.005	-0.084	0.201
-504.712	190.539	-0.180	0.345
-503.697	-52.000	-0.145	-0.086
-502.683	-36.043	0.268	0.185
-501.668	-158.258	-0.321	0.024
-500.653	-162.719	-0.484	-0.030
-499.639	72.047	-0.084	-0.112
-498.624	-89.055	0.299	0.112
-497.610	-200.000	0.394	0.001
-496.595	377.434	-0.159	0.417
-495.581	-11.959	-0.609	-0.508
-494.566	-59.188	-0.180	-0.098
-493.551	-200.000	0.025	0.441
-492.537	314.603	0.109	-0.262
-491.522	-6.171	0.217	0.188
-490.508	-56.954	0.533	-0.299
-489.493	-12.397	-0.102	0.085
-488.478	356.213	0.169	-0.431
-487.464	-111.128	0.271	-0.070
-486.449	-200.000	-0.034	0.356
-485.435	17.272	0.262	0.265
-484.420	-97.044	0.290	0.096
-483.405	-40.966	-0.206	0.135
-482.391	-200.000	-0.023	0.243
-481.376	-41.269	0.365	-0.239
-480.362	169.119	0.142	-0.260
-479.347	102.522	0.279	0.417
-478.332	30.802	0.056	0.061
-477.318	214.451	-0.147	-0.297
-476.303	38.050	-0.277	-0.314
-475.289	-41.706	0.090	0.059
-474.274	-100.938	0.456	0.142
-473.259	483.552	0.136	0.395
-472.245	171.663	0.162	0.297
-471.230	-200.000	0.078	0.505
-470.216	-200.000	-0.100	0.601
-469.201	-200.000	0.048	0.279
-468.186	503.542	0.106	0.315
-467.172	-101.465	0.044	0.013
-466.157	-191.389	-0.339	0.004
-465.143	-68.521	-0.150	-0.074
-464.128	108.558	0.123	-0.187
-463.113	59.229	-0.288	-0.362
-462.099	-119.205	-0.226	-0.050
-461.084	251.633	-0.049	0.106
-460.070	-200.000	-0.065	-0.595
-459.055	211.236	-0.259	-0.520
-458.040	117.545	0.123	0.193
-457.026	-82.058	-0.294	-0.122
-456.011	-93.108	-0.051	0.018
-454.997	89.520	0.252	-0.358
-453.982	-119.125	0.275	0.061
-452.968	-200.000	-0.016	-0.122
-451.953	161.855	0.101	0.181
-450.938	800.000	0.103	-0.411
-449.924	-200.000	-0.094	-0.648
-448.909	24.759	-0.281	0.297
-447.895	800.000	-0.119	0.638
-446.880	405.674	0.129	0.348
-445.865	314.390	-0.119	0.285
-444.851	-43.738	0.228	-0.146
-443.836	-0.697	0.381	0.344
-442.822	0.412	-0.111	-0.101
-441.807	297.264	-0.068	-0.158
-440.792	-200.000	0.008	-0.689
-439.778	448.920	0.178	-0.502
-438.763	-92.923	0.343	-0.121
-437.749	175.016	-0.171	-0.316
-436.734	-159.768	-0.193	-0.013
-435.719	-200.000	0.013	0.196
-434.705	-69.868	-0.381	-0.184
-433.690	30.581	-0.196	0.213
-432.676	468.520	0.100	0.286
-431.661	372.574	-0.070	-0.183
-430.646	189.711	-0.063	-0.120
-429.632	-151.692	-0.340	0.031
-428.617	19.428	0.203	-0.208
-427.603	139.794	-0.155	0.260
-426.588	800.000	-0.048	-0.232
-425.573	50.722	-0.425	0.513
-424.559	375.244	0.007	0.018
-423.544	702.644	-0.250	0.843
-422.530	96.415	0.102	-0.149
-421.515	-124.288	0.176	-0.035
-420.500	-149.650	-0.241	-0.024
-419.486	30.251	-0.442	0.480
-418.471	198.293	0.080	0.156
-417.457	-21.871	0.281	-0.217
-416.442	150.063	0.177	0.306
-415.428	-200.000	0.078	-0.663
-414.413	-11.883	0.271	0.225
-413.398	-18.332	0.150	0.119
-412.384	235.565	0.112	0.236
-411.369	266.379	0.110	-0.246
-410.355	-38.042	0.238	-0.160
-409.340	-2.707	0.075	-0.067
-408.325	91.932	0.145	-0.208
-407.311	441.092	0.142	0.396
-406.296	800.000	-0.034	0.175
-405.282	-131.523	0.509	-0.084
-404.267	261.769	0.078	0.171
-403.252	-169.982	-0.137	0.006
-402.238	800.000	0.104	-0.493
-401.223	800.000	-0.044	-0.248
-400.209	-200.000	0.019	-0.147
-399.194	-200.000	-0.034	0.320
-398.179	-110.616	0.657	-0.171
-397.165	90.716	-0.296	-0.422
-396.150	91.113	-0.141	-0.201
-395.136	-77.312	-0.078	0.034
-394.121	142.742	-0.088	-0.148
-393.106	74.384	-0.293	-0.392
-392.092	-200.000	0.022	-0.148
-391.077	-111.598	-0.416	-0.106
-390.063	-90.041	-0.363	0.134
-389.048	-100.316	0.073	0.023
-388.033	109.339	0.383	0.584
-387.019	-34.792	-0.015	0.010
-386.004	2.760	-0.054	0.050
-384.990	-200.000	-0.026	-0.706
-383.975	64.686	0.323	0.414
-382.960	217.142	-0.166	-0.336
-381.946	-79.060	-0.125	0.054
-380.931	800.000	0.055	0.226
-379.917	-157.731	0.400	0.030
-378.902	800.000	0.088	-0.330
-377.888	-45.879	0.218	0.136
-376.873	311.531	0.085	-0.203
-375.858	-200.000	0.027	-0.362
-374.844	318.117	0.050	-0.122
-373.829	-200.000	-0.013	0.228
-372.815	126.146	-0.125	-0.200
-371.800	-1.312	-0.598	-0.535
-370.785	-36.646	0.123	-0.084
-369.771	-103.071	0.416	0.124
-368.756	-109.502	-0.329	0.088
-367.742	482.855	-0.205	-0.594
-366.727	-45.233	-0.425	-0.267
-365.712	-94.412	-0.051	-0.018
-364.698	-200.000	-0.048	-0.276
-363.683	-200.000	0.024	0.299
-362.669	-123.707	0.418	-0.083
-361.654	-19.529	-0.349	0.274
-360.639	-37.563	-0.249	-0.168
-359.625	340.216	0.052	0.130
-358.610	-188.796	0.283	0.004
-357.596	-22.284	-0.220	0.169
-356.581	-63.789	0.189	0.098
-355.566	-200.000	0.021	-0.252
-354.552	269.960	0.136	0.305
-353.537	651.523	0.100	0.326
-352.523	676.309	-0.111	0.368
-351.508	-90.773	-0.462	-0.168
-350.493	123.967	-0.055	0.087
-349.479	800.000	-0.095	-0.382
-348.464	800.000	0.012	-0.065
-347.450	-200.000	-0.024	-0.246
-346.435	800.000	0.020	-0.099
-345.420	33.823	-0.017	0.019
-344.406	-200.000	0.017	0.097
-343.391	-200.000	-0.038	-0.380
-342.377	454.849	0.107	0.302
-341.362	-77.004	0.260	0.115
-340.348	-133.062	-0.424	-0.068
-339.333	-56.971	-0.622	0.347
-338.318	118.500	-0.203	0.318
-337.304	-38.102	0.194	0.130
-336.289	43.488	0.288	0.334
-335.275	10.462	0.089	0.086
-334.260	800.000	-0.120	-0.571
-333.245	-40.516	-0.131	0.086
-332.231	-200.000	0.069	-0.575
-331.216	-119.227	0.323	-0.071
-330.202	449.480	-0.254	0.713
-329.187	35.851	0.249	0.277
-328.172	137.776	0.068	0.113
-327.158	705.736	0.066	0.221
-326.143	-53.923	0.284	0.164
-325.129	-78.971	0.557	-0.239
-324.114	224.585	0.079	0.162
-323.099	-148.215	0.456	0.047
-322.085	373.095	-0.039	0.101
-321.070	397.011	0.094	0.251
-320.056	-7.245	-0.256	-0.219
-319.041	800.000	-0.053	0.217
-318.026	42.645	0.413	-0.476
-317.012	110.381	0.156	-0.238
-315.997	-12.337	-0.286	-0.237
-314.983	800.000	-0.090	0.484
-313.968	-63.955	-0.047	-0.024
-312.953	-190.549	0.333	0.004
-311.939	18.707	0.154	0.156
-310.924	-14.286	-0.220	0.179
-309.910	57.853	0.219	0.271
-308.895	800.000	0.123	0.630
-307.880	238.564	0.137	0.290
-306.866	-200.000	-0.063	0.444
-305.851	-60.856	0.405	-0.216
-304.837	-200.000	0.507	-0.002
-303.822	-146.812	-0.041	-0.004
-302.807	-200.000	0.002	0.458
-301.793	-163.705	0.168	0.010
-300.778	-200.000	0.023	0.149
-299.764	-200.000	0.034	0.217
-298.749	-74.921	-0.651	-0.294
-297.735	57.673	-0.527	0.652
-296.720	28.547	0.061	-0.065
-295.705	-107.912	0.459	-0.125
-294.691	-200.000	-0.013	0.358
-293.676	-200.000	0.000	0.247
-292.662	-88.022	0.329	-0.124
-291.647	-91.486	-0.353	0.127
-290.632	-22.009	-0.295	-0.226
-289.618	53.033	-0.250	-0.303
-288.603	15.288	0.238	-0.237
-287.589	-141.115	0.122	-0.016
-286.574	-131.692	0.226	0.037
-285.559	-113.954	0.404	-0.098
-284.545	-120.763	0.401	-0.085
-283.530	254.199	-0.183	-0.398
-282.516	-30.498	0.174	0.125
-281.501	-124.568	0.472	0.092
-280.486	-200.000	0.021	0.441
-279.472	58.243	0.084	0.104
-278.457	591.006	-0.080	-0.252
-277.443	-121.338	0.080	0.017
-276.428	-140.813	0.581	0.075
-275.413	-116.136	0.295	0.069
-274.399	-10.298	-0.170	0.143
-273.384	428.764	-0.076	0.210
-272.370	-200.000	0.037	-0.316
-271.355	-38.642	0.194	-0.129
-270.340	-27.677	-0.135	0.099
-269.326	213.586	-0.027	0.054
-268.311	495.106	-0.032	0.094
-267.297	-26.885	-0.417	0.307
-266.282	220.142	0.176	-0.357
-265.267	221.943	0.114	0.233
-264.253	800.000	0.074	-0.294
-263.238	52.377	0.165	-0.199
-262.224	800.000	-0.078	0.375
-261.209	23.930	0.351	0.366
-260.195	-1.174	-0.196	-0.174
-259.180	-25.579	0.265	-0.197
-258.165	28.806	-0.246	0.263
-257.151	13.507	-0.206	0.202
-256.136	149.898	-0.353	-0.607
-255.122	-200.000	-0.005	-0.313
-254.107	179.463	0.121	-0.225
-253.092	-200.000	-0.059	-0.636
-252.078	800.000	0.163	0.757
-251.063	-102.603	0.178	-0.053
-250.049	228.906	-0.165	0.341
-249.034	73.624	0.321	0.426
-248.019	34.370	0.237	-0.261
-247.005	-200.000	0.047	-0.396
-245.990	-84.914	0.414	-0.163
-244.976	-64.952	0.216	-0.110
-243.961	137.395	0.146	-0.242
-242.946	147.424	-0.342	-0.583
-241.932	206.829	0.207	-0.409
-240.917	800.000	0.051	-0.190
-239.903	-200.000	-0.045	0.396
-238.888	-92.224	-0.289	0.102
-237.873	-65.092	-0.375	0.190
-236.859	-90.384	-0.180	-0.065
-235.844	280.928	-0.068	-0.155
-234.830	-43.401	0.164	0.104
-233.815	236.877	0.143	-0.301
-232.800	-141.162	-0.110	0.014
-231.786	800.000	-0.137	0.601
-230.771	101.407	-0.191	0.281
-229.757	-8.035	-0.281	0.239
-228.742	32.417	0.358	0.391
-227.727	-63.172	0.285	0.148
-226.713	-103.856	0.290	-0.085
-225.698	-127.202	-0.195	0.036
-224.684	23.178	0.102	0.105
-223.669	-63.381	0.417	-0.216
-222.655	38.080	0.216	0.243
-221.640	-68.732	-0.298	-0.145
-220.625	-68.034	-0.223	-0.109
-219.611	-43.131	-0.005	-0.003
-218.596	291.188	-0.194	0.447
-217.582	-200.000	-0.110	-0.681
-216.567	-200.000	-0.037	-0.324
-215.552	-11.865	-0.081	-0.067
-214.538	-40.858	-0.251	-0.163
-213.523	-6.309	-0.358	0.308
-212.509	272.255	-0.315	0.704
-211.494	-152.235	-0.565	-0.051
-210.479	31.516	-0.201	0.218
-209.465	259.183	-0.247	0.539
-208.450	-200.000	-0.012	0.385
-207.436	-200.000	-0.041	-0.552
-206.421	313.947	-0.247	-0.588
-205.406	-114.896	-0.384	-0.092
-204.392	225.821	-0.071	-0.146
-203.377	800.000	-0.037	-0.134
-202.363	80.662	0.292	-0.397
-201.348	-168.338	-0.314	0.015
-200.333	-200.000	0.046	0.378
-199.319	7.549	0.163	0.153
-198.304	-200.000	0.037	0.531
-197.290	174.049	-0.122	0.223
-196.275	358.764	0.108	-0.272
-195.260	32.054	0.217	0.236
-194.246	148.453	-0.156	0.267
-193.231	495.779	-0.124	0.362
-192.217	529.125	0.046	0.137
-191.202	253.446	0.241	0.521
-190.187	-101.534	-0.147	-0.045
-189.173	-54.709	0.317	0.180
-188.158	-198.369	-0.373	-0.003
-187.144	5.143	-0.134	0.124
-186.129	-56.473	-0.183	0.102
-185.114	114.134	-0.120	0.184
-184.100	-109.294	0.387	-0.103
-183.085	-58.678	0.097	0.053
-182.071	-0.633	-0.082	0.073
-181.056	84.418	-0.096	0.132
-180.042	5.506	-0.150	-0.139
-179.027	800.000	-0.073	-0.285
-178.012	-200.000	-0.003	0.226
-176.998	-144.502	-0.367	-0.042
-175.983	-83.255	-0.261	0.105
-174.969	570.170	0.129	0.397
-173.954	-156.099	0.332	-0.026
-172.939	-200.000	-0.011	0.248
-171.925	800.000	0.017	0.087
-170.910	-37.842	0.160	-0.107
-169.896	-148.448	0.446	0.045
-168.881	800.000	-0.042	-0.210
-167.866	-127.880	0.183	0.033
-166.852	40.489	-0.204	0.231
-165.837	49.506	0.081	0.096
-164.823	-74.930	0.292	0.131
-163.808	-54.669	0.213	0.121
-162.793	-138.678	-0.069	0.009
-161.779	-39.519	0.202	-0.133
-160.764	248.263	0.177	-0.378
-159.750	125.905	-0.197	-0.313
-158.735	399.012	-0.112	-0.296
-157.720	631.880	0.065	-0.210
-156.706	-200.000	-0.003	0.129
-155.691	-133.457	0.415	0.065
-154.677	-94.374	0.462	-0.158
-153.662	800.000	0.050	0.269
-152.647	99.594	0.291	-0.424
-151.633	800.000	0.069	0.294
-150.618	-135.652	-0.302	-0.045
-149.604	-200.000	-0.020	-0.404
-148.589	-146.128	-0.335	0.037
-147.574	-83.141	0.114	0.046
-146.560	128.933	-0.097	-0.156
-145.545	144.139	0.123	-0.206
-144.531	800.000	0.069	0.271
-143.516	96.619	0.201	0.291
-142.502	-44.088	0.319	-0.201
-141.487	-48.125	0.256	0.155
-140.472	18.688	-0.107	0.108
-139.458	-79.743	0.411	-0.173
-138.443	-83.753	-0.452	-0.181
-137.429	756.789	0.044	0.152
-136.414	35.928	-0.185	0.205
-135.399	-200.000	0.092	-0.558
-134.385	-114.035	0.580	0.140
-133.370	-1.706	0.098	-0.087
-132.356	25.838	-0.142	-0.148
-131.341	358.208	-0.102	-0.256
-130.326	-88.791	0.360	-0.134
-129.312	800.000	0.077	0.406
-128.297	800.000	-0.058	-0.237
-127.283	-6.898	0.261	0.223
-126.268	-131.745	0.240	0.039
-125.253	-200.000	-0.016	0.264
-124.239	-62.099	0.146	-0.076
-123.224	125.774	-0.184	0.293
-122.210	67.907	0.318	0.410
-121.195	-27.287	-0.277	0.202
-120.180	-200.000	0.000	0.603
-119.166	7.403	0.214	-0.201
-118.151	576.649	0.281	-0.867
-117.137	-55.857	-0.354	-0.198
-116.122	-200.000	0.058	-0.435
-115.107	-26.459	-0.206	-0.151
-114.093	-200.000	0.035	0.244
-113.078	106.999	-0.214	-0.320
-112.064	-86.470	-0.180	-0.069
-111.049	358.620	0.062	0.157
-110.034	-114.322	-0.196	-0.047
-109.020	32.311	-0.091	-0.099
-108.005	2.242	0.281	-0.255
-106.991	206.581	-0.115	0.225
-105.976	-200.000	-0.055	0.421
-104.962	-143.250	-0.359	0.043
-103.947	-129.069	0.113	0.020
-102.932	54.805	0.194	-0.236
-101.918	800.000	-0.025	0.119
-100.903	26.327	-0.434	-0.455
-99.889	88.768	-0.085	-0.119
-98.874	187.080	0.283	0.531
-97.859	800.000	0.112	-0.425
-96.845	629.664	0.076	-0.243
-95.830	-93.610	0.196	-0.068
-94.816	188.998	-0.223	-0.420
-93.801	-104.033	0.079	-0.023
-92.786	-45.594	-0.375	0.232
-91.772	-8.051	0.197	0.166
-90.757	538.743	-0.131	0.392
-89.743	158.563	0.146	0.256
-88.728	280.881	-0.235	-0.530
-87.713	-200.000	0.004	-0.207
-86.699	136.247	-0.344	-0.564
-85.684	-71.438	0.228	0.107
-84.670	764.889	-0.060	-0.205
-83.655	-73.387	0.425	-0.194
-82.640	-152.719	-0.364	-0.032
-81.626	-130.368	-0.134	-0.023
-80.611	-18.787	-0.313	-0.245
-79.597	141.404	-0.085	0.141
-78.582	800.000	0.022	0.116
-77.567	-42.215	0.279	0.178
-76.553	-57.653	-0.429	0.235
-75.538	-166.422	-0.293	0.015
-74.524	-34.273	-0.251	-0.172
-73.509	-142.091	-0.196	0.024
-72.494	-54.756	-0.122	-0.069
-71.480	160.495	0.132	0.232
-70.465	800.000	0.054	-0.192
-69.451	-200.000	-0.003	0.236
-68.436	-23.490	-0.117	0.088
-67.422	-40.875	-0.136	0.088
-66.407	800.000	0.033	-0.116
-65.392	15.393	0.303	-0.298
-64.378	648.077	-0.077	-0.248
-63.363	90.633	-0.267	-0.376
-62.349	-56.259	0.256	-0.142
-61.334	2.996	-0.907	-0.826
-60.319	353.143	0.265	0.663
-59.305	320.885	-2.621	-6.272
-58.290	7.238	2.988	2.795
-57.276	387.080	4.130	10.749
-56.261	-200.000	14.420	225.226
-55.246	456.220	1179.348	3296.760
-54.232	61.627	2830.342	3533.517
-53.217	70.909	2717.594	3531.761
-52.203	51.909	2442.715	2916.497
-51.188	46.773	2090.793	2435.479
-50.173	39.056	1962.041	2199.014
-49.159	37.470	1951.384	2169.214
-48.144	37.118	1947.770	2161.172
-47.130	37.015	1945.545	2157.469
-46.115	36.871	1944.624	2154.752
-45.100	36.943	1942.790	2153.442
-44.086	36.784	1942.261	2150.987
-43.071	36.983	1938.912	2149.420
-42.057	36.863	1937.815	2146.781
-41.042	36.814	1937.347	2145.626
-40.027	36.949	1935.164	2144.629
-39.013	36.880	1933.684	2142.137
-37.998	36.894	1932.169	2140.527
-36.984	36.646	1931.714	2137.185
-35.969	36.771	1929.439	2135.971
-34.954	36.850	1928.225	2135.417
-33.940	36.743	1928.252	2134.178
-32.925	36.781	1926.387	2132.442
-31.911	36.726	1924.637	2129.812
-30.896	36.737	1923.367	2128.442
-29.881	36.774	1922.445	2127.755
-28.867	36.807	1920.757	2126.166
-27.852	36.579	1919.435	2122.101
-26.838	36.604	1917.335	2119.968
-25.823	36.702	1916.518	2120.064
-24.809	36.585	1915.561	2117.631
-23.794	36.564	1914.247	2115.868
-22.779	36.641	1912.099	2114.256
-21.765	36.501	1911.401	2111.861
-20.750	36.567	1910.122	2111.085
-19.736	36.393	1909.444	2108.345
-18.721	36.481	1907.823	2107.439
-17.706	36.498	1906.376	2105.938
-16.692	36.471	1905.650	2104.757
-15.677	36.297	1905.033	2102.089
-14.663	36.426	1904.215	2102.515
-13.648	36.426	1902.330	2100.351
-12.633	36.472	1900.197	2098.414
-11.619	36.520	1898.708	2097.202
-10.604	36.298	1897.627	2093.509
-9.590	36.328	1896.612	2092.633
-8.575	36.322	1895.604	2091.369
-7.560	36.386	1894.786	2091.089
-6.546	36.386	1892.939	2088.964
-5.531	36.279	1891.739	2086.388
-4.517	36.342	1889.961	2085.033
-3.502	36.480	1889.582	2086.024
-2.487	36.455	1888.280	2084.240
-1.473	36.487	1885.057	2080.944
-0.458	35.923	1864.317	2051.928
0.556	30.771	1994.643	2123.640
1.571	28.484	2207.256	2320.656
2.586	29.705	2254.447	2385.845
3.600	29.769	2258.068	2390.220
4.615	29.926	2256.806	2390.642
5.629	29.730	2254.889	2385.778
6.644	29.713	2252.911	2383.186
7.659	29.961	2250.505	2383.563
8.673	30.106	2249.967	2384.586
9.688	29.432	2255.793	2381.725
10.702	26.645	2325.489	2417.684
11.717	23.412	2390.059	2439.857
12.731	12.004	2359.817	2251.956
13.746	1.924	2333.749	2088.560
14.761	0.328	2329.025	2062.142
15.775	0.233	2326.984	2058.788
16.790	0.255	2324.665	2056.793
17.804	0.321	2323.362	2056.297
18.819	0.288	2322.823	2055.124
19.834	0.298	2319.506	2052.083
20.848	0.228	2319.622	2050.969
21.863	0.234	2317.721	2049.133
22.877	0.222	2316.409	2047.555
23.892	0.267	2313.124	2045.027
24.907	0.224	2311.783	2043.008
25.921	0.036	2310.491	2039.064
26.936	0.287	2307.097	2039.240
27.950	0.146	2305.486	2035.648
28.965	0.185	2303.024	2033.767
29.980	0.184	2301.612	2032.267
30.994	0.372	2299.572	2032.762
32.009	6.266	2320.294	2131.267
33.023	20.072	2359.227	2356.745
34.038	26.022	2371.116	2449.829
35.053	26.745	2369.944	2458.198
36.067	26.817	2367.859	2456.718
37.082	26.595	2365.872	2451.334
38.096	26.563	2363.896	2448.563
39.111	26.885	2363.019	2451.742
40.126	27.386	2361.194	2456.347
41.140	27.663	2360.989	2459.591
42.155	27.357	2358.272	2452.330
43.169	27.221	2355.931	2447.763
44.184	27.379	2353.363	2446.933
45.199	27.298	2351.240	2443.339
46.213	27.271	2349.805	2441.194
47.228	27.450	2349.112	2442.600
48.242	27.497	2347.357	2441.114
49.257	27.525	2346.531	2440.332
50.271	27.710	2344.428	2440.340
51.286	27.643	2340.658	2435.231
52.301	27.308	2339.650	2429.396
53.315	27.513	2340.121	2432.335
54.330	29.194	2344.893	2459.597
55.344	30.317	2344.519	2473.964
56.359	30.545	2340.471	2472.440
57.374	30.431	2339.105	2469.178
58.388	30.129	2336.182	2461.775
59.403	30.259	2331.525	2458.301
60.417	30.123	2329.283	2453.830
61.432	30.273	2327.801	2453.974
62.447	30.272	2325.679	2451.432
63.461	30.174	2323.280	2447.305
64.476	30.083	2320.936	2443.340
65.490	30.342	2320.630	2446.156
66.505	30.252	2318.563	2442.495
67.520	28.790	2313.511	2417.559
68.534	27.013	2305.431	2385.378
69.549	26.530	2300.847	2373.991
70.563	26.506	2298.406	2370.869
71.578	26.386	2298.543	2369.145
72.593	26.689	2296.131	2370.360
73.607	26.953	2294.731	2372.105
74.622	26.970	2293.545	2370.810
75.636	26.787	2290.041	2364.507
76.651	26.730	2287.579	2360.932
77.666	26.797	2285.195	2359.067
78.680	26.911	2282.672	2357.674
79.695	26.969	2281.204	2356.628
80.709	26.963	2280.974	2356.036
81.724	27.134	2279.308	2356.254
82.739	26.891	2276.355	2349.757
83.753	26.956	2273.863	2347.754
84.768	26.825	2272.481	2344.339
85.782	26.865	2270.780	2342.831
86.797	26.703	2269.187	2338.799
87.812	26.663	2266.258	2334.980
88.826	26.610	2264.230	2331.928
89.841	26.707	2262.050	2330.657
90.855	26.867	2261.224	2331.592
91.870	26.703	2259.625	2327.551
92.884	26.730	2257.806	2325.744
93.899	26.942	2256.501	2326.858
94.914	27.088	2258.320	2330.332
95.928	28.241	2260.709	2347.390
96.943	28.703	2258.822	2351.104
97.957	27.583	2253.309	2330.699
98.972	26.773	2247.935	2314.467
99.987	26.705	2244.059	2309.330
101.001	26.618	2241.715	2305.531
102.016	26.596	2241.094	2304.333
103.030	26.702	2237.280	2301.484
104.045	26.840	2236.143	2301.797
105.060	26.996	2233.991	2301.295
106.074	27.017	2232.155	2299.406
107.089	26.779	2230.710	2294.615
108.103	26.783	2229.401	2293.043
109.118	26.869	2229.768	2294.234
110.133	26.961	2227.209	2292.502
111.147	26.912	2223.995	2288.293
112.162	26.883	2222.494	2286.110
113.176	26.852	2219.942	2282.815
114.191	26.941	2217.671	2281.332
115.206	26.821	2216.048	2277.871
116.220	26.822	2214.588	2276.118
117.235	26.704	2212.459	2272.168
118.249	26.839	2210.494	2271.571
119.264	26.864	2209.641	2270.740
120.279	26.773	2208.120	2267.768
121.293	26.809	2205.926	2265.696
122.308	26.704	2204.535	2262.672
123.322	26.520	2202.576	2258.078
124.337	26.585	2202.724	2258.780
125.352	28.268	2207.303	2284.326
126.366	29.124	2207.301	2294.790
127.381	27.527	2198.762	2265.692
128.395	26.669	2194.008	2249.819
129.410	26.737	2192.301	2248.641
130.424	26.750	2190.684	2246.876
131.439	26.854	2189.031	2246.208
132.454	26.807	2187.358	2243.630
133.468	26.732	2185.106	2240.120
134.483	26.892	2183.438	2240.129
135.497	26.944	2182.231	2239.273
136.512	27.081	2180.122	2238.537
137.527	27.056	2177.705	2235.474
138.541	26.790	2177.440	2231.646
139.556	26.659	2175.437	2227.711
140.570	26.768	2174.836	2228.170
141.585	26.848	2171.855	2225.838
142.600	26.914	2170.803	2225.305
143.614	26.670	2169.226	2220.424
144.629	26.806	2168.107	2220.678
145.643	26.753	2166.211	2217.826
146.658	26.812	2164.102	2216.123
147.673	26.618	2161.611	2210.925
148.687	26.699	2161.514	2211.556
149.702	26.907	2160.825	2213.133
150.716	26.818	2158.633	2209.537
151.731	26.939	2157.611	2209.712
152.746	26.988	2157.200	2209.622
153.760	27.111	2157.398	2211.070
154.775	28.095	2159.855	2225.356
155.789	28.608	2158.529	2229.996
156.804	27.593	2151.877	2210.486
157.819	26.659	2145.935	2192.759
158.833	26.385	2143.030	2186.200
159.848	26.685	2141.757	2188.283
160.862	27.008	2141.092	2191.262
161.877	27.032	2139.881	2190.051
162.892	27.199	2139.685	2191.611
163.906	27.426	2139.393	2193.807
164.921	27.433	2137.025	2191.196
165.935	27.364	2134.753	2187.771
166.950	27.319	2131.988	2184.136
167.964	27.101	2130.102	2179.311
168.979	26.947	2127.911	2174.955
169.994	26.757	2126.645	2171.111
171.008	26.807	2123.662	2168.412
172.023	26.657	2122.774	2165.442
173.037	26.855	2122.310	2167.088
174.052	27.041	2121.202	2167.928
175.067	26.925	2118.369	2163.379
176.081	26.692	2117.165	2159.098
177.096	26.702	2115.835	2157.607
178.110	26.619	2113.851	2154.337
179.125	26.695	2112.765	2153.880
180.140	26.817	2111.575	2153.865
181.154	26.722	2110.857	2151.732
182.169	26.688	2109.809	2150.008
183.183	27.098	2110.491	2155.330
184.198	28.862	2113.707	2179.408
185.213	29.117	2110.690	2179.070
186.227	27.429	2104.539	2152.417
187.242	26.644	2100.812	2139.033
188.256	26.619	2099.151	2136.790
189.271	26.785	2097.248	2136.566
190.286	26.814	2095.902	2135.281
191.300	26.669	2093.966	2131.337
192.315	26.581	2092.092	2128.139
193.329	26.879	2091.429	2130.730
194.344	27.264	2090.489	2134.060
195.359	27.421	2089.539	2134.676
196.373	27.442	2087.611	2132.698
197.388	27.230	2084.630	2126.905
198.402	26.987	2082.356	2121.484
199.417	27.080	2080.045	2119.962
200.432	27.191	2078.565	2119.496
201.446	27.040	2076.812	2115.692
202.461	26.869	2075.601	2112.208
203.475	26.792	2073.947	2109.368
204.490	26.718	2071.465	2105.722
205.504	26.731	2069.448	2103.576
206.519	26.711	2067.339	2100.952
207.534	26.797	2064.907	2099.223
208.548	26.762	2064.360	2098.008
209.563	26.671	2062.607	2094.918
210.577	26.663	2061.770	2093.729
211.592	26.975	2061.928	2097.264
212.607	27.290	2063.140	2101.895
213.621	27.739	2065.264	2109.035
214.636	27.966	2061.872	2107.954
215.650	27.104	2057.296	2093.044
216.665	26.773	2054.393	2086.007
217.680	26.891	2052.580	2085.285
218.694	26.851	2051.494	2083.470
219.709	26.671	2050.236	2079.858
220.723	27.022	2048.844	2082.250
221.738	27.316	2046.980	2083.492
222.753	27.299	2045.637	2081.673
223.767	27.069	2043.633	2076.744
224.782	26.864	2041.870	2072.348
225.796	26.756	2040.729	2069.702
226.811	27.002	2038.888	2070.416
227.826	27.053	2037.831	2069.674
228.840	27.076	2036.182	2068.018
229.855	26.886	2034.352	2063.737
230.869	26.826	2032.471	2060.894
231.884	26.615	2030.520	2056.268
232.899	26.637	2029.834	2055.576
233.913	26.828	2029.179	2056.839
234.928	26.947	2027.863	2056.614
235.942	26.977	2025.454	2054.273
236.957	26.837	2023.971	2050.924
237.972	26.699	2023.293	2048.432
238.986	26.706	2022.270	2047.228
240.001	26.458	2019.101	2040.957
241.015	26.430	2018.347	2039.633
242.030	26.917	2019.928	2046.517
243.045	28.838	2022.740	2070.901
244.059	29.479	2021.072	2076.197
245.074	27.785	2014.378	2049.965
246.088	26.830	2010.504	2035.002
247.103	27.019	2008.166	2034.522
248.117	26.991	2007.162	2032.946
249.132	26.744	2005.985	2028.739
250.147	26.622	2003.958	2025.075
251.161	26.632	2002.057	2023.027
252.176	26.923	2000.667	2024.640
253.190	26.879	1998.376	2021.580
254.205	26.679	1996.157	2016.861
255.220	26.760	1995.760	2017.123
256.234	26.782	1994.610	2015.970
257.249	26.780	1992.383	2013.449
258.263	26.865	1991.909	2013.681
259.278	27.004	1991.122	2014.189
260.293	26.968	1990.178	2012.594
261.307	26.913	1987.545	2009.082
262.322	26.807	1986.754	2006.865
263.336	26.745	1983.330	2002.479
264.351	26.538	1981.712	1998.299
265.366	26.417	1981.558	1996.565
266.380	26.635	1979.628	1996.799
267.395	26.416	1977.729	1992.215
268.409	26.361	1975.874	1989.505
269.424	26.620	1975.190	1991.446
270.439	26.732	1975.629	1992.887
271.453	27.393	1975.744	2000.067
272.468	28.728	1977.972	2016.830
273.482	28.693	1975.115	2013.285
274.497	27.319	1968.592	1991.297
275.512	26.664	1965.381	1980.611
276.526	26.690	1962.001	1977.253
277.541	26.536	1960.412	1973.729
278.555	26.468	1958.661	1970.984
279.570	26.232	1956.797	1966.290
280.585	26.353	1955.550	1966.123
281.599	26.475	1954.651	1966.314
282.614	26.702	1953.454	1967.355
283.628	27.090	1952.972	1970.869
284.643	27.165	1952.908	1971.387
285.657	27.325	1951.665	1971.642
286.672	27.251	1949.025	1967.933
287.687	26.993	1947.107	1962.958
288.701	26.705	1945.457	1957.933
289.716	26.623	1944.598	1955.941
290.730	26.814	1943.427	1956.598
291.745	26.919	1942.323	1956.392
292.760	27.025	1941.147	1956.117
293.774	26.678	1940.179	1951.150
294.789	26.825	1938.494	1950.820
295.803	26.884	1936.818	1949.534
296.818	26.787	1935.462	1946.889
297.833	26.873	1934.608	1946.722
298.847	26.911	1932.250	1944.526
299.862	26.787	1931.914	1942.617
300.876	27.278	1931.705	1947.463
301.891	28.869	1935.596	1968.288
302.906	29.381	1933.062	1970.978
303.920	27.539	1928.151	1945.981
304.935	26.901	1924.405	1935.130
305.949	26.726	1921.999	1930.606
306.964	27.112	1920.850	1933.350
307.979	26.971	1918.193	1928.946
308.993	26.547	1916.243	1922.220
310.008	26.628	1915.242	1921.857
311.022	26.971	1913.796	1923.831
312.037	26.876	1913.532	1922.319
313.052	26.761	1911.069	1918.396
314.066	26.723	1908.707	1915.389
315.081	26.743	1907.882	1914.539
316.095	26.988	1906.814	1915.839
317.110	26.831	1905.296	1912.426
318.125	26.700	1903.482	1908.988
319.139	26.635	1902.263	1906.847
320.154	26.710	1900.665	1905.806
321.168	26.639	1899.335	1903.496
322.183	26.810	1897.256	1902.996
323.197	26.899	1897.836	1904.281
324.212	26.847	1895.795	1901.463
325.227	26.675	1893.349	1896.970
326.241	26.623	1891.385	1894.225
327.256	26.595	1890.484	1892.808
328.270	26.633	1889.657	1892.152
329.285	26.701	1889.476	1892.454
330.300	27.018	1892.179	1898.270
331.314	28.462	1893.078	1914.112
332.329	28.866	1889.595	1914.586
333.343	27.317	1885.116	1893.635
334.358	26.703	1881.619	1883.475
335.373	26.787	1880.326	1882.838
336.387	26.747	1878.723	1880.590
337.402	26.631	1876.866	1877.296
338.416	26.592	1875.199	1874.998
339.431	26.718	1874.399	1875.283
340.446	27.045	1872.873	1876.926
341.460	26.939	1870.722	1873.452
342.475	27.195	1870.066	1875.223
343.489	26.820	1867.615	1868.663
344.504	26.515	1866.853	1864.512
345.519	26.644	1865.603	1864.379
346.533	26.819	1863.349	1863.706
347.548	26.770	1861.821	1861.457
348.562	26.791	1860.093	1859.721
349.577	26.931	1859.824	1860.674
350.592	27.033	1860.330	1862.001
351.606	27.102	1858.658	1860.823
352.621	27.088	1855.979	1857.771
353.635	26.822	1854.279	1853.110
354.650	26.678	1852.862	1850.000
355.665	26.563	1850.928	1846.665
356.679	26.562	1850.009	1845.523
357.694	26.664	1849.764	1846.095
358.708	26.751	1848.879	1845.881
359.723	27.331	1849.818	1852.538
360.738	28.676	1851.212	1867.475
361.752	28.706	1848.419	1864.742
362.767	27.425	1843.136	1846.137
363.781	26.881	1840.474	1837.720
364.796	26.829	1839.410	1835.909
365.810	26.730	1837.691	1832.968
366.825	26.638	1835.330	1829.452
367.840	26.496	1834.255	1826.720
368.854	26.472	1833.616	1825.625
369.869	26.628	1831.953	1825.335
370.883	26.495	1830.288	1822.105
371.898	26.466	1829.881	1821.194
372.913	26.657	1828.244	1821.271
373.927	26.637	1826.737	1819.355
374.942	26.761	1825.544	1819.197
375.956	26.766	1824.170	1817.659
376.971	26.669	1822.068	1814.374
377.986	26.744	1820.946	1813.797
379.000	26.862	1820.051	1813.867
380.015	26.844	1818.615	1812.039
381.029	26.745	1817.222	1809.438
382.044	26.819	1815.834	1808.584
383.059	26.930	1813.754	1807.408
384.073	26.744	1813.180	1804.764
385.088	26.671	1812.061	1802.697
386.102	26.683	1810.470	1801.023
387.117	26.948	1809.216	1802.202
388.132	26.918	1808.266	1800.746
389.146	27.232	1809.942	1805.332
390.161	28.388	1811.505	1818.208
391.175	28.785	1806.887	1817.304
392.190	27.387	1801.411	1797.715
393.205	26.921	1798.913	1790.384
394.219	26.950	1796.791	1788.345
395.234	26.525	1796.109	1783.246
396.248	26.364	1795.190	1780.521
397.263	26.541	1791.854	1778.756
398.278	26.467	1789.913	1775.881
399.292	26.438	1788.254	1773.738
400.307	26.780	1788.277	1776.917
401.321	26.792	1787.405	1775.958
402.336	26.738	1786.719	1774.536
403.350	26.751	1784.458	1772.200
404.365	26.886	1782.712	1771.584
405.380	26.891	1781.865	1770.572
406.394	26.708	1781.292	1767.998
407.409	26.640	1779.368	1765.214
408.423	26.623	1777.427	1762.910
409.438	26.577	1776.510	1761.342
410.453	26.668	1775.141	1760.659
411.467	26.621	1774.366	1759.226
412.482	26.402	1773.391	1755.906
413.496	26.508	1772.316	1755.667
414.511	26.771	1770.281	1756.006
415.526	26.795	1768.179	1753.942
416.540	26.799	1767.492	1753.089
417.555	26.829	1765.879	1751.569
418.569	26.874	1765.432	1751.348
419.584	26.958	1765.620	1752.147
420.599	26.809	1764.899	1749.773
421.613	26.446	1763.207	1744.364
422.628	26.444	1760.705	1741.663
423.642	26.528	1760.371	1741.935
424.657	26.425	1757.972	1738.359
425.672	26.268	1756.725	1735.401
426.686	26.510	1755.061	1735.885
427.701	26.672	1754.162	1736.353
428.715	27.013	1753.267	1738.538
429.730	27.399	1752.574	1741.353
430.745	27.293	1751.519	1739.080
431.759	26.953	1749.942	1734.046
432.774	26.575	1748.563	1728.839
433.788	25.881	1746.182	1719.627
434.803	25.372	1745.392	1713.762
435.818	25.428	1743.602	1712.335
436.832	25.477	1742.953	1711.958
437.847	24.852	1737.205	1700.146
438.861	15.806	1710.419	1588.291
439.876	3.537	1687.441	1451.315
440.890	0.578	1681.297	1417.950
441.905	0.393	1680.436	1415.316
442.920	0.362	1679.063	1413.697
443.934	0.250	1678.270	1411.799
444.949	0.234	1677.088	1410.485
445.963	0.235	1675.504	1408.993
446.978	0.209	1675.506	1408.585
447.993	0.169	1675.028	1407.641
449.007	0.191	1671.747	1404.924
450.022	0.320	1669.233	1403.849
451.036	0.354	1668.557	1403.425
452.051	1.534	1674.761	1419.559
453.066	12.310	1700.152	1543.138
454.080	23.388	1717.926	1664.252
455.095	26.777	1724.852	1702.816
456.109	29.332	1729.591	1731.439
457.124	30.201	1729.241	1739.080
458.139	29.895	1726.784	1733.522
459.153	29.432	1725.321	1727.492
460.168	29.227	1723.490	1723.518
461.182	29.149	1721.835	1720.932
462.197	29.187	1719.423	1718.664
463.212	28.998	1718.191	1715.458
464.226	28.981	1717.260	1714.169
465.241	29.330	1716.470	1716.439
466.255	29.591	1715.501	1717.706
467.270	29.668	1714.545	1717.263
468.285	29.300	1713.071	1712.138
469.299	29.308	1711.582	1710.524
470.314	29.630	1709.743	1711.482
471.328	29.739	1708.407	1710.948
472.343	29.526	1708.461	1708.822
473.358	29.557	1706.264	1706.710
474.372	29.614	1704.421	1705.186
475.387	29.491	1703.786	1703.209
476.401	29.479	1701.999	1701.107
477.416	29.239	1701.467	1698.145
478.430	29.664	1699.750	1700.164
479.445	29.614	1698.469	1698.211
480.460	29.202	1696.990	1692.733
481.474	29.186	1696.636	1692.023
482.489	29.516	1695.649	1693.883
483.503	29.972	1693.980	1696.216
484.518	29.741	1692.839	1692.738
485.533	29.888	1691.894	1692.947
486.547	29.995	1690.793	1692.628
487.562	30.485	1689.933	1696.055
488.576	30.426	1688.831	1694.206
489.591	30.495	1687.603	1693.406
490.606	30.157	1685.445	1687.942
491.620	30.221	1683.983	1686.865
492.635	30.387	1682.467	1686.658
493.649	30.398	1680.922	1685.010
494.664	29.754	1678.690	1676.699
495.679	29.046	1676.551	1667.917
496.693	29.303	1675.905	1669.417
497.708	29.671	1676.287	1672.947
498.722	30.144	1674.901	1675.664
499.737	30.452	1673.515	1676.871
500.752	30.149	1671.636	1672.036
501.766	29.959	1669.806	1668.285
502.781	29.955	1669.058	1667.302
503.795	29.857	1667.565	1664.729
504.810	29.846	1666.401	1663.269
505.825	30.154	1665.382	1664.834
506.839	30.083	1664.833	1663.441
507.854	29.990	1662.755	1660.327
508.868	29.943	1660.892	1657.845
509.883	29.666	1660.053	1654.321
510.898	29.772	1659.064	1654.086
511.912	29.662	1657.128	1650.974
512.927	29.411	1654.767	1646.170
513.941	29.553	1654.321	1646.801
514.956	30.029	1653.705	1650.254
515.971	30.700	1653.150	1655.507
516.985	30.559	1651.684	1652.585
518.000	30.172	1650.894	1648.139
519.014	30.077	1649.897	1646.101
520.029	30.100	1647.198	1643.412
521.043	29.852	1645.748	1639.557
522.058	29.677	1644.652	1636.715
523.073	29.785	1644.046	1636.881
524.087	30.063	1643.723	1638.830
525.102	30.274	1641.878	1638.669
526.116	30.060	1640.160	1634.861
527.131	29.838	1639.674	1632.207
528.146	30.214	1639.948	1635.626
529.160	30.434	1638.742	1636.174
530.175	30.593	1637.117	1635.762
531.189	30.726	1636.506	1636.129
532.204	30.797	1634.876	1634.928
533.219	30.386	1632.851	1629.087
534.233	29.957	1631.588	1623.853
535.248	29.997	1631.007	1623.433
536.262	30.615	1631.023	1628.697
537.277	30.763	1630.453	1629.231
538.292	30.754	1628.676	1627.180
539.306	30.749	1626.344	1624.615
540.321	30.699	1625.207	1622.842
541.335	30.318	1623.724	1617.837
542.350	30.688	1622.238	1619.395
543.365	31.080	1621.273	1621.665
544.379	31.321	1619.894	1622.196
545.394	31.019	1618.913	1618.387
546.408	30.663	1615.587	1611.763
547.423	29.793	1614.293	1602.706
548.438	29.721	1613.064	1600.674
549.452	30.155	1612.532	1603.724
550.467	30.155	1611.790	1602.795
551.481	30.407	1610.817	1603.827
552.496	30.687	1610.217	1605.462
553.511	30.965	1609.754	1607.219
554.525	30.806	1608.989	1604.887
555.540	30.833	1608.037	1603.978
556.554	30.843	1606.297	1602.135
557.569	30.663	1604.751	1598.852
558.583	30.433	1603.072	1594.999
559.598	30.590	1601.562	1594.660
560.613	30.640	1599.560	1592.910
561.627	30.577	1598.797	1591.417
562.642	30.395	1597.785	1588.649
563.656	30.609	1596.514	1589.032
564.671	30.271	1596.198	1585.626
565.686	30.237	1593.988	1582.952
566.700	30.296	1592.242	1581.536
567.715	30.302	1590.879	1580.037
568.729	30.644	1589.536	1581.440
569.744	30.932	1589.138	1583.314
570.759	31.235	1588.089	1584.666
571.773	30.943	1587.346	1581.245
572.788	30.794	1586.952	1579.389
573.802	30.539	1584.369	1574.463
574.817	30.446	1581.708	1570.841
575.832	30.414	1581.328	1570.002
576.846	30.511	1580.381	1569.694
577.861	30.635	1579.142	1569.330
578.875	30.763	1578.293	1569.386
579.890	30.875	1578.185	1570.042
580.905	31.054	1577.066	1570.255
581.919	31.245	1576.723	1571.339
582.934	31.404	1576.118	1571.895
583.948	31.189	1574.960	1568.732
584.963	31.162	1572.998	1566.366
585.978	30.722	1571.190	1560.664
586.992	30.817	1570.596	1560.692
588.007	31.244	1570.286	1563.787
589.021	30.871	1567.565	1557.760
590.036	30.137	1566.297	1550.144
591.051	30.636	1566.003	1553.856
592.065	31.256	1564.819	1557.697
593.080	31.661	1563.477	1559.568
594.094	31.675	1561.844	1557.873
595.109	30.909	1559.745	1549.195
596.123	30.509	1556.895	1542.836
597.138	30.829	1556.307	1544.743
598.153	30.968	1555.345	1544.761
599.167	30.932	1553.946	1542.886
600.182	30.987	1553.097	1542.316
601.196	31.065	1552.530	1542.214
602.211	31.066	1551.598	1541.111
603.226	31.008	1551.040	1539.894
604.240	31.214	1549.795	1540.183
605.255	31.383	1548.552	1540.156
606.269	31.412	1546.836	1538.511
607.284	31.207	1546.231	1536.029
608.299	31.208	1544.701	1534.332
609.313	30.946	1543.266	1530.564
610.328	31.177	1541.731	1530.760
611.342	31.179	1540.601	1529.473
612.357	31.100	1539.873	1527.917
613.372	31.080	1539.087	1526.789
614.386	30.909	1537.193	1523.318
615.401	30.955	1536.849	1523.174
616.415	30.806	1536.051	1520.982
617.430	30.722	1534.855	1518.920
618.445	30.832	1533.005	1517.808
619.459	30.755	1531.865	1515.871
620.474	30.771	1530.979	1514.942
621.488	30.881	1530.621	1515.307
622.503	31.201	1530.157	1517.279
623.518	31.071	1528.481	1514.377
624.532	31.087	1526.531	1512.398
625.547	30.639	1525.591	1507.633
626.561	30.864	1524.004	1507.717
627.576	30.987	1523.617	1508.152
628.591	31.142	1522.662	1508.290
629.605	31.610	1522.083	1511.333
630.620	31.645	1521.115	1510.470
631.634	31.720	1520.661	1510.450
632.649	31.834	1519.519	1510.057
633.663	31.799	1517.621	1507.703
634.678	31.428	1516.450	1503.362
635.693	31.239	1513.667	1498.898
636.707	31.101	1511.491	1495.453
637.722	30.944	1511.221	1493.743
638.736	31.190	1510.004	1494.347
639.751	31.347	1509.154	1494.582
640.766	31.235	1508.367	1492.728
641.780	31.185	1506.790	1490.587
642.795	31.394	1506.310	1491.607
643.809	31.416	1505.670	1490.971
644.824	31.592	1504.385	1490.929
645.839	31.600	1504.077	1490.511
646.853	31.616	1502.445	1488.841
647.868	31.490	1501.203	1486.431
648.882	31.353	1499.636	1483.606
649.897	31.325	1497.980	1481.571
650.912	31.295	1496.892	1480.073
651.926	31.714	1496.405	1482.750
652.941	31.492	1495.197	1479.611
653.955	31.165	1492.337	1474.010
654.970	30.710	1489.776	1467.698
655.985	30.500	1488.331	1464.433
656.999	30.324	1487.076	1461.628
658.014	30.565	1486.540	1462.836
659.028	30.990	1486.931	1466.408
660.043	31.621	1486.615	1470.901
661.058	31.874	1485.364	1471.490
662.072	31.764	1484.613	1469.698
663.087	31.479	1483.481	1466.158
664.101	31.277	1481.711	1462.641
665.116	31.507	1480.255	1462.842
666.131	31.331	1479.925	1460.957
667.145	31.455	1478.815	1460.658
668.160	31.543	1478.200	1460.566
669.174	31.451	1476.329	1457.822
670.189	31.548	1474.390	1456.494
671.204	31.556	1474.066	1456.063
672.218	31.449	1473.081	1454.075
673.233	31.753	1472.231	1455.434
674.247	31.734	1471.572	1454.460
675.262	31.699	1470.447	1452.904
676.276	31.793	1468.860	1451.893
677.291	31.405	1468.237	1448.086
678.306	31.471	1466.395	1446.609
679.320	31.369	1465.074	1444.336
680.335	31.268	1463.842	1442.166
681.349	31.401	1463.788	1442.978
682.364	31.449	1463.131	1442.523
683.379	31.231	1461.717	1439.271
684.393	31.122	1460.631	1437.181
685.408	31.221	1458.643	1435.818
686.422	31.132	1457.528	1433.869
687.437	31.054	1456.442	1432.022
688.452	30.933	1455.651	1430.141
689.466	30.881	1454.030	1427.977
690.481	30.916	1453.068	1427.133
691.495	31.225	1453.009	1429.276
692.510	31.790	1452.704	1433.150
693.525	31.966	1451.578	1433.225
694.539	31.863	1450.010	1430.713
695.554	31.328	1448.765	1425.210
696.568	30.834	1447.639	1420.143
697.583	30.824	1446.287	1418.578
698.598	31.024	1445.179	1418.851
699.612	31.155	1443.827	1418.352
700.627	31.354	1442.714	1418.604
701.641	31.374	1442.028	1417.918
702.656	31.421	1441.005	1417.101
703.671	31.522	1440.915	1417.610
704.685	31.631	1440.513	1417.871
705.700	31.528	1439.299	1415.728
706.714	31.316	1437.685	1412.355
707.729	31.336	1435.940	1410.626
708.744	31.492	1434.753	1410.477
709.758	31.637	1432.733	1409.413
710.773	30.982	1431.017	1402.609
711.787	30.629	1429.694	1398.478
712.802	31.439	1428.442	1403.200
713.816	31.739	1428.954	1405.799
714.831	31.540	1429.009	1404.179
715.846	31.773	1427.084	1403.875
716.860	31.696	1425.135	1401.213
717.875	31.720	1423.913	1400.019
718.889	31.222	1423.744	1395.947
719.904	31.307	1422.267	1394.967
720.919	31.411	1420.388	1393.737
721.933	31.256	1420.342	1392.364
722.948	31.243	1419.781	1391.553
723.962	31.319	1417.815	1390.026
724.977	31.345	1416.898	1389.157
725.992	31.507	1416.328	1389.641
727.006	31.673	1414.528	1388.946
728.021	31.601	1413.370	1387.108
729.035	31.462	1412.157	1384.718
730.050	31.508	1411.577	1384.326
731.065	31.620	1410.336	1383.775
732.079	31.442	1409.190	1381.159
733.094	31.379	1407.687	1379.057
734.108	31.490	1406.334	1378.385
735.123	31.414	1405.006	1376.358
736.138	31.389	1403.768	1374.792
737.152	31.326	1402.970	1373.386
738.167	31.359	1401.423	1371.950
739.181	31.383	1400.909	1371.461
740.196	31.360	1400.676	1370.897
741.211	31.293	1400.232	1369.802
742.225	31.341	1398.854	1368.644
743.240	31.270	1397.037	1366.182
744.254	31.172	1395.534	1363.826
745.269	31.107	1393.930	1361.622
746.284	31.014	1392.940	1359.807
747.298	30.823	1392.978	1358.284
748.313	31.074	1392.314	1359.308
749.327	31.585	1391.712	1362.299
750.342	31.942	1391.095	1364.147
751.356	31.992	1390.710	1363.969
752.371	31.815	1388.679	1360.521
753.386	31.355	1386.851	1355.213
754.400	31.172	1385.755	1352.648
755.415	31.386	1384.698	1353.012
756.429	31.558	1383.746	1353.171
757.444	31.632	1382.504	1352.336
758.459	31.575	1381.094	1350.379
759.473	31.303	1380.255	1347.427
760.488	31.300	1378.634	1345.660
761.502	31.217	1377.329	1343.623
762.517	31.330	1377.255	1344.209
763.532	31.482	1376.129	1344.043
764.546	31.456	1374.187	1341.804
765.561	31.044	1372.699	1337.220
766.575	30.244	1371.039	1329.683
767.590	30.230	1370.106	1328.513
768.605	31.133	1369.959	1334.707
769.619	31.538	1369.244	1336.765
770.634	31.563	1368.237	1335.797
771.648	31.297	1366.832	1332.359
772.663	31.109	1366.291	1330.327
773.678	31.227	1365.872	1330.604
774.692	31.502	1364.974	1331.540
775.707	31.339	1364.671	1329.915
776.721	31.357	1363.868	1329.107
777.736	31.291	1361.952	1326.605
778.751	31.271	1360.770	1325.156
779.765	31.393	1359.711	1324.837
780.780	31.213	1359.085	1322.784
781.794	31.288	1358.268	1322.366
782.809	31.197	1356.454	1319.795
783.824	30.883	1355.573	1316.551
784.838	31.086	1354.712	1316.993
785.853	31.414	1355.291	1319.728
786.867	31.410	1355.099	1319.358
787.882	31.415	1353.143	1317.330
788.897	31.143	1350.817	1312.986
789.911	30.902	1349.682	1310.017
790.926	30.822	1348.714	1308.358
791.940	30.855	1347.647	1307.400
792.955	30.796	1346.212	1305.431
793.969	30.733	1345.269	1303.919
794.984	30.949	1344.407	1304.448
795.999	31.053	1344.259	1304.883
797.013	31.228	1342.091	1303.850
798.028	31.158	1341.061	1302.203
799.042	31.239	1340.096	1301.674
800.057	31.178	1339.474	1300.488
801.072	31.137	1337.968	1298.584
802.086	31.180	1336.702	1297.498
803.101	31.155	1335.508	1296.012
804.115	31.189	1334.609	1295.221
805.130	31.181	1333.268	1293.705
806.145	31.113	1332.358	1292.195
807.159	31.134	1331.395	1291.255
808.174	31.064	1330.276	1289.528
809.188	31.251	1329.444	1289.863
810.203	31.284	1327.318	1287.877
811.218	31.318	1325.522	1286.214
812.232	30.749	1323.762	1280.424
813.247	30.474	1323.044	1277.670
814.261	30.832	1323.506	1280.439
815.276	31.131	1322.899	1281.766
816.291	30.890	1321.700	1278.785
817.305	30.822	1320.791	1277.285
818.320	30.925	1319.045	1276.155
819.334	31.073	1317.754	1275.770
820.349	31.025	1316.538	1274.107
821.364	31.020	1315.265	1272.691
822.378	30.956	1314.162	1271.032
823.393	30.881	1312.607	1268.865
824.407	31.063	1311.138	1268.538
825.422	31.017	1310.817	1267.759
826.437	30.846	1310.075	1265.718
827.451	30.764	1308.360	1263.356
828.466	31.045	1307.541	1264.327
829.480	31.494	1306.254	1265.984
830.495	31.181	1303.958	1261.484
831.509	30.817	1302.730	1257.672
832.524	30.820	1301.969	1256.810
833.539	30.813	1301.325	1255.987
834.553	30.869	1299.773	1254.723
835.568	30.764	1298.324	1252.462
836.582	30.829	1297.667	1252.119
837.597	30.910	1296.677	1251.561
838.612	30.970	1294.896	1250.097
839.626	31.063	1293.440	1249.169
840.641	31.065	1292.914	1248.522
841.655	30.754	1292.041	1245.440
842.670	30.296	1290.869	1241.078
843.685	29.813	1289.730	1236.592
844.699	30.378	1288.668	1239.216
845.714	30.643	1287.566	1239.788
846.728	30.497	1287.052	1238.162
847.743	30.570	1285.593	1237.103
848.758	30.529	1284.583	1235.709
849.772	30.786	1283.371	1236.109
850.787	30.740	1282.157	1234.487
851.801	30.622	1281.447	1232.871
852.816	30.703	1279.812	1231.686
853.831	30.998	1277.625	1231.393
854.845	30.613	1276.912	1228.000
855.860	30.488	1275.237	1225.418
856.874	30.616	1273.882	1224.817
857.889	30.972	1273.003	1226.179
858.904	31.343	1273.618	1229.077
859.918	31.649	1272.419	1229.796
860.933	31.627	1271.311	1228.431
861.947	31.391	1269.248	1224.738
862.962	31.066	1267.565	1220.826
863.977	30.825	1266.526	1218.097
864.991	30.661	1265.882	1216.252
866.006	30.596	1265.175	1215.000
867.020	30.537	1264.415	1213.742
868.035	30.484	1262.945	1211.833
869.049	30.577	1261.612	1211.018
870.064	30.763	1260.711	1211.226
871.079	30.719	1260.237	1210.341
872.093	30.614	1259.152	1208.465
873.108	30.506	1258.205	1206.708
874.122	30.543	1256.440	1205.116
875.137	30.398	1255.693	1203.310
876.152	30.251	1254.509	1201.074
877.166	30.407	1253.124	1200.615
878.181	30.373	1251.949	1199.127
879.195	30.271	1251.487	1197.876
880.210	30.332	1250.889	1197.556
881.225	30.531	1249.683	1197.549
882.239	30.567	1248.662	1196.662
883.254	30.750	1247.446	1196.533
884.268	30.692	1246.856	1195.450
885.283	30.846	1245.204	1194.719
886.298	30.662	1243.964	1192.199
887.312	30.537	1243.084	1190.408
888.327	30.552	1241.817	1189.151
889.341	30.391	1240.830	1187.029
890.356	30.396	1240.385	1186.490
891.371	30.463	1240.126	1186.533
892.385	30.565	1238.737	1185.712
893.400	30.682	1237.848	1185.472
894.414	30.600	1236.903	1183.899
895.429	30.823	1235.932	1184.254
896.444	31.400	1235.371	1187.258
897.458	31.379	1235.301	1186.918
898.473	31.423	1233.193	1185.027
899.487	30.897	1231.595	1180.002
900.502	30.671	1230.216	1177.103
901.517	30.571	1228.122	1174.324
902.531	30.506	1227.235	1172.923
903.546	30.560	1226.910	1172.817
904.560	30.444	1226.197	1171.257
905.575	30.458	1224.970	1170.036
906.589	30.460	1224.022	1169.000
907.604	30.350	1223.441	1167.612
