DTS Sentinel unit serial number:	SN409020Multiplexer serial number:	ORYXHardware model number:	OX4-SRSoftware version number:	ORYX F/W v3.00 Oryx Data Collector v3.7.2.0data status	okinstallation	HaddamTimeLapsedifferential loss correction	single-endedforward channel	channel 3reverse channel	N/Adate	2011/06/21time	20:41:17forward acquisition time	30.00reverse acquisition time	0.00gamma	498.7831k internal	0.1773k external	0.1773temperature offset calibration	1.0074default loss term (dB/km)	0.3790temperature slope calibration	1.3530multiplexer offset coefficient	1.0000multiplexer slope coefficient	1.0000fibre end	0.00T internal ref (°C)	29.22T ext. ref 1 (°C)	21.45T ext. ref 2 (°C)	0.02length (m)	temperature (°C)	Stokes	anti-Stokes-747.200	-98.366	-0.473	-0.158
-746.185	30.439	0.148	0.166
-745.171	-69.966	-0.494	0.246
-744.156	291.793	-0.114	-0.273
-743.142	388.699	0.134	-0.367
-742.127	218.460	0.151	0.317
-741.112	-84.969	-0.079	0.032
-740.098	97.650	-0.143	0.216
-739.083	-116.018	0.101	0.025
-738.069	155.834	0.347	0.628
-737.054	-122.384	-0.402	0.085
-736.039	-200.000	0.045	-0.264
-735.025	74.568	-0.027	0.037
-734.010	-200.000	0.045	0.489
-732.996	0.596	0.263	0.247
-731.981	-141.355	0.282	0.037
-730.966	31.846	0.372	0.420
-729.952	521.689	-0.122	-0.379
-728.937	800.000	0.045	0.188
-727.923	535.847	-0.110	0.344
-726.908	-7.190	-0.222	-0.197
-725.894	10.776	0.337	0.337
-724.879	800.000	-0.052	-0.201
-723.864	639.935	0.019	0.063
-722.850	-67.537	-0.594	0.304
-721.835	-171.854	-0.284	-0.012
-720.821	-200.000	-0.006	-0.100
-719.806	42.908	-0.225	-0.269
-718.791	-105.176	0.250	-0.074
-717.777	-123.554	-0.296	0.061
-716.762	800.000	0.067	-0.356
-715.748	18.847	0.384	0.403
-714.733	-69.102	0.340	-0.171
-713.718	-18.847	0.081	-0.066
-712.704	-135.091	-0.327	-0.051
-711.689	-108.723	0.352	-0.098
-710.675	-25.574	-0.160	-0.123
-709.660	17.703	-0.177	-0.185
-708.645	71.712	0.006	0.008
-707.631	-24.913	-0.334	0.260
-706.616	-15.156	0.117	0.098
-705.602	76.562	0.130	0.181
-704.587	-67.027	0.413	0.213
-703.572	-200.000	-0.006	-0.211
-702.558	-173.635	0.211	0.008
-701.543	800.000	-0.008	-0.031
-700.529	-44.179	-0.387	0.254
-699.514	800.000	-0.061	-0.335
-698.499	-200.000	0.025	0.180
-697.485	-61.114	0.459	-0.253
-696.470	-200.000	0.031	0.341
-695.456	-57.971	-0.235	-0.134
-694.441	-200.000	-0.086	0.535
-693.426	-58.023	-0.162	-0.093
-692.412	-102.390	0.148	0.046
-691.397	-136.465	-0.477	0.072
-690.383	-200.000	0.039	0.238
-689.368	800.000	0.106	-0.453
-688.354	-11.659	0.105	-0.090
-687.339	-192.258	-0.308	-0.004
-686.324	32.941	-0.282	-0.319
-685.310	716.242	-0.088	0.308
-684.295	75.067	-0.061	-0.085
-683.281	800.000	-0.092	0.428
-682.266	168.381	-0.083	0.154
-681.251	285.803	0.094	-0.222
-680.237	-95.952	-0.244	-0.084
-679.222	800.000	0.088	0.336
-678.208	10.778	0.090	-0.090
-677.193	127.269	0.279	-0.465
-676.178	800.000	0.051	-0.274
-675.164	-155.514	-0.602	0.050
-674.149	-64.598	-0.389	-0.206
-673.135	-91.179	0.284	0.106
-672.120	800.000	-0.031	0.154
-671.105	-125.449	-0.348	-0.069
-670.091	-141.107	-0.188	0.025
-669.076	-132.973	0.333	-0.055
-668.062	-97.178	0.480	-0.163
-667.047	-200.000	-0.010	0.098
-666.032	-200.000	0.003	0.083
-665.018	280.041	0.258	0.606
-664.003	239.319	0.096	-0.210
-662.989	-96.025	-0.183	-0.063
-661.974	203.618	0.116	-0.236
-660.959	-70.194	-0.158	0.078
-659.945	-96.304	0.087	-0.030
-658.930	-163.277	0.420	0.026
-657.916	-34.199	0.261	0.187
-656.901	285.334	0.147	-0.348
-655.886	78.214	0.220	0.308
-654.872	-200.000	0.048	-0.311
-653.857	-200.000	-0.150	-0.000
-652.843	4.061	-0.074	0.071
-651.828	248.798	-0.191	-0.425
-650.814	800.000	-0.016	0.079
-649.799	-200.000	0.007	-0.230
-648.784	-200.000	0.018	-0.486
-647.770	-3.994	0.219	-0.199
-646.755	-91.614	0.048	0.018
-645.741	19.283	-0.448	-0.470
-644.726	-1.467	0.190	-0.175
-643.711	-102.483	-0.523	-0.163
-642.697	-1.675	-0.357	0.328
-641.682	62.807	-0.182	0.238
-640.668	-115.512	0.308	0.075
-639.653	65.326	0.148	0.196
-638.638	538.602	-0.134	-0.420
-637.624	-135.048	0.260	-0.040
-636.609	212.660	-0.101	0.209
-635.595	-81.631	-0.383	0.164
-634.580	-160.611	0.474	-0.033
-633.565	-200.000	0.015	-0.165
-632.551	127.562	-0.246	-0.408
-631.536	-109.313	-0.293	-0.080
-630.522	-49.581	0.253	-0.157
-629.507	-200.000	0.046	-0.504
-628.492	196.509	0.285	-0.570
-627.478	63.152	-0.219	-0.287
-626.463	717.047	0.063	0.221
-625.449	68.785	0.159	-0.213
-624.434	800.000	-0.043	0.245
-623.419	435.705	-0.012	-0.034
-622.405	615.423	-0.128	0.423
-621.390	383.356	0.081	0.220
-620.376	800.000	0.137	0.517
-619.361	163.632	-0.261	0.481
-618.346	-140.314	-0.347	-0.047
-617.332	-161.622	-0.094	-0.006
-616.317	36.591	0.296	-0.341
-615.303	-144.450	0.350	0.042
-614.288	-200.000	-0.002	0.093
-613.273	377.928	0.128	-0.344
-612.259	-10.080	0.330	-0.286
-611.244	-150.096	0.544	-0.054
-610.230	-200.000	0.013	0.189
-609.215	-81.329	-0.224	0.096
-608.201	217.471	0.150	-0.312
-607.186	-53.331	-0.489	-0.292
-606.171	-14.545	-0.030	-0.025
-605.157	24.975	-0.530	-0.574
-604.142	-96.931	-0.615	0.209
-603.128	-200.000	-0.016	0.139
-602.113	-176.277	-0.259	-0.009
-601.098	-200.000	-0.017	0.656
-600.084	100.628	-0.140	0.212
-599.069	-126.615	0.127	-0.024
-598.055	-102.618	0.335	-0.104
-597.040	230.147	-0.077	-0.166
-596.025	-167.941	-0.437	-0.022
-595.011	-97.168	-0.412	-0.140
-593.996	-96.107	-0.636	-0.219
-592.982	-134.442	0.277	0.044
-591.967	-107.145	0.352	0.101
-590.952	-140.790	-0.548	-0.073
-589.938	408.918	-0.180	-0.499
-588.923	-144.567	0.143	-0.017
-587.909	-119.190	-0.099	0.022
-586.894	-61.979	-0.474	-0.257
-585.879	-102.675	0.257	-0.079
-584.865	-200.000	-0.005	0.252
-583.850	486.390	-0.046	0.137
-582.836	-98.792	-0.040	0.013
-581.821	-58.952	-0.376	-0.211
-580.806	391.816	-0.138	0.375
-579.792	-106.809	0.262	0.075
-578.777	-69.365	0.314	-0.156
-577.763	121.561	0.101	-0.165
-576.748	59.728	-0.342	-0.441
-575.733	418.694	0.044	0.124
-574.719	-200.000	-0.013	0.119
-573.704	159.730	0.224	-0.408
-572.690	-94.397	0.357	0.126
-571.675	-124.841	-0.520	0.104
-570.661	-200.000	0.052	-0.373
-569.646	119.098	0.084	0.136
-568.631	-50.212	0.258	-0.159
-567.617	-20.246	0.055	-0.044
-566.602	278.925	0.066	-0.154
-565.588	-121.955	0.096	-0.020
-564.573	-4.555	0.189	-0.170
-563.558	-84.103	-0.299	0.123
-562.544	740.463	-0.036	0.127
-561.529	-4.929	-0.315	-0.282
-560.515	-164.871	0.266	-0.015
-559.500	-27.250	0.167	0.126
-558.485	776.408	-0.057	0.204
-557.471	200.995	0.213	0.428
-556.456	-200.000	0.000	-0.184
-555.442	-59.371	-0.358	-0.200
-554.427	-200.000	-0.007	-0.227
-553.412	-44.416	0.119	-0.077
-552.398	-153.307	-0.101	-0.009
-551.383	800.000	-0.046	0.261
-550.369	-17.738	-0.488	-0.398
-549.354	123.427	-0.095	-0.155
-548.339	146.493	-0.119	-0.208
-547.325	-68.285	0.112	0.057
-546.310	-200.000	-0.002	-0.592
-545.296	-200.000	0.014	-0.560
-544.281	404.392	0.159	-0.437
-543.266	-52.896	0.140	0.084
-542.252	-200.000	0.047	-0.417
-541.237	-96.666	-0.404	-0.138
-540.223	-93.299	-0.351	-0.126
-539.208	-200.000	0.056	0.330
-538.193	-200.000	-0.019	-0.444
-537.179	-101.280	0.401	-0.127
-536.164	33.846	-0.107	-0.121
-535.150	-200.000	-0.090	-0.582
-534.135	-54.953	0.103	0.060
-533.121	800.000	0.031	-0.171
-532.106	-128.345	0.484	0.089
-531.091	-75.166	-0.286	0.133
-530.077	425.282	-0.041	-0.114
-529.062	-200.000	0.005	-0.084
-528.048	-10.777	0.181	-0.156
-527.033	212.719	-0.157	0.323
-526.018	-189.278	-0.409	0.006
-525.004	-50.683	0.119	0.073
-523.989	68.360	-0.252	0.336
-522.975	-17.806	0.103	-0.084
-521.960	166.769	0.062	-0.115
-520.945	-52.034	0.315	-0.190
-519.931	-167.984	0.083	0.004
-518.916	800.000	-0.071	-0.313
-517.902	-137.513	0.782	0.114
-516.887	-34.194	0.240	-0.171
-515.872	266.015	0.108	0.246
-514.858	250.928	-0.152	-0.336
-513.843	460.747	0.140	0.409
-512.829	99.074	0.190	-0.286
-511.814	800.000	-0.145	-0.527
-510.799	-147.693	0.276	-0.030
-509.785	800.000	-0.113	-0.460
-508.770	800.000	0.108	-0.458
-507.756	800.000	-0.145	0.666
-506.741	27.422	0.113	-0.124
-505.726	-93.339	-0.123	-0.044
-504.712	180.276	0.107	-0.204
-503.697	310.031	-0.137	-0.334
-502.683	100.779	0.203	-0.307
-501.668	-73.172	-0.326	0.155
-500.653	219.096	0.153	-0.319
-499.639	-100.987	0.189	-0.060
-498.624	26.849	0.231	-0.251
-497.610	-119.007	-0.255	0.058
-496.595	37.410	-0.258	0.298
-495.581	-95.423	0.803	-0.279
-494.566	468.410	-0.060	0.176
-493.551	-149.399	-0.167	0.017
-492.537	37.737	-0.237	-0.273
-491.522	720.050	0.102	-0.353
-490.508	26.583	0.300	-0.326
-489.493	163.956	-0.264	0.484
-488.478	15.803	0.117	0.120
-487.464	-0.807	-0.299	0.275
-486.449	-137.625	-0.222	-0.032
-485.435	-72.433	0.456	0.218
-484.420	82.056	-0.086	0.122
-483.405	227.219	0.333	0.705
-482.391	-200.000	0.020	0.128
-481.376	800.000	-0.007	0.032
-480.362	-29.185	0.259	0.192
-479.347	-96.689	0.148	-0.050
-478.332	220.579	-0.056	-0.116
-477.318	800.000	-0.043	0.210
-476.303	9.626	0.250	-0.246
-475.289	74.845	0.142	0.194
-474.274	-20.069	-0.226	-0.181
-473.259	94.307	-0.304	0.449
-472.245	-47.842	0.144	0.090
-471.230	-200.000	-0.021	0.218
-470.216	-16.896	0.289	0.237
-469.201	555.010	0.160	0.503
-468.186	-38.712	-0.451	0.309
-467.172	65.806	-0.214	0.281
-466.157	-169.700	-0.272	0.013
-465.143	-30.616	0.183	0.134
-464.128	800.000	-0.037	0.201
-463.113	7.438	-0.206	0.200
-462.099	23.408	-0.183	0.195
-461.084	-127.164	-0.269	0.051
-460.070	-101.680	0.360	-0.112
-459.055	40.115	0.154	-0.180
-458.040	119.370	0.096	0.154
-457.026	-200.000	-0.010	0.166
-456.011	-191.694	0.285	-0.004
-454.997	-61.160	0.207	-0.113
-453.982	326.810	-0.132	0.329
-452.968	237.571	0.006	-0.012
-451.953	800.000	0.048	-0.267
-450.938	-78.742	-0.282	-0.124
-449.924	-164.350	0.255	-0.015
-448.909	-155.259	-0.355	-0.030
-447.895	-35.542	0.390	-0.274
-446.880	-45.343	0.117	-0.075
-445.865	335.284	-0.084	-0.213
-444.851	96.478	0.095	-0.141
-443.836	421.363	0.133	0.370
-442.822	-147.540	-0.246	0.027
-441.807	-112.052	0.472	-0.122
-440.792	-200.000	0.038	0.245
-439.778	16.269	-0.226	0.232
-438.763	93.097	0.180	0.265
-437.749	-90.013	-0.187	-0.070
-436.734	-45.286	0.204	-0.131
-435.719	-89.872	-0.097	0.036
-434.705	73.419	0.090	0.123
-433.690	504.727	0.108	-0.325
-432.676	-43.740	0.552	-0.360
-431.661	-112.669	0.220	-0.056
-430.646	84.839	-0.090	0.129
-429.632	800.000	-0.024	0.103
-428.617	-47.771	0.405	-0.254
-427.603	-200.000	0.000	0.343
-426.588	-200.000	0.004	0.135
-425.573	-200.000	-0.006	-0.395
-424.559	-79.901	-0.137	0.060
-423.544	165.794	0.191	-0.352
-422.530	120.867	-0.144	-0.232
-421.515	338.148	0.131	0.333
-420.500	-200.000	0.045	0.355
-419.486	-146.696	-0.421	0.047
-418.471	345.362	-0.224	-0.571
-417.457	13.133	-0.158	-0.159
-416.442	686.901	0.058	-0.198
-415.428	57.675	-0.071	0.090
-414.413	-200.000	0.023	-0.487
-413.398	65.385	0.140	-0.184
-412.384	-114.831	-0.524	-0.129
-411.369	-69.926	0.324	0.159
-410.355	-127.379	-0.262	0.049
-409.340	143.978	-0.347	-0.601
-408.325	800.000	-0.042	-0.177
-407.311	1.133	-0.212	0.197
-406.296	391.346	-0.075	0.203
-405.282	-38.230	0.394	0.270
-404.267	-200.000	0.007	-0.371
-403.252	-99.672	0.320	-0.103
-402.238	-119.346	-0.650	0.145
-401.223	800.000	0.114	-0.464
-400.209	-81.553	-0.338	-0.143
-399.194	-200.000	-0.027	0.340
-398.179	-11.242	-0.294	0.250
-397.165	-200.000	0.444	-0.000
-396.150	-200.000	-0.027	-0.562
-395.136	-97.564	-0.059	0.020
-394.121	-92.137	-0.265	0.096
-393.106	496.927	0.143	0.427
-392.092	161.761	0.126	0.228
-391.077	94.044	0.181	-0.266
-390.063	76.961	0.373	-0.513
-389.048	1.119	0.246	0.228
-388.033	341.087	0.043	-0.110
-387.019	-142.016	-0.647	-0.082
-386.004	-200.000	-0.026	0.407
-384.990	584.068	0.087	0.277
-383.975	-160.362	0.167	-0.011
-382.960	331.956	-0.039	-0.098
-381.946	-72.291	0.196	-0.094
-380.931	-46.976	-0.158	0.100
-379.917	-0.461	-0.241	0.221
-378.902	-56.523	-0.269	0.154
-377.888	55.762	-0.309	0.388
-376.873	791.766	-0.062	0.223
-375.858	-161.370	-0.308	0.020
-374.844	229.023	0.175	-0.370
-373.829	-200.000	-0.079	-0.455
-372.815	-68.665	0.352	0.175
-371.800	-18.250	-0.364	-0.294
-370.785	-1.821	0.113	-0.102
-369.771	-200.000	-0.017	-0.268
-368.756	562.866	0.218	0.685
-367.742	-34.073	0.212	-0.150
-366.727	-38.693	0.234	0.159
-365.712	800.000	0.012	0.062
-364.698	41.517	0.181	-0.212
-363.683	-200.000	-0.021	0.185
-362.669	251.662	0.186	0.411
-361.654	-67.084	0.265	0.135
-360.639	507.410	-0.041	0.123
-359.625	-135.938	0.340	0.051
-358.610	-132.252	-0.187	0.031
-357.596	-73.828	0.296	0.139
-356.581	-200.000	0.062	-0.630
-355.566	-0.340	-0.338	-0.310
-354.552	167.875	-0.179	0.329
-353.537	29.406	0.646	0.709
-352.523	-90.919	0.289	-0.107
-351.508	71.470	0.218	-0.293
-350.493	-57.618	-0.282	0.159
-349.479	659.362	0.004	0.012
-348.464	800.000	-0.061	-0.274
-347.450	-16.686	0.412	0.337
-346.435	120.623	0.102	0.163
-345.420	53.473	0.288	0.356
-344.406	24.220	-0.141	0.150
-343.391	-147.929	0.456	0.048
-342.377	-70.233	-0.093	-0.045
-341.362	-21.710	-0.321	0.252
-340.348	74.258	0.209	0.284
-339.333	-148.131	-0.450	-0.048
-338.318	115.541	-0.052	0.083
-337.304	-91.567	-0.199	0.073
-336.289	-51.206	-0.146	0.088
-335.275	20.741	-0.370	-0.387
-334.260	-153.090	0.173	0.016
-333.245	12.332	-0.347	-0.345
-332.231	-104.865	-0.445	0.131
-331.216	-122.685	-0.359	0.074
-330.202	-91.590	-0.189	-0.069
-329.187	7.297	0.162	-0.156
-328.172	280.575	-0.316	0.733
-327.158	45.356	0.353	0.421
-326.143	-139.866	0.369	-0.050
-325.129	-200.000	-0.003	-0.488
-324.114	-98.238	0.503	-0.166
-323.099	-42.659	0.551	-0.361
-322.085	-200.000	0.063	-0.623
-321.070	800.000	0.017	-0.081
-320.056	58.589	0.188	-0.238
-319.041	-50.554	0.230	-0.139
-318.026	-46.582	0.050	-0.032
-317.012	800.000	0.154	0.677
-315.997	-200.000	0.030	0.247
-314.983	110.550	0.174	-0.271
-313.968	-200.000	-0.010	0.174
-312.953	-200.000	0.041	0.336
-311.939	221.322	0.161	0.335
-310.924	800.000	-0.092	0.332
-309.910	-73.131	0.225	-0.106
-308.895	66.205	-0.288	0.378
-307.880	49.634	0.187	0.228
-306.866	128.207	0.123	0.202
-305.851	800.000	0.087	0.415
-304.837	800.000	0.073	-0.341
-303.822	800.000	-0.043	0.156
-302.807	-200.000	0.034	0.647
-301.793	293.923	0.116	0.275
-300.778	376.442	0.151	0.400
-299.764	800.000	-0.104	0.501
-298.749	14.348	0.250	-0.251
-297.735	-1.200	-0.051	0.047
-296.720	-112.421	0.144	0.037
-295.705	-127.530	0.123	0.023
-294.691	34.198	0.089	-0.100
-293.676	-117.165	-0.270	0.063
-292.662	-200.000	0.025	-0.345
-291.647	122.859	-0.198	0.320
-290.632	-82.072	-0.387	0.162
-289.618	46.091	0.310	0.370
-288.603	5.741	0.392	-0.373
-287.589	-40.231	-0.510	-0.341
-286.574	153.534	0.073	0.129
-285.559	-61.275	-0.304	-0.164
-284.545	121.833	0.136	-0.219
-283.530	-113.052	-0.532	0.134
-282.516	800.000	-0.150	0.581
-281.501	-200.000	-0.027	-0.276
-280.486	470.944	0.096	0.279
-279.472	173.957	-0.108	-0.201
-278.457	-111.737	-0.235	0.061
-277.443	107.308	-0.173	0.265
-276.428	52.411	-0.172	0.211
-275.413	140.052	0.158	0.269
-274.399	-180.457	-0.155	-0.004
-273.384	395.658	-0.061	-0.165
-272.370	74.904	0.275	-0.374
-271.355	-147.662	-0.037	0.004
-270.340	-154.801	0.476	0.040
-269.326	-86.255	-0.197	-0.078
-268.311	56.925	-0.061	-0.077
-267.297	-200.000	0.012	-0.211
-266.282	-69.638	-0.177	-0.087
-265.267	98.562	0.151	0.224
-264.253	800.000	0.044	0.167
-263.238	-28.628	0.098	-0.073
-262.224	-200.000	-0.045	0.263
-261.209	-104.770	-0.229	0.067
-260.195	301.532	0.274	0.656
-259.180	-103.991	-0.441	0.132
-258.165	-130.292	-0.286	-0.050
-257.151	800.000	-0.018	-0.081
-256.136	-38.557	0.103	0.070
-255.122	800.000	-0.030	-0.106
-254.107	310.213	-0.119	0.287
-253.092	207.533	-0.192	0.387
-252.078	-200.000	0.055	-0.336
-251.063	515.355	0.101	-0.304
-250.049	18.585	-0.331	-0.340
-249.034	-143.840	-0.640	-0.077
-248.019	-96.620	0.190	0.064
-247.005	33.943	0.166	0.186
-245.990	243.754	0.186	0.402
-244.976	10.269	-0.126	-0.123
-243.961	43.883	-0.188	-0.221
-242.946	307.471	0.145	0.350
-241.932	-65.552	-0.297	0.153
-240.917	5.248	0.120	-0.114
-239.903	8.285	-0.267	-0.258
-238.888	-87.862	0.334	-0.129
-237.873	556.250	-0.189	0.590
-236.859	-76.621	0.073	0.033
-235.844	-129.287	0.174	0.031
-234.830	-200.000	-0.016	0.299
-233.815	111.943	-0.346	0.538
-232.800	198.791	0.083	0.164
-231.786	181.738	0.184	-0.350
-230.771	42.893	0.434	-0.509
-229.757	-179.117	-0.445	0.013
-228.742	547.200	-0.163	-0.505
-227.727	559.915	0.057	0.178
-226.713	-87.236	0.155	0.060
-225.698	-200.000	0.047	0.406
-224.684	159.960	-0.027	-0.049
-223.669	-18.437	0.261	-0.209
-222.655	-200.000	0.002	-0.118
-221.640	346.425	0.020	0.050
-220.625	85.199	-0.086	-0.121
-219.611	242.203	-0.136	-0.294
-218.596	-21.058	-0.200	-0.157
-217.582	-109.460	-0.078	-0.021
-216.567	381.334	-0.338	0.896
-215.552	-142.742	0.293	-0.036
-214.538	238.156	0.037	-0.080
-213.523	-132.428	0.045	-0.007
-212.509	-200.000	-0.011	0.229
-211.494	-145.390	-0.412	0.047
-210.479	-79.636	-0.536	0.231
-209.465	-145.355	-0.467	-0.053
-208.450	-72.335	-0.677	-0.321
-207.436	-102.801	-0.059	0.018
-206.421	4.334	0.123	-0.116
-205.406	38.545	0.276	0.316
-204.392	-26.568	-0.100	0.075
-203.377	321.412	0.099	0.242
-202.363	45.091	-0.117	-0.138
-201.348	-103.167	0.125	0.038
-200.333	800.000	0.035	-0.178
-199.319	0.135	-0.237	0.217
-198.304	534.571	-0.032	0.097
-197.290	377.411	-0.150	0.395
-196.275	28.094	-0.089	-0.097
-195.260	800.000	-0.009	-0.051
-194.246	-74.845	0.207	0.095
-193.231	-200.000	0.065	-0.473
-192.217	-129.163	0.229	-0.041
-191.202	800.000	0.096	-0.355
-190.187	800.000	0.087	-0.494
-189.173	-103.778	0.384	-0.115
-188.158	800.000	-0.123	0.556
-187.144	-31.302	0.398	0.287
-186.129	101.997	-0.139	0.209
-185.114	-91.818	0.270	0.098
-184.100	-99.956	0.303	0.097
-183.085	-77.846	0.331	-0.146
-182.071	-118.482	-0.307	-0.069
-181.056	-22.970	-0.074	-0.057
-180.042	800.000	-0.031	0.153
-179.027	-136.420	0.524	-0.077
-178.012	-200.000	-0.025	0.222
-176.998	23.741	-0.153	0.161
-175.983	-193.703	-0.088	-0.001
-174.969	-123.421	0.397	-0.080
-173.954	-200.000	0.061	0.455
-172.939	-6.470	-0.372	0.325
-171.925	-178.521	0.405	-0.012
-170.910	-200.000	-0.031	0.588
-169.896	185.937	-0.076	0.145
-168.881	94.787	-0.160	-0.234
-167.866	47.333	0.151	-0.180
-166.852	-65.764	0.471	0.241
-165.837	68.992	0.168	0.221
-164.823	-108.645	-0.116	-0.032
-163.808	-163.243	-0.926	-0.056
-162.793	-21.569	0.188	-0.147
-161.779	-2.707	0.078	-0.070
-160.764	-131.658	-0.145	0.024
-159.750	-169.281	0.093	0.004
-158.735	118.230	0.061	0.097
-157.720	-198.639	0.251	-0.002
-156.706	-112.167	0.348	-0.089
-155.691	-129.300	-0.305	0.054
-154.677	-78.374	0.212	-0.093
-153.662	335.158	0.191	-0.477
-152.647	481.739	0.200	-0.584
-151.633	-170.146	-0.274	0.012
-150.618	-16.018	-0.465	0.379
-149.604	-77.723	-0.179	0.079
-148.589	677.545	-0.111	0.373
-147.574	-177.418	0.573	-0.018
-146.560	-46.552	0.202	0.127
-145.545	455.411	0.106	0.302
-144.531	184.831	-0.251	-0.479
-143.516	24.602	0.214	-0.227
-142.502	-98.544	-0.485	0.158
-141.487	-200.000	-0.045	0.392
-140.472	34.081	-0.169	0.189
-139.458	-110.796	0.204	-0.053
-138.443	-200.000	-0.031	-0.624
-137.429	-100.515	0.277	-0.087
-136.414	-145.583	0.246	0.028
-135.399	-125.220	0.184	0.036
-134.385	-31.778	0.222	0.159
-133.370	-200.000	0.046	-0.394
-132.356	-48.838	-0.476	-0.291
-131.341	800.000	-0.094	0.339
-130.326	577.558	-0.174	-0.549
-129.312	-42.480	-0.169	-0.110
-128.297	800.000	0.147	-0.611
-127.283	-86.658	0.381	-0.149
-126.268	237.430	0.046	-0.098
-125.253	37.988	0.356	-0.405
-124.239	-150.157	0.462	0.045
-123.224	64.175	-0.349	-0.450
-122.210	-200.000	-0.012	0.201
-121.195	92.209	0.088	-0.128
-120.180	453.371	0.059	0.169
-119.166	-124.528	-0.541	-0.107
-118.151	-200.000	0.009	0.215
-117.137	-20.923	0.313	-0.245
-116.122	-26.396	-0.300	-0.225
-115.107	11.016	0.304	0.298
-114.093	-200.000	0.032	0.254
-113.078	-58.138	0.488	0.272
-112.064	-101.369	0.544	-0.169
-111.049	210.336	0.132	-0.266
-110.034	-92.136	-0.287	-0.103
-109.020	-200.000	0.010	-0.497
-108.005	-200.000	-0.007	-0.355
-106.991	800.000	-0.055	-0.244
-105.976	-80.871	0.412	-0.174
-104.962	-173.131	0.244	0.009
-103.947	-62.197	0.078	-0.041
-102.932	-77.201	0.125	-0.055
-101.918	800.000	0.083	0.352
-100.903	800.000	0.041	0.219
-99.889	181.937	0.045	0.085
-98.874	-5.882	0.180	-0.158
-97.859	22.350	0.184	0.192
-96.845	-200.000	-0.077	0.504
-95.830	172.740	-0.157	0.290
-94.816	-17.842	-0.532	0.427
-93.801	-200.000	0.315	0.001
-92.786	53.020	0.217	-0.265
-91.772	-98.924	0.195	-0.063
-90.757	-65.672	-0.117	-0.060
-89.743	-48.605	-0.390	0.239
-88.728	-200.000	0.011	0.244
-87.713	-84.797	-0.334	0.133
-86.699	-100.587	0.759	0.238
-85.684	16.167	0.355	-0.358
-84.670	123.947	0.088	0.142
-83.655	-200.000	0.011	-0.672
-82.640	-44.107	0.327	-0.210
-81.626	343.981	0.192	-0.485
-80.611	-163.049	0.239	0.015
-79.597	377.815	-0.162	-0.425
-78.582	-93.543	0.254	-0.089
-77.567	-124.138	-0.425	0.084
-76.553	56.088	0.263	-0.327
-75.538	39.724	0.218	-0.250
-74.524	-82.611	-0.314	0.129
-73.509	-150.022	-0.502	-0.049
-72.494	-66.360	0.243	-0.123
-71.480	-12.745	-0.163	-0.136
-70.465	-58.109	-0.307	-0.170
-69.451	800.000	0.034	-0.130
-68.436	-200.000	-0.001	0.285
-67.422	800.000	0.029	-0.157
-66.407	114.069	-0.138	0.214
-65.392	-11.811	0.265	-0.222
-64.378	429.105	-0.125	0.347
-63.363	-20.374	0.198	-0.156
-62.349	-86.662	-0.403	-0.157
-61.334	17.527	-1.701	-1.727
-60.319	121.822	0.506	0.807
-59.305	196.354	-3.639	-7.100
-58.290	51.410	3.386	4.111
-57.276	455.956	3.774	10.748
-56.261	-200.000	20.090	285.690
-55.246	389.437	1258.752	3346.973
-54.232	54.645	2862.121	3527.561
-53.217	53.439	2715.350	3327.789
-52.203	38.823	2442.101	2786.127
-51.188	35.452	2099.560	2353.777
-50.173	31.193	1978.177	2168.008
-49.159	29.927	1967.458	2141.460
-48.144	29.587	1963.910	2133.567
-47.130	29.578	1961.129	2130.367
-46.115	29.463	1959.508	2127.185
-45.100	29.458	1958.850	2126.321
-44.086	29.421	1956.870	2123.668
-43.071	29.445	1954.673	2121.474
-42.057	29.399	1952.874	2118.909
-41.042	29.414	1952.646	2118.750
-40.027	29.457	1950.895	2117.256
-39.013	29.477	1949.136	2115.495
-37.998	29.481	1947.995	2114.217
-36.984	29.389	1946.703	2111.671
-35.969	29.475	1944.828	2110.541
-34.954	29.455	1943.684	2108.997
-33.940	29.435	1943.206	2108.156
-32.925	29.475	1941.391	2106.569
-31.911	29.344	1940.385	2103.892
-30.896	29.370	1939.631	2103.288
-29.881	29.334	1937.913	2100.922
-28.867	29.270	1936.104	2098.152
-27.852	29.215	1935.403	2096.678
-26.838	29.085	1934.050	2093.641
-25.823	29.132	1932.277	2092.174
-24.809	29.290	1930.602	2092.087
-23.794	29.212	1928.657	2089.010
-22.779	29.206	1927.781	2087.905
-21.765	29.178	1926.123	2085.705
-20.750	29.161	1925.383	2084.624
-19.736	29.272	1924.110	2084.436
-18.721	29.182	1922.447	2081.525
-17.706	29.182	1922.110	2081.074
-16.692	29.134	1921.132	2079.392
-15.677	29.105	1920.421	2078.210
-14.663	29.081	1917.896	2075.122
-13.648	29.066	1916.684	2073.559
-12.633	29.056	1915.389	2071.959
-11.619	29.064	1913.656	2070.095
-10.604	29.179	1911.859	2069.363
-9.590	29.110	1911.537	2068.153
-8.575	29.024	1910.243	2065.708
-7.560	29.093	1908.177	2064.166
-6.546	29.078	1907.444	2063.128
-5.531	29.044	1906.618	2061.766
-4.517	28.984	1905.992	2060.333
-3.502	29.086	1903.240	2058.421
-2.487	29.041	1903.265	2057.858
-1.473	28.991	1900.144	2053.847
-0.458	28.456	1878.995	2024.970
0.556	23.829	2016.905	2105.915
1.571	21.474	2227.213	2294.213
2.586	22.477	2269.752	2351.226
3.600	22.533	2272.688	2354.733
4.615	22.533	2271.503	2353.220
5.629	22.520	2269.206	2350.392
6.644	22.346	2268.547	2347.099
7.659	22.433	2265.812	2345.145
8.673	22.503	2264.543	2344.485
9.688	22.217	2271.836	2347.915
10.702	20.495	2349.484	2403.956
11.717	18.090	2415.262	2436.546
12.731	8.759	2391.085	2278.953
13.746	1.197	2371.736	2152.658
14.761	0.269	2367.345	2135.199
15.775	0.187	2365.233	2131.872
16.790	0.202	2363.700	2130.439
17.804	0.097	2362.937	2128.010
18.819	0.087	2361.773	2126.561
19.834	0.058	2359.687	2124.017
20.848	0.124	2357.377	2122.621
21.863	0.051	2356.751	2120.769
22.877	0.050	2355.546	2119.419
23.892	0.058	2352.199	2116.267
24.907	0.096	2349.833	2114.413
25.921	-0.013	2348.833	2111.729
26.936	0.114	2345.538	2110.299
27.950	0.078	2342.577	2106.873
28.965	0.030	2341.916	2105.358
29.980	0.005	2341.387	2104.282
30.994	0.173	2337.790	2103.155
32.009	4.276	2351.198	2172.811
33.023	14.507	2381.728	2346.093
34.038	18.793	2388.553	2413.192
35.053	18.837	2385.649	2410.585
36.067	18.818	2383.239	2407.593
37.082	18.693	2380.767	2403.049
38.096	18.802	2378.313	2401.814
39.111	18.999	2376.892	2402.865
40.126	19.250	2375.780	2404.966
41.140	19.458	2373.037	2404.823
42.155	19.342	2370.893	2400.733
43.169	19.208	2370.063	2397.730
44.184	19.035	2366.817	2391.750
45.199	18.996	2364.725	2388.804
46.213	19.151	2363.863	2389.804
47.228	19.251	2361.994	2389.028
48.242	19.263	2360.437	2387.335
49.257	19.340	2359.974	2387.650
50.271	19.438	2356.949	2385.664
51.286	19.165	2354.317	2378.927
52.301	18.942	2352.274	2373.478
53.315	19.811	2355.824	2388.854
54.330	23.138	2365.144	2444.300
55.344	25.182	2366.897	2474.188
56.359	25.361	2363.548	2472.878
57.374	25.515	2362.538	2473.647
58.388	25.557	2359.689	2470.959
59.403	25.337	2355.520	2463.255
60.417	24.821	2352.022	2452.194
61.432	24.999	2350.263	2452.523
62.447	25.101	2349.684	2453.033
63.461	25.313	2347.245	2453.093
64.476	25.344	2345.738	2451.656
65.490	25.326	2342.692	2447.934
66.505	24.461	2338.858	2431.796
67.520	22.178	2329.461	2390.555
68.534	19.690	2321.277	2347.938
69.549	18.867	2316.648	2331.765
70.563	18.753	2312.930	2326.181
71.578	18.864	2311.044	2325.518
72.593	18.947	2309.799	2325.120
73.607	19.082	2309.334	2326.208
74.622	19.116	2307.577	2324.615
75.636	18.906	2303.679	2317.571
76.651	18.839	2301.734	2314.422
77.666	19.017	2298.821	2313.628
78.680	18.820	2296.169	2308.021
79.695	18.635	2293.857	2302.931
80.709	18.515	2292.291	2299.463
81.724	18.395	2290.316	2295.590
82.739	18.362	2288.492	2293.040
83.753	18.454	2286.101	2291.611
84.768	18.371	2284.808	2288.925
85.782	18.290	2282.537	2285.288
86.797	18.151	2280.124	2280.737
87.812	18.143	2278.535	2278.758
88.826	18.378	2277.701	2280.807
89.841	18.387	2275.040	2277.979
90.855	18.422	2272.283	2275.425
91.870	18.458	2270.848	2274.187
92.884	18.516	2269.454	2273.288
93.899	18.583	2268.206	2272.660
94.914	19.317	2271.403	2285.374
95.928	22.050	2280.029	2330.292
96.943	23.293	2278.156	2344.644
97.957	20.348	2267.240	2294.076
98.972	18.542	2260.315	2262.856
99.987	18.442	2256.347	2257.285
101.001	18.524	2253.603	2255.359
102.016	18.481	2251.946	2252.862
103.030	18.338	2249.172	2247.934
104.045	18.352	2246.749	2245.431
105.060	18.314	2245.245	2243.154
106.074	18.407	2243.144	2242.009
107.089	18.401	2242.427	2240.944
108.103	18.291	2242.519	2239.318
109.118	18.581	2239.267	2239.620
110.133	18.776	2237.601	2240.231
111.147	18.584	2235.807	2235.659
112.162	18.530	2235.115	2233.991
113.176	18.688	2233.040	2233.719
114.191	18.809	2230.782	2232.768
115.206	18.892	2229.302	2232.113
116.220	18.823	2228.076	2229.717
117.235	18.810	2226.251	2227.455
118.249	18.909	2223.391	2225.608
119.264	18.798	2223.014	2223.517
120.279	18.785	2220.196	2220.265
121.293	18.809	2217.845	2217.963
122.308	18.784	2217.674	2217.206
123.322	18.762	2216.091	2215.074
124.337	19.140	2217.044	2220.657
125.352	22.086	2225.858	2267.504
126.366	23.144	2224.537	2279.594
127.381	20.117	2212.231	2227.662
128.395	18.758	2206.510	2204.114
129.410	18.622	2204.413	2200.005
130.424	18.536	2203.215	2197.435
131.439	18.640	2201.336	2196.647
132.454	18.724	2199.314	2195.443
133.468	18.917	2197.484	2195.836
134.483	19.047	2195.958	2195.710
135.497	19.047	2194.955	2194.442
136.512	18.843	2192.847	2189.461
137.527	18.762	2190.218	2185.543
138.541	18.582	2188.386	2181.151
139.556	18.476	2187.838	2178.991
140.570	18.587	2185.493	2177.802
141.585	18.431	2183.676	2173.749
142.600	18.453	2182.391	2172.488
143.614	18.392	2180.898	2169.958
144.629	18.304	2178.131	2165.826
145.643	18.192	2177.324	2163.341
146.658	18.167	2175.873	2161.324
147.673	18.165	2172.990	2158.176
148.687	18.060	2172.416	2156.024
149.702	18.402	2171.657	2159.346
150.716	18.377	2170.736	2157.848
151.731	18.405	2169.005	2156.230
152.746	18.514	2167.697	2156.049
153.760	19.219	2171.877	2168.867
154.775	22.305	2179.793	2215.650
155.789	23.523	2178.112	2229.071
156.804	20.675	2165.899	2180.478
157.819	18.614	2158.181	2146.555
158.833	18.282	2154.867	2138.832
159.848	18.344	2153.258	2137.762
160.862	18.412	2151.466	2136.570
161.877	18.598	2150.857	2138.045
162.892	18.632	2150.290	2137.653
163.906	18.656	2149.044	2136.451
164.921	18.603	2147.115	2133.626
165.935	18.616	2144.568	2130.992
166.950	18.750	2143.733	2131.583
167.964	18.768	2140.697	2128.535
168.979	18.579	2138.214	2123.456
169.994	18.316	2136.912	2118.645
171.008	18.241	2135.606	2116.159
172.023	18.379	2134.360	2116.384
173.037	18.477	2133.546	2116.548
174.052	18.714	2132.446	2118.142
175.067	18.762	2130.855	2116.895
176.081	18.670	2129.034	2113.692
177.096	18.708	2128.298	2113.180
178.110	18.774	2126.107	2111.572
179.125	18.880	2125.267	2111.797
180.140	18.799	2123.482	2108.768
181.154	18.795	2122.251	2107.241
182.169	18.906	2121.863	2107.976
183.183	19.829	2123.895	2121.118
184.198	23.022	2132.382	2168.788
185.213	23.707	2129.858	2174.397
186.227	20.502	2118.984	2123.730
187.242	19.074	2114.713	2101.674
188.256	18.789	2112.326	2095.562
189.271	18.662	2110.057	2091.501
190.286	18.639	2107.837	2088.763
191.300	18.711	2106.323	2087.896
192.315	18.655	2103.941	2084.606
193.329	18.924	2103.270	2086.973
194.344	19.167	2102.967	2089.380
195.359	19.212	2101.327	2088.049
196.373	18.798	2099.191	2080.637
197.388	18.809	2095.646	2077.015
198.402	18.586	2093.416	2071.845
199.417	18.443	2091.630	2068.096
200.432	18.362	2090.862	2066.107
201.446	18.495	2089.528	2066.146
202.461	18.520	2086.304	2063.025
203.475	18.406	2085.003	2060.112
204.490	18.448	2083.311	2058.696
205.504	18.387	2081.204	2055.631
206.519	18.354	2078.355	2052.174
207.534	18.339	2077.474	2050.874
208.548	18.314	2076.466	2049.340
209.563	18.441	2075.676	2049.842
210.577	18.584	2074.016	2049.677
211.592	18.547	2074.273	2049.237
212.607	20.141	2079.028	2072.858
213.621	23.535	2086.306	2120.727
214.636	23.157	2080.531	2110.071
215.650	19.740	2070.829	2059.142
216.665	18.733	2066.124	2042.187
217.680	18.636	2063.759	2038.443
218.694	18.368	2062.683	2033.938
219.709	18.463	2060.221	2032.406
220.723	18.516	2059.224	2031.805
221.738	18.750	2057.976	2033.118
222.753	18.790	2055.937	2031.331
223.767	18.730	2054.452	2028.912
224.782	18.778	2052.235	2027.047
225.796	18.739	2050.566	2024.702
226.811	18.695	2049.594	2022.973
227.826	18.714	2048.204	2021.585
228.840	18.574	2047.089	2018.584
229.855	18.643	2044.762	2016.859
230.869	18.578	2043.673	2014.780
231.884	18.650	2042.292	2014.033
232.899	18.714	2041.137	2013.400
233.913	18.790	2039.564	2012.502
234.928	18.733	2039.271	2011.306
235.942	18.740	2037.463	2009.367
236.957	18.867	2035.795	2008.975
237.972	18.856	2034.576	2007.400
238.986	18.713	2033.325	2004.249
240.001	18.723	2031.672	2002.489
241.015	18.763	2030.603	2001.669
242.030	19.649	2032.675	2013.857
243.045	22.653	2040.078	2056.211
244.059	23.184	2036.609	2058.689
245.074	20.177	2027.077	2013.756
246.088	18.992	2022.442	1995.101
247.103	19.171	2020.575	1995.104
248.117	19.240	2018.807	1993.925
249.132	18.780	2017.556	1987.097
250.147	18.827	2015.081	1984.964
251.161	18.823	2013.795	1983.417
252.176	19.079	2013.137	1985.498
253.190	19.312	2010.694	1985.559
254.205	19.400	2009.138	1984.795
255.220	19.432	2008.234	1984.040
256.234	19.161	2007.493	1979.941
257.249	18.905	2005.447	1974.726
258.263	18.708	2003.606	1970.408
259.278	18.540	2002.772	1967.412
260.293	18.563	2001.203	1965.900
261.307	18.637	1998.305	1963.672
262.322	18.456	1996.877	1959.951
263.336	18.379	1995.099	1957.089
264.351	18.258	1992.720	1953.126
265.366	18.250	1991.347	1951.462
266.380	18.400	1989.876	1951.494
267.395	18.157	1989.813	1948.421
268.409	18.355	1987.756	1948.438
269.424	18.431	1985.941	1947.294
270.439	18.401	1985.960	1946.739
271.453	19.472	1988.878	1961.614
272.468	22.892	1995.552	2007.088
273.482	23.121	1991.526	2005.409
274.497	19.962	1980.935	1958.648
275.512	18.555	1975.507	1937.084
276.526	18.336	1973.602	1932.492
277.541	18.425	1970.551	1930.281
278.555	18.181	1970.216	1926.960
279.570	18.242	1968.616	1925.858
280.585	18.379	1968.122	1926.690
281.599	18.412	1966.579	1925.330
282.614	18.836	1964.795	1928.133
283.628	19.038	1965.252	1930.626
284.643	19.237	1964.044	1931.448
285.657	19.317	1963.277	1931.365
286.672	19.501	1961.402	1931.360
287.687	19.450	1960.144	1929.323
288.701	19.281	1958.915	1925.976
289.716	19.315	1956.299	1923.560
290.730	19.363	1955.066	1922.651
291.745	19.454	1954.894	1923.276
292.760	19.346	1953.916	1920.877
293.774	19.334	1952.674	1919.290
294.789	19.241	1950.524	1915.903
295.803	18.937	1947.924	1909.730
296.818	18.800	1947.099	1907.159
297.833	18.870	1944.868	1905.532
298.847	18.920	1943.172	1904.198
299.862	18.924	1942.574	1903.431
300.876	19.661	1944.976	1913.764
301.891	22.996	1951.926	1957.568
302.906	23.642	1949.603	1962.178
303.920	20.116	1940.804	1914.017
304.935	18.926	1936.006	1895.873
305.949	18.914	1932.771	1892.353
306.964	18.890	1930.480	1889.617
307.979	18.973	1929.850	1889.688
308.993	19.186	1928.686	1890.670
310.008	19.465	1927.506	1892.366
311.022	19.486	1926.737	1891.612
312.037	19.300	1925.297	1887.933
313.052	19.387	1923.149	1886.556
314.066	19.467	1921.228	1885.320
315.081	19.196	1920.710	1881.617
316.095	19.172	1918.320	1878.779
317.110	18.875	1917.023	1874.029
318.125	18.788	1915.080	1870.958
319.139	18.748	1914.543	1869.767
320.154	18.871	1913.117	1869.500
321.168	18.808	1910.813	1866.339
322.183	18.631	1909.859	1863.252
323.197	18.506	1907.946	1859.794
324.212	18.408	1904.828	1855.468
325.227	18.341	1903.116	1852.848
326.241	18.405	1901.884	1852.119
327.256	18.329	1901.073	1850.287
328.270	18.287	1899.933	1848.495
329.285	18.339	1899.948	1848.857
330.300	19.490	1904.377	1865.452
331.314	23.031	1911.211	1910.465
332.329	23.197	1905.879	1906.706
333.343	19.659	1895.798	1858.208
334.358	18.414	1891.461	1840.301
335.373	18.309	1889.890	1837.422
336.387	18.181	1888.002	1833.986
337.402	18.226	1886.071	1832.383
338.416	18.434	1885.546	1833.888
339.431	18.518	1884.733	1833.778
340.446	18.438	1882.688	1830.716
341.460	18.693	1881.510	1832.079
342.475	18.941	1880.894	1833.927
343.489	19.141	1878.770	1833.774
344.504	19.067	1878.377	1832.378
345.519	19.079	1876.605	1830.555
346.533	19.355	1874.445	1831.181
347.548	19.410	1874.907	1831.996
348.562	19.620	1874.666	1833.785
349.577	20.287	1876.111	1842.102
350.592	20.713	1874.213	1844.553
351.606	20.071	1871.263	1834.603
352.621	19.591	1868.138	1826.215
353.635	19.229	1865.921	1819.990
354.650	19.123	1864.272	1817.035
355.665	19.033	1862.338	1813.984
356.679	18.822	1860.989	1810.211
357.694	18.772	1859.962	1808.469
358.708	18.639	1858.693	1805.608
359.723	20.019	1863.521	1824.713
360.738	23.492	1869.490	1867.157
361.752	23.212	1864.104	1858.605
362.767	19.999	1855.362	1815.860
363.781	18.934	1851.822	1800.970
364.796	18.759	1849.854	1796.999
365.810	18.753	1848.063	1794.980
366.825	18.691	1847.764	1793.824
367.840	18.921	1847.238	1795.509
368.854	19.258	1846.773	1798.376
369.869	19.714	1845.978	1802.172
370.883	19.502	1843.983	1797.793
371.898	19.369	1842.077	1794.329
372.913	19.153	1840.636	1790.444
373.927	19.313	1839.512	1790.812
374.942	19.132	1838.710	1787.924
375.956	19.076	1836.385	1784.873
376.971	19.135	1834.274	1783.220
377.986	18.956	1832.207	1779.133
379.000	18.825	1830.689	1776.089
380.015	18.838	1829.885	1775.223
381.029	18.872	1827.269	1772.827
382.044	18.621	1825.473	1768.270
383.059	18.594	1823.419	1765.790
384.073	18.557	1822.975	1764.772
385.088	18.527	1822.776	1764.055
386.102	18.424	1820.529	1760.603
387.117	18.409	1818.247	1758.037
388.132	18.541	1817.935	1758.881
389.146	19.419	1823.302	1772.943
390.161	22.938	1828.891	1814.554
391.175	22.947	1821.786	1807.388
392.190	19.664	1812.810	1764.620
393.205	18.665	1808.360	1749.843
394.219	18.533	1807.112	1747.076
395.234	18.420	1806.610	1745.223
396.248	18.527	1803.660	1743.256
397.263	18.587	1801.128	1741.213
398.278	18.507	1800.547	1739.625
399.292	18.578	1798.693	1738.355
400.307	18.532	1798.881	1737.857
401.321	18.693	1797.569	1738.015
402.336	18.877	1796.367	1738.525
403.350	18.957	1795.133	1737.932
404.365	19.111	1793.773	1737.968
405.380	19.216	1794.176	1739.221
406.394	19.351	1792.831	1739.074
407.409	19.155	1791.080	1735.180
408.423	19.334	1790.017	1735.755
409.438	19.235	1788.458	1733.041
410.453	19.090	1787.185	1730.127
411.467	19.289	1786.347	1731.116
412.482	19.119	1784.030	1726.950
413.496	18.762	1781.891	1721.075
414.511	18.858	1779.700	1719.724
415.526	18.850	1776.930	1716.758
416.540	18.696	1776.162	1714.268
417.555	18.649	1775.493	1712.945
418.569	18.803	1775.821	1714.601
419.584	18.978	1775.928	1716.251
420.599	18.880	1776.043	1715.175
421.613	18.716	1773.735	1711.105
422.628	18.763	1771.808	1709.507
423.642	18.743	1770.221	1707.572
424.657	18.664	1768.395	1704.820
425.672	18.848	1766.834	1704.946
426.686	18.945	1766.125	1705.020
427.701	18.801	1765.544	1702.824
428.715	18.992	1763.326	1702.379
429.730	19.120	1762.485	1702.636
430.745	19.123	1761.410	1701.421
431.759	19.153	1761.016	1701.138
432.774	19.591	1761.502	1705.758
433.788	19.981	1762.036	1709.935
434.803	20.273	1761.387	1712.004
435.818	20.259	1760.568	1710.860
436.832	20.135	1759.776	1708.662
437.847	19.357	1752.902	1694.095
438.861	11.189	1730.426	1592.244
439.876	2.183	1713.150	1488.267
440.890	0.499	1708.881	1467.924
441.905	0.210	1707.991	1464.153
442.920	0.217	1706.863	1463.086
443.934	0.158	1704.779	1460.544
444.949	0.281	1704.022	1460.919
445.963	0.185	1703.359	1459.242
446.978	0.127	1702.293	1457.588
447.993	0.075	1700.936	1455.753
449.007	0.118	1698.460	1453.868
450.022	0.242	1696.502	1453.223
451.036	0.289	1694.987	1452.208
452.051	1.023	1699.865	1463.338
453.066	9.476	1719.612	1562.937
454.080	18.393	1734.150	1663.358
455.095	21.080	1738.508	1693.595
456.109	22.517	1741.529	1710.373
457.124	22.961	1740.879	1713.854
458.139	22.993	1740.530	1713.617
459.153	22.996	1739.726	1712.657
460.168	23.076	1736.727	1710.272
461.182	22.944	1735.223	1707.309
462.197	22.868	1733.361	1704.533
463.212	22.734	1731.386	1701.083
464.226	22.687	1730.619	1699.673
465.241	23.021	1729.551	1701.651
466.255	23.432	1729.192	1705.067
467.270	23.470	1728.058	1704.115
468.285	23.060	1726.176	1698.103
469.299	22.749	1724.691	1693.439
470.314	22.912	1723.082	1693.226
471.328	22.995	1721.969	1692.725
472.343	23.049	1721.681	1692.763
473.358	23.059	1719.891	1690.897
474.372	23.168	1718.531	1690.403
475.387	22.974	1716.787	1686.626
476.401	22.805	1714.893	1682.937
477.416	22.867	1713.530	1681.993
478.430	23.106	1712.867	1683.430
479.445	22.704	1711.715	1678.254
480.460	22.418	1710.111	1673.748
481.474	22.774	1709.623	1676.465
482.489	23.034	1709.290	1678.424
483.503	23.439	1707.703	1680.519
484.518	23.605	1705.649	1679.885
485.533	23.359	1704.574	1676.277
486.547	23.476	1703.822	1676.454
487.562	23.829	1703.554	1679.346
488.576	23.854	1702.240	1678.086
489.591	23.749	1700.545	1675.214
490.606	23.472	1698.577	1670.452
491.620	23.419	1697.217	1668.418
492.635	24.001	1695.810	1672.332
493.649	24.185	1695.171	1673.244
494.664	23.429	1692.578	1663.355
495.679	22.800	1688.835	1653.553
496.693	22.961	1688.188	1654.232
497.708	23.416	1687.965	1658.097
498.722	23.989	1688.128	1663.450
499.737	23.836	1686.838	1660.544
500.752	23.549	1684.781	1655.623
501.766	23.355	1683.326	1652.183
502.781	23.518	1681.973	1652.184
503.795	23.509	1680.272	1650.228
504.810	23.421	1679.901	1648.842
505.825	23.810	1679.851	1652.236
506.839	23.834	1677.539	1649.981
507.854	23.725	1676.339	1647.586
508.868	23.696	1674.876	1645.689
509.883	23.459	1674.152	1642.568
510.898	23.819	1672.739	1644.336
511.912	23.713	1671.427	1641.865
512.927	23.354	1669.123	1636.068
513.941	23.386	1667.433	1634.517
514.956	23.299	1666.198	1632.308
515.971	23.492	1665.002	1632.726
516.985	23.651	1664.762	1633.766
518.000	23.716	1663.849	1633.276
519.014	23.849	1663.331	1633.802
520.029	23.983	1661.759	1633.295
521.043	23.926	1660.119	1630.962
522.058	23.623	1658.935	1626.808
523.073	23.877	1658.401	1628.434
524.087	24.436	1658.058	1633.041
525.102	24.275	1656.316	1629.649
526.116	23.757	1653.472	1621.911
527.131	23.671	1652.654	1620.124
528.146	24.265	1652.617	1625.334
529.160	24.468	1652.219	1626.614
530.175	24.339	1651.511	1624.535
531.189	24.446	1650.199	1624.037
532.204	24.668	1648.766	1624.452
533.219	24.134	1646.313	1616.969
534.233	23.599	1644.865	1610.481
535.248	23.956	1644.949	1613.619
536.262	24.592	1644.834	1619.115
537.277	24.694	1643.527	1618.558
538.292	24.437	1640.907	1613.454
539.306	24.426	1638.355	1610.647
540.321	24.394	1637.458	1609.290
541.335	24.061	1635.992	1604.640
542.350	24.332	1635.372	1606.293
543.365	24.620	1633.999	1607.357
544.379	24.763	1633.061	1607.531
545.394	24.836	1631.771	1606.729
546.408	24.270	1629.312	1599.015
547.423	23.602	1627.141	1590.676
548.438	23.540	1626.223	1589.023
549.452	23.870	1626.048	1591.637
550.467	24.120	1624.889	1592.558
551.481	24.266	1623.529	1592.347
552.496	24.576	1624.533	1595.922
553.511	24.886	1624.107	1598.102
554.525	24.864	1622.460	1596.088
555.540	24.896	1621.795	1595.533
556.554	24.988	1620.591	1594.977
557.569	24.808	1618.752	1591.369
558.583	24.623	1616.475	1587.289
559.598	24.558	1615.218	1585.284
560.613	24.551	1614.581	1584.408
561.627	24.448	1613.876	1582.607
562.642	24.688	1612.388	1583.092
563.656	25.057	1611.227	1585.046
564.671	25.108	1609.768	1583.874
565.686	24.902	1608.762	1580.863
566.700	24.605	1606.857	1576.170
567.715	24.432	1605.086	1572.713
568.729	24.286	1603.341	1569.527
569.744	23.997	1601.366	1564.845
570.759	24.262	1599.928	1565.595
571.773	24.464	1599.327	1566.599
572.788	24.672	1598.413	1567.354
573.802	24.759	1597.429	1566.970
574.817	24.809	1596.326	1566.135
575.832	24.967	1596.233	1567.247
576.846	25.135	1594.869	1567.199
577.861	24.904	1593.023	1563.169
578.875	24.954	1593.075	1563.467
579.890	25.221	1592.357	1564.919
580.905	25.346	1590.918	1564.410
581.919	25.474	1591.218	1565.643
582.934	25.533	1590.470	1565.238
583.948	25.736	1588.813	1565.194
584.963	25.447	1586.221	1559.930
585.978	25.080	1584.020	1554.380
586.992	25.053	1584.386	1554.316
588.007	25.459	1584.369	1557.653
589.021	24.730	1581.499	1548.304
590.036	24.025	1579.334	1539.873
591.051	24.805	1578.444	1545.591
592.065	25.190	1578.336	1548.640
593.080	25.528	1577.253	1550.324
594.094	25.642	1574.348	1548.269
595.109	24.840	1571.718	1538.568
596.123	24.454	1570.557	1533.916
597.138	24.731	1571.087	1536.641
598.153	25.231	1569.700	1539.413
599.167	25.311	1568.013	1538.267
600.182	25.164	1567.989	1536.795
601.196	25.339	1566.948	1537.096
602.211	25.214	1565.826	1534.732
603.226	25.607	1564.796	1536.918
604.240	25.625	1564.391	1536.490
605.255	25.780	1563.278	1536.542
606.269	25.864	1561.675	1535.508
607.284	25.807	1560.236	1533.421
608.299	25.800	1558.473	1531.446
609.313	25.441	1557.047	1526.796
610.328	25.553	1555.915	1526.458
611.342	25.686	1554.624	1526.143
612.357	25.922	1554.584	1527.932
613.372	25.772	1552.975	1524.888
614.386	25.516	1552.592	1522.147
615.401	25.575	1551.752	1521.643
616.415	25.794	1550.369	1521.965
617.430	25.884	1549.792	1521.986
618.445	25.858	1548.477	1520.291
619.459	25.682	1546.421	1516.597
620.474	25.185	1545.077	1510.892
621.488	24.747	1543.028	1505.004
622.503	24.395	1542.093	1500.938
623.518	25.099	1541.856	1506.473
624.532	25.676	1541.389	1510.710
625.547	25.758	1540.300	1510.148
626.561	26.152	1539.195	1512.203
627.576	26.301	1538.279	1512.374
628.591	25.717	1536.219	1505.260
629.605	25.291	1534.962	1500.274
630.620	25.117	1533.051	1496.764
631.634	24.736	1531.995	1492.361
632.649	24.977	1531.504	1493.726
633.663	25.385	1530.324	1495.812
634.678	25.782	1530.456	1499.086
635.693	26.230	1528.235	1500.470
636.707	26.196	1527.446	1499.232
637.722	26.423	1526.792	1500.304
638.736	26.530	1526.224	1500.454
639.751	26.521	1524.186	1498.204
640.766	26.389	1522.937	1495.695
641.780	26.257	1522.090	1493.590
642.795	26.221	1520.924	1491.966
643.809	26.342	1520.077	1491.958
644.824	26.386	1519.434	1491.515
645.839	26.260	1517.886	1488.777
646.853	26.313	1517.707	1488.862
647.868	26.241	1515.433	1485.857
648.882	26.148	1513.831	1483.336
649.897	25.980	1513.015	1480.974
650.912	25.949	1511.389	1478.950
651.926	26.262	1509.541	1479.544
652.941	26.020	1507.868	1475.738
653.955	25.441	1505.470	1468.456
654.970	24.840	1503.090	1461.032
655.985	24.795	1501.970	1459.397
656.999	24.760	1500.950	1457.945
658.014	25.186	1500.665	1460.978
659.028	25.641	1500.857	1464.716
660.043	26.021	1500.526	1467.327
661.058	26.096	1499.979	1467.229
662.072	26.124	1498.350	1465.687
663.087	26.218	1497.080	1465.039
664.101	26.002	1495.792	1461.842
665.116	26.297	1494.926	1463.219
666.131	26.494	1493.722	1463.473
667.145	26.395	1493.463	1462.233
668.160	26.453	1492.806	1461.886
669.174	26.801	1491.139	1462.902
670.189	26.809	1489.793	1461.477
671.204	26.397	1489.358	1457.534
672.218	26.341	1488.401	1455.968
673.233	26.645	1487.024	1456.909
674.247	26.931	1486.341	1458.376
675.262	27.082	1485.191	1458.289
676.276	27.093	1484.150	1457.186
677.291	26.640	1482.936	1452.163
678.306	26.469	1480.886	1448.608
679.320	26.261	1479.935	1445.831
680.335	26.473	1480.302	1447.720
681.349	26.717	1479.421	1448.649
682.364	26.894	1477.639	1448.153
683.379	26.753	1476.287	1445.519
684.393	26.635	1475.023	1443.166
685.408	26.763	1474.198	1443.214
686.422	26.589	1472.687	1440.171
687.437	26.682	1472.022	1440.086
688.452	26.956	1471.564	1441.657
689.466	26.767	1469.681	1438.131
690.481	26.565	1467.712	1434.427
691.495	26.171	1466.923	1430.346
692.510	25.646	1464.673	1423.802
693.525	25.256	1462.472	1418.397
694.539	25.615	1462.841	1421.435
695.554	26.251	1463.938	1427.387
696.568	26.692	1462.569	1429.376
697.583	26.766	1462.905	1430.121
698.598	26.808	1462.054	1429.455
699.612	27.011	1460.283	1429.152
700.627	27.051	1458.862	1427.909
701.641	26.823	1457.696	1424.799
702.656	26.902	1456.595	1424.170
703.671	27.335	1456.793	1427.615
704.685	27.270	1455.524	1425.683
705.700	27.241	1453.265	1423.077
706.714	26.879	1451.362	1418.199
707.729	26.600	1450.347	1414.841
708.744	26.737	1448.467	1413.913
709.758	26.669	1446.912	1411.699
710.773	25.895	1445.422	1404.011
711.787	25.768	1444.080	1401.549
712.802	26.174	1443.424	1403.917
713.816	26.388	1443.540	1405.536
714.831	26.769	1442.784	1407.607
715.846	27.005	1441.715	1408.235
716.860	27.027	1441.049	1407.586
717.875	27.027	1439.424	1405.830
718.889	26.781	1438.642	1402.983
719.904	26.986	1437.834	1403.622
720.919	27.146	1436.163	1403.063
721.933	27.182	1435.895	1402.918
722.948	27.112	1434.930	1401.260
723.962	27.207	1433.588	1400.519
724.977	27.371	1432.256	1400.315
725.992	27.333	1431.673	1399.291
727.006	27.329	1430.359	1397.805
728.021	27.407	1428.814	1396.731
729.035	27.470	1427.998	1396.247
730.050	27.246	1427.119	1393.498
731.065	27.171	1425.875	1391.541
732.079	27.427	1424.965	1392.457
733.094	27.270	1423.941	1390.078
734.108	27.296	1421.798	1388.025
735.123	27.240	1420.330	1385.992
736.138	27.195	1419.411	1384.585
737.152	27.366	1418.610	1384.945
738.167	27.578	1417.526	1385.344
739.181	27.684	1416.896	1385.366
740.196	27.431	1416.476	1382.860
741.211	27.467	1415.468	1381.986
742.225	27.420	1414.071	1380.098
743.240	27.407	1412.712	1378.507
744.254	27.399	1411.127	1376.740
745.269	27.273	1410.679	1375.178
746.284	27.142	1409.727	1373.089
747.298	26.909	1408.050	1369.526
748.313	26.724	1405.947	1365.912
749.327	26.219	1404.763	1360.780
750.342	25.763	1403.237	1355.688
751.356	25.539	1401.381	1352.034
752.371	25.773	1400.647	1352.931
753.386	26.565	1401.413	1359.495
754.400	27.203	1401.667	1364.392
755.415	27.422	1400.633	1364.872
756.429	27.726	1399.169	1365.567
757.444	27.492	1398.040	1362.543
758.459	27.561	1397.364	1362.238
759.473	27.559	1397.195	1361.898
760.488	27.667	1394.962	1360.369
761.502	27.549	1393.360	1357.764
762.517	27.377	1392.551	1355.524
763.532	27.473	1390.807	1354.380
764.546	27.064	1389.215	1349.615
765.561	26.515	1386.798	1343.008
766.575	25.602	1385.257	1334.555
767.590	25.639	1384.197	1333.646
768.605	26.369	1384.428	1339.150
769.619	27.010	1383.983	1343.328
770.634	27.055	1383.194	1342.730
771.648	27.305	1382.923	1344.168
772.663	27.446	1382.679	1344.814
773.678	27.477	1381.897	1344.125
774.692	27.715	1380.893	1344.753
775.707	27.713	1380.781	1344.464
776.721	27.667	1379.559	1342.771
777.736	27.738	1377.917	1341.542
778.751	27.841	1377.510	1341.739
779.765	27.659	1376.326	1339.085
780.780	27.729	1375.935	1339.063
781.794	27.660	1374.386	1336.883
782.809	27.678	1373.017	1335.526
783.824	27.171	1371.740	1330.398
784.838	26.741	1369.227	1324.643
785.853	26.199	1367.537	1318.868
786.867	26.474	1367.373	1320.570
787.882	26.801	1367.339	1322.781
788.897	26.980	1366.550	1323.170
789.911	27.080	1365.396	1322.625
790.926	27.126	1365.168	1322.584
791.940	27.274	1364.024	1322.400
792.955	27.526	1362.419	1322.522
793.969	27.605	1361.561	1322.105
794.984	27.640	1360.701	1321.365
795.999	27.658	1360.016	1320.673
797.013	27.989	1358.154	1321.115
798.028	27.897	1356.818	1318.989
799.042	27.801	1356.475	1317.799
800.057	27.961	1355.715	1318.062
801.072	27.955	1354.092	1316.288
802.086	27.849	1352.279	1313.600
803.101	27.837	1352.109	1313.193
804.115	27.952	1351.057	1312.843
805.130	27.841	1350.060	1310.920
806.145	27.824	1348.459	1309.081
807.159	27.633	1347.047	1306.177
808.174	27.615	1345.531	1304.423
809.188	27.520	1344.942	1303.015
810.203	27.367	1342.915	1299.799
811.218	26.954	1340.361	1294.207
812.232	26.651	1337.799	1289.413
813.247	26.155	1337.200	1285.131
814.261	26.732	1338.610	1290.465
815.276	27.457	1337.866	1294.774
816.291	27.482	1336.974	1293.937
817.305	27.491	1336.263	1293.160
818.320	27.687	1335.166	1293.341
819.334	27.798	1334.047	1292.887
820.349	27.817	1332.720	1291.582
821.364	28.076	1331.088	1291.686
822.378	27.916	1330.250	1289.585
823.393	27.850	1329.139	1287.884
824.407	27.854	1327.778	1286.438
825.422	27.861	1326.989	1285.573
826.437	27.731	1325.602	1283.159
827.451	27.508	1323.246	1279.146
828.466	26.813	1320.774	1271.704
829.480	26.607	1319.509	1268.888
830.495	26.885	1318.660	1269.872
831.509	26.970	1318.710	1270.365
832.524	27.545	1318.040	1273.609
833.539	27.759	1317.165	1274.114
834.553	27.878	1315.460	1273.151
835.568	27.900	1314.511	1272.230
836.582	27.952	1313.658	1271.617
837.597	27.956	1312.605	1270.476
838.612	27.792	1310.819	1267.446
839.626	27.715	1309.319	1265.308
840.641	27.326	1308.508	1261.662
841.655	27.049	1306.844	1257.981
842.670	26.392	1304.115	1250.639
843.685	25.715	1302.621	1244.355
844.699	26.540	1302.902	1250.204
845.714	27.118	1302.515	1253.690
846.728	27.338	1302.031	1254.598
847.743	27.505	1301.687	1255.277
848.758	27.738	1300.553	1255.641
849.772	27.794	1299.592	1254.952
850.787	27.791	1298.213	1253.448
851.801	27.905	1297.192	1253.103
852.816	27.624	1295.695	1249.569
853.831	27.694	1294.425	1248.676
854.845	27.710	1292.739	1247.010
855.860	27.633	1290.487	1244.161
856.874	27.296	1288.998	1240.264
857.889	27.212	1287.453	1238.056
858.904	26.808	1285.957	1233.708
859.918	26.408	1283.838	1228.793
860.933	26.172	1282.790	1226.036
861.947	26.530	1282.611	1228.160
862.962	26.771	1282.210	1229.268
863.977	26.924	1281.123	1229.122
864.991	27.238	1280.734	1230.739
866.006	27.567	1280.204	1232.317
867.020	27.737	1279.038	1232.204
868.035	27.808	1277.916	1231.455
869.049	27.854	1277.197	1230.926
870.064	27.999	1276.107	1230.710
871.079	27.915	1275.334	1229.254
872.093	27.824	1274.544	1227.730
873.108	27.628	1273.286	1225.047
874.122	27.368	1271.026	1220.972
875.137	26.894	1269.941	1216.593
876.152	26.773	1268.433	1214.182
877.166	26.712	1267.833	1213.054
878.181	26.997	1267.825	1214.818
879.195	27.343	1267.081	1216.282
880.210	27.544	1266.106	1216.553
881.225	27.815	1265.451	1217.597
882.239	27.719	1264.442	1215.837
883.254	27.917	1263.779	1216.381
884.268	28.033	1262.153	1215.444
885.283	27.887	1260.920	1213.138
886.298	27.835	1260.189	1211.940
887.312	28.030	1258.570	1211.540
888.327	27.815	1258.032	1209.443
889.341	27.898	1256.406	1208.284
890.356	27.695	1255.146	1205.580
891.371	27.616	1255.111	1204.882
892.385	27.506	1254.292	1203.217
893.400	27.352	1253.336	1201.136
894.414	27.182	1251.812	1198.403
895.429	26.956	1249.476	1194.528
896.444	26.215	1246.900	1187.034
897.458	25.776	1245.104	1182.281
898.473	26.185	1245.443	1185.163
899.487	26.719	1245.403	1188.507
900.502	27.207	1244.417	1190.633
901.517	27.427	1243.525	1191.081
902.531	27.628	1242.759	1191.529
903.546	27.743	1241.928	1191.342
904.560	27.815	1241.860	1191.609
905.575	27.734	1240.942	1190.053
906.589	27.756	1239.687	1188.851
907.604	27.561	1238.547	1186.344
