DTS Sentinel unit serial number:	SN409020Multiplexer serial number:	ORYXHardware model number:	OX4-SRSoftware version number:	ORYX F/W v3.00 Oryx Data Collector v3.7.2.0data status	okinstallation	HaddamTimeLapsedifferential loss correction	single-endedforward channel	channel 3reverse channel	N/Adate	2011/06/22time	02:01:17forward acquisition time	30.00reverse acquisition time	0.00gamma	498.7831k internal	0.1751k external	0.1751temperature offset calibration	1.0074default loss term (dB/km)	0.3790temperature slope calibration	1.3530multiplexer offset coefficient	1.0000multiplexer slope coefficient	1.0000fibre end	0.00T internal ref (°C)	22.44T ext. ref 1 (°C)	17.69T ext. ref 2 (°C)	0.01length (m)	temperature (°C)	Stokes	anti-Stokes-747.200	-200.000	-0.011	0.080
-746.185	-200.000	-0.027	0.360
-745.171	800.000	-0.058	-0.283
-744.156	45.228	-0.073	0.089
-743.142	22.725	0.499	0.543
-742.127	-191.434	-0.033	0.000
-741.112	-13.829	-0.182	-0.156
-740.098	-39.346	0.379	0.263
-739.083	27.390	-0.293	0.327
-738.069	-200.000	-0.014	0.730
-737.054	-49.898	0.340	0.214
-736.039	-200.000	0.013	-0.138
-735.025	-114.384	-0.086	-0.022
-734.010	800.000	0.021	0.082
-732.996	-87.400	0.161	-0.065
-731.981	800.000	0.086	0.355
-730.966	-6.485	0.367	0.332
-729.952	-200.000	0.290	-0.000
-728.937	187.254	0.186	0.370
-727.923	23.053	0.033	-0.036
-726.908	317.958	0.190	-0.479
-725.894	203.701	0.247	-0.509
-724.879	16.351	0.124	-0.130
-723.864	800.000	0.066	0.302
-722.850	-18.420	0.153	0.127
-721.835	591.012	-0.126	-0.414
-720.821	-116.196	-0.774	0.189
-719.806	107.924	-0.095	0.150
-718.791	-200.000	-0.045	0.602
-717.777	34.739	-0.218	-0.253
-716.762	-143.054	-0.544	0.069
-715.748	61.163	0.163	0.215
-714.733	16.188	-0.137	0.143
-713.718	-23.346	0.193	-0.154
-712.704	800.000	-0.180	0.730
-711.689	269.796	-0.232	0.542
-710.675	-45.779	0.122	0.080
-709.660	55.038	0.317	0.407
-708.645	-87.545	0.403	-0.161
-707.631	-53.299	0.419	0.254
-706.616	-55.530	0.357	0.212
-705.602	-84.285	-0.153	-0.064
-704.587	-200.000	0.030	-0.193
-703.572	49.017	0.223	-0.278
-702.558	-121.873	-0.109	-0.024
-701.543	-48.729	-0.050	0.032
-700.529	-131.203	0.539	0.094
-699.514	-65.971	0.162	-0.086
-698.499	-59.829	-0.091	-0.052
-697.485	-85.638	-0.467	0.191
-696.470	800.000	-0.042	-0.172
-695.456	-102.473	-0.379	-0.119
-694.441	800.000	0.101	0.465
-693.426	-41.068	-0.193	-0.132
-692.412	-129.599	-0.246	0.045
-691.397	-33.344	-0.189	-0.138
-690.383	-170.478	0.500	0.023
-689.368	-152.998	-0.560	-0.052
-688.354	-127.866	-0.366	-0.069
-687.339	-108.937	0.258	0.073
-686.324	80.660	-0.052	0.074
-685.310	-27.099	0.071	-0.054
-684.295	254.715	-0.319	-0.726
-683.281	-106.321	-0.190	0.056
-682.266	-172.342	0.674	0.028
-681.251	-69.515	0.312	-0.158
-680.237	-200.000	-0.047	0.598
-679.222	-138.353	0.210	0.030
-678.208	-108.509	-0.516	0.146
-677.193	309.519	0.226	-0.561
-676.178	-94.561	-0.188	-0.068
-675.164	42.798	0.287	-0.347
-674.149	286.129	0.086	-0.206
-673.135	45.233	-0.206	-0.252
-672.120	73.589	0.203	0.282
-671.105	60.601	0.326	-0.429
-670.091	2.865	0.173	-0.166
-669.076	709.937	0.067	-0.236
-668.062	74.976	0.042	-0.058
-667.047	-200.000	0.002	0.353
-666.032	-56.876	0.140	0.082
-665.018	-200.000	0.057	-0.424
-664.003	-98.931	-0.429	-0.143
-662.989	-178.698	-0.468	0.014
-661.974	-68.929	0.127	-0.065
-660.959	28.320	-0.299	0.335
-659.945	-66.591	0.056	-0.029
-658.930	-197.528	0.338	-0.003
-657.916	556.100	-0.016	0.052
-656.901	60.453	-0.343	-0.449
-655.886	69.469	-0.121	0.165
-654.872	177.280	-0.138	0.266
-653.857	260.150	-0.017	0.039
-652.843	-33.843	0.404	0.294
-651.828	800.000	-0.058	-0.229
-650.814	314.319	0.140	-0.350
-649.799	-121.085	-0.215	-0.047
-648.784	494.064	-0.014	0.042
-647.770	-183.753	-0.307	0.007
-646.755	-100.051	0.170	-0.056
-645.741	349.103	-0.203	0.532
-644.726	168.236	0.236	0.446
-643.711	-52.869	0.183	-0.111
-642.697	-200.000	-0.016	0.231
-641.682	-137.891	0.174	-0.026
-640.668	-200.000	-0.007	0.413
-639.653	60.604	-0.318	-0.418
-638.638	392.006	0.103	-0.286
-637.624	-102.451	-0.249	0.078
-636.609	-132.604	-0.506	0.085
-635.595	665.832	0.133	-0.456
-634.580	-164.906	-0.454	0.026
-633.565	-41.589	-0.045	0.030
-632.551	176.114	-0.084	0.162
-631.536	4.515	-0.196	-0.191
-630.522	-99.812	0.056	0.018
-629.507	-69.951	-0.378	0.190
-628.492	-80.697	-0.118	-0.051
-627.478	105.362	-0.252	0.395
-626.463	211.327	0.062	-0.129
-625.449	-132.384	0.417	-0.070
-624.434	14.171	-0.214	-0.220
-623.419	-135.324	-0.618	0.097
-622.405	390.493	-0.060	0.165
-621.390	64.795	0.216	-0.288
-620.376	-200.000	-0.009	-0.127
-619.361	-37.238	0.305	0.215
-618.346	-120.047	-0.475	0.107
-617.332	115.131	0.110	-0.177
-616.317	-164.013	0.527	0.032
-615.303	285.729	-0.144	0.345
-614.288	-107.226	0.347	-0.100
-613.273	-34.664	-0.037	0.026
-612.259	49.267	0.204	-0.254
-611.244	-200.000	0.090	-0.678
-610.230	-26.371	0.243	-0.188
-609.215	56.214	-0.229	0.294
-608.201	-7.192	-0.043	-0.038
-607.186	176.529	-0.104	0.201
-606.171	-200.000	-0.011	0.073
-605.157	15.422	-0.404	0.418
-604.142	-44.641	-0.193	0.127
-603.128	229.987	0.110	-0.237
-602.113	-200.000	0.047	-0.376
-601.098	-96.234	-0.360	-0.125
-600.084	-21.441	-0.069	0.056
-599.069	-117.801	-0.253	0.059
-598.055	104.492	0.096	-0.150
-597.040	-108.704	0.423	-0.119
-596.025	-146.332	-0.146	0.017
-595.011	-75.501	-0.378	-0.177
-593.996	-135.162	0.340	-0.053
-592.982	-146.720	0.344	0.039
-591.967	249.567	-0.038	0.085
-590.952	-110.128	0.714	-0.195
-589.938	800.000	0.109	-0.437
-588.923	-200.000	-0.004	-0.163
-587.909	-103.495	0.185	0.057
-586.894	800.000	-0.102	0.523
-585.879	-47.814	-0.390	0.249
-584.865	14.317	-0.169	-0.174
-583.850	797.190	0.056	-0.206
-582.836	-100.213	-0.048	-0.016
-581.821	115.115	0.136	-0.219
-580.806	-200.000	0.003	-0.169
-579.792	-106.101	-0.246	0.073
-578.777	156.234	-0.109	-0.198
-577.763	10.896	0.378	0.381
-576.748	-135.022	0.277	0.044
-575.733	-74.647	-0.238	-0.113
-574.719	-200.000	-0.016	0.374
-573.704	-134.175	0.265	0.043
-572.690	205.652	0.397	0.817
-571.675	-34.415	0.506	0.365
-570.661	-118.192	0.087	-0.020
-569.646	800.000	0.123	0.587
-568.631	800.000	-0.061	-0.298
-567.617	-49.486	-0.328	-0.205
-566.602	620.088	-0.109	0.364
-565.588	-139.286	-0.077	-0.011
-564.573	57.837	-0.410	-0.530
-563.558	384.434	0.064	-0.174
-562.544	-32.190	0.225	0.165
-561.529	-106.918	0.463	0.134
-560.515	7.415	0.465	0.459
-559.500	-49.918	0.276	-0.172
-558.485	192.387	-0.129	0.257
-557.471	-200.000	0.002	0.138
-556.456	165.003	0.040	0.074
-555.442	-200.000	0.004	0.122
-554.427	-176.381	-0.138	0.005
-553.412	-182.010	0.051	0.001
-552.398	-161.227	-0.290	0.020
-551.383	-200.000	-0.035	-0.450
-550.369	18.526	-0.474	-0.500
-549.354	13.314	0.133	0.136
-548.339	-200.000	-0.016	0.199
-547.325	-138.012	-0.362	0.053
-546.310	78.460	0.343	-0.484
-545.296	-85.521	-0.446	0.182
-544.281	139.501	-0.140	-0.243
-543.266	-200.000	0.008	-0.047
-542.252	-49.401	0.414	0.260
-541.237	-82.922	0.258	-0.109
-540.223	107.591	-0.193	-0.304
-539.208	-139.746	0.267	-0.037
-538.193	-200.000	-0.038	-0.565
-537.179	71.295	0.138	0.189
-536.164	-110.288	-0.361	0.098
-535.150	-104.971	0.184	0.055
-534.135	57.298	-0.138	0.178
-533.121	-35.613	0.220	-0.157
-532.106	26.587	-0.239	0.264
-531.091	-82.107	0.525	0.224
-530.077	34.999	-0.273	-0.315
-529.062	25.614	0.386	-0.423
-528.048	464.935	0.146	0.434
-527.033	-8.231	-0.413	-0.366
-526.018	-9.071	0.040	-0.035
-525.004	96.344	-0.099	0.149
-523.989	800.000	0.059	-0.306
-522.975	-200.000	0.099	-0.596
-521.960	279.554	0.094	-0.221
-520.945	-42.129	-0.237	0.159
-519.931	-154.478	-0.454	-0.040
-518.916	-63.169	-0.233	0.126
-517.902	-84.587	-0.521	-0.215
-516.887	-200.000	0.009	0.113
-515.872	234.619	0.057	0.125
-514.858	50.662	0.244	0.304
-513.843	72.062	-0.180	0.247
-512.829	121.080	0.199	-0.326
-511.814	409.526	-0.274	0.768
-510.799	-68.854	-0.175	0.089
-509.785	-200.000	-0.010	-0.204
-508.770	350.860	0.062	-0.163
-507.756	-162.523	0.316	-0.020
-506.741	-172.483	0.187	0.008
-505.726	-82.934	-0.151	-0.064
-504.712	-124.668	0.237	-0.048
-503.697	-109.687	-0.336	0.092
-502.683	-97.573	-0.222	0.076
-501.668	-37.666	0.155	0.108
-500.653	-58.870	-0.118	0.067
-499.639	102.748	0.192	-0.296
-498.624	-14.530	0.241	-0.204
-497.610	-159.324	0.403	-0.029
-496.595	-162.715	-0.406	0.026
-495.581	-81.190	-0.262	-0.113
-494.566	399.893	-0.131	0.362
-493.551	81.778	-0.420	0.598
-492.537	-163.011	0.369	0.023
-491.522	404.271	-0.051	0.142
-490.508	145.139	0.107	-0.189
-489.493	191.329	0.095	0.188
-488.478	724.677	0.082	-0.290
-487.464	-48.279	0.165	-0.104
-486.449	-46.721	0.048	-0.031
-485.435	291.511	-0.075	0.180
-484.420	800.000	-0.094	0.349
-483.405	800.000	-0.092	0.439
-482.391	-132.987	0.277	-0.046
-481.376	161.542	-0.099	0.184
-480.362	34.059	0.037	-0.043
-479.347	-200.000	0.035	0.227
-478.332	-98.312	0.333	-0.112
-477.318	-79.569	0.332	0.147
-476.303	-200.000	0.010	-0.097
-475.289	-37.005	0.520	-0.366
-474.274	-151.771	-0.371	0.035
-473.259	-3.836	-0.440	-0.401
-472.245	388.721	0.148	-0.405
-471.230	728.306	-0.148	-0.523
-470.216	-102.889	-0.104	-0.032
-469.201	201.190	-0.130	0.264
-468.186	-191.183	-0.454	-0.006
-467.172	-141.215	-0.358	-0.047
-466.157	-78.245	-0.401	0.180
-465.143	-167.203	0.443	-0.023
-464.128	14.226	-0.020	0.020
-463.113	-167.778	0.504	0.026
-462.099	48.614	0.234	0.289
-461.084	-129.192	-0.268	0.049
-460.070	-77.965	-0.538	-0.243
-459.055	2.311	0.267	0.254
-458.040	83.789	0.238	-0.342
-457.026	-46.773	-0.465	-0.298
-456.011	-121.369	-0.286	0.062
-454.997	-98.192	-0.367	0.123
-453.982	42.034	0.199	-0.238
-452.968	94.793	0.053	-0.080
-451.953	-41.734	-0.412	-0.277
-450.938	26.363	-0.184	0.202
-449.924	-50.065	-0.146	-0.091
-448.909	-15.840	0.205	0.171
-447.895	-200.000	-0.546	-0.000
-446.880	-200.000	0.097	-0.699
-445.865	-126.314	-0.148	0.029
-444.851	251.755	-0.098	-0.220
-443.836	243.091	-0.197	-0.435
-442.822	-38.701	-0.151	-0.104
-441.807	-166.773	-0.261	-0.014
-440.792	-38.482	-0.137	0.095
-439.778	13.151	-0.255	0.259
-438.763	-47.556	0.279	0.177
-437.749	165.918	0.082	-0.152
-436.734	800.000	-0.054	0.225
-435.719	-97.734	0.224	-0.076
-434.705	-72.143	0.475	-0.231
-433.690	-22.334	0.256	0.203
-432.676	-200.000	-0.041	0.329
-431.661	-115.049	0.426	-0.105
-430.646	-152.320	-0.191	0.018
-429.632	-85.452	-0.503	-0.205
-428.617	-33.705	0.425	0.307
-427.603	-200.000	0.057	0.571
-426.588	-79.014	0.056	0.025
-425.573	800.000	-0.077	0.404
-424.559	85.815	-0.269	-0.389
-423.544	-72.999	-0.325	-0.156
-422.530	-198.001	-0.285	0.002
-421.515	-84.984	0.179	-0.073
-420.500	800.000	0.104	0.380
-419.486	189.529	0.341	0.672
-418.471	-43.505	-0.514	-0.340
-417.457	-200.000	-0.057	-0.439
-416.442	-27.935	-0.255	0.194
-415.428	-73.795	0.265	0.126
-414.413	292.845	-0.069	0.165
-413.398	-136.190	-0.123	-0.019
-412.384	800.000	-0.059	0.278
-411.369	-150.678	0.208	0.021
-410.355	64.879	0.183	0.242
-409.340	505.232	-0.072	-0.220
-408.325	-200.000	-0.009	-0.162
-407.311	800.000	-0.193	0.737
-406.296	32.275	-0.112	0.126
-405.282	-26.910	-0.350	-0.268
-404.267	-122.119	0.137	0.029
-403.252	-107.551	-0.345	-0.098
-402.238	120.207	-0.171	-0.279
-401.223	800.000	-0.163	0.633
-400.209	73.067	-0.322	-0.441
-399.194	-200.000	0.009	0.213
-398.179	-145.818	-0.287	-0.033
-397.165	-200.000	0.026	0.490
-396.150	-200.000	0.046	-0.442
-395.136	-200.000	-0.003	-0.138
-394.121	800.000	0.049	-0.195
-393.106	-72.202	0.461	0.223
-392.092	47.292	-0.153	-0.186
-391.077	-67.522	-0.618	-0.317
-390.063	138.860	0.054	-0.092
-389.048	56.864	-0.139	-0.177
-388.033	145.280	-0.310	-0.545
-387.019	-200.000	-0.010	-0.211
-386.004	-133.451	0.223	0.036
-384.990	-200.000	-0.017	-0.179
-383.975	236.898	-0.182	-0.397
-382.960	-171.455	0.447	-0.019
-381.946	-20.490	0.333	0.268
-380.931	29.052	0.011	-0.012
-379.917	-200.000	-0.036	0.239
-378.902	-200.000	0.041	0.400
-377.888	-200.000	0.026	0.167
-376.873	-149.049	0.110	0.011
-375.858	136.525	-0.039	-0.067
-374.844	-13.080	0.150	0.128
-373.829	41.874	0.240	-0.285
-372.815	800.000	0.120	0.571
-371.800	-44.469	-0.282	0.184
-370.785	208.228	-0.187	-0.383
-369.771	16.313	0.362	0.374
-368.756	368.090	0.114	0.302
-367.742	-71.753	0.141	0.069
-366.727	214.985	0.124	-0.258
-365.712	-163.100	0.113	-0.007
-364.698	267.853	-0.097	-0.224
-363.683	-47.279	0.549	-0.349
-362.669	269.718	-0.030	-0.069
-361.654	645.368	-0.140	-0.472
-360.639	-108.791	0.185	-0.051
-359.625	-85.193	-0.268	0.109
-358.610	-200.000	-0.023	0.274
-357.596	-74.234	-0.089	-0.042
-356.581	-90.098	-0.319	0.121
-355.566	583.127	-0.157	0.506
-354.552	-22.873	-0.343	0.270
-353.537	613.459	-0.149	-0.490
-352.523	25.402	0.091	0.099
-351.508	-200.000	-0.000	-0.503
-350.493	-144.048	-0.167	-0.020
-349.479	-27.092	-0.236	-0.179
-348.464	-140.647	0.389	0.052
-347.450	-200.000	0.021	0.370
-346.435	-99.481	0.048	0.016
-345.420	-56.403	0.472	0.273
-344.406	-200.000	-0.011	-0.078
-343.391	-116.839	-0.196	0.047
-342.377	-200.000	0.011	0.240
-341.362	-62.117	-0.513	0.279
-340.348	96.852	0.156	-0.234
-339.333	-110.809	0.410	-0.110
-338.318	-200.000	0.052	0.353
-337.304	-27.726	0.303	-0.229
-336.289	10.480	-0.122	-0.121
-335.275	-20.082	0.182	0.146
-334.260	292.961	0.061	0.145
-333.245	-18.311	0.089	-0.072
-332.231	800.000	0.155	-0.655
-331.216	477.501	0.097	-0.289
-330.202	-167.778	-0.228	-0.012
-329.187	-131.430	-0.573	0.098
-328.172	-69.941	0.327	0.162
-327.158	-119.981	0.366	0.082
-326.143	583.368	-0.114	-0.369
-325.129	800.000	0.085	-0.363
-324.114	-76.304	0.450	0.206
-323.099	-115.758	-0.300	-0.073
-322.085	101.418	0.235	-0.359
-321.070	-122.440	0.426	0.090
-320.056	1.273	0.095	-0.089
-319.041	-148.366	-0.093	0.010
-318.026	-56.553	0.420	0.242
-317.012	800.000	0.089	0.343
-315.997	133.014	0.282	0.477
-314.983	-200.000	0.034	0.569
-313.968	-98.791	-0.234	-0.077
-312.953	-95.942	-0.199	-0.069
-311.939	-106.967	0.305	0.088
-310.924	-111.315	-0.423	-0.112
-309.910	24.437	0.157	0.170
-308.895	800.000	0.068	0.371
-307.880	800.000	0.060	0.332
-306.866	-99.575	-0.072	0.024
-305.851	173.871	-0.096	0.182
-304.837	95.904	0.098	-0.146
-303.822	383.356	0.122	-0.330
-302.807	575.263	-0.128	0.409
-301.793	54.172	0.270	-0.340
-300.778	84.759	-0.106	-0.151
-299.764	-120.978	-0.236	-0.051
-298.749	-50.760	0.273	0.167
-297.735	306.734	0.108	-0.264
-296.720	-200.000	-0.004	-0.240
-295.705	461.355	0.175	-0.512
-294.691	-200.000	0.026	-0.353
-293.676	386.149	-0.110	0.298
-292.662	37.023	0.346	0.400
-291.647	144.316	-0.246	0.430
-290.632	800.000	0.071	0.263
-289.618	-91.801	0.117	-0.043
-288.603	-193.541	0.227	0.002
-287.589	-61.309	-0.386	0.211
-286.574	-147.250	-0.055	-0.006
-285.559	-68.817	0.217	-0.109
-284.545	-58.600	-0.482	-0.272
-283.530	564.976	-0.067	0.214
-282.516	-75.559	0.279	0.129
-281.501	179.557	-0.145	-0.278
-280.486	-59.158	0.430	-0.241
-279.472	-80.207	-0.556	0.242
-278.457	28.812	0.103	-0.114
-277.443	10.683	-0.123	0.122
-276.428	-69.335	0.090	-0.045
-275.413	80.353	-0.188	-0.264
-274.399	-117.902	0.193	-0.045
-273.384	706.456	0.016	-0.056
-272.370	-4.493	-0.367	-0.330
-271.355	167.768	0.115	-0.214
-270.340	33.999	-0.211	0.240
-269.326	123.513	0.208	0.342
-268.311	223.325	-0.087	-0.183
-267.297	-84.022	0.172	0.071
-266.282	-97.646	-0.509	-0.171
-265.267	-82.811	-0.138	-0.058
-264.253	-6.968	0.382	0.338
-263.238	227.966	-0.242	0.515
-262.224	609.919	-0.138	0.451
-261.209	-87.295	-0.283	0.111
-260.195	-200.000	-0.055	0.358
-259.180	-74.635	-0.181	0.084
-258.165	-84.653	0.625	0.255
-257.151	-17.916	0.276	0.226
-256.136	-109.134	0.343	-0.095
-255.122	121.495	0.027	0.045
-254.107	62.471	0.104	-0.136
-253.092	-119.429	0.119	0.027
-252.078	-200.000	0.060	0.542
-251.063	105.437	-0.201	0.310
-250.049	522.871	-0.138	-0.425
-249.034	125.131	0.231	-0.380
-248.019	-50.952	-0.178	-0.109
-247.005	-200.000	-0.003	-0.122
-245.990	300.253	-0.111	0.267
-244.976	125.377	0.432	-0.712
-243.961	521.019	-0.039	-0.119
-242.946	-43.223	-0.137	-0.090
-241.932	31.859	0.381	-0.427
-240.917	-155.994	-0.262	-0.021
-239.903	26.226	0.103	0.112
-238.888	133.200	0.128	-0.216
-237.873	-49.996	0.449	0.277
-236.859	800.000	-0.110	-0.405
-235.844	439.546	-0.117	0.335
-234.830	130.484	-0.196	0.328
-233.815	559.470	-0.153	0.485
-232.800	-129.413	-0.536	-0.096
-231.786	-116.005	-0.246	0.059
-230.771	-7.107	-0.359	0.317
-229.757	-81.094	-0.460	0.197
-228.742	-124.049	0.125	0.025
-227.727	-86.537	-0.376	-0.150
-226.713	-13.089	-0.293	-0.248
-225.698	-42.734	-0.160	-0.105
-224.684	91.729	0.163	0.238
-223.669	65.292	0.192	0.254
-222.655	-98.748	0.360	0.119
-221.640	-18.958	0.262	-0.212
-220.625	-200.000	-0.080	-0.484
-219.611	-173.015	0.316	-0.012
-218.596	-44.368	0.227	0.148
-217.582	724.655	0.252	-0.880
-216.567	44.537	0.125	-0.150
-215.552	-83.426	0.147	0.061
-214.538	73.548	0.262	0.357
-213.523	307.318	-0.157	-0.383
-212.509	-57.005	0.129	-0.074
-211.494	800.000	0.050	0.216
-210.479	32.717	-0.090	0.102
-209.465	-128.345	0.435	-0.080
-208.450	86.833	0.065	-0.094
-207.436	-75.415	0.197	-0.091
-206.421	-128.584	-0.140	-0.026
-205.406	-106.454	-0.198	0.057
-204.392	-119.711	-0.247	0.055
-203.377	-87.431	-0.067	-0.026
-202.363	-76.219	0.242	-0.110
-201.348	-200.000	-0.002	0.479
-200.333	-52.317	-0.281	0.169
-199.319	-55.636	0.183	-0.106
-198.304	-37.433	-0.353	0.244
-197.290	800.000	-0.107	-0.405
-196.275	74.107	-0.082	-0.112
-195.260	-108.802	0.593	0.164
-194.246	343.455	0.111	-0.284
-193.231	-22.912	-0.168	-0.132
-192.217	-104.551	-0.249	-0.074
-191.202	402.295	0.098	0.268
-190.187	800.000	0.049	0.247
-189.173	-46.515	-0.105	0.067
-188.158	14.234	-0.190	-0.192
-187.144	-61.188	-0.106	0.058
-186.129	357.843	0.135	-0.352
-185.114	770.103	-0.036	-0.130
-184.100	115.566	0.250	-0.398
-183.085	-97.559	0.393	-0.132
-182.071	-45.238	-0.050	0.032
-181.056	239.882	0.046	0.100
-180.042	-72.800	0.392	-0.187
-179.027	167.416	0.176	-0.326
-178.012	79.417	-0.150	-0.209
-176.998	0.687	0.355	0.330
-175.983	81.246	0.127	-0.179
-174.969	-165.287	0.380	0.021
-173.954	28.181	-0.236	-0.259
-172.939	-70.167	0.367	-0.180
-171.925	461.265	0.209	0.610
-170.910	-74.762	-0.434	0.202
-169.896	170.209	-0.248	0.461
-168.881	-157.217	0.360	-0.028
-167.866	-77.012	0.331	-0.149
-166.852	-200.000	0.047	-0.291
-165.837	-200.000	0.009	-0.165
-164.823	82.121	0.105	-0.148
-163.808	800.000	0.078	0.422
-162.793	-110.758	-0.199	-0.053
-161.779	-200.000	-0.026	-0.240
-160.764	-99.303	0.618	-0.201
-159.750	39.420	-0.118	-0.137
-158.735	-177.762	0.455	-0.014
-157.720	-200.000	-0.031	-0.695
-156.706	-106.148	-0.462	-0.134
-155.691	88.036	-0.205	0.295
-154.677	35.492	-0.107	-0.122
-153.662	-200.000	0.043	0.436
-152.647	-37.622	0.438	0.302
-151.633	-46.088	-0.245	-0.156
-150.618	27.483	-0.218	0.238
-149.604	-200.000	0.006	0.572
-148.589	-200.000	-0.041	0.339
-147.574	-27.312	-0.135	-0.102
-146.560	101.874	0.128	0.194
-145.545	800.000	0.143	-0.606
-144.531	75.285	-0.091	0.125
-143.516	-200.000	-0.087	0.597
-142.502	-21.084	-0.305	-0.242
-141.487	-107.189	0.448	-0.127
-140.472	-95.023	0.167	-0.058
-139.458	242.772	0.035	-0.077
-138.443	395.204	-0.061	-0.167
-137.429	-79.820	0.369	0.161
-136.414	201.068	-0.186	-0.373
-135.399	-136.041	0.251	0.038
-134.385	-61.211	-0.181	0.098
-133.370	172.266	0.121	0.226
-132.356	800.000	-0.057	0.204
-131.341	-14.561	-0.148	-0.123
-130.326	-119.055	-0.185	-0.042
-129.312	-107.258	0.153	-0.043
-128.297	320.543	-0.043	0.106
-127.283	-23.693	0.462	0.358
-126.268	133.674	-0.123	0.206
-125.253	800.000	0.084	-0.475
-124.239	800.000	-0.056	0.221
-123.224	-77.747	-0.105	0.047
-122.210	-108.676	0.337	0.093
-121.195	66.414	0.238	-0.314
-120.180	193.680	0.146	-0.288
-119.166	-129.886	-0.559	0.099
-118.151	-36.303	-0.244	0.170
-117.137	795.414	0.135	0.486
-116.122	-200.000	0.018	-0.416
-115.107	337.510	0.185	-0.467
-114.093	-141.957	-0.434	0.056
-113.078	41.948	-0.220	0.259
-112.064	594.065	-0.154	-0.496
-111.049	-200.000	0.008	-0.554
-110.034	-69.796	-0.250	0.123
-109.020	192.432	0.095	-0.187
-108.005	-200.000	0.026	0.398
-106.991	115.777	-0.106	-0.168
-105.976	587.624	-0.060	0.191
-104.962	-90.378	-0.121	-0.045
-103.947	-78.882	-0.517	0.227
-102.932	800.000	0.048	0.180
-101.918	800.000	-0.077	-0.408
-100.903	766.295	0.050	0.178
-99.889	404.067	0.135	0.371
-98.874	-200.000	0.003	-0.297
-97.859	-200.000	0.049	0.440
-96.845	-176.950	-0.116	0.004
-95.830	800.000	-0.178	0.707
-94.816	-200.000	0.019	-0.681
-93.801	-185.284	0.478	-0.009
-92.786	-126.461	-0.574	-0.110
-91.772	-37.678	0.338	0.233
-90.757	-134.156	0.448	0.071
-89.743	-68.131	-0.342	-0.172
-88.728	50.703	0.079	-0.096
-87.713	-200.000	0.004	0.245
-86.699	241.334	-0.125	0.271
-85.684	367.627	0.145	0.382
-84.670	-150.646	-0.159	-0.016
-83.655	-126.660	-0.440	-0.084
-82.640	-40.619	0.201	0.135
-81.626	-174.306	0.201	-0.007
-80.611	-106.629	-0.186	-0.053
-79.597	58.206	0.141	0.179
-78.582	360.755	-0.105	-0.274
-77.567	-55.687	-0.067	-0.039
-76.553	-79.696	-0.118	0.051
-75.538	-36.424	0.460	0.320
-74.524	-125.098	-0.156	0.031
-73.509	-200.000	-0.016	-0.232
-72.494	4.914	0.033	0.031
-71.480	-69.761	0.324	-0.160
-70.465	239.039	-0.030	0.065
-69.451	661.564	0.234	0.786
-68.436	544.379	-0.083	0.257
-67.422	-9.133	-0.087	0.075
-66.407	-28.679	0.141	-0.105
-65.392	71.596	-0.049	-0.066
-64.378	390.887	0.078	0.210
-63.363	62.568	0.088	-0.114
-62.349	-48.108	-0.118	0.074
-61.334	14.351	-2.279	-2.298
-60.319	-35.212	1.409	0.990
-59.305	205.169	-3.666	-7.385
-58.290	102.772	3.796	5.756
-57.276	482.543	3.527	10.418
-56.261	-200.000	24.435	322.876
-55.246	349.387	1311.013	3362.408
-54.232	52.232	2850.040	3516.422
-53.217	50.930	2660.608	3262.425
-52.203	31.398	2390.131	2655.193
-51.188	27.623	2057.413	2238.975
-50.173	24.419	1944.125	2078.167
-49.159	23.279	1932.462	2052.345
-48.144	22.865	1927.721	2042.415
-47.130	22.766	1924.893	2038.197
-46.115	22.680	1922.693	2034.787
-45.100	22.622	1922.220	2033.528
-44.086	22.591	1920.753	2031.537
-43.071	22.680	1917.835	2029.405
-42.057	22.601	1917.233	2027.770
-41.042	22.541	1916.137	2025.838
-40.027	22.659	1914.721	2025.622
-39.013	22.629	1913.025	2023.405
-37.998	22.581	1912.108	2021.797
-36.984	22.502	1911.062	2019.708
-35.969	22.582	1909.094	2018.460
-34.954	22.540	1908.268	2017.027
-33.940	22.528	1906.521	2014.959
-32.925	22.437	1906.142	2013.435
-31.911	22.540	1904.369	2012.669
-30.896	22.509	1903.531	2011.344
-29.881	22.623	1901.958	2010.911
-28.867	22.555	1899.983	2007.964
-27.852	22.351	1899.219	2004.746
-26.838	22.385	1897.608	2003.344
-25.823	22.507	1896.055	2003.025
-24.809	22.524	1894.623	2001.631
-23.794	22.458	1893.832	1999.954
-22.779	22.429	1892.344	1997.976
-21.765	22.488	1890.193	1996.299
-20.750	22.393	1889.961	1994.886
-19.736	22.360	1888.649	1993.056
-18.721	22.405	1887.899	1992.693
-17.706	22.333	1887.204	1991.065
-16.692	22.397	1885.296	1989.693
-15.677	22.230	1884.802	1987.194
-14.663	22.370	1883.220	1987.043
-13.648	22.430	1880.572	1984.847
-12.633	22.461	1879.854	1984.363
-11.619	22.485	1877.811	1982.401
-10.604	22.366	1877.564	1980.718
-9.590	22.303	1877.158	1979.495
-8.575	22.303	1875.092	1977.236
-7.560	22.330	1873.746	1976.050
-6.546	22.360	1873.079	1975.604
-5.531	22.384	1871.384	1974.008
-4.517	22.418	1870.667	1973.549
-3.502	22.505	1868.953	1972.649
-2.487	22.405	1868.779	1971.257
-1.473	22.377	1865.401	1967.300
-0.458	22.157	1846.942	1945.314
0.556	18.831	1994.284	2048.430
1.571	17.319	2196.609	2236.007
2.586	18.149	2235.399	2286.371
3.600	18.219	2237.574	2289.270
4.615	18.120	2237.399	2287.480
5.629	18.156	2236.099	2286.363
6.644	18.086	2233.644	2282.636
7.659	18.115	2231.631	2280.694
8.673	18.162	2229.676	2279.061
9.688	17.866	2239.305	2284.641
10.702	16.987	2319.901	2354.333
11.717	15.270	2384.316	2394.776
12.731	7.072	2364.777	2257.701
13.746	0.966	2348.380	2154.632
14.761	0.166	2346.128	2140.878
15.775	0.077	2344.147	2137.551
16.790	0.003	2342.398	2134.638
17.804	0.089	2340.423	2133.811
18.819	0.118	2338.485	2132.200
19.834	0.123	2337.814	2131.404
20.848	0.020	2336.313	2128.321
21.863	0.038	2334.144	2126.337
22.877	0.067	2332.593	2125.092
23.892	0.038	2330.348	2122.372
24.907	0.097	2328.092	2120.905
25.921	0.030	2326.766	2118.484
26.936	0.001	2324.473	2115.734
27.950	-0.018	2321.891	2112.870
28.965	0.109	2319.672	2112.382
29.980	0.140	2317.435	2110.536
30.994	0.192	2315.759	2109.489
32.009	3.700	2326.962	2169.012
33.023	12.622	2351.978	2318.911
34.038	16.285	2357.733	2376.208
35.053	16.248	2355.206	2372.864
36.067	16.203	2351.115	2367.824
37.082	16.050	2351.250	2365.515
38.096	16.266	2348.825	2365.839
39.111	16.409	2346.790	2365.514
40.126	16.656	2344.069	2365.960
41.140	16.808	2343.137	2366.864
42.155	16.870	2342.343	2366.656
43.169	16.721	2340.651	2362.574
44.184	16.517	2336.863	2355.608
45.199	16.609	2333.951	2353.683
46.213	16.739	2333.282	2354.538
47.228	16.775	2332.036	2353.505
48.242	16.827	2330.301	2352.197
49.257	16.909	2327.962	2350.694
50.271	16.870	2326.754	2348.652
51.286	16.640	2322.950	2341.329
52.301	16.332	2321.684	2335.496
53.315	17.153	2324.866	2349.832
54.330	19.890	2330.853	2393.711
55.344	21.514	2332.883	2418.095
56.359	21.555	2330.505	2415.900
57.374	21.952	2328.487	2419.031
58.388	22.066	2326.235	2417.972
59.403	21.747	2322.807	2409.715
60.417	21.544	2319.083	2402.759
61.432	21.628	2317.424	2401.911
62.447	21.844	2316.831	2403.981
63.461	21.909	2315.549	2403.263
64.476	22.113	2313.417	2403.575
65.490	21.994	2309.819	2397.906
66.505	20.993	2306.193	2380.125
67.520	19.005	2298.296	2344.493
68.534	16.981	2290.550	2308.650
69.549	16.520	2286.320	2297.806
70.563	16.468	2284.006	2294.504
71.578	16.404	2282.530	2291.873
72.593	16.487	2280.824	2291.012
73.607	16.555	2279.808	2290.642
74.622	16.474	2278.804	2288.264
75.636	16.483	2274.803	2284.086
76.651	16.518	2271.578	2281.052
77.666	16.551	2269.859	2279.506
78.680	16.407	2268.012	2275.425
79.695	16.323	2265.164	2271.163
80.709	16.225	2264.110	2268.508
81.724	16.138	2261.934	2264.883
82.739	16.090	2260.056	2262.080
83.753	16.199	2257.543	2260.763
84.768	16.162	2256.467	2258.916
85.782	16.063	2255.456	2256.309
86.797	16.219	2252.088	2254.762
87.812	16.114	2250.573	2251.558
88.826	16.311	2249.268	2252.636
89.841	16.359	2246.625	2250.356
90.855	16.327	2244.726	2247.757
91.870	16.389	2243.094	2246.686
92.884	16.387	2241.631	2244.915
93.899	16.403	2240.788	2244.021
94.914	17.021	2242.968	2254.197
95.928	19.378	2251.027	2293.567
96.943	20.150	2248.481	2301.002
97.957	17.873	2238.021	2259.752
98.972	16.628	2231.535	2236.402
99.987	16.375	2228.559	2229.796
101.001	16.316	2226.983	2227.175
102.016	16.431	2223.545	2224.996
103.030	16.322	2221.438	2221.178
104.045	16.183	2219.768	2217.399
105.060	16.219	2218.177	2216.025
106.074	16.130	2216.246	2212.650
107.089	16.210	2214.590	2211.797
108.103	16.171	2212.965	2209.386
109.118	16.293	2211.749	2209.518
110.133	16.336	2210.539	2208.607
111.147	16.299	2208.428	2205.749
112.162	16.264	2207.401	2203.995
113.176	16.351	2204.472	2201.959
114.191	16.363	2203.030	2200.411
115.206	16.404	2201.743	2199.390
116.220	16.379	2199.264	2196.331
117.235	16.421	2197.437	2194.790
118.249	16.448	2195.361	2192.801
119.264	16.305	2194.211	2189.527
120.279	16.327	2193.430	2188.775
121.293	16.347	2191.180	2186.533
122.308	16.379	2188.910	2184.411
123.322	16.213	2187.620	2180.706
124.337	16.758	2188.567	2188.474
125.352	19.378	2196.480	2230.228
126.366	20.043	2194.568	2236.653
127.381	17.412	2183.292	2190.888
128.395	16.295	2179.597	2172.478
129.410	16.253	2176.835	2168.924
130.424	16.232	2175.080	2166.637
131.439	16.267	2173.603	2165.358
132.454	16.302	2172.219	2164.174
133.468	16.380	2170.067	2162.776
134.483	16.607	2168.951	2164.327
135.497	16.663	2167.669	2163.496
136.512	16.515	2165.181	2158.863
137.527	16.398	2163.343	2155.265
138.541	16.317	2161.064	2151.706
139.556	16.247	2161.404	2150.890
140.570	16.310	2159.006	2149.046
141.585	16.255	2156.256	2145.349
142.600	16.218	2155.104	2143.483
143.614	16.041	2154.488	2140.349
144.629	16.188	2151.364	2138.857
145.643	15.960	2151.135	2135.479
146.658	16.046	2149.126	2134.314
147.673	16.028	2145.888	2130.615
148.687	16.148	2145.252	2131.254
149.702	16.263	2145.607	2132.808
150.716	16.361	2144.407	2132.612
151.731	16.408	2142.443	2130.995
152.746	16.289	2142.196	2128.994
153.760	17.007	2145.755	2141.381
154.775	19.672	2151.195	2180.403
155.789	20.276	2150.174	2186.764
156.804	17.962	2137.942	2144.882
157.819	16.437	2131.906	2119.357
158.833	16.285	2129.353	2114.651
159.848	16.277	2127.205	2112.162
160.862	16.377	2125.630	2111.605
161.877	16.471	2124.589	2111.498
162.892	16.394	2124.395	2110.082
163.906	16.426	2122.457	2108.317
164.921	16.450	2120.188	2106.106
165.935	16.564	2117.691	2104.803
166.950	16.622	2117.603	2105.183
167.964	16.524	2113.694	2099.824
168.979	16.225	2112.166	2094.327
169.994	16.170	2110.770	2092.005
171.008	16.083	2109.671	2089.581
172.023	16.032	2108.551	2087.592
173.037	16.119	2107.707	2087.580
174.052	16.275	2105.488	2087.072
175.067	16.245	2103.623	2084.603
176.081	16.182	2101.797	2081.770
177.096	16.160	2100.531	2079.987
178.110	16.233	2099.673	2079.792
179.125	16.391	2097.594	2079.438
180.140	16.251	2096.476	2076.357
181.154	16.413	2096.037	2077.673
182.169	16.490	2095.027	2077.371
183.183	17.205	2097.459	2088.372
184.198	20.060	2103.949	2129.919
185.213	20.451	2101.581	2132.090
186.227	17.608	2092.697	2087.844
187.242	16.576	2087.859	2070.087
188.256	16.422	2085.239	2065.350
189.271	16.229	2083.929	2061.427
190.286	16.368	2082.071	2061.050
191.300	16.208	2079.847	2056.640
192.315	16.276	2077.885	2055.285
193.329	16.394	2077.078	2055.689
194.344	16.688	2076.139	2058.111
195.359	16.717	2074.799	2056.885
196.373	16.420	2072.942	2051.180
197.388	16.366	2069.373	2046.745
198.402	16.342	2067.810	2044.664
199.417	16.201	2065.771	2040.677
200.432	16.329	2064.076	2040.322
201.446	16.314	2063.451	2039.277
202.461	16.301	2062.011	2037.453
203.475	16.377	2059.206	2035.352
204.490	16.303	2057.859	2032.880
205.504	16.367	2055.506	2031.094
206.519	16.403	2053.788	2029.585
207.534	16.309	2052.206	2026.638
208.548	16.385	2050.122	2025.255
209.563	16.565	2048.943	2026.019
210.577	16.497	2048.123	2024.146
211.592	16.476	2048.381	2023.908
212.607	17.797	2053.680	2044.821
213.621	20.808	2060.167	2087.379
214.636	20.294	2053.679	2074.378
215.650	17.311	2044.980	2029.600
216.665	16.579	2040.539	2016.187
217.680	16.494	2038.829	2013.238
218.694	16.371	2037.302	2010.019
219.709	16.237	2035.935	2006.826
220.723	16.367	2035.087	2007.303
221.738	16.492	2032.707	2006.208
222.753	16.542	2031.029	2004.903
223.767	16.540	2029.629	2003.260
224.782	16.400	2028.149	1999.900
225.796	16.348	2026.925	1997.830
226.811	16.501	2024.680	1997.193
227.826	16.500	2023.042	1995.333
228.840	16.358	2021.793	1992.171
229.855	16.332	2020.137	1989.999
230.869	16.417	2018.207	1988.867
231.884	16.146	2017.791	1985.009
232.899	16.202	2016.092	1983.761
233.913	16.279	2014.740	1983.101
234.928	16.239	2013.010	1980.691
235.942	16.180	2011.216	1977.991
236.957	16.277	2009.261	1976.972
237.972	16.350	2008.458	1976.808
238.986	16.254	2007.200	1974.203
240.001	16.262	2005.372	1972.260
241.015	16.413	2004.844	1973.279
242.030	17.207	2006.384	1983.880
243.045	19.623	2012.169	2017.772
244.059	19.902	2009.680	2018.301
245.074	17.475	1999.568	1979.561
246.088	16.527	1996.366	1965.087
247.103	16.587	1995.187	1964.401
248.117	16.581	1993.464	1962.397
249.132	16.295	1992.233	1957.615
250.147	16.401	1989.952	1956.373
251.161	16.421	1987.919	1954.370
252.176	16.573	1987.703	1955.692
253.190	16.836	1984.957	1955.806
254.205	16.813	1983.906	1954.278
255.220	16.780	1982.197	1951.976
256.234	16.696	1980.745	1949.339
257.249	16.454	1980.469	1946.032
258.263	16.432	1979.532	1944.619
259.278	16.438	1978.718	1943.661
260.293	16.440	1975.724	1940.509
261.307	16.307	1973.406	1936.468
262.322	16.287	1971.741	1934.373
263.336	16.185	1970.454	1931.708
264.351	16.254	1967.677	1929.548
265.366	16.083	1966.863	1926.548
266.380	16.099	1966.539	1926.181
267.395	16.137	1965.567	1925.440
268.409	16.178	1963.782	1923.933
269.424	16.232	1961.727	1922.302
270.439	16.246	1961.915	1922.418
271.453	17.236	1963.718	1935.290
272.468	19.979	1969.165	1971.873
273.482	20.062	1965.003	1968.409
274.497	17.458	1954.880	1928.418
275.512	16.379	1951.246	1912.335
276.526	16.246	1949.685	1909.068
277.541	16.169	1947.371	1905.694
278.555	16.092	1946.119	1903.362
279.570	16.036	1944.297	1900.725
280.585	16.088	1943.422	1900.232
281.599	16.283	1941.479	1900.310
282.614	16.394	1941.231	1901.089
283.628	16.712	1940.317	1903.565
284.643	16.618	1940.176	1902.141
285.657	16.800	1938.706	1902.518
286.672	16.944	1935.934	1901.195
287.687	16.856	1935.025	1899.087
288.701	16.642	1934.573	1896.006
289.716	16.640	1932.904	1894.121
290.730	16.710	1931.058	1892.867
291.745	16.824	1929.925	1892.809
292.760	16.817	1928.171	1890.791
293.774	16.479	1927.818	1886.430
294.789	16.522	1926.082	1884.981
295.803	16.314	1923.319	1879.731
296.818	16.264	1922.238	1877.882
297.833	16.390	1921.336	1878.187
298.847	16.419	1919.998	1876.975
299.862	16.495	1917.762	1875.412
300.876	17.246	1919.655	1885.424
301.891	20.025	1925.896	1922.365
302.906	20.348	1923.602	1923.443
303.920	17.720	1914.510	1884.962
304.935	16.666	1910.904	1869.492
305.949	16.482	1908.549	1864.917
306.964	16.335	1907.274	1861.819
307.979	16.437	1905.793	1861.281
308.993	16.746	1905.011	1863.711
310.008	16.959	1903.743	1864.608
311.022	17.004	1902.244	1863.415
312.037	16.773	1900.283	1858.715
313.052	16.763	1898.603	1856.744
314.066	16.867	1897.707	1856.795
315.081	16.779	1896.942	1854.849
316.095	16.773	1895.848	1853.495
317.110	16.621	1894.121	1849.912
318.125	16.547	1891.931	1846.741
319.139	16.667	1890.031	1845.979
320.154	16.693	1888.341	1844.390
321.168	16.649	1887.274	1842.644
322.183	16.437	1885.581	1838.463
323.197	16.243	1883.598	1834.186
324.212	16.059	1881.766	1830.168
325.227	16.148	1879.250	1828.473
326.241	16.163	1878.073	1827.281
327.256	16.145	1877.442	1826.244
328.270	16.169	1877.262	1826.119
329.285	16.252	1876.477	1826.040
330.300	17.240	1880.383	1840.381
331.314	20.282	1886.397	1879.212
332.329	20.279	1880.212	1872.796
333.343	17.302	1871.809	1831.997
334.358	16.303	1868.954	1818.183
335.373	16.210	1867.178	1815.222
336.387	16.216	1864.102	1812.084
337.402	16.197	1863.039	1810.627
338.416	16.188	1862.200	1809.504
339.431	16.334	1860.256	1808.969
340.446	16.415	1858.910	1808.314
341.460	16.449	1858.251	1807.816
342.475	16.769	1857.123	1809.947
343.489	16.689	1855.634	1807.415
344.504	16.631	1855.016	1805.975
345.519	16.678	1853.795	1805.077
346.533	16.797	1852.839	1805.200
347.548	17.027	1851.013	1805.672
348.562	16.884	1849.879	1802.815
349.577	16.874	1848.901	1801.546
350.592	16.999	1848.242	1802.021
351.606	17.058	1846.314	1800.548
352.621	17.037	1844.226	1798.075
353.635	16.793	1842.611	1793.693
354.650	16.673	1841.027	1790.657
355.665	16.540	1838.875	1786.943
356.679	16.432	1838.195	1784.917
357.694	16.325	1837.005	1782.415
358.708	16.359	1836.500	1782.070
359.723	17.471	1840.474	1797.521
360.738	20.431	1844.275	1832.460
361.752	19.651	1838.897	1818.645
362.767	17.103	1831.436	1784.162
363.781	16.436	1828.387	1773.951
364.796	16.437	1826.394	1771.818
365.810	16.236	1825.540	1768.653
366.825	16.307	1824.012	1767.714
367.840	16.617	1823.851	1770.602
368.854	16.673	1823.246	1770.396
369.869	16.520	1820.732	1766.138
370.883	16.308	1819.089	1762.108
371.898	16.295	1817.642	1760.359
372.913	16.306	1816.821	1759.464
373.927	16.370	1816.031	1759.159
374.942	16.459	1815.291	1759.166
375.956	16.577	1813.199	1758.160
376.971	16.541	1810.801	1755.246
377.986	16.469	1809.404	1752.935
379.000	16.418	1807.867	1750.700
380.015	16.543	1806.658	1750.624
381.029	16.434	1804.543	1747.233
382.044	16.258	1802.744	1743.451
383.059	16.286	1801.201	1742.043
384.073	16.173	1801.158	1740.625
385.088	16.134	1800.463	1739.340
386.102	16.114	1797.873	1736.422
387.117	16.170	1795.484	1734.484
388.132	16.046	1796.125	1733.608
389.146	17.095	1800.292	1748.285
390.161	20.317	1804.645	1785.686
391.175	20.003	1798.288	1775.945
392.190	17.122	1789.663	1737.620
393.205	16.404	1786.189	1726.664
394.219	16.319	1784.944	1724.386
395.234	16.298	1783.683	1722.747
396.248	16.407	1781.724	1721.760
397.263	16.160	1779.613	1716.987
398.278	16.180	1777.639	1715.080
399.292	16.281	1777.537	1715.813
400.307	16.374	1776.362	1715.423
401.321	16.370	1775.588	1714.425
402.336	16.380	1774.468	1713.240
403.350	16.439	1772.129	1711.380
404.365	16.601	1771.690	1712.405
405.380	16.926	1770.678	1714.524
406.394	16.978	1770.056	1714.246
407.409	16.880	1768.162	1711.213
408.423	16.967	1767.436	1711.188
409.438	16.860	1765.341	1707.863
410.453	16.847	1764.804	1707.010
411.467	16.870	1763.603	1705.878
412.482	16.809	1761.407	1702.929
413.496	16.512	1760.121	1698.487
414.511	16.546	1757.970	1696.555
415.526	16.407	1755.924	1692.977
416.540	16.383	1754.278	1690.944
417.555	16.313	1753.770	1689.546
418.569	16.546	1754.125	1692.027
419.584	16.593	1753.611	1691.807
420.599	16.582	1753.270	1691.164
421.613	16.295	1752.090	1686.935
422.628	16.384	1750.436	1686.040
423.642	16.363	1748.518	1683.779
424.657	16.409	1747.190	1682.762
425.672	16.524	1746.142	1682.696
426.686	16.510	1745.157	1681.407
427.701	16.427	1743.476	1678.756
428.715	16.558	1741.915	1678.357
429.730	16.771	1740.699	1679.113
430.745	16.625	1739.547	1676.348
431.759	16.952	1738.164	1678.066
432.774	17.154	1739.369	1681.031
433.788	17.736	1739.577	1686.822
434.803	17.895	1738.910	1687.553
435.818	17.845	1738.723	1686.678
436.832	17.590	1738.385	1683.609
437.847	16.598	1730.657	1666.110
438.861	9.049	1710.554	1572.452
439.876	1.630	1697.045	1487.158
440.890	0.269	1693.454	1470.492
441.905	0.263	1691.875	1468.885
442.920	0.119	1691.125	1466.646
443.934	0.137	1688.932	1464.749
444.949	0.233	1687.766	1464.493
445.963	0.116	1687.375	1462.842
446.978	0.145	1686.414	1462.118
447.993	0.109	1685.509	1460.799
449.007	0.067	1683.152	1458.172
450.022	0.254	1681.135	1458.070
451.036	0.178	1679.341	1455.601
452.051	1.094	1684.202	1468.572
453.066	8.612	1700.573	1556.391
454.080	16.010	1711.739	1638.997
455.095	17.425	1714.066	1654.869
456.109	17.751	1713.998	1657.794
457.124	17.957	1712.575	1658.231
458.139	17.942	1712.161	1657.480
459.153	17.901	1711.962	1656.689
460.168	18.054	1709.714	1655.808
461.182	18.031	1707.726	1653.464
462.197	17.980	1705.639	1650.743
463.212	17.746	1704.121	1646.809
464.226	17.878	1703.910	1647.692
465.241	17.867	1702.439	1645.959
466.255	17.952	1701.876	1646.043
467.270	18.014	1700.101	1644.736
468.285	17.907	1698.617	1642.068
469.299	17.745	1697.471	1639.198
470.314	17.806	1695.753	1637.924
471.328	17.965	1694.001	1637.572
472.343	17.927	1693.561	1636.583
473.358	17.935	1692.010	1634.968
474.372	18.050	1691.270	1635.159
475.387	17.797	1689.872	1631.184
476.401	17.728	1688.473	1628.973
477.416	17.933	1686.421	1628.769
478.430	17.954	1685.220	1627.612
479.445	17.819	1684.035	1624.979
480.460	17.727	1682.986	1622.899
481.474	17.675	1682.723	1621.946
482.489	17.947	1681.556	1623.233
483.503	18.003	1679.619	1621.697
484.518	18.032	1678.264	1620.478
485.533	18.077	1677.136	1619.620
486.547	18.124	1674.848	1617.663
487.562	18.147	1675.035	1617.865
488.576	18.288	1672.504	1616.570
489.591	18.310	1670.155	1614.314
490.606	17.988	1670.369	1611.274
491.620	18.063	1668.407	1609.895
492.635	18.233	1667.453	1610.392
493.649	18.247	1665.811	1608.747
494.664	18.073	1664.633	1605.776
495.679	17.790	1663.011	1601.351
496.693	17.942	1661.359	1601.000
497.708	18.075	1661.290	1601.990
498.722	18.084	1660.698	1601.312
499.737	18.192	1659.175	1600.669
500.752	18.061	1657.463	1597.598
501.766	17.933	1655.821	1594.620
502.781	18.131	1653.714	1594.258
503.795	18.081	1652.527	1592.454
504.810	18.003	1651.838	1590.868
505.825	18.162	1651.488	1591.826
506.839	18.220	1650.237	1590.972
507.854	18.125	1648.414	1588.142
508.868	18.260	1646.900	1587.749
509.883	18.144	1646.738	1586.321
510.898	18.263	1645.060	1585.621
511.912	18.168	1643.163	1582.722
512.927	18.100	1641.530	1580.329
513.941	18.091	1640.369	1578.943
514.956	18.069	1638.464	1576.714
515.971	17.958	1636.926	1574.011
516.985	17.996	1636.609	1573.872
518.000	17.952	1637.125	1573.770
519.014	18.234	1635.086	1574.230
520.029	18.303	1633.815	1573.457
521.043	18.217	1633.084	1571.773
522.058	18.103	1631.600	1569.103
523.073	18.259	1630.436	1569.236
524.087	18.446	1629.617	1569.985
525.102	18.356	1627.637	1567.059
526.116	18.313	1626.269	1565.158
527.131	17.998	1626.030	1561.850
528.146	18.347	1624.876	1563.760
529.160	18.231	1623.439	1561.121
530.175	18.279	1622.782	1560.738
531.189	18.453	1621.584	1561.001
532.204	18.538	1619.893	1559.962
533.219	18.349	1618.134	1556.356
534.233	18.229	1617.649	1554.607
535.248	18.228	1617.455	1554.226
536.262	18.469	1616.093	1554.923
537.277	18.407	1613.969	1552.131
538.292	18.359	1612.523	1550.114
539.306	18.304	1610.797	1547.769
540.321	18.297	1609.842	1546.611
541.335	18.340	1608.419	1545.447
542.350	18.399	1607.360	1544.775
543.365	18.421	1605.328	1542.840
544.379	18.437	1604.814	1542.306
545.394	18.496	1603.289	1541.185
546.408	18.347	1601.934	1538.360
547.423	18.117	1600.454	1534.677
548.438	18.187	1598.695	1533.435
549.452	18.260	1598.666	1533.885
550.467	18.296	1597.486	1532.888
551.481	18.392	1596.274	1532.406
552.496	18.392	1595.534	1531.513
553.511	18.588	1594.655	1532.249
554.525	18.511	1593.434	1530.203
555.540	18.621	1592.771	1530.363
556.554	18.552	1591.537	1528.381
557.569	18.489	1590.214	1526.360
558.583	18.303	1588.520	1522.885
559.598	18.477	1586.531	1522.353
560.613	18.599	1586.020	1522.773
561.627	18.655	1584.591	1521.714
562.642	18.502	1584.052	1519.651
563.656	18.621	1582.755	1519.288
564.671	18.551	1581.465	1517.239
565.686	18.460	1580.402	1515.232
566.700	18.503	1578.438	1513.553
567.715	18.406	1577.037	1511.165
568.729	18.219	1575.683	1508.033
569.744	18.112	1574.229	1505.512
570.759	18.202	1572.844	1504.802
571.773	18.356	1571.966	1505.139
572.788	18.458	1570.779	1504.724
573.802	18.487	1569.806	1503.872
574.817	18.674	1567.792	1503.408
575.832	18.667	1567.384	1502.775
576.846	18.692	1565.971	1501.456
577.861	18.521	1564.321	1498.196
578.875	18.594	1564.502	1498.832
579.890	18.720	1563.704	1498.997
580.905	18.769	1562.644	1498.224
581.919	18.860	1561.796	1498.030
582.934	18.900	1560.413	1496.874
583.948	18.928	1558.603	1495.201
584.963	18.712	1557.878	1492.444
585.978	18.611	1556.789	1490.341
586.992	18.631	1556.174	1489.745
588.007	18.763	1554.985	1489.583
589.021	18.515	1553.603	1485.923
590.036	18.344	1552.235	1482.941
591.051	18.492	1550.832	1482.709
592.065	18.623	1549.824	1482.710
593.080	18.674	1548.245	1481.462
594.094	18.712	1546.522	1479.965
595.109	18.549	1544.427	1476.375
596.123	18.461	1542.256	1473.361
597.138	18.682	1541.735	1474.595
598.153	18.742	1541.360	1474.583
599.167	18.683	1540.082	1472.668
600.182	18.731	1539.550	1472.399
601.196	18.645	1538.829	1470.792
602.211	18.712	1537.386	1469.815
603.226	18.973	1535.806	1470.376
604.240	18.897	1534.850	1468.631
605.255	18.963	1533.547	1467.771
606.269	18.901	1532.490	1466.050
607.284	18.935	1531.776	1465.486
608.299	18.869	1530.479	1463.510
609.313	18.679	1529.278	1460.553
610.328	18.769	1527.896	1459.832
611.342	19.042	1525.783	1459.968
612.357	18.958	1525.649	1458.946
613.372	18.957	1525.199	1458.334
614.386	18.786	1524.371	1455.913
615.401	18.953	1522.874	1455.726
616.415	19.048	1521.786	1455.325
617.430	19.017	1520.819	1453.962
618.445	18.999	1520.536	1453.362
619.459	18.807	1519.277	1450.354
620.474	18.726	1517.018	1447.337
621.488	18.443	1515.894	1443.699
622.503	18.301	1514.927	1441.404
623.518	18.664	1514.454	1443.847
624.532	18.831	1513.409	1444.086
625.547	18.858	1512.722	1443.489
626.561	19.079	1511.612	1444.121
627.576	19.129	1510.623	1443.429
628.591	18.924	1507.952	1438.974
629.605	18.634	1506.980	1435.435
630.620	18.581	1505.029	1432.963
631.634	18.396	1504.405	1430.643
632.649	18.456	1503.546	1430.159
633.663	18.617	1502.949	1430.770
634.678	18.957	1501.407	1431.981
635.693	19.143	1500.615	1432.610
636.707	19.073	1499.238	1430.534
637.722	19.217	1498.273	1430.646
638.736	19.168	1497.412	1429.240
639.751	19.205	1496.000	1428.034
640.766	19.166	1494.852	1426.443
641.780	19.110	1493.749	1424.749
642.795	19.184	1492.215	1423.738
643.809	19.172	1491.721	1422.991
644.824	19.196	1491.287	1422.606
645.839	19.109	1489.452	1419.963
646.853	19.151	1488.139	1418.888
647.868	19.178	1486.328	1417.218
648.882	19.227	1484.739	1415.936
649.897	19.082	1484.484	1414.331
650.912	19.052	1483.681	1413.150
651.926	19.216	1481.826	1412.564
652.941	18.958	1480.593	1409.090
653.955	18.737	1478.955	1405.550
654.970	18.520	1477.384	1402.101
655.985	18.594	1476.217	1401.437
656.999	18.678	1474.706	1400.522
658.014	18.795	1474.060	1400.702
659.028	18.894	1472.895	1400.234
660.043	19.062	1472.370	1400.945
661.058	19.205	1470.898	1400.544
662.072	19.136	1470.535	1399.470
663.087	19.052	1469.523	1397.652
664.101	19.017	1468.354	1396.081
665.116	19.139	1467.168	1395.789
666.131	19.205	1466.615	1395.628
667.145	19.056	1466.215	1393.870
668.160	19.183	1464.352	1392.963
669.174	19.401	1462.723	1393.018
670.189	19.455	1460.898	1391.548
671.204	19.106	1461.157	1388.798
672.218	19.246	1459.712	1388.397
673.233	19.414	1458.479	1388.415
674.247	19.383	1457.682	1387.239
675.262	19.608	1456.958	1388.201
676.276	19.485	1455.936	1386.069
677.291	19.220	1454.930	1382.805
678.306	19.153	1453.432	1380.679
679.320	19.137	1452.536	1379.534
680.335	19.217	1452.120	1379.616
681.349	19.389	1450.877	1379.654
682.364	19.281	1449.451	1377.263
683.379	19.312	1448.337	1376.292
684.393	19.086	1447.153	1373.186
685.408	19.377	1446.040	1374.296
686.422	19.266	1444.707	1371.979
687.437	19.343	1444.897	1372.609
688.452	19.502	1443.941	1372.813
689.466	19.339	1441.999	1369.497
690.481	19.178	1440.597	1366.715
691.495	18.988	1439.407	1363.912
692.510	18.745	1437.933	1360.416
693.525	18.653	1435.684	1357.392
694.539	18.610	1436.263	1357.437
695.554	19.081	1436.076	1360.844
696.568	19.216	1435.269	1360.987
697.583	19.369	1434.397	1361.216
698.598	19.286	1433.696	1359.729
699.612	19.437	1431.728	1358.890
700.627	19.327	1431.118	1357.284
701.641	19.485	1429.430	1356.766
702.656	19.458	1428.366	1355.380
703.671	19.575	1427.630	1355.443
704.685	19.627	1427.240	1355.318
705.700	19.515	1425.740	1352.849
706.714	19.447	1424.169	1350.664
707.729	19.253	1423.215	1348.071
708.744	19.177	1421.441	1345.633
709.758	19.254	1419.934	1344.649
710.773	19.231	1418.175	1342.644
711.787	19.153	1417.129	1340.881
712.802	19.070	1416.067	1339.069
713.816	19.085	1416.021	1338.979
714.831	19.283	1415.202	1339.594
715.846	19.404	1414.109	1339.345
716.860	19.604	1412.734	1339.442
717.875	19.446	1412.231	1337.567
718.889	19.375	1411.157	1335.842
719.904	19.555	1410.079	1336.057
720.919	19.505	1409.027	1334.516
721.933	19.687	1408.116	1334.902
722.948	19.678	1407.201	1333.808
723.962	19.497	1406.370	1331.459
724.977	19.711	1404.885	1331.551
725.992	19.736	1403.660	1330.425
727.006	19.641	1402.384	1328.316
728.021	19.754	1400.889	1327.619
729.035	19.775	1399.506	1326.307
730.050	19.743	1399.500	1325.901
731.065	19.510	1399.256	1323.714
732.079	19.733	1398.124	1324.200
733.094	19.568	1396.158	1320.909
734.108	19.404	1394.863	1318.272
735.123	19.568	1393.103	1317.703
736.138	19.568	1392.213	1316.703
737.152	19.558	1391.333	1315.640
738.167	19.673	1390.785	1315.846
739.181	19.703	1389.318	1314.526
740.196	19.616	1388.766	1313.186
741.211	19.580	1388.374	1312.383
742.225	19.652	1386.932	1311.412
743.240	19.631	1385.483	1309.725
744.254	19.598	1384.086	1307.997
745.269	19.546	1383.634	1307.012
746.284	19.509	1382.757	1305.747
747.298	19.435	1381.468	1303.810
748.313	19.091	1380.269	1299.913
749.327	18.714	1379.327	1296.014
750.342	18.789	1377.567	1294.772
751.356	18.681	1376.036	1292.361
752.371	18.858	1375.127	1292.685
753.386	19.499	1374.315	1296.616
754.400	19.606	1374.213	1297.166
755.415	19.722	1373.591	1297.301
756.429	19.756	1371.804	1295.717
757.444	19.711	1370.587	1294.073
758.459	19.729	1370.470	1293.941
759.473	19.896	1369.811	1294.418
760.488	19.872	1368.001	1292.376
761.502	19.807	1366.872	1290.664
762.517	19.755	1365.365	1288.699
763.532	19.766	1363.437	1286.807
764.546	19.648	1362.310	1284.707
765.561	19.320	1361.890	1281.705
766.575	19.061	1361.194	1278.965
767.590	19.087	1359.310	1277.237
768.605	19.329	1358.417	1278.045
769.619	19.591	1357.090	1278.595
770.634	19.710	1356.178	1278.464
771.648	19.682	1356.135	1278.068
772.663	19.889	1356.109	1279.427
773.678	19.862	1354.142	1277.221
774.692	19.804	1354.068	1276.565
775.707	19.758	1353.649	1275.673
776.721	19.946	1352.646	1275.971
777.736	19.905	1352.002	1274.906
778.751	19.914	1350.191	1273.112
779.765	19.963	1349.349	1272.525
780.780	19.778	1348.065	1269.802
781.794	19.773	1347.574	1269.149
782.809	19.750	1346.223	1267.554
783.824	19.553	1345.599	1265.367
784.838	19.172	1343.666	1260.596
785.853	18.942	1342.328	1257.492
786.867	19.093	1341.210	1257.403
787.882	19.329	1340.454	1258.281
788.897	19.436	1340.277	1258.745
789.911	19.476	1339.747	1258.394
790.926	19.520	1338.454	1257.347
791.940	19.907	1336.727	1258.402
792.955	19.864	1335.773	1257.040
793.969	19.687	1335.285	1255.138
794.984	19.686	1334.524	1254.264
795.999	19.891	1333.122	1254.293
797.013	19.911	1331.022	1252.314
798.028	19.921	1330.132	1251.401
799.042	19.921	1330.219	1251.327
800.057	19.973	1328.975	1250.387
801.072	19.920	1327.286	1248.267
802.086	19.907	1326.069	1246.875
803.101	19.921	1325.581	1246.371
804.115	19.888	1324.943	1245.385
805.130	19.920	1323.261	1243.882
806.145	19.987	1321.831	1242.872
807.159	20.070	1320.223	1241.811
808.174	19.811	1319.557	1239.173
809.188	19.937	1317.884	1238.355
810.203	19.737	1315.925	1234.932
811.218	19.589	1314.168	1232.072
812.232	19.409	1312.861	1229.409
813.247	19.177	1312.059	1226.854
814.261	19.463	1312.154	1228.844
815.276	19.742	1311.062	1229.669
816.291	19.852	1310.480	1229.758
817.305	20.007	1310.240	1230.493
818.320	20.087	1308.196	1228.997
819.334	19.978	1306.852	1226.811
820.349	20.018	1305.729	1225.899
821.364	19.912	1304.480	1223.822
822.378	19.963	1303.419	1223.045
823.393	19.964	1301.664	1221.260
824.407	19.983	1300.719	1220.359
825.422	20.001	1300.381	1220.025
826.437	19.916	1299.474	1218.427
827.451	19.815	1296.940	1215.192
828.466	19.356	1295.078	1210.066
829.480	19.088	1293.532	1206.586
830.495	19.206	1292.255	1206.083
831.509	19.523	1291.814	1207.753
832.524	19.754	1291.527	1208.968
833.539	19.891	1290.385	1208.717
834.553	20.019	1289.233	1208.385
835.568	19.944	1288.472	1207.005
836.582	20.125	1286.954	1206.703
837.597	20.083	1285.931	1205.308
838.612	20.052	1284.810	1203.893
839.626	19.874	1283.658	1201.430
840.641	19.644	1282.912	1198.987
841.655	19.544	1281.988	1197.278
842.670	19.426	1279.866	1194.332
843.685	19.203	1278.677	1191.530
844.699	19.603	1277.346	1192.923
845.714	19.763	1276.693	1193.281
846.728	19.966	1275.856	1193.762
847.743	20.084	1274.994	1193.631
848.758	20.081	1274.348	1192.863
849.772	19.932	1273.604	1190.996
850.787	20.013	1272.310	1190.200
851.801	20.074	1270.306	1188.605
852.816	19.956	1268.855	1186.293
853.831	19.843	1267.279	1183.900
854.845	19.822	1265.605	1182.047
855.860	19.716	1264.250	1179.913
856.874	19.766	1262.783	1178.745
857.889	19.598	1261.439	1176.204
858.904	19.284	1259.923	1172.500
859.918	19.276	1257.549	1170.100
860.933	19.191	1256.190	1168.114
861.947	19.241	1256.243	1168.364
862.962	19.471	1255.738	1169.318
863.977	19.571	1254.452	1168.663
864.991	19.530	1254.803	1168.571
866.006	19.710	1254.433	1169.308
867.020	19.957	1252.692	1169.224
868.035	20.043	1251.437	1168.501
869.049	20.124	1251.126	1168.617
870.064	19.872	1250.533	1166.216
871.079	20.035	1249.224	1165.961
872.093	19.927	1249.517	1165.361
873.108	19.946	1247.711	1163.667
874.122	19.908	1245.437	1161.149
875.137	19.581	1245.594	1158.951
876.152	19.654	1244.165	1157.977
877.166	19.799	1242.489	1157.248
878.181	19.980	1241.509	1157.415
879.195	20.238	1240.979	1158.515
880.210	20.040	1240.833	1156.914
881.225	20.096	1239.472	1155.877
882.239	20.203	1237.913	1155.006
883.254	20.014	1238.241	1153.906
884.268	20.073	1237.134	1153.133
885.283	20.120	1235.601	1151.875
886.298	20.231	1233.538	1150.557
887.312	20.242	1232.711	1149.722
888.327	20.200	1231.437	1148.115
889.341	20.096	1230.369	1146.290
890.356	20.080	1229.623	1145.351
891.371	20.034	1229.606	1144.895
892.385	19.987	1228.943	1143.825
893.400	19.793	1227.741	1141.282
894.414	19.874	1225.835	1139.910
895.429	19.690	1224.152	1136.994
896.444	19.290	1222.174	1132.381
897.458	19.004	1220.687	1128.980
898.473	19.373	1220.126	1130.759
899.487	19.640	1220.878	1133.082
900.502	19.869	1219.985	1133.623
901.517	19.819	1218.916	1132.165
902.531	20.024	1217.744	1132.288
903.546	20.222	1216.884	1132.654
904.560	20.216	1216.098	1131.748
905.575	20.097	1215.633	1130.397
906.589	20.177	1214.246	1129.501
907.604	20.118	1214.280	1129.012
