DTS Sentinel unit serial number:	SN409020Multiplexer serial number:	ORYXHardware model number:	OX4-SRSoftware version number:	ORYX F/W v3.00 Oryx Data Collector v3.7.2.0data status	okinstallation	HaddamTimeLapsedifferential loss correction	single-endedforward channel	channel 3reverse channel	N/Adate	2011/06/21time	15:01:17forward acquisition time	30.00reverse acquisition time	0.00gamma	498.7831k internal	0.1834k external	0.1834temperature offset calibration	1.0074default loss term (dB/km)	0.3790temperature slope calibration	1.3530multiplexer offset coefficient	1.0000multiplexer slope coefficient	1.0000fibre end	0.00T internal ref (°C)	38.37T ext. ref 1 (°C)	30.98T ext. ref 2 (°C)	0.27length (m)	temperature (°C)	Stokes	anti-Stokes-747.200	-25.734	-0.227	0.170
-746.185	-200.000	0.030	0.429
-745.171	7.465	0.285	-0.270
-744.156	-200.000	-0.027	0.711
-743.142	181.866	-0.114	-0.213
-742.127	-200.000	0.011	0.067
-741.112	-157.716	0.349	-0.026
-740.098	-200.000	0.037	0.394
-739.083	23.335	-0.222	0.232
-738.069	-102.129	-0.155	0.047
-737.054	260.784	-0.090	-0.198
-736.039	183.494	-0.195	0.366
-735.025	48.715	-0.098	-0.117
-734.010	-169.025	0.392	0.018
-732.996	-125.625	0.185	-0.035
-731.981	151.618	0.240	0.416
-730.966	-60.464	0.423	-0.227
-729.952	21.726	0.220	-0.227
-728.937	-103.723	0.491	0.145
-727.923	191.225	-0.058	-0.111
-726.908	112.347	0.052	-0.079
-725.894	-200.000	-0.036	-0.247
-724.879	-68.847	-0.587	-0.286
-723.864	-34.482	-0.409	-0.284
-722.850	27.199	0.297	-0.316
-721.835	-200.000	0.003	0.228
-720.821	-63.683	0.211	-0.109
-719.806	-200.000	-0.000	-0.297
-718.791	-115.511	-0.175	-0.041
-717.777	183.876	-0.142	0.267
-716.762	-200.000	0.077	0.610
-715.748	62.993	-0.305	-0.387
-714.733	-130.520	-0.212	0.036
-713.718	66.022	0.122	0.157
-712.704	-11.506	-0.292	0.243
-711.689	-49.897	-0.534	0.320
-710.675	-58.097	-0.060	-0.033
-709.660	-56.674	0.308	-0.172
-708.645	-61.757	-0.274	-0.145
-707.631	67.940	0.198	-0.256
-706.616	2.659	-0.106	0.098
-705.602	-58.551	-0.334	0.183
-704.587	-32.130	0.260	-0.183
-703.572	23.834	0.257	-0.268
-702.558	-86.412	-0.366	-0.142
-701.543	-102.524	-0.778	0.234
-700.529	-73.313	-0.410	-0.189
-699.514	-83.521	-0.513	0.207
-698.499	100.935	0.281	0.414
-697.485	-144.382	0.163	0.019
-696.470	-102.973	-0.541	-0.161
-695.456	800.000	0.087	0.437
-694.441	4.853	-0.333	0.310
-693.426	-30.791	0.163	0.116
-692.412	-133.168	0.204	0.032
-691.397	-89.376	0.362	-0.134
-690.383	-175.494	-0.362	0.012
-689.368	-13.249	0.298	-0.244
-688.354	36.737	-0.411	0.460
-687.339	80.223	-0.112	-0.153
-686.324	151.334	-0.061	-0.106
-685.310	47.900	-0.231	-0.273
-684.295	22.580	0.478	-0.495
-683.281	30.623	-0.082	-0.089
-682.266	-2.341	0.138	0.122
-681.251	706.662	0.248	0.833
-680.237	-60.440	-0.108	0.058
-679.222	-106.267	-0.332	-0.093
-678.208	-97.155	0.187	0.061
-677.193	-176.428	0.163	0.005
-676.178	800.000	-0.104	0.557
-675.164	-87.034	0.151	0.058
-674.149	-157.494	-0.381	0.029
-673.135	800.000	-0.140	0.495
-672.120	79.863	-0.231	0.314
-671.105	659.723	-0.062	0.204
-670.091	-91.957	-0.209	-0.074
-669.076	-200.000	-0.007	-0.164
-668.062	800.000	0.062	-0.327
-667.047	-112.579	0.415	0.104
-666.032	800.000	0.095	0.380
-665.018	-13.313	-0.419	0.343
-664.003	248.145	-0.208	-0.446
-662.989	68.894	-0.140	0.181
-661.974	-125.588	-0.316	0.060
-660.959	-153.265	-0.393	-0.034
-659.945	-165.141	-0.405	-0.022
-658.930	-114.489	0.289	-0.070
-657.916	-200.000	-0.021	0.000
-656.901	800.000	-0.063	-0.222
-655.886	-54.769	-0.480	-0.273
-654.872	114.248	-0.320	0.494
-653.857	-200.000	-0.009	-0.096
-652.843	800.000	-0.031	0.153
-651.828	-176.199	0.443	-0.014
-650.814	32.865	0.279	0.306
-649.799	-167.130	-0.343	0.017
-648.784	-89.046	0.200	-0.074
-647.770	109.657	0.148	0.224
-646.755	-99.513	0.212	-0.067
-645.741	19.984	0.225	0.229
-644.726	800.000	-0.127	0.463
-643.711	-78.840	-0.346	0.148
-642.697	315.206	-0.102	0.245
-641.682	-56.062	0.331	0.186
-640.668	118.291	0.151	0.236
-639.653	2.794	-0.116	0.106
-638.638	-92.974	-0.403	0.141
-637.624	37.094	-0.242	0.271
-636.609	-40.494	0.257	0.168
-635.595	25.658	0.327	0.344
-634.580	-61.153	0.395	0.210
-633.565	96.921	-0.282	0.409
-632.551	280.846	-0.122	-0.277
-631.536	-106.400	0.211	-0.059
-630.522	-113.542	0.310	0.076
-629.507	-200.000	0.022	0.130
-628.492	-191.864	-0.397	-0.005
-627.478	77.133	-0.183	0.246
-626.463	509.624	0.265	-0.783
-625.449	-200.000	0.057	-0.643
-624.434	-78.469	-0.238	0.102
-623.419	800.000	-0.049	0.226
-622.405	-149.770	-0.337	-0.033
-621.390	626.380	0.048	0.154
-620.376	72.363	0.153	0.201
-619.361	412.954	0.032	0.085
-618.346	-149.884	-0.524	-0.051
-617.332	4.436	-0.434	-0.401
-616.317	800.000	-0.096	-0.368
-615.303	456.170	-0.054	-0.151
-614.288	-122.712	0.266	-0.054
-613.273	80.621	0.152	-0.207
-612.259	800.000	-0.146	-0.565
-611.244	-10.994	-0.239	-0.199
-610.230	-100.195	-0.383	-0.119
-609.215	443.517	0.097	-0.268
-608.201	-54.332	-0.148	-0.084
-607.186	-122.644	-0.522	-0.106
-606.171	-200.000	0.054	0.503
-605.157	-163.804	-0.456	0.027
-604.142	-69.580	0.230	0.111
-603.128	286.637	0.056	0.129
-602.113	-200.000	0.013	-0.131
-601.098	800.000	-0.100	0.384
-600.084	800.000	-0.069	-0.266
-599.069	-125.220	-0.176	-0.034
-598.055	-131.952	-0.031	0.005
-597.040	345.052	0.201	-0.499
-596.025	153.696	0.050	0.087
-595.011	-21.331	0.400	0.308
-593.996	-25.519	-0.374	0.278
-592.982	-34.405	0.189	0.131
-591.967	37.031	-0.238	0.265
-590.952	227.975	-0.115	-0.236
-589.938	-52.777	0.555	-0.322
-588.923	-200.000	-0.030	0.173
-587.909	-148.466	-0.607	0.062
-586.894	-115.254	-0.581	0.137
-585.879	-80.922	-0.510	0.212
-584.865	-142.314	-0.140	0.017
-583.850	-200.000	0.016	-0.261
-582.836	214.028	0.031	-0.062
-581.821	-200.000	-0.043	0.316
-580.806	-137.446	0.079	0.011
-579.792	4.005	0.325	-0.299
-578.777	800.000	-0.023	0.089
-577.763	-92.219	0.509	0.180
-576.748	-87.782	0.419	-0.158
-575.733	-113.915	0.498	0.121
-574.719	241.184	0.246	-0.520
-573.704	118.797	-0.130	-0.203
-572.690	-178.387	0.351	0.010
-571.675	-200.000	0.016	0.234
-570.661	-106.515	0.321	0.089
-569.646	-104.562	-0.111	0.032
-568.631	-68.825	-0.097	0.047
-567.617	201.850	-0.260	0.506
-566.602	53.717	0.075	0.091
-565.588	800.000	-0.091	0.438
-564.573	72.364	0.231	0.304
-563.558	800.000	-0.114	-0.541
-562.544	-151.341	-0.100	0.009
-561.529	38.729	0.442	0.497
-560.515	-192.127	0.312	0.004
-559.500	-41.046	0.367	-0.238
-558.485	-80.486	-0.374	-0.156
-557.471	-200.000	-0.020	0.203
-556.456	-59.614	0.197	0.106
-555.442	-55.822	0.256	-0.143
-554.427	-11.050	0.104	0.087
-553.412	77.044	-0.066	0.088
-552.398	-200.000	0.035	-0.363
-551.383	59.817	-0.036	-0.045
-550.369	12.352	-0.119	-0.115
-549.354	238.391	0.043	0.090
-548.339	580.008	0.052	0.161
-547.325	75.996	-0.210	-0.281
-546.310	7.079	-0.215	-0.202
-545.296	-75.784	-0.721	0.320
-544.281	-16.956	0.155	-0.123
-543.266	523.861	0.105	-0.313
-542.252	-71.524	-0.186	0.087
-541.237	-171.926	-0.266	-0.011
-540.223	-29.967	0.065	0.047
-539.208	34.453	0.076	0.084
-538.193	-52.774	0.392	0.227
-537.179	-99.680	-0.225	0.070
-536.164	447.800	0.088	-0.244
-535.150	84.685	-0.214	-0.295
-534.135	-200.000	-0.025	-0.178
-533.121	182.750	-0.199	0.371
-532.106	-129.746	0.386	0.066
-531.091	350.648	-0.145	-0.363
-530.077	-139.581	-0.491	-0.065
-529.062	-183.518	-0.380	-0.008
-528.048	362.044	-0.099	0.250
-527.033	-200.000	-0.026	-0.177
-526.018	800.000	-0.040	0.213
-525.004	-200.000	0.054	0.504
-523.989	138.452	0.079	-0.131
-522.975	-54.271	0.353	-0.201
-521.960	129.028	-0.111	-0.179
-520.945	-138.088	0.180	-0.025
-519.931	-51.415	0.258	-0.151
-518.916	1.284	-0.339	0.306
-517.902	540.292	-0.138	-0.416
-516.887	409.199	0.074	-0.198
-515.872	-130.493	0.535	0.090
-514.858	-136.183	-0.187	0.027
-513.843	-45.789	0.216	-0.134
-512.829	-200.000	0.003	0.140
-511.814	19.475	-0.310	-0.313
-510.799	800.000	0.046	-0.195
-509.785	202.606	-0.185	0.360
-508.770	-37.472	-0.300	-0.201
-507.756	42.037	-0.200	-0.228
-506.741	-51.911	0.465	-0.271
-505.726	-70.178	0.215	0.102
-504.712	800.000	0.083	0.428
-503.697	-200.000	0.000	0.422
-502.683	-126.706	0.320	0.059
-501.668	-70.386	0.493	0.234
-500.653	53.211	0.200	-0.241
-499.639	-200.000	0.029	-0.530
-498.624	452.261	-0.053	-0.148
-497.610	751.699	-0.028	0.097
-496.595	-130.071	0.169	-0.029
-495.581	6.966	0.290	-0.271
-494.566	-200.000	-0.100	0.692
-493.551	-135.018	0.191	0.029
-492.537	-127.630	-0.516	-0.093
-491.522	-119.659	-0.283	0.061
-490.508	-60.166	0.353	0.188
-489.493	278.601	0.039	-0.089
-488.478	-200.000	-0.003	0.116
-487.464	106.665	0.316	-0.472
-486.449	47.672	0.060	-0.071
-485.435	90.002	0.350	-0.491
-484.420	85.542	-0.234	-0.323
-483.405	-145.060	-0.612	-0.069
-482.391	-75.377	-0.747	-0.333
-481.376	-8.826	-0.275	0.231
-480.362	-200.000	-0.071	0.454
-479.347	-200.000	0.051	0.335
-478.332	-164.938	-0.471	0.026
-477.318	-74.834	-0.438	0.196
-476.303	22.853	0.173	-0.178
-475.289	88.286	0.282	-0.393
-474.274	-65.229	-0.114	0.057
-473.259	158.364	-0.186	0.325
-472.245	-97.132	0.403	0.131
-471.230	-82.107	0.178	0.073
-470.216	-200.000	-0.042	-0.596
-469.201	-89.720	0.209	0.076
-468.186	-200.000	-0.024	-0.211
-467.172	-151.212	-0.376	-0.035
-466.157	88.715	-0.123	-0.171
-465.143	-74.205	0.419	-0.189
-464.128	183.091	0.059	-0.111
-463.113	-30.853	-0.402	0.285
-462.099	-125.706	-0.447	-0.084
-461.084	-105.642	-0.409	0.115
-460.070	60.147	0.210	0.260
-459.055	-68.510	0.093	0.045
-458.040	-49.803	0.062	-0.037
-457.026	-121.108	-0.501	0.104
-456.011	-200.000	0.006	0.100
-454.997	-93.792	0.258	-0.089
-453.982	-16.332	-0.321	-0.255
-452.968	105.686	-0.195	-0.289
-451.953	-29.619	-0.561	-0.401
-450.938	-57.366	-0.268	0.147
-449.924	800.000	-0.022	0.078
-448.909	152.887	0.049	0.084
-447.895	-68.672	0.216	-0.104
-446.880	306.960	0.165	0.386
-445.865	139.569	0.124	-0.205
-444.851	-200.000	0.001	-0.402
-443.836	695.028	0.059	-0.195
-442.822	523.056	-0.069	-0.204
-441.807	-162.717	0.071	0.004
-440.792	800.000	0.044	-0.169
-439.778	800.000	0.117	0.458
-438.763	-108.668	0.548	-0.146
-437.749	-200.000	-0.005	0.248
-436.734	22.920	-0.439	0.451
-435.719	-15.368	0.267	-0.213
-434.705	-109.712	0.154	0.040
-433.690	19.037	0.326	0.327
-432.676	507.522	0.051	-0.150
-431.661	-200.000	-0.020	-0.109
-430.646	-200.000	-0.022	0.433
-429.632	306.457	-0.050	0.117
-428.617	-147.521	0.268	-0.028
-427.603	-66.661	0.243	0.120
-426.588	173.284	0.095	-0.172
-425.573	-127.524	0.300	0.054
-424.559	27.504	-0.202	0.213
-423.544	800.000	0.116	-0.480
-422.530	54.137	-0.287	0.346
-421.515	81.851	0.284	-0.386
-420.500	3.790	-0.159	0.146
-419.486	545.978	0.104	-0.314
-418.471	-52.323	-0.144	0.083
-417.457	-19.282	0.166	0.129
-416.442	800.000	-0.064	-0.273
-415.428	-176.270	-0.226	-0.007
-414.413	280.709	0.210	0.471
-413.398	-104.729	-0.297	0.085
-412.384	-121.121	0.146	0.030
-411.369	171.536	-0.090	0.161
-410.355	-60.678	0.114	-0.060
-409.340	351.688	-0.152	-0.380
-408.325	56.778	-0.112	0.137
-407.311	50.486	-0.110	0.130
-406.296	-14.937	-0.218	0.174
-405.282	-71.633	-0.529	0.246
-404.267	193.605	-0.016	-0.031
-403.252	257.556	-0.199	0.431
-402.238	-182.923	-0.282	-0.006
-401.223	571.458	0.213	-0.653
-400.209	93.517	-0.296	-0.420
-399.194	-132.061	-0.292	-0.047
-398.179	154.697	-0.069	0.119
-397.165	9.152	-0.375	0.355
-396.150	-119.014	-0.127	0.028
-395.136	572.769	-0.095	-0.290
-394.121	79.461	0.288	0.387
-393.106	-107.696	0.198	-0.054
-392.092	21.366	-0.318	0.323
-391.077	258.133	0.110	0.239
-390.063	800.000	-0.053	-0.258
-389.048	-47.998	0.228	-0.138
-388.033	800.000	-0.026	0.095
-387.019	-160.909	-0.370	0.024
-386.004	220.444	-0.044	-0.089
-384.990	-200.000	0.022	-0.514
-383.975	800.000	-0.062	-0.248
-382.960	408.292	0.028	-0.075
-381.946	-170.077	0.251	-0.011
-380.931	-69.955	-0.091	0.043
-379.917	16.837	0.072	-0.071
-378.902	138.204	0.058	0.095
-377.888	-200.000	-0.009	0.433
-376.873	-103.384	0.344	-0.101
-375.858	8.730	0.205	0.193
-374.844	-200.000	0.013	-0.289
-373.829	21.183	-0.259	-0.262
-372.815	-200.000	-0.007	-0.100
-371.800	260.630	-0.158	0.343
-370.785	146.922	0.201	-0.338
-369.771	-33.563	0.145	0.100
-368.756	-200.000	-0.029	0.338
-367.742	-45.809	-0.031	0.019
-366.727	-200.000	-0.035	-0.328
-365.712	65.328	0.166	0.210
-364.698	-85.192	0.347	-0.135
-363.683	347.972	-0.100	0.247
-362.669	367.215	0.071	-0.179
-361.654	-200.000	-0.025	-0.409
-360.639	192.134	0.095	-0.179
-359.625	-149.302	0.417	0.041
-358.610	-200.000	0.048	0.301
-357.596	340.966	-0.176	0.432
-356.581	800.000	0.050	0.193
-355.566	54.530	0.166	-0.200
-354.552	315.898	0.014	-0.034
-353.537	-200.000	0.003	0.018
-352.523	314.115	0.402	0.949
-351.508	800.000	0.057	0.202
-350.493	101.900	-0.127	-0.186
-349.479	15.523	0.380	0.372
-348.464	212.342	0.069	-0.137
-347.450	22.409	0.091	-0.093
-346.435	173.340	0.078	-0.141
-345.420	-146.297	-0.372	0.040
-344.406	-151.351	-0.308	-0.028
-343.391	90.762	-0.073	0.102
-342.377	40.100	0.207	0.232
-341.362	800.000	0.078	-0.309
-340.348	-123.958	0.101	0.020
-339.333	653.352	-0.121	0.391
-338.318	448.882	-0.177	0.490
-337.304	128.702	0.215	-0.343
-336.289	800.000	-0.092	-0.351
-335.275	-18.381	0.400	0.312
-334.260	125.506	-0.193	-0.305
-333.245	-200.000	0.039	-0.237
-332.231	644.707	0.077	-0.248
-331.216	-163.126	-0.318	0.019
-330.202	-43.206	-0.222	-0.140
-329.187	450.582	0.072	-0.199
-328.172	400.721	0.095	-0.249
-327.158	191.184	-0.169	-0.319
-326.143	-200.000	0.052	0.639
-325.129	-73.292	0.130	-0.059
-324.114	403.334	0.184	-0.485
-323.099	-102.578	0.154	0.046
-322.085	-62.432	-0.137	0.071
-321.070	86.063	0.245	0.336
-320.056	577.896	0.011	-0.033
-319.041	79.453	0.034	0.046
-318.026	31.231	0.228	0.244
-317.012	89.494	-0.065	-0.091
-315.997	-81.019	-0.147	0.060
-314.983	-88.324	-0.195	-0.072
-313.968	-77.242	0.371	0.160
-312.953	136.366	-0.286	0.466
-311.939	578.720	0.092	-0.284
-310.924	41.136	0.303	0.342
-309.910	800.000	0.060	-0.273
-308.895	50.113	-0.148	-0.175
-307.880	-67.226	0.225	0.110
-306.866	800.000	0.028	0.150
-305.851	-67.372	0.124	-0.060
-304.837	203.727	-0.087	0.169
-303.822	-171.172	0.330	0.014
-302.807	-200.000	-0.014	0.316
-301.793	331.163	-0.199	0.480
-300.778	-200.000	-0.057	-0.457
-299.764	25.370	0.105	-0.108
-298.749	51.505	0.191	-0.226
-297.735	225.586	0.271	-0.548
-296.720	800.000	0.037	-0.136
-295.705	-97.999	0.576	0.184
-294.691	-200.000	-0.017	0.134
-293.676	-93.572	-0.090	0.031
-292.662	343.803	0.039	-0.095
-291.647	11.177	0.084	-0.080
-290.632	800.000	0.075	-0.266
-289.618	-30.475	-0.242	0.171
-288.603	-37.825	0.115	-0.076
-287.589	-200.000	0.055	-0.320
-286.574	45.974	0.132	0.152
-285.559	481.502	-0.013	-0.036
-284.545	-99.536	-0.436	-0.136
-283.530	-64.254	0.128	0.065
-282.516	800.000	0.031	0.113
-281.501	-95.357	-0.318	-0.106
-280.486	-128.961	0.390	0.068
-279.472	-25.227	-0.342	0.252
-278.457	-119.781	-0.468	-0.100
-277.443	-103.296	0.283	0.083
-276.428	-56.051	-0.140	-0.078
-275.413	245.169	-0.090	-0.188
-274.399	162.378	0.178	-0.311
-273.384	-72.750	-0.127	0.058
-272.370	-62.176	-0.342	0.177
-271.355	50.657	-0.115	-0.136
-270.340	109.069	-0.060	-0.090
-269.326	84.356	-0.056	0.077
-268.311	59.214	0.424	-0.520
-267.297	-200.000	-0.046	-0.290
-266.282	86.937	-0.309	-0.425
-265.267	91.196	-0.232	0.325
-264.253	-65.114	-0.246	-0.123
-263.238	58.392	-0.107	0.131
-262.224	-74.645	-0.304	-0.136
-261.209	-79.789	-0.325	-0.135
-260.195	103.815	0.074	0.109
-259.180	-89.321	0.466	0.170
-258.165	-200.000	0.011	0.170
-257.151	288.590	-0.053	0.121
-256.136	-200.000	0.022	-0.250
-255.122	75.385	-0.298	-0.392
-254.107	168.877	-0.224	0.398
-253.092	29.982	-0.171	0.182
-252.078	800.000	0.036	0.128
-251.063	800.000	0.036	0.176
-250.049	93.050	0.122	0.172
-249.034	33.705	0.058	-0.063
-248.019	539.178	-0.069	-0.205
-247.005	29.017	0.125	0.132
-245.990	-162.225	0.340	-0.021
-244.976	-44.919	-0.649	0.401
-243.961	-49.496	-0.389	0.230
-242.946	-164.580	-0.549	-0.030
-241.932	295.001	-0.066	-0.151
-240.917	709.398	0.074	0.245
-239.903	103.845	0.172	0.251
-238.888	-13.736	-0.343	0.276
-237.873	410.838	-0.148	0.391
-236.859	-84.903	0.421	0.163
-235.844	524.252	0.109	-0.321
-234.830	-3.920	-0.268	0.231
-233.815	-15.818	-0.155	0.123
-232.800	-53.522	0.139	-0.079
-231.786	-147.597	0.107	0.011
-230.771	-98.056	0.545	0.173
-229.757	-123.640	0.165	-0.032
-228.742	-200.000	0.044	0.474
-227.727	-124.000	0.224	-0.043
-226.713	-32.551	0.391	-0.270
-225.698	-56.609	0.443	-0.243
-224.684	-54.723	0.247	-0.138
-223.669	-200.000	-0.028	-0.730
-222.655	-127.449	0.169	0.030
-221.640	436.054	0.115	-0.311
-220.625	800.000	-0.098	0.344
-219.611	548.546	-0.061	0.184
-218.596	-179.257	0.346	0.009
-217.582	-103.366	-0.472	-0.137
-216.567	-114.544	0.151	0.036
-215.552	800.000	-0.149	0.589
-214.538	800.000	0.033	0.175
-213.523	800.000	0.148	0.567
-212.509	433.442	-0.034	0.091
-211.494	-25.823	-0.122	0.089
-210.479	800.000	0.029	-0.144
-209.465	-9.467	-0.353	0.293
-208.450	-117.370	0.123	-0.028
-207.436	-36.962	0.299	-0.199
-206.421	-166.168	-0.175	-0.009
-205.406	800.000	-0.048	-0.249
-204.392	-38.259	0.538	0.353
-203.377	-92.455	0.487	-0.169
-202.363	-60.924	-0.243	-0.127
-201.348	52.175	-0.115	0.136
-200.333	-104.153	0.292	0.084
-199.319	1.674	0.151	0.135
-198.304	156.981	0.094	-0.162
-197.290	-147.398	0.186	-0.019
-196.275	-24.976	-0.293	0.216
-195.260	-56.959	-0.318	-0.173
-194.246	-21.975	-0.198	0.149
-193.231	252.861	-0.087	0.184
-192.217	375.706	0.238	0.604
-191.202	800.000	0.015	0.055
-190.187	83.336	0.245	-0.332
-189.173	21.822	0.126	-0.127
-188.158	0.392	0.402	-0.356
-187.144	-113.177	-1.172	-0.284
-186.129	190.272	0.304	0.568
-185.114	-137.684	0.214	0.030
-184.100	181.894	-0.184	0.338
-183.085	-200.000	0.001	0.025
-182.071	800.000	-0.131	-0.548
-181.056	652.178	0.050	-0.159
-180.042	-99.736	0.525	0.162
-179.027	-85.458	0.339	-0.130
-178.012	-93.042	0.402	-0.138
-176.998	78.644	0.192	-0.255
-175.983	109.526	-0.141	-0.209
-174.969	185.135	-0.186	-0.343
-173.954	19.871	-0.301	-0.301
-172.939	-119.024	0.668	0.144
-171.925	-76.737	0.229	-0.099
-170.910	-25.422	-0.101	-0.074
-169.896	255.865	-0.214	-0.456
-168.881	-30.474	0.394	0.277
-167.866	26.010	-0.159	0.164
-166.852	429.589	-0.101	-0.271
-165.837	27.156	-0.287	0.298
-164.823	50.200	0.184	-0.215
-163.808	-200.000	0.011	-0.736
-162.793	11.655	-0.229	0.218
-161.779	216.454	-0.078	-0.155
-160.764	-42.125	0.214	-0.135
-159.750	54.066	0.194	0.232
-158.735	800.000	0.056	-0.285
-157.720	-112.055	-0.038	0.009
-156.706	283.609	0.047	-0.105
-155.691	-143.336	-0.205	-0.024
-154.677	18.037	-0.068	-0.067
-153.662	-138.506	-0.260	-0.035
-152.647	576.870	0.101	-0.307
-151.633	8.138	0.280	0.260
-150.618	-30.539	0.219	-0.154
-149.604	-38.052	0.448	-0.294
-148.589	-118.354	0.259	-0.057
-147.574	-200.000	0.059	0.409
-146.560	580.262	0.069	-0.212
-145.545	-144.495	-0.481	0.055
-144.531	-26.287	-0.099	0.072
-143.516	-200.000	0.023	0.141
-142.502	-200.000	-0.007	0.147
-141.487	372.676	0.266	0.673
-140.472	-200.000	0.004	-0.178
-139.458	20.251	0.341	-0.341
-138.443	-200.000	0.003	0.275
-137.429	128.872	0.174	0.276
-136.414	174.664	-0.234	0.421
-135.399	-46.764	0.125	-0.075
-134.385	-76.500	0.280	0.121
-133.370	471.313	-0.209	-0.585
-132.356	800.000	-0.111	-0.437
-131.341	-13.226	-0.209	-0.168
-130.326	337.329	-0.136	-0.330
-129.312	-73.389	-0.234	-0.105
-128.297	-200.000	0.005	-0.217
-127.283	76.272	0.207	0.272
-126.268	-101.272	0.144	-0.043
-125.253	216.460	-0.195	-0.386
-124.239	-46.047	-0.095	-0.058
-123.224	-163.152	-0.269	0.016
-122.210	-30.829	-0.270	0.188
-121.195	-124.792	-0.089	0.017
-120.180	-73.803	0.608	0.272
-119.166	425.843	0.097	-0.261
-118.151	-200.000	-0.054	-0.433
-117.137	-36.499	-0.349	-0.232
-116.122	-86.844	-0.420	-0.158
-115.107	8.209	0.306	0.285
-114.093	-54.601	0.356	-0.199
-113.078	-27.585	-0.222	0.160
-112.064	-73.037	-0.607	-0.275
-111.049	-100.994	-0.236	0.071
-110.034	800.000	0.045	0.159
-109.020	67.176	-0.015	-0.018
-108.005	251.518	-0.231	-0.488
-106.991	-107.517	-0.211	0.057
-105.976	-165.801	-0.209	-0.011
-104.962	-71.094	-0.477	0.221
-103.947	-200.000	-0.003	-0.146
-102.932	-99.622	-0.325	-0.100
-101.918	-200.000	0.298	0.001
-100.903	-67.834	-0.200	0.096
-99.889	233.403	0.278	-0.567
-98.874	258.869	0.091	0.195
-97.859	125.972	-0.185	0.290
-96.845	252.740	-0.247	-0.522
-95.830	-146.486	0.140	0.015
-94.816	-200.000	-0.024	0.264
-93.801	44.888	-0.125	0.143
-92.786	-96.915	0.397	0.128
-91.772	274.126	0.145	0.319
-90.757	800.000	-0.082	0.324
-89.743	-81.775	0.331	0.134
-88.728	-93.610	-0.283	0.096
-87.713	-200.000	0.022	0.363
-86.699	112.637	-0.130	-0.195
-85.684	-200.000	-0.070	0.538
-84.670	186.259	-0.221	0.407
-83.655	-93.677	0.320	0.109
-82.640	-100.672	0.704	0.213
-81.626	122.245	0.135	0.209
-80.611	-139.968	0.482	0.062
-79.597	5.482	0.602	0.549
-78.582	-78.687	0.384	-0.161
-77.567	377.347	0.161	0.410
-76.553	16.845	0.247	0.241
-75.538	800.000	-0.049	-0.174
-74.524	27.884	-0.248	-0.259
-73.509	-76.288	-0.514	-0.223
-72.494	-199.644	-0.585	0.004
-71.480	-200.000	-0.010	0.131
-70.465	-105.830	0.099	-0.028
-69.451	-160.311	0.332	0.022
-68.436	-23.858	0.305	0.225
-67.422	-122.245	-0.125	0.025
-66.407	150.255	0.380	-0.638
-65.392	129.473	0.184	-0.291
-64.378	35.484	-0.251	-0.272
-63.363	47.875	0.444	-0.513
-62.349	57.630	-0.269	0.325
-61.334	-23.119	-1.478	-1.097
-60.319	-39.637	-0.183	0.118
-59.305	346.825	-2.150	-5.246
-58.290	-23.271	2.577	1.910
-57.276	453.838	3.612	9.924
-56.261	-200.000	11.916	192.633
-55.246	542.699	1086.194	3215.405
-54.232	73.131	2721.046	3515.622
-53.217	76.897	2679.163	3515.430
-52.203	84.431	2414.614	3264.738
-51.188	40.489	2060.963	2291.817
-50.173	41.599	1923.735	2151.166
-49.159	39.439	1913.111	2115.896
-48.144	38.905	1910.154	2106.782
-47.130	38.866	1907.027	2102.830
-46.115	38.695	1905.620	2099.363
-45.100	38.574	1904.313	2096.537
-44.086	38.741	1902.134	2095.848
-43.071	38.776	1900.456	2094.292
-42.057	38.503	1900.084	2090.862
-41.042	38.612	1898.529	2090.243
-40.027	38.770	1896.277	2089.368
-39.013	38.797	1894.612	2087.740
-37.998	38.619	1893.755	2084.806
-36.984	38.505	1892.620	2082.254
-35.969	38.595	1891.081	2081.448
-34.954	38.536	1890.807	2080.433
-33.940	38.495	1889.898	2078.909
-32.925	38.485	1888.531	2077.218
-31.911	38.442	1886.662	2074.624
-30.896	38.369	1885.829	2072.848
-29.881	38.381	1884.013	2070.897
-28.867	38.618	1881.690	2070.780
-27.852	38.426	1880.740	2067.615
-26.838	38.402	1879.325	2065.716
-25.823	38.237	1878.938	2063.457
-24.809	38.354	1877.657	2063.211
-23.794	38.421	1875.739	2061.737
-22.779	38.450	1874.707	2060.822
-21.765	38.392	1873.423	2058.717
-20.750	38.460	1872.403	2058.233
-19.736	38.419	1870.935	2056.100
-18.721	38.377	1869.677	2054.195
-17.706	38.345	1868.393	2052.371
-16.692	38.251	1867.466	2050.274
-15.677	38.331	1866.731	2050.227
-14.663	38.262	1865.018	2047.545
-13.648	38.202	1863.837	2045.529
-12.633	38.199	1862.822	2044.307
-11.619	38.186	1861.892	2043.071
-10.604	38.117	1860.614	2040.860
-9.590	38.182	1859.291	2040.012
-8.575	38.184	1857.968	2038.500
-7.560	38.313	1856.165	2037.789
-6.546	38.273	1855.436	2036.486
-5.531	38.364	1854.158	2035.957
-4.517	38.424	1852.893	2035.111
-3.502	38.321	1852.914	2033.983
-2.487	38.173	1851.761	2031.086
-1.473	38.250	1849.099	2028.889
-0.458	38.708	1828.997	2011.480
0.556	34.792	1956.995	2096.584
1.571	33.755	2172.401	2314.381
2.586	35.763	2222.067	2392.142
3.600	35.786	2224.941	2395.237
4.615	35.928	2225.756	2397.613
5.629	36.033	2223.607	2396.317
6.644	36.233	2220.833	2395.536
7.659	36.167	2220.292	2393.846
8.673	36.369	2218.300	2393.937
9.688	35.732	2221.376	2389.010
10.702	31.646	2284.338	2403.830
11.717	27.291	2345.042	2409.572
12.731	14.145	2310.758	2200.394
13.746	2.340	2280.383	2015.545
14.761	0.656	2273.984	1987.388
15.775	0.396	2272.691	1982.580
16.790	0.531	2269.891	1981.687
17.804	0.408	2268.377	1978.512
18.819	0.324	2268.351	1977.143
19.834	0.304	2266.658	1975.161
20.848	0.209	2265.126	1972.343
21.863	0.220	2264.388	1971.613
22.877	0.236	2262.266	1969.736
23.892	0.271	2260.014	1968.001
24.907	0.220	2258.112	1965.435
25.921	0.346	2255.747	1964.792
26.936	0.307	2254.706	1963.147
27.950	0.270	2252.533	1960.536
28.965	0.266	2249.519	1957.616
29.980	0.223	2248.570	1955.999
30.994	0.394	2247.371	1956.948
32.009	7.493	2270.952	2070.587
33.023	26.706	2330.937	2381.338
34.038	40.814	2366.363	2604.837
35.053	44.808	2373.309	2664.822
36.067	44.358	2367.218	2651.763
37.082	42.729	2361.271	2623.444
38.096	42.380	2360.039	2617.186
39.111	43.355	2360.072	2629.688
40.126	43.665	2358.916	2632.129
41.140	45.137	2362.131	2654.664
42.155	44.807	2357.836	2645.214
43.169	44.457	2356.307	2638.617
44.184	45.390	2356.942	2651.184
45.199	45.636	2354.738	2651.592
46.213	44.860	2351.033	2637.003
47.228	44.356	2350.126	2629.123
48.242	44.911	2348.951	2634.706
49.257	44.667	2345.815	2627.708
50.271	44.732	2343.476	2625.612
51.286	44.592	2341.451	2621.222
52.301	43.625	2336.788	2603.185
53.315	42.413	2331.191	2580.984
54.330	37.927	2313.239	2503.086
55.344	33.068	2298.350	2424.212
56.359	32.527	2293.542	2411.883
57.374	32.021	2291.082	2402.505
58.388	31.612	2287.386	2393.081
59.403	32.062	2286.602	2397.758
60.417	33.348	2287.120	2414.510
61.432	33.771	2284.819	2417.209
62.447	32.897	2280.630	2401.315
63.461	32.469	2276.983	2391.720
64.476	32.015	2274.674	2383.220
65.490	33.278	2277.847	2402.388
66.505	36.308	2287.767	2451.312
67.520	40.102	2298.292	2510.837
68.534	40.814	2296.546	2517.709
69.549	41.467	2295.969	2525.089
70.563	42.456	2294.558	2535.793
71.578	42.745	2295.106	2539.776
72.593	43.294	2296.253	2547.705
73.607	44.206	2295.419	2558.036
74.622	43.532	2291.554	2544.891
75.636	42.145	2284.636	2519.392
76.651	42.490	2284.568	2523.372
77.666	42.960	2283.139	2527.424
78.680	42.912	2280.070	2523.123
79.695	43.168	2279.719	2525.659
80.709	43.472	2280.673	2530.236
81.724	43.725	2279.130	2531.405
82.739	43.796	2277.073	2529.709
83.753	43.607	2273.368	2522.917
84.768	42.856	2269.664	2509.100
85.782	42.031	2266.523	2494.994
86.797	41.933	2264.104	2490.807
87.812	41.299	2261.414	2479.621
88.826	40.871	2256.945	2469.087
89.841	41.160	2256.563	2471.979
90.855	42.081	2256.452	2483.049
91.870	41.185	2250.995	2465.597
92.884	40.718	2248.919	2457.218
93.899	41.663	2250.507	2470.416
94.914	40.585	2245.265	2450.995
95.928	36.250	2231.651	2382.182
96.943	33.975	2225.312	2346.937
97.957	37.749	2235.538	2404.368
98.972	40.743	2240.046	2446.077
99.987	40.258	2235.884	2435.244
101.001	40.700	2234.482	2438.885
102.016	40.821	2233.751	2439.288
103.030	40.767	2231.309	2435.672
104.045	41.843	2231.130	2448.436
105.060	42.947	2232.880	2463.651
106.074	43.040	2230.824	2462.222
107.089	41.909	2224.837	2441.452
108.103	41.848	2225.811	2441.487
109.118	42.679	2225.618	2451.178
110.133	42.904	2224.441	2452.341
111.147	42.682	2221.087	2445.635
112.162	42.424	2220.094	2441.089
113.176	42.474	2218.342	2439.488
114.191	42.377	2216.822	2436.332
115.206	42.353	2214.989	2433.738
116.220	42.589	2212.956	2434.093
117.235	42.103	2208.210	2422.669
118.249	41.663	2206.354	2414.996
119.264	42.539	2207.126	2426.194
120.279	43.224	2206.780	2433.841
121.293	42.930	2204.724	2427.713
122.308	42.726	2202.973	2423.027
123.322	42.704	2200.466	2419.713
124.337	41.542	2195.212	2399.612
125.352	38.218	2185.253	2348.370
126.366	37.676	2186.265	2342.624
127.381	40.939	2191.730	2387.672
128.395	42.453	2192.226	2406.189
129.410	43.099	2191.407	2412.771
130.424	43.189	2189.406	2411.369
131.439	42.595	2185.765	2399.934
132.454	41.770	2182.960	2386.677
133.468	42.047	2180.935	2387.499
134.483	41.822	2177.961	2381.263
135.497	41.192	2176.333	2371.660
136.512	41.926	2175.555	2379.307
137.527	42.090	2172.691	2377.842
138.541	41.355	2170.549	2366.449
139.556	40.976	2169.537	2360.544
140.570	40.840	2168.711	2357.739
141.585	41.390	2166.902	2362.034
142.600	41.796	2166.291	2365.920
143.614	41.713	2166.367	2364.729
144.629	42.601	2165.400	2373.953
145.643	41.781	2160.509	2358.583
146.658	41.064	2157.796	2346.836
147.673	40.932	2155.161	2342.128
148.687	41.840	2156.927	2354.520
149.702	42.210	2155.756	2357.340
150.716	41.949	2153.732	2351.757
151.731	42.342	2154.881	2357.373
152.746	42.831	2153.525	2361.386
153.760	40.117	2143.801	2318.513
154.775	34.868	2128.654	2240.242
155.789	32.812	2123.760	2210.639
156.804	36.441	2131.849	2261.597
157.819	39.853	2137.341	2307.317
158.833	40.991	2137.308	2320.356
159.848	42.260	2139.306	2337.136
160.862	42.853	2139.217	2343.698
161.877	43.032	2138.943	2345.218
162.892	43.447	2138.957	2349.802
163.906	43.619	2138.901	2351.475
164.921	43.816	2136.798	2351.178
165.935	43.854	2134.269	2348.562
166.950	43.151	2130.826	2336.305
167.964	42.229	2125.923	2319.926
168.979	41.921	2124.755	2314.791
169.994	42.303	2124.197	2318.346
171.008	42.776	2121.996	2321.155
172.023	42.356	2121.449	2315.414
173.037	42.733	2120.488	2318.453
174.052	42.845	2118.637	2317.448
175.067	42.895	2117.228	2316.211
176.081	42.639	2115.055	2310.603
177.096	42.298	2112.896	2304.023
178.110	41.878	2110.152	2295.917
179.125	42.008	2110.385	2297.396
180.140	43.179	2112.099	2312.487
181.154	43.541	2110.744	2314.896
182.169	42.972	2108.376	2305.474
183.183	41.723	2101.588	2283.448
184.198	36.931	2085.113	2210.491
185.213	34.646	2084.020	2182.851
186.227	40.145	2096.955	2259.495
187.242	42.522	2098.985	2288.686
188.256	42.114	2095.766	2280.237
189.271	42.815	2097.392	2289.749
190.286	43.684	2096.165	2298.070
191.300	42.679	2090.964	2280.634
192.315	41.884	2087.127	2267.127
193.329	42.317	2088.030	2272.772
194.344	43.232	2090.027	2285.094
195.359	43.553	2088.983	2287.334
196.373	43.958	2087.821	2290.384
197.388	43.842	2084.930	2285.628
198.402	42.904	2079.710	2269.003
199.417	42.489	2077.897	2262.059
200.432	42.904	2077.951	2266.545
201.446	43.453	2077.329	2271.810
202.461	42.909	2072.942	2260.596
203.475	41.790	2069.089	2243.507
204.490	41.048	2065.884	2231.410
205.504	41.492	2064.849	2235.026
206.519	41.412	2062.979	2231.828
207.534	41.594	2062.062	2232.617
208.548	42.350	2061.218	2239.924
209.563	41.049	2056.302	2219.742
210.577	40.462	2054.910	2211.383
211.592	42.361	2058.327	2236.108
212.607	40.585	2048.127	2204.932
213.621	33.395	2031.434	2106.662
214.636	32.973	2032.581	2102.882
215.650	38.185	2044.388	2173.315
216.665	41.028	2048.912	2209.672
217.680	42.349	2049.878	2225.188
218.694	43.097	2049.486	2232.837
219.709	42.594	2046.530	2223.755
220.723	42.846	2047.338	2227.163
221.738	43.710	2047.428	2236.603
222.753	43.506	2043.762	2230.069
223.767	42.712	2040.378	2217.312
224.782	41.925	2037.054	2204.727
225.796	41.790	2036.346	2202.201
226.811	42.805	2037.028	2213.908
227.826	43.084	2035.506	2215.071
228.840	43.553	2035.002	2219.432
229.855	42.976	2033.315	2210.959
230.869	41.725	2027.058	2190.124
231.884	40.845	2023.867	2176.731
232.899	41.280	2024.739	2182.198
233.913	41.938	2025.067	2189.530
234.928	42.494	2024.872	2195.168
235.942	42.940	2024.478	2199.375
236.957	43.154	2022.851	2199.691
237.972	43.302	2022.707	2200.893
238.986	43.760	2022.546	2205.476
240.001	43.142	2019.006	2194.590
241.015	42.220	2015.785	2180.752
242.030	41.645	2012.595	2170.757
243.045	38.155	1999.916	2118.852
244.059	36.267	1997.563	2095.514
245.074	40.458	2006.385	2150.351
246.088	41.985	2005.231	2165.479
247.103	41.930	2003.271	2162.505
248.117	42.109	2004.041	2165.024
249.132	42.704	2003.858	2171.031
250.147	42.365	2000.448	2163.395
251.161	41.889	1998.088	2155.427
252.176	42.104	1997.805	2157.203
253.190	42.302	1995.610	2156.711
254.205	42.317	1993.276	2154.088
255.220	42.838	1994.217	2160.472
256.234	42.978	1993.317	2160.752
257.249	42.495	1990.812	2152.572
258.263	42.551	1990.291	2152.355
259.278	42.939	1989.498	2155.415
260.293	42.959	1987.820	2153.551
261.307	42.444	1985.082	2144.797
262.322	42.436	1984.157	2143.464
263.336	41.976	1980.007	2133.789
264.351	41.235	1976.726	2122.064
265.366	41.246	1976.386	2121.570
266.380	41.868	1976.545	2128.138
267.395	41.218	1972.834	2116.947
268.409	40.966	1971.873	2112.975
269.424	41.818	1972.212	2122.183
270.439	42.197	1971.126	2124.801
271.453	40.778	1963.580	2101.332
272.468	35.824	1949.156	2033.185
273.482	33.949	1947.867	2011.670
274.497	37.938	1955.213	2061.503
275.512	40.766	1959.067	2095.374
276.526	41.305	1958.068	2099.758
277.541	41.139	1955.321	2094.810
278.555	41.185	1953.720	2093.331
279.570	40.736	1951.394	2085.851
280.585	40.222	1948.093	2076.650
281.599	40.507	1949.594	2081.002
282.614	41.862	1951.309	2096.887
283.628	42.883	1952.725	2108.914
284.643	43.420	1951.294	2112.759
285.657	43.763	1950.511	2115.266
286.672	43.666	1950.413	2113.892
287.687	43.512	1947.214	2108.559
288.701	42.930	1944.977	2099.776
289.716	42.609	1943.486	2094.554
290.730	42.892	1941.312	2094.921
291.745	43.094	1941.423	2096.904
292.760	42.838	1938.479	2090.803
293.774	41.941	1937.478	2080.105
294.789	42.540	1937.297	2085.915
295.803	42.879	1934.603	2086.299
296.818	42.343	1932.165	2077.839
297.833	42.446	1932.377	2078.891
298.847	42.989	1932.069	2083.958
299.862	43.441	1931.173	2087.444
300.876	42.929	1926.045	2076.348
301.891	38.443	1912.268	2014.939
302.906	35.012	1908.073	1974.774
303.920	40.087	1918.974	2038.578
304.935	42.885	1922.381	2070.950
305.949	43.111	1921.434	2072.009
306.964	43.771	1920.836	2077.930
307.979	43.307	1917.150	2068.922
308.993	41.419	1911.891	2043.576
310.008	41.362	1910.949	2041.736
311.022	42.415	1912.494	2053.979
312.037	43.410	1912.616	2064.098
313.052	43.356	1909.022	2059.417
314.066	42.063	1905.695	2042.335
315.081	42.155	1904.928	2042.210
316.095	42.324	1904.486	2043.228
317.110	42.103	1902.532	2038.619
318.125	41.861	1900.151	2033.353
319.139	41.834	1899.004	2031.603
320.154	42.571	1899.511	2039.427
321.168	42.922	1897.576	2040.686
322.183	43.313	1897.523	2044.371
323.197	42.783	1895.066	2036.082
324.212	42.317	1892.327	2028.162
325.227	41.909	1889.232	2020.466
326.241	41.609	1887.386	2015.204
327.256	41.923	1886.533	2017.231
328.270	41.842	1886.382	2016.015
329.285	42.078	1886.532	2018.326
330.300	41.269	1880.885	2003.861
331.314	35.505	1865.943	1929.681
332.329	34.128	1865.360	1914.930
333.343	39.410	1875.773	1978.941
334.358	43.053	1879.811	2019.756
335.373	43.584	1880.104	2025.178
336.387	43.277	1878.419	2020.032
337.402	43.042	1875.418	2014.207
338.416	42.555	1872.738	2006.199
339.431	42.331	1872.067	2002.989
340.446	43.581	1873.317	2016.632
341.460	43.742	1871.945	2016.525
342.475	43.714	1870.518	2014.469
343.489	42.726	1866.083	1999.575
344.504	42.297	1863.644	1992.441
345.519	42.690	1862.763	1995.189
346.533	42.640	1861.808	1993.426
347.548	42.758	1859.951	1992.368
348.562	42.558	1858.864	1988.982
349.577	42.773	1859.063	1991.095
350.592	43.311	1858.358	1995.451
351.606	43.436	1856.460	1994.414
352.621	43.135	1853.458	1987.967
353.635	42.921	1852.458	1984.534
354.650	42.495	1850.918	1978.425
355.665	42.218	1848.784	1973.171
356.679	42.163	1847.285	1970.790
357.694	42.341	1846.814	1971.817
358.708	42.789	1846.644	1975.819
359.723	41.578	1840.020	1956.571
360.738	35.673	1824.932	1882.381
361.752	34.252	1824.885	1868.114
362.767	39.394	1833.824	1927.812
363.781	42.103	1837.739	1958.372
364.796	43.407	1838.388	1971.635
365.810	42.762	1835.177	1961.641
366.825	42.008	1832.721	1951.396
367.840	42.251	1831.367	1952.093
368.854	41.261	1829.323	1940.001
369.869	41.327	1827.152	1938.109
370.883	41.632	1826.951	1940.645
371.898	41.713	1827.039	1941.295
372.913	42.464	1827.562	1948.955
373.927	42.437	1824.529	1945.222
374.942	42.098	1823.339	1940.426
375.956	42.222	1821.679	1939.628
376.971	41.704	1817.793	1930.232
377.986	41.510	1817.803	1928.127
379.000	42.306	1817.960	1935.787
380.015	42.727	1816.791	1938.393
381.029	42.741	1814.756	1936.127
382.044	42.778	1813.473	1934.881
383.059	42.623	1811.565	1931.115
384.073	41.590	1808.464	1917.612
385.088	41.442	1807.372	1914.802
386.102	41.980	1809.141	1921.641
387.117	42.869	1807.899	1928.658
388.132	42.818	1806.513	1926.457
389.146	41.017	1800.190	1902.196
390.161	35.495	1785.483	1833.592
391.175	34.158	1784.225	1819.246
392.190	38.982	1790.654	1871.962
393.205	40.888	1792.321	1891.735
394.219	41.179	1791.962	1893.914
395.234	41.302	1791.067	1893.918
396.248	41.721	1789.647	1896.185
397.263	41.486	1787.469	1891.410
398.278	41.090	1785.310	1885.132
399.292	41.172	1785.107	1885.468
400.307	42.917	1787.882	1904.794
401.321	43.529	1787.081	1909.522
402.336	42.843	1784.165	1899.671
403.350	42.607	1783.176	1896.156
404.365	43.410	1784.509	1904.965
405.380	44.303	1783.600	1912.224
406.394	43.671	1781.190	1903.429
407.409	42.904	1778.516	1893.101
408.423	42.638	1775.649	1887.311
409.438	42.286	1772.893	1880.841
410.453	42.416	1773.153	1882.120
411.467	42.526	1772.675	1882.417
412.482	42.371	1771.233	1879.201
413.496	42.743	1770.494	1881.690
414.511	42.760	1769.019	1880.058
415.526	42.492	1767.288	1875.479
416.540	43.317	1766.680	1882.353
417.555	42.881	1763.828	1875.001
418.569	41.396	1761.905	1858.837
419.584	42.226	1762.476	1866.986
420.599	42.599	1761.761	1869.496
421.613	41.684	1759.382	1858.194
422.628	41.378	1757.925	1853.573
423.642	42.959	1760.872	1871.248
424.657	43.956	1758.714	1878.023
425.672	42.230	1753.837	1856.539
426.686	42.553	1753.658	1859.135
427.701	42.842	1752.839	1860.728
428.715	42.860	1751.839	1859.617
429.730	43.779	1753.139	1869.302
430.745	45.850	1756.893	1892.319
431.759	47.339	1758.104	1907.204
432.774	46.291	1753.142	1891.909
433.788	40.650	1736.570	1821.937
434.803	33.470	1722.372	1740.804
435.818	30.954	1717.077	1712.050
436.832	29.944	1714.696	1700.154
437.847	29.126	1708.061	1685.845
438.861	19.632	1679.285	1570.901
439.876	4.848	1651.952	1411.321
440.890	0.753	1644.265	1367.404
441.905	0.462	1642.728	1363.316
442.920	0.503	1640.785	1361.915
443.934	0.317	1640.344	1359.704
444.949	0.378	1639.726	1359.581
445.963	0.276	1638.463	1357.442
446.978	0.255	1637.298	1356.126
447.993	0.279	1636.796	1355.764
449.007	0.218	1634.498	1353.147
450.022	0.400	1632.209	1352.738
451.036	0.324	1630.965	1350.852
452.051	1.568	1636.732	1366.706
453.066	14.510	1670.737	1513.669
454.080	32.390	1700.034	1704.495
455.095	35.093	1702.196	1731.065
456.109	34.191	1700.786	1721.229
457.124	34.736	1700.177	1725.351
458.139	33.709	1697.659	1713.280
459.153	33.149	1695.174	1705.493
460.168	33.047	1694.195	1703.380
461.182	34.339	1696.393	1717.091
462.197	36.412	1698.925	1738.234
463.212	37.402	1699.566	1747.628
464.226	37.986	1699.163	1752.285
465.241	37.800	1697.737	1748.921
466.255	37.899	1695.541	1747.349
467.270	37.476	1694.345	1742.098
468.285	38.295	1696.200	1751.169
469.299	39.317	1696.521	1760.489
470.314	39.369	1693.886	1758.011
471.328	39.060	1692.147	1753.230
472.343	39.160	1691.190	1752.917
473.358	39.134	1690.121	1751.368
474.372	39.118	1689.434	1750.302
475.387	40.261	1690.544	1761.480
476.401	40.792	1689.773	1765.208
477.416	40.170	1686.422	1755.954
478.430	39.521	1684.454	1747.902
479.445	40.207	1685.127	1754.508
480.460	40.827	1685.064	1759.753
481.474	40.857	1683.187	1757.852
482.489	40.117	1679.836	1747.571
483.503	38.935	1675.606	1732.489
484.518	38.244	1674.207	1724.708
485.533	38.513	1673.949	1726.615
486.547	38.994	1671.353	1727.991
487.562	37.199	1666.017	1706.421
488.576	37.416	1667.337	1709.491
489.591	38.733	1668.132	1721.731
490.606	39.466	1668.578	1728.459
491.620	39.509	1666.143	1726.111
492.635	38.222	1661.994	1710.288
493.649	36.767	1657.069	1692.240
494.664	36.929	1659.666	1696.119
495.679	38.974	1661.612	1715.895
496.693	39.088	1659.422	1714.426
497.708	38.519	1657.077	1706.811
498.722	37.263	1653.227	1691.653
499.737	37.305	1652.597	1691.176
500.752	38.140	1653.400	1699.099
501.766	38.692	1652.638	1702.932
502.781	38.452	1650.515	1698.454
503.795	38.878	1649.503	1700.922
504.810	38.861	1647.907	1698.922
505.825	37.679	1644.829	1685.273
506.839	36.850	1642.485	1675.460
507.854	37.177	1641.072	1676.661
508.868	36.991	1640.065	1673.818
509.883	36.209	1637.648	1664.365
510.898	35.058	1633.258	1649.743
511.912	33.858	1629.506	1635.377
512.927	33.188	1625.821	1625.702
513.941	33.055	1624.032	1622.566
514.956	33.356	1624.031	1624.970
515.971	34.103	1623.465	1630.650
516.985	33.648	1621.546	1624.611
518.000	33.133	1618.938	1617.376
519.014	32.788	1618.055	1613.337
520.029	32.601	1616.759	1610.244
521.043	32.728	1615.722	1610.104
522.058	33.200	1614.480	1612.723
523.073	33.202	1614.726	1612.795
524.087	33.324	1613.790	1612.709
525.102	34.171	1614.427	1620.407
526.116	35.975	1618.428	1639.680
527.131	37.337	1618.591	1651.296
528.146	36.655	1616.004	1642.638
529.160	36.248	1614.626	1637.568
530.175	36.968	1614.240	1643.122
531.189	36.599	1612.196	1637.705
532.204	36.016	1610.813	1631.146
533.219	36.690	1610.923	1636.789
534.233	37.686	1612.786	1646.961
535.248	37.287	1609.660	1640.186
536.262	35.689	1605.104	1621.814
537.277	35.963	1604.905	1623.737
538.292	36.957	1605.715	1632.786
539.306	37.461	1603.957	1635.067
540.321	36.696	1601.276	1625.681
541.335	36.122	1598.735	1618.063
542.350	36.328	1598.004	1618.865
543.365	36.498	1596.603	1618.681
544.379	36.690	1595.080	1618.561
545.394	36.360	1593.074	1613.560
546.408	36.353	1593.469	1613.706
547.423	37.796	1596.233	1628.450
548.438	38.957	1596.480	1638.251
549.452	38.255	1592.978	1628.586
550.467	37.208	1590.294	1616.881
551.481	36.894	1588.074	1611.811
552.496	36.374	1585.725	1604.887
553.511	35.286	1583.972	1593.840
554.525	35.382	1583.150	1593.624
555.540	35.169	1581.095	1589.587
556.554	35.296	1580.466	1589.824
557.569	35.346	1578.421	1587.985
558.583	35.243	1576.760	1585.269
559.598	35.400	1575.867	1585.490
560.613	35.370	1574.795	1583.974
561.627	34.907	1572.729	1577.866
562.642	34.316	1569.360	1569.403
563.656	33.175	1565.759	1556.183
564.671	32.391	1563.631	1547.404
565.686	32.094	1562.303	1543.454
566.700	32.221	1560.573	1542.609
567.715	32.278	1559.917	1542.243
568.729	32.479	1559.276	1543.077
569.744	33.154	1558.352	1547.540
570.759	33.348	1556.766	1547.369
571.773	32.913	1555.228	1542.082
572.788	32.488	1553.811	1537.010
573.802	32.344	1551.652	1533.509
574.817	32.121	1549.547	1529.419
575.832	32.048	1549.047	1528.145
576.846	33.316	1551.183	1540.449
577.861	34.542	1551.871	1550.972
578.875	34.394	1550.701	1548.412
579.890	34.147	1550.080	1545.590
580.905	34.395	1549.514	1546.868
581.919	34.566	1548.150	1546.709
582.934	34.372	1547.565	1544.364
583.948	34.062	1545.718	1539.813
584.963	34.078	1544.257	1538.301
585.978	34.888	1544.171	1544.614
586.992	34.791	1542.572	1542.039
588.007	33.987	1541.515	1534.277
589.021	34.339	1539.801	1535.244
590.036	34.012	1537.978	1530.600
591.051	33.938	1537.386	1529.225
592.065	34.087	1535.766	1528.631
593.080	33.978	1535.356	1527.159
594.094	34.490	1534.399	1530.156
595.109	35.126	1534.996	1535.695
596.123	37.170	1535.654	1552.631
597.138	36.977	1533.021	1548.230
598.153	35.399	1529.291	1531.635
599.167	34.853	1527.568	1525.347
600.182	34.493	1526.204	1520.913
601.196	34.473	1525.986	1520.357
602.211	34.979	1524.461	1522.704
603.226	33.987	1522.259	1512.399
604.240	34.097	1521.784	1512.621
605.255	34.307	1519.795	1512.142
606.269	34.011	1517.956	1507.771
607.284	34.143	1516.456	1507.148
608.299	33.835	1515.292	1503.365
609.313	33.803	1514.336	1501.979
610.328	33.618	1513.047	1499.051
611.342	33.167	1511.331	1493.593
612.357	33.161	1509.356	1491.418
613.372	33.029	1508.463	1489.304
614.386	33.011	1507.373	1487.912
615.401	32.707	1506.150	1484.117
616.415	32.750	1503.790	1481.960
617.430	32.096	1502.044	1474.895
618.445	31.750	1499.988	1469.973
619.459	31.569	1499.154	1467.554
620.474	31.612	1498.954	1467.523
621.488	32.400	1499.874	1474.455
622.503	33.485	1499.563	1482.510
623.518	32.663	1496.663	1473.011
624.532	31.698	1494.033	1462.676
625.547	31.429	1492.292	1458.689
626.561	31.261	1491.164	1456.097
627.576	31.209	1490.682	1455.043
628.591	31.694	1490.362	1458.352
629.605	32.246	1490.312	1462.447
630.620	32.708	1490.073	1465.651
631.634	33.629	1491.068	1473.649
632.649	33.785	1488.872	1472.520
633.663	32.910	1486.079	1462.766
634.678	32.092	1483.412	1453.608
635.693	31.385	1480.395	1444.983
636.707	31.370	1478.774	1443.115
637.722	31.179	1477.846	1440.553
638.736	31.734	1477.364	1444.214
639.751	32.251	1477.712	1448.383
640.766	32.570	1476.659	1449.653
641.780	32.202	1475.330	1445.326
642.795	32.497	1475.309	1447.414
643.809	32.919	1474.928	1450.127
644.824	33.048	1473.746	1449.787
645.839	33.413	1473.231	1451.917
646.853	33.257	1472.706	1450.022
647.868	33.348	1471.122	1448.993
648.882	33.539	1470.198	1449.373
649.897	33.465	1469.254	1447.707
650.912	33.271	1467.632	1444.440
651.926	33.191	1465.913	1441.964
652.941	33.367	1464.561	1441.813
653.955	33.049	1463.778	1438.432
654.970	32.796	1460.614	1433.222
655.985	32.339	1458.540	1427.526
656.999	31.688	1456.789	1420.685
658.014	31.633	1456.008	1419.332
659.028	32.058	1455.746	1422.145
660.043	32.731	1456.736	1428.064
661.058	33.272	1455.269	1430.565
662.072	33.127	1454.132	1428.181
663.087	33.302	1453.134	1428.355
664.101	33.130	1452.265	1426.024
665.116	33.095	1451.187	1424.532
666.131	32.824	1450.113	1421.255
667.145	33.116	1448.548	1421.756
668.160	33.070	1446.592	1419.323
669.174	32.583	1444.702	1413.629
670.189	32.604	1443.993	1412.922
671.204	32.930	1444.008	1415.224
672.218	32.726	1443.203	1412.728
673.233	32.590	1441.930	1410.287
674.247	32.493	1439.688	1407.198
675.262	32.014	1438.406	1402.182
676.276	31.878	1437.272	1399.890
677.291	32.226	1437.045	1402.106
678.306	32.878	1437.164	1406.944
679.320	32.742	1435.488	1404.121
680.335	32.009	1432.910	1395.953
681.349	31.916	1432.901	1395.082
682.364	32.079	1431.864	1395.117
683.379	31.839	1430.155	1391.498
684.393	31.606	1428.189	1387.680
685.408	31.548	1427.027	1385.958
686.422	31.651	1426.138	1385.689
687.437	31.383	1425.095	1382.519
688.452	30.955	1423.762	1377.881
689.466	30.984	1421.807	1376.040
690.481	30.928	1420.730	1374.416
691.495	31.333	1420.832	1377.357
692.510	32.372	1422.326	1386.340
693.525	33.670	1421.866	1395.330
694.539	33.037	1419.483	1388.153
695.554	31.657	1416.806	1375.187
696.568	31.015	1414.342	1367.896
697.583	30.848	1413.457	1365.648
698.598	30.955	1413.387	1366.207
699.612	31.131	1411.714	1365.721
700.627	31.262	1410.622	1365.459
701.641	31.663	1409.823	1367.465
702.656	31.751	1409.155	1367.304
703.671	31.627	1409.031	1366.109
704.685	31.769	1408.837	1366.796
705.700	31.947	1408.110	1367.231
706.714	32.077	1406.447	1366.406
707.729	32.359	1405.450	1367.333
708.744	32.441	1404.203	1366.556
709.758	32.259	1402.486	1363.396
710.773	31.615	1400.162	1356.282
711.787	31.120	1398.670	1351.076
712.802	31.975	1398.238	1356.717
713.816	32.254	1398.423	1358.760
714.831	32.349	1397.926	1358.800
715.846	32.203	1396.060	1355.771
716.860	31.956	1394.460	1352.265
717.875	31.975	1393.927	1351.723
718.889	32.170	1391.878	1350.981
719.904	32.097	1391.172	1349.608
720.919	31.907	1390.168	1347.102
721.933	31.787	1388.750	1344.698
722.948	31.627	1387.976	1342.634
723.962	31.631	1386.701	1341.273
724.977	31.449	1385.643	1338.774
725.992	31.481	1385.105	1338.328
727.006	31.894	1383.325	1339.414
728.021	31.735	1382.303	1337.124
729.035	31.482	1381.087	1333.970
730.050	31.549	1379.996	1333.242
731.065	31.443	1379.059	1331.414
732.079	31.359	1377.211	1328.872
733.094	31.351	1377.213	1328.657
734.108	31.918	1375.521	1330.912
735.123	31.556	1374.106	1326.805
736.138	31.394	1372.893	1324.323
737.152	31.302	1371.542	1322.204
738.167	31.229	1369.954	1319.998
739.181	31.446	1368.830	1320.297
740.196	31.239	1368.281	1318.136
741.211	31.189	1367.434	1316.814
742.225	31.139	1366.514	1315.410
743.240	30.982	1365.297	1312.975
744.254	30.774	1364.367	1310.451
745.269	30.850	1362.477	1309.017
746.284	30.678	1361.138	1306.358
747.298	30.734	1360.928	1306.391
748.313	30.977	1360.755	1307.784
749.327	31.584	1361.566	1312.687
750.342	32.563	1362.412	1320.253
751.356	33.444	1361.985	1325.883
752.371	33.382	1359.678	1323.040
753.386	31.899	1356.043	1308.949
754.400	31.081	1354.103	1301.190
755.415	31.132	1353.753	1301.051
756.429	31.225	1352.549	1300.392
757.444	31.496	1351.540	1301.161
758.459	31.487	1350.156	1299.611
759.473	31.191	1349.060	1296.334
760.488	31.004	1348.399	1294.239
761.502	30.813	1347.237	1291.637
762.517	31.208	1346.232	1293.269
763.532	31.575	1345.340	1294.808
764.546	31.500	1344.393	1293.221
765.561	31.173	1342.604	1289.074
766.575	30.703	1340.899	1284.026
767.590	30.582	1340.380	1282.534
768.605	31.096	1340.274	1285.845
769.619	31.446	1339.517	1287.386
770.634	31.600	1338.056	1286.891
771.648	31.315	1336.462	1283.241
772.663	30.972	1335.199	1279.505
773.678	30.960	1334.421	1278.525
774.692	31.153	1334.121	1279.411
775.707	31.223	1333.492	1279.139
776.721	31.278	1332.234	1278.156
777.736	30.960	1330.459	1274.119
778.751	31.062	1329.427	1273.678
779.765	30.919	1328.895	1272.030
780.780	30.827	1328.343	1270.726
781.794	30.840	1327.412	1269.765
782.809	30.799	1326.383	1268.350
783.824	30.579	1325.040	1265.408
784.838	30.879	1324.801	1267.085
785.853	32.150	1325.262	1276.060
786.867	32.047	1323.770	1273.766
787.882	31.291	1322.461	1267.203
788.897	30.966	1320.940	1263.379
789.911	30.436	1319.847	1258.568
790.926	30.580	1318.432	1258.048
791.940	30.451	1317.270	1255.914
792.955	30.451	1315.316	1253.902
793.969	30.367	1313.503	1251.455
794.984	30.591	1313.408	1252.733
795.999	30.557	1312.840	1251.812
797.013	30.573	1311.112	1250.124
798.028	30.758	1309.511	1249.695
799.042	30.840	1308.959	1249.573
800.057	30.712	1308.017	1247.661
801.072	30.517	1307.118	1245.341
802.086	30.617	1305.897	1244.699
803.101	30.618	1304.679	1243.394
804.115	30.586	1304.150	1242.527
805.130	30.755	1303.565	1242.953
806.145	30.764	1301.809	1241.192
807.159	30.650	1300.978	1239.490
808.174	30.940	1300.269	1240.605
809.188	31.061	1299.378	1240.413
810.203	31.154	1298.132	1239.699
811.218	31.091	1296.465	1237.536
812.232	30.799	1294.698	1233.761
813.247	30.495	1293.397	1230.346
814.261	30.625	1293.598	1231.254
815.276	30.761	1293.473	1231.894
816.291	30.725	1291.201	1229.347
817.305	30.586	1289.665	1226.812
818.320	30.557	1288.703	1225.558
819.334	30.566	1288.110	1224.911
820.349	30.661	1286.837	1224.178
821.364	30.493	1285.528	1221.679
822.378	30.529	1284.166	1220.476
823.393	30.477	1282.180	1218.101
824.407	30.447	1280.984	1216.621
825.422	30.370	1281.034	1216.012
826.437	30.531	1279.958	1215.906
827.451	30.393	1278.518	1213.484
828.466	30.979	1278.445	1217.117
829.480	31.828	1277.506	1221.648
830.495	31.337	1274.651	1215.557
831.509	30.488	1273.293	1208.573
832.524	30.225	1272.796	1206.233
833.539	30.371	1271.035	1205.374
834.553	30.306	1269.250	1203.116
835.568	30.077	1268.858	1201.108
836.582	30.271	1268.281	1201.683
837.597	30.437	1266.381	1200.816
838.612	30.459	1264.753	1199.272
839.626	30.490	1264.439	1199.029
840.641	30.511	1264.273	1198.865
841.655	30.566	1262.997	1197.869
842.670	30.508	1261.555	1195.983
843.685	30.071	1260.318	1191.841
844.699	30.348	1259.380	1192.596
845.714	30.576	1258.564	1193.154
846.728	30.329	1257.791	1190.687
847.743	30.255	1256.890	1189.218
848.758	30.224	1255.169	1187.246
849.772	30.454	1254.081	1187.550
850.787	30.267	1252.868	1185.059
851.801	30.176	1251.647	1183.181
852.816	30.262	1250.574	1182.577
853.831	30.083	1249.263	1180.047
854.845	30.114	1247.658	1178.590
855.860	30.187	1246.034	1177.382
856.874	30.242	1245.168	1176.773
857.889	30.576	1244.783	1178.396
858.904	31.136	1244.484	1181.540
859.918	31.723	1244.531	1185.176
860.933	32.137	1243.454	1186.637
861.947	31.662	1241.203	1181.333
862.962	31.062	1238.916	1175.216
863.977	30.693	1238.203	1172.062
864.991	30.231	1237.184	1168.038
866.006	30.215	1236.068	1166.741
867.020	30.127	1235.188	1165.214
868.035	29.955	1233.900	1162.775
869.049	30.110	1232.733	1162.516
870.064	30.157	1231.458	1161.471
871.079	30.152	1231.289	1161.138
872.093	30.234	1230.740	1160.997
873.108	30.246	1229.413	1159.685
874.122	30.314	1227.971	1158.610
875.137	30.141	1227.771	1157.200
876.152	30.134	1226.997	1156.287
877.166	30.143	1225.308	1154.610
878.181	30.179	1223.616	1153.107
879.195	29.983	1223.156	1151.309
880.210	29.992	1222.381	1150.494
881.225	29.945	1221.474	1149.212
882.239	30.034	1220.460	1148.678
883.254	30.023	1219.839	1147.885
884.268	29.929	1218.721	1146.108
885.283	29.989	1217.527	1145.223
886.298	30.070	1215.119	1143.323
887.312	30.129	1214.179	1142.670
888.327	29.995	1213.738	1141.286
889.341	30.099	1212.373	1140.512
890.356	30.081	1211.808	1139.728
891.371	29.918	1212.015	1138.781
892.385	29.974	1211.382	1138.399
893.400	30.195	1210.263	1138.575
894.414	30.202	1209.108	1137.393
895.429	30.651	1208.467	1139.419
896.444	31.768	1209.235	1146.886
897.458	33.174	1208.664	1154.843
898.473	32.271	1207.069	1147.644
899.487	31.111	1205.197	1138.616
900.502	30.443	1202.493	1131.831
901.517	30.186	1200.872	1128.602
902.531	30.004	1199.744	1126.294
903.546	29.979	1199.362	1125.647
904.560	29.866	1198.638	1124.145
905.575	29.974	1197.687	1123.777
906.589	30.045	1196.589	1123.044
907.604	30.038	1195.625	1121.958
