DTS Sentinel unit serial number:	SN409020Multiplexer serial number:	ORYXHardware model number:	OX4-SRSoftware version number:	ORYX F/W v3.00 Oryx Data Collector v3.7.2.0data status	okinstallation	HaddamTimeLapsedifferential loss correction	single-endedforward channel	channel 3reverse channel	N/Adate	2011/06/22time	06:36:17forward acquisition time	30.00reverse acquisition time	0.00gamma	498.7831k internal	0.1751k external	0.1751temperature offset calibration	1.0074default loss term (dB/km)	0.3790temperature slope calibration	1.3530multiplexer offset coefficient	1.0000multiplexer slope coefficient	1.0000fibre end	0.00T internal ref (°C)	22.62T ext. ref 1 (°C)	18.53T ext. ref 2 (°C)	0.19length (m)	temperature (°C)	Stokes	anti-Stokes-747.200	253.755	0.025	-0.056
-746.185	232.319	-0.194	0.424
-745.171	-86.114	-0.157	-0.064
-744.156	228.546	0.201	0.437
-743.142	-52.019	-0.139	-0.086
-742.127	48.525	-0.158	0.197
-741.112	-83.774	0.460	-0.194
-740.098	-112.689	-0.451	0.118
-739.083	-131.569	-1.286	0.223
-738.069	-180.012	-0.398	-0.011
-737.054	-37.168	-0.368	-0.261
-736.039	800.000	-0.026	0.132
-735.025	-200.000	-0.037	0.256
-734.010	-152.558	-0.479	0.045
-732.996	775.153	0.131	-0.476
-731.981	-46.795	-0.136	-0.088
-730.966	-200.000	0.012	-0.339
-729.952	43.939	0.188	-0.228
-728.937	75.855	-0.043	0.060
-727.923	800.000	0.091	-0.450
-726.908	800.000	-0.077	-0.411
-725.894	113.075	0.100	-0.162
-724.879	-40.288	-0.179	0.123
-723.864	-200.000	-0.022	0.269
-722.850	290.960	0.206	-0.499
-721.835	-148.864	-0.684	0.072
-720.821	-106.475	-0.033	-0.010
-719.806	-62.293	0.288	0.158
-718.791	24.658	-0.191	-0.210
-717.777	-159.570	-0.293	-0.021
-716.762	19.598	-0.274	0.292
-715.748	20.553	-0.459	0.492
-714.733	-22.836	0.446	0.357
-713.718	288.227	0.088	0.213
-712.704	22.165	-0.116	-0.125
-711.689	-65.171	-0.733	0.390
-710.675	-151.583	-0.414	0.040
-709.660	50.046	-0.093	0.116
-708.645	569.796	-0.040	0.130
-707.631	-134.452	-0.334	0.054
-706.616	193.432	0.197	-0.396
-705.602	-90.480	0.345	0.132
-704.587	-56.476	0.333	0.195
-703.572	7.258	0.220	0.218
-702.558	-59.983	0.486	0.274
-701.543	-11.980	-0.450	-0.390
-700.529	649.200	-0.193	-0.659
-699.514	-200.000	-0.009	-0.095
-698.499	-200.000	-0.006	-0.186
-697.485	-21.904	0.173	0.139
-696.470	-149.354	0.452	-0.047
-695.456	307.790	0.139	-0.345
-694.441	330.753	-0.053	-0.136
-693.426	-127.312	-0.184	0.035
-692.412	-200.000	0.121	0.714
-691.397	-200.000	0.032	-0.246
-690.383	-102.403	-0.207	0.065
-689.368	-200.000	-0.008	-0.288
-688.354	354.259	-0.099	-0.261
-687.339	-200.000	0.012	-0.163
-686.324	75.485	-0.088	-0.124
-685.310	-79.878	-0.218	-0.097
-684.295	-200.000	0.007	-0.085
-683.281	-36.039	0.450	0.321
-682.266	-0.786	0.380	0.357
-681.251	-84.996	0.176	-0.073
-680.237	571.597	0.072	-0.234
-679.222	800.000	0.081	0.318
-678.208	-113.979	0.093	-0.024
-677.193	-200.000	0.052	-0.781
-676.178	746.929	0.056	0.203
-675.164	-94.668	-0.262	0.094
-674.149	-197.309	-0.216	0.002
-673.135	-97.477	-0.316	0.108
-672.120	82.050	-0.211	-0.303
-671.105	-17.290	-0.338	-0.282
-670.091	105.541	-0.217	-0.341
-669.076	43.346	-0.111	-0.135
-668.062	215.899	0.130	0.274
-667.047	-72.587	-0.456	-0.222
-666.032	-162.608	0.334	-0.021
-665.018	33.458	0.172	-0.198
-664.003	244.986	0.204	-0.455
-662.989	-22.854	-0.020	-0.016
-661.974	33.290	0.260	0.298
-660.959	-77.049	-0.383	-0.176
-659.945	-91.749	-0.380	-0.142
-658.930	-10.174	-0.244	0.214
-657.916	633.835	0.054	0.181
-656.901	-139.780	-0.254	0.035
-655.886	-15.922	0.174	-0.146
-654.872	131.956	-0.223	0.380
-653.857	96.293	-0.154	-0.234
-652.843	136.847	-0.291	-0.504
-651.828	-49.365	-0.106	-0.067
-650.814	105.643	-0.111	-0.173
-649.799	312.427	0.142	0.355
-648.784	-18.223	0.211	-0.174
-647.770	690.905	0.115	0.401
-646.755	800.000	0.082	-0.335
-645.741	-48.021	-0.323	-0.206
-644.726	800.000	-0.128	0.490
-643.711	99.683	-0.154	0.236
-642.697	145.042	-0.144	0.255
-641.682	48.123	0.113	-0.140
-640.668	-50.228	0.508	-0.317
-639.653	27.267	-0.159	-0.176
-638.638	-149.860	-0.195	0.020
-637.624	-162.816	-0.322	-0.020
-636.609	-200.000	-0.012	-0.550
-635.595	-108.786	-0.620	-0.174
-634.580	800.000	0.058	0.255
-633.565	346.886	-0.132	-0.346
-632.551	-132.481	0.346	-0.058
-631.536	-116.499	0.329	-0.080
-630.522	-69.897	-0.264	-0.133
-629.507	-200.000	0.064	0.409
-628.492	307.984	-0.033	-0.082
-627.478	-57.618	-0.117	-0.068
-626.463	-1.402	0.289	0.269
-625.449	-125.243	-0.391	0.078
-624.434	112.790	-0.045	0.073
-623.419	410.244	0.133	-0.375
-622.405	-7.252	0.276	-0.247
-621.390	132.712	-0.215	0.367
-620.376	-94.416	0.294	-0.105
-619.361	70.999	0.213	0.291
-618.346	-200.000	0.040	0.426
-617.332	-9.218	0.399	-0.352
-616.317	454.027	0.141	-0.415
-615.303	233.415	-0.343	-0.748
-614.288	800.000	-0.067	0.280
-613.273	800.000	0.051	-0.295
-612.259	53.433	0.209	-0.265
-611.244	143.911	-0.070	-0.124
-610.230	-200.000	0.121	-0.729
-609.215	-52.914	-0.530	0.321
-608.201	-151.444	-0.326	0.032
-607.186	-178.065	-0.304	0.009
-606.171	800.000	-0.029	0.155
-605.157	145.309	0.098	-0.174
-604.142	-200.000	0.034	-0.519
-603.128	-89.774	0.226	0.087
-602.113	-52.368	-0.101	0.061
-601.098	-162.720	-0.207	-0.013
-600.084	27.623	0.155	0.172
-599.069	-60.439	0.530	-0.297
-598.055	35.571	-0.246	0.286
-597.040	-160.940	-0.260	-0.018
-596.025	-12.167	0.096	-0.083
-595.011	554.984	0.091	0.292
-593.996	-66.100	-0.114	-0.060
-592.982	-98.740	0.381	-0.127
-591.967	58.949	0.169	0.219
-590.952	-72.403	-0.179	0.087
-589.938	114.845	0.053	0.085
-588.923	-200.000	-0.012	-0.152
-587.909	412.767	-0.066	0.187
-586.894	-65.758	-0.153	0.080
-585.879	-75.156	0.452	-0.212
-584.865	259.359	-0.143	0.327
-583.850	-200.000	-0.022	0.292
-582.836	-137.944	0.258	0.038
-581.821	-140.440	-0.226	0.031
-580.806	94.788	0.241	0.362
-579.792	-65.522	0.373	-0.197
-578.777	-146.424	0.520	0.059
-577.763	-123.545	-0.193	0.040
-576.748	-120.112	0.201	0.045
-575.733	-8.707	-0.253	0.224
-574.719	-29.043	-0.348	-0.263
-573.704	38.660	0.288	-0.340
-572.690	-41.022	-0.126	-0.086
-571.675	-74.580	-0.446	-0.211
-570.661	-72.873	-0.032	-0.016
-569.646	-47.323	0.459	-0.294
-568.631	73.855	-0.204	0.282
-567.617	-0.440	0.216	0.203
-566.602	495.832	0.106	0.323
-565.588	-2.140	-0.291	-0.269
-564.573	-200.000	0.272	-0.000
-563.558	133.034	-0.216	-0.369
-562.544	14.158	-0.459	-0.472
-561.529	71.448	-0.144	-0.197
-560.515	72.474	0.096	-0.133
-559.500	42.243	-0.180	0.216
-558.485	-11.322	-0.113	-0.098
-557.471	-58.007	0.106	0.061
-556.456	-200.000	-0.015	0.130
-555.442	36.503	-0.085	0.098
-554.427	-104.699	0.058	0.018
-553.412	394.105	-0.096	-0.265
-552.398	80.393	0.026	-0.037
-551.383	-47.952	-0.148	0.094
-550.369	655.029	-0.074	0.252
-549.354	-52.018	-0.205	-0.125
-548.339	-17.886	-0.130	0.107
-547.325	-45.312	0.139	-0.091
-546.310	-132.802	-0.528	-0.088
-545.296	292.059	0.118	0.285
-544.281	125.945	-0.051	-0.085
-543.266	255.595	0.146	0.331
-542.252	18.427	-0.079	-0.083
-541.237	-106.226	-0.372	-0.109
-540.223	300.206	-0.233	-0.569
-539.208	43.228	-0.170	-0.205
-538.193	224.894	0.099	0.211
-537.179	-86.419	-0.159	0.064
-536.164	-51.134	0.254	-0.156
-535.150	800.000	-0.050	-0.282
-534.135	-135.976	-0.441	0.068
-533.121	154.381	-0.272	-0.494
-532.106	402.722	0.050	0.139
-531.091	-82.307	-0.110	0.047
-530.077	137.522	-0.117	0.202
-529.062	-8.707	-0.372	-0.328
-528.048	800.000	0.052	0.262
-527.033	-200.000	-0.010	-0.164
-526.018	800.000	-0.029	-0.134
-525.004	-37.893	-0.397	-0.277
-523.989	-19.986	0.178	-0.144
-522.975	-129.080	0.217	-0.040
-521.960	-124.730	-0.289	0.058
-520.945	128.089	0.192	0.323
-519.931	-108.886	-0.287	-0.080
-518.916	-110.452	-0.198	0.054
-517.902	-32.139	0.223	-0.164
-516.887	-200.000	0.059	0.566
-515.872	18.950	-0.353	-0.372
-514.858	-200.000	0.056	-0.497
-513.843	34.463	0.069	0.080
-512.829	-158.908	0.125	-0.009
-511.814	24.134	-0.060	0.065
-510.799	-32.053	0.190	-0.140
-509.785	114.527	-0.306	-0.491
-508.770	75.360	-0.252	-0.350
-507.756	800.000	0.058	-0.241
-506.741	-144.328	0.263	0.032
-505.726	39.679	0.106	0.125
-504.712	63.740	0.149	-0.198
-503.697	-200.000	0.005	-0.113
-502.683	19.525	-0.286	0.302
-501.668	41.486	-0.336	-0.400
-500.653	800.000	0.055	-0.213
-499.639	-21.814	0.264	0.211
-498.624	-28.381	-0.274	0.207
-497.610	-77.068	-0.249	-0.114
-496.595	-44.459	0.135	-0.088
-495.581	-200.000	-0.048	0.330
-494.566	-78.591	0.320	0.143
-493.551	-125.818	0.220	0.043
-492.537	-116.385	-0.537	0.130
-491.522	-85.704	-0.124	-0.050
-490.508	-200.000	0.001	0.196
-489.493	-200.000	0.007	0.237
-488.478	-64.068	-1.027	0.549
-487.464	-168.323	-0.265	-0.013
-486.449	176.872	0.183	0.352
-485.435	270.146	0.040	0.092
-484.420	-1.942	0.097	0.090
-483.405	-59.650	-0.138	-0.077
-482.391	147.639	0.159	0.283
-481.376	766.982	-0.104	0.373
-480.362	-155.265	0.185	-0.016
-479.347	-65.033	0.191	0.101
-478.332	-134.073	0.309	-0.050
-477.318	-200.000	0.282	0.002
-476.303	-119.355	0.376	-0.085
-475.289	92.116	-0.291	0.431
-474.274	-155.217	0.111	-0.009
-473.259	-61.596	-0.155	0.085
-472.245	800.000	-0.104	0.423
-471.230	-12.231	0.262	0.225
-470.216	70.147	0.347	0.471
-469.201	5.302	0.135	0.131
-468.186	-35.138	0.250	0.178
-467.172	-166.660	-0.254	0.014
-466.157	-33.449	-0.263	0.191
-465.143	64.170	-0.338	0.447
-464.128	339.026	0.124	0.318
-463.113	800.000	0.064	0.244
-462.099	800.000	0.031	-0.123
-461.084	-8.743	0.315	-0.277
-460.070	349.720	0.117	0.304
-459.055	-62.021	0.172	-0.094
-458.040	-90.882	0.225	0.084
-457.026	63.599	0.202	-0.266
-456.011	517.422	0.110	-0.339
-454.997	-72.943	0.500	-0.240
-453.982	-141.747	-0.339	-0.044
-452.968	21.614	0.120	0.128
-451.953	-129.223	-0.095	0.017
-450.938	-123.715	-0.197	-0.041
-449.924	-97.546	0.158	-0.054
-448.909	800.000	-0.149	0.558
-447.895	27.788	0.228	0.252
-446.880	-196.563	0.224	0.002
-445.865	-200.000	0.004	-0.299
-444.851	-104.200	0.423	-0.128
-443.836	-107.684	0.342	-0.097
-442.822	-81.667	-0.210	-0.090
-441.807	-191.823	-0.275	0.003
-440.792	-105.633	-0.249	0.073
-439.778	800.000	-0.022	0.126
-438.763	-200.000	-0.010	-0.060
-437.749	-7.149	0.107	-0.095
-436.734	102.952	0.036	-0.055
-435.719	-200.000	0.021	0.579
-434.705	155.315	0.111	-0.202
-433.690	309.314	-0.094	0.231
-432.676	-200.000	0.007	0.168
-431.661	241.820	-0.099	0.219
-430.646	-76.707	-0.393	0.180
-429.632	63.700	-0.243	0.321
-428.617	-200.000	-0.015	-0.128
-427.603	46.139	-0.112	0.136
-426.588	-97.486	0.238	-0.081
-425.573	-76.327	-0.135	-0.062
-424.559	480.931	-0.160	-0.479
-423.544	-200.000	0.008	-0.245
-422.530	-32.576	0.297	0.216
-421.515	-96.227	-0.226	0.078
-420.500	430.412	0.052	-0.147
-419.486	88.004	0.174	-0.254
-418.471	146.388	0.227	-0.401
-417.457	261.717	0.081	-0.184
-416.442	3.667	0.347	-0.332
-415.428	-76.728	-0.019	0.009
-414.413	800.000	-0.064	0.322
-413.398	81.887	0.244	0.346
-412.384	-200.000	0.063	-0.523
-411.369	562.015	0.120	-0.384
-410.355	281.971	-0.150	-0.354
-409.340	-98.484	-0.377	0.126
-408.325	-54.481	-0.008	-0.005
-407.311	-55.284	-0.221	-0.130
-406.296	360.436	-0.006	0.015
-405.282	480.951	-0.041	0.123
-404.267	34.943	-0.164	0.188
-403.252	616.403	-0.022	0.072
-402.238	731.784	-0.052	0.185
-401.223	-200.000	0.034	-0.304
-400.209	-83.786	-0.151	0.063
-399.194	-97.480	-0.085	0.029
-398.179	92.112	-0.187	0.276
-397.165	-132.874	0.340	-0.056
-396.150	-104.067	-0.428	0.130
-395.136	-200.000	-0.011	-0.264
-394.121	241.788	-0.062	0.136
-393.106	-36.799	0.094	-0.066
-392.092	64.347	0.095	0.126
-391.077	170.264	-0.061	0.115
-390.063	800.000	-0.108	0.447
-389.048	-10.404	-0.177	0.154
-388.033	181.596	0.247	0.478
-387.019	-47.187	-0.363	-0.231
-386.004	50.599	-0.209	0.259
-384.990	206.809	-0.158	-0.323
-383.975	800.000	0.027	-0.136
-382.960	-160.108	-0.176	-0.012
-381.946	-76.559	-0.322	-0.147
-380.931	137.143	0.140	-0.241
-379.917	-140.948	-0.055	0.007
-378.902	-146.301	-0.105	-0.012
-377.888	44.880	0.275	0.332
-376.873	328.721	0.220	0.555
-375.858	-0.823	-0.145	0.134
-374.844	-34.416	0.258	0.184
-373.829	-14.023	0.116	0.098
-372.815	800.000	-0.091	0.371
-371.800	800.000	-0.063	0.337
-370.785	-121.554	-0.237	0.051
-369.771	-78.619	-0.102	-0.045
-368.756	-106.315	0.062	-0.018
-367.742	52.891	-0.434	0.544
-366.727	184.844	-0.152	-0.297
-365.712	-200.000	-0.008	-0.487
-364.698	-99.574	0.183	0.060
-363.683	-178.983	0.379	0.011
-362.669	-150.761	-0.238	-0.023
-361.654	-80.952	0.170	0.073
-360.639	-148.810	0.371	0.039
-359.625	364.904	-0.200	0.530
-358.610	102.119	-0.098	0.151
-357.596	225.345	0.134	0.285
-356.581	187.595	-0.165	0.322
-355.566	-200.000	-0.058	-0.395
-354.552	-55.493	0.166	-0.097
-353.537	-151.534	0.152	-0.015
-352.523	-161.758	0.263	0.017
-351.508	215.367	-0.213	-0.443
-350.493	-200.000	-0.005	-0.106
-349.479	-200.000	-0.004	-0.359
-348.464	-200.000	0.003	-0.684
-347.450	-84.113	-0.251	-0.104
-346.435	-200.000	0.053	-0.503
-345.420	-200.000	-0.004	0.295
-344.406	-200.000	-0.001	-0.062
-343.391	-36.625	-0.118	-0.083
-342.377	157.994	0.168	0.304
-341.362	-20.634	0.378	-0.303
-340.348	-88.875	-0.248	0.096
-339.333	50.313	0.254	0.314
-338.318	-182.782	0.092	0.002
-337.304	350.928	0.126	0.327
-336.289	-41.081	-0.092	0.062
-335.275	-105.158	-0.323	-0.096
-334.260	-36.881	-0.243	0.170
-333.245	-163.539	0.476	-0.029
-332.231	11.704	-0.134	-0.134
-331.216	611.641	-0.192	0.631
-330.202	0.302	-0.162	0.151
-329.187	-146.014	-0.280	-0.032
-328.172	-200.000	0.006	-0.131
-327.158	-137.280	0.466	0.068
-326.143	-200.000	-0.079	-0.532
-325.129	-58.064	-0.381	-0.216
-324.114	800.000	0.040	0.172
-323.099	-103.671	0.406	0.123
-322.085	13.087	-0.171	-0.173
-321.070	-118.555	-0.179	0.041
-320.056	-200.000	-0.031	-0.459
-319.041	-97.376	0.291	-0.098
-318.026	-200.000	0.002	0.014
-317.012	-14.142	-0.121	0.102
-315.997	13.142	0.135	-0.137
-314.983	-200.000	0.011	0.162
-313.968	-71.561	-0.177	-0.086
-312.953	58.226	-0.093	-0.119
-311.939	-53.756	-0.032	-0.019
-310.924	-58.844	0.310	-0.174
-309.910	70.273	0.125	-0.168
-308.895	127.895	0.383	-0.637
-307.880	-120.543	-0.445	-0.098
-306.866	-115.918	0.201	0.049
-305.851	-109.747	-0.068	0.018
-304.837	204.220	0.085	0.172
-303.822	371.480	-0.100	-0.266
-302.807	179.391	-0.104	-0.200
-301.793	-85.948	0.302	-0.121
-300.778	-30.330	0.451	0.333
-299.764	800.000	0.028	-0.133
-298.749	-23.967	-0.317	0.247
-297.735	46.592	-0.117	0.141
-296.720	-107.497	-0.156	0.044
-295.705	-60.992	-0.391	-0.215
-294.691	-76.287	-0.109	0.050
-293.676	-102.749	-0.432	0.133
-292.662	-41.113	0.438	0.295
-291.647	167.323	0.033	-0.061
-290.632	-169.784	-0.227	0.010
-289.618	800.000	0.077	0.286
-288.603	-168.606	0.527	-0.026
-287.589	-200.000	-0.064	0.515
-286.574	-34.618	0.146	0.104
-285.559	-173.888	-0.222	0.008
-284.545	-200.000	0.058	-0.380
-283.530	-84.937	-0.033	0.013
-282.516	-145.199	-0.257	0.030
-281.501	188.045	0.149	0.292
-280.486	-35.621	0.141	0.099
-279.472	-141.269	0.193	0.025
-278.457	53.148	-0.136	0.170
-277.443	52.522	0.067	-0.083
-276.428	800.000	0.056	-0.272
-275.413	800.000	0.182	-0.833
-274.399	-112.006	0.363	-0.095
-273.384	754.537	0.105	0.372
-272.370	-94.013	0.238	-0.085
-271.355	-76.098	-0.134	-0.062
-270.340	63.680	0.056	0.073
-269.326	1.706	0.249	-0.234
-268.311	-131.879	-0.424	-0.072
-267.297	-51.484	0.244	0.148
-266.282	-130.425	-0.089	-0.016
-265.267	-35.579	-0.114	0.081
-264.253	-127.782	-0.633	-0.118
-263.238	-200.000	0.023	0.217
-262.224	69.843	0.199	-0.267
-261.209	571.972	-0.149	-0.475
-260.195	-126.724	0.863	0.165
-259.180	-200.000	-0.015	-0.267
-258.165	45.721	0.278	-0.335
-257.151	-100.243	-0.492	0.158
-256.136	-102.873	0.416	-0.128
-255.122	-174.480	0.179	0.007
-254.107	-129.904	0.302	-0.053
-253.092	47.828	-0.127	0.155
-252.078	-58.670	0.135	-0.076
-251.063	236.789	0.021	-0.045
-250.049	-200.000	-0.034	-0.256
-249.034	-83.237	0.445	-0.185
-248.019	800.000	-0.042	0.164
-247.005	-200.000	-0.254	0.001
-245.990	-200.000	-0.024	-0.409
-244.976	579.910	0.189	0.605
-243.961	-169.618	-0.458	-0.021
-242.946	-41.137	-0.060	-0.041
-241.932	-200.000	0.016	-0.220
-240.917	516.416	-0.109	-0.332
-239.903	-189.761	0.563	0.008
-238.888	-77.719	-0.460	0.206
-237.873	52.649	0.279	0.347
-236.859	-88.917	-0.177	0.068
-235.844	-0.274	-0.315	0.291
-234.830	49.822	-0.151	-0.185
-233.815	-190.273	-0.215	-0.003
-232.800	-34.510	0.063	-0.045
-231.786	51.672	-0.351	-0.435
-230.771	-200.000	0.032	-0.209
-229.757	85.294	-0.167	-0.239
-228.742	334.108	0.114	-0.288
-227.727	95.030	-0.248	-0.368
-226.713	161.011	-0.174	-0.317
-225.698	156.099	0.106	0.191
-224.684	306.930	-0.085	0.208
-223.669	-71.749	-0.101	-0.049
-222.655	95.445	-0.240	0.357
-221.640	301.396	0.223	0.538
-220.625	-134.698	0.516	-0.081
-219.611	-54.740	-0.272	-0.160
-218.596	117.909	-0.100	-0.160
-217.582	-75.260	0.239	-0.111
-216.567	-58.535	0.190	0.107
-215.552	-118.609	0.619	-0.141
-214.538	5.097	0.398	0.381
-213.523	72.345	0.372	-0.505
-212.509	-64.039	0.391	0.207
-211.494	-92.014	0.263	-0.096
-210.479	-117.801	-0.432	0.100
-209.465	18.483	0.266	-0.277
-208.450	-74.963	0.295	-0.137
-207.436	-133.134	-0.225	-0.037
-206.421	234.452	-0.211	-0.455
-205.406	307.765	-0.046	0.113
-204.392	-200.000	0.010	-0.172
-203.377	-132.572	0.097	0.016
-202.363	-149.654	0.521	-0.053
-201.348	9.827	-0.205	0.202
-200.333	-118.997	-0.132	-0.030
-199.319	800.000	-0.018	-0.086
-198.304	77.327	-0.093	0.129
-197.290	-90.197	-0.187	-0.070
-196.275	800.000	-0.022	0.109
-195.260	-49.194	-0.384	0.238
-194.246	-92.358	-0.369	0.134
-193.231	-69.905	0.135	0.067
-192.217	114.218	0.235	0.373
-191.202	800.000	-0.030	-0.157
-190.187	-110.574	0.237	0.063
-189.173	800.000	0.068	0.390
-188.158	-192.410	-0.359	0.004
-187.144	17.503	0.475	-0.491
-186.129	420.317	0.056	0.155
-185.114	-200.000	-0.020	-0.172
-184.100	-186.524	-0.500	0.009
-183.085	-56.485	-0.328	-0.188
-182.071	-37.590	0.092	-0.064
-181.056	219.142	-0.160	-0.333
-180.042	-115.552	-0.145	0.035
-179.027	-200.000	-0.214	0.000
-178.012	3.000	0.423	-0.399
-176.998	238.143	0.220	0.476
-175.983	-200.000	0.025	-0.147
-174.969	-56.100	-0.196	0.113
-173.954	-101.039	0.069	0.022
-172.939	416.870	0.109	0.304
-171.925	109.882	0.179	0.279
-170.910	800.000	0.103	0.475
-169.896	-200.000	0.009	0.278
-168.881	-1.612	-0.150	-0.137
-167.866	669.106	-0.187	0.631
-166.852	717.162	0.039	0.136
-165.837	-59.286	0.514	0.286
-164.823	-157.977	-0.208	-0.016
-163.808	76.917	0.055	0.075
-162.793	-171.019	0.060	0.003
-161.779	-193.917	-0.358	0.004
-160.764	397.791	0.065	-0.177
-159.750	154.323	0.173	0.310
-158.735	-41.077	-0.184	0.123
-157.720	-84.110	0.185	-0.076
-156.706	-200.000	0.057	-0.435
-155.691	-87.964	0.292	0.113
-154.677	-107.037	-0.161	-0.046
-153.662	-65.499	0.368	0.191
-152.647	-27.663	0.543	0.408
-151.633	-88.783	0.530	-0.203
-150.618	158.886	0.234	0.422
-149.604	82.562	0.254	-0.358
-148.589	-36.614	-0.128	-0.089
-147.574	24.843	-0.320	0.344
-146.560	-155.659	0.111	-0.009
-145.545	-109.226	0.247	-0.068
-144.531	215.726	0.285	-0.589
-143.516	317.055	0.170	0.418
-142.502	-125.246	0.042	0.008
-141.487	49.624	-0.113	-0.138
-140.472	74.105	-0.065	-0.088
-139.458	9.080	0.244	0.239
-138.443	10.497	-0.252	-0.249
-137.429	97.157	-0.315	0.469
-136.414	205.789	-0.312	0.632
-135.399	-41.249	0.432	-0.288
-134.385	176.229	0.123	0.232
-133.370	61.090	-0.107	-0.138
-132.356	-109.636	0.079	0.022
-131.341	-200.000	-0.018	0.214
-130.326	-3.339	0.326	-0.294
-129.312	788.086	0.042	-0.150
-128.297	40.130	-0.308	-0.359
-127.283	-137.397	-0.596	-0.087
-126.268	-49.321	-0.321	-0.198
-125.253	-52.356	0.048	0.029
-124.239	-79.041	0.420	0.184
-123.224	-23.343	-0.218	0.169
-122.210	61.433	-0.124	0.159
-121.195	-200.000	0.015	0.352
-120.180	215.996	-0.126	0.260
-119.166	349.203	0.029	-0.074
-118.151	237.687	0.127	0.274
-117.137	100.368	0.096	0.144
-116.122	-93.183	-0.213	0.076
-115.107	-118.311	-0.245	0.056
-114.093	-200.000	-0.008	0.341
-113.078	800.000	-0.098	0.529
-112.064	41.776	0.233	-0.274
-111.049	-42.254	0.543	0.359
-110.034	-68.106	0.082	-0.041
-109.020	-159.160	0.258	-0.019
-108.005	26.889	0.198	-0.215
-106.991	800.000	0.039	-0.185
-105.976	154.176	0.025	-0.045
-104.962	54.553	-0.305	0.381
-103.947	-36.542	0.217	0.151
-102.932	17.580	0.106	0.109
-101.918	-13.936	0.062	0.052
-100.903	-54.362	0.416	-0.243
-99.889	119.556	-0.173	-0.278
-98.874	800.000	0.074	-0.308
-97.859	-139.353	-0.434	0.060
-96.845	-138.587	-0.537	0.075
-95.830	-82.861	-0.227	0.095
-94.816	90.759	0.101	-0.146
-93.801	122.681	-0.134	-0.218
-92.786	-200.000	0.025	0.185
-91.772	-200.000	-0.032	0.302
-90.757	5.199	-0.222	-0.212
-89.743	-200.000	0.033	-0.541
-88.728	55.024	-0.234	-0.293
-87.713	508.776	0.165	-0.500
-86.699	-130.133	-0.114	-0.020
-85.684	800.000	0.056	0.225
-84.670	221.492	-0.061	0.128
-83.655	387.787	-0.019	0.051
-82.640	-144.334	-0.457	0.054
-81.626	15.259	0.187	-0.190
-80.611	-179.224	-0.420	-0.012
-79.597	257.648	-0.359	0.802
-78.582	-156.836	0.134	0.011
-77.567	800.000	0.183	0.667
-76.553	-75.057	-0.279	0.128
-75.538	114.080	-0.137	0.216
-74.524	-17.150	-0.598	0.488
-73.509	-104.298	0.113	0.034
-72.494	-200.000	-0.064	0.371
-71.480	-200.000	-0.044	0.511
-70.465	800.000	-0.027	0.130
-69.451	-56.920	0.156	0.089
-68.436	-110.230	0.589	0.158
-67.422	30.425	-0.052	-0.057
-66.407	-200.000	0.174	-0.001
-65.392	-94.608	-0.159	-0.056
-64.378	-173.235	-0.471	-0.018
-63.363	800.000	-0.030	0.152
-62.349	-200.000	-0.052	0.375
-61.334	82.803	-1.721	-2.422
-60.319	26.754	1.587	1.719
-59.305	231.268	-3.539	-7.523
-58.290	89.531	3.769	5.444
-57.276	347.433	3.982	10.184
-56.261	-200.000	24.252	317.526
-55.246	357.473	1299.668	3366.745
-54.232	53.556	2839.718	3524.496
-53.217	51.757	2658.841	3272.085
-52.203	32.074	2388.460	2662.185
-51.188	27.944	2054.945	2239.594
-50.173	24.570	1941.116	2076.112
-49.159	23.310	1929.731	2049.209
-48.144	22.889	1925.426	2039.666
-47.130	22.985	1922.223	2037.303
-46.115	22.815	1920.791	2033.740
-45.100	22.835	1919.282	2032.289
-44.086	22.776	1917.694	2029.850
-43.071	22.753	1916.532	2028.268
-42.057	22.733	1915.568	2026.940
-41.042	22.766	1913.893	2025.469
-40.027	22.770	1912.031	2023.466
-39.013	22.793	1910.691	2022.235
-37.998	22.777	1909.380	2020.573
-36.984	22.709	1908.655	2018.949
-35.969	22.783	1907.349	2018.334
-34.954	22.756	1906.238	2016.771
-33.940	22.893	1904.111	2016.018
-32.925	22.593	1904.663	2013.070
-31.911	22.761	1901.949	2012.049
-30.896	22.736	1900.406	2010.049
-29.881	22.716	1898.203	2007.413
-28.867	22.690	1897.943	2006.763
-27.852	22.713	1896.420	2005.341
-26.838	22.679	1895.184	2003.558
-25.823	22.726	1892.944	2001.644
-24.809	22.713	1891.639	2000.038
-23.794	22.678	1891.095	1998.989
-22.779	22.706	1889.557	1997.599
-21.765	22.659	1887.812	1995.149
-20.750	22.649	1887.024	1994.123
-19.736	22.644	1885.853	1992.749
-18.721	22.524	1885.533	1990.963
-17.706	22.639	1883.567	1990.117
-16.692	22.461	1882.415	1986.797
-15.677	22.512	1881.470	1986.306
-14.663	22.465	1880.648	1984.827
-13.648	22.408	1879.018	1982.380
-12.633	22.483	1878.038	1982.116
-11.619	22.561	1876.605	1981.407
-10.604	22.472	1875.304	1978.952
-9.590	22.392	1874.297	1976.899
-8.575	22.616	1872.331	1977.277
-7.560	22.594	1870.715	1975.243
-6.546	22.528	1870.065	1973.732
-5.531	22.439	1869.623	1972.186
-4.517	22.534	1868.042	1971.513
-3.502	22.524	1866.744	1969.946
-2.487	22.532	1866.451	1969.658
-1.473	22.634	1862.791	1966.861
-0.458	22.271	1845.483	1944.466
0.556	19.184	1991.442	2049.135
1.571	18.046	2194.132	2242.416
2.586	18.919	2233.108	2293.696
3.600	18.950	2236.172	2296.982
4.615	18.862	2235.461	2294.799
5.629	18.956	2233.406	2293.666
6.644	18.966	2231.090	2291.148
7.659	18.839	2229.095	2287.131
8.673	18.878	2226.935	2285.164
9.688	18.567	2236.777	2290.811
10.702	17.645	2316.666	2359.515
11.717	16.246	2379.220	2402.931
12.731	7.835	2360.136	2263.522
13.746	1.067	2342.030	2149.622
14.761	0.179	2337.874	2132.915
15.775	0.050	2336.393	2129.461
16.790	0.048	2333.941	2126.954
17.804	0.052	2333.067	2125.958
18.819	0.034	2331.707	2124.197
19.834	0.049	2330.016	2122.628
20.848	-0.021	2329.468	2120.877
21.863	-0.027	2328.020	2119.217
22.877	-0.028	2325.626	2116.774
23.892	-0.071	2323.628	2114.087
24.907	-0.005	2321.700	2113.022
25.921	0.003	2320.049	2111.377
26.936	-0.049	2317.352	2107.931
27.950	-0.105	2315.266	2105.002
28.965	0.051	2312.229	2104.177
29.980	0.089	2310.623	2102.999
30.994	0.086	2309.404	2101.592
32.009	4.166	2322.924	2171.184
33.023	14.056	2349.903	2336.450
34.038	18.090	2355.855	2399.117
35.053	18.286	2355.443	2401.171
36.067	18.456	2352.983	2400.774
37.082	18.330	2351.651	2397.355
38.096	18.484	2348.690	2396.211
39.111	18.552	2346.007	2394.141
40.126	18.624	2344.764	2393.594
41.140	18.842	2343.178	2394.738
42.155	18.719	2340.725	2390.219
43.169	18.615	2340.169	2387.910
44.184	18.542	2336.108	2382.472
45.199	18.468	2334.650	2379.661
46.213	18.502	2333.483	2378.666
47.228	18.641	2331.713	2378.507
48.242	18.628	2330.193	2376.501
49.257	18.587	2328.896	2374.315
50.271	18.654	2325.739	2371.751
51.286	18.506	2323.712	2367.337
52.301	18.459	2321.983	2364.645
53.315	18.773	2322.616	2369.360
54.330	20.080	2325.374	2390.024
55.344	20.959	2324.160	2400.664
56.359	21.103	2320.609	2398.695
57.374	21.095	2320.121	2397.794
58.388	21.278	2317.790	2397.626
59.403	21.179	2314.384	2392.445
60.417	21.146	2311.774	2389.010
61.432	21.221	2309.499	2387.407
62.447	21.382	2308.551	2388.356
63.461	21.592	2306.213	2388.531
64.476	21.579	2303.870	2385.636
65.490	21.489	2303.422	2383.653
66.505	21.134	2301.043	2376.050
67.520	20.029	2296.417	2355.893
68.534	18.825	2291.257	2333.882
69.549	18.704	2286.008	2326.610
70.563	18.719	2285.067	2325.578
71.578	18.721	2283.528	2323.756
72.593	18.814	2282.129	2323.320
73.607	18.838	2281.769	2323.008
74.622	18.862	2279.177	2320.411
75.636	18.682	2275.697	2314.152
76.651	18.671	2273.706	2311.698
77.666	18.850	2271.914	2312.018
78.680	18.795	2269.670	2308.724
79.695	18.644	2267.649	2304.345
80.709	18.641	2266.951	2303.326
81.724	18.684	2264.225	2300.856
82.739	18.676	2261.941	2298.161
83.753	18.693	2259.914	2296.051
84.768	18.602	2258.643	2293.262
85.782	18.519	2257.493	2290.711
86.797	18.625	2255.365	2289.700
87.812	18.607	2252.870	2286.648
88.826	18.571	2251.106	2284.103
89.841	18.695	2249.225	2283.575
90.855	18.767	2245.876	2280.865
91.870	18.556	2245.457	2277.349
92.884	18.536	2243.742	2275.072
93.899	18.628	2242.025	2274.284
94.914	18.761	2242.729	2276.499
95.928	19.957	2246.748	2296.250
96.943	20.476	2243.837	2299.916
97.957	19.339	2237.314	2277.857
98.972	18.660	2234.317	2265.531
99.987	18.549	2231.043	2260.469
101.001	18.541	2228.552	2257.571
102.016	18.630	2225.633	2255.523
103.030	18.554	2224.777	2253.372
104.045	18.684	2222.216	2252.228
105.060	18.731	2220.265	2250.595
106.074	18.641	2218.873	2247.729
107.089	18.484	2216.851	2243.350
108.103	18.533	2216.628	2243.496
109.118	18.712	2214.242	2243.174
110.133	18.789	2213.031	2242.686
111.147	18.881	2210.796	2241.362
112.162	18.823	2209.278	2238.797
113.176	18.789	2206.846	2235.608
114.191	18.735	2204.891	2232.658
115.206	18.689	2203.538	2230.423
116.220	18.658	2201.964	2228.160
117.235	18.651	2200.282	2226.098
118.249	18.636	2197.151	2222.466
119.264	18.764	2196.758	2223.464
120.279	18.827	2195.084	2222.329
121.293	18.661	2192.996	2217.791
122.308	18.669	2191.741	2216.360
123.322	18.749	2190.705	2216.086
124.337	18.819	2189.915	2215.928
125.352	20.119	2193.476	2236.138
126.366	20.425	2192.305	2238.637
127.381	19.094	2184.970	2213.688
128.395	18.572	2180.234	2201.894
129.410	18.595	2179.200	2200.878
130.424	18.812	2176.887	2201.078
131.439	18.599	2174.987	2196.149
132.454	18.660	2174.396	2196.072
133.468	18.579	2171.670	2192.011
134.483	18.683	2169.858	2191.264
135.497	18.698	2168.857	2190.182
136.512	18.734	2165.567	2187.057
137.527	18.605	2165.251	2184.821
138.541	18.617	2163.439	2182.893
139.556	18.666	2162.739	2182.551
140.570	18.548	2161.420	2179.441
141.585	18.655	2159.146	2178.254
142.600	18.581	2157.081	2174.967
143.614	18.493	2155.541	2172.042
144.629	18.587	2153.798	2171.215
145.643	18.618	2152.530	2170.070
146.658	18.639	2150.545	2168.083
147.673	18.558	2148.981	2165.218
148.687	18.622	2147.587	2164.359
149.702	18.655	2146.583	2163.505
150.716	18.559	2145.852	2161.292
151.731	18.698	2144.926	2161.866
152.746	18.718	2143.909	2160.837
153.760	18.933	2144.725	2164.115
154.775	20.133	2147.219	2181.568
155.789	20.452	2144.531	2182.599
156.804	19.336	2137.561	2161.189
157.819	18.655	2133.684	2148.442
158.833	18.590	2131.059	2144.732
159.848	18.700	2129.597	2144.389
160.862	18.779	2128.087	2143.597
161.877	18.856	2126.941	2143.150
162.892	18.896	2125.221	2141.661
163.906	18.773	2124.505	2139.147
164.921	18.764	2121.799	2136.053
165.935	18.701	2119.808	2133.007
166.950	18.756	2118.366	2131.986
167.964	18.762	2115.864	2129.287
168.979	18.655	2113.667	2125.488
169.994	18.681	2113.492	2125.385
171.008	18.697	2111.274	2123.093
172.023	18.669	2110.013	2121.232
173.037	18.691	2109.506	2120.733
174.052	18.705	2107.239	2118.382
175.067	18.625	2105.257	2115.140
176.081	18.537	2104.857	2113.396
177.096	18.611	2103.288	2112.483
178.110	18.537	2100.888	2108.899
179.125	18.559	2100.206	2108.233
180.140	18.681	2098.418	2107.704
181.154	18.650	2097.694	2106.339
182.169	18.602	2096.110	2103.903
183.183	18.808	2096.257	2106.342
184.198	20.245	2098.898	2126.459
185.213	20.535	2097.580	2128.432
186.227	19.345	2091.496	2107.393
187.242	18.766	2089.360	2097.882
188.256	18.624	2087.242	2093.766
189.271	18.888	2085.276	2094.781
190.286	18.697	2084.813	2091.725
191.300	18.636	2081.531	2087.435
192.315	18.605	2080.302	2085.577
193.329	18.614	2079.006	2084.129
194.344	18.879	2077.982	2086.091
195.359	18.962	2075.885	2084.746
196.373	18.749	2074.516	2080.531
197.388	18.786	2071.964	2078.174
198.402	18.803	2069.617	2075.776
199.417	18.561	2067.949	2070.920
200.432	18.645	2066.181	2069.917
201.446	18.683	2065.567	2069.510
202.461	18.714	2063.667	2067.733
203.475	18.586	2061.977	2064.252
204.490	18.695	2060.164	2063.506
205.504	18.731	2057.422	2060.944
206.519	18.532	2055.664	2056.541
207.534	18.564	2053.814	2054.827
208.548	18.587	2053.071	2054.119
209.563	18.642	2050.995	2052.448
210.577	18.610	2050.570	2051.397
211.592	18.717	2049.338	2051.207
212.607	19.282	2052.361	2060.778
213.621	20.793	2054.646	2080.986
214.636	20.551	2049.813	2072.947
215.650	19.037	2044.473	2049.188
216.665	18.671	2042.204	2042.292
217.680	18.781	2041.489	2042.647
218.694	18.745	2039.706	2040.184
219.709	18.725	2038.126	2038.128
220.723	18.733	2037.124	2036.973
221.738	18.697	2034.777	2033.949
222.753	18.617	2032.539	2030.519
223.767	18.712	2030.740	2029.610
224.782	18.737	2029.297	2028.217
225.796	18.653	2028.341	2026.021
226.811	18.851	2026.176	2025.967
227.826	18.749	2024.835	2023.182
228.840	18.846	2023.189	2022.440
229.855	18.636	2022.980	2019.498
230.869	18.817	2020.616	2019.033
231.884	18.903	2018.561	2017.757
232.899	18.721	2017.231	2014.037
233.913	18.681	2016.105	2012.207
234.928	18.660	2016.014	2011.631
235.942	18.668	2013.920	2009.390
236.957	18.789	2012.006	2008.667
237.972	18.731	2010.090	2005.828
238.986	18.756	2010.483	2006.276
240.001	18.851	2007.754	2004.423
241.015	18.677	2006.486	2000.876
242.030	18.821	2007.403	2003.241
243.045	20.038	2009.647	2019.508
244.059	20.309	2006.394	2019.176
245.074	19.180	1999.961	1999.290
246.088	18.646	1997.619	1990.483
247.103	18.694	1996.023	1989.208
248.117	18.786	1995.144	1989.169
249.132	18.817	1994.501	1988.651
250.147	18.725	1991.192	1984.051
251.161	18.522	1989.954	1980.223
252.176	18.736	1988.783	1981.294
253.190	18.851	1987.138	1980.755
254.205	18.844	1984.754	1978.059
255.220	18.776	1983.625	1975.917
256.234	18.803	1982.830	1975.196
257.249	18.799	1982.236	1974.327
258.263	18.763	1980.755	1972.190
259.278	18.739	1980.455	1971.379
260.293	18.700	1978.171	1968.419
261.307	18.706	1975.726	1965.824
262.322	18.664	1973.724	1963.116
263.336	18.506	1972.090	1959.443
264.351	18.542	1970.464	1958.005
265.366	18.583	1968.813	1956.600
266.380	18.626	1969.290	1957.330
267.395	18.644	1967.139	1955.165
268.409	18.608	1965.478	1952.872
269.424	18.721	1964.540	1952.993
270.439	18.663	1963.805	1951.360
271.453	19.105	1962.259	1954.644
272.468	20.385	1964.393	1971.143
273.482	20.422	1961.204	1968.137
274.497	19.167	1956.514	1948.921
275.512	18.785	1953.238	1941.084
276.526	18.760	1951.365	1938.717
277.541	18.618	1949.650	1935.171
278.555	18.518	1948.843	1933.000
279.570	18.509	1946.829	1930.665
280.585	18.561	1944.826	1929.041
281.599	18.700	1943.601	1929.170
282.614	18.751	1942.870	1928.779
283.628	18.822	1942.192	1928.677
284.643	18.825	1941.530	1927.829
285.657	19.116	1941.230	1930.581
286.672	19.390	1938.750	1930.967
287.687	19.093	1936.610	1925.268
288.701	19.035	1935.295	1923.071
289.716	18.858	1934.315	1919.887
290.730	18.862	1931.693	1917.100
291.745	18.961	1930.943	1917.233
292.760	18.892	1929.324	1914.618
293.774	18.628	1929.438	1911.549
294.789	18.803	1927.725	1911.581
295.803	18.740	1924.793	1907.746
296.818	18.694	1923.937	1906.152
297.833	18.726	1923.077	1905.430
298.847	18.786	1920.576	1903.394
299.862	18.715	1919.525	1901.335
300.876	18.991	1918.497	1903.160
301.891	20.329	1921.789	1921.085
302.906	20.663	1921.112	1923.895
303.920	19.477	1915.542	1904.936
304.935	18.855	1912.445	1894.732
305.949	18.734	1910.145	1890.894
306.964	18.780	1909.229	1890.266
307.979	18.923	1906.758	1889.172
308.993	18.767	1905.838	1886.312
310.008	18.848	1903.763	1884.926
311.022	18.969	1902.516	1884.803
312.037	19.093	1902.105	1885.529
313.052	19.034	1900.426	1882.989
314.066	18.927	1898.304	1879.495
315.081	18.954	1897.986	1879.249
316.095	19.222	1896.464	1880.454
317.110	19.319	1895.495	1880.330
318.125	19.031	1892.980	1874.461
319.139	18.755	1892.422	1870.657
320.154	18.949	1890.529	1870.692
321.168	18.841	1888.940	1867.713
322.183	18.833	1887.613	1866.088
323.197	18.827	1885.032	1863.245
324.212	18.678	1883.433	1859.825
325.227	18.632	1882.691	1858.367
326.241	18.661	1880.849	1856.642
327.256	18.819	1878.921	1856.233
328.270	18.690	1878.525	1854.215
329.285	18.580	1879.492	1853.756
330.300	18.962	1881.178	1859.349
331.314	20.544	1882.567	1877.686
332.329	20.336	1878.617	1871.276
333.343	18.952	1872.816	1850.315
334.358	18.911	1870.093	1846.952
335.373	18.850	1869.687	1845.679
336.387	18.794	1867.438	1842.632
337.402	18.728	1865.496	1839.780
338.416	18.886	1863.282	1839.077
339.431	18.775	1862.666	1837.054
340.446	18.932	1861.484	1837.359
341.460	18.968	1859.953	1836.017
342.475	18.909	1858.425	1833.651
343.489	19.025	1855.868	1832.150
344.504	18.934	1856.089	1831.171
345.519	19.108	1854.679	1831.432
346.533	19.123	1853.059	1829.765
347.548	19.130	1851.766	1828.342
348.562	19.080	1850.563	1826.405
349.577	18.959	1849.990	1824.331
350.592	19.102	1848.564	1824.233
351.606	19.031	1846.539	1821.254
352.621	18.767	1844.583	1816.302
353.635	18.668	1842.768	1813.249
354.650	18.649	1842.063	1812.141
355.665	18.597	1840.647	1809.972
356.679	18.692	1838.866	1809.009
357.694	18.581	1838.468	1807.225
358.708	18.585	1837.150	1805.757
359.723	19.270	1838.501	1814.126
360.738	20.677	1840.061	1830.335
361.752	20.245	1836.317	1821.827
362.767	18.869	1831.964	1802.797
363.781	18.610	1829.591	1797.517
364.796	18.622	1827.680	1795.555
365.810	18.615	1826.851	1794.448
366.825	18.672	1825.757	1793.759
367.840	18.854	1824.884	1794.598
368.854	18.771	1823.604	1792.248
369.869	18.592	1821.644	1788.230
370.883	18.589	1819.478	1785.864
371.898	18.638	1819.380	1786.067
372.913	18.659	1819.238	1785.931
373.927	18.833	1817.179	1785.514
374.942	18.851	1816.379	1784.701
375.956	18.819	1815.729	1783.520
376.971	18.861	1812.950	1781.008
377.986	18.693	1809.945	1776.101
379.000	18.563	1809.308	1773.906
380.015	19.002	1808.615	1777.585
381.029	18.927	1807.027	1775.026
382.044	18.933	1804.682	1772.577
383.059	18.842	1803.513	1770.268
384.073	18.621	1802.485	1766.760
385.088	18.673	1801.407	1766.028
386.102	18.605	1799.892	1763.636
387.117	18.510	1797.545	1760.142
388.132	18.464	1797.747	1759.652
389.146	18.936	1799.963	1766.492
390.161	20.613	1799.947	1783.568
391.175	20.363	1796.109	1776.970
392.190	19.018	1789.528	1756.461
393.205	18.676	1786.899	1750.163
394.219	18.891	1785.492	1750.778
395.234	18.707	1785.176	1748.376
396.248	18.777	1782.781	1746.534
397.263	18.660	1780.480	1742.878
398.278	18.644	1778.731	1740.792
399.292	18.705	1779.246	1741.714
400.307	18.895	1778.520	1742.732
401.321	19.048	1776.992	1742.584
402.336	18.805	1775.580	1738.510
403.350	18.872	1774.306	1737.739
404.365	18.984	1773.281	1737.666
405.380	19.083	1772.403	1737.598
406.394	19.068	1770.521	1735.392
407.409	19.032	1769.272	1733.603
408.423	18.950	1768.624	1731.923
409.438	18.925	1766.690	1729.578
410.453	18.892	1765.570	1727.937
411.467	18.910	1764.434	1726.795
412.482	18.873	1762.629	1724.451
413.496	18.853	1760.769	1722.221
414.511	18.848	1758.640	1719.890
415.526	18.661	1757.346	1716.538
416.540	18.540	1756.451	1714.243
417.555	18.565	1755.442	1713.297
418.569	18.440	1754.879	1711.295
419.584	18.597	1755.108	1712.888
420.599	18.799	1753.135	1712.781
421.613	18.698	1752.726	1711.160
422.628	18.628	1751.740	1709.293
423.642	18.645	1750.485	1708.041
424.657	18.639	1748.601	1705.933
425.672	18.503	1746.927	1702.737
426.686	18.606	1745.380	1702.053
427.701	18.514	1743.852	1699.439
428.715	18.487	1741.869	1697.038
429.730	18.505	1741.358	1696.512
430.745	18.677	1740.411	1697.101
431.759	18.636	1739.433	1695.541
432.774	18.657	1738.741	1694.869
433.788	18.599	1737.783	1693.160
434.803	18.514	1737.077	1691.422
435.818	18.481	1736.288	1690.123
436.832	18.301	1735.272	1687.154
437.847	17.516	1728.356	1672.481
438.861	10.047	1708.128	1579.572
439.876	1.858	1692.599	1485.061
440.890	0.333	1688.941	1466.772
441.905	0.112	1687.685	1463.345
442.920	0.194	1686.078	1462.568
443.934	0.188	1685.048	1461.443
444.949	0.188	1684.118	1460.459
445.963	0.070	1683.633	1458.723
446.978	0.053	1683.742	1458.470
447.993	-0.018	1681.819	1455.944
449.007	0.117	1679.224	1454.833
450.022	0.122	1676.915	1452.705
451.036	0.140	1676.003	1451.917
452.051	1.180	1680.631	1465.860
453.066	9.173	1698.373	1559.393
454.080	16.933	1709.504	1645.382
455.095	18.168	1711.137	1658.801
456.109	18.239	1711.390	1659.541
457.124	18.325	1709.828	1658.668
458.139	18.323	1709.009	1657.659
459.153	18.309	1707.416	1655.778
460.168	18.233	1706.370	1653.827
461.182	18.155	1705.534	1652.055
462.197	18.196	1703.527	1650.312
463.212	18.239	1702.082	1649.131
464.226	18.172	1700.420	1646.677
465.241	18.311	1698.821	1646.276
466.255	18.269	1698.428	1645.292
467.270	18.288	1696.671	1643.581
468.285	18.303	1694.787	1641.700
469.299	18.296	1694.364	1641.024
470.314	18.221	1692.843	1638.638
471.328	18.232	1691.502	1637.243
472.343	18.466	1689.492	1637.356
473.358	18.236	1688.609	1634.096
474.372	18.399	1687.388	1634.274
475.387	18.441	1686.472	1633.598
476.401	18.349	1685.200	1631.291
477.416	18.438	1683.490	1630.289
478.430	18.318	1682.650	1628.130
479.445	18.434	1681.481	1627.918
480.460	18.282	1679.775	1624.618
481.474	18.321	1679.735	1624.755
482.489	18.212	1678.281	1622.117
483.503	18.269	1675.820	1620.087
484.518	18.255	1675.198	1619.159
485.533	18.361	1673.679	1618.505
486.547	18.282	1672.535	1616.455
487.562	18.338	1671.142	1615.442
488.576	18.335	1669.470	1613.612
489.591	18.431	1667.784	1612.697
490.606	18.448	1666.782	1611.692
491.620	18.365	1665.292	1609.279
492.635	18.382	1663.781	1607.785
493.649	18.226	1662.905	1605.268
494.664	18.421	1661.064	1605.139
495.679	18.360	1659.724	1603.082
496.693	18.260	1658.860	1601.116
497.708	18.203	1657.985	1599.540
498.722	18.338	1657.233	1599.892
499.737	18.359	1654.731	1597.481
500.752	18.222	1653.888	1595.196
501.766	18.231	1652.806	1594.044
502.781	18.429	1650.180	1593.167
503.795	18.342	1648.480	1590.530
504.810	18.383	1648.255	1590.503
505.825	18.323	1647.780	1589.294
506.839	18.563	1646.005	1589.624
507.854	18.359	1645.122	1586.681
508.868	18.202	1644.138	1584.081
509.883	18.239	1642.981	1583.123
510.898	18.353	1640.175	1581.291
511.912	18.411	1639.292	1580.781
512.927	18.247	1637.396	1577.246
513.941	18.289	1636.641	1576.723
514.956	18.343	1635.696	1576.119
515.971	18.300	1634.562	1574.444
516.985	18.305	1633.562	1573.338
518.000	18.279	1632.616	1572.002
519.014	18.298	1631.507	1570.916
520.029	18.304	1630.008	1569.339
521.043	18.417	1627.909	1568.172
522.058	18.307	1627.357	1566.445
523.073	18.271	1626.643	1565.241
524.087	18.320	1625.418	1564.317
525.102	18.314	1624.124	1562.831
526.116	18.359	1622.719	1561.707
527.131	18.341	1622.234	1560.889
528.146	18.409	1621.295	1560.420
529.160	18.386	1619.652	1558.437
530.175	18.334	1618.625	1556.792
531.189	18.466	1616.704	1555.961
532.204	18.233	1615.687	1552.673
533.219	18.310	1614.983	1552.515
534.233	18.327	1614.180	1551.704
535.248	18.350	1613.182	1550.773
536.262	18.421	1612.252	1550.341
537.277	18.356	1611.556	1548.894
538.292	18.293	1609.443	1546.101
539.306	18.374	1607.358	1544.649
540.321	18.487	1605.811	1544.005
541.335	18.441	1604.642	1542.282
542.350	18.406	1603.303	1540.487
543.365	18.291	1602.146	1538.152
544.379	18.369	1600.373	1536.973
545.394	18.431	1599.088	1536.110
546.408	18.341	1597.807	1533.889
547.423	18.504	1596.837	1534.238
548.438	18.370	1595.871	1531.924
549.452	18.315	1595.785	1531.158
550.467	18.333	1593.854	1529.290
551.481	18.384	1592.504	1528.265
552.496	18.273	1591.607	1526.229
553.511	18.264	1590.509	1524.916
554.525	18.352	1588.907	1523.983
555.540	18.336	1588.791	1523.548
556.554	18.449	1587.244	1522.887
557.569	18.380	1585.649	1520.561
558.583	18.418	1584.097	1519.226
559.598	18.431	1583.079	1518.182
560.613	18.383	1582.038	1516.577
561.627	18.219	1581.087	1514.030
562.642	18.265	1579.363	1512.601
563.656	18.454	1577.952	1512.745
564.671	18.339	1576.335	1510.001
565.686	18.363	1575.784	1509.500
566.700	18.313	1574.503	1507.651
567.715	18.243	1573.109	1505.517
568.729	18.215	1571.925	1503.952
569.744	18.418	1569.513	1503.259
570.759	18.388	1568.694	1502.030
571.773	18.284	1568.386	1500.639
572.788	18.355	1566.974	1499.730
573.802	18.246	1565.001	1496.711
574.817	18.215	1563.364	1494.688
575.832	18.338	1562.616	1494.872
576.846	18.333	1561.787	1493.856
577.861	18.215	1561.036	1491.932
578.875	18.364	1559.873	1491.945
579.890	18.309	1559.112	1490.553
580.905	18.320	1557.940	1489.353
581.919	18.349	1557.356	1488.869
582.934	18.284	1556.350	1487.163
583.948	18.334	1555.266	1486.385
584.963	18.399	1553.305	1484.897
585.978	18.437	1552.233	1484.026
586.992	18.338	1551.513	1482.297
588.007	18.441	1550.343	1481.901
589.021	18.441	1549.186	1480.620
590.036	18.454	1548.067	1479.482
591.051	18.361	1547.277	1477.742
592.065	18.439	1544.989	1476.056
593.080	18.438	1543.747	1474.685
594.094	18.371	1542.493	1472.735
595.109	18.357	1540.489	1470.524
596.123	18.324	1539.279	1468.905
597.138	18.275	1538.829	1467.875
598.153	18.408	1537.245	1467.338
599.167	18.366	1535.341	1464.981
600.182	18.417	1534.339	1464.293
601.196	18.461	1533.622	1463.806
602.211	18.382	1531.890	1461.299
603.226	18.283	1531.503	1459.909
604.240	18.382	1529.541	1458.716
605.255	18.380	1528.305	1457.341
606.269	18.226	1527.833	1455.397
607.284	18.437	1526.109	1455.385
608.299	18.299	1525.540	1453.492
609.313	18.282	1524.354	1452.040
610.328	18.404	1523.237	1451.843
611.342	18.411	1522.138	1450.685
612.357	18.318	1521.580	1449.186
613.372	18.230	1520.511	1447.246
614.386	18.373	1518.892	1446.743
615.401	18.291	1517.718	1444.755
616.415	18.356	1517.288	1444.730
617.430	18.360	1516.226	1443.580
618.445	18.179	1515.058	1440.764
619.459	18.292	1513.735	1440.281
620.474	18.281	1513.268	1439.574
621.488	18.304	1511.675	1438.080
622.503	18.404	1510.648	1437.776
623.518	18.326	1509.353	1435.716
624.532	18.322	1508.191	1434.406
625.547	18.372	1506.949	1433.469
626.561	18.300	1506.459	1432.225
627.576	18.316	1505.953	1431.713
628.591	18.273	1504.118	1429.430
629.605	18.322	1503.011	1428.625
630.620	18.387	1501.441	1427.503
631.634	18.408	1500.891	1426.981
632.649	18.426	1499.376	1425.526
633.663	18.226	1498.097	1422.465
634.678	18.221	1496.991	1421.201
635.693	18.391	1494.434	1420.021
636.707	18.400	1493.480	1419.021
637.722	18.365	1492.770	1417.884
638.736	18.362	1491.844	1416.812
639.751	18.351	1490.701	1415.464
640.766	18.306	1490.577	1414.801
641.780	18.347	1488.516	1413.020
642.795	18.379	1487.899	1412.530
643.809	18.500	1486.492	1412.029
644.824	18.459	1485.762	1410.827
645.839	18.579	1484.847	1410.781
646.853	18.357	1484.002	1407.972
647.868	18.429	1482.247	1406.731
648.882	18.472	1481.072	1405.803
649.897	18.440	1479.760	1404.126
650.912	18.640	1478.471	1404.383
651.926	18.616	1477.309	1402.915
652.941	18.412	1476.347	1400.154
653.955	18.561	1474.323	1399.287
654.970	18.491	1473.096	1397.381
655.985	18.539	1471.784	1396.366
656.999	18.429	1471.523	1395.049
658.014	18.476	1470.138	1393.956
659.028	18.433	1469.235	1392.583
660.043	18.354	1468.586	1391.155
661.058	18.579	1465.998	1390.367
662.072	18.498	1465.641	1389.208
663.087	18.390	1465.429	1387.956
664.101	18.454	1463.844	1386.809
665.116	18.386	1462.633	1384.944
666.131	18.330	1461.590	1383.335
667.145	18.413	1460.238	1382.565
668.160	18.494	1458.725	1381.624
669.174	18.558	1457.047	1380.384
670.189	18.358	1456.556	1378.134
671.204	18.380	1455.942	1377.570
672.218	18.268	1454.775	1375.399
673.233	18.408	1453.464	1375.120
674.247	18.175	1453.168	1372.798
675.262	18.415	1451.803	1373.278
676.276	18.392	1450.872	1372.045
677.291	18.387	1450.028	1371.046
678.306	18.394	1448.077	1369.094
679.320	18.386	1446.628	1367.496
680.335	18.356	1447.005	1367.449
681.349	18.368	1446.446	1366.854
682.364	18.372	1445.043	1365.396
683.379	18.406	1443.559	1364.097
684.393	18.296	1441.720	1361.320
685.408	18.310	1440.289	1359.920
686.422	18.332	1440.029	1359.688
687.437	18.285	1440.072	1359.187
688.452	18.379	1439.027	1358.790
689.466	18.367	1436.868	1356.491
690.481	18.349	1435.232	1354.639
691.495	18.286	1435.058	1353.816
692.510	18.426	1433.755	1353.535
693.525	18.353	1432.201	1351.328
694.539	18.388	1431.363	1350.648
695.554	18.292	1431.145	1349.525
696.568	18.107	1430.429	1347.218
697.583	18.293	1429.191	1347.362
698.598	18.250	1428.539	1346.249
699.612	18.353	1426.734	1345.198
700.627	18.343	1425.254	1343.565
701.641	18.449	1423.630	1342.710
702.656	18.494	1422.662	1341.989
703.671	18.408	1423.485	1341.928
704.685	18.656	1421.724	1342.060
705.700	18.536	1420.762	1340.044
706.714	18.445	1419.223	1337.721
707.729	18.505	1417.914	1336.794
708.744	18.631	1416.282	1336.086
709.758	18.540	1415.068	1334.067
710.773	18.351	1414.449	1331.848
711.787	18.496	1412.775	1331.243
712.802	18.415	1411.674	1329.414
713.816	18.435	1411.142	1328.906
714.831	18.576	1409.807	1328.589
715.846	18.636	1408.577	1327.743
716.860	18.706	1407.292	1326.914
717.875	18.510	1406.503	1324.486
718.889	18.442	1405.781	1323.121
719.904	18.436	1405.262	1322.426
720.919	18.401	1403.855	1320.677
721.933	18.516	1402.768	1320.389
722.948	18.479	1401.460	1318.712
723.962	18.483	1400.531	1317.712
724.977	18.446	1399.291	1316.097
725.992	18.371	1398.080	1314.224
727.006	18.610	1396.907	1314.802
728.021	18.537	1395.264	1312.542
729.035	18.454	1394.732	1311.245
730.050	18.407	1393.836	1309.885
731.065	18.486	1392.275	1308.870
732.079	18.555	1391.481	1308.495
733.094	18.539	1389.908	1306.733
734.108	18.449	1389.054	1305.084
735.123	18.465	1387.773	1303.849
736.138	18.583	1386.567	1303.459
737.152	18.644	1385.119	1302.405
738.167	18.494	1384.582	1300.603
739.181	18.547	1383.784	1300.101
740.196	18.509	1382.965	1298.885
741.211	18.459	1382.807	1298.199
742.225	18.272	1381.754	1295.637
743.240	18.413	1379.794	1294.718
744.254	18.464	1378.205	1293.458
745.269	18.454	1377.401	1292.475
746.284	18.589	1376.777	1292.750
747.298	18.512	1375.740	1291.044
748.313	18.187	1375.297	1288.012
749.327	18.172	1374.185	1286.702
750.342	18.359	1372.780	1286.645
751.356	18.489	1371.671	1286.435
752.371	18.399	1370.552	1284.555
753.386	18.245	1370.226	1282.930
754.400	18.309	1369.531	1282.606
755.415	18.455	1368.545	1282.635
756.429	18.456	1366.551	1280.616
757.444	18.477	1365.111	1279.275
758.459	18.437	1364.948	1278.662
759.473	18.555	1363.672	1278.203
760.488	18.584	1362.517	1277.186
761.502	18.552	1361.668	1275.996
762.517	18.454	1360.106	1273.648
763.532	18.660	1358.742	1273.755
764.546	18.540	1357.828	1271.850
765.561	18.437	1357.817	1270.916
766.575	18.518	1356.409	1270.052
767.590	18.554	1355.474	1269.295
768.605	18.478	1354.185	1267.366
769.619	18.341	1353.609	1265.660
770.634	18.509	1351.804	1265.070
771.648	18.590	1350.366	1264.172
772.663	18.627	1349.822	1263.784
773.678	18.444	1349.237	1261.729
774.692	18.491	1348.847	1261.561
775.707	18.650	1347.597	1261.414
776.721	18.650	1346.364	1260.115
777.736	18.608	1345.323	1258.679
778.751	18.568	1344.638	1257.589
779.765	18.556	1343.866	1256.631
780.780	18.488	1342.835	1255.013
781.794	18.558	1341.838	1254.449
782.809	18.511	1340.868	1253.042
783.824	18.429	1339.861	1251.350
784.838	18.335	1338.012	1248.783
785.853	18.221	1337.177	1247.021
786.867	18.310	1337.427	1247.759
787.882	18.312	1336.743	1246.982
788.897	18.284	1335.953	1245.896
789.911	18.448	1334.241	1245.347
790.926	18.250	1333.639	1243.191
791.940	18.286	1332.015	1241.791
792.955	18.371	1330.516	1240.861
793.969	18.272	1329.901	1239.422
794.984	18.484	1328.564	1239.568
795.999	18.612	1327.527	1239.379
797.013	18.632	1325.478	1237.466
798.028	18.470	1324.894	1235.599
799.042	18.320	1324.705	1234.187
800.057	18.310	1323.563	1232.903
801.072	18.519	1321.732	1232.562
802.086	18.511	1320.564	1231.264
803.101	18.524	1319.271	1230.009
804.115	18.415	1319.007	1228.824
805.130	18.584	1317.556	1228.544
806.145	18.570	1316.427	1227.244
807.159	18.731	1314.749	1226.689
808.174	18.524	1314.012	1224.365
809.188	18.438	1312.743	1222.421
810.203	18.602	1311.148	1221.968
811.218	18.572	1309.554	1220.119
812.232	18.683	1307.949	1219.272
813.247	18.572	1307.678	1218.082
814.261	18.474	1307.336	1216.919
815.276	18.652	1306.106	1216.895
816.291	18.548	1304.929	1214.909
817.305	18.579	1304.142	1214.256
818.320	18.527	1302.878	1212.561
819.334	18.518	1301.411	1210.990
820.349	18.464	1300.297	1209.423
821.364	18.430	1298.998	1207.833
822.378	18.469	1297.814	1206.857
823.393	18.578	1295.910	1205.713
824.407	18.585	1294.546	1204.351
825.422	18.520	1294.615	1203.813
826.437	18.429	1293.818	1202.286
827.451	18.417	1291.890	1200.267
828.466	18.378	1290.740	1198.781
829.480	18.310	1289.311	1196.834
830.495	18.252	1287.662	1194.749
831.509	18.249	1286.954	1193.928
832.524	18.397	1285.840	1193.790
833.539	18.498	1284.509	1193.118
834.553	18.544	1284.268	1193.075
835.568	18.344	1283.226	1190.561
836.582	18.453	1281.867	1189.919
837.597	18.748	1280.023	1190.120
838.612	18.686	1278.844	1188.453
839.626	18.610	1278.056	1187.052
840.641	18.623	1277.116	1186.124
841.655	18.624	1276.598	1185.508
842.670	18.454	1275.172	1182.861
843.685	18.414	1274.746	1182.052
844.699	18.637	1273.182	1182.002
845.714	18.696	1271.466	1180.679
846.728	18.579	1271.027	1179.316
847.743	18.695	1269.965	1178.990
848.758	18.580	1268.536	1176.731
849.772	18.548	1266.997	1174.944
850.787	18.593	1265.797	1174.001
851.801	18.522	1264.400	1172.073
852.816	18.587	1263.535	1171.577
853.831	18.490	1261.960	1169.315
854.845	18.436	1260.230	1167.198
855.860	18.416	1259.151	1165.925
856.874	18.454	1257.785	1164.778
857.889	18.473	1256.089	1163.202
858.904	18.454	1254.667	1161.612
859.918	18.351	1253.448	1159.645
860.933	18.331	1252.668	1158.652
861.947	18.393	1251.824	1158.154
862.962	18.555	1249.677	1157.124
863.977	18.496	1249.132	1156.082
864.991	18.547	1248.718	1155.909
866.006	18.464	1248.714	1155.204
867.020	18.653	1247.022	1154.775
868.035	18.462	1245.554	1151.986
869.049	18.755	1244.587	1152.935
870.064	18.808	1243.595	1152.233
871.079	18.590	1243.129	1150.193
872.093	18.610	1242.552	1149.660
873.108	18.754	1241.684	1149.684
874.122	18.727	1240.337	1148.123
875.137	18.545	1240.653	1147.053
876.152	18.776	1239.597	1147.486
877.166	18.758	1237.568	1145.356
878.181	18.694	1236.290	1143.606
879.195	18.625	1235.762	1142.522
880.210	18.528	1235.500	1141.490
881.225	18.754	1233.651	1141.155
882.239	18.794	1232.855	1140.551
883.254	18.699	1232.243	1139.216
884.268	18.750	1230.913	1138.186
885.283	18.744	1229.684	1136.873
886.298	18.595	1228.219	1134.397
887.312	18.623	1227.460	1133.745
888.327	18.604	1226.333	1132.436
889.341	18.718	1224.862	1131.704
890.356	18.668	1224.011	1130.446
891.371	18.559	1223.594	1129.206
892.385	18.482	1223.792	1128.747
893.400	18.657	1222.735	1128.791
894.414	18.735	1221.454	1127.992
895.429	18.597	1219.721	1125.345
896.444	18.369	1218.383	1122.472
897.458	18.356	1217.223	1121.183
898.473	18.569	1215.644	1120.996
899.487	18.546	1215.433	1120.514
900.502	18.639	1214.541	1120.167
901.517	18.791	1213.097	1119.702
902.531	18.651	1212.670	1118.256
903.546	18.711	1212.185	1118.065
904.560	18.818	1210.506	1117.084
905.575	18.757	1210.408	1116.459
906.589	18.778	1209.428	1115.559
907.604	18.801	1208.598	1114.812
