DTS Sentinel unit serial number:	SN409020Multiplexer serial number:	ORYXHardware model number:	OX4-SRSoftware version number:	ORYX F/W v3.00 Oryx Data Collector v3.7.2.0data status	okinstallation	HaddamTimeLapsedifferential loss correction	single-endedforward channel	channel 3reverse channel	N/Adate	2011/06/22time	06:41:17forward acquisition time	30.00reverse acquisition time	0.00gamma	498.7831k internal	0.1752k external	0.1752temperature offset calibration	1.0074default loss term (dB/km)	0.3790temperature slope calibration	1.3530multiplexer offset coefficient	1.0000multiplexer slope coefficient	1.0000fibre end	0.00T internal ref (°C)	22.66T ext. ref 1 (°C)	18.61T ext. ref 2 (°C)	0.21length (m)	temperature (°C)	Stokes	anti-Stokes-747.200	-137.480	-0.327	-0.049
-746.185	-200.000	-0.003	-0.258
-745.171	-152.999	-0.393	-0.036
-744.156	-4.875	0.507	0.464
-743.142	254.696	-0.159	-0.363
-742.127	78.594	0.244	0.347
-741.112	-48.522	-0.217	-0.138
-740.098	-86.104	0.188	0.077
-739.083	-200.000	-0.012	-0.384
-738.069	10.443	0.205	0.207
-737.054	-124.637	-0.127	0.026
-736.039	-142.183	-0.489	-0.064
-735.025	-185.617	-0.337	0.007
-734.010	87.865	0.164	0.242
-732.996	123.208	0.019	0.032
-731.981	139.891	-0.176	-0.309
-730.966	34.470	0.198	0.229
-729.952	-45.398	-0.622	0.408
-728.937	-126.871	-0.177	-0.034
-727.923	33.218	0.377	0.434
-726.908	-24.198	0.018	-0.014
-725.894	209.783	0.158	-0.329
-724.879	60.844	-0.128	0.169
-723.864	800.000	0.112	0.492
-722.850	-150.319	-0.469	-0.047
-721.835	-156.924	0.290	-0.023
-720.821	-109.251	-0.238	-0.067
-719.806	364.323	0.149	-0.399
-718.791	-70.672	-0.228	-0.114
-717.777	800.000	-0.067	-0.281
-716.762	389.794	0.236	-0.653
-715.748	-105.497	-0.541	-0.162
-714.733	-73.309	0.366	0.177
-713.718	-27.476	-0.096	0.074
-712.704	800.000	0.025	0.142
-711.689	185.120	-0.031	-0.062
-710.675	-145.963	0.507	0.059
-709.660	-50.550	0.221	0.138
-708.645	-200.000	-0.000	-0.208
-707.631	486.758	0.118	-0.360
-706.616	-50.877	-0.558	-0.346
-705.602	68.349	-0.395	-0.537
-704.587	-102.252	-0.262	-0.083
-703.572	-49.427	-0.272	0.172
-702.558	64.158	0.118	-0.158
-701.543	368.343	0.122	-0.329
-700.529	-109.785	0.120	0.033
-699.514	-14.762	0.057	-0.048
-698.499	800.000	-0.116	0.563
-697.485	72.609	-0.140	0.194
-696.470	425.101	-0.055	0.159
-695.456	-200.000	0.016	0.182
-694.441	357.941	0.108	0.286
-693.426	-150.884	-0.101	0.010
-692.412	138.626	0.213	-0.372
-691.397	262.676	-0.095	-0.220
-690.383	-103.239	-0.507	-0.158
-689.368	-7.439	0.369	-0.331
-688.354	657.999	0.100	0.342
-687.339	800.000	-0.047	0.250
-686.324	300.663	-0.120	-0.295
-685.310	-100.996	-0.295	-0.095
-684.295	-200.000	-0.043	-0.287
-683.281	-170.917	-0.464	0.021
-682.266	75.293	0.334	-0.467
-681.251	98.902	0.119	-0.182
-680.237	375.792	-0.112	-0.304
-679.222	40.112	-0.140	0.167
-678.208	-200.000	-0.002	-0.147
-677.193	-81.964	0.310	0.134
-676.178	-102.666	0.219	0.069
-675.164	-88.084	-0.236	-0.093
-674.149	88.047	0.116	-0.170
-673.135	-200.000	-0.026	0.181
-672.120	-200.000	-0.049	0.399
-671.105	370.844	0.162	0.436
-670.091	-38.937	-0.344	-0.239
-669.076	800.000	-0.093	0.500
-668.062	159.495	0.145	0.268
-667.047	800.000	0.046	0.191
-666.032	-117.156	-0.279	-0.067
-665.018	-18.304	0.311	0.257
-664.003	-200.000	0.018	-0.277
-662.989	-147.591	0.467	-0.051
-661.974	-115.949	-0.048	-0.012
-660.959	-200.000	0.104	-0.627
-659.945	83.159	0.117	-0.169
-658.930	-19.265	-0.153	0.126
-657.916	109.762	0.080	0.127
-656.901	145.722	-0.062	-0.109
-655.886	124.737	0.171	-0.285
-654.872	-126.902	-0.418	0.081
-653.857	-80.404	-0.178	-0.078
-652.843	161.418	-0.139	0.259
-651.828	-200.000	0.025	0.237
-650.814	-194.999	-0.425	0.004
-649.799	25.234	0.313	0.344
-648.784	-172.007	-0.439	0.019
-647.770	-109.520	-0.693	0.192
-646.755	-11.380	-0.285	0.248
-645.741	68.211	-0.278	-0.378
-644.726	-165.834	0.334	0.019
-643.711	-90.882	-0.065	-0.024
-642.697	-91.143	-0.215	-0.081
-641.682	-200.000	-0.009	0.202
-640.668	104.368	-0.056	0.088
-639.653	-200.000	-0.008	-0.113
-638.638	-130.294	-0.647	-0.115
-637.624	100.508	0.087	0.134
-636.609	267.587	-0.070	0.162
-635.595	-26.977	0.296	0.228
-634.580	-59.885	-0.428	-0.241
-633.565	800.000	-0.065	-0.337
-632.551	-200.000	0.060	0.366
-631.536	-24.694	0.147	-0.116
-630.522	-93.591	0.177	0.064
-629.507	436.893	0.044	-0.128
-628.492	-141.549	-0.280	-0.037
-627.478	-161.439	0.208	-0.014
-626.463	84.589	-0.124	0.180
-625.449	-167.408	0.456	-0.024
-624.434	265.068	-0.054	0.124
-623.419	-36.649	-0.174	-0.123
-622.405	-87.193	-0.308	-0.123
-621.390	800.000	0.021	0.092
-620.376	-81.021	-0.069	-0.030
-619.361	144.513	-0.168	-0.297
-618.346	-179.971	0.170	0.005
-617.332	-132.956	-0.401	-0.067
-616.317	85.574	0.208	-0.303
-615.303	77.952	0.103	-0.145
-614.288	386.888	-0.100	0.273
-613.273	132.476	-0.245	0.418
-612.259	-36.124	0.515	0.367
-611.244	-173.154	-0.342	-0.014
-610.230	-200.000	0.033	-0.451
-609.215	462.918	0.160	-0.474
-608.201	-114.918	-0.379	0.095
-607.186	508.839	-0.076	-0.233
-606.171	-95.346	0.126	0.044
-605.157	-125.315	0.558	0.112
-604.142	136.117	-0.256	0.442
-603.128	-52.720	-0.205	-0.124
-602.113	7.340	0.161	-0.159
-601.098	-132.014	-0.158	0.027
-600.084	145.728	-0.207	-0.367
-599.069	79.206	-0.094	-0.134
-598.055	179.053	0.356	0.689
-597.040	-109.449	0.220	-0.061
-596.025	196.504	0.047	0.095
-595.011	149.564	-0.238	-0.427
-593.996	147.215	-0.181	0.323
-592.982	343.713	-0.131	0.340
-591.967	-100.584	-0.578	0.187
-590.952	-81.196	-0.372	0.161
-589.938	-200.000	0.042	0.354
-588.923	216.737	-0.141	0.298
-587.909	39.618	-0.167	0.198
-586.894	447.506	0.205	-0.599
-585.879	-30.932	0.217	-0.161
-584.865	485.692	0.070	-0.211
-583.850	-197.338	-0.213	-0.002
-582.836	-45.533	0.162	0.106
-581.821	108.672	0.193	-0.305
-580.806	-56.044	-0.282	0.165
-579.792	-103.757	-0.486	0.149
-578.777	-99.304	-0.153	0.051
-577.763	-70.170	-0.278	0.139
-576.748	-80.898	-0.096	-0.042
-575.733	320.450	-0.264	-0.665
-574.719	-200.000	-0.043	0.338
-573.704	1.205	-0.090	0.085
-572.690	45.915	-0.125	0.153
-571.675	55.735	0.164	0.210
-570.661	-45.542	-0.344	0.224
-569.646	278.079	0.236	-0.557
-568.631	-179.279	0.128	0.004
-567.617	218.544	0.013	0.028
-566.602	-6.322	-0.261	0.235
-565.588	-200.000	0.002	0.202
-564.573	-141.899	-0.719	0.094
-563.558	-200.000	0.016	-0.104
-562.544	800.000	0.045	0.240
-561.529	-37.783	0.359	-0.251
-560.515	125.977	-0.439	-0.733
-559.500	75.133	-0.133	-0.185
-558.485	-44.280	-0.363	0.240
-557.471	229.815	0.227	0.490
-556.456	29.387	0.204	0.228
-555.442	-58.224	-0.265	-0.152
-554.427	-26.505	0.227	0.175
-553.412	48.261	-0.015	0.018
-552.398	3.014	0.408	-0.391
-551.383	-200.000	-0.094	-0.734
-550.369	-58.602	-0.191	-0.109
-549.354	204.068	0.220	-0.450
-548.339	-200.000	-0.003	-0.097
-547.325	-159.823	-0.592	-0.042
-546.310	7.077	-0.230	-0.226
-545.296	108.363	0.058	0.092
-544.281	-36.333	0.242	-0.172
-543.266	-144.743	-0.151	0.018
-542.252	-200.000	-0.003	-0.074
-541.237	131.268	-0.033	-0.056
-540.223	-35.679	-0.192	-0.137
-539.208	-160.868	-0.619	-0.042
-538.193	-87.890	0.391	-0.154
-537.179	45.598	0.161	0.196
-536.164	225.122	-0.142	0.304
-535.150	-43.116	0.545	-0.363
-534.135	-24.778	0.217	-0.169
-533.121	49.155	-0.166	-0.206
-532.106	-200.000	-0.014	-0.084
-531.091	800.000	-0.044	0.165
-530.077	-200.000	-0.008	-0.160
-529.062	800.000	-0.069	0.289
-528.048	-141.782	-0.251	-0.033
-527.033	-98.504	-0.292	-0.098
-526.018	-147.631	-0.249	-0.027
-525.004	800.000	-0.090	-0.487
-523.989	-30.076	0.286	0.214
-522.975	-200.000	-0.041	-0.569
-521.960	-200.000	0.020	-0.517
-520.945	23.146	-0.134	-0.145
-519.931	-200.000	-0.046	-0.409
-518.916	258.386	0.187	-0.426
-517.902	246.119	0.076	0.170
-516.887	56.355	-0.082	-0.105
-515.872	-200.000	0.003	-0.345
-514.858	484.678	-0.187	-0.563
-513.843	800.000	0.051	-0.265
-512.829	140.728	0.028	-0.048
-511.814	-200.000	-0.007	-0.104
-510.799	-68.340	-0.350	0.178
-509.785	800.000	-0.026	-0.106
-508.770	-56.101	0.267	-0.156
-507.756	-108.104	0.202	-0.057
-506.741	-9.514	0.076	0.066
-505.726	25.223	-0.367	0.401
-504.712	499.093	-0.039	0.119
-503.697	-116.454	-0.112	0.027
-502.683	69.600	-0.141	0.191
-501.668	180.219	-0.196	-0.379
-500.653	800.000	-0.053	0.294
-499.639	-200.000	-0.011	-0.065
-498.624	353.304	-0.086	-0.226
-497.610	-26.417	-0.251	0.194
-496.595	-25.065	0.145	-0.113
-495.581	50.917	-0.112	0.139
-494.566	-105.670	0.185	-0.055
-493.551	-14.855	0.320	-0.270
-492.537	30.951	0.145	-0.164
-491.522	-64.100	-0.164	0.088
-490.508	-200.000	-0.017	0.190
-489.493	102.536	0.205	-0.315
-488.478	-169.190	0.455	0.022
-487.464	-92.222	0.177	-0.065
-486.449	61.046	-0.170	0.223
-485.435	-86.736	0.419	0.168
-484.420	-106.298	0.103	-0.030
-483.405	38.707	-0.215	-0.252
-482.391	-37.890	0.383	-0.267
-481.376	479.298	0.036	-0.109
-480.362	-200.000	0.000	-0.202
-479.347	800.000	0.010	-0.055
-478.332	271.676	0.069	-0.160
-477.318	-152.669	0.090	-0.008
-476.303	-23.497	0.150	0.118
-475.289	-88.615	-0.618	-0.241
-474.274	-124.573	-0.298	0.060
-473.259	800.000	-0.040	0.190
-472.245	-6.161	-0.406	0.364
-471.230	57.441	-0.275	0.353
-470.216	149.991	0.224	0.399
-469.201	-200.000	-0.030	0.594
-468.186	48.020	0.175	-0.215
-467.172	-200.000	-0.011	-0.065
-466.157	-163.044	0.191	-0.012
-465.143	114.786	-0.085	0.137
-464.128	38.744	0.260	-0.305
-463.113	-112.926	0.277	-0.071
-462.099	-48.727	0.138	-0.087
-461.084	128.958	0.163	-0.273
-460.070	160.365	0.164	0.302
-459.055	-200.000	0.030	0.313
-458.040	23.453	-0.229	0.247
-457.026	-130.378	-0.399	0.070
-456.011	0.097	-0.143	-0.134
-454.997	-200.000	-0.069	0.543
-453.982	800.000	-0.015	-0.072
-452.968	800.000	0.047	0.226
-451.953	-105.258	-0.032	0.010
-450.938	95.721	-0.164	-0.247
-449.924	-20.181	0.101	0.081
-448.909	560.737	0.079	-0.251
-447.895	-108.484	-0.347	-0.097
-446.880	132.489	-0.185	0.314
-445.865	250.310	-0.334	-0.746
-444.851	200.812	-0.119	0.241
-443.836	360.529	0.116	0.307
-442.822	-200.000	0.003	-0.515
-441.807	76.823	0.137	-0.190
-440.792	-116.729	-0.062	0.015
-439.778	800.000	0.098	0.442
-438.763	-66.534	-0.307	0.159
-437.749	62.050	-0.148	0.194
-436.734	-65.647	0.144	0.076
-435.719	-43.587	0.273	-0.180
-434.705	-60.966	-0.133	-0.073
-433.690	-200.000	-0.062	0.743
-432.676	-105.466	0.334	0.099
-431.661	286.693	0.292	0.695
-430.646	-126.172	0.586	0.114
-429.632	261.654	0.097	-0.222
-428.617	107.942	-0.264	-0.414
-427.603	-200.000	-0.042	-0.286
-426.588	341.621	-0.082	0.210
-425.573	-200.000	-0.001	0.101
-424.559	-4.613	0.518	0.469
-423.544	591.635	0.118	-0.384
-422.530	-200.000	-0.002	0.022
-421.515	119.921	0.313	0.510
-420.500	27.307	-0.056	0.062
-419.486	-65.433	-0.238	0.125
-418.471	-200.000	-0.067	-0.478
-417.457	76.122	0.210	-0.292
-416.442	-151.230	-0.256	-0.025
-415.428	-81.335	0.506	-0.218
-414.413	199.788	0.146	-0.295
-413.398	-22.716	0.244	-0.193
-412.384	52.589	0.307	0.384
-411.369	-200.000	0.040	-0.416
-410.355	-144.203	0.157	0.019
-409.340	-38.276	-0.385	-0.267
-408.325	-20.953	0.107	0.086
-407.311	-44.098	-0.175	0.115
-406.296	-110.689	-0.283	-0.076
-405.282	-136.112	0.424	-0.064
-404.267	-86.411	-0.211	0.085
-403.252	-200.000	-0.022	0.157
-402.238	13.837	-0.319	0.325
-401.223	-112.658	0.204	-0.053
-400.209	-149.519	0.545	0.056
-399.194	-32.413	-0.171	-0.125
-398.179	12.381	0.158	0.159
-397.165	8.168	0.409	0.402
-396.150	47.377	0.222	0.271
-395.136	-9.740	0.192	-0.167
-394.121	-200.000	0.005	0.416
-393.106	-27.695	-0.255	-0.193
-392.092	-148.107	0.187	-0.020
-391.077	-200.000	0.011	-0.260
-390.063	-200.000	0.006	0.245
-389.048	-37.813	-0.361	-0.251
-388.033	-128.891	-0.166	0.030
-387.019	-138.191	0.665	0.096
-386.004	-137.796	0.362	0.053
-384.990	-108.635	-0.036	-0.010
-383.975	-200.000	-0.010	0.157
-382.960	-54.758	-0.046	0.027
-381.946	-200.000	-0.019	0.294
-380.931	259.547	0.098	0.221
-379.917	198.751	0.164	0.330
-378.902	-200.000	-0.052	-0.424
-377.888	75.431	0.304	-0.421
-376.873	-200.000	0.013	-0.451
-375.858	94.638	-0.236	-0.352
-374.844	-129.878	-0.062	0.011
-373.829	127.577	-0.204	0.340
-372.815	-137.273	-0.407	-0.060
-371.800	-103.562	-0.383	0.117
-370.785	-40.318	-0.071	-0.049
-369.771	800.000	0.125	0.571
-368.756	81.373	-0.245	-0.347
-367.742	-200.000	-0.008	0.112
-366.727	-37.116	-0.275	0.192
-365.712	191.352	0.246	-0.487
-364.698	-123.227	0.404	0.084
-363.683	-180.999	0.225	0.006
-362.669	-136.976	0.485	0.072
-361.654	353.839	0.117	-0.305
-360.639	-175.737	0.060	0.002
-359.625	161.134	0.216	-0.397
-358.610	800.000	-0.052	-0.235
-357.596	-59.669	-0.292	-0.163
-356.581	29.581	0.339	0.377
-355.566	158.495	-0.196	-0.358
-354.552	-143.367	0.162	0.020
-353.537	-154.184	0.300	0.026
-352.523	324.231	-0.100	0.250
-351.508	180.910	-0.116	-0.223
-350.493	-165.136	-0.342	0.020
-349.479	-200.000	0.021	-0.146
-348.464	307.823	-0.088	0.216
-347.450	740.585	-0.041	0.144
-346.435	-96.508	-0.200	0.069
-345.420	-75.271	-0.423	0.197
-344.406	-1.413	0.302	-0.279
-343.391	-126.426	0.558	0.108
-342.377	3.301	0.335	-0.318
-341.362	139.734	0.257	0.444
-340.348	579.450	0.138	-0.444
-339.333	-200.000	-0.016	-0.533
-338.318	800.000	-0.065	0.259
-337.304	348.869	-0.079	0.204
-336.289	-123.419	-0.435	-0.090
-335.275	261.413	0.139	-0.315
-334.260	135.094	-0.125	0.214
-333.245	2.744	0.226	-0.214
-332.231	-200.000	-0.077	0.458
-331.216	-107.026	-0.387	-0.111
-330.202	-104.081	0.222	0.067
-329.187	319.337	-0.039	0.097
-328.172	800.000	-0.006	0.027
-327.158	800.000	-0.082	0.428
-326.143	-55.796	0.109	0.064
-325.129	202.489	-0.089	-0.180
-324.114	-111.709	0.121	-0.032
-323.099	327.196	-0.100	0.252
-322.085	800.000	0.033	-0.170
-321.070	800.000	0.112	-0.536
-320.056	-50.143	0.027	0.017
-319.041	-96.440	-0.204	-0.070
-318.026	800.000	0.099	0.372
-317.012	194.150	0.147	0.291
-315.997	173.069	-0.172	0.325
-314.983	194.601	-0.032	-0.063
-313.968	-148.998	0.289	0.030
-312.953	241.502	-0.131	-0.287
-311.939	-122.051	-0.297	-0.063
-310.924	-108.704	-0.176	-0.049
-309.910	65.094	-0.186	-0.246
-308.895	610.368	0.093	0.304
-307.880	182.658	-0.094	0.181
-306.866	-14.767	0.176	0.147
-305.851	-115.749	0.407	0.099
-304.837	781.379	0.113	-0.406
-303.822	129.178	0.128	-0.213
-302.807	11.263	-0.285	0.284
-301.793	100.561	-0.263	-0.399
-300.778	94.717	0.186	0.277
-299.764	0.817	0.084	-0.079
-298.749	50.913	0.181	-0.223
-297.735	-59.426	0.335	-0.187
-296.720	-200.000	-0.003	-0.354
-295.705	-49.963	0.071	0.044
-294.691	-146.016	-0.199	-0.023
-293.676	46.697	0.279	-0.339
-292.662	800.000	-0.052	-0.268
-291.647	151.217	0.182	0.324
-290.632	60.823	0.025	-0.032
-289.618	485.227	0.127	0.379
-288.603	-180.383	0.342	0.009
-287.589	-54.472	-0.517	0.304
-286.574	62.410	0.124	0.162
-285.559	-181.199	-0.554	-0.014
-284.545	-200.000	-0.031	-0.258
-283.530	-200.000	-0.024	0.209
-282.516	-167.966	-0.176	-0.009
-281.501	-93.028	0.264	0.095
-280.486	-129.574	-0.104	0.018
-279.472	23.811	0.085	-0.091
-278.457	2.547	0.366	-0.345
-277.443	-160.118	0.376	-0.026
-276.428	-40.317	0.259	0.175
-275.413	-61.463	0.092	0.050
-274.399	-34.960	0.250	-0.178
-273.384	-200.000	0.004	-0.312
-272.370	-43.274	0.401	-0.264
-271.355	-61.573	-0.425	0.232
-270.340	-43.287	-0.348	-0.229
-269.326	-44.092	-0.245	0.160
-268.311	-200.000	0.039	-0.308
-267.297	54.746	-0.493	0.621
-266.282	-6.377	-0.330	0.293
-265.267	-53.391	0.341	0.203
-264.253	-139.231	-0.233	0.032
-263.238	-5.231	-0.195	0.175
-262.224	42.543	-0.265	0.314
-261.209	-192.711	-0.050	0.001
-260.195	800.000	-0.102	0.498
-259.180	-113.987	0.197	0.049
-258.165	-200.000	0.005	0.267
-257.151	800.000	0.047	0.176
-256.136	494.299	-0.066	0.197
-255.122	800.000	-0.069	0.375
-254.107	67.131	-0.128	-0.170
-253.092	149.487	-0.259	0.458
-252.078	-200.000	0.007	-0.217
-251.063	-101.146	0.431	0.136
-250.049	-128.421	0.351	0.064
-249.034	-33.976	-0.423	-0.302
-248.019	433.406	0.022	0.061
-247.005	-135.145	0.199	-0.031
-245.990	-98.459	0.134	-0.044
-244.976	29.768	0.100	-0.111
-243.961	-200.000	0.297	0.000
-242.946	-123.755	-0.132	0.027
-241.932	-38.966	0.143	0.098
-240.917	-126.388	0.479	-0.092
-239.903	53.689	0.192	-0.240
-238.888	-141.523	-0.126	-0.016
-237.873	800.000	-0.136	0.597
-236.859	84.412	0.269	0.383
-235.844	157.995	0.119	0.215
-234.830	-144.385	-0.279	0.033
-233.815	-67.262	0.195	0.100
-232.800	-57.148	-0.215	-0.123
-231.786	-163.936	0.484	-0.029
-230.771	-101.363	0.235	0.074
-229.757	-156.872	0.218	0.017
-228.742	-16.992	-0.367	-0.301
-227.727	-131.424	0.514	-0.088
-226.713	32.472	0.277	0.311
-225.698	-77.173	-0.385	0.174
-224.684	-130.411	0.150	-0.026
-223.669	18.048	0.113	-0.117
-222.655	-200.000	0.027	0.227
-221.640	-114.352	0.278	0.069
-220.625	684.932	-0.087	-0.296
-219.611	-23.086	-0.065	0.051
-218.596	-168.050	0.503	0.025
-217.582	-102.037	-0.235	0.073
-216.567	800.000	-0.096	0.352
-215.552	212.630	-0.249	0.512
-214.538	-85.133	0.132	-0.053
-213.523	137.119	-0.126	-0.214
-212.509	-57.464	0.237	0.135
-211.494	339.514	-0.074	0.187
-210.479	-200.000	-0.043	0.281
-209.465	-200.000	-0.037	0.304
-208.450	800.000	0.111	-0.486
-207.436	390.577	0.114	-0.309
-206.421	133.922	-0.233	0.393
-205.406	-200.000	0.186	0.001
-204.392	-117.439	-0.019	-0.005
-203.377	426.939	0.116	0.326
-202.363	-169.038	0.347	0.017
-201.348	800.000	-0.056	0.303
-200.333	-130.745	-0.121	-0.021
-199.319	-48.253	0.291	0.182
-198.304	-105.157	-0.304	-0.090
-197.290	800.000	0.077	0.438
-196.275	-112.631	-0.216	-0.056
-195.260	130.627	0.129	0.215
-194.246	-9.544	0.213	0.185
-193.231	398.857	-0.133	-0.365
-192.217	127.857	-0.161	-0.267
-191.202	-184.966	0.248	0.005
-190.187	138.580	-0.203	-0.348
-189.173	-200.000	-0.046	-0.538
-188.158	-92.749	0.351	-0.127
-187.144	-48.386	-0.138	-0.086
-186.129	450.587	-0.161	-0.463
-185.114	260.428	-0.237	0.534
-184.100	-79.957	0.300	0.130
-183.085	-200.000	-0.027	-0.671
-182.071	-7.687	-0.134	0.118
-181.056	289.395	-0.131	-0.311
-180.042	334.862	0.047	0.119
-179.027	-200.000	-0.007	0.232
-178.012	157.916	-0.132	0.239
-176.998	-53.111	0.088	-0.052
-175.983	109.490	-0.214	0.334
-174.969	-118.302	0.152	0.035
-173.954	379.160	-0.150	-0.400
-172.939	-97.368	-0.342	-0.115
-171.925	-122.030	-0.105	-0.022
-170.910	-33.022	0.157	0.113
-169.896	-200.000	-0.029	0.372
-168.881	-91.877	0.196	-0.072
-167.866	-159.316	0.144	0.010
-166.852	48.910	0.106	0.129
-165.837	112.395	0.052	-0.081
-164.823	233.228	-0.156	0.334
-163.808	-156.430	0.399	-0.032
-162.793	173.667	0.117	-0.220
-161.779	32.289	-0.209	-0.234
-160.764	118.484	-0.266	-0.427
-159.750	-72.579	0.270	0.129
-158.735	-118.072	-0.189	0.043
-157.720	-89.127	0.457	0.174
-156.706	229.473	-0.113	-0.240
-155.691	-42.472	0.049	-0.033
-154.677	14.315	0.413	0.418
-153.662	-141.649	-0.164	0.021
-152.647	222.137	0.056	-0.116
-151.633	-200.000	0.082	-0.610
-150.618	248.813	0.136	-0.299
-149.604	-1.310	-0.257	0.235
-148.589	-71.024	0.243	-0.118
-147.574	207.637	-0.063	0.127
-146.560	98.119	0.362	0.542
-145.545	800.000	0.118	0.445
-144.531	-7.908	0.027	-0.024
-143.516	-91.345	0.211	-0.078
-142.502	291.647	0.139	-0.330
-141.487	72.749	-0.193	-0.262
-140.472	101.971	0.092	0.140
-139.458	-200.000	0.037	0.222
-138.443	-39.841	0.176	0.119
-137.429	-200.000	0.003	-0.197
-136.414	-17.569	0.312	-0.254
-135.399	-133.454	0.602	-0.097
-134.385	38.536	-0.220	0.255
-133.370	-200.000	-0.046	-0.595
-132.356	-95.396	0.475	0.164
-131.341	258.151	0.020	-0.044
-130.326	581.692	-0.118	0.378
-129.312	-80.032	-0.407	-0.176
-128.297	-200.000	0.333	0.002
-127.283	-141.368	-0.183	0.024
-126.268	11.696	0.180	0.179
-125.253	-200.000	-0.106	-0.629
-124.239	55.093	-0.184	0.230
-123.224	-21.831	0.089	-0.070
-122.210	685.429	-0.209	0.712
-121.195	-30.984	-0.384	-0.280
-120.180	151.322	0.128	0.226
-119.166	-37.234	0.138	-0.095
-118.151	-139.336	-0.312	-0.043
-117.137	800.000	0.118	0.440
-116.122	-83.341	0.646	0.267
-115.107	279.639	-0.148	-0.344
-114.093	-37.615	-0.523	0.360
-113.078	-120.017	-0.171	0.038
-112.064	800.000	0.049	0.219
-111.049	-200.000	-0.185	-0.001
-110.034	204.052	0.070	0.142
-109.020	-66.191	-0.567	-0.291
-108.005	207.567	0.079	0.160
-106.991	-112.174	0.263	0.068
-105.976	-115.362	0.053	-0.013
-104.962	-200.000	0.043	-0.337
-103.947	-186.528	-0.271	-0.005
-102.932	24.993	-0.122	-0.131
-101.918	343.456	0.099	0.253
-100.903	100.728	0.069	-0.104
-99.889	-200.000	0.010	-0.305
-98.874	800.000	0.040	-0.201
-97.859	547.135	-0.108	0.336
-96.845	310.926	-0.114	-0.278
-95.830	160.761	0.152	-0.276
-94.816	87.244	-0.079	-0.113
-93.801	800.000	-0.060	0.338
-92.786	-200.000	0.001	-0.035
-91.772	97.173	0.358	0.533
-90.757	-25.642	0.386	0.294
-89.743	181.347	0.171	0.326
-88.728	-200.000	-0.016	-0.228
-87.713	153.154	-0.306	0.544
-86.699	-26.860	-0.382	-0.288
-85.684	-125.601	-0.191	-0.037
-84.670	-166.372	0.445	0.024
-83.655	-82.736	0.367	-0.153
-82.640	-40.898	-0.252	-0.169
-81.626	800.000	0.028	0.125
-80.611	-200.000	0.019	0.179
-79.597	499.209	-0.155	-0.463
-78.582	-200.000	-0.002	-0.499
-77.567	-112.284	-0.419	0.108
-76.553	-98.053	-0.747	-0.247
-75.538	-200.000	0.041	0.293
-74.524	-200.000	0.032	-0.223
-73.509	-130.952	0.333	0.057
-72.494	-0.330	-0.262	0.240
-71.480	-110.035	-0.380	0.102
-70.465	-200.000	-0.015	-0.202
-69.451	142.226	0.404	0.695
-68.436	-200.000	-0.045	0.759
-67.422	191.693	0.098	-0.191
-66.407	43.163	-0.348	0.411
-65.392	-168.412	0.164	-0.008
-64.378	-54.905	-0.146	0.085
-63.363	-148.598	0.370	-0.038
-62.349	104.943	0.137	-0.210
-61.334	43.694	-2.055	-2.433
-60.319	26.425	1.226	1.326
-59.305	227.850	-3.762	-7.943
-58.290	85.597	3.508	4.990
-57.276	361.817	3.881	10.107
-56.261	-200.000	23.861	319.834
-55.246	359.522	1296.661	3367.260
-54.232	53.593	2838.651	3523.453
-53.217	51.728	2658.379	3270.777
-52.203	32.007	2389.147	2661.753
-51.188	27.861	2054.138	2237.485
-50.173	24.479	1941.665	2075.450
-49.159	23.364	1929.404	2049.299
-48.144	22.979	1925.251	2040.344
-47.130	23.038	1922.295	2037.807
-46.115	22.864	1920.805	2034.136
-45.100	22.895	1919.239	2032.750
-44.086	22.884	1917.647	2030.861
-43.071	22.943	1915.782	2029.483
-42.057	22.766	1915.028	2026.562
-41.042	22.809	1913.163	2025.008
-40.027	22.948	1910.905	2024.141
-39.013	22.934	1910.079	2023.021
-37.998	22.800	1908.974	2020.231
-36.984	22.820	1908.535	2019.910
-35.969	22.754	1907.201	2017.664
-34.954	22.830	1904.989	2016.114
-33.940	22.870	1904.346	2015.813
-32.925	22.726	1903.210	2012.878
-31.911	22.868	1901.197	2012.301
-30.896	22.836	1900.037	2010.628
-29.881	22.783	1899.828	2009.715
-28.867	22.709	1897.737	2006.578
-27.852	22.648	1896.372	2004.360
-26.838	22.536	1895.139	2001.693
-25.823	22.581	1894.008	2000.940
-24.809	22.531	1893.183	1999.416
-23.794	22.638	1891.054	1998.309
-22.779	22.708	1889.016	1996.876
-21.765	22.619	1888.190	1994.910
-20.750	22.665	1887.023	1994.117
-19.736	22.723	1886.222	1993.847
-18.721	22.518	1885.612	1990.794
-17.706	22.702	1883.658	1990.743
-16.692	22.523	1883.058	1987.994
-15.677	22.615	1880.882	1986.671
-14.663	22.569	1880.598	1985.762
-13.648	22.503	1878.695	1982.932
-12.633	22.645	1877.078	1982.745
-11.619	22.519	1876.568	1980.709
-10.604	22.494	1875.216	1978.922
-9.590	22.611	1873.513	1978.363
-8.575	22.596	1871.939	1976.462
-7.560	22.522	1871.635	1975.220
-6.546	22.490	1870.801	1973.902
-5.531	22.637	1869.052	1973.637
-4.517	22.471	1868.807	1971.429
-3.502	22.520	1866.860	1969.846
-2.487	22.585	1865.526	1969.096
-1.473	22.776	1862.007	1967.442
-0.458	22.439	1844.284	1944.899
0.556	19.325	1990.992	2050.171
1.571	18.192	2193.962	2243.971
2.586	18.951	2233.304	2294.119
3.600	19.039	2235.441	2297.219
4.615	19.091	2234.554	2296.731
5.629	18.924	2233.859	2293.505
6.644	18.903	2231.369	2290.392
7.659	18.959	2229.069	2288.496
8.673	19.074	2227.310	2287.954
9.688	18.666	2236.326	2291.472
10.702	17.792	2315.369	2360.029
11.717	16.351	2379.080	2404.079
12.731	7.809	2360.022	2262.833
13.746	1.213	2341.079	2150.630
14.761	0.144	2337.843	2132.190
15.775	0.013	2336.372	2128.722
16.790	-0.002	2335.107	2127.100
17.804	-0.047	2334.046	2125.250
18.819	0.029	2331.822	2124.043
19.834	0.104	2329.320	2122.568
20.848	0.046	2329.083	2121.288
21.863	0.029	2327.099	2118.985
22.877	-0.031	2325.061	2116.023
23.892	-0.010	2323.543	2114.686
24.907	0.015	2320.613	2112.124
25.921	0.015	2319.231	2110.600
26.936	-0.021	2317.239	2108.034
27.950	0.019	2314.554	2105.896
28.965	0.056	2312.333	2104.155
29.980	0.029	2310.794	2102.113
30.994	0.045	2308.756	2100.235
32.009	4.240	2322.060	2171.211
33.023	13.929	2350.741	2335.272
34.038	18.173	2357.715	2401.952
35.053	18.597	2355.628	2405.522
36.067	18.655	2352.758	2403.113
37.082	18.644	2350.816	2400.695
38.096	18.669	2349.131	2399.032
39.111	18.743	2347.424	2398.043
40.126	18.820	2345.226	2396.599
41.140	18.965	2343.410	2396.487
42.155	18.685	2341.316	2390.140
43.169	18.688	2339.815	2388.354
44.184	18.638	2335.915	2383.390
45.199	18.621	2333.708	2380.620
46.213	18.680	2333.703	2381.155
47.228	18.655	2333.011	2379.818
48.242	18.747	2330.760	2378.517
49.257	18.757	2328.778	2376.348
50.271	18.832	2325.059	2373.305
51.286	18.655	2323.044	2368.505
52.301	18.533	2321.942	2365.405
53.315	18.798	2321.826	2368.680
54.330	20.075	2324.600	2388.936
55.344	20.949	2324.388	2400.543
56.359	21.029	2320.497	2397.332
57.374	21.160	2319.610	2397.943
58.388	21.305	2316.630	2396.579
59.403	21.282	2313.302	2392.524
60.417	21.152	2310.999	2388.077
61.432	21.302	2309.148	2387.932
62.447	21.325	2308.411	2387.207
63.461	21.485	2306.240	2386.869
64.476	21.589	2304.637	2386.347
65.490	21.488	2302.881	2382.862
66.505	21.113	2300.717	2375.213
67.520	20.103	2295.676	2355.932
68.534	18.909	2290.494	2334.043
69.549	18.694	2286.720	2326.989
70.563	18.846	2284.841	2326.861
71.578	18.771	2283.685	2324.389
72.593	18.995	2281.300	2324.729
73.607	19.037	2281.191	2324.906
74.622	19.121	2278.575	2323.096
75.636	18.926	2275.696	2317.245
76.651	18.855	2274.309	2314.592
77.666	18.986	2272.272	2314.017
78.680	18.968	2270.275	2311.465
79.695	18.899	2268.190	2308.134
80.709	19.031	2266.027	2307.436
81.724	18.987	2264.619	2305.138
82.739	18.936	2262.722	2302.237
83.753	18.968	2260.787	2300.424
84.768	18.886	2259.215	2297.453
85.782	18.890	2257.883	2295.874
86.797	18.773	2255.964	2292.075
87.812	18.775	2253.718	2289.552
88.826	18.848	2250.774	2287.263
89.841	18.905	2249.698	2286.650
90.855	18.811	2247.611	2283.001
91.870	18.837	2245.451	2280.880
92.884	18.720	2243.793	2277.371
93.899	18.839	2241.823	2276.681
94.914	18.961	2242.978	2279.198
95.928	20.049	2246.494	2297.016
96.943	20.584	2243.720	2301.020
97.957	19.381	2237.838	2278.744
98.972	18.774	2234.862	2267.391
99.987	18.696	2230.796	2261.965
101.001	18.682	2228.490	2259.162
102.016	18.635	2226.985	2256.750
103.030	18.681	2225.481	2255.563
104.045	18.922	2222.529	2255.475
105.060	18.963	2221.125	2254.325
106.074	19.057	2219.272	2253.409
107.089	18.733	2217.474	2247.056
108.103	18.779	2217.388	2247.305
109.118	18.902	2215.507	2246.736
110.133	19.006	2213.854	2246.164
111.147	19.072	2211.826	2244.707
112.162	19.092	2209.560	2242.397
113.176	18.927	2207.010	2237.380
114.191	18.923	2204.655	2234.672
115.206	18.823	2204.690	2233.138
116.220	19.039	2201.283	2232.236
117.235	18.827	2199.173	2227.059
118.249	18.692	2196.936	2222.781
119.264	18.805	2196.867	2223.916
120.279	18.990	2194.546	2223.702
121.293	18.693	2193.301	2218.318
122.308	18.689	2192.041	2216.723
123.322	18.743	2189.950	2215.038
124.337	18.880	2190.110	2216.718
125.352	20.234	2194.196	2238.157
126.366	20.569	2191.852	2239.837
127.381	19.253	2184.478	2215.037
128.395	18.490	2181.799	2202.210
129.410	18.711	2179.510	2202.489
130.424	18.778	2177.175	2200.722
131.439	18.717	2175.297	2197.782
132.454	18.592	2173.834	2194.430
133.468	18.714	2172.092	2193.972
134.483	18.717	2170.393	2192.042
135.497	18.672	2168.741	2189.532
136.512	18.779	2165.776	2187.642
137.527	18.895	2164.741	2187.823
138.541	18.857	2164.101	2186.422
139.556	18.675	2163.404	2183.130
140.570	18.759	2161.450	2181.971
141.585	18.706	2158.615	2178.173
142.600	18.760	2157.622	2177.601
143.614	18.797	2156.160	2176.332
144.629	18.905	2153.891	2175.155
145.643	18.801	2152.560	2172.233
146.658	18.735	2151.676	2170.237
147.673	18.722	2149.225	2167.341
148.687	18.843	2148.265	2167.656
149.702	18.837	2146.718	2165.754
150.716	18.889	2145.093	2164.516
151.731	18.876	2144.513	2163.507
152.746	18.837	2143.922	2162.160
153.760	19.006	2144.597	2164.713
154.775	20.196	2146.117	2181.044
155.789	20.418	2144.877	2182.330
156.804	19.248	2138.112	2160.439
157.819	18.730	2133.519	2149.031
158.833	18.815	2131.099	2147.402
159.848	19.018	2129.326	2147.905
160.862	19.033	2128.518	2147.029
161.877	19.061	2127.516	2146.103
162.892	19.270	2125.673	2146.613
163.906	19.154	2124.686	2143.904
164.921	19.053	2123.425	2141.112
165.935	19.029	2120.531	2137.641
166.950	19.087	2118.228	2135.786
167.964	18.902	2116.220	2131.197
168.979	18.823	2114.349	2128.079
169.994	18.897	2113.141	2127.526
171.008	18.948	2110.724	2125.468
172.023	18.905	2110.388	2124.347
173.037	18.913	2108.890	2122.683
174.052	18.852	2107.112	2119.884
175.067	18.766	2105.494	2116.935
176.081	18.768	2104.828	2116.039
177.096	18.734	2103.072	2113.594
178.110	18.665	2101.615	2111.021
179.125	18.698	2100.033	2109.592
180.140	18.817	2098.965	2109.735
181.154	18.756	2097.526	2107.286
182.169	18.611	2095.767	2103.476
183.183	18.779	2097.184	2106.717
184.198	20.219	2099.022	2126.065
185.213	20.558	2097.398	2128.336
186.227	19.347	2091.978	2107.718
187.242	18.873	2088.796	2098.438
188.256	18.833	2087.070	2095.964
189.271	18.962	2086.178	2096.399
190.286	18.867	2085.054	2093.854
191.300	18.730	2082.102	2088.967
192.315	18.736	2080.277	2086.955
193.329	18.953	2079.196	2088.272
194.344	19.117	2078.293	2089.109
195.359	19.043	2076.654	2086.311
196.373	18.919	2074.535	2082.432
197.388	18.885	2072.673	2079.893
198.402	18.958	2069.711	2077.559
199.417	18.833	2067.396	2073.475
200.432	18.877	2066.454	2072.812
201.446	19.029	2065.656	2073.611
202.461	18.763	2064.402	2068.879
203.475	18.855	2061.885	2067.218
204.490	18.829	2059.684	2064.458
205.504	18.856	2057.386	2062.226
206.519	18.713	2056.227	2059.094
207.534	18.830	2053.896	2057.928
208.548	18.833	2053.051	2056.870
209.563	18.807	2051.248	2054.499
210.577	18.695	2050.590	2052.244
211.592	18.969	2049.824	2054.533
212.607	19.429	2052.347	2062.335
213.621	20.828	2054.973	2081.554
214.636	20.360	2051.137	2071.800
215.650	19.097	2045.249	2050.495
216.665	18.899	2043.026	2045.656
217.680	19.021	2041.092	2044.927
218.694	19.111	2039.844	2044.505
219.709	18.999	2037.909	2040.986
220.723	19.031	2036.643	2039.858
221.738	18.970	2034.669	2036.915
222.753	18.963	2032.284	2034.195
223.767	18.883	2031.667	2032.385
224.782	18.849	2029.267	2029.335
225.796	18.902	2027.850	2028.303
226.811	18.957	2026.838	2027.702
227.826	19.053	2024.635	2026.393
228.840	18.998	2023.784	2024.646
229.855	18.820	2024.077	2022.585
230.869	18.924	2020.934	2020.439
231.884	18.871	2019.255	2017.891
232.899	18.887	2017.722	2016.300
233.913	18.816	2015.491	2013.001
234.928	18.863	2015.425	2013.248
235.942	18.917	2013.656	2011.877
236.957	18.785	2012.164	2008.593
237.972	18.796	2011.031	2007.348
238.986	18.923	2009.756	2007.326
240.001	18.894	2007.203	2004.193
241.015	18.673	2006.585	2000.751
242.030	18.962	2007.005	2004.311
243.045	20.163	2009.118	2020.259
244.059	20.226	2006.985	2018.608
245.074	19.165	2000.379	1999.351
246.088	18.741	1997.331	1991.118
247.103	18.640	1996.287	1988.664
248.117	18.749	1995.546	1988.953
249.132	18.946	1993.997	1989.473
250.147	18.827	1991.803	1985.658
251.161	18.625	1990.193	1981.465
252.176	18.810	1989.158	1982.348
253.190	19.077	1986.859	1982.913
254.205	19.079	1984.037	1979.880
255.220	18.805	1984.117	1976.558
256.234	18.976	1983.139	1977.326
257.249	18.919	1981.688	1974.978
258.263	18.932	1980.786	1973.995
259.278	18.925	1980.036	1972.932
260.293	19.020	1977.133	1970.896
261.307	18.889	1975.623	1967.646
262.322	18.824	1974.647	1965.696
263.336	18.788	1972.390	1962.800
264.351	18.715	1970.799	1960.139
265.366	18.778	1970.273	1960.111
266.380	19.050	1968.175	1960.903
267.395	18.718	1967.790	1956.474
268.409	18.733	1965.751	1954.389
269.424	18.877	1964.548	1954.608
270.439	18.927	1962.871	1953.277
271.453	19.320	1962.934	1957.593
272.468	20.335	1964.574	1970.582
273.482	20.372	1962.151	1968.339
274.497	19.372	1956.161	1950.727
275.512	18.924	1953.448	1942.702
276.526	18.896	1952.102	1940.813
277.541	18.891	1949.911	1938.348
278.555	18.693	1948.773	1934.733
279.570	18.786	1945.917	1932.724
280.585	18.694	1944.491	1930.036
281.599	18.880	1943.716	1931.134
282.614	18.940	1943.167	1931.033
283.628	19.045	1941.885	1930.721
284.643	18.996	1941.894	1929.944
285.657	19.398	1941.180	1933.533
286.672	19.729	1940.155	1936.009
287.687	19.348	1937.584	1928.920
288.701	19.114	1936.406	1924.887
289.716	18.977	1933.938	1920.667
290.730	18.954	1932.050	1918.307
291.745	19.255	1929.715	1919.134
292.760	18.922	1929.633	1915.091
293.774	18.765	1929.176	1912.645
294.789	19.016	1927.273	1913.341
295.803	18.842	1924.629	1908.543
296.818	18.794	1924.387	1907.536
297.833	18.590	1923.495	1904.146
298.847	18.652	1921.143	1902.286
299.862	18.702	1919.812	1901.297
300.876	18.977	1919.423	1903.740
301.891	20.219	1922.518	1920.415
302.906	20.667	1920.239	1922.890
303.920	19.478	1915.782	1905.007
304.935	19.042	1912.309	1896.494
305.949	18.888	1909.216	1891.499
306.964	18.655	1908.899	1888.382
307.979	18.755	1907.802	1888.182
308.993	18.850	1905.298	1886.525
310.008	18.877	1903.897	1885.205
311.022	18.970	1902.810	1884.931
312.037	19.160	1902.623	1886.610
313.052	19.108	1900.360	1883.574
314.066	19.002	1898.432	1880.272
315.081	19.042	1897.207	1879.270
316.095	19.390	1897.584	1883.243
317.110	19.399	1896.241	1881.774
318.125	19.051	1893.817	1875.339
319.139	19.056	1892.104	1873.466
320.154	19.149	1890.765	1872.940
321.168	19.090	1889.267	1870.589
322.183	19.069	1887.536	1868.422
323.197	19.012	1885.937	1865.988
324.212	18.793	1883.821	1861.283
325.227	18.718	1882.517	1858.955
326.241	18.837	1880.780	1858.311
327.256	18.856	1879.829	1857.364
328.270	18.814	1879.161	1856.025
329.285	18.846	1878.816	1855.805
330.300	19.303	1880.242	1861.952
331.314	20.659	1881.984	1878.184
332.329	20.450	1878.410	1872.133
333.343	19.317	1873.293	1854.562
334.358	19.065	1871.304	1849.644
335.373	18.979	1869.405	1846.619
336.387	18.980	1867.315	1844.349
337.402	18.978	1865.447	1842.257
338.416	18.783	1864.057	1838.562
339.431	18.960	1862.992	1839.200
340.446	19.128	1861.782	1839.591
341.460	19.028	1860.838	1837.360
342.475	19.193	1858.714	1836.815
343.489	19.079	1858.095	1834.766
344.504	19.126	1856.532	1833.502
345.519	19.314	1855.108	1833.884
346.533	19.281	1853.706	1831.925
347.548	19.335	1852.240	1830.833
348.562	19.289	1851.423	1829.321
349.577	19.110	1850.467	1826.242
350.592	19.204	1848.609	1825.191
351.606	19.120	1846.532	1822.038
352.621	18.842	1844.518	1816.872
353.635	18.676	1843.545	1813.936
354.650	18.617	1841.777	1811.352
355.665	18.817	1839.546	1811.056
356.679	18.615	1838.658	1807.826
357.694	18.701	1837.814	1807.696
358.708	18.684	1836.640	1806.141
359.723	19.278	1838.310	1813.855
360.738	20.664	1840.000	1829.969
361.752	20.208	1835.705	1820.665
362.767	19.079	1831.346	1804.238
363.781	18.747	1829.017	1798.232
364.796	18.713	1827.395	1796.064
365.810	18.577	1827.847	1794.866
366.825	18.670	1825.736	1793.547
367.840	18.877	1824.509	1794.306
368.854	18.752	1823.833	1792.112
369.869	18.687	1821.039	1788.476
370.883	18.521	1820.622	1786.107
371.898	18.583	1819.455	1785.399
372.913	18.801	1819.228	1787.241
373.927	18.996	1817.540	1787.406
374.942	19.014	1816.639	1786.499
375.956	19.206	1814.758	1786.433
376.971	18.943	1812.415	1781.177
377.986	18.766	1810.844	1777.583
379.000	18.700	1809.570	1775.429
380.015	18.888	1808.808	1776.422
381.029	19.096	1806.985	1776.578
382.044	19.162	1804.986	1775.087
383.059	19.035	1802.672	1771.284
384.073	18.731	1802.274	1767.535
385.088	18.727	1800.965	1765.991
386.102	18.663	1799.515	1763.702
387.117	18.602	1798.000	1761.374
388.132	18.710	1797.127	1761.421
389.146	19.197	1800.003	1769.060
390.161	20.584	1800.299	1783.446
391.175	20.532	1795.057	1777.511
392.190	19.138	1789.377	1757.385
393.205	18.621	1787.507	1750.034
394.219	18.711	1786.109	1749.381
395.234	18.734	1785.423	1748.732
396.248	18.861	1782.769	1747.216
397.263	18.726	1780.853	1743.760
398.278	18.642	1778.889	1740.765
399.292	18.634	1779.234	1740.816
400.307	18.878	1779.141	1743.007
401.321	19.068	1777.300	1742.922
402.336	19.048	1775.888	1741.131
403.350	19.085	1773.912	1739.355
404.365	19.039	1773.231	1738.020
405.380	19.284	1771.656	1738.754
406.394	19.303	1771.304	1738.390
407.409	19.137	1770.116	1735.331
408.423	19.237	1767.037	1733.115
409.438	18.999	1766.928	1730.402
410.453	18.931	1765.735	1728.334
411.467	19.066	1764.116	1727.905
412.482	18.975	1763.016	1725.706
413.496	18.987	1761.422	1724.056
414.511	18.742	1759.639	1719.644
415.526	18.702	1756.756	1716.212
416.540	18.652	1755.837	1714.613
417.555	18.641	1754.774	1713.255
418.569	18.591	1754.556	1712.333
419.584	18.705	1754.452	1713.171
420.599	18.770	1753.773	1712.957
421.613	18.764	1753.244	1712.174
422.628	18.826	1751.473	1710.860
423.642	18.943	1749.858	1710.253
424.657	18.787	1748.552	1707.213
425.672	18.778	1745.841	1704.273
426.686	18.733	1744.452	1702.263
427.701	18.561	1743.829	1699.734
428.715	18.525	1742.197	1697.580
429.730	18.766	1740.622	1698.238
430.745	18.753	1740.386	1697.679
431.759	18.748	1739.268	1696.334
432.774	18.744	1738.922	1695.751
433.788	18.615	1737.864	1693.237
434.803	18.663	1736.788	1692.463
435.818	18.661	1736.018	1691.486
436.832	18.694	1734.652	1690.279
437.847	17.616	1728.295	1673.254
438.861	9.949	1708.257	1578.587
439.876	1.764	1693.163	1484.506
440.890	0.244	1689.699	1466.416
441.905	0.057	1687.899	1462.857
442.920	0.178	1685.951	1462.174
443.934	0.139	1684.356	1460.231
444.949	0.223	1684.124	1460.679
445.963	0.049	1683.809	1458.532
446.978	0.007	1683.024	1457.267
447.993	0.097	1680.915	1456.140
449.007	0.159	1678.873	1454.804
450.022	0.123	1677.294	1452.915
451.036	0.135	1675.208	1451.044
452.051	1.180	1680.378	1465.499
453.066	9.050	1697.933	1557.650
454.080	16.878	1709.875	1645.050
455.095	18.126	1711.724	1658.812
456.109	18.358	1710.756	1659.931
457.124	18.420	1709.424	1659.048
458.139	18.352	1709.027	1657.800
459.153	18.353	1707.728	1656.355
460.168	18.332	1705.973	1654.249
461.182	18.220	1704.316	1651.355
462.197	18.213	1703.292	1650.104
463.212	18.273	1701.158	1648.421
464.226	18.467	1699.585	1648.567
465.241	18.478	1698.544	1647.470
466.255	18.432	1697.708	1646.017
467.270	18.390	1696.982	1644.708
468.285	18.307	1695.790	1642.558
469.299	18.355	1694.273	1641.358
470.314	18.331	1692.673	1639.379
471.328	18.373	1691.110	1638.070
472.343	18.335	1690.548	1636.964
473.358	18.375	1689.121	1635.771
474.372	18.473	1687.183	1634.642
475.387	18.367	1686.225	1632.499
476.401	18.491	1684.455	1631.777
477.416	18.433	1683.582	1630.185
478.430	18.391	1682.870	1628.891
479.445	18.422	1681.504	1627.676
480.460	18.517	1679.214	1626.166
481.474	18.452	1679.212	1625.356
482.489	18.376	1677.550	1622.829
483.503	18.287	1676.198	1620.477
484.518	18.412	1674.010	1619.355
485.533	18.389	1673.091	1618.050
486.547	18.619	1671.096	1618.113
487.562	18.539	1670.532	1616.618
488.576	18.449	1669.524	1614.595
489.591	18.422	1667.809	1612.482
490.606	18.412	1667.250	1611.655
491.620	18.445	1664.904	1609.505
492.635	18.447	1663.457	1607.933
493.649	18.459	1661.814	1606.270
494.664	18.368	1660.765	1604.210
495.679	18.448	1659.695	1603.728
496.693	18.397	1659.317	1602.699
497.708	18.492	1657.001	1601.159
498.722	18.414	1656.438	1599.687
499.737	18.425	1654.804	1598.025
500.752	18.390	1653.203	1595.963
501.766	18.434	1652.019	1595.035
502.781	18.496	1650.016	1593.494
503.795	18.361	1649.296	1591.340
504.810	18.463	1648.408	1591.252
505.825	18.353	1647.980	1589.616
506.839	18.412	1646.427	1588.485
507.854	18.322	1645.362	1586.428
508.868	18.368	1643.792	1585.147
509.883	18.303	1642.686	1583.294
510.898	18.310	1641.693	1582.207
511.912	18.271	1639.791	1579.823
512.927	18.292	1637.391	1577.520
513.941	18.398	1635.930	1576.901
514.956	18.332	1635.144	1575.343
515.971	18.398	1634.488	1575.129
516.985	18.362	1633.373	1573.537
518.000	18.394	1632.521	1572.828
519.014	18.391	1631.063	1571.206
520.029	18.258	1630.162	1568.918
521.043	18.361	1628.209	1567.806
522.058	18.439	1626.425	1566.612
523.073	18.372	1626.353	1565.746
524.087	18.332	1625.599	1564.463
525.102	18.471	1623.258	1563.292
526.116	18.325	1622.818	1561.346
527.131	18.484	1621.740	1561.577
528.146	18.456	1621.443	1560.849
529.160	18.503	1619.282	1559.012
530.175	18.467	1618.070	1557.332
531.189	18.312	1616.924	1554.625
532.204	18.337	1616.179	1553.951
533.219	18.353	1614.528	1552.325
534.233	18.461	1613.765	1552.386
535.248	18.416	1612.438	1550.520
536.262	18.430	1611.661	1549.710
537.277	18.391	1610.934	1548.472
538.292	18.513	1608.187	1546.749
539.306	18.337	1607.108	1543.932
540.321	18.346	1606.244	1542.997
541.335	18.461	1604.416	1542.102
542.350	18.465	1603.239	1540.819
543.365	18.473	1601.465	1539.005
544.379	18.344	1600.885	1537.101
545.394	18.396	1599.252	1535.815
546.408	18.517	1597.562	1535.096
547.423	18.428	1597.603	1534.148
548.438	18.435	1596.439	1532.913
549.452	18.492	1595.248	1532.095
550.467	18.419	1593.466	1529.547
551.481	18.409	1592.293	1528.147
552.496	18.343	1592.179	1527.261
553.511	18.260	1590.857	1525.073
554.525	18.336	1589.679	1524.435
555.540	18.472	1588.753	1524.581
556.554	18.415	1587.664	1522.846
557.569	18.393	1585.511	1520.409
558.583	18.348	1583.912	1518.284
559.598	18.465	1582.972	1518.250
560.613	18.355	1581.787	1515.952
561.627	18.396	1580.612	1515.010
562.642	18.217	1580.161	1512.803
563.656	18.285	1578.208	1511.353
564.671	18.260	1576.678	1509.491
565.686	18.278	1575.619	1508.454
566.700	18.404	1574.390	1508.210
567.715	18.236	1573.090	1505.298
568.729	18.134	1572.177	1503.341
569.744	18.396	1570.186	1503.571
570.759	18.224	1569.618	1501.330
571.773	18.357	1568.544	1501.297
572.788	18.322	1567.307	1499.625
573.802	18.313	1565.185	1497.334
574.817	18.402	1562.980	1495.831
575.832	18.368	1562.193	1494.598
576.846	18.302	1561.765	1493.434
577.861	18.298	1560.711	1492.211
578.875	18.401	1559.715	1491.979
579.890	18.376	1559.059	1490.952
580.905	18.314	1558.026	1489.246
581.919	18.236	1557.708	1488.085
582.934	18.378	1556.420	1487.910
583.948	18.275	1555.106	1485.579
584.963	18.415	1553.284	1484.886
585.978	18.291	1552.158	1482.547
586.992	18.381	1551.424	1482.455
588.007	18.365	1551.114	1481.837
589.021	18.402	1549.749	1480.679
590.036	18.465	1548.408	1479.772
591.051	18.523	1546.272	1478.051
592.065	18.466	1545.036	1476.202
593.080	18.446	1543.510	1474.397
594.094	18.473	1541.943	1472.954
595.109	18.305	1541.079	1470.499
596.123	18.422	1538.802	1469.159
597.138	18.470	1537.979	1468.610
598.153	18.470	1536.983	1467.485
599.167	18.415	1535.890	1465.794
600.182	18.353	1535.135	1464.367
601.196	18.395	1534.320	1463.775
602.211	18.355	1532.592	1461.604
603.226	18.390	1531.602	1460.789
604.240	18.394	1530.078	1459.195
605.255	18.499	1528.535	1458.450
606.269	18.489	1527.923	1457.598
607.284	18.485	1526.874	1456.392
608.299	18.391	1525.554	1454.159
609.313	18.380	1525.050	1453.405
610.328	18.348	1523.828	1451.795
611.342	18.345	1522.032	1449.882
612.357	18.387	1521.037	1449.120
613.372	18.404	1520.020	1448.128
614.386	18.291	1519.144	1446.159
615.401	18.303	1518.214	1445.203
616.415	18.367	1517.282	1444.680
617.430	18.383	1516.485	1443.882
618.445	18.436	1514.643	1442.405
619.459	18.357	1513.756	1440.727
620.474	18.294	1512.778	1439.083
621.488	18.247	1511.807	1437.597
622.503	18.441	1510.496	1437.810
623.518	18.263	1509.420	1435.120
624.532	18.313	1508.423	1434.420
625.547	18.236	1507.148	1432.388
626.561	18.359	1506.221	1432.369
627.576	18.482	1505.054	1432.118
628.591	18.309	1504.309	1429.790
629.605	18.404	1502.472	1428.667
630.620	18.457	1501.261	1427.786
631.634	18.390	1500.347	1426.188
632.649	18.357	1499.864	1425.280
633.663	18.438	1497.614	1423.647
634.678	18.407	1495.992	1421.673
635.693	18.340	1494.964	1419.972
636.707	18.303	1494.300	1418.859
637.722	18.364	1492.576	1417.567
638.736	18.439	1491.514	1417.006
639.751	18.335	1490.225	1414.748
640.766	18.411	1489.975	1414.974
641.780	18.214	1489.174	1412.406
642.795	18.434	1487.511	1412.487
643.809	18.500	1486.608	1412.005
644.824	18.498	1485.763	1411.019
645.839	18.473	1484.483	1409.428
646.853	18.418	1483.591	1407.961
647.868	18.330	1482.703	1406.222
648.882	18.376	1481.054	1404.871
649.897	18.404	1479.966	1403.897
650.912	18.461	1478.499	1402.808
651.926	18.366	1477.426	1400.837
652.941	18.374	1476.554	1399.908
653.955	18.540	1474.443	1399.101
654.970	18.547	1473.087	1397.704
655.985	18.374	1472.295	1395.375
656.999	18.508	1470.920	1395.000
658.014	18.596	1469.274	1393.985
659.028	18.411	1469.255	1392.291
660.043	18.294	1469.277	1391.189
661.058	18.507	1466.139	1389.793
662.072	18.515	1464.765	1388.385
663.087	18.450	1464.009	1386.970
664.101	18.384	1463.169	1385.475
665.116	18.463	1462.017	1384.859
666.131	18.376	1461.687	1383.674
667.145	18.389	1460.668	1382.651
668.160	18.456	1458.825	1381.280
669.174	18.429	1457.300	1379.452
670.189	18.479	1456.305	1378.753
671.204	18.471	1455.644	1377.899
672.218	18.427	1454.742	1376.526
673.233	18.361	1453.920	1375.045
674.247	18.345	1452.935	1373.820
675.262	18.358	1452.283	1373.146
676.276	18.410	1450.296	1371.520
677.291	18.359	1449.185	1369.901
678.306	18.562	1447.808	1370.065
679.320	18.402	1447.247	1368.085
680.335	18.503	1446.404	1367.930
681.349	18.411	1446.021	1366.665
682.364	18.523	1444.494	1365.961
683.379	18.382	1443.659	1363.878
684.393	18.335	1442.366	1362.115
685.408	18.405	1440.507	1360.758
686.422	18.432	1439.148	1359.522
687.437	18.408	1439.419	1359.428
688.452	18.382	1438.633	1358.315
689.466	18.240	1437.197	1355.668
690.481	18.355	1435.520	1354.838
691.495	18.247	1434.963	1353.294
692.510	18.194	1434.058	1351.851
693.525	18.189	1432.509	1350.191
694.539	18.367	1431.125	1350.135
695.554	18.165	1430.914	1348.176
696.568	18.345	1429.647	1348.243
697.583	18.329	1428.896	1347.246
698.598	18.303	1427.973	1346.008
699.612	18.318	1426.128	1344.233
700.627	18.554	1424.380	1344.283
701.641	18.463	1424.335	1343.357
702.656	18.462	1422.639	1341.592
703.671	18.399	1422.488	1340.797
704.685	18.410	1422.338	1340.578
705.700	18.441	1420.954	1339.357
706.714	18.589	1418.734	1338.269
707.729	18.542	1417.202	1336.291
708.744	18.439	1416.074	1334.261
709.758	18.391	1415.657	1333.334
710.773	18.357	1414.951	1332.246
711.787	18.500	1412.846	1331.217
712.802	18.515	1411.822	1330.212
713.816	18.525	1411.210	1329.555
714.831	18.491	1410.354	1328.322
715.846	18.506	1409.413	1327.397
716.860	18.615	1407.601	1326.379
717.875	18.548	1406.661	1324.809
718.889	18.396	1406.315	1323.149
719.904	18.545	1404.317	1322.267
720.919	18.580	1403.602	1321.704
721.933	18.431	1403.169	1319.982
722.948	18.427	1401.999	1318.693
723.962	18.529	1400.469	1317.887
724.977	18.502	1399.001	1316.138
725.992	18.498	1398.171	1315.165
727.006	18.486	1396.553	1313.396
728.021	18.471	1396.121	1312.720
729.035	18.431	1394.570	1310.797
730.050	18.474	1393.748	1310.193
731.065	18.550	1392.386	1309.342
732.079	18.497	1391.849	1308.272
733.094	18.466	1390.586	1306.688
734.108	18.431	1389.068	1304.839
735.123	18.512	1387.661	1303.980
736.138	18.488	1387.339	1303.337
737.152	18.449	1385.822	1301.459
738.167	18.575	1384.380	1300.910
739.181	18.585	1383.549	1300.050
740.196	18.630	1382.964	1299.693
741.211	18.508	1382.171	1297.861
742.225	18.490	1381.110	1296.572
743.240	18.395	1379.901	1294.558
744.254	18.639	1378.531	1294.971
745.269	18.474	1377.758	1292.842
746.284	18.442	1376.801	1291.546
747.298	18.435	1375.443	1290.066
748.313	18.280	1374.938	1288.258
749.327	18.346	1373.890	1287.627
750.342	18.345	1373.547	1287.140
751.356	18.417	1371.905	1285.994
752.371	18.322	1370.679	1283.974
753.386	18.441	1369.372	1283.493
754.400	18.540	1368.242	1283.022
755.415	18.449	1367.583	1281.571
756.429	18.529	1366.056	1280.586
757.444	18.435	1365.356	1279.071
758.459	18.401	1364.871	1278.204
759.473	18.585	1363.219	1277.883
760.488	18.623	1362.103	1276.966
761.502	18.482	1360.947	1274.676
762.517	18.456	1360.262	1273.692
763.532	18.503	1359.101	1272.801
764.546	18.646	1357.386	1272.109
765.561	18.626	1357.177	1271.613
766.575	18.665	1356.500	1271.113
767.590	18.454	1355.631	1268.581
768.605	18.458	1354.085	1267.012
769.619	18.609	1352.621	1266.608
770.634	18.603	1351.554	1265.414
771.648	18.647	1350.108	1264.236
772.663	18.630	1349.976	1263.833
773.678	18.460	1349.775	1262.232
774.692	18.506	1348.829	1261.539
775.707	18.360	1348.742	1260.226
776.721	18.547	1346.560	1259.419
777.736	18.648	1345.454	1258.979
778.751	18.598	1344.558	1257.625
779.765	18.593	1342.999	1255.977
780.780	18.491	1343.077	1255.147
781.794	18.297	1342.358	1252.899
782.809	18.311	1341.572	1252.120
783.824	18.395	1339.909	1251.033
784.838	18.292	1338.458	1248.776
785.853	18.424	1337.433	1248.632
786.867	18.415	1336.736	1247.769
787.882	18.377	1336.237	1246.872
788.897	18.308	1335.343	1245.384
789.911	18.569	1333.447	1245.373
790.926	18.480	1333.181	1244.328
791.940	18.380	1331.111	1241.516
792.955	18.445	1329.942	1240.754
793.969	18.405	1329.519	1239.917
794.984	18.391	1329.026	1239.211
795.999	18.473	1327.835	1238.546
797.013	18.619	1325.562	1237.337
798.028	18.601	1324.618	1236.174
799.042	18.476	1323.995	1234.542
800.057	18.499	1323.135	1233.759
801.072	18.466	1321.683	1232.018
802.086	18.656	1319.705	1231.396
803.101	18.665	1319.140	1230.788
804.115	18.565	1318.741	1229.546
805.130	18.547	1317.792	1228.387
806.145	18.497	1316.653	1226.816
807.159	18.497	1315.043	1225.174
808.174	18.661	1313.847	1225.089
809.188	18.523	1312.766	1222.942
810.203	18.710	1310.849	1222.346
811.218	18.516	1309.544	1219.598
812.232	18.580	1308.675	1219.101
813.247	18.568	1307.484	1217.760
814.261	18.542	1306.732	1216.732
815.276	18.538	1306.386	1216.235
816.291	18.597	1305.006	1215.223
817.305	18.570	1303.713	1213.679
818.320	18.697	1302.130	1212.962
819.334	18.500	1301.885	1211.193
820.349	18.549	1300.198	1209.824
821.364	18.646	1298.430	1208.722
822.378	18.572	1297.369	1207.068
823.393	18.569	1295.564	1205.218
824.407	18.441	1295.037	1203.684
825.422	18.333	1295.279	1202.997
826.437	18.401	1293.760	1201.925
827.451	18.400	1291.443	1199.624
828.466	18.304	1290.476	1197.904
829.480	18.355	1288.716	1196.483
830.495	18.303	1286.773	1194.172
831.509	18.458	1286.232	1194.615
832.524	18.520	1285.697	1194.410
833.539	18.427	1284.703	1192.695
834.553	18.593	1283.463	1192.560
835.568	18.502	1282.582	1190.963
836.582	18.639	1281.361	1190.640
837.597	18.665	1279.900	1189.322
838.612	18.780	1278.669	1188.836
839.626	18.688	1277.798	1187.243
840.641	18.674	1277.179	1186.431
841.655	18.512	1277.318	1185.289
842.670	18.599	1275.364	1183.937
843.685	18.612	1273.466	1182.127
844.699	18.700	1272.586	1181.778
845.714	18.606	1271.854	1180.308
846.728	18.667	1271.163	1179.943
847.743	18.617	1269.545	1177.954
848.758	18.678	1268.178	1176.965
849.772	18.756	1267.008	1176.278
850.787	18.669	1265.112	1173.778
851.801	18.543	1263.905	1171.652
852.816	18.621	1263.225	1171.417
853.831	18.625	1261.056	1169.291
854.845	18.521	1259.600	1167.094
855.860	18.396	1258.698	1165.261
856.874	18.398	1257.495	1164.023
857.889	18.421	1256.230	1162.870
858.904	18.506	1254.980	1162.150
859.918	18.280	1253.204	1158.830
860.933	18.508	1252.366	1159.465
861.947	18.476	1251.073	1157.915
862.962	18.552	1249.873	1157.183
863.977	18.369	1249.154	1155.133
864.991	18.408	1249.167	1155.276
866.006	18.306	1249.338	1154.601
867.020	18.311	1247.843	1153.116
868.035	18.772	1245.363	1153.802
869.049	18.544	1244.823	1151.622
870.064	18.463	1244.508	1150.644
871.079	18.599	1243.200	1150.216
872.093	18.731	1242.816	1150.614
873.108	18.714	1241.537	1149.179
874.122	18.768	1239.774	1147.772
875.137	18.687	1239.819	1147.129
876.152	18.766	1239.055	1146.813
877.166	18.859	1236.780	1145.198
878.181	18.792	1236.143	1144.023
879.195	18.795	1235.482	1143.295
880.210	18.794	1234.526	1142.266
881.225	18.776	1233.509	1141.066
882.239	18.708	1232.169	1139.237
883.254	18.763	1231.541	1138.888
884.268	18.734	1231.144	1138.191
885.283	18.619	1229.731	1135.983
886.298	18.625	1228.326	1134.587
887.312	18.763	1227.423	1134.532
888.327	18.694	1226.787	1133.352
889.341	18.625	1225.332	1131.418
890.356	18.577	1224.070	1129.798
891.371	18.629	1224.339	1130.255
892.385	18.748	1222.859	1129.538
893.400	18.582	1222.425	1127.906
894.414	18.575	1220.632	1126.072
895.429	18.513	1219.079	1124.094
896.444	18.608	1217.888	1123.486
897.458	18.491	1216.596	1121.393
898.473	18.528	1216.482	1121.397
899.487	18.591	1215.544	1120.808
900.502	18.613	1213.971	1119.372
901.517	18.785	1212.451	1118.964
902.531	18.645	1212.076	1117.565
903.546	18.581	1211.457	1116.439
904.560	18.664	1211.394	1116.790
905.575	18.675	1209.735	1115.203
906.589	18.745	1208.785	1114.648
907.604	18.884	1208.374	1115.043
