DTS Sentinel unit serial number:	SN409020Multiplexer serial number:	ORYXHardware model number:	OX4-SRSoftware version number:	ORYX F/W v3.00 Oryx Data Collector v3.7.2.0data status	okinstallation	HaddamTimeLapsedifferential loss correction	single-endedforward channel	channel 3reverse channel	N/Adate	2011/06/22time	06:01:17forward acquisition time	30.00reverse acquisition time	0.00gamma	498.7831k internal	0.1751k external	0.1751temperature offset calibration	1.0074default loss term (dB/km)	0.3790temperature slope calibration	1.3530multiplexer offset coefficient	1.0000multiplexer slope coefficient	1.0000fibre end	0.00T internal ref (°C)	22.56T ext. ref 1 (°C)	18.06T ext. ref 2 (°C)	0.16length (m)	temperature (°C)	Stokes	anti-Stokes-747.200	-19.585	-0.309	0.254
-746.185	122.951	0.218	0.363
-745.171	-92.342	-0.320	-0.119
-744.156	-47.115	0.319	0.206
-743.142	-71.711	-0.144	0.071
-742.127	12.798	-0.045	0.046
-741.112	57.789	0.136	-0.177
-740.098	-67.938	0.264	0.136
-739.083	-108.588	-0.424	-0.120
-738.069	37.600	0.484	0.570
-737.054	-132.106	-0.146	0.025
-736.039	800.000	-0.102	0.422
-735.025	-181.536	-0.307	0.008
-734.010	87.224	-0.051	0.075
-732.996	381.574	-0.125	0.343
-731.981	-145.197	-0.662	0.079
-730.966	-28.383	0.217	0.166
-729.952	-90.968	0.375	0.142
-728.937	52.668	-0.197	0.250
-727.923	11.253	0.575	-0.583
-726.908	-133.979	-0.116	-0.019
-725.894	114.753	-0.156	-0.253
-724.879	331.638	-0.284	0.730
-723.864	209.842	0.098	-0.205
-722.850	800.000	0.083	-0.356
-721.835	258.682	-0.263	0.604
-720.821	212.556	0.200	-0.420
-719.806	-77.333	-0.436	-0.200
-718.791	-200.000	-0.016	-0.298
-717.777	-63.737	0.418	-0.226
-716.762	-34.587	-0.379	-0.275
-715.748	-200.000	0.006	-0.211
-714.733	44.896	0.074	0.091
-713.718	-120.244	-0.599	0.135
-712.704	800.000	0.065	-0.242
-711.689	-43.999	-0.411	-0.274
-710.675	89.193	-0.324	0.479
-709.660	453.404	-0.109	-0.322
-708.645	-52.449	0.293	0.179
-707.631	-3.276	0.045	0.042
-706.616	-130.144	-0.194	0.035
-705.602	-200.000	-0.015	0.238
-704.587	360.798	0.251	0.669
-703.572	-200.000	-0.003	-0.302
-702.558	38.371	-0.424	0.501
-701.543	-200.000	-0.016	-0.382
-700.529	10.483	-0.256	-0.259
-699.514	-18.552	0.115	-0.095
-698.499	-52.021	0.111	0.068
-697.485	-106.766	0.077	-0.023
-696.470	-88.830	0.462	-0.181
-695.456	659.797	0.065	-0.224
-694.441	-42.581	-0.544	-0.366
-693.426	313.076	-0.070	0.176
-692.412	-93.528	-0.525	-0.191
-691.397	-53.156	0.441	-0.267
-690.383	-138.289	-0.384	0.056
-689.368	-200.000	-0.074	0.511
-688.354	-200.000	-0.032	-0.478
-687.339	-200.000	-0.035	-0.475
-686.324	-93.246	0.120	-0.044
-685.310	-14.167	-0.236	0.202
-684.295	-200.000	0.056	0.725
-683.281	-99.869	0.131	-0.043
-682.266	279.606	0.080	-0.189
-681.251	-147.838	0.174	-0.019
-680.237	492.427	-0.068	0.209
-679.222	800.000	0.029	0.144
-678.208	157.007	0.160	-0.294
-677.193	41.303	-0.208	-0.250
-676.178	-190.342	0.172	-0.002
-675.164	-4.841	0.120	-0.109
-674.149	514.493	-0.201	-0.625
-673.135	339.243	0.055	-0.142
-672.120	-32.948	0.235	0.172
-671.105	195.564	0.106	0.213
-670.091	-120.801	0.261	0.058
-669.076	182.478	0.164	-0.322
-668.062	382.030	0.267	-0.730
-667.047	-122.916	0.812	0.172
-666.032	-122.970	-0.549	-0.116
-665.018	-200.000	0.014	0.527
-664.003	-59.733	-0.160	-0.090
-662.989	-137.221	-0.428	-0.064
-661.974	-154.792	-0.584	-0.051
-660.959	-200.000	-0.024	-0.314
-659.945	800.000	0.052	0.213
-658.930	-42.294	-0.335	0.226
-657.916	-174.158	0.286	-0.011
-656.901	-84.456	-0.260	-0.108
-655.886	-57.327	0.618	-0.359
-654.872	-45.836	-0.132	0.086
-653.857	-111.809	-0.447	0.119
-652.843	800.000	0.078	-0.355
-651.828	-191.024	-0.401	-0.005
-650.814	-100.777	-0.329	-0.106
-649.799	-140.703	-0.396	-0.054
-648.784	-39.414	-0.166	0.115
-647.770	-17.571	-0.033	0.027
-646.755	-36.881	-0.507	0.359
-645.741	234.719	-0.155	0.339
-644.726	220.607	-0.165	0.352
-643.711	13.607	-0.241	0.248
-642.697	-52.741	0.105	-0.064
-641.682	16.550	0.264	0.275
-640.668	-107.933	0.161	0.046
-639.653	11.165	0.154	-0.156
-638.638	-69.777	-0.620	-0.312
-637.624	-10.935	-0.105	0.092
-636.609	-12.764	0.446	0.384
-635.595	-200.000	-0.012	-0.221
-634.580	-43.006	-0.363	0.243
-633.565	546.268	-0.168	0.535
-632.551	119.390	0.174	0.286
-631.536	-89.367	0.104	0.040
-630.522	-48.078	-0.260	0.165
-629.507	800.000	-0.085	0.353
-628.492	-98.590	-0.156	-0.052
-627.478	307.867	0.004	0.010
-626.463	-123.914	-0.469	0.097
-625.449	-129.403	-0.159	-0.029
-624.434	-0.543	-0.055	0.052
-623.419	-30.432	-0.242	0.181
-622.405	-80.637	0.192	0.084
-621.390	-112.875	0.398	0.103
-620.376	-200.000	-0.009	-0.073
-619.361	31.287	0.240	-0.273
-618.346	800.000	0.063	0.307
-617.332	800.000	-0.027	-0.126
-616.317	87.139	0.068	0.099
-615.303	282.465	0.091	0.216
-614.288	92.723	0.238	-0.356
-613.273	-126.262	0.163	-0.032
-612.259	800.000	-0.053	0.193
-611.244	451.811	-0.095	-0.280
-610.230	-51.891	-0.233	-0.143
-609.215	-135.684	0.201	0.031
-608.201	-69.472	0.139	0.070
-607.186	224.402	-0.098	-0.211
-606.171	-200.000	0.009	0.244
-605.157	48.792	-0.034	-0.042
-604.142	-173.063	0.183	0.007
-603.128	-69.501	-0.050	0.025
-602.113	167.563	0.101	-0.191
-601.098	-176.085	-0.268	-0.009
-600.084	79.742	0.346	-0.491
-599.069	800.000	0.083	-0.332
-598.055	-200.000	0.024	0.261
-597.040	-140.633	0.200	0.027
-596.025	800.000	-0.114	-0.629
-595.011	21.401	0.124	0.133
-593.996	-117.766	0.320	0.075
-592.982	-141.661	-0.147	0.019
-591.967	4.936	0.308	-0.299
-590.952	-55.320	0.436	0.257
-589.938	27.900	0.216	-0.240
-588.923	-63.636	-0.453	-0.244
-587.909	-148.931	-0.328	-0.035
-586.894	120.345	-0.087	0.143
-585.879	-22.195	0.042	0.034
-584.865	192.618	0.076	-0.152
-583.850	16.666	-0.478	-0.499
-582.836	-31.236	0.386	0.287
-581.821	106.786	-0.224	0.351
-580.806	-112.565	-0.252	-0.066
-579.792	202.220	0.153	0.313
-578.777	-1.635	0.234	0.217
-577.763	779.580	0.075	-0.273
-576.748	-87.159	-0.362	0.144
-575.733	331.639	-0.060	-0.153
-574.719	56.080	-0.137	0.176
-573.704	-156.355	0.407	0.033
-572.690	800.000	-0.033	-0.161
-571.675	-144.695	-0.249	0.030
-570.661	143.226	-0.180	-0.317
-569.646	272.807	-0.037	-0.086
-568.631	-8.461	-0.141	0.125
-567.617	-200.000	0.029	0.352
-566.602	-53.007	0.411	-0.248
-565.588	16.730	0.432	-0.451
-564.573	-58.262	0.431	-0.247
-563.558	31.560	0.276	-0.314
-562.544	-128.860	-0.209	-0.038
-561.529	-164.339	0.386	0.023
-560.515	359.714	-0.200	-0.531
-559.500	76.195	0.265	-0.371
-558.485	665.856	-0.065	-0.223
-557.471	-165.432	-0.506	0.029
-556.456	482.826	0.066	0.198
-555.442	-7.466	-0.255	0.227
-554.427	-118.652	0.433	0.100
-553.412	471.337	0.124	0.370
-552.398	-71.701	0.223	-0.109
-551.383	193.723	0.276	-0.553
-550.369	-200.000	0.085	-0.588
-549.354	300.636	0.131	0.319
-548.339	25.746	0.088	0.096
-547.325	-200.000	0.031	-0.213
-546.310	-200.000	0.014	-0.174
-545.296	-142.839	0.153	-0.019
-544.281	-200.000	0.060	-0.407
-543.266	-200.000	0.025	-0.347
-542.252	800.000	-0.007	-0.027
-541.237	299.052	-0.110	-0.269
-540.223	398.625	0.019	-0.053
-539.208	800.000	-0.077	0.354
-538.193	-200.000	0.060	-0.449
-537.179	-200.000	-0.025	-0.148
-536.164	328.277	-0.133	-0.338
-535.150	-200.000	-0.008	-0.097
-534.135	-186.654	0.833	0.015
-533.121	-173.713	0.318	-0.012
-532.106	-11.999	-0.400	-0.345
-531.091	482.417	0.143	-0.429
-530.077	-99.878	0.552	-0.181
-529.062	-46.534	0.300	-0.193
-528.048	-114.502	0.587	-0.147
-527.033	-182.043	-0.166	-0.004
-526.018	-0.230	-0.056	0.052
-525.004	-23.244	-0.128	0.102
-523.989	-200.000	-0.026	0.165
-522.975	-49.022	0.091	-0.057
-521.960	252.502	-0.183	0.413
-520.945	-56.702	-0.319	-0.185
-519.931	-200.000	0.031	-0.515
-518.916	39.096	-0.100	0.118
-517.902	-39.358	-0.493	-0.340
-516.887	-200.000	-0.279	-0.002
-515.872	-100.580	-0.462	0.149
-514.858	-71.988	-0.363	0.177
-513.843	59.739	0.441	-0.573
-512.829	-67.179	-0.178	0.092
-511.814	-108.057	0.049	-0.014
-510.799	160.993	-0.275	-0.508
-509.785	-200.000	0.000	0.475
-508.770	1.744	-0.273	0.259
-507.756	140.336	0.056	-0.097
-506.741	-102.076	0.063	0.020
-505.726	448.306	-0.040	0.118
-504.712	118.349	0.028	0.045
-503.697	-176.130	0.451	0.015
-502.683	19.365	0.148	-0.157
-501.668	35.948	-0.249	-0.289
-500.653	85.658	0.257	-0.372
-499.639	-134.827	0.380	-0.060
-498.624	-89.363	-0.200	-0.077
-497.610	-87.319	-0.387	-0.154
-496.595	-69.217	-0.234	-0.118
-495.581	-75.529	0.295	-0.138
-494.566	-150.021	0.349	0.035
-493.551	800.000	-0.016	0.062
-492.537	197.613	-0.163	0.329
-491.522	-61.469	-0.283	0.156
-490.508	-200.000	-0.019	0.248
-489.493	-87.328	-0.141	0.056
-488.478	301.296	0.049	0.120
-487.464	-137.531	-0.092	-0.013
-486.449	291.168	0.040	0.097
-485.435	798.398	-0.069	-0.250
-484.420	206.840	-0.130	-0.266
-483.405	58.108	0.275	0.354
-482.391	800.000	0.054	0.277
-481.376	-25.304	0.023	-0.018
-480.362	61.296	0.171	0.224
-479.347	-9.878	-0.245	0.214
-478.332	112.187	0.162	-0.257
-477.318	-117.746	0.545	-0.128
-476.303	-150.700	-0.202	0.020
-475.289	-123.490	0.310	0.064
-474.274	-75.422	0.155	0.072
-473.259	-144.121	-0.298	0.036
-472.245	161.586	-0.100	-0.184
-471.230	93.542	0.217	0.324
-470.216	-84.928	0.478	0.196
-469.201	-200.000	0.201	-0.000
-468.186	-141.526	-0.233	-0.031
-467.172	-200.000	0.098	-0.596
-466.157	-200.000	0.024	0.194
-465.143	403.456	0.145	0.404
-464.128	-145.226	-0.187	0.022
-463.113	-60.762	-0.187	0.103
-462.099	-29.426	0.245	-0.184
-461.084	117.839	-0.152	0.247
-460.070	446.772	0.163	-0.475
-459.055	139.798	-0.061	-0.107
-458.040	121.163	0.161	0.264
-457.026	331.204	-0.058	0.147
-456.011	-180.189	-0.337	0.009
-454.997	-114.522	-0.526	-0.132
-453.982	-127.253	0.623	-0.119
-452.968	54.380	0.318	0.402
-451.953	37.690	-0.208	0.243
-450.938	-92.213	0.307	-0.113
-449.924	278.346	-0.214	0.503
-448.909	-200.000	0.002	-0.237
-447.895	300.012	0.108	0.263
-446.880	-89.629	0.450	0.172
-445.865	121.971	0.283	0.464
-444.851	-200.000	0.001	0.408
-443.836	-34.205	-0.435	0.313
-442.822	-176.095	-0.270	-0.009
-441.807	800.000	0.080	-0.408
-440.792	-101.311	0.192	0.061
-439.778	-46.921	-0.352	0.225
-438.763	154.523	-0.111	0.201
-437.749	-41.118	-0.074	0.050
-436.734	-82.044	-0.104	0.044
-435.719	42.003	0.225	-0.268
-434.705	-138.552	-0.331	-0.047
-433.690	631.853	0.053	0.179
-432.676	-200.000	-0.007	-0.050
-431.661	87.243	0.176	0.256
-430.646	800.000	-0.103	-0.485
-429.632	-21.368	-0.394	0.315
-428.617	-58.573	-0.240	0.136
-427.603	-151.461	-0.302	-0.029
-426.588	-88.290	-0.098	-0.038
-425.573	45.760	-0.074	-0.090
-424.559	87.202	0.310	-0.450
-423.544	800.000	0.039	-0.176
-422.530	-22.972	-0.364	-0.288
-421.515	800.000	-0.084	0.360
-420.500	169.755	-0.062	0.117
-419.486	712.540	0.120	0.420
-418.471	669.624	0.133	0.454
-417.457	72.848	-0.243	-0.332
-416.442	-10.148	0.183	-0.159
-415.428	-111.572	0.277	0.073
-414.413	346.176	0.078	-0.202
-413.398	-90.447	0.186	0.070
-412.384	-189.760	0.284	0.004
-411.369	146.639	0.228	0.402
-410.355	-145.437	0.132	0.015
-409.340	-68.526	0.512	0.259
-408.325	70.198	0.093	0.126
-407.311	800.000	-0.095	-0.410
-406.296	800.000	-0.075	0.426
-405.282	-200.000	0.068	0.439
-404.267	103.244	-0.042	-0.064
-403.252	-102.713	-0.339	-0.105
-402.238	-173.210	-0.137	-0.005
-401.223	-169.856	0.677	0.031
-400.209	-105.337	-0.377	-0.112
-399.194	110.895	-0.042	-0.066
-398.179	-50.022	-0.635	0.394
-397.165	-103.792	-0.315	0.096
-396.150	190.650	0.103	-0.204
-395.136	-99.619	0.222	0.073
-394.121	-73.372	0.294	0.140
-393.106	-200.000	-0.068	-0.517
-392.092	-91.138	-0.112	-0.042
-391.077	-200.000	-0.042	0.324
-390.063	76.555	-0.125	0.174
-389.048	-5.104	0.286	-0.258
-388.033	-86.896	0.131	-0.052
-387.019	800.000	-0.039	-0.165
-386.004	-87.524	-0.298	0.117
-384.990	-126.817	-0.110	0.021
-383.975	305.212	0.133	-0.326
-382.960	-135.244	0.353	0.055
-381.946	191.668	-0.257	-0.509
-380.931	-147.190	0.340	0.037
-379.917	-119.590	-0.271	0.061
-378.902	525.161	-0.148	-0.459
-377.888	-68.894	0.081	0.041
-376.873	-200.000	-0.003	-0.218
-375.858	123.279	-0.138	0.227
-374.844	-163.281	0.260	-0.016
-373.829	-82.204	-0.405	0.172
-372.815	-103.500	-0.270	0.082
-371.800	-1.721	0.221	-0.204
-370.785	2.137	-0.260	0.246
-369.771	25.537	-0.241	0.263
-368.756	-127.585	0.092	-0.017
-367.742	-200.000	0.005	-0.132
-366.727	-175.792	0.089	-0.003
-365.712	-200.000	-0.042	0.420
-364.698	-120.160	0.412	-0.091
-363.683	-50.383	0.322	-0.198
-362.669	-200.000	-0.008	-0.129
-361.654	170.502	0.071	-0.134
-360.639	-180.874	0.479	-0.012
-359.625	-16.318	0.144	-0.119
-358.610	120.727	-0.236	0.384
-357.596	800.000	-0.006	0.032
-356.581	-66.990	-0.742	-0.382
-355.566	-164.670	-0.286	0.017
-354.552	-125.771	-0.161	-0.032
-353.537	-17.945	0.127	0.104
-352.523	264.731	-0.072	0.165
-351.508	800.000	-0.083	0.417
-350.493	-54.655	-0.251	-0.148
-349.479	-88.891	-0.341	-0.132
-348.464	-84.269	0.526	-0.217
-347.450	-152.687	-0.197	-0.018
-346.435	-107.977	-0.343	0.097
-345.420	2.795	-0.465	0.441
-344.406	-200.000	0.015	-0.169
-343.391	10.756	-0.221	0.220
-342.377	800.000	-0.060	0.262
-341.362	-200.000	-0.004	0.177
-340.348	-200.000	0.002	0.381
-339.333	316.002	-0.077	-0.191
-338.318	-102.296	0.369	-0.115
-337.304	84.721	0.131	-0.188
-336.289	-113.149	-0.156	-0.040
-335.275	26.074	0.212	0.232
-334.260	-41.130	-0.447	-0.301
-333.245	455.477	0.205	0.596
-332.231	54.646	0.498	0.628
-331.216	-0.163	0.214	0.199
-330.202	-42.470	0.434	0.288
-329.187	96.217	0.071	0.106
-328.172	-182.464	0.199	0.005
-327.158	346.244	-0.126	0.325
-326.143	800.000	-0.027	0.123
-325.129	-111.166	-0.360	-0.096
-324.114	-200.000	0.001	0.226
-323.099	-200.000	-0.022	0.264
-322.085	-105.872	-0.279	0.082
-321.070	-22.559	-0.055	-0.043
-320.056	-158.893	-0.181	0.013
-319.041	41.994	0.304	-0.360
-318.026	-200.000	-0.013	-0.545
-317.012	240.944	0.148	0.324
-315.997	-33.531	-0.291	-0.210
-314.983	-132.464	0.086	-0.014
-313.968	159.247	-0.105	0.190
-312.953	-54.873	0.115	0.068
-311.939	75.477	-0.101	0.140
-310.924	-70.131	0.084	-0.042
-309.910	34.954	0.426	0.487
-308.895	-43.325	0.438	0.288
-307.880	800.000	-0.083	-0.356
-306.866	-4.212	-0.312	0.282
-305.851	143.302	-0.284	-0.494
-304.837	-200.000	0.009	-0.361
-303.822	-9.797	0.207	-0.180
-302.807	150.418	0.125	0.222
-301.793	-17.695	0.009	0.007
-300.778	-89.571	0.366	0.139
-299.764	-200.000	0.083	0.561
-298.749	-104.045	-0.366	-0.110
-297.735	-168.163	-0.613	0.031
-296.720	-32.387	-0.411	0.299
-295.705	-4.745	-0.327	0.294
-294.691	129.221	0.317	0.529
-293.676	766.929	-0.091	0.325
-292.662	10.010	0.052	0.051
-291.647	-96.838	0.136	-0.046
-290.632	-200.000	0.013	0.287
-289.618	-200.000	-0.056	-0.371
-288.603	52.118	0.027	0.034
-287.589	-97.234	-0.171	0.058
-286.574	-200.000	0.033	-0.506
-285.559	-200.000	-0.052	-0.367
-284.545	-8.498	0.135	0.118
-283.530	49.204	-0.307	0.377
-282.516	-200.000	0.076	0.497
-281.501	-200.000	0.001	-0.055
-280.486	-200.000	-0.018	-0.476
-279.472	-107.432	0.286	0.081
-278.457	68.230	-0.233	-0.311
-277.443	204.757	0.069	0.140
-276.428	2.116	0.238	0.224
-275.413	377.608	-0.103	-0.275
-274.399	-159.539	-0.295	-0.021
-273.384	-117.090	-0.140	-0.033
-272.370	-65.015	0.420	-0.220
-271.355	-200.000	0.035	0.561
-270.340	33.392	-0.139	-0.158
-269.326	-63.493	0.096	0.051
-268.311	-40.532	0.186	-0.125
-267.297	-93.377	-0.397	-0.143
-266.282	314.755	-0.063	-0.155
-265.267	32.944	0.209	0.236
-264.253	11.944	-0.215	-0.215
-263.238	8.501	-0.283	-0.277
-262.224	23.841	0.073	-0.078
-261.209	-123.683	-0.093	-0.019
-260.195	-95.404	0.184	0.064
-259.180	-68.211	-0.233	0.118
-258.165	800.000	-0.033	0.149
-257.151	269.816	-0.104	-0.239
-256.136	129.892	0.142	0.237
-255.122	-115.864	0.341	0.082
-254.107	26.664	-0.138	0.151
-253.092	-139.185	0.378	-0.053
-252.078	-16.019	0.244	0.202
-251.063	-20.049	-0.151	-0.121
-250.049	234.498	0.197	-0.424
-249.034	-200.000	-0.026	-0.194
-248.019	-200.000	-0.032	-0.433
-247.005	-24.136	0.317	-0.246
-245.990	-92.776	-0.347	0.126
-244.976	537.778	0.078	-0.243
-243.961	-39.859	0.598	0.406
-242.946	-114.038	-0.324	0.081
-241.932	-48.529	-0.383	0.239
-240.917	-77.481	-0.299	0.135
-239.903	-200.000	-0.204	0.001
-238.888	-10.571	-0.213	-0.184
-237.873	-53.838	-0.109	-0.065
-236.859	-74.803	-0.357	0.166
-235.844	-154.048	0.213	0.019
-234.830	-81.601	-0.133	0.056
-233.815	334.603	-0.202	-0.512
-232.800	-45.570	0.236	-0.151
-231.786	141.473	-0.083	-0.143
-230.771	-199.691	-0.116	-0.001
-229.757	-75.507	0.105	0.049
-228.742	-68.392	0.178	0.090
-227.727	24.819	0.236	-0.255
-226.713	-200.000	0.013	-0.292
-225.698	-119.897	0.472	-0.105
-224.684	-102.605	0.380	-0.117
-223.669	-40.073	-0.294	-0.199
-222.655	-106.399	-0.173	0.050
-221.640	-69.040	-0.175	-0.088
-220.625	-200.000	0.005	-0.082
-219.611	-145.960	0.196	-0.022
-218.596	-10.677	-0.242	-0.208
-217.582	800.000	0.040	0.146
-216.567	-200.000	0.017	0.293
-215.552	56.767	-0.311	0.395
-214.538	100.203	0.289	0.437
-213.523	-200.000	-0.013	0.270
-212.509	583.551	-0.038	0.122
-211.494	765.570	0.115	-0.409
-210.479	-40.053	0.490	0.332
-209.465	-141.520	-0.342	0.045
-208.450	-133.952	0.450	-0.072
-207.436	-7.452	0.101	0.089
-206.421	-200.000	-0.016	-0.461
-205.406	-87.129	0.250	0.099
-204.392	-169.929	-0.473	-0.022
-203.377	-192.855	0.074	0.001
-202.363	800.000	0.076	0.430
-201.348	-200.000	0.051	0.307
-200.333	-14.398	0.297	-0.248
-199.319	-117.601	0.281	0.065
-198.304	-134.457	0.162	0.026
-197.290	-108.982	-0.152	-0.042
-196.275	-200.000	0.014	-0.219
-195.260	-111.687	-0.143	-0.037
-194.246	-75.219	-0.452	-0.209
-193.231	-25.053	-0.294	0.226
-192.217	-88.302	-0.180	0.070
-191.202	252.589	-0.091	0.203
-190.187	-96.720	0.367	-0.125
-189.173	439.314	0.031	0.089
-188.158	800.000	-0.048	-0.233
-187.144	-82.764	-0.602	0.252
-186.129	-126.688	0.367	-0.070
-185.114	65.005	-0.141	-0.185
-184.100	412.135	0.092	0.256
-183.085	-200.000	0.045	-0.380
-182.071	23.253	-0.187	-0.199
-181.056	-200.000	0.025	0.178
-180.042	-11.155	0.427	0.366
-179.027	-86.257	0.362	-0.144
-178.012	223.748	0.234	-0.492
-176.998	659.500	-0.113	-0.379
-175.983	-76.525	-0.348	0.158
-174.969	73.609	-0.147	0.200
-173.954	-124.286	-0.215	-0.043
-172.939	9.573	0.098	0.097
-171.925	-108.624	-0.433	-0.120
-170.910	87.480	-0.239	-0.345
-169.896	40.801	-0.290	-0.340
-168.881	-132.710	0.176	-0.029
-167.866	-64.160	-0.165	0.087
-166.852	-200.000	-0.014	-0.438
-165.837	-124.830	0.177	-0.035
-164.823	800.000	0.026	-0.093
-163.808	-135.006	0.219	-0.034
-162.793	-188.377	-0.524	-0.008
-161.779	127.648	-0.162	-0.269
-160.764	-200.000	0.058	-0.414
-159.750	-144.471	0.376	0.045
-158.735	-129.918	-0.128	-0.023
-157.720	800.000	-0.046	0.170
-156.706	800.000	-0.054	0.259
-155.691	46.428	0.288	-0.346
-154.677	-3.273	0.309	-0.280
-153.662	-98.374	-0.345	-0.114
-152.647	-4.789	0.092	0.082
-151.633	-40.261	0.406	0.274
-150.618	800.000	-0.114	-0.541
-149.604	-81.449	0.415	-0.176
-148.589	412.406	0.160	0.443
-147.574	431.345	0.197	0.555
-146.560	195.337	-0.236	0.467
-145.545	-200.000	-0.020	-0.157
-144.531	-200.000	0.004	-0.268
-143.516	-142.857	-0.544	-0.068
-142.502	93.306	0.033	0.048
-141.487	292.768	-0.152	-0.361
-140.472	16.500	-0.222	-0.227
-139.458	-33.818	-0.171	-0.122
-138.443	-5.297	-0.409	-0.364
-137.429	-53.966	-0.187	0.110
-136.414	-134.294	0.481	-0.076
-135.399	-99.571	-0.305	-0.099
-134.385	-123.364	0.198	0.041
-133.370	-138.959	0.309	-0.043
-132.356	800.000	-0.057	-0.296
-131.341	-99.163	0.327	-0.106
-130.326	-52.965	-0.213	0.127
-129.312	-62.666	0.171	0.092
-128.297	176.806	0.271	-0.513
-127.283	22.135	-0.371	0.393
-126.268	-95.572	-0.392	0.135
-125.253	-29.883	-0.329	0.243
-124.239	-154.320	-0.607	0.052
-123.224	-121.815	-0.156	0.033
-122.210	-14.093	-0.190	0.158
-121.195	800.000	0.013	0.051
-120.180	-200.000	0.077	-0.560
-119.166	-145.204	-0.170	-0.020
-118.151	-119.513	0.258	-0.057
-117.137	-113.013	0.401	0.102
-116.122	-200.000	0.011	-0.115
-115.107	141.084	0.139	0.239
-114.093	131.708	0.083	-0.138
-113.078	-31.498	-0.201	0.146
-112.064	-30.338	0.335	0.246
-111.049	-174.621	0.525	-0.019
-110.034	218.625	0.178	-0.369
-109.020	-200.000	-0.070	0.408
-108.005	64.586	-0.201	0.263
-106.991	800.000	0.042	-0.182
-105.976	100.250	-0.230	-0.346
-104.962	-74.946	-0.498	-0.230
-103.947	-192.576	0.284	0.003
-102.932	41.571	-0.205	-0.241
-101.918	16.059	0.327	0.333
-100.903	-165.629	-0.064	-0.004
-99.889	-13.890	-0.080	-0.067
-98.874	-200.000	0.001	0.341
-97.859	479.330	0.017	0.050
-96.845	-200.000	0.034	-0.450
-95.830	-180.089	0.354	-0.010
-94.816	690.706	-0.031	0.105
-93.801	-5.510	0.247	0.220
-92.786	-50.637	-0.223	-0.135
-91.772	800.000	-0.070	-0.293
-90.757	264.676	-0.114	-0.259
-89.743	133.567	-0.245	0.411
-88.728	66.568	-0.100	-0.131
-87.713	147.485	-0.061	0.107
-86.699	41.114	0.145	0.170
-85.684	-60.561	0.248	0.136
-84.670	-84.454	-0.403	-0.164
-83.655	-92.643	-0.203	-0.073
-82.640	-13.481	-0.288	0.242
-81.626	13.567	0.314	0.316
-80.611	226.712	0.040	0.085
-79.597	-150.857	0.234	-0.023
-78.582	100.849	0.359	0.541
-77.567	-200.000	-0.030	0.194
-76.553	800.000	-0.086	-0.421
-75.538	-200.000	0.056	-0.368
-74.524	-200.000	-0.025	-0.216
-73.509	-105.933	0.323	0.094
-72.494	800.000	0.094	-0.391
-71.480	78.052	0.041	-0.056
-70.465	-145.703	-0.334	-0.038
-69.451	-62.909	-0.327	0.174
-68.436	-48.745	-0.340	0.210
-67.422	-200.000	-0.002	0.043
-66.407	89.635	-0.126	-0.182
-65.392	-19.903	-0.318	-0.254
-64.378	117.307	-0.159	0.253
-63.363	168.571	-0.123	0.227
-62.349	549.566	-0.175	0.544
-61.334	134.745	-1.615	-2.717
-60.319	-38.328	1.815	1.240
-59.305	258.010	-3.521	-7.868
-58.290	80.471	3.790	5.285
-57.276	410.328	3.807	10.486
-56.261	-200.000	24.052	320.079
-55.246	354.073	1304.085	3363.914
-54.232	53.043	2842.167	3519.264
-53.217	51.467	2658.480	3267.336
-52.203	31.749	2389.334	2658.670
-51.188	27.857	2053.789	2237.380
-50.173	24.459	1940.869	2074.657
-49.159	23.449	1929.066	2050.230
-48.144	22.921	1924.792	2039.482
-47.130	22.841	1923.120	2036.696
-46.115	22.803	1920.551	2033.455
-45.100	22.738	1919.716	2031.741
-44.086	22.739	1918.316	2030.190
-43.071	22.845	1916.307	2029.213
-42.057	22.709	1915.139	2026.320
-41.042	22.675	1913.436	2024.044
-40.027	22.771	1911.284	2022.796
-39.013	22.795	1909.820	2021.446
-37.998	22.793	1908.423	2019.862
-36.984	22.703	1908.412	2018.734
-35.969	22.686	1907.170	2017.147
-34.954	22.662	1905.555	2015.083
-33.940	22.620	1903.966	2012.839
-32.925	22.700	1902.934	2012.582
-31.911	22.677	1901.073	2010.267
-30.896	22.591	1900.838	2008.963
-29.881	22.648	1899.142	2007.738
-28.867	22.658	1897.421	2005.951
-27.852	22.671	1895.548	2004.042
-26.838	22.525	1894.689	2001.388
-25.823	22.497	1893.849	2000.102
-24.809	22.483	1892.664	1998.614
-23.794	22.597	1890.835	1997.899
-22.779	22.564	1889.395	1995.919
-21.765	22.505	1888.378	1994.098
-20.750	22.580	1887.036	1993.458
-19.736	22.571	1885.575	1991.735
-18.721	22.522	1885.038	1990.523
-17.706	22.450	1884.361	1988.912
-16.692	22.578	1881.923	1987.714
-15.677	22.546	1881.995	1987.345
-14.663	22.589	1879.930	1985.574
-13.648	22.425	1879.338	1983.011
-12.633	22.451	1877.727	1981.531
-11.619	22.409	1876.694	1979.891
-10.604	22.375	1875.623	1978.295
-9.590	22.510	1873.327	1977.316
-8.575	22.433	1872.936	1975.958
-7.560	22.412	1871.669	1974.307
-6.546	22.596	1869.798	1974.322
-5.531	22.506	1869.216	1972.625
-4.517	22.324	1868.178	1969.403
-3.502	22.502	1867.273	1970.366
-2.487	22.482	1866.254	1968.986
-1.473	22.614	1861.717	1965.609
-0.458	22.286	1844.063	1943.246
0.556	18.995	1991.261	2046.800
1.571	17.802	2193.131	2238.300
2.586	18.479	2232.499	2287.298
3.600	18.504	2234.832	2289.747
4.615	18.434	2233.903	2287.580
5.629	18.552	2232.493	2287.439
6.644	18.456	2230.453	2283.798
7.659	18.470	2228.390	2281.588
8.673	18.528	2227.261	2280.937
9.688	18.288	2234.875	2285.249
10.702	17.289	2316.226	2354.241
11.717	15.954	2379.535	2399.208
12.731	7.726	2360.816	2262.750
13.746	1.062	2343.619	2151.121
14.761	0.187	2339.557	2134.673
15.775	0.082	2337.558	2131.098
16.790	0.070	2335.228	2128.552
17.804	0.013	2334.707	2127.016
18.819	0.114	2332.604	2126.273
19.834	0.074	2330.614	2123.635
20.848	-0.009	2330.477	2122.074
21.863	0.009	2329.012	2120.752
22.877	0.017	2326.916	2118.702
23.892	-0.048	2324.697	2115.501
24.907	-0.092	2322.498	2112.629
25.921	0.010	2319.727	2111.296
26.936	0.015	2317.973	2109.521
27.950	-0.087	2315.775	2105.829
28.965	-0.002	2313.667	2104.859
29.980	0.067	2311.769	2103.844
30.994	0.049	2310.028	2101.750
32.009	4.097	2323.163	2170.551
33.023	13.598	2350.277	2330.482
34.038	17.527	2356.319	2391.761
35.053	17.899	2353.730	2394.091
36.067	18.026	2351.930	2393.768
37.082	17.912	2350.689	2390.619
38.096	17.985	2348.773	2389.406
39.111	18.159	2346.684	2389.442
40.126	18.260	2344.953	2388.804
41.140	18.412	2342.321	2387.966
42.155	18.119	2340.753	2381.987
43.169	18.112	2339.215	2380.035
44.184	18.170	2334.977	2376.249
45.199	18.002	2334.408	2373.037
46.213	18.061	2333.315	2372.468
47.228	18.053	2332.437	2371.185
48.242	18.048	2330.520	2368.882
49.257	18.241	2328.081	2368.806
50.271	18.240	2325.196	2365.574
51.286	18.174	2322.128	2361.243
52.301	17.923	2321.084	2356.420
53.315	18.337	2323.201	2364.031
54.330	19.889	2326.135	2388.289
55.344	20.896	2325.467	2401.272
56.359	20.976	2322.049	2398.561
57.374	21.137	2320.991	2399.399
58.388	21.271	2318.661	2398.561
59.403	21.229	2315.705	2394.633
60.417	21.029	2312.373	2388.145
61.432	21.165	2311.847	2389.194
62.447	21.365	2310.023	2389.773
63.461	21.475	2308.048	2388.955
64.476	21.540	2305.936	2387.363
65.490	21.433	2304.724	2384.360
66.505	20.813	2302.440	2373.230
67.520	19.509	2297.030	2349.528
68.534	18.318	2291.532	2327.368
69.549	18.163	2286.375	2319.741
70.563	18.158	2284.748	2317.743
71.578	18.182	2282.907	2315.917
72.593	18.244	2281.701	2315.262
73.607	18.390	2280.403	2315.657
74.622	18.399	2277.781	2312.832
75.636	18.126	2275.237	2306.280
76.651	18.216	2272.982	2304.937
77.666	18.349	2271.692	2305.153
78.680	18.249	2269.506	2301.299
79.695	18.179	2266.814	2297.347
80.709	18.325	2265.202	2297.410
81.724	18.137	2263.660	2293.042
82.739	18.071	2261.936	2290.134
83.753	18.094	2258.990	2287.182
84.768	18.009	2258.508	2285.274
85.782	18.163	2256.321	2284.863
86.797	18.210	2254.513	2283.384
87.812	18.028	2252.450	2278.585
88.826	18.098	2249.218	2275.977
89.841	18.198	2248.160	2275.974
90.855	18.234	2245.230	2273.217
91.870	18.130	2243.309	2269.608
92.884	18.140	2242.691	2268.843
93.899	18.046	2241.707	2266.327
94.914	18.338	2242.588	2270.839
95.928	19.658	2246.509	2292.151
96.943	20.265	2244.226	2297.631
97.957	18.910	2237.127	2272.102
98.972	18.207	2233.207	2258.518
99.987	18.114	2229.339	2253.109
101.001	18.031	2227.357	2249.737
102.016	18.123	2225.101	2248.406
103.030	17.971	2223.801	2244.804
104.045	18.055	2222.393	2244.222
105.060	18.146	2220.147	2242.896
106.074	18.216	2217.626	2240.993
107.089	18.129	2214.760	2236.685
108.103	18.177	2214.426	2236.710
109.118	18.196	2213.082	2235.342
110.133	18.200	2211.949	2233.985
111.147	18.227	2210.033	2232.126
112.162	18.366	2208.172	2231.807
113.176	18.132	2206.081	2226.371
114.191	18.267	2203.061	2224.813
115.206	18.146	2203.074	2222.981
116.220	18.135	2200.308	2219.783
117.235	18.082	2198.595	2217.089
118.249	18.127	2196.845	2215.651
119.264	18.226	2194.995	2214.813
120.279	18.269	2194.213	2214.316
121.293	18.154	2190.762	2209.066
122.308	18.173	2190.176	2208.469
123.322	18.143	2189.494	2207.118
124.337	18.306	2189.554	2209.035
125.352	19.916	2193.376	2233.529
126.366	20.279	2191.198	2235.743
127.381	18.750	2183.748	2208.122
128.395	18.012	2179.846	2194.394
129.410	18.109	2178.115	2193.635
130.424	18.307	2176.049	2193.846
131.439	18.095	2173.730	2188.510
132.454	18.118	2172.027	2186.830
133.468	18.188	2169.538	2184.964
134.483	18.005	2169.635	2182.451
135.497	18.030	2168.072	2180.934
136.512	18.159	2165.158	2179.398
137.527	18.026	2163.907	2176.181
138.541	17.956	2163.047	2174.149
139.556	17.939	2161.835	2172.452
140.570	17.913	2160.100	2170.118
141.585	18.042	2157.603	2169.005
142.600	18.099	2155.822	2167.681
143.614	18.082	2154.993	2166.369
144.629	18.043	2153.605	2164.222
145.643	17.891	2151.563	2159.974
146.658	18.047	2149.529	2159.655
147.673	18.062	2146.855	2156.897
148.687	18.112	2146.701	2157.118
149.702	18.165	2145.443	2156.270
150.716	18.135	2144.605	2154.792
151.731	18.215	2143.466	2154.393
152.746	18.294	2142.804	2154.472
153.760	18.542	2143.601	2158.152
154.775	19.919	2147.264	2179.017
155.789	20.247	2144.735	2180.341
156.804	18.825	2136.952	2154.263
157.819	18.165	2131.814	2140.525
158.833	17.999	2130.146	2136.496
159.848	18.146	2128.666	2136.608
160.862	18.299	2127.134	2136.732
161.877	18.425	2126.369	2137.291
162.892	18.384	2124.940	2135.079
163.906	18.293	2123.302	2132.038
164.921	18.213	2120.794	2128.265
165.935	18.246	2118.537	2126.166
166.950	18.132	2117.538	2123.483
167.964	18.156	2114.307	2120.292
168.979	18.034	2113.492	2117.694
169.994	18.113	2112.400	2117.331
171.008	18.178	2110.435	2115.911
172.023	18.069	2109.432	2113.298
173.037	18.160	2108.259	2113.008
174.052	18.195	2105.903	2110.822
175.067	18.061	2104.495	2107.500
176.081	18.106	2103.621	2106.925
177.096	18.122	2102.204	2105.462
178.110	17.969	2099.759	2100.867
179.125	17.956	2099.229	2099.922
180.140	18.093	2098.353	2100.489
181.154	18.080	2096.673	2098.388
182.169	18.050	2094.326	2095.423
183.183	18.331	2095.474	2099.783
184.198	19.943	2099.398	2123.358
185.213	20.382	2096.805	2125.884
186.227	18.930	2090.778	2101.687
187.242	18.255	2087.255	2089.614
188.256	18.137	2086.545	2087.208
189.271	18.183	2084.859	2085.836
190.286	18.200	2082.991	2083.927
191.300	18.043	2080.655	2079.417
192.315	17.976	2079.258	2076.951
193.329	18.100	2078.118	2077.078
194.344	18.346	2076.506	2078.221
195.359	18.304	2075.548	2076.500
196.373	18.267	2073.286	2073.536
197.388	18.116	2072.053	2070.218
198.402	18.184	2068.955	2067.706
199.417	17.994	2067.281	2063.479
200.432	18.131	2065.348	2062.960
201.446	18.161	2064.958	2062.688
202.461	18.148	2063.103	2060.428
203.475	18.002	2060.625	2055.949
204.490	18.106	2058.844	2055.178
205.504	18.189	2056.625	2053.723
206.519	18.119	2054.012	2050.016
207.534	17.933	2053.134	2046.653
208.548	18.106	2051.751	2047.114
209.563	18.078	2050.558	2045.346
210.577	18.007	2049.728	2043.420
211.592	18.169	2049.018	2044.415
212.607	18.872	2051.790	2055.389
213.621	20.763	2054.954	2081.048
214.636	20.325	2049.705	2070.241
215.650	18.584	2043.788	2043.192
216.665	18.131	2041.422	2035.163
217.680	18.251	2040.212	2035.143
218.694	18.273	2038.844	2033.793
219.709	18.156	2036.258	2029.582
220.723	18.112	2035.645	2028.196
221.738	18.205	2034.158	2027.587
222.753	18.100	2031.678	2023.620
223.767	18.167	2030.143	2022.651
224.782	18.085	2027.738	2019.033
225.796	18.124	2027.464	2018.977
226.811	18.246	2025.183	2017.913
227.826	18.144	2023.821	2015.109
228.840	18.330	2022.740	2015.988
229.855	18.171	2022.203	2013.331
230.869	18.291	2020.080	2012.404
231.884	18.253	2017.806	2009.446
232.899	18.086	2016.621	2006.054
233.913	18.134	2014.915	2004.684
234.928	18.248	2014.087	2004.963
235.942	18.250	2012.919	2003.579
236.957	18.112	2011.598	2000.398
237.972	18.099	2009.918	1998.347
238.986	18.234	2009.131	1998.904
240.001	18.243	2006.803	1996.459
241.015	18.237	2004.777	1994.132
242.030	18.489	2006.364	1998.419
243.045	19.861	2009.427	2017.330
244.059	20.142	2006.601	2017.532
245.074	18.660	2000.361	1993.723
246.088	18.112	1996.896	1983.646
247.103	18.121	1995.085	1981.717
248.117	18.120	1994.345	1980.728
249.132	18.251	1992.682	1980.360
250.147	18.129	1991.144	1977.177
251.161	18.018	1988.564	1973.089
252.176	18.197	1987.924	1974.298
253.190	18.352	1986.784	1974.728
254.205	18.233	1984.784	1971.129
255.220	18.287	1982.949	1969.692
256.234	18.260	1981.863	1968.069
257.249	18.265	1980.743	1966.770
258.263	18.284	1979.957	1965.975
259.278	18.349	1978.289	1964.833
260.293	18.229	1976.142	1961.082
261.307	18.149	1974.611	1958.406
262.322	18.098	1972.474	1955.466
263.336	18.016	1971.586	1953.419
264.351	17.994	1969.800	1951.154
265.366	18.008	1968.139	1949.436
266.380	18.150	1967.737	1950.434
267.395	17.945	1966.961	1947.083
268.409	17.926	1965.039	1944.728
269.424	18.143	1963.244	1945.204
270.439	18.072	1963.008	1943.928
271.453	18.707	1962.417	1950.367
272.468	20.098	1964.869	1968.460
273.482	20.330	1961.389	1967.383
274.497	18.780	1955.896	1944.011
275.512	18.160	1952.324	1933.193
276.526	18.132	1950.523	1930.850
277.541	18.120	1948.494	1928.477
278.555	18.030	1947.833	1926.573
279.570	18.004	1945.620	1923.861
280.585	17.880	1944.503	1921.123
281.599	18.018	1943.190	1921.150
282.614	18.149	1942.246	1921.475
283.628	18.303	1940.938	1921.685
284.643	18.307	1940.543	1921.110
285.657	18.438	1938.984	1920.808
286.672	18.543	1937.259	1920.057
287.687	18.389	1935.809	1916.657
288.701	18.443	1934.252	1915.491
289.716	18.212	1932.671	1911.109
290.730	18.225	1930.856	1909.229
291.745	18.345	1930.013	1909.515
292.760	18.205	1929.509	1907.212
293.774	18.179	1928.223	1905.427
294.789	18.382	1926.932	1906.196
295.803	18.238	1924.671	1902.115
296.818	18.101	1923.426	1899.130
297.833	18.079	1922.227	1897.477
298.847	17.974	1921.381	1895.236
299.862	18.105	1919.063	1894.185
300.876	18.574	1918.102	1898.223
301.891	20.087	1922.040	1918.754
302.906	20.490	1920.761	1921.724
303.920	18.934	1915.670	1899.143
304.935	18.337	1912.176	1888.824
305.949	18.298	1908.841	1884.874
306.964	18.233	1906.452	1881.573
307.979	18.238	1904.870	1879.845
308.993	18.176	1904.875	1878.937
310.008	18.217	1903.132	1877.443
311.022	18.348	1902.217	1877.767
312.037	18.448	1901.377	1877.812
313.052	18.429	1899.343	1875.365
314.066	18.286	1897.218	1871.472
315.081	18.400	1896.203	1871.496
316.095	18.195	1895.938	1868.769
317.110	18.356	1892.822	1867.239
318.125	18.272	1892.590	1865.857
319.139	18.218	1891.366	1863.839
320.154	18.429	1889.556	1864.140
321.168	18.352	1888.581	1862.115
322.183	18.381	1887.016	1860.670
323.197	18.281	1885.015	1857.382
324.212	17.984	1883.408	1852.340
325.227	18.016	1881.825	1850.904
326.241	18.095	1879.488	1849.249
327.256	18.139	1878.975	1848.997
328.270	18.217	1877.909	1848.571
329.285	18.096	1878.352	1847.471
330.300	18.813	1880.382	1857.039
331.314	20.411	1882.248	1876.025
332.329	20.240	1878.043	1869.759
333.343	18.629	1872.236	1846.339
334.358	18.254	1869.786	1839.649
335.373	18.286	1868.060	1838.083
336.387	18.214	1866.203	1835.256
337.402	18.246	1864.356	1833.563
338.416	18.146	1863.218	1831.152
339.431	18.148	1862.829	1830.576
340.446	18.446	1860.609	1831.368
341.460	18.475	1858.681	1829.564
342.475	18.373	1857.793	1827.382
343.489	18.376	1856.313	1825.739
344.504	18.395	1855.578	1825.000
345.519	18.514	1853.579	1824.086
346.533	18.500	1851.836	1822.004
347.548	18.510	1851.248	1821.319
348.562	18.508	1849.841	1819.694
349.577	18.423	1848.777	1817.520
350.592	18.501	1847.086	1816.474
351.606	18.454	1846.465	1815.139
352.621	18.295	1844.347	1811.150
353.635	18.070	1842.897	1807.120
354.650	18.075	1840.807	1804.905
355.665	18.232	1838.194	1803.799
356.679	18.133	1837.395	1801.744
357.694	18.085	1837.184	1800.813
358.708	18.206	1835.836	1800.562
359.723	18.903	1837.599	1809.450
360.738	20.542	1839.872	1828.819
361.752	20.062	1835.827	1819.512
362.767	18.679	1830.919	1799.865
363.781	18.131	1828.569	1791.570
364.796	18.056	1828.332	1790.331
365.810	18.060	1827.060	1788.912
366.825	18.097	1825.238	1787.301
367.840	18.176	1824.182	1786.883
368.854	18.166	1823.844	1786.234
369.869	18.103	1820.883	1782.465
370.883	17.968	1819.131	1779.120
371.898	18.050	1817.947	1778.607
372.913	18.195	1817.161	1779.137
373.927	18.103	1816.340	1777.167
374.942	18.187	1814.770	1776.292
375.956	18.214	1813.420	1775.039
376.971	18.140	1811.344	1772.022
377.986	17.991	1810.083	1769.029
379.000	18.025	1808.489	1767.612
380.015	18.256	1808.009	1769.332
381.029	18.427	1806.444	1769.360
382.044	18.277	1804.239	1765.436
383.059	18.284	1801.952	1763.061
384.073	18.178	1800.657	1760.483
385.088	18.101	1800.208	1759.038
386.102	18.086	1798.391	1756.897
387.117	17.902	1796.734	1753.171
388.132	17.847	1796.378	1752.049
389.146	18.491	1799.344	1761.381
390.161	20.238	1801.182	1781.015
391.175	20.111	1795.738	1774.115
392.190	18.518	1789.133	1751.029
393.205	18.114	1786.534	1744.141
394.219	18.140	1785.453	1743.137
395.234	18.095	1784.308	1741.353
396.248	18.112	1782.933	1739.980
397.263	18.167	1779.595	1737.076
398.278	18.050	1778.240	1734.348
399.292	18.045	1777.966	1733.822
400.307	18.293	1777.580	1735.768
401.321	18.452	1777.147	1736.758
402.336	18.429	1774.523	1733.746
403.350	18.376	1773.464	1731.966
404.365	18.471	1772.843	1732.119
405.380	18.732	1771.192	1732.946
406.394	18.590	1769.805	1729.947
407.409	18.488	1768.384	1727.314
408.423	18.511	1766.982	1725.970
409.438	18.473	1765.427	1723.858
410.453	18.487	1764.185	1722.585
411.467	18.427	1763.775	1721.377
412.482	18.323	1761.920	1718.311
413.496	18.192	1760.815	1715.705
414.511	18.320	1758.572	1714.595
415.526	18.251	1755.812	1711.009
416.540	18.183	1755.101	1709.434
417.555	18.147	1754.274	1708.058
418.569	18.096	1754.080	1707.156
419.584	18.084	1754.477	1707.211
420.599	18.150	1754.008	1707.218
421.613	18.376	1752.225	1707.539
422.628	18.223	1750.949	1704.560
423.642	18.136	1749.224	1701.809
424.657	18.249	1747.289	1700.850
425.672	18.028	1746.389	1697.566
426.686	18.179	1744.701	1697.227
427.701	18.158	1743.455	1695.603
428.715	18.093	1741.867	1693.202
429.730	18.180	1741.289	1693.311
430.745	18.356	1739.213	1692.839
431.759	18.304	1738.962	1691.868
432.774	18.203	1737.885	1689.622
433.788	18.123	1737.545	1688.294
434.803	18.264	1736.632	1688.601
435.818	18.123	1735.870	1686.259
436.832	17.999	1734.987	1683.970
437.847	17.080	1728.615	1668.507
438.861	9.817	1707.273	1576.612
439.876	1.732	1693.436	1484.646
440.890	0.398	1689.364	1467.853
441.905	0.209	1688.163	1464.786
442.920	0.136	1686.911	1462.811
443.934	0.123	1685.742	1461.496
444.949	0.140	1685.119	1460.940
445.963	-0.000	1684.238	1458.637
446.978	0.160	1683.545	1459.422
447.993	0.020	1682.242	1456.758
449.007	0.225	1679.298	1456.024
450.022	0.176	1677.014	1453.399
451.036	0.078	1676.748	1452.042
452.051	1.097	1681.534	1465.921
453.066	8.840	1699.153	1556.942
454.080	16.445	1709.847	1641.037
455.095	17.902	1710.763	1655.935
456.109	17.795	1711.079	1655.002
457.124	17.914	1710.166	1655.079
458.139	17.881	1709.335	1653.755
459.153	17.958	1706.932	1651.978
460.168	17.970	1704.911	1649.947
461.182	17.912	1704.285	1648.579
462.197	17.906	1702.483	1646.578
463.212	17.901	1700.917	1644.819
464.226	17.983	1699.866	1644.398
465.241	17.944	1698.477	1642.479
466.255	17.960	1697.501	1641.496
467.270	17.867	1696.644	1639.575
468.285	17.868	1695.737	1638.512
469.299	17.799	1694.342	1636.300
470.314	17.856	1691.705	1634.111
471.328	17.875	1690.975	1633.391
472.343	17.975	1689.516	1632.751
473.358	18.048	1688.161	1631.945
474.372	17.896	1686.996	1629.166
475.387	18.004	1685.779	1628.828
476.401	17.946	1684.538	1626.874
477.416	17.940	1684.056	1626.162
478.430	18.037	1682.126	1625.032
479.445	17.781	1682.116	1622.374
480.460	17.847	1680.045	1620.814
481.474	17.859	1679.269	1619.986
482.489	17.863	1678.028	1618.633
483.503	17.958	1675.512	1616.923
484.518	17.935	1674.565	1615.593
485.533	18.043	1673.219	1615.130
486.547	18.004	1671.440	1612.847
487.562	18.062	1670.572	1612.364
488.576	18.080	1668.994	1610.820
489.591	18.002	1668.095	1609.018
490.606	17.973	1666.771	1607.275
491.620	18.008	1665.560	1606.252
492.635	17.988	1663.510	1603.892
493.649	18.047	1662.564	1603.339
494.664	17.922	1661.218	1600.677
495.679	17.769	1659.702	1597.584
496.693	17.812	1658.719	1596.853
497.708	17.938	1657.410	1596.584
498.722	17.993	1656.423	1595.955
499.737	18.052	1654.476	1594.441
500.752	17.900	1653.410	1591.804
501.766	17.984	1651.567	1590.620
502.781	17.977	1649.733	1588.602
503.795	18.051	1648.213	1587.636
504.810	17.996	1648.092	1586.817
505.825	17.995	1647.997	1586.527
506.839	17.914	1646.725	1584.356
507.854	17.985	1644.926	1583.099
508.868	18.004	1643.370	1581.585
509.883	18.067	1642.334	1580.989
510.898	17.965	1641.197	1578.753
511.912	17.999	1639.378	1577.128
512.927	17.836	1637.921	1574.030
513.941	17.927	1636.343	1573.171
514.956	17.987	1635.687	1572.904
515.971	17.853	1634.551	1570.383
516.985	18.009	1633.231	1570.373
518.000	17.999	1632.396	1569.289
519.014	17.943	1631.989	1568.192
520.029	18.008	1629.683	1566.390
521.043	17.917	1629.723	1565.402
522.058	17.987	1627.107	1563.345
523.073	18.088	1626.210	1563.224
524.087	18.143	1624.979	1562.359
525.102	18.008	1624.680	1560.640
526.116	18.024	1622.383	1558.399
527.131	18.050	1622.066	1558.145
528.146	18.060	1621.213	1557.224
529.160	17.977	1619.981	1555.101
530.175	18.073	1618.411	1554.287
531.189	18.091	1617.576	1553.458
532.204	18.026	1615.613	1550.798
533.219	17.963	1614.333	1548.811
534.233	17.997	1614.109	1548.714
535.248	17.904	1613.768	1547.359
536.262	18.011	1612.501	1546.930
537.277	17.996	1610.774	1544.952
538.292	18.205	1609.142	1545.098
539.306	18.089	1607.210	1542.010
540.321	18.000	1606.407	1540.247
541.335	18.127	1604.711	1539.585
542.350	18.110	1603.053	1537.656
543.365	18.062	1601.860	1535.894
544.379	18.156	1600.041	1534.819
545.394	18.094	1599.554	1533.608
546.408	18.003	1597.762	1530.882
547.423	17.957	1596.775	1529.340
548.438	17.974	1596.235	1528.793
549.452	17.937	1595.267	1527.348
550.467	18.143	1593.513	1527.335
551.481	17.929	1592.342	1524.110
552.496	17.983	1591.213	1523.336
553.511	18.075	1590.171	1522.975
554.525	17.986	1589.658	1521.513
555.540	18.114	1588.781	1521.630
556.554	18.175	1587.201	1520.478
557.569	18.225	1585.310	1518.930
558.583	18.060	1583.599	1515.642
559.598	18.013	1583.210	1514.675
560.613	17.986	1582.592	1513.654
561.627	18.063	1580.996	1512.631
562.642	18.167	1578.271	1510.768
563.656	18.148	1577.205	1509.397
564.671	18.020	1576.793	1507.688
565.686	18.073	1576.074	1507.290
566.700	18.015	1574.792	1505.370
567.715	17.913	1573.313	1502.878
568.729	18.009	1571.773	1502.076
569.744	18.115	1569.878	1501.020
570.759	17.969	1568.802	1498.525
571.773	18.148	1567.090	1498.281
572.788	18.025	1566.345	1496.305
573.802	17.992	1565.224	1494.773
574.817	17.923	1564.657	1493.444
575.832	17.948	1563.473	1492.350
576.846	18.017	1561.856	1491.238
577.861	18.133	1560.169	1490.465
578.875	18.088	1559.889	1489.626
579.890	18.245	1558.315	1489.315
580.905	18.136	1557.369	1487.280
581.919	18.073	1557.451	1486.626
582.934	18.159	1556.289	1486.093
583.948	18.111	1555.151	1484.408
584.963	18.022	1553.140	1481.533
585.978	17.976	1552.162	1480.029
586.992	18.047	1551.627	1479.953
588.007	18.257	1550.246	1480.287
589.021	18.284	1549.664	1479.789
590.036	18.163	1547.737	1476.723
591.051	18.227	1546.556	1475.976
592.065	18.222	1545.122	1474.381
593.080	18.239	1543.392	1472.704
594.094	18.210	1542.099	1471.048
595.109	18.094	1540.189	1468.045
596.123	17.964	1539.005	1465.619
597.138	18.120	1538.383	1466.197
598.153	18.159	1537.021	1465.060
599.167	18.136	1535.902	1463.623
600.182	18.216	1534.559	1462.851
601.196	18.250	1533.971	1462.409
602.211	18.197	1532.375	1460.256
603.226	18.168	1531.426	1458.929
604.240	18.126	1530.166	1457.195
605.255	18.150	1528.888	1456.009
606.269	18.149	1528.625	1455.577
607.284	18.167	1527.508	1454.487
608.299	18.155	1525.732	1452.519
609.313	18.109	1524.542	1450.820
610.328	18.070	1523.072	1448.923
611.342	18.015	1522.586	1447.819
612.357	18.157	1521.737	1448.043
613.372	18.183	1520.330	1446.750
614.386	18.208	1518.758	1445.291
615.401	18.128	1518.607	1444.297
616.415	18.111	1517.900	1443.308
617.430	18.154	1517.032	1442.674
618.445	18.211	1515.707	1441.722
619.459	18.076	1514.542	1439.306
620.474	18.085	1513.146	1437.883
621.488	18.141	1511.916	1437.009
622.503	17.970	1510.993	1434.523
623.518	18.053	1510.389	1434.471
624.532	18.220	1508.732	1434.136
625.547	18.208	1507.755	1432.935
626.561	18.258	1507.318	1432.770
627.576	18.157	1505.806	1430.310
628.591	18.177	1503.510	1428.128
629.605	18.165	1502.577	1426.967
630.620	18.172	1501.699	1426.025
631.634	18.221	1501.047	1425.644
632.649	18.169	1499.808	1423.864
633.663	18.247	1498.377	1422.980
634.678	18.318	1497.211	1422.298
635.693	18.254	1496.048	1420.490
636.707	18.202	1494.489	1418.403
637.722	18.188	1493.353	1417.042
638.736	18.289	1492.950	1417.327
639.751	18.403	1490.943	1416.200
640.766	18.286	1489.767	1413.942
641.780	18.353	1487.940	1412.597
642.795	18.250	1487.479	1411.134
643.809	18.221	1487.013	1410.285
644.824	18.376	1485.586	1410.049
645.839	18.161	1485.328	1407.851
646.853	18.275	1483.604	1406.990
647.868	18.295	1482.842	1406.268
648.882	18.223	1481.181	1403.930
649.897	18.239	1480.532	1403.283
650.912	18.297	1478.930	1402.073
651.926	18.260	1477.683	1400.416
652.941	18.301	1476.130	1399.115
653.955	18.290	1474.599	1397.400
654.970	18.192	1473.308	1395.208
655.985	18.275	1472.563	1395.016
656.999	18.254	1471.180	1393.365
658.014	18.298	1470.028	1392.472
659.028	18.257	1468.166	1390.207
660.043	18.346	1467.931	1390.539
661.058	18.276	1467.192	1389.102
662.072	18.367	1466.506	1389.031
663.087	18.246	1465.235	1386.678
664.101	18.349	1463.170	1385.389
665.116	18.337	1462.178	1384.193
666.131	18.121	1461.661	1381.785
667.145	18.311	1460.194	1381.768
668.160	18.423	1459.014	1381.400
669.174	18.387	1457.818	1379.811
670.189	18.253	1456.341	1377.162
671.204	18.314	1455.629	1376.814
672.218	18.206	1455.827	1375.968
673.233	18.407	1454.024	1375.716
674.247	18.345	1453.189	1374.262
675.262	18.302	1452.294	1372.910
676.276	18.326	1450.804	1371.528
677.291	18.194	1450.349	1369.873
678.306	18.310	1449.464	1369.804
679.320	18.262	1447.262	1367.176
680.335	18.141	1446.969	1365.761
681.349	18.402	1446.190	1366.954
682.364	18.315	1445.305	1365.258
683.379	18.208	1444.046	1363.047
684.393	18.317	1442.625	1362.415
685.408	18.298	1441.332	1360.883
686.422	18.197	1440.587	1359.204
687.437	18.222	1440.015	1358.706
688.452	18.325	1439.278	1358.668
689.466	18.348	1437.195	1356.719
690.481	18.348	1435.791	1355.236
691.495	18.234	1434.826	1353.251
692.510	18.260	1433.732	1352.269
693.525	18.111	1432.733	1349.983
694.539	18.217	1432.038	1350.010
695.554	18.162	1431.833	1349.216
696.568	18.328	1429.849	1348.497
697.583	18.288	1429.000	1347.215
698.598	18.230	1428.482	1346.113
699.612	18.299	1427.517	1345.585
700.627	18.406	1425.981	1344.822
701.641	18.281	1424.894	1342.649
702.656	18.378	1423.769	1342.191
703.671	18.419	1422.969	1341.598
704.685	18.392	1421.981	1340.298
705.700	18.482	1420.833	1339.764
706.714	18.273	1419.868	1337.050
707.729	18.334	1418.363	1335.948
708.744	18.341	1417.389	1334.927
709.758	18.275	1416.080	1333.023
710.773	18.463	1414.571	1332.912
711.787	18.425	1413.507	1331.446
712.802	18.514	1411.753	1330.333
713.816	18.511	1411.009	1329.451
714.831	18.338	1410.624	1327.582
715.846	18.581	1409.299	1328.063
716.860	18.560	1408.147	1326.657
717.875	18.511	1406.765	1324.814
718.889	18.424	1405.365	1322.662
719.904	18.527	1404.527	1322.512
720.919	18.569	1403.893	1322.084
721.933	18.598	1402.454	1320.797
722.948	18.395	1402.682	1319.284
723.962	18.473	1401.447	1318.564
724.977	18.420	1400.075	1316.707
725.992	18.458	1398.644	1315.495
727.006	18.481	1397.590	1314.527
728.021	18.454	1396.593	1313.221
729.035	18.514	1394.560	1311.617
730.050	18.445	1393.983	1310.383
731.065	18.373	1393.658	1309.366
732.079	18.280	1392.244	1307.172
733.094	18.412	1390.855	1306.723
734.108	18.475	1389.181	1305.475
735.123	18.314	1388.281	1303.243
736.138	18.354	1387.318	1302.485
737.152	18.465	1386.323	1302.243
738.167	18.373	1385.535	1300.649
739.181	18.518	1384.048	1300.197
740.196	18.478	1383.705	1299.421
741.211	18.404	1382.979	1298.019
742.225	18.505	1381.938	1297.651
743.240	18.441	1380.781	1295.924
744.254	18.445	1379.151	1294.267
745.269	18.455	1378.111	1293.214
746.284	18.464	1377.412	1292.472
747.298	18.365	1376.429	1290.643
748.313	18.425	1375.343	1289.923
749.327	18.256	1374.366	1287.579
750.342	18.211	1373.820	1286.573
751.356	18.078	1372.744	1284.403
752.371	18.236	1370.996	1283.808
753.386	18.246	1370.604	1283.361
754.400	18.476	1369.289	1283.712
755.415	18.636	1367.951	1283.508
756.429	18.588	1366.635	1281.753
757.444	18.413	1365.933	1279.632
758.459	18.506	1365.042	1279.342
759.473	18.578	1363.921	1278.678
760.488	18.532	1362.991	1277.307
761.502	18.533	1361.816	1276.063
762.517	18.644	1360.576	1275.575
763.532	18.635	1359.280	1274.140
764.546	18.512	1358.193	1272.051
765.561	18.536	1357.780	1271.693
766.575	18.535	1356.598	1270.423
767.590	18.513	1355.652	1269.223
768.605	18.345	1354.616	1266.851
769.619	18.435	1353.454	1266.284
770.634	18.614	1352.133	1266.223
771.648	18.605	1351.270	1265.193
772.663	18.600	1350.787	1264.552
773.678	18.528	1350.301	1263.413
774.692	18.586	1348.919	1262.399
775.707	18.521	1348.715	1261.580
776.721	18.563	1347.543	1260.641
777.736	18.557	1345.843	1258.855
778.751	18.571	1345.070	1258.081
779.765	18.606	1343.984	1257.177
780.780	18.455	1343.882	1255.815
781.794	18.496	1342.603	1254.777
782.809	18.495	1341.330	1253.429
783.824	18.471	1340.363	1252.200
784.838	18.283	1338.407	1248.844
785.853	18.130	1338.421	1247.581
786.867	18.048	1337.810	1246.263
787.882	18.187	1336.922	1246.305
788.897	18.319	1336.124	1246.374
789.911	18.370	1335.273	1245.807
790.926	18.361	1333.664	1244.091
791.940	18.470	1331.561	1242.773
792.955	18.598	1329.961	1242.068
793.969	18.525	1329.479	1240.934
794.984	18.387	1329.706	1239.992
795.999	18.464	1328.471	1239.255
797.013	18.707	1326.252	1238.796
798.028	18.617	1324.672	1236.519
799.042	18.434	1324.934	1235.296
800.057	18.419	1323.877	1234.052
801.072	18.502	1322.118	1232.865
802.086	18.540	1321.217	1232.151
803.101	18.480	1320.357	1230.769
804.115	18.774	1319.420	1231.866
805.130	18.468	1318.379	1228.542
806.145	18.597	1317.341	1228.355
807.159	18.777	1315.692	1227.968
808.174	18.606	1314.339	1225.329
809.188	18.576	1313.183	1223.890
810.203	18.563	1312.164	1222.702
811.218	18.506	1310.606	1220.692
812.232	18.399	1309.111	1218.392
813.247	18.353	1307.891	1216.781
814.261	18.470	1307.973	1217.546
815.276	18.735	1306.508	1217.929
816.291	18.537	1306.112	1215.999
817.305	18.634	1304.768	1215.293
818.320	18.675	1302.886	1213.691
819.334	18.544	1301.857	1211.652
820.349	18.554	1300.366	1210.195
821.364	18.699	1299.190	1209.983
822.378	18.584	1297.768	1207.699
823.393	18.599	1296.170	1206.168
824.407	18.604	1295.585	1205.516
825.422	18.506	1294.779	1203.934
826.437	18.549	1294.000	1203.369
827.451	18.262	1292.648	1199.940
828.466	18.323	1290.633	1198.356
829.480	18.252	1289.258	1196.440
830.495	18.282	1287.643	1195.007
831.509	18.304	1287.356	1194.752
832.524	18.305	1286.822	1194.119
833.539	18.398	1285.794	1193.676
834.553	18.489	1284.614	1193.077
835.568	18.681	1282.606	1192.410
836.582	18.553	1281.987	1190.795
837.597	18.680	1280.744	1190.384
838.612	18.682	1279.142	1188.770
839.626	18.677	1278.075	1187.599
840.641	18.658	1277.216	1186.524
841.655	18.689	1276.376	1185.819
842.670	18.643	1274.991	1184.071
843.685	18.515	1274.343	1182.442
844.699	18.588	1273.186	1181.728
845.714	18.619	1272.245	1180.928
846.728	18.821	1271.334	1181.343
847.743	18.730	1270.034	1179.362
848.758	18.738	1268.561	1177.911
849.772	18.773	1267.281	1176.824
850.787	18.628	1266.336	1174.801
851.801	18.650	1264.868	1173.451
852.816	18.716	1263.528	1172.520
853.831	18.568	1262.022	1169.971
854.845	18.601	1260.390	1168.543
855.860	18.325	1259.231	1165.441
856.874	18.402	1258.708	1165.345
857.889	18.267	1257.140	1162.833
858.904	18.457	1254.986	1161.994
859.918	18.450	1253.460	1160.391
860.933	18.271	1253.071	1158.678
861.947	18.281	1252.883	1158.431
862.962	18.405	1252.005	1158.326
863.977	18.509	1250.153	1157.179
864.991	18.362	1249.470	1155.413
866.006	18.530	1248.983	1155.961
867.020	18.583	1247.527	1154.836
868.035	18.570	1245.787	1152.999
869.049	18.532	1245.261	1152.118
870.064	18.737	1244.568	1152.721
871.079	18.642	1244.241	1151.639
872.093	18.612	1243.914	1150.993
873.108	18.697	1242.438	1150.063
874.122	18.589	1241.399	1148.238
875.137	18.582	1241.149	1147.821
876.152	18.591	1239.850	1146.542
877.166	18.788	1237.290	1145.357
878.181	18.861	1236.454	1144.941
879.195	18.735	1235.923	1143.467
880.210	18.805	1235.478	1143.385
881.225	18.516	1234.699	1140.596
882.239	18.572	1233.462	1139.690
883.254	18.721	1232.057	1139.248
884.268	18.831	1231.289	1139.137
885.283	18.808	1229.944	1137.602
886.298	18.544	1229.081	1134.911
887.312	18.684	1228.090	1134.789
888.327	18.706	1226.780	1133.588
889.341	18.829	1225.048	1132.669
890.356	18.673	1224.435	1130.934
891.371	18.738	1223.693	1130.545
892.385	18.680	1223.801	1130.127
893.400	18.581	1223.276	1128.850
894.414	18.525	1221.385	1126.598
895.429	18.536	1219.867	1125.138
896.444	18.436	1218.095	1122.710
897.458	18.337	1216.932	1120.849
898.473	18.579	1216.509	1121.923
899.487	18.499	1215.594	1120.416
900.502	18.728	1214.453	1120.733
901.517	18.663	1213.567	1119.357
902.531	18.734	1212.756	1118.939
903.546	18.751	1211.922	1118.145
904.560	18.807	1210.936	1117.469
905.575	18.839	1210.332	1116.984
906.589	18.775	1209.535	1115.702
907.604	18.820	1208.891	1115.267
