DTS Sentinel unit serial number:	SN409020Multiplexer serial number:	ORYXHardware model number:	OX4-SRSoftware version number:	ORYX F/W v3.00 Oryx Data Collector v3.7.2.0data status	okinstallation	HaddamTimeLapsedifferential loss correction	single-endedforward channel	channel 3reverse channel	N/Adate	2011/06/21time	22:36:17forward acquisition time	30.00reverse acquisition time	0.00gamma	498.7831k internal	0.1756k external	0.1756temperature offset calibration	1.0074default loss term (dB/km)	0.3790temperature slope calibration	1.3530multiplexer offset coefficient	1.0000multiplexer slope coefficient	1.0000fibre end	0.00T internal ref (°C)	23.97T ext. ref 1 (°C)	18.75T ext. ref 2 (°C)	0.04length (m)	temperature (°C)	Stokes	anti-Stokes-747.200	217.049	0.091	-0.192
-746.185	372.574	0.078	0.210
-745.171	-37.018	-0.360	0.255
-744.156	-122.133	-0.171	0.037
-743.142	-86.295	0.378	-0.153
-742.127	800.000	-0.142	0.591
-741.112	-40.520	0.280	0.192
-740.098	255.998	0.061	-0.140
-739.083	-200.000	-0.037	0.453
-738.069	19.566	0.564	0.601
-737.054	-49.393	-0.314	0.198
-736.039	-200.000	0.012	-0.384
-735.025	-200.000	-0.312	-0.001
-734.010	-111.663	-0.088	-0.024
-732.996	-200.000	-0.028	-0.505
-731.981	-200.000	-0.053	-0.429
-730.966	-135.590	-0.310	0.048
-729.952	-71.727	0.211	-0.104
-728.937	-64.424	-0.332	-0.178
-727.923	200.508	-0.137	-0.280
-726.908	-57.524	-0.063	0.036
-725.894	13.618	-0.290	-0.298
-724.879	-114.365	-0.173	0.044
-723.864	-104.025	-0.092	-0.028
-722.850	-104.359	0.666	0.203
-721.835	-70.847	0.412	0.205
-720.821	-48.165	0.335	0.213
-719.806	-24.918	0.521	0.408
-718.791	70.950	0.074	0.101
-717.777	-177.151	0.269	0.009
-716.762	77.908	-0.016	0.023
-715.748	-104.315	-0.378	0.115
-714.733	-152.356	-0.334	0.031
-713.718	800.000	0.102	-0.485
-712.704	-200.000	-0.041	-0.270
-711.689	641.779	0.163	-0.553
-710.675	-121.127	0.317	0.070
-709.660	96.775	0.178	0.270
-708.645	-65.723	0.444	-0.235
-707.631	-83.310	-0.271	0.115
-706.616	258.681	0.005	0.012
-705.602	-24.697	-0.275	-0.216
-704.587	262.757	0.050	-0.116
-703.572	-200.000	0.072	0.473
-702.558	193.183	0.118	-0.236
-701.543	25.632	-0.117	-0.129
-700.529	-100.836	0.371	0.120
-699.514	-7.312	-0.434	-0.389
-698.499	-66.178	-0.322	-0.169
-697.485	-98.695	-0.321	0.108
-696.470	-90.336	-0.262	0.100
-695.456	-18.521	-0.343	-0.283
-694.441	-73.421	0.033	0.016
-693.426	-75.424	-0.088	-0.041
-692.412	-200.000	0.078	0.481
-691.397	398.887	0.076	-0.211
-690.383	75.670	-0.118	-0.165
-689.368	-69.630	0.135	-0.068
-688.354	-116.375	-0.387	-0.094
-687.339	-200.000	0.030	-0.250
-686.324	322.200	0.236	0.597
-685.310	138.023	0.075	0.131
-684.295	800.000	-0.082	-0.341
-683.281	-81.642	-0.469	0.203
-682.266	-200.000	0.024	-0.243
-681.251	-45.190	-0.223	0.146
-680.237	95.009	-0.296	0.447
-679.222	-116.822	0.182	0.044
-678.208	-13.102	0.107	-0.091
-677.193	15.649	0.259	-0.269
-676.178	377.324	0.096	-0.260
-675.164	-200.000	0.043	0.282
-674.149	-94.072	0.446	0.161
-673.135	-103.740	0.452	-0.139
-672.120	230.437	0.114	-0.246
-671.105	-53.729	0.173	0.104
-670.091	443.893	-0.168	-0.488
-669.076	800.000	0.061	-0.248
-668.062	-200.000	-0.040	-0.404
-667.047	447.996	0.016	-0.046
-666.032	-200.000	-0.065	0.551
-665.018	1.078	0.201	-0.190
-664.003	280.396	-0.210	-0.498
-662.989	-100.111	-0.626	0.205
-661.974	-27.634	0.336	-0.257
-660.959	179.291	0.076	-0.147
-659.945	223.033	-0.090	-0.193
-658.930	238.505	-0.187	0.411
-657.916	-26.955	-0.215	0.166
-656.901	254.056	-0.132	0.300
-655.886	-200.000	-0.060	0.704
-654.872	42.403	-0.119	-0.142
-653.857	-168.838	-0.165	0.008
-652.843	-186.842	-0.283	0.005
-651.828	242.927	-0.307	-0.681
-650.814	-200.000	-0.014	0.139
-649.799	143.645	0.314	-0.553
-648.784	-200.000	-0.055	0.386
-647.770	-97.068	0.449	0.154
-646.755	177.220	0.218	0.420
-645.741	11.206	-0.226	0.228
-644.726	-31.038	-0.212	0.157
-643.711	-164.996	-0.898	-0.052
-642.697	-36.212	-0.187	0.133
-641.682	-146.559	-0.302	-0.034
-640.668	222.500	-0.104	0.223
-639.653	-160.024	-0.334	-0.024
-638.638	198.170	-0.157	0.317
-637.624	255.539	0.087	-0.198
-636.609	46.760	0.146	-0.179
-635.595	37.073	-0.299	-0.349
-634.580	155.659	0.160	-0.291
-633.565	745.013	-0.096	0.343
-632.551	-162.247	-0.101	0.007
-631.536	-66.230	-0.129	-0.068
-630.522	-100.098	0.255	-0.083
-629.507	800.000	0.058	-0.294
-628.492	-96.482	0.314	-0.109
-627.478	33.352	0.394	0.452
-626.463	-60.215	-0.109	0.061
-625.449	-74.261	0.458	-0.218
-624.434	72.484	0.086	-0.119
-623.419	-151.167	0.187	0.018
-622.405	-24.118	0.414	-0.325
-621.390	40.551	-0.112	-0.133
-620.376	657.518	-0.081	-0.278
-619.361	800.000	-0.085	0.373
-618.346	-166.107	-0.081	-0.004
-617.332	-200.000	0.047	0.452
-616.317	800.000	-0.047	0.221
-615.303	-200.000	0.037	-0.349
-614.288	-55.459	-0.182	0.107
-613.273	3.103	0.236	0.226
-612.259	-3.353	0.049	0.045
-611.244	-149.031	0.314	-0.033
-610.230	-200.000	0.015	0.197
-609.215	-200.000	-0.072	-0.456
-608.201	169.068	0.274	-0.516
-607.186	-64.694	0.153	-0.082
-606.171	-48.770	0.434	-0.274
-605.157	241.676	0.119	-0.262
-604.142	728.107	0.065	0.231
-603.128	800.000	-0.097	-0.397
-602.113	-159.206	-0.410	0.030
-601.098	-142.571	-0.304	-0.039
-600.084	-150.277	0.343	0.034
-599.069	-61.132	-0.243	0.135
-598.055	375.076	-0.044	-0.118
-597.040	-182.104	0.170	0.004
-596.025	458.360	-0.046	-0.135
-595.011	-200.000	0.001	-0.074
-593.996	132.427	0.332	0.565
-592.982	35.018	0.274	-0.316
-591.967	-128.447	-0.108	-0.020
-590.952	-12.461	0.278	0.239
-589.938	778.414	-0.117	0.422
-588.923	122.835	-0.103	0.170
-587.909	-27.319	-0.157	0.120
-586.894	-144.830	0.417	-0.050
-585.879	-200.000	0.003	0.079
-584.865	-110.010	-0.464	-0.127
-583.850	130.005	-0.241	-0.407
-582.836	800.000	0.066	-0.357
-581.821	147.412	-0.172	0.307
-580.806	-200.000	-0.003	0.132
-579.792	-87.380	0.091	0.036
-578.777	-75.702	0.203	0.094
-577.763	41.025	-0.056	-0.066
-576.748	408.915	-0.095	0.266
-575.733	-54.816	-0.186	0.110
-574.719	-2.746	0.319	-0.293
-573.704	-39.763	-0.035	0.024
-572.690	51.549	0.181	0.227
-571.675	-194.708	-0.752	0.008
-570.661	-12.827	-0.255	0.218
-569.646	-96.992	0.137	0.047
-568.631	98.387	0.329	-0.499
-567.617	800.000	0.040	-0.200
-566.602	-0.100	0.362	-0.338
-565.588	-65.264	-0.177	0.093
-564.573	-128.348	0.277	0.051
-563.558	79.062	0.149	0.210
-562.544	14.315	0.182	-0.186
-561.529	190.043	-0.054	0.107
-560.515	-51.017	0.176	0.109
-559.500	-200.000	-0.008	0.381
-558.485	-19.145	-0.279	-0.228
-557.471	-200.000	0.021	0.403
-556.456	-62.060	-0.366	0.200
-555.442	-71.271	-0.530	-0.261
-554.427	60.916	-0.310	0.405
-553.412	-143.928	-0.269	-0.033
-552.398	189.131	-0.197	0.390
-551.383	-69.072	0.356	-0.179
-550.369	-200.000	-0.351	0.001
-549.354	-52.250	0.593	0.361
-548.339	-200.000	-0.036	0.503
-547.325	-200.000	0.038	-0.409
-546.310	230.141	0.071	0.153
-545.296	269.865	0.129	-0.300
-544.281	58.317	-0.177	0.228
-543.266	-160.579	-0.395	-0.027
-542.252	-89.544	-0.286	-0.110
-541.237	-125.314	0.680	-0.135
-540.223	-56.305	0.108	0.063
-539.208	-168.506	0.303	-0.015
-538.193	-119.629	0.150	0.034
-537.179	-53.873	-0.234	0.140
-536.164	-57.094	0.132	-0.076
-535.150	-96.156	0.546	0.189
-534.135	114.174	0.183	-0.294
-533.121	-172.111	-0.446	-0.019
-532.106	-200.000	-0.019	0.321
-531.091	-82.061	0.118	-0.050
-530.077	100.623	0.181	-0.277
-529.062	-200.000	-0.005	-0.384
-528.048	45.113	0.072	-0.087
-527.033	-94.654	-0.268	0.095
-526.018	290.051	-0.172	-0.411
-525.004	-15.234	0.467	0.392
-523.989	-200.000	-0.019	0.142
-522.975	-96.304	0.181	0.063
-521.960	-200.000	0.034	0.271
-520.945	72.392	0.106	-0.146
-519.931	-171.337	0.408	0.018
-518.916	-102.942	-0.506	-0.157
-517.902	17.368	-0.128	0.133
-516.887	149.824	0.234	-0.417
-515.872	-56.244	-0.381	-0.222
-514.858	63.181	0.205	-0.270
-513.843	-148.035	0.048	0.005
-512.829	10.767	-0.419	-0.420
-511.814	76.983	-0.141	0.197
-510.799	-200.000	-0.004	0.176
-509.785	-61.831	0.231	0.126
-508.770	679.050	-0.060	-0.206
-507.756	31.518	0.182	0.206
-506.741	-126.089	0.309	-0.060
-505.726	-200.000	0.001	0.063
-504.712	-109.898	0.417	0.114
-503.697	800.000	0.033	-0.191
-502.683	-128.492	-0.249	-0.046
-501.668	-200.000	-0.024	0.273
-500.653	-95.104	0.146	0.052
-499.639	188.278	0.145	0.285
-498.624	-117.691	-0.386	0.090
-497.610	48.749	0.217	0.267
-496.595	-6.032	0.301	-0.270
-495.581	-200.000	-0.025	0.305
-494.566	84.156	-0.199	-0.286
-493.551	506.117	-0.042	0.128
-492.537	99.366	0.024	-0.036
-491.522	-0.522	0.194	-0.180
-490.508	800.000	0.034	-0.171
-489.493	-200.000	0.017	-0.336
-488.478	-71.629	-0.259	0.126
-487.464	201.713	0.043	-0.087
-486.449	-197.453	0.124	0.001
-485.435	800.000	-0.041	-0.179
-484.420	68.023	0.228	-0.307
-483.405	-58.907	-0.111	-0.063
-482.391	-107.545	0.066	-0.019
-481.376	-67.781	0.349	-0.178
-480.362	-31.633	0.293	-0.215
-479.347	800.000	0.040	0.212
-478.332	-95.777	0.545	-0.190
-477.318	-109.709	-0.388	-0.106
-476.303	460.002	0.142	-0.416
-475.289	76.004	0.119	-0.165
-474.274	6.613	0.241	0.235
-473.259	800.000	-0.031	0.126
-472.245	79.072	-0.105	-0.148
-471.230	-7.377	0.193	0.171
-470.216	-7.532	0.290	0.257
-469.201	-115.435	-0.360	-0.088
-468.186	10.624	0.111	0.111
-467.172	-3.669	0.294	0.267
-466.157	-82.584	-0.311	0.131
-465.143	-32.311	0.248	-0.181
-464.128	800.000	-0.041	0.180
-463.113	-197.181	0.830	0.007
-462.099	160.821	0.247	-0.453
-461.084	-71.398	0.037	-0.018
-460.070	58.585	0.176	-0.227
-459.055	81.610	-0.234	-0.332
-458.040	-143.524	0.631	-0.078
-457.026	-200.000	0.007	0.281
-456.011	-32.689	0.163	0.119
-454.997	203.286	-0.059	-0.120
-453.982	-69.376	-0.449	0.225
-452.968	-102.348	-0.233	0.073
-451.953	2.878	-0.427	0.406
-450.938	800.000	0.082	0.351
-449.924	160.120	0.084	0.154
-448.909	800.000	-0.132	-0.526
-447.895	-49.715	-0.281	-0.175
-446.880	63.422	0.243	-0.319
-445.865	-59.394	-0.405	-0.227
-444.851	-123.910	-0.464	-0.095
-443.836	-115.759	-0.425	-0.103
-442.822	-200.000	0.022	-0.252
-441.807	-26.823	-0.135	-0.103
-440.792	730.380	-0.074	0.262
-439.778	170.752	-0.144	0.272
-438.763	-6.935	0.484	-0.430
-437.749	800.000	-0.082	-0.330
-436.734	800.000	-0.088	-0.447
-435.719	-87.447	0.240	0.095
-434.705	-141.168	0.283	0.037
-433.690	-101.491	0.478	-0.151
-432.676	-27.579	0.168	0.127
-431.661	42.962	0.161	-0.192
-430.646	-73.983	-0.378	-0.179
-429.632	23.367	0.316	-0.340
-428.617	620.903	0.112	-0.370
-427.603	-16.135	-0.195	-0.162
-426.588	452.395	0.081	-0.237
-425.573	-74.669	0.361	-0.169
-424.559	-78.105	0.308	0.138
-423.544	800.000	-0.059	-0.308
-422.530	144.339	-0.191	-0.335
-421.515	-200.000	0.006	0.227
-420.500	18.132	-0.175	0.183
-419.486	250.460	0.122	0.272
-418.471	85.616	0.084	-0.121
-417.457	259.917	-0.191	-0.433
-416.442	137.706	-0.235	0.403
-415.428	-122.275	0.277	0.059
-414.413	12.445	-0.246	0.248
-413.398	-172.374	0.133	0.005
-412.384	-155.520	-0.469	0.039
-411.369	800.000	0.113	0.594
-410.355	598.220	-0.127	-0.415
-409.340	-200.000	-0.079	-0.635
-408.325	172.370	-0.201	-0.378
-407.311	-160.229	-0.364	0.025
-406.296	-200.000	0.021	0.435
-405.282	-60.178	0.400	-0.222
-404.267	-66.946	-0.216	-0.111
-403.252	-200.000	-0.005	0.406
-402.238	33.259	0.008	0.009
-401.223	-146.589	-0.518	0.058
-400.209	-159.911	-0.193	-0.014
-399.194	7.298	0.073	0.071
-398.179	-25.923	0.276	0.212
-397.165	-122.998	0.208	0.043
-396.150	504.036	0.113	0.344
-395.136	800.000	0.078	0.319
-394.121	-133.122	-0.315	0.052
-393.106	57.179	0.120	0.153
-392.092	800.000	0.025	-0.135
-391.077	-85.960	-0.230	0.092
-390.063	800.000	-0.118	0.433
-389.048	-145.756	-0.196	0.023
-388.033	42.942	-0.266	-0.317
-387.019	-60.409	0.174	-0.096
-386.004	-94.849	0.290	0.102
-384.990	496.439	-0.128	-0.388
-383.975	-200.000	0.085	-0.506
-382.960	-11.183	-0.201	-0.173
-381.946	151.500	-0.096	-0.172
-380.931	75.591	-0.053	0.073
-379.917	328.436	0.137	0.346
-378.902	312.881	-0.079	0.194
-377.888	-155.669	-0.181	-0.015
-376.873	-48.705	0.150	-0.094
-375.858	52.912	0.317	-0.396
-374.844	137.606	-0.181	-0.311
-373.829	-125.252	-0.190	-0.038
-372.815	36.454	0.079	0.091
-371.800	-0.660	0.233	-0.216
-370.785	800.000	-0.021	-0.099
-369.771	-200.000	0.008	-0.261
-368.756	-130.832	0.445	0.077
-367.742	131.017	0.112	0.189
-366.727	-81.753	0.129	-0.055
-365.712	-92.699	-0.137	-0.050
-364.698	-200.000	-0.007	0.052
-363.683	-18.804	-0.087	0.070
-362.669	4.068	-0.080	0.076
-361.654	-67.616	0.265	0.135
-360.639	8.925	-0.200	0.197
-359.625	238.387	-0.421	-0.916
-358.610	10.073	-0.266	-0.263
-357.596	-165.614	0.162	-0.009
-356.581	-76.444	0.194	0.089
-355.566	-200.000	-0.044	-0.501
-354.552	800.000	-0.062	-0.305
-353.537	-200.000	-0.012	0.347
-352.523	-124.618	0.160	0.032
-351.508	-33.150	-0.323	-0.233
-350.493	-15.691	-0.140	-0.117
-349.479	178.336	-0.047	-0.089
-348.464	528.255	0.094	-0.291
-347.450	-117.054	-0.514	0.121
-346.435	-114.975	-0.306	-0.075
-345.420	-68.282	0.199	0.100
-344.406	125.088	-0.057	0.094
-343.391	-143.062	-0.335	0.042
-342.377	-200.000	-0.010	-0.098
-341.362	-127.697	-0.217	-0.040
-340.348	89.242	0.074	-0.108
-339.333	117.256	0.201	0.323
-338.318	-200.000	0.094	0.927
-337.304	481.427	-0.266	-0.792
-336.289	609.995	-0.158	-0.517
-335.275	800.000	0.068	-0.374
-334.260	-200.000	-0.083	-0.561
-333.245	58.779	-0.236	-0.303
-332.231	192.599	0.113	0.223
-331.216	-200.000	0.024	0.211
-330.202	-123.791	0.202	-0.041
-329.187	71.161	0.219	0.296
-328.172	122.593	-0.106	0.173
-327.158	-200.000	-0.017	0.133
-326.143	692.925	0.011	-0.038
-325.129	-103.383	0.150	-0.046
-324.114	-20.678	-0.127	0.101
-323.099	-83.484	-0.223	0.093
-322.085	78.811	0.046	-0.065
-321.070	-175.210	0.452	0.016
-320.056	272.295	-0.269	-0.622
-319.041	685.067	-0.097	-0.333
-318.026	9.340	0.196	0.194
-317.012	-94.542	0.435	-0.153
-315.997	-105.218	-0.311	-0.092
-314.983	311.381	0.156	-0.382
-313.968	328.190	-0.048	-0.120
-312.953	800.000	-0.053	0.233
-311.939	269.594	-0.034	-0.077
-310.924	17.066	-0.167	-0.173
-309.910	800.000	0.059	-0.310
-308.895	-27.394	0.242	-0.183
-307.880	-92.668	-0.186	-0.068
-306.866	383.079	-0.090	0.242
-305.851	800.000	0.027	0.131
-304.837	-91.864	-0.292	-0.107
-303.822	-109.130	0.473	-0.130
-302.807	106.322	0.100	0.155
-301.793	-143.379	-0.143	0.018
-300.778	278.423	0.074	-0.171
-299.764	-47.741	0.473	-0.298
-298.749	23.575	-0.237	-0.254
-297.735	484.525	0.034	0.101
-296.720	-138.053	-0.492	-0.070
-295.705	-112.362	-0.481	0.124
-294.691	233.889	0.188	0.404
-293.676	-31.302	-0.161	0.118
-292.662	97.715	0.244	0.366
-291.647	-92.011	-0.249	0.091
-290.632	-52.838	-0.385	-0.230
-289.618	-31.664	0.046	-0.034
-288.603	-115.809	-0.277	-0.067
-287.589	-113.746	-0.265	0.067
-286.574	111.069	0.146	0.230
-285.559	-200.000	0.078	0.507
-284.545	356.774	0.138	0.359
-283.530	0.996	-0.178	0.166
-282.516	-93.112	0.169	0.061
-281.501	190.905	0.295	-0.579
-280.486	128.687	-0.132	0.219
-279.472	800.000	-0.147	0.816
-278.457	-200.000	-0.046	0.350
-277.443	800.000	-0.111	0.441
-276.428	235.290	-0.188	0.406
-275.413	-90.418	0.179	0.067
-274.399	365.663	0.077	-0.202
-273.384	405.763	-0.083	-0.229
-272.370	-19.999	-0.621	0.498
-271.355	278.168	-0.055	0.129
-270.340	408.107	-0.182	0.504
-269.326	-200.000	0.010	0.381
-268.311	213.739	0.214	-0.442
-267.297	-83.800	0.180	0.074
-266.282	-57.928	-0.517	0.293
-265.267	-101.623	0.539	-0.169
-264.253	-88.888	-0.327	0.126
-263.238	108.871	-0.273	-0.425
-262.224	90.239	-0.089	0.130
-261.209	148.526	-0.144	0.253
-260.195	-165.982	0.277	-0.015
-259.180	-200.000	-0.001	0.099
-258.165	596.443	0.120	-0.388
-257.151	800.000	0.034	-0.159
-256.136	128.359	0.107	0.177
-255.122	69.664	0.199	0.267
-254.107	231.353	0.195	-0.416
-253.092	28.410	-0.115	0.126
-252.078	-61.816	0.252	0.137
-251.063	89.951	0.074	0.108
-250.049	114.598	0.129	-0.204
-249.034	-58.822	-0.065	0.037
-248.019	-101.345	0.347	-0.109
-247.005	800.000	0.109	-0.435
-245.990	-74.200	-0.284	-0.133
-244.976	800.000	-0.040	0.199
-243.961	297.987	0.070	0.167
-242.946	-200.000	0.034	0.195
-241.932	36.810	-0.068	0.078
-240.917	115.612	-0.310	-0.494
-239.903	-103.764	0.393	0.119
-238.888	337.689	0.053	-0.136
-237.873	368.631	-0.134	0.354
-236.859	800.000	-0.096	0.414
-235.844	-2.550	-0.379	0.344
-234.830	-85.324	-0.390	0.157
-233.815	-44.412	-0.339	-0.220
-232.800	-37.820	-0.118	0.082
-231.786	-89.107	-0.258	0.099
-230.771	10.631	0.267	-0.265
-229.757	175.702	-0.304	-0.575
-228.742	-17.973	-0.207	0.168
-227.727	-89.054	0.376	0.144
-226.713	-149.435	-0.272	0.028
-225.698	-33.465	-0.279	-0.200
-224.684	-200.000	-0.025	0.240
-223.669	-170.335	-0.594	-0.027
-222.655	-83.019	0.236	-0.098
-221.640	-137.491	0.289	-0.042
-220.625	18.711	0.133	-0.138
-219.611	-74.320	-0.357	0.167
-218.596	62.534	-0.308	-0.400
-217.582	-162.741	0.090	0.006
-216.567	-200.000	0.029	0.237
-215.552	0.600	0.315	0.292
-214.538	-11.583	-0.256	0.218
-213.523	-174.493	-0.289	0.011
-212.509	153.372	0.227	-0.405
-211.494	190.452	0.066	-0.128
-210.479	-95.823	-0.089	0.031
-209.465	40.990	0.155	-0.182
-208.450	-19.752	-0.043	0.035
-207.436	294.864	0.152	0.363
-206.421	-125.541	-0.493	0.096
-205.406	-118.061	-0.236	0.054
-204.392	36.540	-0.042	-0.048
-203.377	-99.966	0.425	0.137
-202.363	725.704	-0.061	0.212
-201.348	800.000	-0.124	0.489
-200.333	200.502	0.283	0.566
-199.319	-67.291	0.467	0.238
-198.304	800.000	-0.059	-0.256
-197.290	-35.245	0.075	-0.053
-196.275	-147.183	0.329	0.036
-195.260	110.079	-0.182	-0.284
-194.246	-62.537	-0.413	-0.222
-193.231	-97.317	0.459	0.154
-192.217	-105.962	0.122	0.035
-191.202	-27.632	0.454	0.341
-190.187	178.053	-0.178	0.337
-189.173	-79.851	0.086	-0.037
-188.158	-161.834	0.061	-0.004
-187.144	-200.000	-0.025	0.265
-186.129	-50.217	0.257	-0.157
-185.114	-182.272	-0.202	0.005
-184.100	-28.654	0.312	0.232
-183.085	500.171	-0.048	0.146
-182.071	-116.751	-0.107	-0.025
-181.056	-200.000	-0.040	0.235
-180.042	-200.000	-0.023	0.476
-179.027	43.089	0.132	0.156
-178.012	-184.577	0.104	0.002
-176.998	-200.000	0.048	-0.363
-175.983	800.000	-0.093	0.412
-174.969	-200.000	-0.023	0.147
-173.954	63.285	-0.039	0.051
-172.939	-111.065	0.415	-0.110
-171.925	-126.343	-0.332	0.064
-170.910	-77.521	-0.426	-0.191
-169.896	-191.352	0.294	0.004
-168.881	-158.166	0.495	-0.037
-167.866	-10.355	-0.196	-0.168
-166.852	1.777	-0.204	0.190
-165.837	800.000	0.182	-0.772
-164.823	-98.784	0.322	0.105
-163.808	-18.692	-0.510	0.411
-162.793	146.042	-0.163	0.283
-161.779	234.440	0.159	0.341
-160.764	10.456	0.347	0.342
-159.750	-62.952	-0.194	0.104
-158.735	-21.320	0.253	0.199
-157.720	379.933	0.027	0.073
-156.706	-73.638	-0.299	0.140
-155.691	-200.000	0.013	-0.140
-154.677	53.919	0.123	-0.153
-153.662	356.763	0.123	-0.318
-152.647	-25.362	-0.285	-0.218
-151.633	800.000	-0.141	0.528
-150.618	41.644	-0.122	0.143
-149.604	-64.319	-0.184	-0.097
-148.589	-131.271	-0.340	-0.058
-147.574	-175.952	0.078	0.003
-146.560	-126.816	0.182	0.034
-145.545	89.032	-0.291	0.420
-144.531	-84.749	0.212	0.086
-143.516	800.000	0.043	-0.217
-142.502	-124.797	-0.382	0.076
-141.487	-68.248	0.324	-0.162
-140.472	-200.000	-0.016	-0.545
-139.458	-25.089	0.505	-0.387
-138.443	47.462	-0.139	-0.168
-137.429	-88.806	-0.493	0.188
-136.414	-126.743	-0.297	0.056
-135.399	-76.409	0.091	-0.041
-134.385	410.580	0.175	-0.482
-133.370	-5.678	-0.205	-0.182
-132.356	-149.824	0.244	0.024
-131.341	800.000	-0.040	0.217
-130.326	158.566	-0.211	0.380
-129.312	256.340	-0.173	0.385
-128.297	-26.267	-0.361	0.273
-127.283	-133.935	-0.332	0.053
-126.268	-200.000	0.042	-0.279
-125.253	-122.771	-0.335	0.069
-124.239	-182.417	-0.106	0.002
-123.224	-73.383	0.120	0.056
-122.210	-200.000	-0.020	0.238
-121.195	62.218	0.175	-0.226
-120.180	800.000	-0.014	-0.067
-119.166	-119.164	-0.605	-0.135
-118.151	-84.888	0.387	-0.156
-117.137	-200.000	0.009	0.089
-116.122	-162.013	-0.446	-0.029
-115.107	-134.032	0.043	-0.007
-114.093	-142.021	-0.115	-0.015
-113.078	132.115	0.096	-0.160
-112.064	180.555	0.261	0.497
-111.049	138.737	0.283	0.481
-110.034	115.722	0.304	0.482
-109.020	-45.607	0.354	-0.226
-108.005	-200.000	-0.058	-0.593
-106.991	-200.000	0.005	0.166
-105.976	-38.717	0.250	-0.170
-104.962	-200.000	-0.005	-0.115
-103.947	247.746	-0.103	-0.225
-102.932	-186.610	-0.469	0.008
-101.918	-42.581	-0.282	0.185
-100.903	14.719	0.384	-0.388
-99.889	662.246	0.059	-0.196
-98.874	-37.154	0.291	-0.201
-97.859	590.106	-0.176	0.564
-96.845	-31.859	0.186	0.134
-95.830	163.063	0.156	0.285
-94.816	-94.889	-0.436	-0.152
-93.801	-9.985	0.524	-0.450
-92.786	-169.288	0.176	-0.008
-91.772	-144.821	-0.426	-0.050
-90.757	-77.630	0.327	0.146
-89.743	-71.786	-0.421	-0.202
-88.728	800.000	0.020	-0.078
-87.713	-200.000	0.026	0.265
-86.699	111.774	-0.098	0.153
-85.684	8.708	-0.215	0.209
-84.670	-50.929	0.249	-0.151
-83.655	330.631	-0.041	-0.102
-82.640	-24.213	-0.103	0.079
-81.626	-200.000	0.006	0.108
-80.611	28.560	0.317	0.346
-79.597	65.479	-0.138	-0.180
-78.582	3.457	-0.302	-0.284
-77.567	-150.776	0.088	-0.009
-76.553	-119.693	0.074	0.016
-75.538	-22.424	-0.322	-0.251
-74.524	-200.000	-0.030	-0.475
-73.509	691.604	-0.076	-0.259
-72.494	302.535	0.071	0.170
-71.480	-114.129	-0.154	-0.038
-70.465	800.000	0.048	-0.270
-69.451	-97.073	-0.295	0.099
-68.436	-200.000	-0.054	0.379
-67.422	-154.165	-0.328	-0.028
-66.407	13.239	0.155	0.155
-65.392	15.359	-0.232	0.235
-64.378	-84.567	0.247	0.100
-63.363	-119.848	0.362	0.080
-62.349	365.088	0.048	0.126
-61.334	19.221	-2.253	-2.333
-60.319	152.396	1.124	1.985
-59.305	269.530	-3.474	-7.898
-58.290	49.261	4.015	4.872
-57.276	403.094	3.705	10.101
-56.261	-200.000	21.305	313.819
-55.246	362.206	1293.668	3362.889
-54.232	53.292	2848.793	3522.884
-53.217	52.398	2667.055	3284.207
-52.203	33.597	2396.973	2686.961
-51.188	29.264	2062.318	2258.485
-50.173	25.792	1947.614	2092.327
-49.159	24.747	1936.010	2067.642
-48.144	24.423	1931.864	2059.375
-47.130	24.233	1929.896	2054.984
-46.115	24.249	1928.583	2053.701
-45.100	24.301	1926.990	2052.514
-44.086	24.181	1925.902	2049.891
-43.071	24.214	1924.245	2048.425
-42.057	24.232	1922.212	2046.390
-41.042	24.114	1922.243	2044.983
-40.027	24.107	1920.238	2042.682
-39.013	24.227	1917.386	2040.954
-37.998	24.083	1916.920	2038.713
-36.984	24.093	1914.931	2036.635
-35.969	24.053	1914.777	2035.935
-34.954	24.031	1913.750	2034.500
-33.940	24.020	1912.317	2032.776
-32.925	24.185	1910.560	2032.722
-31.911	24.065	1909.640	2030.287
-30.896	24.115	1908.082	2029.119
-29.881	24.189	1906.359	2028.057
-28.867	24.111	1905.013	2025.652
-27.852	23.949	1904.339	2022.996
-26.838	24.079	1902.214	2022.151
-25.823	24.174	1900.260	2021.068
-24.809	23.943	1900.343	2018.447
-23.794	24.015	1898.400	2017.119
-22.779	24.043	1896.838	2015.702
-21.765	24.090	1895.760	2015.016
-20.750	23.885	1895.333	2012.141
-19.736	23.894	1893.897	2010.645
-18.721	23.920	1892.091	2008.944
-17.706	23.979	1890.856	2008.224
-16.692	23.894	1890.008	2006.274
-15.677	23.833	1889.191	2004.640
-14.663	23.782	1887.940	2002.657
-13.648	23.895	1885.211	2000.958
-12.633	23.875	1884.219	1999.600
-11.619	23.830	1883.547	1998.294
-10.604	23.845	1881.642	1996.371
-9.590	23.722	1881.425	1994.666
-8.575	23.791	1880.192	1994.062
-7.560	23.905	1878.286	1993.241
-6.546	23.774	1876.771	1990.086
-5.531	23.856	1875.749	1989.847
-4.517	23.823	1873.993	1987.526
-3.502	23.902	1872.853	1987.128
-2.487	23.914	1872.695	1987.021
-1.473	23.935	1868.845	1983.087
-0.458	23.518	1850.805	1959.235
0.556	19.985	1995.516	2057.947
1.571	18.351	2199.357	2246.365
2.586	19.095	2238.905	2296.472
3.600	19.075	2241.964	2299.068
4.615	19.165	2239.996	2297.977
5.629	19.023	2238.993	2294.775
6.644	18.995	2236.897	2291.978
7.659	19.078	2234.569	2290.422
8.673	19.101	2233.341	2289.196
9.688	18.820	2242.677	2294.728
10.702	18.016	2322.145	2364.568
11.717	16.358	2386.597	2406.179
12.731	7.747	2366.078	2262.500
13.746	1.099	2347.764	2150.152
14.761	0.242	2344.209	2134.441
15.775	0.182	2342.906	2132.144
16.790	0.099	2340.925	2128.907
17.804	0.078	2339.346	2126.908
18.819	0.124	2337.912	2126.011
19.834	0.044	2337.034	2123.816
20.848	0.063	2334.367	2121.409
21.863	0.103	2333.021	2120.496
22.877	-0.021	2331.427	2117.042
23.892	0.001	2329.961	2115.762
24.907	0.105	2326.802	2114.112
25.921	0.080	2325.747	2112.549
26.936	0.020	2323.402	2109.317
27.950	0.030	2320.630	2106.698
28.965	0.064	2318.243	2104.754
29.980	-0.032	2317.214	2102.217
30.994	0.154	2314.531	2102.144
32.009	4.109	2327.968	2169.857
33.023	13.699	2354.724	2330.572
34.038	17.494	2360.614	2389.769
35.053	17.593	2358.101	2388.330
36.067	17.609	2355.808	2385.947
37.082	17.543	2352.878	2381.770
38.096	17.599	2352.046	2381.418
39.111	17.720	2349.797	2380.558
40.126	17.940	2348.288	2381.832
41.140	18.046	2345.662	2380.363
42.155	17.924	2345.920	2378.640
43.169	18.039	2342.510	2376.498
44.184	17.780	2339.932	2369.990
45.199	17.795	2337.844	2367.793
46.213	17.824	2337.695	2367.768
47.228	17.931	2336.173	2367.431
48.242	17.916	2335.222	2365.969
49.257	18.134	2333.210	2366.689
50.271	18.222	2329.352	2363.718
51.286	17.973	2326.984	2357.570
52.301	17.823	2324.675	2352.868
53.315	18.541	2328.872	2366.802
54.330	21.584	2335.277	2415.291
55.344	23.362	2337.149	2441.593
56.359	23.567	2334.874	2441.761
57.374	23.833	2333.964	2444.188
58.388	23.777	2332.324	2441.408
59.403	23.517	2327.019	2431.980
60.417	23.176	2322.618	2422.398
61.432	23.234	2322.113	2422.384
62.447	23.555	2319.863	2424.158
63.461	23.620	2318.613	2423.448
64.476	23.878	2316.499	2424.493
65.490	23.506	2314.653	2417.173
66.505	22.468	2311.754	2399.649
67.520	20.474	2302.945	2362.983
68.534	18.295	2294.477	2324.298
69.549	17.746	2289.462	2311.472
70.563	17.550	2288.113	2307.167
71.578	17.675	2286.010	2306.470
72.593	17.788	2284.723	2306.426
73.607	17.989	2283.062	2307.201
74.622	18.014	2281.548	2305.730
75.636	17.810	2277.825	2298.932
76.651	17.801	2275.097	2295.787
77.666	17.726	2273.957	2293.348
78.680	17.754	2271.577	2291.050
79.695	17.562	2269.439	2286.023
80.709	17.504	2268.269	2283.797
81.724	17.491	2265.612	2280.669
82.739	17.447	2262.953	2277.123
83.753	17.449	2261.200	2275.116
84.768	17.431	2259.332	2272.732
85.782	17.227	2257.694	2268.076
86.797	17.252	2255.056	2265.481
87.812	17.326	2254.044	2265.187
88.826	17.371	2251.998	2263.465
89.841	17.447	2248.553	2260.741
90.855	17.319	2246.848	2257.046
91.870	17.512	2244.882	2257.375
92.884	17.376	2243.664	2254.077
93.899	17.425	2243.111	2253.898
94.914	18.020	2245.542	2263.994
95.928	20.613	2253.183	2306.038
96.943	21.654	2251.295	2317.675
97.957	19.046	2241.327	2272.564
98.972	17.463	2235.696	2245.601
99.987	17.488	2230.869	2240.822
101.001	17.407	2228.652	2237.259
102.016	17.458	2226.941	2235.943
103.030	17.425	2224.772	2233.058
104.045	17.362	2222.800	2229.985
105.060	17.434	2220.402	2228.261
106.074	17.428	2218.946	2226.459
107.089	17.544	2217.262	2226.018
108.103	17.508	2216.399	2224.415
109.118	17.523	2215.241	2223.177
110.133	17.729	2213.470	2223.840
111.147	17.574	2211.450	2219.513
112.162	17.640	2209.903	2218.565
113.176	17.760	2208.450	2218.410
114.191	17.836	2206.273	2216.944
115.206	17.856	2204.945	2215.603
116.220	17.779	2202.766	2212.147
117.235	17.873	2200.250	2210.576
118.249	17.938	2198.409	2209.314
119.264	17.819	2197.444	2206.527
120.279	17.583	2196.446	2202.192
121.293	17.719	2193.274	2200.522
122.308	17.721	2192.159	2199.167
123.322	17.614	2191.377	2196.726
124.337	18.042	2193.010	2203.656
125.352	20.798	2200.594	2246.803
126.366	21.499	2197.329	2252.275
127.381	18.858	2186.334	2206.686
128.395	17.738	2181.643	2187.261
129.410	17.602	2179.739	2183.341
130.424	17.542	2178.078	2180.634
131.439	17.595	2176.924	2179.907
132.454	17.543	2175.622	2177.669
133.468	17.763	2172.370	2176.977
134.483	17.917	2171.267	2177.582
135.497	18.019	2169.961	2177.329
136.512	17.857	2168.464	2173.489
137.527	17.850	2165.620	2170.281
138.541	17.712	2163.874	2166.510
139.556	17.637	2163.800	2165.221
140.570	17.707	2162.172	2164.230
141.585	17.597	2159.861	2160.259
142.600	17.523	2159.038	2158.232
143.614	17.431	2156.707	2154.475
144.629	17.305	2155.907	2151.807
145.643	17.284	2153.779	2149.160
146.658	17.416	2151.084	2147.888
147.673	17.275	2149.431	2144.200
148.687	17.374	2147.438	2143.200
149.702	17.447	2146.466	2142.906
150.716	17.346	2146.376	2141.276
151.731	17.463	2144.376	2140.501
152.746	17.447	2143.470	2139.141
153.760	18.113	2147.114	2150.950
154.775	20.819	2154.392	2192.270
155.789	21.806	2152.785	2202.836
156.804	19.248	2141.581	2158.943
157.819	17.616	2133.847	2130.385
158.833	17.396	2130.440	2123.973
159.848	17.318	2129.196	2121.495
160.862	17.582	2127.554	2122.918
161.877	17.759	2126.526	2123.848
162.892	17.700	2126.802	2123.129
163.906	17.674	2125.246	2121.007
164.921	17.594	2123.653	2118.157
165.935	17.657	2120.556	2115.606
166.950	17.775	2120.281	2116.550
167.964	17.850	2116.721	2113.679
168.979	17.647	2115.654	2109.823
169.994	17.616	2114.440	2107.980
171.008	17.527	2112.041	2104.233
172.023	17.591	2110.178	2102.914
173.037	17.681	2109.422	2103.030
174.052	17.895	2107.698	2103.703
175.067	17.785	2106.298	2100.692
176.081	17.675	2105.101	2097.890
177.096	17.655	2104.256	2096.555
178.110	17.641	2102.490	2094.363
179.125	17.698	2101.236	2093.567
180.140	17.691	2099.649	2091.652
181.154	17.764	2098.673	2091.331
182.169	17.910	2096.830	2091.041
183.183	18.743	2099.199	2103.416
184.198	21.618	2108.180	2147.660
185.213	22.151	2104.801	2150.520
186.227	19.209	2094.588	2103.760
187.242	17.912	2090.551	2083.553
188.256	17.788	2088.754	2079.990
189.271	17.503	2086.330	2073.843
190.286	17.476	2085.238	2072.173
191.300	17.544	2082.426	2069.973
192.315	17.462	2081.727	2068.023
193.329	17.692	2080.167	2069.034
194.344	18.033	2079.741	2072.524
195.359	18.124	2077.943	2071.588
196.373	17.969	2075.378	2066.894
197.388	17.936	2072.112	2062.991
198.402	17.892	2070.409	2060.517
199.417	17.746	2068.717	2056.822
200.432	17.675	2066.857	2053.869
201.446	17.568	2066.133	2051.604
202.461	17.568	2064.284	2049.526
203.475	17.531	2062.424	2046.981
204.490	17.414	2060.627	2043.543
205.504	17.501	2057.986	2041.729
206.519	17.449	2055.660	2038.549
207.534	17.366	2054.392	2036.051
208.548	17.412	2052.863	2034.846
209.563	17.495	2052.429	2035.164
210.577	17.531	2050.853	2033.791
211.592	17.494	2050.937	2033.186
212.607	18.955	2055.315	2054.852
213.621	22.301	2063.032	2102.590
214.636	21.747	2056.979	2089.525
215.650	18.636	2046.504	2041.484
216.665	17.640	2043.222	2026.074
217.680	17.643	2040.805	2023.468
218.694	17.349	2039.840	2018.765
219.709	17.222	2038.511	2015.693
220.723	17.491	2036.211	2016.382
221.738	17.607	2035.403	2016.717
222.753	17.778	2033.167	2016.295
223.767	17.733	2031.792	2014.153
224.782	17.612	2030.392	2011.085
225.796	17.905	2029.315	2013.257
226.811	17.899	2027.873	2011.508
227.826	17.904	2026.586	2010.056
228.840	17.923	2024.333	2007.805
229.855	17.736	2024.243	2005.265
230.869	17.918	2022.030	2004.983
231.884	17.854	2020.456	2002.428
232.899	17.872	2019.066	2001.015
233.913	17.794	2017.002	1997.822
234.928	17.749	2015.970	1996.026
235.942	17.673	2014.740	1993.676
236.957	17.591	2012.496	1990.258
237.972	17.590	2012.368	1989.882
238.986	17.499	2010.913	1987.127
240.001	17.612	2008.232	1985.565
241.015	17.680	2007.390	1985.294
242.030	18.372	2010.306	1996.046
243.045	21.117	2015.613	2033.277
244.059	21.528	2012.945	2035.139
245.074	18.796	2004.204	1994.228
246.088	17.886	1999.303	1978.510
247.103	18.008	1997.334	1977.742
248.117	17.953	1996.876	1976.412
249.132	17.632	1995.188	1970.780
250.147	17.741	1992.301	1968.955
251.161	17.737	1990.498	1966.895
252.176	17.932	1990.199	1968.625
253.190	18.267	1989.941	1972.014
254.205	18.347	1986.468	1969.261
255.220	18.261	1985.415	1966.991
256.234	18.141	1984.689	1964.641
257.249	18.049	1983.755	1962.421
258.263	18.201	1982.278	1962.485
259.278	18.529	1981.618	1965.370
260.293	18.128	1979.995	1958.910
261.307	17.815	1976.648	1951.761
262.322	17.649	1974.525	1947.524
263.336	17.542	1971.820	1943.396
264.351	17.293	1971.014	1939.519
265.366	17.237	1970.058	1937.706
266.380	17.280	1969.039	1936.959
267.395	17.278	1966.951	1934.652
268.409	17.264	1965.558	1932.892
269.424	17.410	1963.486	1932.288
270.439	17.396	1963.156	1931.572
271.453	18.459	1965.813	1946.094
272.468	21.386	1971.947	1985.402
273.482	21.575	1967.846	1983.188
274.497	18.629	1958.691	1940.285
275.512	17.442	1954.081	1922.018
276.526	17.334	1951.082	1917.611
277.541	17.262	1949.364	1914.880
278.555	17.263	1947.816	1913.138
279.570	17.271	1946.811	1912.013
280.585	17.349	1945.604	1911.480
281.599	17.415	1944.527	1910.944
282.614	17.641	1943.710	1912.457
283.628	17.975	1942.659	1914.957
284.643	18.025	1943.155	1915.777
285.657	18.111	1941.476	1914.869
286.672	18.717	1940.249	1920.238
287.687	19.012	1939.970	1923.052
288.701	18.427	1937.719	1914.026
289.716	18.189	1935.948	1909.369
290.730	18.194	1934.006	1907.291
291.745	18.232	1932.736	1906.228
292.760	18.239	1931.124	1904.488
293.774	18.060	1930.594	1901.734
294.789	18.023	1928.702	1899.236
295.803	17.738	1926.642	1893.793
296.818	17.639	1924.769	1890.628
297.833	17.727	1923.513	1890.144
298.847	17.623	1923.073	1888.324
299.862	17.816	1921.140	1888.349
300.876	18.527	1922.733	1897.599
301.891	21.407	1930.204	1936.859
302.906	21.985	1926.058	1938.892
303.920	18.865	1917.952	1895.956
304.935	17.806	1914.168	1880.266
305.949	17.703	1911.853	1876.618
306.964	17.673	1909.895	1874.149
307.979	17.685	1908.058	1872.254
308.993	17.945	1907.031	1873.883
310.008	18.146	1906.432	1875.290
311.022	18.230	1905.345	1874.917
312.037	18.150	1903.394	1871.896
313.052	18.228	1901.321	1870.492
314.066	18.173	1900.480	1868.838
315.081	18.615	1900.527	1873.516
316.095	18.835	1898.426	1873.633
317.110	18.310	1896.318	1865.576
318.125	17.800	1894.441	1857.926
319.139	17.915	1892.331	1856.885
320.154	17.921	1892.086	1856.492
321.168	17.881	1889.637	1853.425
322.183	17.674	1887.600	1848.950
323.197	17.601	1886.253	1846.616
324.212	17.451	1883.490	1842.062
325.227	17.212	1882.536	1838.307
326.241	17.282	1880.366	1836.729
327.256	17.333	1879.117	1835.842
328.270	17.266	1878.734	1834.518
329.285	17.205	1878.305	1833.219
330.300	18.399	1882.311	1849.883
331.314	21.726	1888.756	1892.167
332.329	21.590	1882.792	1884.488
333.343	18.478	1873.872	1841.778
334.358	17.335	1870.673	1826.086
335.373	17.413	1868.260	1824.352
336.387	17.202	1866.646	1820.282
337.402	17.331	1865.250	1820.095
338.416	17.426	1864.329	1819.996
339.431	17.480	1863.486	1819.536
340.446	17.635	1860.958	1818.512
341.460	17.664	1860.697	1818.348
342.475	17.976	1860.126	1820.918
343.489	18.118	1858.592	1820.715
344.504	18.038	1857.003	1818.084
345.519	18.230	1855.305	1818.259
346.533	18.355	1854.952	1819.032
347.548	18.730	1854.268	1822.143
348.562	18.632	1853.260	1819.887
349.577	18.517	1851.442	1816.657
350.592	18.430	1850.274	1814.370
351.606	18.345	1849.233	1812.228
352.621	18.384	1847.135	1810.367
353.635	17.908	1844.972	1802.981
354.650	17.685	1843.739	1799.196
355.665	17.557	1841.667	1795.599
356.679	17.620	1840.355	1794.779
357.694	17.715	1838.470	1793.722
358.708	17.465	1838.038	1790.447
359.723	18.910	1842.366	1809.754
360.738	22.021	1847.703	1847.734
361.752	21.437	1842.241	1835.896
362.767	18.674	1833.938	1798.338
363.781	17.810	1830.485	1785.651
364.796	17.637	1829.151	1782.323
365.810	17.565	1827.575	1779.810
366.825	17.509	1826.052	1777.535
367.840	17.688	1825.225	1778.391
368.854	17.772	1824.835	1778.673
369.869	17.943	1823.683	1779.129
370.883	18.165	1822.851	1780.429
371.898	18.275	1821.505	1780.056
372.913	18.117	1819.721	1776.445
373.927	18.274	1819.442	1777.604
374.942	18.466	1818.901	1778.862
375.956	18.439	1817.127	1776.636
376.971	18.237	1813.603	1770.870
377.986	17.874	1812.273	1765.588
379.000	17.875	1810.541	1763.707
380.015	17.891	1809.405	1762.551
381.029	17.752	1807.192	1758.740
382.044	17.588	1804.600	1754.308
383.059	17.521	1803.766	1752.595
384.073	17.515	1802.220	1750.821
385.088	17.501	1801.398	1749.672
386.102	17.342	1800.029	1746.489
387.117	17.366	1798.226	1744.785
388.132	17.415	1798.473	1745.314
389.146	18.451	1802.600	1759.811
390.161	21.709	1807.564	1798.114
391.175	21.342	1800.054	1786.654
392.190	18.462	1791.414	1748.375
393.205	17.695	1788.410	1737.376
394.219	17.606	1787.009	1734.897
395.234	17.464	1785.322	1731.603
396.248	17.442	1783.804	1729.701
397.263	17.423	1782.045	1727.591
398.278	17.569	1780.128	1727.011
399.292	17.477	1779.343	1725.107
400.307	17.613	1778.397	1725.375
401.321	17.699	1777.232	1724.904
402.336	17.883	1776.141	1725.509
403.350	17.964	1775.352	1725.361
404.365	18.210	1774.855	1727.173
405.380	18.473	1773.628	1728.430
406.394	18.541	1773.581	1728.876
407.409	18.487	1772.294	1726.864
408.423	18.588	1770.014	1725.460
409.438	18.325	1768.952	1721.558
410.453	18.281	1767.227	1719.229
411.467	18.174	1765.858	1716.609
412.482	17.985	1763.377	1712.093
413.496	17.794	1762.160	1708.780
414.511	17.764	1760.036	1706.211
415.526	17.708	1757.797	1703.278
416.540	17.465	1756.437	1699.319
417.555	17.559	1755.949	1699.582
418.569	17.761	1755.582	1701.046
419.584	17.889	1755.665	1702.215
420.599	17.935	1754.934	1701.754
421.613	17.891	1754.054	1700.259
422.628	17.735	1752.533	1697.018
423.642	17.483	1750.626	1692.457
424.657	17.456	1748.581	1690.002
425.672	17.595	1747.430	1690.080
426.686	17.689	1746.556	1689.967
427.701	17.684	1745.489	1688.685
428.715	17.818	1743.920	1688.292
429.730	17.991	1742.477	1688.417
430.745	17.886	1740.948	1685.691
431.759	18.015	1740.631	1686.457
432.774	18.364	1740.819	1689.900
433.788	18.642	1740.965	1692.602
434.803	18.964	1741.021	1695.644
435.818	18.767	1739.740	1692.242
436.832	18.612	1739.681	1690.448
437.847	17.749	1731.978	1674.245
438.861	10.032	1711.395	1578.642
439.876	1.721	1696.921	1483.925
440.890	0.329	1692.643	1466.406
441.905	0.175	1691.456	1463.698
442.920	0.144	1690.404	1462.311
443.934	0.111	1688.470	1460.141
444.949	0.199	1687.187	1459.705
445.963	0.224	1685.860	1458.631
446.978	0.097	1686.023	1457.359
447.993	0.186	1684.515	1456.745
449.007	0.019	1682.511	1453.217
450.022	0.252	1680.320	1453.414
451.036	0.206	1679.495	1452.082
452.051	1.209	1683.190	1464.840
453.066	9.070	1701.438	1557.448
454.080	17.046	1714.411	1647.239
455.095	18.815	1717.124	1666.909
456.109	19.508	1717.544	1673.883
457.124	19.725	1717.501	1675.753
458.139	19.814	1716.691	1675.632
459.153	20.042	1715.094	1676.086
460.168	20.132	1713.093	1674.804
461.182	19.989	1711.527	1671.689
462.197	20.067	1709.425	1670.185
463.212	19.897	1708.143	1667.085
464.226	19.856	1707.220	1665.591
465.241	20.125	1706.183	1666.981
466.255	20.130	1705.849	1666.501
467.270	20.216	1704.410	1665.724
468.285	19.896	1702.334	1660.413
469.299	19.899	1700.368	1658.329
470.314	20.058	1698.434	1657.773
471.328	20.034	1698.006	1656.922
472.343	20.041	1697.502	1656.302
473.358	20.013	1696.790	1655.145
474.372	20.162	1694.924	1654.555
475.387	19.872	1693.212	1649.902
476.401	19.739	1691.189	1646.457
477.416	19.595	1690.223	1643.946
478.430	19.728	1689.666	1644.481
479.445	19.616	1687.658	1641.262
480.460	19.594	1685.942	1639.185
481.474	19.914	1685.572	1641.674
482.489	20.075	1684.740	1642.203
483.503	20.403	1682.786	1643.229
484.518	20.297	1681.496	1640.757
485.533	20.208	1681.187	1639.414
486.547	20.202	1679.182	1637.209
487.562	20.398	1678.568	1638.278
488.576	20.312	1676.961	1635.690
489.591	20.373	1675.199	1634.354
490.606	20.175	1674.040	1631.158
491.620	20.316	1672.089	1630.393
492.635	20.426	1671.912	1631.070
493.649	20.650	1671.090	1632.183
494.664	20.153	1668.250	1624.527
495.679	19.869	1666.348	1619.815
496.693	19.986	1665.360	1619.758
497.708	20.195	1665.101	1621.276
498.722	20.477	1664.921	1623.554
499.737	20.504	1663.285	1622.020
500.752	20.351	1661.211	1618.371
501.766	20.219	1659.580	1615.356
502.781	20.314	1658.119	1614.624
503.795	20.328	1656.604	1613.090
504.810	20.335	1655.943	1612.313
505.825	20.541	1656.388	1614.474
506.839	20.414	1654.698	1611.455
507.854	20.548	1653.019	1610.876
508.868	20.441	1651.650	1608.354
509.883	20.431	1650.935	1607.374
510.898	20.715	1649.724	1608.640
511.912	20.545	1648.066	1605.252
512.927	20.307	1645.555	1600.406
513.941	20.286	1644.078	1598.584
514.956	20.141	1642.088	1595.118
515.971	19.996	1641.653	1593.166
516.985	20.289	1639.874	1593.947
518.000	20.379	1639.917	1594.635
519.014	20.595	1639.505	1596.032
520.029	20.750	1638.206	1596.005
521.043	20.791	1636.022	1594.066
522.058	20.582	1634.966	1590.925
523.073	20.767	1634.221	1591.712
524.087	21.171	1633.659	1594.680
525.102	20.954	1632.730	1591.596
526.116	20.575	1630.026	1585.297
527.131	20.445	1629.698	1583.597
528.146	20.954	1629.268	1587.648
529.160	21.015	1628.341	1587.113
530.175	20.942	1627.325	1585.264
531.189	20.989	1626.566	1584.760
532.204	21.048	1624.322	1582.923
533.219	20.623	1623.054	1577.632
534.233	20.421	1621.870	1574.448
535.248	20.838	1621.263	1577.467
536.262	21.146	1620.599	1579.431
537.277	21.197	1618.325	1577.489
538.292	20.648	1616.671	1570.709
539.306	20.627	1615.569	1569.261
540.321	20.594	1613.572	1566.832
541.335	20.615	1612.198	1565.505
542.350	20.552	1611.706	1564.267
543.365	20.896	1610.283	1565.809
544.379	20.948	1609.016	1564.858
545.394	20.973	1608.040	1563.949
546.408	20.823	1605.678	1560.114
547.423	20.377	1604.325	1554.596
548.438	20.421	1603.615	1554.121
549.452	20.734	1603.328	1556.466
550.467	20.874	1601.846	1556.100
551.481	20.812	1600.663	1554.210
552.496	21.026	1600.377	1555.659
553.511	21.329	1599.752	1557.582
554.525	21.193	1599.079	1555.525
555.540	21.384	1597.859	1555.862
556.554	21.442	1596.665	1555.028
557.569	21.301	1594.617	1551.592
558.583	21.205	1592.377	1548.373
559.598	21.104	1591.317	1546.258
560.613	21.117	1590.548	1545.436
561.627	21.146	1590.325	1545.298
562.642	21.326	1588.352	1544.790
563.656	21.535	1587.623	1545.757
564.671	21.539	1586.883	1544.882
565.686	21.350	1585.242	1541.422
566.700	21.242	1583.447	1538.539
567.715	20.965	1582.073	1534.567
568.729	20.662	1580.230	1529.924
569.744	20.508	1577.729	1525.960
570.759	20.651	1576.877	1526.210
571.773	20.748	1576.824	1526.829
572.788	20.915	1575.891	1527.221
573.802	21.126	1574.599	1527.638
574.817	21.324	1573.602	1528.231
575.832	21.620	1572.504	1529.576
576.846	21.642	1571.209	1528.333
577.861	21.254	1570.170	1523.732
578.875	21.526	1569.649	1525.435
579.890	21.698	1568.611	1525.748
580.905	21.648	1567.560	1524.106
581.919	21.605	1567.044	1523.039
582.934	21.872	1566.660	1524.818
583.948	21.886	1564.922	1523.071
584.963	21.627	1563.912	1519.647
585.978	21.439	1562.010	1515.980
586.992	21.450	1561.545	1515.444
588.007	21.685	1560.811	1516.595
589.021	21.020	1558.118	1508.017
590.036	20.404	1556.947	1501.351
591.051	20.944	1556.021	1504.962
592.065	21.392	1554.255	1506.962
593.080	21.607	1553.069	1507.486
594.094	21.543	1551.870	1505.595
595.109	21.210	1548.759	1499.522
596.123	21.021	1547.558	1496.549
597.138	21.373	1547.846	1499.682
598.153	21.538	1546.752	1499.863
599.167	21.491	1545.244	1497.816
600.182	21.544	1544.592	1497.460
601.196	21.708	1544.197	1498.307
602.211	21.646	1542.432	1495.890
603.226	21.819	1541.596	1496.377
604.240	21.905	1540.204	1495.588
605.255	22.097	1539.173	1496.052
606.269	22.033	1538.044	1494.231
607.284	22.143	1536.767	1493.744
608.299	21.867	1536.440	1490.894
609.313	21.626	1534.406	1486.686
610.328	21.718	1533.387	1486.305
611.342	21.862	1532.197	1486.202
612.357	22.021	1532.197	1487.373
613.372	22.061	1530.784	1486.166
614.386	21.903	1529.749	1483.636
615.401	22.046	1528.781	1483.741
616.415	21.973	1528.219	1482.391
617.430	22.163	1527.220	1482.860
618.445	22.245	1526.190	1482.376
619.459	22.050	1524.520	1478.927
620.474	21.578	1522.564	1472.865
621.488	21.064	1520.472	1466.321
622.503	20.705	1519.232	1461.919
623.518	21.307	1519.472	1467.057
624.532	21.896	1518.409	1470.820
625.547	22.142	1517.383	1471.723
626.561	22.311	1517.463	1473.046
627.576	22.367	1516.830	1472.724
628.591	21.786	1513.986	1464.909
629.605	21.364	1512.026	1459.295
630.620	21.240	1509.869	1455.999
631.634	20.904	1509.036	1452.212
632.649	21.162	1507.930	1453.128
633.663	21.510	1507.843	1455.783
634.678	21.920	1507.457	1458.660
635.693	22.377	1506.084	1460.974
636.707	22.440	1505.253	1460.515
637.722	22.629	1504.961	1461.638
638.736	22.688	1503.125	1460.168
639.751	22.447	1502.363	1457.247
640.766	22.543	1500.488	1456.054
641.780	22.522	1498.798	1454.063
642.795	22.468	1498.616	1453.269
643.809	22.485	1497.803	1452.448
644.824	22.449	1496.780	1450.981
645.839	22.333	1495.388	1448.494
646.853	22.385	1494.360	1447.758
647.868	22.421	1492.428	1446.009
648.882	22.414	1490.945	1444.342
649.897	22.249	1489.998	1441.890
650.912	22.267	1489.066	1440.963
651.926	22.200	1487.465	1438.694
652.941	21.863	1485.544	1433.891
653.955	21.502	1483.120	1428.424
654.970	21.056	1480.720	1422.285
655.985	21.207	1479.595	1422.269
656.999	21.156	1479.623	1421.710
658.014	21.655	1478.294	1424.339
659.028	21.835	1477.661	1425.029
660.043	21.912	1477.787	1425.616
661.058	22.164	1477.337	1427.063
662.072	22.232	1476.098	1426.254
663.087	22.288	1474.561	1425.053
664.101	22.209	1473.838	1423.536
665.116	22.363	1473.289	1424.092
666.131	22.449	1472.221	1423.590
667.145	22.492	1470.782	1422.376
668.160	22.684	1470.020	1423.024
669.174	22.953	1468.853	1423.902
670.189	22.862	1467.315	1421.508
671.204	22.482	1466.672	1417.637
672.218	22.498	1465.400	1416.369
673.233	22.684	1464.582	1416.912
674.247	23.029	1463.671	1418.642
675.262	22.949	1463.656	1417.811
676.276	22.936	1461.695	1415.639
677.291	22.856	1460.694	1413.860
678.306	22.397	1459.133	1408.490
679.320	22.477	1458.237	1408.096
680.335	22.755	1457.974	1409.910
681.349	22.918	1456.977	1410.079
682.364	22.900	1455.270	1408.120
683.379	22.765	1453.908	1405.552
684.393	22.680	1453.059	1403.884
685.408	22.906	1451.858	1404.355
686.422	22.772	1451.193	1402.474
687.437	22.655	1450.962	1401.151
688.452	22.947	1450.430	1402.801
689.466	22.890	1447.663	1399.502
690.481	22.683	1445.893	1395.981
691.495	22.421	1444.222	1392.112
692.510	21.854	1441.676	1384.993
693.525	21.386	1440.828	1380.301
694.539	21.691	1440.754	1382.483
695.554	22.379	1441.705	1388.690
696.568	23.032	1441.158	1393.172
697.583	22.965	1440.688	1392.021
698.598	23.123	1439.610	1392.064
699.612	23.263	1438.064	1391.503
700.627	23.082	1437.284	1389.154
701.641	23.054	1435.768	1387.301
702.656	22.979	1434.843	1385.649
703.671	23.235	1434.548	1387.214
704.685	23.188	1434.000	1386.150
705.700	23.159	1432.000	1383.825
706.714	22.944	1430.139	1380.175
707.729	22.676	1428.682	1376.502
708.744	22.682	1426.762	1374.530
709.758	22.544	1426.263	1372.806
710.773	22.088	1424.494	1367.368
711.787	21.930	1421.732	1363.319
712.802	22.140	1420.989	1364.088
713.816	22.440	1421.714	1366.961
714.831	22.636	1421.797	1368.405
715.846	22.919	1420.499	1369.198
716.860	22.944	1418.965	1367.751
717.875	22.847	1418.853	1366.724
718.889	22.893	1417.100	1365.231
719.904	23.144	1415.874	1365.835
720.919	23.254	1414.669	1365.361
721.933	23.276	1414.487	1365.191
722.948	23.166	1413.779	1363.493
723.962	23.347	1412.475	1363.468
724.977	23.486	1411.023	1362.977
725.992	23.330	1410.432	1361.039
727.006	23.217	1408.767	1358.399
728.021	23.312	1407.834	1358.066
729.035	23.476	1406.316	1357.709
730.050	23.332	1405.587	1355.732
731.065	23.360	1404.980	1355.197
732.079	23.587	1403.970	1355.809
733.094	23.377	1402.233	1352.353
734.108	23.091	1400.261	1348.101
735.123	23.145	1399.324	1347.454
736.138	23.212	1398.350	1346.864
737.152	23.285	1397.380	1346.324
738.167	23.667	1396.831	1348.556
739.181	23.566	1396.451	1347.251
740.196	23.384	1395.427	1344.718
741.211	23.604	1394.543	1345.382
742.225	23.430	1393.596	1342.985
743.240	23.492	1391.419	1341.197
744.254	23.633	1390.140	1340.870
745.269	23.434	1390.151	1339.213
746.284	23.490	1388.332	1337.721
747.298	23.079	1387.225	1333.378
748.313	22.683	1385.806	1328.860
749.327	22.220	1383.411	1322.900
750.342	21.845	1382.016	1318.578
751.356	21.441	1380.668	1314.085
752.371	21.770	1380.400	1316.155
753.386	22.590	1381.029	1322.786
754.400	23.449	1380.398	1328.495
755.415	23.648	1379.434	1328.902
756.429	23.697	1378.155	1327.884
757.444	23.491	1377.651	1325.693
758.459	23.685	1376.499	1325.877
759.473	23.839	1374.974	1325.408
760.488	23.727	1374.667	1324.110
761.502	23.656	1373.159	1321.970
762.517	23.611	1371.881	1320.243
763.532	23.226	1370.554	1315.935
764.546	23.070	1368.424	1312.570
765.561	22.603	1367.226	1307.781
766.575	21.997	1365.170	1301.144
767.590	21.924	1364.090	1299.415
768.605	22.436	1363.961	1302.949
769.619	22.799	1363.713	1305.251
770.634	23.261	1363.044	1307.884
771.648	23.503	1362.361	1308.870
772.663	23.687	1361.574	1309.317
773.678	23.773	1360.799	1309.058
774.692	23.862	1360.190	1308.974
775.707	23.881	1359.628	1308.415
776.721	23.760	1359.263	1307.015
777.736	23.795	1358.343	1306.229
778.751	23.821	1357.137	1305.101
779.765	23.820	1355.676	1303.537
780.780	23.701	1354.990	1301.843
781.794	23.661	1353.639	1300.096
782.809	23.475	1352.768	1297.736
783.824	23.360	1351.531	1295.551
784.838	22.947	1348.397	1289.361
785.853	22.088	1347.370	1281.927
786.867	22.286	1347.153	1283.015
787.882	22.869	1346.660	1286.667
788.897	23.154	1346.319	1288.275
789.911	23.205	1345.779	1287.973
790.926	23.459	1344.204	1288.167
791.940	23.662	1343.086	1288.421
792.955	23.651	1342.486	1287.617
793.969	23.625	1340.881	1285.733
794.984	23.806	1340.645	1286.666
795.999	23.943	1339.416	1286.328
797.013	24.085	1337.428	1285.296
798.028	24.007	1335.760	1282.978
799.042	23.965	1335.838	1282.592
800.057	24.082	1335.375	1282.838
801.072	23.923	1334.340	1280.543
802.086	23.847	1332.923	1278.480
803.101	23.997	1331.870	1278.398
804.115	23.952	1330.841	1276.937
805.130	23.888	1330.335	1275.835
806.145	23.905	1328.962	1274.487
807.159	23.941	1327.143	1272.849
808.174	23.837	1325.814	1270.679
809.188	23.596	1324.518	1267.552
810.203	23.380	1322.308	1263.736
811.218	23.039	1320.170	1259.104
812.232	22.674	1317.813	1254.096
813.247	22.417	1317.389	1251.707
814.261	22.968	1317.771	1255.858
815.276	23.444	1317.377	1258.725
816.291	23.671	1316.566	1259.419
817.305	23.930	1316.526	1261.078
818.320	23.834	1315.834	1259.580
819.334	23.875	1314.433	1258.382
820.349	24.001	1312.789	1257.552
821.364	24.069	1311.260	1256.418
822.378	24.151	1309.939	1255.586
823.393	24.184	1308.249	1254.047
824.407	24.135	1307.822	1253.141
825.422	23.876	1307.805	1251.141
826.437	23.891	1305.858	1249.234
827.451	23.597	1303.536	1244.791
828.466	22.883	1300.687	1236.902
829.480	22.587	1299.068	1233.128
830.495	22.932	1298.240	1234.618
831.509	23.408	1298.169	1237.744
832.524	23.740	1297.990	1239.758
833.539	23.903	1297.078	1239.884
834.553	24.033	1296.320	1239.918
835.568	24.028	1295.019	1238.489
836.582	24.240	1293.940	1238.793
837.597	24.180	1292.339	1236.694
838.612	24.157	1290.351	1234.482
839.626	23.887	1289.256	1231.407
840.641	23.764	1288.008	1229.215
841.655	23.331	1286.422	1224.543
842.670	22.702	1284.623	1218.316
843.685	22.158	1284.018	1213.826
844.699	22.796	1283.577	1217.684
845.714	23.370	1283.128	1221.095
846.728	23.616	1282.500	1222.050
847.743	23.782	1281.744	1222.333
848.758	23.995	1280.916	1222.865
849.772	24.185	1279.265	1222.457
850.787	24.171	1277.937	1220.944
851.801	24.181	1277.065	1220.037
852.816	24.027	1276.014	1217.824
853.831	23.979	1274.359	1215.767
854.845	23.945	1272.704	1213.816
855.860	23.529	1271.289	1209.471
856.874	23.650	1269.668	1208.608
857.889	23.273	1267.890	1204.197
858.904	22.686	1266.403	1198.629
859.918	22.448	1264.199	1194.775
860.933	22.031	1262.910	1190.573
861.947	22.660	1263.063	1194.864
862.962	23.089	1261.974	1196.608
863.977	23.179	1260.997	1196.149
864.991	23.576	1261.462	1199.145
866.006	23.786	1260.898	1199.889
867.020	23.958	1259.366	1199.453
868.035	24.028	1258.099	1198.578
869.049	24.040	1257.821	1198.251
870.064	24.074	1257.406	1197.944
871.079	23.986	1256.926	1196.749
872.093	23.895	1256.195	1195.296
873.108	23.942	1254.230	1193.595
874.122	23.707	1251.845	1189.604
875.137	23.125	1251.037	1184.774
876.152	23.085	1250.113	1183.487
877.166	23.255	1248.647	1183.100
878.181	23.448	1248.275	1183.903
879.195	23.756	1248.519	1186.060
880.210	23.939	1247.193	1185.885
881.225	24.280	1246.176	1187.056
882.239	24.084	1245.350	1184.819
883.254	24.077	1244.453	1183.776
884.268	24.074	1243.717	1182.915
885.283	24.197	1242.401	1182.343
886.298	24.121	1241.003	1180.362
887.312	24.045	1240.148	1178.906
888.327	23.978	1239.496	1177.699
889.341	24.048	1237.994	1176.595
890.356	23.839	1236.722	1173.860
891.371	23.946	1236.301	1174.025
892.385	23.787	1235.799	1172.355
893.400	23.767	1233.906	1170.285
894.414	23.585	1231.973	1167.111
895.429	23.240	1230.442	1163.240
896.444	22.433	1227.282	1154.801
897.458	21.927	1225.783	1149.918
898.473	22.352	1226.348	1153.112
899.487	23.274	1226.665	1159.341
900.502	23.645	1226.255	1161.254
901.517	23.751	1225.410	1161.010
902.531	23.968	1224.966	1161.877
903.546	24.066	1223.453	1160.941
904.560	24.186	1222.602	1160.783
905.575	24.208	1221.653	1159.884
906.589	24.185	1220.953	1158.934
907.604	24.032	1220.323	1157.200
