DTS Sentinel unit serial number:	SN409020Multiplexer serial number:	ORYXHardware model number:	OX4-SRSoftware version number:	ORYX F/W v3.00 Oryx Data Collector v3.7.2.0data status	okinstallation	HaddamTimeLapsedifferential loss correction	single-endedforward channel	channel 3reverse channel	N/Adate	2011/06/22time	05:51:17forward acquisition time	30.00reverse acquisition time	0.00gamma	498.7831k internal	0.1751k external	0.1751temperature offset calibration	1.0074default loss term (dB/km)	0.3790temperature slope calibration	1.3530multiplexer offset coefficient	1.0000multiplexer slope coefficient	1.0000fibre end	0.00T internal ref (°C)	22.56T ext. ref 1 (°C)	17.95T ext. ref 2 (°C)	0.16length (m)	temperature (°C)	Stokes	anti-Stokes-747.200	-89.560	-0.074	-0.029
-746.185	261.347	-0.042	0.097
-745.171	-68.463	0.249	-0.128
-744.156	-87.206	-0.312	0.125
-743.142	-17.897	0.219	-0.182
-742.127	-146.898	0.743	0.084
-741.112	44.117	0.158	-0.193
-740.098	-59.784	0.224	0.127
-739.083	-103.466	-0.416	-0.129
-738.069	109.129	-0.076	-0.121
-737.054	-103.160	-0.321	-0.100
-736.039	-115.970	-0.345	0.085
-735.025	800.000	0.085	0.378
-734.010	-42.885	0.330	0.222
-732.996	800.000	-0.045	0.248
-731.981	29.264	0.173	-0.195
-730.966	-86.733	-0.129	0.052
-729.952	-43.855	-0.065	0.043
-728.937	-138.952	0.382	0.054
-727.923	800.000	-0.030	0.166
-726.908	198.904	-0.229	-0.467
-725.894	-31.153	-0.398	-0.297
-724.879	-200.000	-0.018	-0.322
-723.864	-12.886	-0.265	0.229
-722.850	-90.256	0.264	0.101
-721.835	800.000	-0.070	0.302
-720.821	800.000	-0.054	-0.224
-719.806	-1.825	-0.373	-0.348
-718.791	800.000	-0.032	-0.165
-717.777	432.304	0.104	-0.300
-716.762	-172.987	-0.611	-0.025
-715.748	99.437	0.130	-0.199
-714.733	-200.000	-0.051	0.526
-713.718	-79.260	0.211	-0.094
-712.704	7.302	-0.425	-0.421
-711.689	-200.000	-0.011	-0.855
-710.675	51.488	0.044	0.055
-709.660	-136.872	-0.430	-0.065
-708.645	-78.834	-0.242	0.109
-707.631	13.605	-0.097	0.099
-706.616	-200.000	0.023	-0.441
-705.602	425.037	0.137	-0.394
-704.587	209.961	-0.042	0.088
-703.572	-50.511	0.126	-0.078
-702.558	26.759	-0.146	-0.162
-701.543	-78.393	-0.220	-0.100
-700.529	-200.000	-0.030	-0.265
-699.514	-200.000	0.049	0.469
-698.499	-200.000	-0.008	-0.702
-697.485	-200.000	-0.008	-0.200
-696.470	31.810	0.181	-0.207
-695.456	-185.453	-0.614	-0.012
-694.441	-154.292	-0.191	-0.017
-693.426	-200.000	-0.012	0.309
-692.412	800.000	0.093	0.404
-691.397	-114.911	0.454	0.114
-690.383	-55.154	-0.119	0.071
-689.368	-135.049	-0.289	0.046
-688.354	-200.000	-0.002	-0.222
-687.339	-62.487	-0.541	-0.297
-686.324	-32.366	-0.266	-0.196
-685.310	-42.706	0.209	-0.140
-684.295	-200.000	0.022	-0.154
-683.281	-24.557	-0.117	-0.092
-682.266	230.714	0.166	-0.362
-681.251	-8.607	0.223	0.198
-680.237	-116.904	-0.134	0.032
-679.222	-43.335	0.234	-0.156
-678.208	66.593	0.076	0.103
-677.193	54.530	0.339	-0.433
-676.178	-200.000	0.071	-0.531
-675.164	117.182	0.274	-0.447
-674.149	449.078	0.175	0.513
-673.135	800.000	0.061	-0.253
-672.120	160.683	-0.025	-0.046
-671.105	-148.326	0.210	-0.023
-670.091	-87.552	0.133	0.053
-669.076	-40.334	0.285	0.196
-668.062	-97.039	0.569	-0.196
-667.047	-101.679	-0.182	-0.058
-666.032	174.868	-0.200	0.384
-665.018	38.070	0.061	0.072
-664.003	162.617	-0.041	-0.076
-662.989	-140.147	-0.242	0.033
-661.974	-200.000	0.032	-0.213
-660.959	470.223	0.076	0.228
-659.945	800.000	-0.023	0.121
-658.930	-79.712	-0.283	-0.126
-657.916	146.361	0.223	0.398
-656.901	-20.385	0.556	0.452
-655.886	-200.000	0.064	0.629
-654.872	-79.491	-0.150	-0.067
-653.857	800.000	0.101	-0.380
-652.843	-166.142	-0.444	0.025
-651.828	-43.067	0.145	-0.097
-650.814	-51.888	-0.107	0.066
-649.799	166.701	0.116	0.218
-648.784	50.605	0.113	0.141
-647.770	-200.000	-0.045	-0.292
-646.755	-108.359	0.181	0.051
-645.741	120.268	-0.299	0.491
-644.726	-136.330	0.829	0.127
-643.711	295.639	0.283	0.688
-642.697	206.568	-0.188	-0.388
-641.682	-3.534	-0.211	-0.194
-640.668	416.111	0.139	-0.395
-639.653	522.086	-0.057	-0.177
-638.638	159.462	-0.073	0.135
-637.624	-47.798	-0.157	-0.100
-636.609	606.135	-0.092	-0.306
-635.595	44.527	0.294	-0.358
-634.580	50.391	-0.265	-0.331
-633.565	-105.508	-0.344	-0.103
-632.551	-137.410	-0.610	-0.090
-631.536	27.866	0.179	-0.200
-630.522	-118.161	0.400	-0.094
-629.507	800.000	-0.104	-0.476
-628.492	-200.000	-0.009	-0.221
-627.478	-59.396	0.274	-0.155
-626.463	-200.000	-0.022	0.155
-625.449	-38.206	0.204	-0.143
-624.434	-35.515	0.189	-0.136
-623.419	-18.637	-0.345	0.284
-622.405	-90.707	-0.285	0.108
-621.390	182.187	-0.070	-0.136
-620.376	-77.001	0.205	-0.094
-619.361	223.350	-0.064	0.138
-618.346	-12.856	0.088	0.076
-617.332	45.968	0.402	0.492
-616.317	-81.154	0.301	0.131
-615.303	-200.000	0.010	-0.219
-614.288	174.360	0.180	-0.346
-613.273	-200.000	-0.019	0.486
-612.259	18.871	0.292	0.309
-611.244	-117.037	-0.221	0.053
-610.230	362.511	-0.076	0.203
-609.215	-200.000	-0.030	-0.184
-608.201	-106.175	-0.354	0.104
-607.186	132.057	0.254	0.433
-606.171	-127.315	0.228	0.043
-605.157	-82.750	-0.195	0.083
-604.142	50.845	0.202	-0.253
-603.128	-164.728	-0.417	-0.024
-602.113	-109.154	0.241	-0.067
-601.098	-200.000	0.038	-0.220
-600.084	12.683	0.205	0.209
-599.069	-87.280	-0.274	0.109
-598.055	62.448	0.139	0.183
-597.040	-200.000	0.026	0.251
-596.025	54.817	-0.157	-0.201
-595.011	-78.680	-0.273	-0.122
-593.996	-73.118	-0.481	0.232
-592.982	-83.203	-0.294	0.124
-591.967	536.246	0.086	0.271
-590.952	-79.302	0.473	0.210
-589.938	-147.394	-0.234	-0.026
-588.923	330.952	-0.156	-0.400
-587.909	-42.651	-0.527	-0.353
-586.894	800.000	0.148	-0.636
-585.879	639.046	-0.173	-0.584
-584.865	21.214	0.121	0.130
-583.850	-13.719	-0.174	0.149
-582.836	-61.018	0.126	-0.070
-581.821	800.000	-0.073	-0.288
-580.806	-200.000	-0.055	-0.485
-579.792	158.824	-0.048	-0.087
-578.777	100.179	-0.179	0.274
-577.763	-50.478	0.455	-0.283
-576.748	-200.000	-0.003	-0.431
-575.733	-103.400	-0.233	-0.072
-574.719	-45.669	-0.196	0.128
-573.704	-131.420	0.388	0.067
-572.690	-15.417	0.293	0.246
-571.675	-43.311	0.440	0.293
-570.661	-102.006	0.253	0.080
-569.646	-148.936	0.547	-0.057
-568.631	-16.866	0.065	0.054
-567.617	540.380	-0.038	-0.120
-566.602	379.191	0.010	-0.027
-565.588	800.000	0.077	0.356
-564.573	800.000	0.066	0.378
-563.558	-44.019	0.313	0.207
-562.544	-23.602	0.141	-0.112
-561.529	188.947	-0.080	0.159
-560.515	348.449	0.022	-0.057
-559.500	-136.893	0.270	0.041
-558.485	92.617	-0.283	0.422
-557.471	-169.299	-0.582	-0.028
-556.456	26.809	-0.018	0.020
-555.442	241.991	-0.212	-0.469
-554.427	85.460	0.508	-0.737
-553.412	-114.695	0.333	-0.083
-552.398	199.462	0.189	-0.384
-551.383	-49.673	-0.127	-0.079
-550.369	-187.357	-0.204	0.004
-549.354	81.140	0.308	-0.438
-548.339	-94.983	0.412	0.146
-547.325	-200.000	-0.052	0.393
-546.310	720.869	-0.110	-0.389
-545.296	13.019	0.093	-0.095
-544.281	-45.260	-0.390	-0.255
-543.266	800.000	0.056	-0.225
-542.252	-2.954	0.227	0.209
-541.237	127.933	0.147	-0.248
-540.223	66.855	-0.138	-0.185
-539.208	218.206	-0.171	-0.361
-538.193	191.229	0.107	0.212
-537.179	-118.736	0.335	-0.077
-536.164	-50.142	-0.408	-0.254
-535.150	-200.000	0.048	-0.328
-534.135	-84.327	0.253	-0.105
-533.121	-200.000	0.016	-0.396
-532.106	-77.994	-0.194	-0.088
-531.091	107.220	0.078	0.122
-530.077	424.884	-0.080	-0.229
-529.062	-200.000	0.019	0.348
-528.048	162.354	-0.194	0.359
-527.033	-143.656	0.261	0.032
-526.018	63.256	-0.207	0.273
-525.004	354.661	-0.051	0.134
-523.989	137.902	0.239	-0.413
-522.975	-200.000	0.023	0.295
-521.960	-77.459	-0.567	0.258
-520.945	-144.188	0.371	0.045
-519.931	800.000	0.160	0.775
-518.916	-43.829	-0.152	-0.101
-517.902	-189.388	-0.452	-0.007
-516.887	-93.400	-0.282	0.102
-515.872	29.455	-0.169	0.190
-514.858	93.150	-0.237	0.353
-513.843	647.145	0.068	0.228
-512.829	305.363	0.147	0.360
-511.814	143.335	0.053	-0.093
-510.799	356.200	-0.248	0.653
-509.785	162.475	0.090	0.166
-508.770	38.656	0.156	0.183
-507.756	-43.700	-0.237	0.157
-506.741	-200.000	0.036	0.467
-505.726	-27.688	-0.149	0.113
-504.712	-67.055	-0.146	-0.075
-503.697	-200.000	0.348	-0.002
-502.683	-200.000	-0.056	-0.339
-501.668	-200.000	0.042	-0.664
-500.653	-130.855	0.256	-0.045
-499.639	798.200	-0.025	0.091
-498.624	8.657	-0.283	0.280
-497.610	-200.000	0.048	-0.552
-496.595	800.000	0.126	0.675
-495.581	-14.250	-0.186	-0.158
-494.566	21.552	0.101	-0.108
-493.551	-106.389	-0.318	0.093
-492.537	50.048	-0.294	0.365
-491.522	-82.418	0.102	0.043
-490.508	513.531	-0.170	0.525
-489.493	-200.000	-0.005	-0.135
-488.478	-124.490	0.261	0.053
-487.464	35.389	0.215	-0.248
-486.449	-135.638	-0.141	0.022
-485.435	-106.340	-0.666	-0.195
-484.420	-200.000	0.044	-0.279
-483.405	682.798	0.086	-0.295
-482.391	800.000	-0.136	-0.738
-481.376	-35.456	-0.142	0.101
-480.362	-176.733	-0.271	0.009
-479.347	-30.699	-0.366	-0.271
-478.332	-200.000	0.091	-0.595
-477.318	-153.481	-0.125	-0.011
-476.303	-70.664	0.475	-0.235
-475.289	800.000	-0.096	-0.408
-474.274	-18.015	0.158	-0.130
-473.259	-200.000	0.010	-0.319
-472.245	-133.635	0.354	-0.058
-471.230	-119.245	0.250	-0.057
-470.216	-153.366	0.285	0.026
-469.201	800.000	0.042	0.207
-468.186	-70.945	0.476	0.234
-467.172	-178.009	0.196	0.006
-466.157	52.353	0.294	-0.369
-465.143	-87.723	-0.327	0.129
-464.128	-200.000	-0.002	-0.067
-463.113	-87.980	-0.243	0.095
-462.099	-147.813	-0.357	-0.039
-461.084	-85.627	-0.168	-0.068
-460.070	-141.690	-0.131	0.017
-459.055	-200.000	-0.004	-0.373
-458.040	-81.195	0.104	-0.045
-457.026	-97.451	-0.502	-0.171
-456.011	-99.681	-0.442	0.145
-454.997	-27.454	0.171	-0.130
-453.982	800.000	-0.094	-0.388
-452.968	106.302	0.191	-0.298
-451.953	598.721	0.118	0.386
-450.938	625.971	0.144	0.480
-449.924	612.099	-0.009	-0.029
-448.909	-41.651	-0.326	-0.220
-447.895	-200.000	-0.028	-0.229
-446.880	-200.000	0.007	0.078
-445.865	535.978	0.067	-0.209
-444.851	25.558	0.233	-0.255
-443.836	6.528	-0.137	-0.134
-442.822	86.106	0.143	-0.207
-441.807	15.644	0.258	0.266
-440.792	-101.211	0.510	-0.162
-439.778	-59.889	0.547	-0.306
-438.763	-133.354	0.399	-0.065
-437.749	509.162	-0.049	0.150
-436.734	-6.010	0.304	0.273
-435.719	679.050	-0.035	0.120
-434.705	233.172	-0.156	0.337
-433.690	-102.982	0.221	0.068
-432.676	-169.381	0.405	0.019
-431.661	-2.148	-0.021	-0.019
-430.646	-200.000	0.009	0.347
-429.632	-78.242	-0.405	-0.182
-428.617	194.195	-0.049	-0.098
-427.603	34.344	-0.126	0.145
-426.588	-99.538	0.463	-0.152
-425.573	-113.014	-0.110	0.028
-424.559	-135.793	-0.451	-0.069
-423.544	-97.618	-0.263	-0.089
-422.530	655.107	0.063	-0.212
-421.515	-34.243	-0.227	-0.163
-420.500	-200.000	-0.020	0.126
-419.486	594.717	0.125	-0.407
-418.471	-48.979	-0.432	-0.270
-417.457	107.542	-0.209	0.327
-416.442	-146.153	-0.128	-0.015
-415.428	621.551	-0.048	0.161
-414.413	520.089	0.108	-0.334
-413.398	-147.851	-0.103	-0.011
-412.384	-134.499	-0.340	-0.054
-411.369	-200.000	0.378	0.002
-410.355	673.872	-0.003	-0.011
-409.340	-29.879	-0.259	0.193
-408.325	97.796	-0.291	-0.439
-407.311	430.232	0.190	-0.541
-406.296	-50.166	-0.234	-0.145
-405.282	5.518	-0.385	0.372
-404.267	-32.917	0.545	-0.396
-403.252	145.115	-0.163	-0.286
-402.238	-171.542	-0.326	0.014
-401.223	-84.060	-0.435	-0.180
-400.209	-38.571	0.548	0.378
-399.194	-171.321	-0.839	0.036
-398.179	800.000	0.063	-0.279
-397.165	800.000	-0.083	-0.340
-396.150	-115.622	0.444	0.108
-395.136	-87.352	-0.411	0.162
-394.121	137.515	-0.074	0.127
-393.106	-63.072	0.436	0.235
-392.092	-77.285	0.037	-0.017
-391.077	-200.000	0.050	-0.470
-390.063	-107.451	0.206	0.059
-389.048	800.000	-0.021	0.101
-388.033	-163.443	-0.168	0.010
-387.019	-147.873	-0.412	0.044
-386.004	95.133	-0.087	-0.130
-384.990	-33.546	-0.267	-0.193
-383.975	106.273	-0.133	-0.206
-382.960	800.000	-0.109	0.403
-381.946	-87.569	0.419	0.165
-380.931	236.113	0.252	-0.548
-379.917	16.730	-0.257	-0.266
-378.902	-85.934	0.179	-0.072
-377.888	-161.766	0.377	-0.025
-376.873	-200.000	-0.032	-0.201
-375.858	240.694	0.265	0.582
-374.844	146.616	0.061	0.108
-373.829	-127.145	0.118	0.022
-372.815	121.676	0.024	0.039
-371.800	10.039	-0.069	0.069
-370.785	-61.848	-0.411	-0.224
-369.771	59.781	0.112	-0.144
-368.756	-89.484	-0.509	-0.195
-367.742	-89.411	0.149	-0.057
-366.727	-63.116	0.088	-0.047
-365.712	-1.499	0.210	-0.194
-364.698	28.182	0.258	0.285
-363.683	235.238	-0.233	-0.505
-362.669	140.581	0.051	-0.088
-361.654	-52.610	-0.075	0.045
-360.639	-150.662	0.246	-0.024
-359.625	-184.810	0.520	-0.011
-358.610	-53.978	0.197	-0.117
-357.596	141.072	0.072	0.125
-356.581	-200.000	-0.041	-0.311
-355.566	-90.476	0.190	-0.072
-354.552	-200.000	-0.004	0.232
-353.537	164.819	-0.080	0.148
-352.523	58.491	-0.189	0.243
-351.508	91.635	-0.377	-0.555
-350.493	-107.037	-0.293	-0.084
-349.479	398.006	-0.112	-0.308
-348.464	-94.756	0.112	-0.039
-347.450	83.937	-0.065	-0.093
-346.435	-3.438	0.191	-0.174
-345.420	-108.493	-0.373	-0.104
-344.406	23.364	-0.190	-0.204
-343.391	-200.000	-0.040	0.516
-342.377	289.408	-0.048	0.114
-341.362	-90.718	-0.619	0.232
-340.348	-122.189	-0.322	0.068
-339.333	41.766	-0.197	-0.233
-338.318	-71.795	-0.189	-0.092
-337.304	177.827	-0.115	-0.219
-336.289	-200.000	-0.009	-0.070
-335.275	-172.113	-0.538	0.022
-334.260	-66.783	0.457	0.235
-333.245	87.939	0.464	-0.674
-332.231	-45.100	0.427	-0.277
-331.216	-187.906	-0.262	-0.004
-330.202	-83.870	-0.270	0.112
-329.187	-200.000	-0.029	0.336
-328.172	-200.000	-0.042	0.292
-327.158	-6.174	-0.154	0.137
-326.143	-36.509	-0.254	0.178
-325.129	70.426	0.211	-0.286
-324.114	-200.000	0.014	0.102
-323.099	-60.112	0.174	-0.097
-322.085	-1.085	0.304	-0.281
-321.070	-12.969	0.196	0.167
-320.056	-44.157	0.283	-0.185
-319.041	-200.000	0.032	0.187
-318.026	-200.000	0.005	-0.033
-317.012	800.000	-0.038	-0.162
-315.997	-200.000	-0.009	0.199
-314.983	152.572	-0.015	0.027
-313.968	-75.202	0.399	-0.185
-312.953	0.662	0.164	0.153
-311.939	-133.143	-0.420	0.069
-310.924	-106.078	0.286	-0.083
-309.910	-30.326	0.221	-0.164
-308.895	-200.000	0.018	-0.130
-307.880	-193.089	-0.494	0.006
-306.866	-27.126	-0.126	0.096
-305.851	19.591	0.191	0.201
-304.837	-129.671	-0.259	-0.046
-303.822	-96.583	0.649	-0.222
-302.807	-200.000	-0.041	0.687
-301.793	184.204	-0.223	0.433
-300.778	-18.629	0.295	0.240
-299.764	-113.660	-0.253	0.064
-298.749	186.286	0.158	-0.309
-297.735	-111.654	-0.550	0.145
-296.720	506.558	-0.205	0.622
-295.705	426.800	-0.318	0.898
-294.691	-87.324	-0.169	-0.067
-293.676	-4.376	0.234	0.211
-292.662	-200.000	0.038	-0.296
-291.647	-44.314	0.100	-0.065
-290.632	-63.794	0.260	0.139
-289.618	-108.999	0.368	0.102
-288.603	-125.126	0.053	-0.010
-287.589	-31.398	-0.110	-0.081
-286.574	-148.888	0.170	-0.018
-285.559	220.486	0.175	0.367
-284.545	-67.797	-0.110	-0.056
-283.530	-21.871	0.164	0.130
-282.516	-200.000	-0.016	0.095
-281.501	-92.968	-0.705	-0.255
-280.486	-37.034	-0.362	0.252
-279.472	800.000	0.206	0.764
-278.457	273.058	-0.180	0.416
-277.443	417.714	0.134	0.376
-276.428	175.787	-0.024	-0.045
-275.413	-133.628	-0.075	-0.012
-274.399	315.127	0.184	0.455
-273.384	62.878	-0.176	-0.230
-272.370	296.570	-0.074	-0.179
-271.355	68.992	-0.113	0.152
-270.340	607.491	0.013	-0.044
-269.326	196.404	-0.501	-0.998
-268.311	-162.922	0.128	0.008
-267.297	-46.465	-0.467	-0.298
-266.282	163.142	-0.111	-0.203
-265.267	-76.803	0.411	0.187
-264.253	800.000	0.046	0.232
-263.238	-82.206	0.241	-0.102
-262.224	45.739	0.195	0.236
-261.209	73.512	0.184	-0.252
-260.195	-200.000	-0.007	0.269
-259.180	-132.687	0.128	-0.021
-258.165	61.456	0.169	0.219
-257.151	-147.267	-0.341	-0.037
-256.136	16.436	0.165	0.170
-255.122	286.170	-0.183	0.432
-254.107	-23.252	-0.238	-0.186
-253.092	800.000	-0.073	-0.376
-252.078	59.027	-0.140	0.179
-251.063	-78.383	0.073	-0.033
-250.049	-4.692	0.152	0.137
-249.034	-200.000	0.013	0.243
-248.019	-200.000	-0.069	0.441
-247.005	27.750	0.040	-0.044
-245.990	-200.000	-0.023	0.291
-244.976	800.000	0.063	-0.359
-243.961	800.000	-0.032	-0.160
-242.946	-103.058	0.040	-0.012
-241.932	22.314	0.280	0.298
-240.917	-105.025	0.274	-0.081
-239.903	-144.256	-0.341	0.041
-238.888	-163.602	-0.310	0.019
-237.873	-109.019	0.545	-0.150
-236.859	470.878	-0.173	0.508
-235.844	-112.573	-0.033	0.008
-234.830	-110.392	-0.439	0.118
-233.815	-200.000	-0.051	0.480
-232.800	-116.662	-0.410	0.097
-231.786	184.174	0.150	0.290
-230.771	-58.806	-0.351	0.197
-229.757	78.832	-0.171	-0.239
-228.742	-82.853	0.220	-0.092
-227.727	95.199	0.321	0.477
-226.713	-48.980	-0.189	0.118
-225.698	185.555	0.087	0.168
-224.684	73.081	0.047	-0.064
-223.669	-99.959	0.273	0.088
-222.655	-57.263	0.056	0.032
-221.640	-103.221	-0.756	-0.231
-220.625	-90.881	-0.290	0.108
-219.611	-200.000	0.034	0.379
-218.596	210.718	-0.121	0.247
-217.582	92.489	0.042	0.062
-216.567	800.000	-0.010	0.048
-215.552	-123.988	0.459	0.093
-214.538	-99.279	-0.653	0.213
-213.523	188.346	0.127	0.249
-212.509	-62.467	0.238	0.128
-211.494	-152.774	-0.508	0.046
-210.479	525.767	-0.099	0.306
-209.465	-82.073	0.177	0.075
-208.450	17.615	0.111	-0.114
-207.436	-80.480	-0.223	0.096
-206.421	75.890	0.088	0.122
-205.406	-31.115	-0.254	-0.186
-204.392	-200.000	-0.017	0.501
-203.377	-74.258	0.118	-0.055
-202.363	-200.000	-0.032	-0.208
-201.348	-164.739	0.447	0.026
-200.333	-200.000	-0.004	0.338
-199.319	32.874	0.117	-0.132
-198.304	57.000	0.154	-0.195
-197.290	800.000	0.097	0.547
-196.275	-5.082	0.268	0.240
-195.260	-125.686	-0.205	0.040
-194.246	-108.999	0.587	-0.161
-193.231	31.146	0.320	-0.356
-192.217	321.585	0.070	0.174
-191.202	31.873	0.500	-0.560
-190.187	282.688	-0.226	-0.529
-189.173	11.873	0.110	0.110
-188.158	672.497	-0.096	-0.325
-187.144	219.141	-0.146	-0.304
-186.129	-200.000	-0.008	0.265
-185.114	-95.941	0.279	0.096
-184.100	-27.973	0.114	-0.085
-183.085	-80.860	-0.307	0.132
-182.071	18.187	0.230	-0.239
-181.056	-122.682	0.650	-0.136
-180.042	8.226	-0.393	-0.383
-179.027	80.076	-0.129	0.180
-178.012	-200.000	0.025	0.421
-176.998	-200.000	0.006	0.529
-175.983	-117.428	0.200	-0.047
-174.969	-117.644	-0.151	-0.035
-173.954	34.931	0.285	-0.324
-172.939	-200.000	-0.064	-0.433
-171.925	-95.986	-0.522	0.179
-170.910	-200.000	0.049	0.295
-169.896	-52.349	0.307	0.184
-168.881	198.304	-0.290	0.578
-167.866	261.986	0.116	-0.262
-166.852	-173.590	-0.381	0.015
-165.837	-74.439	-0.200	-0.093
-164.823	-120.825	0.645	0.140
-163.808	-102.533	0.081	0.025
-162.793	30.583	-0.245	0.272
-161.779	-59.713	0.472	-0.262
-160.764	4.119	-0.389	-0.369
-159.750	21.196	0.371	0.391
-158.735	-200.000	0.052	0.419
-157.720	-27.206	0.493	0.372
-156.706	-122.538	0.563	-0.118
-155.691	-30.942	-0.088	0.064
-154.677	43.260	-0.299	-0.355
-153.662	-133.365	0.401	-0.065
-152.647	688.552	0.089	-0.305
-151.633	41.948	-0.313	0.369
-150.618	-47.393	0.069	0.044
-149.604	-84.941	0.494	0.200
-148.589	549.644	0.108	-0.339
-147.574	76.646	0.091	0.126
-146.560	288.037	0.030	-0.071
-145.545	-163.855	-0.554	-0.033
-144.531	13.813	-0.291	0.294
-143.516	-181.424	-0.423	0.011
-142.502	-163.884	-0.746	-0.045
-141.487	-36.461	-0.338	-0.236
-140.472	85.486	0.434	-0.619
-139.458	-47.184	-0.094	-0.059
-138.443	63.891	-0.264	0.345
-137.429	-18.361	-0.125	-0.101
-136.414	-114.185	0.263	0.065
-135.399	247.011	0.145	0.318
-134.385	-162.050	-0.211	0.014
-133.370	800.000	-0.028	-0.111
-132.356	-183.669	-0.209	0.005
-131.341	62.945	0.141	-0.183
-130.326	-70.075	-0.355	0.175
-129.312	290.116	-0.054	-0.128
-128.297	-108.246	0.571	0.159
-127.283	107.382	0.027	0.042
-126.268	-12.844	-0.142	-0.120
-125.253	-174.937	-0.586	-0.021
-124.239	-184.618	0.100	-0.002
-123.224	800.000	0.057	-0.237
-122.210	-163.589	0.141	0.008
-121.195	-50.693	0.308	-0.187
-120.180	-120.124	-0.512	0.113
-119.166	39.475	-0.394	0.457
-118.151	-65.852	0.322	-0.166
-117.137	800.000	-0.147	-0.611
-116.122	800.000	0.040	-0.180
-115.107	-98.483	-0.065	0.021
-114.093	-120.828	-0.106	0.023
-113.078	-115.322	-0.418	0.102
-112.064	800.000	0.065	0.338
-111.049	-9.489	-0.094	-0.081
-110.034	463.758	0.075	-0.218
-109.020	105.590	-0.168	0.258
-108.005	-49.782	-0.510	-0.313
-106.991	-24.279	0.192	-0.148
-105.976	-86.073	0.224	0.089
-104.962	-131.871	0.368	-0.062
-103.947	368.821	0.075	0.197
-102.932	-157.707	-0.043	-0.003
-101.918	-200.000	0.011	0.070
-100.903	-69.346	0.291	0.144
-99.889	46.544	0.315	-0.379
-98.874	-47.713	-0.286	-0.179
-97.859	68.060	0.099	-0.132
-96.845	800.000	-0.014	-0.067
-95.830	-200.000	0.014	-0.160
-94.816	-176.100	0.422	-0.014
-93.801	800.000	0.082	-0.409
-92.786	-43.632	0.211	-0.138
-91.772	165.767	-0.152	0.279
-90.757	-200.000	0.007	0.053
-89.743	-123.156	0.339	0.070
-88.728	24.620	-0.017	0.018
-87.713	-154.233	0.232	-0.020
-86.699	-5.002	-0.303	0.270
-85.684	85.284	0.428	0.608
-84.670	-43.349	0.499	-0.325
-83.655	-67.213	0.371	-0.188
-82.640	-66.833	0.428	0.218
-81.626	800.000	-0.018	0.072
-80.611	-19.615	-0.208	0.166
-79.597	-4.826	-0.125	0.111
-78.582	-195.951	0.075	0.001
-77.567	1.201	-0.167	0.155
-76.553	-72.071	-0.299	0.143
-75.538	264.867	0.304	0.687
-74.524	-102.425	0.499	-0.154
-73.509	197.455	0.175	0.347
-72.494	264.410	-0.210	0.475
-71.480	45.184	0.140	0.168
-70.465	800.000	0.282	1.038
-69.451	222.246	0.154	0.322
-68.436	-79.708	0.127	0.055
-67.422	783.814	0.024	0.085
-66.407	-141.645	-0.226	-0.029
-65.392	-200.000	0.012	-0.083
-64.378	136.223	0.059	-0.100
-63.363	-200.000	-0.031	-0.235
-62.349	388.699	-0.075	0.201
-61.334	-6.285	-2.283	-2.013
-60.319	87.904	1.335	1.917
-59.305	252.243	-3.441	-7.609
-58.290	24.461	4.292	4.589
-57.276	402.575	3.703	10.112
-56.261	-200.000	24.441	321.546
-55.246	354.446	1305.111	3367.942
-54.232	53.162	2844.041	3523.336
-53.217	51.543	2659.340	3269.375
-52.203	31.622	2389.341	2656.713
-51.188	27.766	2054.722	2237.142
-50.173	24.482	1941.154	2075.108
-49.159	23.394	1929.139	2049.544
-48.144	22.828	1924.817	2038.301
-47.130	22.710	1923.003	2034.925
-46.115	22.902	1920.184	2034.087
-45.100	22.905	1918.926	2032.716
-44.086	22.858	1917.724	2030.814
-43.071	22.857	1915.916	2028.801
-42.057	22.750	1914.551	2026.050
-41.042	22.746	1913.338	2024.635
-40.027	22.706	1912.389	2023.084
-39.013	22.783	1910.272	2021.656
-37.998	22.662	1910.185	2020.086
-36.984	22.605	1908.647	2017.729
-35.969	22.675	1907.098	2016.816
-34.954	22.714	1905.583	2015.580
-33.940	22.726	1903.544	2013.482
-32.925	22.676	1902.624	2011.852
-31.911	22.651	1900.906	2009.673
-30.896	22.680	1900.096	2009.067
-29.881	22.603	1899.014	2006.962
-28.867	22.713	1897.344	2006.378
-27.852	22.644	1896.385	2004.490
-26.838	22.504	1895.117	2001.472
-25.823	22.605	1893.181	2000.505
-24.809	22.645	1891.148	1998.736
-23.794	22.555	1891.682	1998.188
-22.779	22.566	1888.684	1995.068
-21.765	22.540	1887.835	1993.795
-20.750	22.599	1887.177	1993.690
-19.736	22.571	1885.700	1991.739
-18.721	22.552	1885.070	1990.782
-17.706	22.624	1883.140	1989.473
-16.692	22.368	1883.470	1986.843
-15.677	22.528	1881.496	1986.499
-14.663	22.416	1880.585	1984.179
-13.648	22.550	1879.019	1983.975
-12.633	22.391	1877.616	1980.607
-11.619	22.557	1875.672	1980.360
-10.604	22.487	1875.229	1979.028
-9.590	22.437	1873.837	1976.914
-8.575	22.445	1873.303	1976.357
-7.560	22.288	1872.150	1973.297
-6.546	22.457	1870.928	1973.832
-5.531	22.511	1869.465	1972.822
-4.517	22.406	1867.547	1969.533
-3.502	22.425	1866.445	1968.507
-2.487	22.575	1865.568	1969.188
-1.473	22.509	1862.131	1964.745
-0.458	22.374	1843.808	1943.840
0.556	18.993	1990.868	2046.240
1.571	17.558	2193.337	2235.155
2.586	18.334	2232.889	2285.607
3.600	18.385	2235.097	2288.279
4.615	18.378	2234.514	2287.312
5.629	18.393	2232.690	2285.366
6.644	18.481	2229.982	2283.509
7.659	18.392	2228.090	2280.107
8.673	18.325	2226.900	2277.718
9.688	18.015	2236.492	2283.090
10.702	17.077	2315.983	2350.902
11.717	15.634	2379.530	2394.466
12.731	7.455	2360.291	2258.220
13.746	1.076	2342.439	2150.102
14.761	0.265	2339.330	2135.446
15.775	0.184	2337.412	2132.283
16.790	0.126	2335.734	2129.669
17.804	-0.034	2335.608	2127.031
18.819	0.089	2334.054	2127.106
19.834	-0.053	2333.118	2123.984
20.848	0.001	2331.359	2122.900
21.863	-0.008	2329.600	2120.910
22.877	0.041	2327.108	2119.084
23.892	-0.012	2324.181	2115.414
24.907	0.099	2321.603	2114.382
25.921	0.106	2320.348	2113.079
26.936	0.021	2318.468	2109.918
27.950	-0.044	2316.213	2106.698
28.965	0.029	2314.250	2105.695
29.980	0.009	2313.055	2104.074
30.994	0.133	2310.827	2103.530
32.009	4.013	2322.597	2168.702
33.023	13.300	2349.878	2325.732
34.038	17.379	2355.947	2389.152
35.053	17.689	2353.668	2390.933
36.067	17.803	2351.334	2389.871
37.082	17.787	2349.327	2387.324
38.096	17.770	2347.403	2384.838
39.111	17.884	2346.497	2385.237
40.126	17.973	2344.662	2384.331
41.140	18.170	2342.427	2384.540
42.155	18.036	2340.384	2380.299
43.169	17.982	2338.106	2376.943
44.184	17.926	2335.278	2372.995
45.199	17.933	2333.453	2370.964
46.213	17.908	2332.500	2369.364
47.228	18.104	2331.220	2370.506
48.242	18.081	2329.642	2368.294
49.257	18.136	2328.673	2367.792
50.271	18.097	2325.226	2363.466
51.286	17.966	2322.503	2358.590
52.301	17.842	2322.057	2356.146
53.315	18.165	2322.158	2360.444
54.330	19.959	2325.392	2388.340
55.344	20.892	2326.335	2401.960
56.359	20.990	2322.448	2399.021
57.374	21.144	2321.600	2399.983
58.388	21.351	2319.172	2400.044
59.403	21.359	2314.686	2395.224
60.417	21.177	2312.333	2390.000
61.432	21.213	2311.771	2389.624
62.447	21.419	2310.634	2390.989
63.461	21.462	2308.668	2389.263
64.476	21.621	2306.639	2389.057
65.490	21.345	2305.525	2383.835
66.505	20.945	2302.081	2374.510
67.520	19.668	2296.654	2351.171
68.534	18.240	2290.577	2325.185
69.549	18.061	2285.564	2317.373
70.563	18.082	2284.031	2315.828
71.578	18.033	2282.849	2313.684
72.593	18.066	2280.659	2311.643
73.607	18.130	2279.655	2311.211
74.622	18.175	2277.494	2309.354
75.636	18.001	2274.925	2304.123
76.651	17.997	2273.340	2302.182
77.666	18.143	2270.175	2300.682
78.680	18.063	2269.135	2298.267
79.695	18.059	2267.131	2295.906
80.709	17.967	2265.583	2292.831
81.724	18.033	2264.322	2292.171
82.739	17.975	2261.177	2287.922
83.753	17.886	2258.531	2283.775
84.768	17.894	2256.872	2281.938
85.782	17.824	2256.549	2280.390
86.797	17.932	2254.125	2279.125
87.812	17.951	2252.858	2277.824
88.826	18.042	2250.428	2276.311
89.841	17.994	2247.647	2272.587
90.855	17.977	2245.329	2269.736
91.870	18.024	2243.605	2268.348
92.884	18.013	2241.137	2265.437
93.899	17.917	2241.268	2264.021
94.914	18.222	2242.393	2268.948
95.928	19.694	2246.224	2292.198
96.943	20.250	2244.148	2297.203
97.957	18.829	2236.818	2270.565
98.972	18.030	2232.666	2255.476
99.987	17.926	2229.829	2250.968
101.001	17.757	2228.577	2247.193
102.016	17.883	2226.324	2246.324
103.030	17.960	2223.509	2244.230
104.045	17.944	2220.814	2241.024
105.060	17.973	2219.074	2239.395
106.074	17.959	2217.550	2237.395
107.089	17.865	2215.682	2234.014
108.103	17.938	2214.767	2233.783
109.118	17.961	2213.604	2232.637
110.133	18.010	2212.128	2231.533
111.147	18.042	2210.016	2229.545
112.162	18.076	2208.923	2228.625
113.176	17.988	2206.738	2225.005
114.191	18.051	2204.418	2223.227
115.206	18.056	2202.649	2221.242
116.220	17.939	2200.966	2217.752
117.235	18.067	2197.828	2215.988
118.249	18.002	2196.455	2213.491
119.264	17.996	2195.124	2211.809
120.279	18.109	2193.617	2211.487
121.293	18.025	2191.409	2207.910
122.308	18.030	2189.875	2206.163
123.322	18.001	2189.195	2204.845
124.337	18.217	2189.726	2207.913
125.352	19.915	2194.405	2234.420
126.366	20.244	2191.837	2235.806
127.381	18.679	2184.134	2207.456
128.395	17.902	2180.474	2193.470
129.410	18.012	2178.000	2192.132
130.424	18.058	2176.568	2191.023
131.439	18.043	2174.397	2188.387
132.454	17.968	2173.223	2185.968
133.468	17.981	2170.540	2183.184
134.483	17.994	2168.856	2181.386
135.497	17.957	2167.776	2179.575
136.512	17.949	2165.577	2176.996
137.527	18.020	2163.633	2175.684
138.541	17.984	2162.935	2174.260
139.556	17.857	2161.104	2170.536
140.570	17.841	2159.424	2168.384
141.585	17.826	2158.584	2167.099
142.600	17.850	2156.892	2165.445
143.614	17.886	2155.017	2163.759
144.629	18.029	2152.464	2162.758
145.643	17.813	2151.267	2158.546
146.658	17.789	2149.876	2156.592
147.673	17.840	2147.809	2154.907
148.687	17.909	2147.187	2154.904
149.702	17.895	2146.177	2153.446
150.716	17.896	2145.147	2152.170
151.731	17.980	2143.602	2151.427
152.746	17.955	2141.918	2149.164
153.760	18.316	2143.617	2155.176
154.775	19.915	2147.888	2179.466
155.789	20.211	2145.685	2180.712
156.804	18.733	2137.976	2153.994
157.819	17.890	2132.217	2137.336
158.833	17.952	2129.778	2135.414
159.848	18.017	2127.967	2134.155
160.862	18.098	2126.512	2133.458
161.877	18.135	2125.167	2132.313
162.892	18.097	2125.329	2131.742
163.906	17.980	2123.407	2128.091
164.921	17.968	2122.169	2126.448
165.935	18.041	2119.339	2124.271
166.950	18.031	2117.985	2122.542
167.964	17.990	2115.293	2119.072
168.979	17.893	2113.804	2116.125
169.994	18.007	2112.262	2115.740
171.008	18.121	2110.270	2114.913
172.023	17.981	2108.903	2111.547
173.037	17.953	2108.070	2110.108
174.052	17.994	2106.483	2108.776
175.067	17.943	2104.145	2105.560
176.081	17.951	2103.566	2104.828
177.096	17.978	2102.297	2103.638
178.110	17.870	2101.157	2100.910
179.125	18.032	2099.203	2100.701
180.140	18.108	2096.813	2099.006
181.154	18.030	2096.043	2097.012
182.169	17.932	2095.241	2094.750
183.183	18.340	2095.470	2099.759
184.198	20.033	2099.640	2124.582
185.213	20.377	2097.880	2126.776
186.227	18.782	2091.754	2100.723
187.242	18.121	2088.490	2089.070
188.256	17.971	2086.553	2085.054
189.271	17.981	2084.716	2083.083
190.286	17.928	2083.883	2081.351
191.300	17.944	2080.833	2078.249
192.315	18.046	2078.435	2076.855
193.329	18.170	2077.369	2077.054
194.344	18.125	2077.140	2076.030
195.359	18.190	2076.166	2075.598
196.373	18.101	2073.327	2071.435
197.388	17.981	2070.733	2067.133
198.402	17.873	2069.390	2064.226
199.417	17.900	2067.291	2062.220
200.432	17.949	2065.718	2061.000
201.446	18.020	2064.989	2060.885
202.461	18.055	2061.925	2058.002
203.475	17.952	2061.289	2055.875
204.490	17.871	2060.145	2053.509
205.504	17.925	2057.428	2051.210
206.519	17.938	2054.936	2048.626
207.534	17.840	2053.478	2045.754
208.548	17.906	2052.612	2045.442
209.563	17.971	2050.747	2044.119
210.577	18.053	2049.646	2043.759
211.592	18.025	2048.881	2042.421
212.607	18.778	2051.716	2054.058
213.621	20.590	2056.367	2080.271
214.636	20.143	2051.886	2070.132
215.650	18.496	2044.153	2042.367
216.665	18.072	2041.774	2034.683
217.680	18.111	2040.428	2033.559
218.694	18.025	2038.578	2030.447
219.709	18.013	2036.676	2028.164
220.723	18.187	2035.749	2029.067
221.738	18.017	2034.081	2025.146
222.753	18.002	2031.716	2022.371
223.767	18.048	2030.279	2021.244
224.782	17.989	2028.020	2018.050
225.796	17.948	2027.293	2016.593
226.811	18.010	2026.211	2016.021
227.826	18.057	2024.195	2014.326
228.840	18.059	2022.881	2012.805
229.855	17.998	2021.888	2010.847
230.869	18.088	2019.376	2009.179
231.884	17.930	2018.862	2006.552
232.899	17.942	2016.738	2004.350
233.913	17.970	2016.034	2003.735
234.928	18.003	2014.297	2002.162
235.942	17.974	2012.593	1999.889
236.957	18.008	2010.943	1998.406
237.972	18.021	2009.975	1997.356
238.986	18.004	2009.464	1996.415
240.001	17.895	2007.999	1993.438
241.015	18.000	2005.998	1992.443
242.030	18.375	2006.744	1997.345
243.045	19.883	2009.400	2017.427
244.059	20.062	2006.854	2016.731
245.074	18.530	2000.668	1992.384
246.088	18.078	1997.377	1983.605
247.103	18.025	1995.669	1981.051
248.117	18.025	1994.688	1979.835
249.132	17.972	1993.315	1977.620
250.147	17.925	1991.015	1974.552
251.161	17.942	1989.143	1972.665
252.176	18.144	1987.847	1973.489
253.190	18.283	1986.568	1973.584
254.205	18.187	1984.896	1970.577
255.220	18.110	1983.467	1968.032
256.234	18.168	1982.060	1967.079
257.249	18.131	1980.851	1965.211
258.263	18.015	1980.528	1963.311
259.278	18.116	1978.390	1962.129
260.293	18.024	1977.176	1959.627
261.307	17.875	1975.211	1955.731
262.322	17.857	1973.684	1953.779
263.336	17.834	1971.806	1951.420
264.351	17.863	1969.668	1949.399
265.366	17.899	1969.172	1949.094
266.380	17.953	1967.889	1948.208
267.395	17.925	1966.657	1946.430
268.409	17.948	1964.090	1943.928
269.424	17.963	1963.121	1942.908
270.439	17.922	1962.385	1941.472
271.453	18.494	1962.697	1948.085
272.468	20.007	1966.278	1968.709
273.482	20.187	1962.746	1966.982
274.497	18.505	1956.235	1941.102
275.512	18.019	1952.706	1931.849
276.526	17.952	1950.604	1928.774
277.541	17.953	1948.260	1926.238
278.555	17.859	1947.612	1924.303
279.570	17.872	1946.057	1922.674
280.585	17.737	1944.312	1919.197
281.599	17.898	1943.198	1919.692
282.614	18.114	1941.608	1920.328
283.628	18.180	1940.238	1919.483
284.643	18.044	1941.026	1918.497
285.657	18.097	1939.063	1916.924
286.672	18.210	1937.060	1915.992
287.687	18.147	1936.106	1914.106
288.701	18.284	1935.030	1914.359
289.716	18.065	1933.359	1910.019
290.730	18.161	1930.809	1908.343
291.745	18.258	1929.917	1908.317
292.760	18.035	1929.091	1904.783
293.774	18.046	1928.169	1903.767
294.789	18.034	1926.991	1902.240
295.803	17.960	1924.055	1898.278
296.818	18.088	1922.460	1897.916
297.833	18.009	1921.540	1895.900
298.847	17.985	1919.841	1893.727
299.862	18.092	1919.067	1893.926
300.876	18.297	1919.669	1896.572
301.891	19.993	1922.715	1918.259
302.906	20.464	1919.778	1920.332
303.920	18.751	1914.714	1896.041
304.935	18.174	1911.537	1886.273
305.949	18.048	1908.757	1881.909
306.964	17.964	1907.940	1879.946
307.979	18.192	1906.079	1880.408
308.993	18.100	1905.207	1878.307
310.008	18.156	1903.379	1876.904
311.022	18.269	1902.383	1876.943
312.037	18.214	1901.346	1875.084
313.052	18.338	1898.812	1873.727
314.066	18.149	1897.510	1870.143
315.081	18.204	1896.820	1869.842
316.095	18.202	1895.096	1867.894
317.110	18.153	1893.911	1865.968
318.125	18.079	1891.721	1862.775
319.139	18.082	1891.612	1862.478
320.154	18.162	1889.918	1861.464
321.168	18.044	1887.960	1858.020
322.183	18.151	1886.523	1857.549
323.197	18.002	1885.035	1854.236
324.212	17.986	1882.916	1851.759
325.227	17.826	1882.124	1849.021
326.241	17.925	1879.838	1847.627
327.256	18.068	1878.513	1847.653
328.270	17.865	1878.364	1845.087
329.285	17.886	1877.107	1843.851
330.300	18.561	1880.394	1854.202
331.314	20.444	1882.266	1876.283
332.329	20.191	1878.637	1869.700
333.343	18.457	1872.213	1844.347
334.358	18.019	1869.147	1836.370
335.373	17.894	1868.969	1834.625
336.387	18.034	1865.801	1832.805
337.402	17.904	1864.592	1830.004
338.416	17.800	1864.098	1828.177
339.431	17.925	1862.541	1827.775
340.446	18.169	1860.306	1827.988
341.460	18.100	1859.197	1825.935
342.475	18.181	1858.078	1825.488
343.489	18.149	1857.196	1824.057
344.504	18.188	1855.537	1822.627
345.519	18.283	1853.733	1821.658
346.533	18.259	1852.699	1820.168
347.548	18.361	1851.131	1819.495
348.562	18.226	1850.164	1816.890
349.577	18.259	1849.304	1816.182
350.592	18.191	1848.221	1814.175
351.606	18.265	1846.348	1812.906
352.621	18.246	1844.052	1810.234
353.635	17.946	1843.214	1806.006
354.650	17.970	1841.234	1804.100
355.665	17.915	1840.199	1802.287
356.679	18.005	1838.818	1801.671
357.694	18.005	1837.492	1800.161
358.708	18.103	1835.300	1798.837
359.723	18.843	1837.938	1809.039
360.738	20.508	1840.608	1829.079
361.752	20.047	1836.324	1819.730
362.767	18.417	1831.413	1797.475
363.781	18.117	1828.046	1790.797
364.796	18.022	1827.068	1788.625
365.810	17.883	1826.330	1786.227
366.825	17.819	1824.900	1783.945
367.840	18.010	1824.820	1785.659
368.854	18.132	1822.477	1784.429
369.869	17.781	1820.716	1778.813
370.883	17.818	1818.931	1777.240
371.898	17.816	1818.223	1776.314
372.913	17.919	1817.399	1776.374
373.927	17.954	1815.884	1775.047
374.942	17.834	1815.605	1773.311
375.956	17.963	1813.302	1772.197
376.971	18.047	1810.270	1769.895
377.986	17.847	1809.926	1767.264
379.000	17.856	1808.239	1765.495
380.015	18.115	1807.466	1767.221
381.029	18.194	1805.777	1766.185
382.044	18.149	1803.638	1763.412
383.059	18.074	1802.170	1760.992
384.073	18.102	1800.777	1759.706
385.088	17.990	1800.455	1758.025
386.102	17.907	1798.887	1755.428
387.117	17.862	1796.253	1752.174
388.132	17.934	1796.740	1753.183
389.146	18.302	1799.839	1759.802
390.161	20.308	1801.736	1782.179
391.175	20.084	1795.791	1773.774
392.190	18.305	1789.815	1749.402
393.205	17.889	1787.022	1742.196
394.219	17.974	1785.301	1741.182
395.234	17.813	1784.209	1738.264
396.248	17.881	1782.507	1737.092
397.263	17.976	1780.610	1736.002
398.278	17.930	1778.609	1733.379
399.292	17.904	1778.497	1732.794
400.307	18.033	1777.923	1733.345
401.321	18.001	1777.416	1732.319
402.336	18.090	1775.027	1730.683
403.350	18.149	1773.035	1729.135
404.365	18.114	1772.932	1728.472
405.380	18.374	1771.612	1729.616
406.394	18.460	1770.272	1728.978
407.409	18.256	1769.109	1725.565
408.423	18.426	1766.883	1724.913
409.438	18.380	1765.075	1722.472
410.453	18.171	1765.101	1720.176
411.467	18.139	1763.965	1718.539
412.482	18.174	1762.267	1717.032
413.496	18.119	1761.005	1715.049
414.511	18.070	1759.061	1712.450
415.526	18.075	1755.577	1708.906
416.540	18.036	1754.206	1706.979
417.555	18.075	1753.562	1706.536
418.569	17.948	1753.798	1705.289
419.584	18.037	1753.682	1705.867
420.599	18.010	1753.846	1705.545
421.613	18.165	1752.403	1705.497
422.628	18.038	1751.545	1703.182
423.642	18.132	1749.119	1701.563
424.657	18.011	1747.809	1698.869
425.672	18.033	1745.958	1697.090
426.686	18.036	1744.512	1695.507
427.701	17.884	1743.594	1692.897
428.715	17.838	1742.619	1691.292
429.730	18.106	1740.796	1691.990
430.745	18.024	1739.491	1689.701
431.759	17.987	1739.104	1688.758
432.774	17.917	1738.214	1686.998
433.788	18.036	1737.489	1687.268
434.803	18.168	1736.694	1687.605
435.818	18.116	1736.405	1686.606
436.832	17.996	1735.085	1683.928
437.847	17.026	1728.732	1667.987
438.861	9.479	1707.857	1573.727
439.876	1.770	1693.721	1485.178
440.890	0.279	1690.458	1467.539
441.905	0.239	1689.515	1466.158
442.920	0.172	1687.319	1463.426
443.934	0.127	1686.448	1462.055
444.949	0.009	1686.477	1460.750
445.963	-0.093	1684.743	1458.076
446.978	0.046	1683.829	1458.469
447.993	0.131	1682.177	1457.685
449.007	0.234	1679.447	1456.150
450.022	0.223	1677.620	1454.287
451.036	0.147	1676.586	1452.476
452.051	1.176	1681.938	1466.949
453.066	9.027	1698.541	1558.110
454.080	16.378	1709.757	1640.202
455.095	17.543	1711.605	1653.147
456.109	17.839	1711.688	1655.922
457.124	17.841	1710.014	1654.116
458.139	17.813	1709.176	1652.834
459.153	17.831	1707.649	1651.343
460.168	17.865	1706.211	1650.082
461.182	17.819	1704.779	1648.054
462.197	17.711	1702.501	1644.604
463.212	17.715	1701.370	1643.356
464.226	17.791	1699.789	1642.365
465.241	17.911	1698.851	1642.421
466.255	17.908	1697.448	1640.839
467.270	17.879	1696.580	1639.523
468.285	17.941	1694.647	1638.064
469.299	17.879	1693.945	1636.588
470.314	17.906	1692.263	1635.029
471.328	17.800	1691.550	1633.120
472.343	17.845	1690.512	1632.355
473.358	17.893	1688.750	1630.919
474.372	17.877	1687.846	1629.697
475.387	17.779	1686.628	1627.386
476.401	17.867	1684.619	1626.100
477.416	17.783	1684.063	1624.567
478.430	17.765	1683.198	1623.364
479.445	17.865	1681.727	1622.706
480.460	17.777	1680.249	1620.247
481.474	17.815	1678.778	1618.994
482.489	17.921	1677.161	1618.255
483.503	17.852	1676.118	1616.398
484.518	17.965	1674.907	1616.105
485.533	17.933	1672.932	1613.708
486.547	17.949	1671.680	1612.454
487.562	18.034	1670.988	1612.401
488.576	18.108	1669.801	1611.766
489.591	17.917	1668.916	1608.911
490.606	17.919	1667.143	1607.024
491.620	18.010	1664.608	1605.252
492.635	18.127	1662.752	1604.367
493.649	18.007	1662.602	1602.901
494.664	17.821	1661.579	1599.975
495.679	17.788	1660.555	1598.479
496.693	17.732	1658.874	1596.148
497.708	17.761	1657.389	1594.802
498.722	17.908	1656.626	1595.254
499.737	17.962	1655.316	1594.311
500.752	17.904	1653.722	1592.037
501.766	17.731	1653.006	1589.537
502.781	17.753	1650.934	1587.560
503.795	17.920	1649.352	1587.408
504.810	17.814	1648.890	1585.791
505.825	17.800	1648.606	1585.190
506.839	17.900	1647.126	1584.515
507.854	17.960	1645.033	1582.867
508.868	17.972	1643.477	1581.295
509.883	17.843	1642.706	1579.165
510.898	18.027	1640.648	1578.709
511.912	17.929	1639.571	1576.568
512.927	17.953	1637.886	1574.983
513.941	17.805	1637.288	1572.844
514.956	17.887	1636.025	1572.203
515.971	17.927	1634.273	1570.703
516.985	18.112	1632.695	1570.710
518.000	18.018	1632.295	1569.264
519.014	17.891	1631.239	1566.897
520.029	17.900	1630.661	1566.234
521.043	17.931	1628.845	1564.586
522.058	17.857	1627.516	1562.440
523.073	17.942	1626.987	1562.533
524.087	18.005	1625.093	1561.102
525.102	18.017	1623.366	1559.367
526.116	17.958	1623.028	1558.311
527.131	17.857	1622.279	1556.483
528.146	17.990	1621.007	1556.292
529.160	17.939	1620.487	1555.137
530.175	18.094	1618.546	1554.507
531.189	17.971	1617.218	1551.926
532.204	18.107	1615.671	1551.491
533.219	17.878	1614.953	1548.528
534.233	17.832	1614.487	1547.480
535.248	17.948	1613.346	1547.258
536.262	18.156	1611.870	1547.544
537.277	18.124	1611.350	1546.577
538.292	17.997	1610.268	1544.197
539.306	18.035	1608.155	1542.326
540.321	17.996	1607.210	1540.884
541.335	18.123	1604.766	1539.509
542.350	18.221	1602.665	1538.194
543.365	18.076	1601.853	1535.918
544.379	17.963	1601.038	1533.933
545.394	18.012	1599.951	1533.155
546.408	18.005	1598.121	1531.147
547.423	17.951	1597.674	1530.058
548.438	17.856	1596.321	1527.721
549.452	17.928	1595.015	1526.937
550.467	18.038	1593.861	1526.631
551.481	17.966	1593.342	1525.311
552.496	17.864	1592.576	1523.474
553.511	17.863	1591.310	1522.076
554.525	18.005	1589.644	1521.575
555.540	17.966	1589.627	1521.024
556.554	17.954	1588.033	1519.204
557.569	18.025	1585.971	1517.690
558.583	17.967	1584.670	1515.743
559.598	18.017	1583.670	1515.053
560.613	17.934	1582.841	1513.340
561.627	18.087	1580.870	1512.637
562.642	18.002	1579.689	1510.570
563.656	18.184	1578.207	1510.582
564.671	18.067	1577.454	1508.641
565.686	18.001	1575.749	1506.245
566.700	17.914	1575.091	1504.670
567.715	17.938	1574.198	1503.851
568.729	17.904	1572.588	1501.829
569.744	17.881	1570.680	1499.628
570.759	18.149	1569.314	1500.504
571.773	17.994	1569.041	1498.695
572.788	17.888	1568.206	1496.784
573.802	18.029	1565.471	1495.239
574.817	18.183	1564.155	1495.155
575.832	18.013	1563.257	1492.628
576.846	18.087	1561.365	1491.291
577.861	17.907	1560.896	1489.079
578.875	18.048	1561.334	1490.559
579.890	18.071	1559.322	1488.660
580.905	18.032	1558.542	1487.401
581.919	18.054	1558.040	1486.934
582.934	18.201	1556.756	1486.816
583.948	18.131	1555.566	1484.885
584.963	18.151	1554.089	1483.476
585.978	18.030	1552.534	1480.761
586.992	18.101	1551.582	1480.292
588.007	18.119	1551.252	1479.956
589.021	18.204	1549.459	1478.810
590.036	18.121	1548.280	1476.786
591.051	18.134	1547.312	1475.799
592.065	18.216	1545.943	1475.028
593.080	18.191	1544.421	1473.176
594.094	18.267	1542.693	1472.013
595.109	18.125	1540.761	1468.766
596.123	17.987	1539.680	1466.370
597.138	18.031	1538.853	1465.791
598.153	18.069	1537.473	1464.626
599.167	18.114	1536.103	1463.528
600.182	18.111	1535.617	1462.866
601.196	18.234	1534.262	1462.454
602.211	18.080	1532.953	1459.709
603.226	18.038	1531.850	1458.131
604.240	18.151	1530.319	1457.466
605.255	18.325	1529.495	1457.990
606.269	18.069	1528.986	1455.142
607.284	18.243	1526.976	1454.547
608.299	18.240	1525.864	1453.283
609.313	18.083	1524.889	1450.843
610.328	18.122	1524.062	1450.214
611.342	18.289	1521.848	1449.353
612.357	18.252	1521.364	1448.403
613.372	18.213	1520.315	1446.906
614.386	18.270	1519.216	1446.166
615.401	18.235	1518.965	1445.460
616.415	18.245	1518.126	1444.569
617.430	18.240	1517.068	1443.352
618.445	18.153	1515.924	1441.347
619.459	18.183	1514.843	1440.405
620.474	18.117	1514.168	1439.032
621.488	18.056	1512.245	1436.517
622.503	18.078	1511.163	1435.504
623.518	18.007	1510.745	1434.335
624.532	18.106	1508.697	1433.054
625.547	18.385	1507.256	1433.863
626.561	18.336	1506.823	1432.864
627.576	18.357	1506.463	1432.531
628.591	18.239	1504.815	1429.802
629.605	18.159	1503.469	1427.678
630.620	18.144	1502.385	1426.347
631.634	18.074	1501.581	1424.831
632.649	18.176	1499.932	1423.950
633.663	18.376	1498.288	1423.892
634.678	18.236	1497.458	1421.764
635.693	18.199	1496.159	1420.047
636.707	18.325	1494.984	1419.815
637.722	18.278	1493.708	1418.041
638.736	18.324	1492.630	1417.233
639.751	18.279	1491.221	1415.346
640.766	18.125	1490.697	1413.403
641.780	18.188	1489.333	1412.467
642.795	18.236	1487.966	1411.398
643.809	18.292	1487.103	1410.874
644.824	18.311	1486.202	1410.008
645.839	18.243	1485.375	1408.488
646.853	18.289	1484.365	1407.742
647.868	18.261	1482.837	1405.895
648.882	18.159	1481.970	1404.065
649.897	18.264	1480.714	1403.572
650.912	18.275	1479.063	1401.931
651.926	18.392	1478.195	1401.897
652.941	18.317	1477.033	1400.014
653.955	18.339	1474.994	1398.097
654.970	18.300	1474.146	1396.804
655.985	18.287	1472.625	1395.091
656.999	18.346	1471.333	1394.176
658.014	18.349	1469.806	1392.592
659.028	18.302	1468.828	1391.118
660.043	18.248	1469.079	1390.748
661.058	18.424	1466.995	1390.043
662.072	18.389	1466.233	1388.869
663.087	18.227	1465.583	1386.768
664.101	18.326	1464.242	1386.136
665.116	18.299	1462.784	1384.366
666.131	18.271	1461.835	1383.082
667.145	18.248	1460.961	1381.897
668.160	18.316	1459.830	1381.213
669.174	18.275	1458.541	1379.496
670.189	18.429	1457.003	1379.123
671.204	18.259	1457.047	1377.629
672.218	18.267	1455.116	1375.703
673.233	18.543	1454.032	1376.735
674.247	18.401	1452.700	1374.165
675.262	18.489	1451.831	1373.888
676.276	18.356	1451.492	1372.338
677.291	18.222	1450.398	1370.060
678.306	18.199	1449.167	1368.542
679.320	18.266	1447.607	1367.442
680.335	18.460	1446.644	1367.931
681.349	18.306	1446.373	1366.276
682.364	18.244	1444.951	1364.273
683.379	18.314	1443.155	1362.968
684.393	18.322	1442.117	1361.895
685.408	18.417	1441.160	1361.583
686.422	18.290	1440.235	1359.535
687.437	18.239	1440.701	1359.405
688.452	18.348	1440.424	1359.848
689.466	18.425	1437.478	1357.515
690.481	18.245	1436.491	1354.992
691.495	18.206	1436.030	1354.083
692.510	18.336	1433.859	1352.906
693.525	18.218	1432.908	1350.914
694.539	18.259	1431.871	1350.100
695.554	18.283	1431.865	1350.122
696.568	18.345	1430.825	1349.470
697.583	18.379	1429.257	1348.101
698.598	18.215	1429.130	1346.518
699.612	18.449	1427.208	1346.392
700.627	18.457	1426.009	1345.165
701.641	18.348	1424.968	1343.162
702.656	18.387	1424.293	1342.673
703.671	18.360	1423.708	1341.749
704.685	18.448	1422.831	1341.456
705.700	18.530	1421.495	1340.681
706.714	18.312	1420.553	1337.914
707.729	18.371	1418.673	1336.450
708.744	18.367	1417.438	1335.098
709.758	18.315	1416.674	1333.807
710.773	18.310	1416.142	1333.108
711.787	18.547	1413.086	1331.920
712.802	18.428	1412.371	1330.160
713.816	18.440	1411.636	1329.400
714.831	18.484	1411.109	1329.092
715.846	18.518	1410.334	1328.464
716.860	18.414	1408.856	1326.106
717.875	18.458	1407.302	1324.830
718.889	18.582	1406.111	1324.508
719.904	18.359	1405.360	1321.916
720.919	18.500	1404.487	1322.030
721.933	18.423	1403.548	1320.385
722.948	18.554	1402.449	1320.211
723.962	18.534	1401.333	1318.851
724.977	18.466	1400.183	1317.084
725.992	18.397	1399.597	1315.838
727.006	18.498	1398.601	1315.523
728.021	18.505	1396.469	1313.415
729.035	18.456	1394.764	1311.281
730.050	18.376	1394.504	1310.264
731.065	18.620	1392.946	1310.513
732.079	18.452	1392.403	1308.562
733.094	18.480	1392.075	1308.307
734.108	18.499	1389.965	1306.314
735.123	18.630	1388.384	1305.677
736.138	18.438	1387.610	1303.325
737.152	18.586	1386.204	1302.974
738.167	18.501	1385.800	1301.794
739.181	18.572	1384.749	1301.189
740.196	18.550	1383.537	1299.730
741.211	18.523	1383.521	1299.351
742.225	18.439	1382.170	1297.289
743.240	18.389	1381.665	1296.279
744.254	18.343	1379.521	1293.764
745.269	18.534	1378.207	1293.822
746.284	18.411	1377.710	1292.273
747.298	18.400	1376.506	1290.902
748.313	18.366	1375.556	1289.602
749.327	18.362	1374.609	1288.526
750.342	18.248	1373.801	1286.755
751.356	18.251	1372.425	1285.337
752.371	18.228	1371.667	1284.293
753.386	18.285	1370.398	1283.383
754.400	18.304	1369.951	1282.952
755.415	18.630	1368.826	1284.200
756.429	18.601	1367.065	1282.174
757.444	18.574	1365.736	1280.574
758.459	18.613	1365.313	1280.314
759.473	18.638	1364.885	1279.947
760.488	18.649	1363.208	1278.309
761.502	18.751	1362.149	1277.922
762.517	18.634	1361.047	1275.859
763.532	18.540	1359.424	1273.485
764.546	18.592	1358.761	1273.099
765.561	18.613	1357.856	1272.261
766.575	18.470	1357.458	1270.663
767.590	18.390	1356.015	1268.571
768.605	18.537	1354.453	1268.050
769.619	18.482	1353.753	1266.831
770.634	18.512	1352.245	1265.495
771.648	18.633	1351.897	1265.914
772.663	18.675	1350.948	1265.184
773.678	18.618	1350.537	1264.225
774.692	18.490	1349.761	1262.399
775.707	18.544	1349.516	1262.421
776.721	18.688	1347.958	1261.873
777.736	18.546	1346.825	1259.615
778.751	18.501	1346.181	1258.526
779.765	18.563	1344.602	1257.361
780.780	18.560	1343.744	1256.387
781.794	18.582	1343.204	1255.890
782.809	18.443	1342.192	1253.774
783.824	18.474	1340.655	1252.415
784.838	18.448	1338.756	1250.302
785.853	18.162	1338.429	1247.745
786.867	18.305	1338.025	1248.268
787.882	18.360	1337.315	1247.858
788.897	18.393	1336.659	1247.342
789.911	18.207	1336.295	1245.492
790.926	18.472	1333.992	1245.132
791.940	18.482	1332.717	1243.863
792.955	18.328	1331.678	1241.624
793.969	18.393	1330.656	1240.995
794.984	18.397	1329.624	1239.917
795.999	18.476	1328.728	1239.507
797.013	18.578	1326.792	1238.286
798.028	18.623	1325.659	1237.412
799.042	18.584	1324.871	1236.242
800.057	18.712	1323.989	1236.196
801.072	18.588	1322.594	1233.854
802.086	18.523	1321.776	1232.471
803.101	18.566	1320.558	1231.497
804.115	18.660	1319.139	1230.703
805.130	18.602	1318.750	1229.780
806.145	18.692	1317.871	1229.457
807.159	18.569	1316.729	1227.360
808.174	18.587	1315.258	1225.973
809.188	18.604	1313.916	1224.696
810.203	18.735	1312.093	1223.792
811.218	18.593	1310.908	1221.524
812.232	18.432	1309.707	1219.109
813.247	18.536	1308.832	1218.886
814.261	18.695	1308.535	1219.605
815.276	18.730	1306.893	1218.175
816.291	18.735	1305.551	1216.814
817.305	18.779	1304.596	1216.094
818.320	18.702	1303.326	1214.214
819.334	18.666	1302.645	1213.177
820.349	18.725	1301.162	1212.075
821.364	18.726	1299.746	1210.617
822.378	18.629	1298.174	1208.322
823.393	18.568	1296.771	1206.440
824.407	18.684	1295.694	1206.112
825.422	18.640	1295.326	1205.310
826.437	18.576	1294.766	1204.198
827.451	18.412	1292.961	1201.214
828.466	18.265	1291.616	1198.787
829.480	18.210	1289.533	1196.328
830.495	18.296	1288.122	1195.479
831.509	18.368	1287.764	1195.505
832.524	18.474	1287.025	1195.420
833.539	18.474	1285.912	1194.243
834.553	18.678	1284.160	1193.903
835.568	18.502	1283.356	1191.777
836.582	18.668	1282.312	1191.830
837.597	18.711	1281.027	1190.788
838.612	18.856	1279.277	1190.031
839.626	18.751	1278.708	1188.625
840.641	18.677	1277.887	1187.208
841.655	18.553	1277.155	1185.521
842.670	18.558	1275.862	1184.217
843.685	18.554	1275.089	1183.329
844.699	18.630	1273.315	1182.069
845.714	18.779	1271.901	1181.642
846.728	18.755	1271.944	1181.377
847.743	18.667	1270.906	1179.666
848.758	18.791	1269.002	1178.609
849.772	18.862	1267.984	1178.009
850.787	18.778	1266.576	1175.984
851.801	18.697	1265.707	1174.478
852.816	18.731	1264.038	1173.026
853.831	18.537	1262.723	1170.332
854.845	18.499	1261.216	1168.533
855.860	18.407	1259.589	1166.260
856.874	18.515	1258.562	1165.905
857.889	18.505	1257.473	1164.688
858.904	18.327	1256.086	1162.055
859.918	18.283	1254.910	1160.527
860.933	18.229	1253.232	1158.467
861.947	18.503	1252.431	1159.454
862.962	18.474	1251.455	1158.212
863.977	18.567	1250.510	1157.829
864.991	18.596	1249.517	1156.970
866.006	18.689	1249.044	1157.024
867.020	18.603	1248.171	1155.495
868.035	18.632	1246.429	1153.937
869.049	18.659	1245.998	1153.584
870.064	18.889	1244.801	1153.889
871.079	18.762	1244.253	1152.388
872.093	18.756	1244.059	1152.028
873.108	18.915	1243.236	1152.199
874.122	18.690	1241.618	1149.046
875.137	18.673	1241.014	1148.237
876.152	18.595	1240.266	1146.882
877.166	18.780	1238.564	1146.414
878.181	18.690	1237.898	1145.055
879.195	18.682	1237.169	1144.194
880.210	18.793	1236.014	1143.732
881.225	18.780	1234.740	1142.329
882.239	18.710	1233.964	1141.006
883.254	18.747	1232.934	1140.161
884.268	18.727	1232.711	1139.690
885.283	18.741	1231.227	1138.273
886.298	18.634	1228.996	1135.360
887.312	18.749	1228.191	1135.246
888.327	18.837	1227.618	1135.165
889.341	18.857	1226.109	1133.764
890.356	18.718	1225.491	1132.138
891.371	18.796	1224.995	1132.064
892.385	18.661	1224.680	1130.741
893.400	18.640	1223.434	1129.314
894.414	18.708	1221.723	1128.049
895.429	18.620	1220.620	1126.318
896.444	18.517	1218.582	1123.621
897.458	18.336	1217.421	1121.225
898.473	18.536	1217.325	1122.316
899.487	18.713	1216.147	1122.260
900.502	18.702	1215.276	1121.255
901.517	18.894	1213.682	1120.904
902.531	18.857	1213.089	1119.980
903.546	18.830	1212.673	1119.289
904.560	18.746	1211.965	1117.949
905.575	18.842	1211.548	1118.057
906.589	18.748	1210.424	1116.272
907.604	18.985	1209.071	1116.440
