DTS Sentinel unit serial number:	SN409020Multiplexer serial number:	ORYXHardware model number:	OX4-SRSoftware version number:	ORYX F/W v3.00 Oryx Data Collector v3.7.2.0data status	okinstallation	HaddamTimeLapsedifferential loss correction	single-endedforward channel	channel 3reverse channel	N/Adate	2011/06/21time	17:11:17forward acquisition time	30.00reverse acquisition time	0.00gamma	498.7831k internal	0.1794k external	0.1794temperature offset calibration	1.0074default loss term (dB/km)	0.3790temperature slope calibration	1.3530multiplexer offset coefficient	1.0000multiplexer slope coefficient	1.0000fibre end	0.00T internal ref (°C)	32.69T ext. ref 1 (°C)	29.50T ext. ref 2 (°C)	0.23length (m)	temperature (°C)	Stokes	anti-Stokes-747.200	260.416	-0.111	-0.249
-746.185	-5.850	-0.404	0.359
-745.171	-124.641	-0.371	-0.074
-744.156	578.593	0.098	0.313
-743.142	35.064	-0.139	0.158
-742.127	-179.028	0.367	-0.010
-741.112	-149.315	-0.327	0.033
-740.098	-200.000	0.040	0.322
-739.083	-161.198	0.339	0.023
-738.069	209.954	-0.215	-0.439
-737.054	413.889	0.217	-0.602
-736.039	800.000	0.040	0.166
-735.025	-38.384	0.231	0.158
-734.010	14.412	0.227	-0.229
-732.996	-200.000	0.013	0.208
-731.981	-200.000	0.024	-0.151
-730.966	149.228	0.122	0.214
-729.952	-70.909	-0.287	-0.140
-728.937	247.228	0.129	-0.283
-727.923	34.124	0.177	-0.199
-726.908	-178.192	0.455	0.014
-725.894	-200.000	-0.002	-0.229
-724.879	-162.926	-0.440	0.027
-723.864	-200.000	0.039	0.804
-722.850	-73.821	0.359	0.168
-721.835	800.000	0.095	-0.416
-720.821	261.227	-0.157	-0.353
-719.806	337.504	0.095	0.240
-718.791	800.000	0.043	0.212
-717.777	-23.718	-0.108	-0.084
-716.762	128.096	0.098	0.163
-715.748	245.931	0.189	0.414
-714.733	-126.111	-0.495	-0.095
-713.718	-66.881	-0.367	-0.187
-712.704	219.965	-0.174	-0.363
-711.689	-114.684	-0.224	-0.055
-710.675	-31.046	-0.607	-0.443
-709.660	-20.669	-0.302	-0.239
-708.645	10.110	0.332	-0.326
-707.631	-23.628	-0.389	-0.301
-706.616	-4.701	-0.215	0.192
-705.602	-53.079	0.055	-0.033
-704.587	201.783	0.114	-0.227
-703.572	-103.273	-0.495	-0.150
-702.558	800.000	-0.073	-0.306
-701.543	-200.000	-0.044	-0.290
-700.529	-39.642	-0.533	-0.360
-699.514	-133.164	0.259	-0.042
-698.499	-42.807	-0.184	-0.121
-697.485	-54.305	-0.169	-0.099
-696.470	-131.977	-0.392	0.066
-695.456	-107.682	-0.202	-0.057
-694.441	-200.000	-0.022	0.352
-693.426	111.139	0.089	-0.139
-692.412	-68.320	0.517	-0.259
-691.397	800.000	-0.174	-0.670
-690.383	38.026	0.032	0.037
-689.368	-3.369	0.218	-0.196
-688.354	-36.568	0.688	-0.478
-687.339	-121.457	0.265	-0.057
-686.324	451.029	-0.043	0.124
-685.310	37.051	0.122	0.140
-684.295	-122.755	-0.295	-0.061
-683.281	92.129	-0.162	0.237
-682.266	-140.975	0.652	-0.086
-681.251	-91.882	0.364	-0.133
-680.237	-133.444	0.351	-0.057
-679.222	-105.245	0.434	-0.127
-678.208	155.137	-0.081	0.145
-677.193	-137.916	-0.052	-0.007
-676.178	47.685	-0.173	0.209
-675.164	-28.707	-0.433	0.322
-674.149	-117.328	-0.143	0.033
-673.135	-20.548	-0.351	-0.278
-672.120	-121.232	-0.392	-0.084
-671.105	800.000	-0.088	-0.347
-670.091	-92.025	-0.648	-0.236
-669.076	-44.868	-0.372	-0.239
-668.062	-182.640	0.351	-0.008
-667.047	289.706	0.255	0.601
-666.032	127.347	0.212	0.349
-665.018	-85.255	-0.296	-0.119
-664.003	-134.031	0.401	-0.063
-662.989	-37.679	-0.251	-0.172
-661.974	235.968	-0.125	0.268
-660.959	5.894	-0.133	0.127
-659.945	558.246	0.105	-0.328
-658.930	-2.365	-0.048	0.043
-657.916	-200.000	-0.052	0.467
-656.901	245.935	0.119	0.260
-655.886	-95.407	0.103	-0.036
-654.872	205.130	-0.040	-0.080
-653.857	606.311	0.137	-0.442
-652.843	-101.128	-0.534	-0.168
-651.828	-82.411	0.305	0.127
-650.814	-200.000	-0.037	0.233
-649.799	-16.058	0.439	0.360
-648.784	39.379	0.227	-0.263
-647.770	110.086	-0.228	-0.353
-646.755	800.000	0.029	-0.143
-645.741	427.671	0.045	-0.127
-644.726	-200.000	0.022	-0.346
-643.711	0.122	0.253	-0.233
-642.697	-184.434	0.285	-0.006
-641.682	9.202	-0.114	-0.111
-640.668	-19.100	0.236	-0.189
-639.653	38.777	0.116	-0.133
-638.638	136.810	-0.188	-0.317
-637.624	-110.128	-0.582	-0.156
-636.609	-182.858	-0.838	-0.019
-635.595	52.162	-0.181	0.222
-634.580	-155.984	-0.225	0.018
-633.565	80.256	-0.281	0.390
-632.551	-8.428	-0.218	-0.189
-631.536	-157.890	0.253	0.019
-630.522	177.704	0.109	0.205
-629.507	-55.512	-0.276	-0.159
-628.492	-103.292	-0.242	-0.073
-627.478	63.376	-0.098	-0.126
-626.463	243.566	-0.256	0.557
-625.449	270.948	0.146	0.332
-624.434	-69.504	-0.177	0.087
-623.419	-112.319	0.217	0.056
-622.405	-117.097	-0.423	0.099
-621.390	-123.601	-0.503	-0.102
-620.376	-84.159	-0.982	-0.400
-619.361	-200.000	0.013	0.458
-618.346	-135.703	0.325	-0.049
-617.332	-190.192	-0.203	-0.003
-616.317	82.152	-0.239	0.334
-615.303	800.000	-0.028	0.138
-614.288	113.449	0.324	-0.508
-613.273	-48.946	-0.215	-0.132
-612.259	3.726	0.074	0.070
-611.244	115.254	-0.106	-0.168
-610.230	-47.691	-0.216	0.135
-609.215	25.224	-0.227	-0.243
-608.201	153.679	-0.269	0.476
-607.186	-131.518	-0.535	0.090
-606.171	-105.564	0.586	-0.170
-605.157	84.794	0.032	0.046
-604.142	29.527	0.360	-0.394
-603.128	-89.839	0.657	0.246
-602.113	-178.046	-0.163	-0.005
-601.098	800.000	0.078	-0.392
-600.084	-70.135	0.381	-0.186
-599.069	298.093	0.170	0.405
-598.055	270.434	-0.271	-0.616
-597.040	-200.000	0.041	-0.354
-596.025	-71.394	-0.348	-0.167
-595.011	207.571	0.242	0.488
-593.996	-109.911	-0.285	0.076
-592.982	-79.169	0.180	-0.078
-591.967	159.301	0.237	-0.427
-590.952	-170.517	0.596	0.026
-589.938	-83.574	-0.433	0.178
-588.923	-133.396	-0.803	-0.129
-587.909	-142.238	0.051	-0.006
-586.894	-200.000	-0.039	0.275
-585.879	280.851	-0.205	-0.474
-584.865	-63.275	-0.095	-0.050
-583.850	275.037	-0.183	-0.419
-582.836	-200.000	0.042	0.356
-581.821	800.000	0.052	0.273
-580.806	800.000	-0.052	-0.245
-579.792	102.175	0.109	0.165
-578.777	800.000	0.040	-0.195
-577.763	-145.169	-0.260	0.030
-576.748	21.672	0.172	-0.181
-575.733	-145.414	-0.427	0.049
-574.719	23.878	0.227	-0.241
-573.704	-80.466	0.229	0.098
-572.690	800.000	-0.048	-0.220
-571.675	-200.000	-0.025	-0.255
-570.661	195.062	-0.244	0.478
-569.646	290.977	-0.063	0.149
-568.631	-132.648	0.376	-0.061
-567.617	-150.953	0.829	0.080
-566.602	350.499	0.284	-0.726
-565.588	390.031	0.094	-0.252
-564.573	-200.000	-0.012	-0.395
-563.558	-200.000	-0.013	-0.127
-562.544	-78.973	0.457	-0.199
-561.529	385.379	0.099	-0.263
-560.515	-50.134	0.368	-0.224
-559.500	-156.393	-0.538	0.043
-558.485	-37.918	-0.418	0.285
-557.471	-111.917	0.335	-0.086
-556.456	-200.000	0.127	-0.779
-555.442	-200.000	0.006	0.123
-554.427	683.183	-0.067	0.226
-553.412	246.826	0.136	-0.296
-552.398	-33.165	0.277	-0.197
-551.383	149.362	-0.392	0.685
-550.369	-200.000	0.038	-0.402
-549.354	-82.386	0.103	0.043
-548.339	186.512	-0.166	0.319
-547.325	-95.584	-0.138	-0.047
-546.310	800.000	-0.112	0.402
-545.296	-200.000	-0.029	-0.336
-544.281	621.418	0.104	0.338
-543.266	-184.788	-0.633	0.013
-542.252	217.283	0.159	-0.328
-541.237	-81.395	-0.145	0.061
-540.223	56.318	-0.256	0.320
-539.208	-79.195	0.281	0.122
-538.193	217.787	0.087	0.179
-537.179	-130.779	-0.282	0.048
-536.164	-15.102	0.108	0.088
-535.150	-143.571	-0.205	0.025
-534.135	728.292	-0.060	-0.209
-533.121	-134.299	-0.232	0.036
-532.106	34.901	-0.182	0.205
-531.091	36.799	0.061	-0.069
-530.077	-139.030	0.374	-0.052
-529.062	231.068	0.253	0.535
-528.048	-97.543	-0.163	-0.054
-527.033	142.510	0.160	-0.273
-526.018	-141.377	0.312	-0.040
-525.004	-88.414	-0.280	0.107
-523.989	184.460	-0.067	0.128
-522.975	142.526	0.046	-0.078
-521.960	-63.137	0.265	0.140
-520.945	800.000	-0.127	-0.531
-519.931	38.940	-0.100	-0.115
-518.916	-93.601	-0.305	-0.108
-517.902	39.967	-0.218	-0.252
-516.887	-142.975	-0.093	0.011
-515.872	-5.742	0.273	0.240
-514.858	-200.000	-0.020	-0.242
-513.843	-22.849	0.406	0.314
-512.829	-7.138	-0.332	0.289
-511.814	554.141	-0.124	0.384
-510.799	218.430	0.125	0.258
-509.785	131.013	0.119	-0.196
-508.770	-200.000	0.004	0.257
-507.756	-200.000	0.015	0.236
-506.741	-159.617	0.196	0.014
-505.726	-103.204	0.154	0.047
-504.712	-110.660	-0.058	0.015
-503.697	-125.198	0.386	-0.075
-502.683	142.326	-0.175	-0.298
-501.668	-97.588	-0.709	-0.235
-500.653	51.656	0.240	-0.294
-499.639	611.796	0.119	-0.383
-498.624	524.649	0.192	-0.583
-497.610	-81.796	0.312	0.131
-496.595	-200.000	0.024	-0.338
-495.581	171.416	-0.125	-0.230
-494.566	-70.896	0.449	-0.216
-493.551	-115.932	-0.224	0.053
-492.537	148.026	0.074	-0.128
-491.522	47.993	-0.265	-0.318
-490.508	-114.864	-0.358	0.087
-489.493	-72.796	-0.357	-0.168
-488.478	15.186	0.486	-0.489
-487.464	-200.000	-0.011	-0.073
-486.449	-63.034	0.086	-0.045
-485.435	247.722	0.155	-0.337
-484.420	488.037	-0.143	-0.422
-483.405	-89.434	0.147	0.055
-482.391	-94.473	0.483	0.168
-481.376	679.506	0.118	0.397
-480.362	-81.582	-0.523	0.219
-479.347	800.000	0.121	0.487
-478.332	-12.437	-0.232	0.194
-477.318	-16.534	-0.411	0.333
-476.303	-113.045	-0.170	0.043
-475.289	295.500	-0.070	-0.166
-474.274	-41.225	0.229	0.151
-473.259	-167.922	-0.172	0.009
-472.245	-39.686	-0.135	-0.090
-471.230	1.244	-0.158	0.146
-470.216	411.496	-0.059	0.161
-469.201	-170.299	-0.226	0.010
-468.186	-9.989	-0.036	0.031
-467.172	29.034	-0.228	0.248
-466.157	800.000	-0.097	-0.477
-465.143	-59.893	-0.385	-0.210
-464.128	800.000	-0.047	0.244
-463.113	120.798	0.070	-0.113
-462.099	-105.434	0.129	-0.037
-461.084	101.228	0.124	0.186
-460.070	800.000	-0.089	0.438
-459.055	-147.745	-0.225	-0.024
-458.040	-36.547	-0.141	0.097
-457.026	346.141	-0.136	0.344
-456.011	-42.702	-0.078	0.050
-454.997	-16.375	-0.214	0.174
-453.982	-75.097	-0.232	-0.106
-452.968	-62.196	0.269	-0.143
-451.953	-125.926	-0.612	0.117
-450.938	-16.676	-0.144	0.117
-449.924	-178.166	0.384	0.011
-448.909	-6.318	-0.076	0.067
-447.895	-200.000	0.018	-0.402
-446.880	410.265	-0.181	0.493
-445.865	-15.008	-0.373	-0.306
-444.851	-87.361	-0.103	-0.040
-443.836	-168.161	0.504	-0.025
-442.822	-200.000	-0.005	0.053
-441.807	278.246	-0.147	0.336
-440.792	-200.000	-0.026	0.485
-439.778	172.697	0.277	0.511
-438.763	9.029	-0.094	-0.091
-437.749	-200.000	-0.012	-0.182
-436.734	-200.000	0.036	-0.388
-435.719	-200.000	0.033	0.288
-434.705	452.864	-0.058	0.166
-433.690	800.000	0.049	-0.272
-432.676	-40.115	0.346	-0.230
-431.661	800.000	0.080	0.339
-430.646	-121.553	0.101	0.021
-429.632	307.673	-0.111	-0.266
-428.617	800.000	0.073	0.326
-427.603	-200.000	0.002	0.040
-426.588	-18.606	-0.141	0.112
-425.573	-114.022	0.232	-0.057
-424.559	21.298	-0.236	-0.245
-423.544	279.235	-0.175	0.401
-422.530	-34.891	0.138	-0.097
-421.515	-22.995	-0.360	-0.277
-420.500	299.657	-0.088	-0.208
-419.486	-120.718	0.239	0.051
-418.471	-31.013	-0.268	0.193
-417.457	171.915	0.141	0.261
-416.442	-200.000	0.083	-0.547
-415.428	-68.577	-0.501	-0.248
-414.413	-200.000	-0.004	0.205
-413.398	800.000	-0.032	0.124
-412.384	800.000	0.085	-0.315
-411.369	-60.330	0.458	0.249
-410.355	98.837	0.102	0.151
-409.340	-66.919	0.576	0.290
-408.325	19.492	0.073	-0.075
-407.311	39.598	0.205	-0.235
-406.296	-89.381	0.504	0.189
-405.282	-145.422	-0.564	-0.064
-404.267	64.767	-0.109	-0.141
-403.252	107.506	-0.272	0.415
-402.238	141.026	-0.023	-0.040
-401.223	800.000	0.068	-0.370
-400.209	-200.000	-0.047	-0.280
-399.194	-167.902	0.444	0.022
-398.179	800.000	-0.103	0.500
-397.165	521.016	0.099	-0.298
-396.150	171.099	0.440	0.809
-395.136	-86.787	-0.303	0.118
-394.121	152.827	0.189	0.330
-393.106	75.127	0.208	0.280
-392.092	-131.899	-0.250	0.041
-391.077	-151.602	-0.251	0.023
-390.063	-21.236	-0.047	0.037
-389.048	-117.841	0.109	-0.025
-388.033	171.828	-0.220	0.406
-387.019	800.000	0.034	0.140
-386.004	-70.155	-0.323	0.156
-384.990	1.199	-0.292	-0.268
-383.975	-77.068	-0.180	0.080
-382.960	515.642	0.136	0.409
-381.946	-130.854	0.283	0.048
-380.931	-149.776	-0.068	-0.007
-379.917	280.404	-0.120	-0.275
-378.902	-143.008	-0.691	-0.084
-377.888	-200.000	0.033	-0.285
-376.873	-200.000	-0.002	-0.056
-375.858	-36.496	-0.486	-0.334
-374.844	-26.188	-0.222	-0.166
-373.829	411.872	-0.082	-0.222
-372.815	-154.864	-0.613	-0.051
-371.800	-169.796	0.197	-0.009
-370.785	-200.000	-0.036	0.405
-369.771	-200.000	-0.008	-0.119
-368.756	-65.979	0.274	0.139
-367.742	48.352	-0.230	0.275
-366.727	-200.000	0.051	0.303
-365.712	-29.455	0.188	0.137
-364.698	-95.752	0.183	0.062
-363.683	-98.981	0.364	-0.117
-362.669	-164.421	0.637	0.037
-361.654	-200.000	-0.010	-0.201
-360.639	701.588	0.171	0.579
-359.625	-132.023	-0.530	0.087
-358.610	121.970	0.064	-0.102
-357.596	-179.788	0.471	-0.013
-356.581	-22.868	-0.048	0.037
-355.566	-158.303	-0.474	-0.035
-354.552	15.547	0.012	0.012
-353.537	800.000	-0.092	-0.470
-352.523	-40.266	0.283	-0.187
-351.508	-47.662	-0.247	-0.153
-350.493	-112.781	0.214	0.054
-349.479	-87.124	-0.645	0.249
-348.464	92.339	-0.144	0.207
-347.450	-159.355	-0.295	-0.021
-346.435	585.428	0.078	0.245
-345.420	-44.439	0.262	-0.167
-344.406	-89.992	0.160	-0.059
-343.391	-8.330	-0.153	0.131
-342.377	184.844	-0.119	0.225
-341.362	-172.875	0.145	-0.006
-340.348	132.162	-0.143	0.236
-339.333	800.000	-0.043	0.170
-338.318	-140.093	0.327	-0.043
-337.304	-68.692	0.150	0.074
-336.289	-200.000	0.033	0.274
-335.275	-13.879	0.232	0.191
-334.260	13.904	0.129	-0.128
-333.245	-12.341	0.195	-0.163
-332.231	-14.292	0.357	-0.293
-331.216	-200.000	-0.008	0.388
-330.202	800.000	0.068	0.293
-329.187	30.369	0.379	-0.413
-328.172	-149.005	0.048	-0.005
-327.158	-44.288	0.154	-0.098
-326.143	-127.578	-0.319	0.058
-325.129	-5.688	0.149	-0.130
-324.114	-8.796	-0.219	0.187
-323.099	178.375	-0.211	-0.394
-322.085	-32.760	-0.128	-0.091
-321.070	-60.834	0.427	-0.229
-320.056	-27.525	0.338	0.250
-319.041	-142.295	0.140	-0.017
-318.026	756.969	0.050	-0.173
-317.012	-200.000	0.019	0.161
-315.997	-99.826	-0.301	-0.095
-314.983	-200.000	0.014	0.337
-313.968	-86.247	0.256	0.100
-312.953	-112.936	-0.371	0.093
-311.939	-200.000	0.065	0.633
-310.924	33.816	-0.145	-0.160
-309.910	-200.000	0.072	-0.423
-308.895	30.530	-0.163	-0.178
-307.880	-20.163	-0.302	0.237
-306.866	800.000	0.150	-0.635
-305.851	779.981	-0.084	-0.296
-304.837	-200.000	0.006	-0.105
-303.822	-32.559	0.316	0.224
-302.807	108.649	0.128	-0.195
-301.793	-4.040	0.103	-0.091
-300.778	-142.931	0.248	-0.030
-299.764	-187.650	0.522	0.009
-298.749	393.799	-0.088	-0.235
-297.735	-88.851	-0.254	0.095
-296.720	150.887	-0.231	-0.400
-295.705	-155.707	-0.496	-0.040
-294.691	675.769	0.085	0.282
-293.676	800.000	-0.131	0.642
-292.662	-171.613	-0.100	-0.004
-291.647	-65.487	0.209	-0.106
-290.632	800.000	0.100	-0.428
-289.618	-117.326	0.453	0.104
-288.603	-200.000	0.131	0.777
-287.589	-119.483	0.232	-0.051
-286.574	-14.921	-0.167	0.137
-285.559	-179.172	0.220	0.006
-284.545	-69.846	0.262	0.127
-283.530	-18.882	-0.399	0.316
-282.516	-194.895	0.364	-0.003
-281.501	125.235	-0.211	-0.340
-280.486	-134.093	0.157	-0.024
-279.472	3.660	0.237	-0.220
-278.457	4.596	-0.460	-0.430
-277.443	-200.000	-0.024	-0.180
-276.428	-200.000	-0.049	-0.399
-275.413	-200.000	0.003	0.243
-274.399	-200.000	-0.052	0.486
-273.384	800.000	0.072	0.258
-272.370	220.967	0.073	-0.149
-271.355	-27.104	0.107	0.079
-270.340	89.163	-0.226	0.321
-269.326	225.716	-0.106	0.219
-268.311	391.248	-0.082	-0.218
-267.297	610.066	0.176	0.562
-266.282	-83.843	0.262	0.106
-265.267	-108.712	0.345	0.093
-264.253	-42.963	0.384	0.248
-263.238	-196.169	0.319	-0.003
-262.224	42.487	-0.166	0.192
-261.209	-61.360	0.201	-0.107
-260.195	-105.734	0.225	0.064
-259.180	-58.786	0.241	-0.132
-258.165	64.210	-0.083	-0.106
-257.151	800.000	-0.054	-0.254
-256.136	179.438	-0.049	0.092
-255.122	137.646	0.108	0.180
-254.107	-53.652	-0.312	-0.181
-253.092	76.809	-0.019	0.026
-252.078	-200.000	0.002	0.132
-251.063	-10.038	-0.174	0.147
-250.049	-86.018	0.531	-0.208
-249.034	562.145	-0.064	-0.198
-248.019	25.557	0.340	-0.360
-247.005	7.721	-0.524	0.499
-245.990	-134.252	0.044	0.007
-244.976	431.333	-0.136	-0.376
-243.961	13.556	-0.295	0.291
-242.946	-62.111	-0.114	-0.060
-241.932	-131.291	-0.111	-0.018
-240.917	-200.000	0.001	-0.044
-239.903	800.000	0.063	-0.278
-238.888	-140.232	-0.275	0.036
-237.873	64.646	0.165	0.211
-236.859	140.992	0.234	0.393
-235.844	-200.000	-0.011	0.119
-234.830	-63.652	0.301	0.156
-233.815	711.454	-0.062	-0.210
-232.800	-57.518	-0.211	-0.117
-231.786	413.609	-0.053	0.145
-230.771	-200.000	0.040	0.289
-229.757	-158.629	-0.210	0.015
-228.742	-94.025	-0.279	0.097
-227.727	-70.824	0.188	-0.090
-226.713	-147.984	-0.344	-0.036
-225.698	-60.557	0.061	-0.033
-224.684	-55.337	0.282	0.160
-223.669	-107.332	0.463	0.128
-222.655	60.211	-0.083	0.105
-221.640	348.554	0.091	-0.229
-220.625	47.188	0.223	-0.264
-219.611	10.542	-0.368	-0.356
-218.596	800.000	0.146	-0.618
-217.582	-200.000	0.018	0.173
-216.567	121.293	-0.021	0.034
-215.552	-200.000	-0.021	-0.242
-214.538	-74.534	0.419	0.191
-213.523	73.977	-0.042	0.056
-212.509	-50.796	-0.381	-0.227
-211.494	-106.094	0.089	0.025
-210.479	-200.000	-0.025	0.542
-209.465	-80.400	-0.417	0.176
-208.450	-30.837	0.185	0.132
-207.436	391.956	0.142	-0.375
-206.421	24.737	0.479	0.503
-205.406	-26.044	-0.094	-0.070
-204.392	-9.681	-0.584	-0.493
-203.377	-200.000	0.013	0.263
-202.363	46.257	0.134	0.158
-201.348	-154.535	0.199	-0.017
-200.333	-182.763	0.371	-0.008
-199.319	-96.218	-0.237	-0.079
-198.304	-104.309	0.289	0.085
-197.290	-33.809	-0.390	0.272
-196.275	-22.608	-0.528	-0.404
-195.260	-137.562	-0.073	0.010
-194.246	150.930	0.294	-0.509
-193.231	793.175	0.156	0.546
-192.217	-200.000	0.059	0.516
-191.202	36.407	0.275	0.308
-190.187	-71.892	0.251	0.118
-189.173	-200.000	0.010	-0.252
-188.158	125.994	-0.191	0.306
-187.144	-94.217	-0.374	-0.129
-186.129	-113.335	-0.222	0.055
-185.114	-57.483	-0.084	-0.047
-184.100	-4.584	0.189	-0.165
-183.085	-200.000	0.296	-0.002
-182.071	19.661	0.216	-0.221
-181.056	-67.849	-0.114	-0.056
-180.042	-200.000	0.000	-0.086
-179.027	381.840	-0.098	0.255
-178.012	-113.973	-0.508	0.124
-176.998	28.726	0.084	-0.090
-175.983	-126.803	0.185	0.034
-174.969	-10.244	-0.255	-0.214
-173.954	495.640	-0.108	-0.316
-172.939	-69.658	0.655	0.316
-171.925	122.049	0.030	-0.048
-170.910	-200.000	0.029	0.213
-169.896	-63.161	0.439	-0.229
-168.881	-120.189	0.398	0.085
-167.866	-112.630	0.154	-0.038
-166.852	641.883	-0.204	0.662
-165.837	20.768	0.161	-0.165
-164.823	800.000	0.132	-0.577
-163.808	-104.715	0.257	-0.075
-162.793	800.000	-0.042	-0.206
-161.779	-13.531	0.289	-0.237
-160.764	-12.102	-0.099	-0.082
-159.750	61.715	0.156	-0.197
-158.735	-200.000	0.017	0.104
-157.720	-175.055	-0.322	-0.011
-156.706	-51.310	0.044	-0.026
-155.691	277.849	0.050	-0.112
-154.677	-116.891	0.304	0.070
-153.662	-171.465	0.547	-0.023
-152.647	-43.965	0.040	0.025
-151.633	-64.708	0.335	-0.171
-150.618	-94.497	0.330	-0.113
-149.604	104.206	-0.090	0.134
-148.589	800.000	0.030	-0.110
-147.574	293.191	0.127	-0.293
-146.560	800.000	0.164	-0.638
-145.545	-102.384	0.121	0.037
-144.531	17.286	-0.103	-0.104
-143.516	-155.768	0.224	-0.018
-142.502	-78.061	-0.403	-0.175
-141.487	-200.000	-0.013	0.200
-140.472	46.996	-0.141	0.166
-139.458	82.546	0.194	0.267
-138.443	-143.339	0.249	-0.030
-137.429	656.739	0.139	0.456
-136.414	259.148	-0.163	-0.357
-135.399	-87.468	0.253	-0.096
-134.385	-171.041	-0.309	-0.013
-133.370	-75.360	-0.606	-0.272
-132.356	-170.791	0.363	-0.016
-131.341	-101.935	-0.344	-0.105
-130.326	-73.377	0.278	0.128
-129.312	-122.016	0.279	-0.057
-128.297	-121.540	-0.323	-0.067
-127.283	741.592	-0.233	0.798
-126.268	-105.363	0.182	0.052
-125.253	72.554	0.252	-0.333
-124.239	-28.537	-0.140	0.102
-123.224	-39.474	-0.312	-0.207
-122.210	-70.785	0.164	0.078
-121.195	10.396	-0.224	0.215
-120.180	-45.846	-0.108	-0.067
-119.166	-38.769	-0.260	0.173
-118.151	800.000	0.052	-0.201
-117.137	-109.379	-0.311	-0.083
-116.122	-171.170	0.266	0.011
-115.107	-65.341	-0.150	0.076
-114.093	-200.000	0.066	-0.525
-113.078	-178.468	-0.276	0.008
-112.064	-25.116	0.395	0.295
-111.049	800.000	0.108	0.440
-110.034	-15.586	0.120	-0.097
-109.020	155.940	-0.160	-0.279
-108.005	-86.431	-0.215	-0.083
-106.991	153.682	0.159	0.277
-105.976	-38.761	-0.335	0.223
-104.962	164.516	0.057	0.101
-103.947	523.275	0.073	-0.218
-102.932	-124.147	0.363	-0.071
-101.918	-110.448	-0.251	0.065
-100.903	-123.728	-0.170	0.034
-99.889	800.000	0.108	-0.504
-98.874	-119.213	0.087	-0.019
-97.859	1.019	0.086	-0.078
-96.845	242.431	-0.050	0.107
-95.830	-100.002	0.318	-0.100
-94.816	-7.663	0.289	-0.247
-93.801	-138.265	-0.581	-0.080
-92.786	-200.000	-0.051	-0.358
-91.772	-165.186	0.393	-0.022
-90.757	95.814	0.231	0.334
-89.743	-77.397	-0.251	0.110
-88.728	74.915	-0.167	-0.223
-87.713	800.000	0.119	-0.483
-86.699	-54.081	0.479	-0.275
-85.684	-169.201	0.071	0.003
-84.670	8.979	-0.083	0.079
-83.655	-200.000	0.001	0.298
-82.640	527.136	-0.170	-0.510
-81.626	-135.892	-0.191	0.028
-80.611	80.547	0.242	-0.330
-79.597	-111.148	0.110	-0.028
-78.582	-81.984	-0.275	-0.113
-77.567	541.110	-0.115	-0.348
-76.553	104.417	-0.187	0.278
-75.538	629.393	0.023	-0.073
-74.524	-200.000	0.042	-0.567
-73.509	539.643	-0.168	-0.506
-72.494	-69.105	-0.195	0.094
-71.480	-30.736	-0.135	-0.097
-70.465	39.929	-0.266	-0.302
-69.451	315.573	0.180	-0.432
-68.436	515.351	0.105	0.310
-67.422	149.823	-0.104	0.179
-66.407	-53.928	-0.189	-0.108
-65.392	-50.433	-0.298	-0.177
-64.378	-45.679	-0.076	-0.047
-63.363	-134.400	0.263	0.040
-62.349	6.266	0.441	0.413
-61.334	-11.935	-1.508	-1.247
-60.319	-53.240	0.768	0.443
-59.305	345.283	-2.616	-6.512
-58.290	53.368	2.805	3.396
-57.276	294.731	4.449	10.309
-56.261	-200.000	14.602	230.513
-55.246	437.983	1188.621	3286.864
-54.232	59.610	2830.566	3525.574
-53.217	68.761	2717.948	3523.728
-52.203	51.167	2449.704	2934.187
-51.188	42.099	2105.871	2413.109
-50.173	35.273	1980.180	2190.914
-49.159	33.641	1969.012	2159.807
-48.144	33.273	1963.897	2149.908
-47.130	33.156	1961.387	2145.738
-46.115	33.010	1960.291	2142.791
-45.100	32.967	1959.003	2140.813
-44.086	32.928	1957.800	2138.963
-43.071	33.084	1955.314	2137.939
-42.057	32.984	1954.484	2135.808
-41.042	32.856	1952.948	2132.592
-40.027	32.927	1951.960	2132.231
-39.013	32.852	1950.512	2129.715
-37.998	32.873	1947.761	2126.872
-36.984	32.727	1947.539	2124.886
-35.969	32.927	1945.428	2124.767
-34.954	32.817	1945.055	2123.028
-33.940	32.900	1943.947	2122.668
-32.925	32.782	1942.870	2120.077
-31.911	32.731	1941.951	2118.414
-30.896	32.763	1939.939	2116.494
-29.881	32.782	1938.159	2114.688
-28.867	32.769	1937.200	2113.410
-27.852	32.765	1935.416	2111.336
-26.838	32.601	1934.608	2108.527
-25.823	32.716	1933.476	2108.500
-24.809	32.736	1932.477	2107.548
-23.794	32.780	1930.448	2105.750
-22.779	32.727	1929.503	2104.034
-21.765	32.657	1927.117	2100.568
-20.750	32.752	1926.660	2101.051
-19.736	32.678	1925.128	2098.468
-18.721	32.670	1923.818	2096.866
-17.706	32.555	1923.607	2095.273
-16.692	32.620	1921.770	2093.917
-15.677	32.638	1920.608	2092.769
-14.663	32.518	1919.745	2090.404
-13.648	32.525	1918.605	2089.151
-12.633	32.654	1916.262	2087.958
-11.619	32.698	1915.317	2087.330
-10.604	32.429	1914.198	2083.042
-9.590	32.545	1913.166	2083.119
-8.575	32.527	1911.896	2081.456
-7.560	32.656	1910.166	2080.927
-6.546	32.597	1909.184	2079.112
-5.531	32.626	1907.587	2077.612
-4.517	32.572	1906.810	2076.092
-3.502	32.635	1907.155	2077.081
-2.487	32.637	1905.560	2075.279
-1.473	32.728	1901.771	2072.076
-0.458	33.527	1884.023	2061.395
0.556	31.215	2023.931	2174.506
1.571	30.479	2241.674	2398.616
2.586	32.106	2289.693	2471.246
3.600	31.860	2292.909	2471.150
4.615	32.031	2291.382	2471.476
5.629	32.089	2289.395	2469.801
6.644	32.250	2288.387	2470.555
7.659	32.247	2286.714	2468.404
8.673	32.213	2284.764	2465.558
9.688	31.796	2289.697	2465.077
10.702	29.841	2366.466	2520.679
11.717	26.656	2428.441	2541.543
12.731	13.276	2391.454	2315.412
13.746	2.039	2362.024	2129.689
14.761	0.465	2356.921	2102.795
15.775	0.230	2354.991	2097.536
16.790	0.204	2353.114	2095.238
17.804	0.176	2351.862	2093.486
18.819	0.162	2351.284	2092.531
19.834	0.205	2348.814	2090.681
20.848	0.240	2347.339	2089.597
21.863	0.072	2345.616	2085.479
22.877	0.105	2343.652	2083.940
23.892	0.083	2340.687	2080.745
24.907	0.105	2339.022	2079.322
25.921	0.009	2338.165	2076.985
26.936	0.058	2336.013	2075.501
27.950	0.111	2332.685	2073.030
28.965	0.133	2330.390	2071.043
29.980	0.210	2328.816	2070.464
30.994	0.362	2327.682	2071.302
32.009	7.065	2351.612	2185.649
33.023	23.854	2403.712	2470.264
34.038	33.738	2428.315	2633.924
35.053	35.773	2430.605	2664.475
36.067	35.391	2426.023	2653.823
37.082	34.852	2421.964	2641.578
38.096	34.995	2420.374	2641.518
39.111	35.444	2419.690	2646.680
40.126	35.199	2416.247	2639.202
41.140	35.425	2414.937	2640.585
42.155	35.237	2412.346	2634.830
43.169	34.969	2408.903	2627.055
44.184	35.413	2408.627	2632.563
45.199	35.474	2406.060	2630.295
46.213	35.139	2404.549	2623.708
47.228	35.046	2404.207	2621.740
48.242	35.688	2403.323	2629.296
49.257	35.988	2401.919	2631.564
50.271	36.146	2401.078	2632.493
51.286	36.293	2398.510	2631.378
52.301	35.638	2393.944	2617.088
53.315	34.021	2387.527	2587.671
54.330	30.683	2375.942	2529.280
55.344	28.623	2366.783	2491.152
56.359	28.477	2364.199	2486.150
57.374	28.311	2362.127	2481.406
58.388	28.312	2357.958	2476.742
59.403	28.166	2354.326	2470.654
60.417	28.323	2351.974	2470.018
61.432	28.586	2351.038	2472.300
62.447	28.452	2347.726	2466.708
63.461	28.155	2346.571	2461.187
64.476	28.093	2344.932	2458.336
65.490	28.572	2345.180	2464.766
66.505	29.413	2345.637	2476.310
67.520	31.113	2350.585	2504.188
68.534	33.229	2355.049	2537.217
69.549	34.031	2352.660	2545.138
70.563	34.392	2351.344	2548.253
71.578	34.635	2351.750	2551.656
72.593	35.532	2352.874	2564.624
73.607	35.910	2351.727	2568.137
74.622	35.537	2348.537	2559.347
75.636	34.900	2343.374	2544.888
76.651	34.762	2342.312	2541.597
77.666	35.287	2340.567	2546.406
78.680	35.311	2337.559	2543.149
79.695	34.927	2335.895	2535.913
80.709	34.421	2333.143	2525.885
81.724	34.732	2331.732	2528.192
82.739	35.692	2331.392	2540.292
83.753	36.228	2332.194	2547.976
84.768	35.979	2329.253	2541.158
85.782	35.731	2328.703	2536.966
86.797	35.776	2326.226	2534.555
87.812	35.295	2322.192	2523.491
88.826	35.033	2319.337	2516.625
89.841	35.596	2318.879	2523.262
90.855	36.367	2318.598	2532.826
91.870	35.353	2313.908	2514.057
92.884	34.938	2311.561	2505.738
93.899	35.434	2311.326	2511.708
94.914	33.863	2304.945	2483.848
95.928	30.284	2293.035	2423.824
96.943	29.021	2290.330	2404.106
97.957	32.609	2298.982	2460.092
98.972	35.130	2302.427	2496.558
99.987	34.674	2297.360	2484.811
101.001	34.711	2295.812	2483.317
102.016	34.958	2294.296	2484.602
103.030	34.938	2291.685	2481.223
104.045	35.382	2290.989	2485.952
105.060	36.124	2291.813	2496.219
106.074	36.382	2289.681	2496.947
107.089	35.572	2284.626	2480.632
108.103	35.264	2283.462	2475.064
109.118	35.533	2283.980	2478.821
110.133	35.585	2280.062	2474.947
111.147	35.341	2277.976	2469.232
112.162	35.361	2276.872	2467.992
113.176	35.338	2273.709	2463.983
114.191	34.843	2271.559	2454.969
115.206	34.682	2269.255	2450.106
116.220	35.124	2268.080	2454.231
117.235	34.773	2264.575	2445.631
118.249	34.531	2263.339	2440.896
119.264	35.039	2262.086	2445.775
120.279	35.125	2260.997	2445.416
121.293	34.909	2257.454	2438.516
122.308	34.702	2255.604	2433.578
123.322	34.318	2254.889	2427.600
124.337	32.821	2248.377	2401.170
125.352	30.329	2240.328	2360.477
126.366	30.415	2240.238	2361.189
127.381	33.241	2245.913	2403.033
128.395	34.930	2247.413	2425.905
129.410	35.139	2245.711	2426.447
130.424	34.981	2241.870	2419.991
131.439	34.760	2241.132	2416.094
132.454	34.485	2238.487	2409.462
133.468	34.827	2237.300	2412.238
134.483	34.775	2234.278	2408.033
135.497	34.650	2233.319	2405.125
136.512	35.224	2233.280	2412.057
137.527	35.241	2232.480	2411.121
138.541	35.032	2229.571	2405.052
139.556	35.025	2228.177	2403.182
140.570	34.792	2227.368	2399.074
141.585	34.909	2224.431	2397.095
142.600	35.169	2223.546	2399.128
143.614	35.274	2223.547	2400.168
144.629	36.018	2222.344	2407.933
145.643	35.426	2219.377	2397.004
146.658	35.033	2216.479	2388.650
147.673	34.835	2212.749	2381.870
148.687	34.983	2213.127	2383.841
149.702	35.179	2211.923	2384.711
150.716	35.140	2211.225	2383.184
151.731	36.125	2212.879	2397.003
152.746	36.634	2212.057	2402.188
153.760	34.365	2203.841	2364.713
154.775	30.153	2191.267	2298.576
155.789	28.777	2187.290	2277.007
156.804	31.859	2193.925	2322.074
157.819	34.402	2196.617	2356.299
158.833	35.084	2195.654	2363.453
159.848	35.668	2195.890	2370.655
160.862	36.020	2194.973	2373.749
161.877	36.337	2195.819	2378.303
162.892	36.655	2195.882	2382.021
163.906	36.831	2194.679	2382.615
164.921	36.702	2191.514	2377.298
165.935	36.522	2188.484	2371.513
166.950	35.999	2184.212	2360.151
167.964	35.171	2180.409	2345.583
168.979	34.990	2178.992	2341.542
169.994	35.239	2177.389	2342.604
171.008	35.023	2175.357	2337.486
172.023	34.818	2174.680	2333.961
173.037	35.451	2173.724	2340.417
174.052	35.390	2171.283	2336.759
175.067	34.719	2169.773	2326.641
176.081	34.694	2167.911	2324.073
177.096	34.883	2167.322	2325.473
178.110	34.724	2164.767	2320.506
179.125	34.455	2163.756	2315.867
180.140	35.046	2162.777	2321.746
181.154	35.189	2161.316	2321.640
182.169	34.733	2160.179	2314.587
183.183	33.773	2154.056	2296.092
184.198	30.576	2142.383	2244.642
185.213	29.734	2142.369	2234.137
186.227	33.237	2150.996	2285.500
187.242	34.669	2151.205	2302.813
188.256	34.525	2149.032	2298.477
189.271	35.096	2149.090	2305.166
190.286	35.279	2147.361	2305.248
191.300	34.582	2142.859	2291.735
192.315	34.461	2141.472	2288.517
193.329	35.071	2142.557	2296.763
194.344	35.738	2142.221	2304.167
195.359	35.445	2140.076	2298.060
196.373	35.755	2139.511	2300.896
197.388	35.821	2136.103	2297.749
198.402	35.370	2133.114	2288.855
199.417	35.395	2131.512	2287.160
200.432	35.600	2130.651	2288.425
201.446	35.821	2130.136	2290.234
202.461	35.537	2127.342	2283.564
203.475	35.098	2123.712	2274.162
204.490	35.108	2121.285	2271.409
205.504	35.117	2119.689	2269.537
206.519	35.015	2116.735	2264.885
207.534	35.354	2117.590	2269.559
208.548	35.916	2117.045	2275.389
209.563	35.053	2111.956	2259.402
210.577	34.879	2112.497	2257.657
211.592	36.054	2113.938	2272.870
212.607	34.393	2105.554	2243.945
213.621	29.231	2092.842	2169.228
214.636	29.191	2094.433	2170.146
215.650	33.636	2103.095	2231.569
216.665	35.695	2104.911	2257.569
217.680	36.144	2105.010	2262.698
218.694	36.403	2103.353	2263.699
219.709	35.486	2099.560	2248.561
220.723	35.502	2099.827	2248.757
221.738	36.605	2099.545	2261.171
222.753	36.450	2097.641	2257.019
223.767	35.978	2094.781	2248.141
224.782	35.412	2091.085	2237.276
225.796	35.375	2090.872	2236.342
226.811	36.230	2090.486	2245.673
227.826	36.065	2088.116	2240.937
228.840	36.039	2086.225	2238.327
229.855	35.569	2083.969	2230.158
230.869	34.768	2080.548	2216.896
231.884	34.514	2079.603	2212.656
232.899	34.960	2079.039	2216.996
233.913	35.449	2078.198	2221.518
234.928	35.819	2077.877	2225.209
235.942	35.561	2075.391	2219.294
236.957	35.080	2072.818	2210.694
237.972	35.199	2071.696	2210.604
238.986	35.280	2071.256	2210.815
240.001	35.014	2068.588	2204.628
241.015	34.807	2065.839	2199.040
242.030	34.383	2063.469	2191.345
243.045	31.198	2053.688	2143.998
244.059	30.285	2052.509	2131.969
245.074	33.948	2058.396	2180.162
246.088	34.842	2058.061	2189.844
247.103	34.928	2057.012	2189.460
248.117	35.345	2056.112	2193.036
249.132	35.619	2055.658	2195.433
250.147	35.156	2051.325	2185.233
251.161	34.619	2048.696	2176.027
252.176	34.881	2048.443	2178.498
253.190	34.826	2044.972	2173.914
254.205	34.825	2044.078	2172.693
255.220	35.248	2042.773	2175.870
256.234	35.066	2041.275	2171.939
257.249	34.794	2039.962	2167.184
258.263	34.970	2039.473	2168.414
259.278	35.329	2039.273	2172.023
260.293	35.646	2037.882	2173.885
261.307	35.622	2036.661	2172.052
262.322	35.598	2033.986	2168.673
263.336	34.852	2030.661	2156.406
264.351	34.678	2029.676	2153.128
265.366	35.285	2029.875	2159.961
266.380	35.627	2029.823	2163.517
267.395	35.122	2026.434	2153.948
268.409	34.977	2025.088	2150.615
269.424	35.447	2024.379	2154.907
270.439	35.656	2024.324	2156.951
271.453	34.803	2017.950	2140.313
272.468	30.565	2004.848	2078.640
273.482	29.400	2004.169	2064.597
274.497	33.082	2010.429	2112.250
275.512	35.156	2012.429	2137.387
276.526	35.263	2011.461	2137.308
277.541	35.306	2008.055	2133.913
278.555	34.744	2006.605	2125.827
279.570	34.623	2004.313	2121.797
280.585	34.242	2001.760	2114.593
281.599	34.698	2002.580	2120.287
282.614	35.400	2001.503	2126.718
283.628	34.506	1996.426	2111.136
284.643	31.787	1987.968	2071.767
285.657	29.472	1981.925	2039.541
286.672	28.835	1977.817	2028.009
287.687	28.210	1975.555	2018.522
288.701	28.519	1976.216	2022.380
289.716	28.742	1974.416	2022.763
290.730	28.349	1972.451	2016.160
291.745	29.605	1973.666	2031.059
292.760	30.422	1975.165	2041.390
293.774	32.604	1980.807	2071.121
294.789	35.042	1985.552	2102.792
295.803	35.620	1984.333	2107.620
296.818	35.250	1982.213	2101.047
297.833	35.383	1981.718	2101.733
298.847	35.534	1980.551	2101.909
299.862	35.511	1978.539	2099.262
300.876	34.390	1972.251	2080.049
301.891	31.132	1963.175	2034.594
302.906	29.956	1962.513	2020.769
303.920	33.631	1970.279	2068.908
304.935	35.626	1971.503	2091.810
305.949	35.666	1969.388	2089.745
306.964	35.969	1967.614	2090.921
307.979	34.838	1962.176	2072.581
308.993	30.961	1948.767	2016.106
310.008	27.722	1941.291	1972.986
311.022	27.450	1940.398	1968.885
312.037	28.303	1940.402	1977.928
313.052	28.364	1937.699	1975.586
314.066	27.602	1934.377	1963.724
315.081	27.255	1933.593	1958.937
316.095	27.439	1932.588	1959.666
317.110	27.588	1931.827	1960.275
318.125	27.961	1930.838	1963.070
319.139	27.988	1930.303	1962.575
320.154	28.522	1928.908	1966.687
321.168	28.551	1929.262	1967.118
322.183	31.472	1936.799	2006.122
323.197	34.908	1942.734	2049.110
324.212	35.454	1942.427	2054.423
325.227	35.246	1939.421	2048.761
326.241	35.369	1937.737	2048.058
327.256	35.619	1937.276	2050.008
328.270	35.200	1935.957	2043.875
329.285	35.510	1936.474	2047.501
330.300	34.488	1931.830	2031.403
331.314	30.263	1918.459	1972.075
332.329	29.513	1918.429	1963.797
333.343	33.574	1925.931	2014.714
334.358	35.462	1928.188	2037.002
335.373	36.074	1927.679	2042.749
336.387	36.313	1925.895	2043.149
337.402	36.224	1924.716	2040.711
338.416	35.947	1921.824	2034.464
339.431	35.626	1921.349	2030.303
340.446	35.359	1915.497	2021.056
341.460	31.511	1903.946	1968.024
342.475	29.082	1898.285	1936.292
343.489	28.460	1894.816	1925.953
344.504	28.091	1893.124	1920.106
345.519	27.929	1890.872	1915.887
346.533	27.625	1888.202	1909.751
347.548	27.464	1887.113	1906.731
348.562	27.703	1887.217	1909.124
349.577	27.934	1885.339	1909.425
350.592	27.923	1885.016	1908.746
351.606	27.997	1883.502	1907.768
352.621	27.499	1880.621	1899.402
353.635	27.515	1880.094	1898.803
354.650	29.489	1884.616	1923.851
355.665	32.827	1891.223	1965.385
356.679	34.342	1893.029	1982.892
357.694	34.797	1892.949	1987.328
358.708	35.478	1892.907	1994.156
359.723	34.296	1887.590	1975.996
360.738	30.278	1876.426	1922.331
361.752	29.962	1878.068	1920.494
362.767	33.990	1883.532	1967.860
363.781	35.517	1884.710	1984.735
364.796	36.054	1884.396	1989.750
365.810	35.761	1883.243	1985.248
366.825	34.395	1876.557	1963.827
367.840	30.863	1865.599	1915.693
368.854	27.824	1859.335	1877.664
369.869	27.452	1857.770	1872.014
370.883	27.890	1857.293	1875.830
371.898	27.974	1856.515	1875.693
372.913	28.105	1854.470	1874.749
373.927	27.550	1851.091	1865.400
374.942	27.327	1850.136	1861.927
375.956	28.035	1850.749	1869.596
376.971	28.115	1849.252	1868.680
377.986	27.746	1846.729	1862.124
379.000	27.926	1845.452	1862.454
380.015	28.385	1846.701	1868.199
381.029	31.526	1853.817	1907.433
382.044	35.306	1859.278	1951.583
383.059	35.760	1858.158	1954.809
384.073	35.112	1857.112	1946.861
385.088	35.337	1856.762	1948.557
386.102	35.567	1855.556	1949.401
387.117	35.498	1853.446	1946.255
388.132	35.595	1853.931	1947.516
389.146	34.651	1848.441	1931.917
390.161	30.468	1836.839	1877.184
391.175	29.864	1834.934	1868.877
392.190	32.607	1838.070	1899.694
393.205	34.087	1839.492	1915.933
394.219	34.873	1839.264	1923.418
395.234	34.747	1838.070	1920.666
396.248	34.884	1836.791	1920.484
397.263	34.764	1834.368	1916.514
398.278	34.677	1831.783	1912.705
399.292	34.348	1830.097	1907.410
400.307	32.913	1824.708	1887.160
401.321	29.695	1816.624	1846.324
402.336	28.117	1811.480	1825.061
403.350	27.990	1810.134	1822.211
404.365	28.807	1810.287	1830.332
405.380	28.802	1808.855	1828.614
406.394	27.872	1805.853	1816.068
407.409	27.738	1803.578	1812.227
408.423	27.802	1802.422	1811.490
409.438	27.591	1800.873	1807.612
410.453	27.448	1799.035	1804.125
411.467	27.563	1798.857	1804.879
412.482	28.878	1802.217	1821.137
413.496	33.129	1811.092	1872.308
414.511	35.385	1812.442	1895.923
415.526	34.963	1810.109	1889.069
416.540	35.245	1809.255	1890.749
417.555	35.249	1807.227	1888.442
418.569	34.198	1805.532	1876.038
419.584	34.116	1805.088	1874.542
420.599	34.159	1804.416	1874.050
421.613	34.146	1804.219	1873.492
422.628	34.444	1804.186	1876.175
423.642	35.370	1803.896	1884.802
424.657	34.692	1799.487	1873.294
425.672	33.590	1795.508	1858.076
426.686	34.042	1795.915	1862.726
427.701	34.149	1794.857	1862.460
428.715	34.199	1792.636	1860.421
429.730	34.603	1792.758	1864.291
430.745	35.213	1793.562	1870.899
431.759	35.755	1792.817	1875.205
432.774	35.394	1790.309	1868.831
433.788	32.602	1782.088	1832.768
434.803	30.344	1778.409	1806.699
435.818	30.265	1777.162	1804.444
436.832	30.322	1775.790	1803.391
437.847	28.651	1766.811	1777.811
438.861	17.662	1734.493	1639.430
439.876	3.822	1709.159	1482.628
440.890	0.492	1702.426	1444.595
441.905	0.264	1701.487	1441.440
442.920	0.171	1699.767	1438.912
443.934	0.174	1698.212	1437.455
444.949	0.138	1697.407	1436.253
445.963	0.235	1695.753	1435.614
446.978	0.119	1695.875	1434.436
447.993	0.154	1693.929	1432.953
449.007	0.250	1691.554	1431.688
450.022	0.263	1689.430	1429.842
451.036	0.179	1688.550	1428.125
452.051	1.481	1696.222	1446.906
453.066	13.642	1725.687	1589.693
454.080	27.620	1748.710	1746.308
455.095	30.445	1752.455	1777.045
456.109	29.716	1750.957	1768.308
457.124	29.443	1749.405	1763.908
458.139	29.399	1748.265	1762.128
459.153	29.564	1747.554	1762.781
460.168	29.659	1745.911	1761.822
461.182	29.951	1744.737	1763.219
462.197	30.232	1743.721	1764.670
463.212	30.985	1744.496	1772.447
464.226	32.017	1744.491	1782.084
465.241	31.773	1742.675	1777.683
466.255	31.423	1741.676	1773.115
467.270	31.436	1740.412	1771.745
468.285	32.470	1742.460	1783.470
469.299	33.444	1742.662	1792.736
470.314	33.518	1739.946	1790.433
471.328	33.205	1738.486	1785.741
472.343	33.197	1737.407	1784.347
473.358	33.312	1735.148	1782.898
474.372	33.262	1734.487	1781.536
475.387	33.895	1735.481	1788.328
476.401	33.796	1733.147	1784.783
477.416	32.979	1729.502	1773.104
478.430	32.419	1727.919	1765.993
479.445	33.152	1729.337	1774.140
480.460	34.014	1729.235	1781.948
481.474	34.145	1727.227	1780.897
482.489	33.444	1724.352	1771.142
483.503	32.261	1720.358	1755.724
484.518	31.875	1718.714	1750.216
485.533	32.426	1717.790	1754.229
486.547	32.103	1714.758	1747.907
487.562	30.432	1711.497	1728.750
488.576	31.081	1711.518	1734.639
489.591	32.083	1713.205	1745.507
490.606	32.725	1712.933	1751.019
491.620	32.872	1710.550	1749.740
492.635	31.979	1706.678	1737.259
493.649	31.136	1704.065	1726.563
494.664	31.840	1705.881	1734.741
495.679	33.466	1706.581	1750.364
496.693	33.365	1705.184	1747.785
497.708	32.970	1702.758	1741.422
498.722	32.021	1699.985	1729.598
499.737	31.940	1698.999	1727.634
500.752	32.213	1698.121	1729.062
501.766	32.672	1697.484	1732.451
502.781	32.567	1695.150	1728.892
503.795	32.655	1694.068	1728.392
504.810	32.811	1693.111	1728.642
505.825	32.091	1691.342	1720.004
506.839	31.469	1689.050	1711.743
507.854	31.395	1686.966	1708.752
508.868	30.912	1684.339	1701.456
509.883	30.253	1682.121	1692.969
510.898	29.801	1679.400	1685.881
511.912	29.772	1676.907	1682.912
512.927	29.569	1675.548	1679.494
513.941	29.414	1674.564	1676.894
514.956	29.300	1673.132	1674.212
515.971	29.203	1671.371	1671.366
516.985	29.144	1669.573	1668.838
518.000	29.159	1669.824	1669.024
519.014	29.177	1668.394	1667.553
520.029	29.384	1666.916	1667.756
521.043	29.407	1665.943	1666.796
522.058	29.507	1665.030	1666.588
523.073	29.698	1663.738	1666.831
524.087	29.555	1662.307	1663.902
525.102	29.803	1661.679	1665.314
526.116	30.715	1664.096	1675.804
527.131	31.711	1663.576	1684.083
528.146	31.236	1662.080	1678.078
529.160	31.085	1660.618	1675.042
530.175	31.229	1659.607	1675.118
531.189	31.056	1657.542	1671.272
532.204	30.896	1656.125	1668.202
533.219	31.448	1656.467	1673.313
534.233	32.183	1656.838	1680.105
535.248	31.654	1654.165	1672.441
536.262	30.480	1650.835	1658.347
537.277	30.635	1650.300	1659.002
538.292	31.305	1649.558	1664.056
539.306	31.527	1647.189	1663.459
540.321	30.759	1644.501	1653.686
541.335	30.232	1642.824	1647.100
542.350	30.506	1642.074	1648.590
543.365	30.864	1641.072	1650.584
544.379	31.307	1639.813	1653.060
545.394	30.846	1637.918	1646.851
546.408	31.016	1637.331	1647.575
547.423	32.066	1639.862	1659.262
548.438	33.214	1640.484	1669.881
549.452	32.663	1637.174	1661.435
550.467	31.485	1633.754	1647.346
551.481	31.344	1632.015	1644.142
552.496	30.859	1630.782	1638.421
553.511	30.507	1629.261	1633.588
554.525	30.731	1627.885	1633.984
555.540	30.715	1627.766	1633.526
556.554	30.947	1626.794	1634.407
557.569	30.698	1624.598	1629.809
558.583	30.272	1622.529	1623.794
559.598	30.324	1620.996	1622.522
560.613	30.336	1619.469	1620.909
561.627	30.012	1617.841	1616.244
562.642	29.471	1615.041	1608.510
563.656	29.217	1613.666	1604.727
564.671	29.171	1612.020	1602.495
565.686	29.055	1610.470	1599.745
566.700	29.033	1609.740	1598.639
567.715	29.133	1607.593	1597.185
568.729	29.097	1605.767	1594.874
569.744	28.853	1604.733	1591.530
570.759	28.881	1603.288	1590.149
571.773	28.866	1602.121	1588.673
572.788	28.748	1601.593	1586.931
573.802	28.953	1600.130	1587.069
574.817	29.142	1597.976	1586.384
575.832	29.075	1597.751	1585.386
576.846	29.407	1597.570	1587.887
577.861	29.818	1597.032	1590.718
578.875	29.885	1596.847	1590.922
579.890	30.122	1595.516	1591.456
580.905	30.107	1594.716	1590.335
581.919	30.072	1594.529	1589.654
582.934	30.157	1593.069	1588.746
583.948	29.920	1591.127	1584.576
584.963	30.135	1589.922	1585.039
585.978	30.495	1589.265	1587.283
586.992	30.049	1587.887	1581.886
588.007	29.687	1586.514	1577.226
589.021	29.425	1584.846	1573.139
590.036	28.781	1582.542	1565.144
591.051	29.037	1581.648	1566.267
592.065	29.370	1580.009	1567.298
593.080	29.396	1578.553	1565.894
594.094	29.723	1577.968	1567.910
595.109	30.272	1577.757	1572.188
596.123	31.500	1578.295	1582.994
597.138	31.380	1577.062	1580.548
598.153	30.504	1573.362	1569.216
599.167	30.149	1571.507	1564.172
600.182	29.877	1569.935	1560.116
601.196	30.018	1569.447	1560.636
602.211	30.441	1569.422	1564.003
603.226	30.189	1567.132	1559.405
604.240	30.259	1566.769	1559.454
605.255	30.250	1564.901	1557.332
606.269	29.942	1564.062	1553.712
607.284	29.779	1562.338	1550.435
608.299	29.757	1559.985	1547.735
609.313	29.779	1558.997	1546.748
610.328	29.586	1557.746	1543.704
611.342	29.605	1556.431	1542.376
612.357	29.620	1555.381	1541.276
613.372	29.500	1553.583	1538.308
614.386	29.358	1553.067	1536.424
615.401	29.259	1552.348	1534.697
616.415	29.278	1550.902	1533.244
617.430	29.076	1550.031	1530.513
618.445	28.797	1549.313	1527.283
619.459	28.984	1547.612	1526.986
620.474	28.954	1546.806	1525.757
621.488	28.830	1545.892	1523.642
622.503	29.007	1544.169	1523.231
623.518	28.800	1542.622	1519.809
624.532	28.698	1541.398	1517.571
625.547	28.855	1540.040	1517.354
626.561	28.983	1539.780	1517.980
627.576	28.889	1538.570	1515.828
628.591	28.810	1537.050	1513.489
629.605	28.551	1535.639	1509.782
630.620	28.892	1534.168	1510.966
631.634	29.069	1533.984	1512.070
632.649	28.981	1532.466	1509.668
633.663	28.952	1530.694	1507.499
634.678	28.899	1529.798	1506.004
635.693	29.070	1527.603	1505.064
636.707	28.914	1526.393	1502.416
637.722	29.079	1525.350	1502.561
638.736	29.161	1525.121	1502.828
639.751	29.418	1524.272	1503.919
640.766	29.562	1522.558	1503.222
641.780	29.413	1521.942	1501.217
642.795	29.539	1522.143	1502.267
643.809	29.489	1520.774	1500.326
644.824	29.643	1519.588	1500.234
645.839	29.997	1518.541	1501.909
646.853	29.733	1517.783	1498.827
647.868	29.739	1516.137	1497.074
648.882	29.739	1514.035	1494.813
649.897	29.575	1512.946	1492.228
650.912	29.403	1511.065	1488.801
651.926	29.302	1509.775	1486.536
652.941	29.062	1509.095	1483.738
653.955	28.931	1506.838	1480.282
654.970	28.426	1504.521	1473.752
655.985	28.349	1502.419	1470.894
656.999	28.174	1500.832	1467.753
658.014	28.108	1499.709	1465.946
659.028	28.502	1499.964	1469.196
660.043	29.012	1499.695	1472.858
661.058	29.084	1498.735	1472.321
662.072	29.309	1498.151	1473.378
663.087	29.278	1497.395	1472.208
664.101	29.327	1496.312	1471.363
665.116	29.324	1495.401	1470.268
666.131	29.576	1493.447	1470.182
667.145	29.732	1492.764	1470.588
668.160	29.626	1491.829	1468.643
669.174	29.465	1490.096	1465.477
670.189	29.561	1489.206	1465.190
671.204	29.578	1488.699	1464.648
672.218	29.522	1488.225	1463.558
673.233	29.612	1486.463	1462.374
674.247	29.616	1485.085	1460.871
675.262	29.500	1483.958	1458.668
676.276	29.397	1482.864	1456.597
677.291	29.315	1482.249	1455.167
678.306	29.724	1481.676	1457.678
679.320	29.664	1479.710	1455.089
680.335	29.265	1479.241	1451.297
681.349	29.304	1478.973	1451.175
682.364	29.519	1477.032	1450.789
683.379	29.436	1474.717	1447.690
684.393	29.251	1472.722	1444.104
685.408	29.251	1472.577	1443.787
686.422	29.236	1471.771	1442.704
687.437	29.007	1471.004	1439.981
688.452	28.978	1470.494	1439.080
689.466	29.029	1468.414	1437.269
690.481	29.028	1467.077	1435.781
691.495	28.747	1466.280	1432.633
692.510	28.789	1465.134	1431.670
693.525	29.003	1463.662	1431.734
694.539	28.739	1462.826	1428.678
695.554	28.836	1461.530	1428.002
696.568	28.947	1460.544	1427.733
697.583	28.921	1459.976	1426.803
698.598	29.038	1458.650	1426.247
699.612	29.134	1457.780	1425.970
700.627	29.172	1456.722	1425.059
701.641	29.384	1455.545	1425.391
702.656	29.474	1454.104	1424.508
703.671	29.361	1453.820	1423.175
704.685	29.488	1453.456	1423.634
705.700	29.389	1451.876	1421.155
706.714	29.137	1450.231	1417.425
707.729	29.198	1448.980	1416.503
708.744	29.048	1447.627	1413.853
709.758	28.771	1445.702	1409.667
710.773	28.379	1443.967	1404.784
711.787	28.138	1442.597	1401.428
712.802	28.604	1441.510	1403.786
713.816	28.961	1441.009	1405.877
714.831	29.018	1440.518	1405.665
715.846	29.118	1439.810	1405.576
716.860	29.170	1438.624	1404.648
717.875	29.158	1437.232	1403.030
718.889	29.055	1436.649	1401.500
719.904	28.935	1435.516	1399.313
720.919	29.087	1433.911	1398.745
721.933	29.151	1432.853	1398.029
722.948	28.956	1432.506	1396.038
723.962	29.127	1431.249	1395.946
724.977	29.224	1429.461	1394.777
725.992	29.325	1428.991	1394.919
727.006	29.391	1427.613	1393.906
728.021	29.417	1425.817	1392.184
729.035	29.451	1424.735	1391.218
730.050	29.343	1424.615	1390.113
731.065	29.293	1423.003	1387.996
732.079	29.176	1422.547	1386.502
733.094	29.469	1422.069	1388.086
734.108	29.381	1420.027	1385.266
735.123	29.450	1418.370	1383.997
736.138	29.374	1416.891	1381.817
737.152	29.268	1416.209	1380.189
738.167	29.291	1415.412	1379.423
739.181	29.271	1414.762	1378.475
740.196	29.270	1413.993	1377.548
741.211	29.242	1412.667	1375.882
742.225	29.299	1411.738	1375.244
743.240	29.201	1410.316	1372.956
744.254	29.359	1408.844	1372.542
745.269	29.099	1407.811	1369.431
746.284	29.095	1407.306	1368.746
747.298	28.902	1405.971	1365.843
748.313	28.906	1404.646	1364.418
749.327	28.553	1404.017	1361.015
750.342	28.755	1403.747	1362.098
751.356	29.083	1402.353	1363.020
752.371	29.063	1400.468	1360.873
753.386	29.097	1399.357	1359.884
754.400	29.028	1399.159	1359.021
755.415	29.350	1397.950	1360.072
756.429	29.553	1396.279	1359.788
757.444	29.418	1395.993	1358.346
758.459	29.296	1395.264	1356.572
759.473	29.303	1393.933	1355.162
760.488	29.222	1391.953	1352.482
761.502	29.055	1391.014	1350.172
762.517	29.161	1389.796	1349.614
763.532	29.245	1388.127	1348.446
764.546	28.995	1386.382	1344.756
765.561	28.544	1385.386	1340.316
766.575	27.936	1383.889	1334.245
767.590	27.875	1382.970	1332.754
768.605	28.356	1382.362	1335.533
769.619	28.703	1381.834	1337.399
770.634	28.950	1380.839	1338.087
771.648	29.093	1379.697	1337.864
772.663	28.952	1379.446	1336.428
773.678	29.131	1378.680	1336.832
774.692	29.256	1377.596	1336.537
775.707	29.339	1377.016	1336.419
776.721	29.436	1376.185	1336.156
777.736	29.349	1374.805	1334.026
778.751	29.290	1374.121	1332.774
779.765	29.368	1373.294	1332.375
780.780	29.330	1372.555	1331.224
781.794	29.441	1371.254	1330.607
782.809	29.181	1370.017	1327.364
783.824	29.042	1368.557	1324.789
784.838	28.967	1367.354	1322.923
785.853	28.845	1367.363	1321.891
786.867	28.753	1366.167	1319.911
787.882	28.702	1364.956	1318.214
788.897	28.817	1364.298	1318.249
789.911	29.018	1363.115	1318.395
790.926	28.815	1362.139	1315.836
791.940	29.125	1359.797	1315.639
792.955	29.211	1358.559	1314.907
793.969	29.082	1358.497	1313.764
794.984	29.115	1357.781	1313.147
795.999	29.295	1356.941	1313.470
797.013	29.452	1354.893	1312.450
798.028	29.370	1353.367	1310.229
799.042	29.319	1353.079	1309.426
800.057	29.383	1352.040	1308.723
801.072	29.442	1350.397	1307.398
802.086	29.222	1349.166	1304.487
803.101	29.257	1348.331	1303.770
804.115	29.294	1347.943	1303.502
805.130	29.107	1347.065	1301.169
806.145	29.210	1345.620	1300.345
807.159	29.121	1343.580	1297.585
808.174	29.152	1342.653	1296.758
809.188	29.088	1341.595	1295.125
810.203	28.800	1340.006	1291.407
811.218	28.600	1338.439	1288.330
812.232	28.222	1336.126	1283.284
813.247	27.981	1335.094	1280.442
814.261	28.367	1335.684	1283.572
815.276	28.936	1335.483	1287.235
816.291	28.868	1334.139	1285.307
817.305	28.991	1333.182	1285.096
818.320	29.013	1332.163	1284.110
819.334	29.222	1331.150	1284.443
820.349	29.329	1329.231	1283.192
821.364	29.333	1328.048	1281.924
822.378	29.260	1327.280	1280.517
823.393	29.319	1325.287	1278.855
824.407	29.262	1324.375	1277.422
825.422	29.187	1324.202	1276.581
826.437	29.230	1322.630	1275.208
827.451	29.156	1320.749	1272.728
828.466	28.915	1319.497	1269.700
829.480	28.865	1317.592	1267.366
830.495	28.930	1316.092	1266.225
831.509	28.906	1315.494	1265.327
832.524	28.874	1315.397	1264.866
833.539	29.203	1313.945	1265.590
834.553	29.229	1312.615	1264.337
835.568	29.317	1311.435	1263.653
836.582	29.293	1310.584	1262.515
837.597	29.260	1309.161	1260.769
838.612	29.205	1307.612	1258.745
839.626	29.066	1306.199	1256.283
840.641	28.808	1305.257	1253.457
841.655	28.720	1304.141	1251.633
842.670	28.310	1302.106	1246.726
843.685	27.824	1301.237	1242.418
844.699	28.222	1300.691	1244.471
845.714	28.785	1299.693	1247.211
846.728	28.934	1298.815	1247.233
847.743	29.017	1297.777	1246.656
848.758	29.009	1297.322	1246.014
849.772	29.297	1296.104	1246.653
850.787	29.101	1294.693	1243.813
851.801	29.145	1293.414	1242.735
852.816	29.205	1292.540	1242.154
853.831	29.103	1291.268	1240.095
854.845	29.248	1289.156	1238.895
855.860	29.110	1287.735	1236.451
856.874	29.098	1286.471	1235.010
857.889	28.859	1285.652	1232.461
858.904	28.819	1284.071	1230.532
859.918	28.811	1282.377	1228.709
860.933	28.860	1281.147	1227.710
861.947	28.733	1280.070	1225.682
862.962	28.908	1279.486	1226.150
863.977	28.813	1278.881	1224.787
864.991	28.993	1278.076	1225.074
866.006	28.865	1277.585	1223.596
867.020	29.110	1276.041	1223.612
868.035	29.122	1274.868	1222.415
869.049	29.134	1274.338	1221.845
870.064	29.235	1273.295	1221.370
871.079	29.212	1272.376	1220.188
872.093	29.051	1271.607	1218.232
873.108	28.909	1270.870	1216.436
874.122	28.812	1268.770	1213.637
875.137	28.406	1267.795	1209.869
876.152	28.301	1267.164	1208.426
877.166	28.491	1265.103	1207.574
878.181	28.634	1263.902	1207.224
879.195	28.753	1263.778	1207.751
880.210	28.910	1263.607	1208.479
881.225	29.119	1262.290	1208.453
882.239	29.259	1260.746	1207.756
883.254	29.267	1260.406	1207.334
884.268	29.140	1260.004	1205.970
885.283	29.202	1258.411	1204.712
886.298	29.080	1256.644	1202.073
887.312	29.188	1255.681	1201.715
888.327	29.205	1254.306	1200.367
889.341	29.162	1253.138	1198.825
890.356	29.109	1252.804	1198.016
891.371	29.049	1252.404	1197.099
892.385	29.059	1251.908	1196.543
893.400	28.960	1250.669	1194.573
894.414	29.035	1249.485	1193.783
895.429	28.991	1247.805	1191.753
896.444	29.014	1246.215	1190.243
897.458	29.046	1245.187	1189.325
898.473	28.781	1244.884	1187.173
899.487	28.965	1243.556	1186.958
900.502	29.145	1241.841	1186.340
901.517	29.011	1241.015	1184.546
902.531	28.999	1240.304	1183.647
903.546	29.188	1239.554	1184.011
904.560	29.249	1238.998	1183.732
905.575	28.999	1238.262	1181.273
906.589	28.964	1237.181	1179.872
907.604	28.967	1235.808	1178.447
