DTS Sentinel unit serial number:	SN409020Multiplexer serial number:	ORYXHardware model number:	OX4-SRSoftware version number:	ORYX F/W v3.00 Oryx Data Collector v3.7.2.0data status	okinstallation	HaddamTimeLapsedifferential loss correction	single-endedforward channel	channel 3reverse channel	N/Adate	2011/06/22time	01:16:18forward acquisition time	30.00reverse acquisition time	0.00gamma	498.7831k internal	0.1751k external	0.1751temperature offset calibration	1.0074default loss term (dB/km)	0.3790temperature slope calibration	1.3530multiplexer offset coefficient	1.0000multiplexer slope coefficient	1.0000fibre end	0.00T internal ref (°C)	22.50T ext. ref 1 (°C)	17.84T ext. ref 2 (°C)	0.01length (m)	temperature (°C)	Stokes	anti-Stokes-747.200	-116.828	-0.231	-0.056
-746.185	-121.801	-0.356	-0.077
-745.171	-58.372	-0.088	-0.051
-744.156	315.273	0.113	0.284
-743.142	-23.044	-0.190	0.152
-742.127	-115.617	-0.210	0.052
-741.112	298.897	0.085	0.210
-740.098	-190.785	-0.154	0.002
-739.083	-17.530	-0.112	0.093
-738.069	47.055	-0.245	-0.303
-737.054	-131.283	0.091	-0.016
-736.039	800.000	-0.051	-0.259
-735.025	-23.317	0.361	0.288
-734.010	800.000	-0.070	0.371
-732.996	52.296	-0.193	-0.245
-731.981	81.279	0.259	0.373
-730.966	225.698	-0.070	-0.150
-729.952	-200.000	-0.066	0.411
-728.937	404.218	0.229	-0.644
-727.923	685.906	-0.032	0.112
-726.908	378.061	0.076	-0.208
-725.894	-110.140	-0.504	-0.139
-724.879	558.893	0.007	0.024
-723.864	-56.021	0.252	0.149
-722.850	-8.911	-0.085	-0.076
-721.835	800.000	0.068	0.289
-720.821	105.031	0.255	-0.400
-719.806	-94.488	-0.387	0.139
-718.791	800.000	-0.048	-0.248
-717.777	19.739	-0.166	0.177
-716.762	252.852	-0.169	-0.383
-715.748	800.000	0.089	-0.338
-714.733	-200.000	0.033	-0.724
-713.718	800.000	-0.064	-0.314
-712.704	-19.320	0.075	-0.062
-711.689	-124.164	0.391	0.081
-710.675	-118.258	-0.204	-0.048
-709.660	-200.000	-0.005	-0.229
-708.645	-172.871	0.185	-0.007
-707.631	-91.440	-0.569	-0.214
-706.616	-86.282	0.500	-0.203
-705.602	154.141	-0.119	0.217
-704.587	-98.835	-0.240	-0.080
-703.572	-200.000	0.018	-0.507
-702.558	-200.000	0.003	-0.427
-701.543	-200.000	-0.024	-0.168
-700.529	231.889	0.174	-0.379
-699.514	136.700	-0.233	0.405
-698.499	39.986	-0.226	-0.269
-697.485	-32.556	0.164	-0.121
-696.470	356.721	0.088	-0.233
-695.456	-200.000	-0.067	-0.437
-694.441	-29.382	0.316	-0.239
-693.426	-21.337	-0.159	0.128
-692.412	15.371	-0.257	0.268
-691.397	-7.040	0.424	0.381
-690.383	224.477	-0.199	-0.427
-689.368	-149.325	-0.445	0.046
-688.354	-98.526	-0.526	-0.177
-687.339	-78.131	-0.590	-0.268
-686.324	-1.211	-0.355	0.332
-685.310	-76.720	-0.590	-0.273
-684.295	-55.192	0.600	0.357
-683.281	-98.192	-0.345	0.117
-682.266	-152.533	0.398	-0.037
-681.251	366.940	-0.087	-0.233
-680.237	179.833	0.374	0.729
-679.222	-99.553	-0.368	-0.122
-678.208	126.525	-0.058	0.097
-677.193	-26.859	-0.465	-0.359
-676.178	-108.462	-0.059	-0.017
-675.164	140.772	0.117	-0.205
-674.149	-200.000	-0.015	-0.086
-673.135	-102.169	-0.597	0.189
-672.120	-96.984	0.719	0.248
-671.105	8.578	0.282	0.281
-670.091	-157.446	0.454	-0.036
-669.076	92.771	-0.317	-0.474
-668.062	-110.071	-0.117	-0.032
-667.047	-200.000	0.038	0.482
-666.032	-97.085	-0.409	-0.141
-665.018	18.878	-0.173	-0.184
-664.003	-20.361	0.318	0.259
-662.989	180.484	0.343	0.668
-661.974	-61.236	-0.342	-0.190
-660.959	51.897	0.030	-0.038
-659.945	-45.377	0.014	0.009
-658.930	-47.249	0.074	0.047
-657.916	-182.166	0.342	0.008
-656.901	-27.079	-0.229	-0.177
-655.886	786.215	-0.073	0.267
-654.872	19.231	-0.150	-0.159
-653.857	-200.000	0.035	-0.282
-652.843	-44.989	0.418	-0.275
-651.828	-116.186	0.131	0.032
-650.814	238.468	0.167	-0.368
-649.799	433.474	0.167	-0.483
-648.784	-103.271	0.341	-0.106
-647.770	79.941	-0.097	0.138
-646.755	104.915	-0.138	-0.216
-645.741	72.849	0.209	0.289
-644.726	-116.485	-0.213	-0.052
-643.711	-8.644	0.129	0.114
-642.697	-88.485	-0.107	-0.042
-641.682	173.207	-0.213	-0.407
-640.668	108.421	-0.182	0.289
-639.653	-9.785	-0.139	-0.123
-638.638	-34.839	0.152	0.110
-637.624	-200.000	-0.040	0.306
-636.609	344.684	-0.116	-0.302
-635.595	51.113	0.298	-0.374
-634.580	-16.887	0.215	-0.179
-633.565	-58.099	0.472	0.271
-632.551	-185.061	-0.423	-0.009
-631.536	-140.485	-0.206	-0.028
-630.522	166.564	-0.127	0.239
-629.507	-89.851	0.399	0.153
-628.492	-200.000	0.039	0.700
-627.478	-148.226	-0.567	-0.061
-626.463	607.170	0.114	-0.377
-625.449	250.312	-0.153	-0.344
-624.434	-84.096	0.164	-0.069
-623.419	800.000	0.046	-0.231
-622.405	-65.135	0.361	-0.192
-621.390	-54.404	0.076	0.046
-620.376	-93.711	-0.160	0.058
-619.361	-200.000	0.012	0.242
-618.346	-47.963	-0.133	-0.085
-617.332	-129.931	-0.155	0.028
-616.317	70.910	-0.261	0.358
-615.303	-54.395	-0.632	-0.377
-614.288	58.976	-0.181	0.235
-613.273	149.164	-0.279	0.500
-612.259	-58.578	-0.340	0.194
-611.244	90.299	0.138	-0.205
-610.230	-129.430	-0.297	0.054
-609.215	-155.327	-0.518	0.044
-608.201	175.390	-0.298	0.573
-607.186	277.865	-0.108	0.255
-606.171	800.000	-0.016	0.077
-605.157	119.467	0.074	-0.121
-604.142	736.243	-0.015	0.053
-603.128	-78.062	-0.065	0.029
-602.113	-149.243	-0.208	0.022
-601.098	-102.321	-0.083	-0.026
-600.084	-200.000	-0.095	-0.562
-599.069	-127.361	-0.195	-0.037
-598.055	25.333	-0.483	0.531
-597.040	-200.000	0.015	-0.374
-596.025	90.565	0.221	-0.327
-595.011	-24.819	0.364	-0.285
-593.996	-138.031	0.015	0.002
-592.982	-200.000	-0.010	-0.087
-591.967	-97.800	-0.445	0.151
-590.952	41.494	-0.099	0.118
-589.938	32.199	0.301	-0.343
-588.923	-152.932	0.670	0.062
-587.909	-183.453	-0.440	0.010
-586.894	-51.825	-0.405	0.248
-585.879	-166.792	-0.482	0.026
-584.865	-133.457	-0.437	0.072
-583.850	51.976	-0.049	-0.062
-582.836	-66.881	-0.304	-0.158
-581.821	365.910	0.142	0.379
-580.806	-66.791	0.326	-0.170
-579.792	-200.000	0.028	0.438
-578.777	89.009	0.076	0.112
-577.763	12.880	0.070	-0.072
-576.748	229.330	-0.244	-0.528
-575.733	166.033	-0.187	0.350
-574.719	-113.983	0.472	-0.120
-573.704	-153.879	-0.453	0.040
-572.690	47.331	0.092	0.113
-571.675	-110.440	-0.220	-0.060
-570.661	-42.405	0.163	0.109
-569.646	-31.647	0.508	-0.376
-568.631	800.000	-0.018	-0.077
-567.617	698.626	-0.116	0.406
-566.602	71.301	-0.346	0.474
-565.588	28.659	0.268	-0.299
-564.573	4.220	-0.264	0.254
-563.558	54.418	-0.113	0.143
-562.544	23.288	0.198	0.215
-561.529	-200.000	-0.014	-0.104
-560.515	12.838	-0.142	-0.145
-559.500	-200.000	0.012	-0.312
-558.485	728.107	-0.121	-0.430
-557.471	-200.000	-0.005	0.138
-556.456	277.388	-0.064	-0.151
-555.442	-156.500	-0.395	-0.032
-554.427	800.000	-0.066	-0.348
-553.412	-42.776	0.320	-0.214
-552.398	-200.000	-0.095	-0.665
-551.383	-148.049	-0.373	0.040
-550.369	325.505	0.146	-0.370
-549.354	160.069	0.134	0.247
-548.339	-83.076	-0.169	0.071
-547.325	-106.285	-0.112	0.033
-546.310	-60.400	0.568	0.317
-545.296	61.777	-0.242	-0.318
-544.281	184.656	-0.214	-0.419
-543.266	121.697	0.350	0.576
-542.252	-158.898	0.611	0.045
-541.237	-200.000	-0.032	-0.279
-540.223	57.941	-0.205	0.265
-539.208	800.000	-0.118	-0.440
-538.193	-200.000	0.027	-0.432
-537.179	-200.000	0.007	-0.105
-536.164	-200.000	0.007	0.214
-535.150	175.719	-0.096	-0.184
-534.135	340.370	0.071	0.182
-533.121	19.693	0.228	0.242
-532.106	-130.233	-0.194	0.035
-531.091	-184.077	-0.420	0.009
-530.077	-200.000	0.321	-0.001
-529.062	-129.835	0.320	-0.057
-528.048	-49.767	0.047	0.029
-527.033	-65.052	0.259	-0.137
-526.018	276.083	-0.167	-0.392
-525.004	-20.766	0.174	0.141
-523.989	62.569	0.329	0.433
-522.975	-48.951	-0.290	-0.183
-521.960	347.457	-0.091	-0.237
-520.945	-11.285	0.230	0.199
-519.931	641.750	-0.132	-0.446
-518.916	-57.023	0.395	0.229
-517.902	-6.906	-0.075	0.067
-516.887	170.408	0.247	-0.467
-515.872	81.825	0.119	-0.170
-514.858	261.373	0.224	0.513
-513.843	206.489	0.165	-0.340
-512.829	203.833	0.158	0.322
-511.814	-32.687	0.241	0.176
-510.799	-99.422	0.326	0.108
-509.785	3.996	0.036	0.035
-508.770	-144.699	0.331	0.040
-507.756	-77.262	0.416	-0.190
-506.741	-49.043	0.122	-0.077
-505.726	-131.341	0.405	-0.070
-504.712	34.834	0.168	-0.193
-503.697	-124.896	0.438	0.088
-502.683	-200.000	0.011	-0.309
-501.668	-67.565	-0.272	0.140
-500.653	46.906	-0.089	-0.109
-499.639	-115.302	-0.193	-0.048
-498.624	-200.000	-0.025	0.558
-497.610	-59.576	0.299	0.168
-496.595	592.626	0.086	0.281
-495.581	800.000	0.052	0.241
-494.566	-190.112	0.102	0.001
-493.551	301.594	-0.058	0.141
-492.537	-200.000	-0.008	0.280
-491.522	-84.582	-0.215	-0.089
-490.508	-69.033	0.559	-0.282
-489.493	-130.393	0.403	0.071
-488.478	-69.536	0.104	0.052
-487.464	119.752	-0.415	-0.677
-486.449	421.148	-0.169	0.479
-485.435	-200.000	0.073	-0.555
-484.420	-72.214	-0.371	-0.180
-483.405	-200.000	-0.007	0.262
-482.391	-93.545	-0.452	0.164
-481.376	-120.972	-0.550	-0.121
-480.362	286.078	0.249	-0.592
-479.347	31.740	0.167	-0.189
-478.332	-200.000	0.004	0.160
-477.318	-200.000	0.033	0.315
-476.303	31.588	-0.173	-0.195
-475.289	18.151	0.384	-0.402
-474.274	-68.465	0.173	-0.088
-473.259	121.224	0.156	-0.255
-472.245	800.000	0.028	-0.135
-471.230	-9.559	0.282	-0.247
-470.216	-70.386	-0.091	-0.045
-469.201	235.042	-0.036	0.078
-468.186	-48.548	0.542	0.342
-467.172	-146.692	-0.487	-0.055
-466.157	-43.389	0.091	-0.060
-465.143	-169.436	-0.506	0.024
-464.128	-71.621	-0.420	0.205
-463.113	-80.570	-0.059	0.026
-462.099	-70.078	0.273	0.136
-461.084	800.000	-0.029	0.130
-460.070	800.000	0.058	-0.263
-459.055	225.931	0.208	-0.444
-458.040	2.289	0.209	-0.199
-457.026	-4.872	-0.141	0.127
-456.011	-43.437	0.195	-0.129
-454.997	-44.024	-0.207	-0.136
-453.982	-144.052	0.199	0.024
-452.968	-200.000	0.661	0.003
-451.953	-65.626	-0.335	0.176
-450.938	-58.554	-0.229	-0.130
-449.924	-63.244	0.516	0.278
-448.909	-89.066	-0.310	-0.120
-447.895	237.145	-0.212	-0.463
-446.880	322.005	-0.071	0.178
-445.865	65.296	0.225	-0.299
-444.851	-145.128	-0.231	0.027
-443.836	66.183	-0.189	-0.252
-442.822	-59.779	-0.254	0.143
-441.807	82.097	-0.164	-0.234
-440.792	-200.000	-0.050	0.405
-439.778	-200.000	0.031	-0.199
-438.763	6.555	-0.103	0.100
-437.749	109.272	-0.187	0.295
-436.734	-59.404	0.198	-0.111
-435.719	-133.866	0.326	0.053
-434.705	-200.000	-0.010	0.062
-433.690	-200.000	0.296	-0.002
-432.676	173.546	-0.208	-0.394
-431.661	-120.512	0.266	0.059
-430.646	-65.675	-0.086	0.045
-429.632	-200.000	0.009	-0.105
-428.617	-80.666	-0.175	0.076
-427.603	136.342	-0.116	-0.199
-426.588	-127.959	-0.178	0.033
-425.573	334.476	0.157	-0.402
-424.559	65.371	0.317	-0.421
-423.544	618.520	-0.040	-0.132
-422.530	-156.182	-0.246	0.020
-421.515	310.086	0.041	0.100
-420.500	184.000	0.326	0.635
-419.486	491.704	0.052	-0.158
-418.471	98.399	0.413	-0.626
-417.457	-117.453	-0.375	0.088
-416.442	1.760	0.401	0.378
-415.428	68.434	-0.465	0.626
-414.413	315.406	0.180	-0.446
-413.398	91.037	0.266	-0.392
-412.384	238.881	0.138	0.303
-411.369	-200.000	-0.018	0.591
-410.355	800.000	-0.103	0.404
-409.340	255.604	0.070	0.158
-408.325	383.859	-0.081	0.220
-407.311	800.000	0.092	-0.511
-406.296	-55.575	-0.526	0.308
-405.282	-139.545	-0.461	-0.064
-404.267	50.071	-0.166	0.205
-403.252	800.000	-0.018	-0.090
-402.238	-200.000	-0.018	0.236
-401.223	-181.001	0.369	0.010
-400.209	23.174	-0.116	0.125
-399.194	-42.433	0.148	-0.098
-398.179	800.000	-0.046	-0.202
-397.165	90.135	0.184	0.270
-396.150	-200.000	0.002	-0.241
-395.136	199.447	0.136	-0.275
-394.121	129.316	-0.049	0.082
-393.106	287.161	0.112	0.267
-392.092	-155.647	-0.063	0.005
-391.077	-32.414	-0.271	-0.198
-390.063	44.623	-0.215	-0.259
-389.048	-186.788	-0.175	-0.003
-388.033	800.000	0.068	-0.285
-387.019	350.929	-0.193	0.503
-386.004	-105.165	-0.219	-0.065
-384.990	800.000	-0.077	0.287
-383.975	-134.131	-0.333	0.053
-382.960	395.099	0.017	-0.047
-381.946	-91.999	-0.339	0.125
-380.931	-114.918	-0.502	-0.124
-379.917	278.755	0.213	-0.500
-378.902	-200.000	0.068	-0.494
-377.888	-41.861	0.101	-0.068
-376.873	106.714	-0.171	0.266
-375.858	-168.500	-0.366	0.018
-374.844	-15.792	0.443	0.369
-373.829	-200.000	-0.048	0.320
-372.815	-20.773	0.316	0.253
-371.800	-176.203	-0.759	-0.026
-370.785	-84.839	0.435	0.178
-369.771	-200.000	0.026	0.247
-368.756	51.313	0.236	-0.293
-367.742	284.794	-0.131	-0.311
-366.727	-99.590	-0.382	-0.125
-365.712	-119.638	0.564	0.127
-364.698	800.000	0.068	0.372
-363.683	29.275	-0.229	0.255
-362.669	-85.098	0.173	-0.071
-361.654	120.344	0.395	0.643
-360.639	-126.845	-0.537	-0.103
-359.625	800.000	-0.062	-0.294
-358.610	-152.789	0.311	-0.029
-357.596	-117.840	-0.283	0.066
-356.581	-96.764	0.197	0.068
-355.566	-90.201	0.112	0.042
-354.552	-200.000	0.030	0.290
-353.537	150.226	0.148	0.263
-352.523	-34.256	-0.158	0.113
-351.508	-200.000	-0.011	-0.087
-350.493	48.365	0.155	-0.189
-349.479	25.598	0.377	0.410
-348.464	-119.583	-0.227	-0.051
-347.450	80.642	-0.096	-0.136
-346.435	-109.157	-0.390	-0.108
-345.420	-200.000	0.022	-0.202
-344.406	4.923	0.377	-0.363
-343.391	-19.424	0.133	-0.108
-342.377	86.953	-0.147	-0.213
-341.362	-200.000	0.075	0.711
-340.348	-149.758	0.231	-0.023
-339.333	70.461	0.323	0.437
-338.318	2.064	0.150	0.142
-337.304	190.619	0.223	-0.440
-336.289	800.000	0.066	-0.267
-335.275	-200.000	0.016	-0.175
-334.260	0.765	0.088	0.083
-333.245	-57.652	-0.167	-0.095
-332.231	-49.147	0.443	-0.276
-331.216	83.330	-0.088	-0.125
-330.202	-148.120	0.445	-0.048
-329.187	-162.367	-0.297	0.019
-328.172	548.645	0.068	0.214
-327.158	117.483	0.161	-0.260
-326.143	209.838	0.166	-0.342
-325.129	104.663	0.296	0.456
-324.114	260.653	-0.248	0.562
-323.099	-200.000	0.056	0.367
-322.085	-46.266	-0.029	-0.018
-321.070	-200.000	-0.016	0.211
-320.056	464.013	-0.150	-0.439
-319.041	-48.051	-0.201	0.127
-318.026	-104.601	-0.247	0.074
-317.012	21.389	-0.060	0.064
-315.997	-126.161	-0.244	0.047
-314.983	-79.379	0.420	0.185
-313.968	11.311	-0.238	0.238
-312.953	-153.300	-0.250	-0.022
-311.939	800.000	-0.030	-0.138
-310.924	-120.611	0.478	-0.105
-309.910	83.168	0.297	0.423
-308.895	686.522	-0.001	-0.004
-307.880	-31.223	-0.324	0.238
-306.866	-59.611	-0.269	0.150
-305.851	118.193	0.165	-0.267
-304.837	-54.306	0.300	-0.177
-303.822	247.471	-0.040	-0.088
-302.807	-189.600	-0.072	-0.001
-301.793	-200.000	-0.015	-0.285
-300.778	-66.026	0.169	0.088
-299.764	-200.000	-0.008	0.535
-298.749	13.828	0.302	0.306
-297.735	-101.178	-0.475	0.151
-296.720	-85.744	-0.279	0.112
-295.705	800.000	0.069	-0.383
-294.691	800.000	-0.074	-0.289
-293.676	-200.000	-0.043	-0.315
-292.662	-80.244	0.404	0.176
-291.647	-112.114	0.243	0.063
-290.632	299.080	-0.140	-0.337
-289.618	-200.000	-0.044	-0.340
-288.603	98.984	0.056	0.085
-287.589	-160.955	0.202	0.014
-286.574	3.673	0.310	-0.295
-285.559	-137.182	-0.285	0.042
-284.545	800.000	0.052	-0.199
-283.530	-200.000	-0.003	0.437
-282.516	-70.359	-0.353	0.174
-281.501	323.783	-0.057	0.143
-280.486	-82.246	0.367	-0.155
-279.472	-200.000	0.016	-0.314
-278.457	-200.000	-0.009	0.140
-277.443	-121.127	-0.144	0.031
-276.428	77.536	0.200	0.277
-275.413	-20.125	0.154	-0.124
-274.399	37.365	0.631	-0.729
-273.384	-63.180	0.104	0.056
-272.370	538.637	-0.121	0.376
-271.355	-182.687	0.318	0.007
-270.340	42.622	-0.189	0.225
-269.326	-161.382	-0.297	0.020
-268.311	800.000	-0.043	0.159
-267.297	-95.620	-0.298	0.103
-266.282	-179.655	-0.134	0.004
-265.267	-121.181	0.222	-0.048
-264.253	283.643	-0.237	-0.558
-263.238	72.614	-0.107	-0.146
-262.224	-30.207	-0.615	0.454
-261.209	92.165	-0.109	-0.160
-260.195	-200.000	-0.051	-0.306
-259.180	-70.871	0.203	-0.099
-258.165	800.000	-0.086	0.457
-257.151	145.550	-0.219	0.383
-256.136	-80.731	-0.142	0.061
-255.122	-140.319	0.401	-0.054
-254.107	-200.000	-0.003	0.221
-253.092	434.104	0.052	0.148
-252.078	-200.000	-0.015	0.094
-251.063	-111.329	0.196	0.052
-250.049	-95.155	-0.052	-0.018
-249.034	139.632	-0.352	0.605
-248.019	215.266	0.290	0.602
-247.005	-200.000	-0.005	0.136
-245.990	800.000	0.064	-0.251
-244.976	126.945	0.264	0.436
-243.961	129.775	0.147	0.245
-242.946	-200.000	0.006	-0.347
-241.932	307.876	-0.025	0.062
-240.917	782.748	-0.144	-0.517
-239.903	-200.000	-0.001	0.256
-238.888	36.710	-0.118	-0.135
-237.873	-51.294	-0.308	-0.187
-236.859	33.476	0.128	0.145
-235.844	-200.000	-0.000	0.047
-234.830	-142.352	0.276	-0.035
-233.815	800.000	-0.056	0.272
-232.800	-48.633	0.039	0.025
-231.786	240.006	-0.091	-0.199
-230.771	-89.482	-0.418	0.159
-229.757	-58.472	0.290	0.163
-228.742	26.674	0.376	0.409
-227.727	327.871	-0.123	-0.309
-226.713	175.321	-0.184	0.348
-225.698	159.137	-0.042	0.077
-224.684	-200.000	0.021	-0.229
-223.669	-200.000	0.049	-0.436
-222.655	-32.821	-0.571	0.412
-221.640	-200.000	0.018	-0.300
-220.625	-92.457	-0.331	0.121
-219.611	800.000	-0.032	0.159
-218.596	-16.823	-0.333	-0.273
-217.582	-62.237	0.165	-0.089
-216.567	-111.933	-0.294	-0.077
-215.552	-200.000	-0.012	-0.145
-214.538	-178.429	0.099	0.003
-213.523	-200.000	-0.028	0.352
-212.509	-122.076	0.415	0.088
-211.494	800.000	-0.164	0.636
-210.479	122.986	-0.118	0.193
-209.465	-78.779	0.157	-0.069
-208.450	-151.751	0.171	-0.016
-207.436	-8.576	-0.285	0.249
-206.421	-200.000	0.036	-0.340
-205.406	800.000	-0.028	0.121
-204.392	210.359	-0.113	-0.231
-203.377	35.739	0.132	-0.150
-202.363	176.023	-0.141	-0.268
-201.348	800.000	0.054	0.237
-200.333	201.941	-0.194	-0.391
-199.319	-84.421	0.629	-0.257
-198.304	90.753	-0.219	0.320
-197.290	-86.237	0.280	-0.112
-196.275	-200.000	0.577	-0.003
-195.260	800.000	0.149	0.709
-194.246	67.216	0.090	-0.119
-193.231	-36.066	-0.164	-0.115
-192.217	800.000	0.025	0.089
-191.202	-196.028	0.121	0.001
-190.187	800.000	0.069	0.273
-189.173	190.700	-0.090	-0.176
-188.158	-27.965	0.096	0.072
-187.144	-200.000	-0.027	0.193
-186.129	-200.000	-0.044	0.425
-185.114	-54.746	-0.348	0.204
-184.100	-104.370	-0.307	-0.092
-183.085	88.454	0.291	0.420
-182.071	-200.000	0.019	-0.564
-181.056	53.210	0.131	0.163
-180.042	-199.801	0.306	0.002
-179.027	-109.362	0.258	0.070
-178.012	605.333	-0.034	-0.110
-176.998	-158.747	-0.414	0.030
-175.983	-200.000	0.018	-0.471
-174.969	219.446	0.263	-0.548
-173.954	159.676	0.163	-0.296
-172.939	-145.325	-0.056	0.007
-171.925	232.617	0.108	-0.232
-170.910	-32.873	-0.309	-0.223
-169.896	-58.866	0.224	-0.125
-168.881	-7.817	-0.140	-0.123
-167.866	319.109	-0.217	-0.537
-166.852	800.000	-0.057	0.250
-165.837	5.560	0.170	0.163
-164.823	-103.201	0.310	0.094
-163.808	800.000	-0.023	-0.114
-162.793	-200.000	-0.016	-0.519
-161.779	-200.000	0.012	0.218
-160.764	249.605	0.141	-0.312
-159.750	271.972	-0.185	0.426
-158.735	800.000	0.045	-0.233
-157.720	-8.369	0.242	0.211
-156.706	144.583	-0.334	0.581
-155.691	452.077	-0.183	-0.528
-154.677	800.000	-0.023	-0.096
-153.662	10.191	-0.261	-0.257
-152.647	146.228	0.021	0.036
-151.633	-101.910	0.250	0.078
-150.618	-56.595	0.260	0.149
-149.604	60.157	-0.258	-0.331
-148.589	800.000	-0.098	-0.559
-147.574	-73.250	-0.112	0.053
-146.560	-73.882	-0.483	0.227
-145.545	83.603	0.055	-0.078
-144.531	-144.907	0.095	-0.011
-143.516	-129.772	0.557	-0.099
-142.502	-80.191	0.288	0.125
-141.487	-53.750	-0.081	0.048
-140.472	231.150	-0.171	-0.364
-139.458	249.475	-0.128	0.282
-138.443	-37.614	-0.417	0.288
-137.429	-111.606	-0.169	0.044
-136.414	-180.584	0.424	-0.011
-135.399	-50.360	0.371	-0.226
-134.385	34.374	0.203	-0.229
-133.370	-102.933	0.243	0.074
-132.356	344.736	-0.047	-0.120
-131.341	-82.917	-0.226	-0.094
-130.326	800.000	0.056	-0.305
-129.312	112.530	-0.122	0.193
-128.297	-49.148	-0.019	0.012
-127.283	192.819	0.122	-0.240
-126.268	-46.832	-0.279	0.176
-125.253	297.727	-0.131	0.313
-124.239	202.112	0.073	-0.146
-123.224	-131.591	-0.306	0.052
-122.210	7.722	-0.336	-0.326
-121.195	-67.596	0.782	0.396
-120.180	59.171	-0.195	-0.248
-119.166	-53.420	-0.257	-0.152
-118.151	-20.231	-0.359	0.287
-117.137	800.000	0.068	0.312
-116.122	69.869	-0.300	0.402
-115.107	264.500	0.229	0.519
-114.093	388.018	-0.115	0.311
-113.078	-49.602	0.195	0.120
-112.064	800.000	0.074	0.406
-111.049	-98.476	-0.015	-0.005
-110.034	24.718	-0.327	-0.351
-109.020	69.225	0.085	0.113
-108.005	800.000	0.035	-0.190
-106.991	-200.000	0.016	0.246
-105.976	122.186	0.447	-0.724
-104.962	-135.428	0.501	-0.077
-103.947	3.732	-0.125	0.118
-102.932	-92.698	-0.469	0.169
-101.918	89.890	0.217	0.315
-100.903	10.451	0.673	0.664
-99.889	264.577	-0.061	-0.137
-98.874	212.001	-0.216	0.442
-97.859	105.043	-0.093	0.142
-96.845	-47.574	-0.313	-0.197
-95.830	-200.000	-0.007	0.284
-94.816	-200.000	-0.005	-0.153
-93.801	-122.169	0.622	0.131
-92.786	-161.525	0.043	-0.003
-91.772	800.000	-0.052	-0.205
-90.757	-157.438	0.261	0.020
-89.743	39.079	0.066	-0.077
-88.728	-91.943	0.411	0.150
-87.713	-103.641	-0.194	0.058
-86.699	766.445	0.114	-0.403
-85.684	84.297	0.247	0.349
-84.670	-26.207	0.354	0.269
-83.655	-47.548	0.350	0.220
-82.640	149.366	0.109	0.191
-81.626	-165.257	0.359	-0.020
-80.611	6.262	0.055	-0.053
-79.597	-142.257	-0.249	-0.032
-78.582	-135.525	-0.398	0.061
-77.567	-129.896	0.183	0.032
-76.553	-200.000	0.001	-0.137
-75.538	141.595	0.251	0.431
-74.524	399.169	-0.084	0.229
-73.509	576.283	0.067	0.214
-72.494	69.101	0.155	-0.206
-71.480	35.763	0.276	-0.314
-70.465	-84.737	0.197	0.080
-69.451	173.090	0.093	0.173
-68.436	98.936	0.024	0.036
-67.422	-158.927	-0.380	0.028
-66.407	11.176	0.069	-0.068
-65.392	615.094	0.109	-0.354
-64.378	-61.163	-0.035	0.019
-63.363	-200.000	0.072	-0.494
-62.349	-200.000	0.034	0.469
-61.334	1.247	-2.249	-2.088
-60.319	76.294	1.420	1.948
-59.305	167.726	-4.132	-7.617
-58.290	38.486	4.368	5.037
-57.276	339.462	4.026	10.191
-56.261	-200.000	24.229	320.898
-55.246	351.507	1307.686	3362.713
-54.232	52.569	2848.148	3519.368
-53.217	51.144	2661.049	3265.988
-52.203	31.507	2390.314	2656.719
-51.188	27.763	2056.397	2239.402
-50.173	24.434	1943.754	2077.763
-49.159	23.260	1931.779	2051.223
-48.144	22.767	1927.482	2040.850
-47.130	22.766	1925.101	2038.240
-46.115	22.637	1923.723	2035.194
-45.100	22.659	1921.886	2033.431
-44.086	22.652	1920.983	2032.313
-43.071	22.691	1918.226	2029.772
-42.057	22.597	1917.480	2027.813
-41.042	22.561	1916.255	2026.015
-40.027	22.585	1914.556	2024.419
-39.013	22.675	1912.935	2023.666
-37.998	22.647	1912.069	2022.338
-36.984	22.739	1910.806	2021.981
-35.969	22.610	1909.262	2018.787
-34.954	22.641	1907.983	2017.707
-33.940	22.667	1905.873	2015.701
-32.925	22.585	1904.750	2013.487
-31.911	22.639	1903.984	2013.222
-30.896	22.639	1902.188	2011.243
-29.881	22.592	1901.590	2009.994
-28.867	22.547	1900.187	2007.911
-27.852	22.546	1898.749	2006.305
-26.838	22.445	1897.456	2003.702
-25.823	22.559	1895.245	2002.587
-24.809	22.612	1893.668	2001.447
-23.794	22.512	1892.751	1999.254
-22.779	22.529	1892.536	1999.141
-21.765	22.505	1890.628	1996.776
-20.750	22.505	1889.456	1995.455
-19.736	22.375	1888.863	1993.274
-18.721	22.455	1887.294	1992.446
-17.706	22.401	1887.033	1991.482
-16.692	22.432	1884.808	1989.402
-15.677	22.532	1883.914	1989.523
-14.663	22.439	1882.219	1986.596
-13.648	22.347	1881.382	1984.586
-12.633	22.405	1879.520	1983.206
-11.619	22.432	1878.617	1982.474
-10.604	22.304	1878.128	1980.439
-9.590	22.394	1876.677	1979.839
-8.575	22.450	1875.234	1978.873
-7.560	22.339	1874.143	1976.396
-6.546	22.379	1872.780	1975.333
-5.531	22.339	1871.718	1973.676
-4.517	22.421	1870.347	1973.075
-3.502	22.431	1869.180	1971.885
-2.487	22.372	1868.386	1970.295
-1.473	22.527	1864.811	1968.191
-0.458	22.250	1846.570	1945.787
0.556	18.927	1993.252	2048.341
1.571	17.426	2196.529	2237.135
2.586	18.175	2235.796	2286.936
3.600	18.260	2238.841	2290.916
4.615	18.150	2238.161	2288.462
5.629	18.132	2236.860	2286.625
6.644	18.123	2234.206	2283.515
7.659	18.125	2232.578	2281.605
8.673	18.288	2230.262	2281.143
9.688	18.091	2238.495	2286.649
10.702	17.153	2320.119	2356.657
11.717	15.416	2384.072	2396.426
12.731	7.100	2364.938	2258.065
13.746	0.941	2348.556	2154.253
14.761	0.183	2345.371	2140.243
15.775	-0.018	2345.004	2136.782
16.790	0.002	2342.539	2134.566
17.804	0.131	2340.709	2134.477
18.819	0.092	2339.673	2132.732
19.834	0.094	2337.725	2130.719
20.848	0.056	2336.514	2128.828
21.863	-0.046	2335.394	2126.095
22.877	-0.034	2333.601	2124.385
23.892	0.031	2331.097	2122.767
24.907	0.033	2328.677	2120.345
25.921	-0.077	2327.835	2117.768
26.936	0.026	2324.449	2115.892
27.950	-0.009	2321.584	2112.537
28.965	0.061	2319.754	2111.594
29.980	0.098	2318.727	2110.935
30.994	0.064	2316.933	2108.573
32.009	3.746	2327.498	2169.975
33.023	12.510	2352.948	2318.074
34.038	16.153	2358.715	2375.130
35.053	16.142	2355.285	2371.229
36.067	15.963	2352.585	2365.706
37.082	16.002	2350.705	2364.075
38.096	16.159	2348.814	2364.109
39.111	16.478	2346.861	2366.347
40.126	16.705	2344.771	2367.145
41.140	16.777	2343.717	2366.815
42.155	16.752	2342.059	2364.508
43.169	16.739	2340.498	2362.457
44.184	16.524	2336.594	2355.229
45.199	16.404	2335.147	2351.810
46.213	16.591	2333.433	2352.419
47.228	16.762	2332.794	2353.873
48.242	16.745	2331.154	2351.713
49.257	16.858	2328.882	2350.711
50.271	16.928	2326.361	2348.858
51.286	16.634	2323.393	2341.484
52.301	16.434	2321.620	2336.650
53.315	17.237	2325.814	2351.765
54.330	20.032	2333.198	2397.896
55.344	21.903	2333.011	2423.418
56.359	22.038	2330.317	2422.197
57.374	22.194	2330.646	2424.406
58.388	22.410	2327.740	2424.092
59.403	22.144	2323.227	2415.422
60.417	21.791	2320.163	2407.083
61.432	21.879	2318.217	2405.989
62.447	22.172	2317.315	2408.801
63.461	22.175	2317.028	2408.248
64.476	22.409	2314.006	2408.041
65.490	22.109	2311.836	2401.372
66.505	21.143	2308.972	2384.847
67.520	19.040	2300.453	2346.962
68.534	16.930	2291.995	2309.197
69.549	16.433	2286.699	2296.799
70.563	16.359	2284.282	2293.087
71.578	16.260	2283.499	2290.673
72.593	16.403	2281.172	2290.017
73.607	16.486	2280.216	2289.913
74.622	16.496	2277.931	2287.488
75.636	16.438	2274.946	2283.420
76.651	16.335	2273.035	2279.839
77.666	16.267	2270.614	2276.217
78.680	16.223	2267.838	2272.557
79.695	16.064	2265.457	2267.748
80.709	15.935	2264.501	2264.781
81.724	15.785	2262.817	2260.797
82.739	15.988	2259.323	2259.777
83.753	16.053	2257.707	2258.759
84.768	15.974	2255.767	2255.487
85.782	15.935	2254.374	2253.305
86.797	15.793	2252.602	2249.352
87.812	15.839	2249.981	2247.078
88.826	15.954	2249.386	2247.758
89.841	16.078	2246.605	2246.378
90.855	16.017	2244.489	2243.180
91.870	16.119	2243.245	2243.032
92.884	16.114	2241.048	2240.497
93.899	16.198	2240.979	2241.279
94.914	16.922	2243.877	2253.583
95.928	19.380	2251.721	2294.097
96.943	20.384	2248.684	2304.135
97.957	17.746	2238.652	2258.509
98.972	16.152	2231.872	2230.217
99.987	15.959	2228.313	2223.842
101.001	15.854	2227.008	2220.883
102.016	15.960	2223.613	2218.636
103.030	15.991	2220.949	2216.115
104.045	15.927	2219.843	2213.904
105.060	15.895	2217.675	2211.049
106.074	15.841	2216.287	2208.690
107.089	15.931	2214.600	2207.932
108.103	15.940	2213.860	2207.050
109.118	16.051	2212.487	2206.881
110.133	16.146	2210.582	2205.956
111.147	15.978	2208.345	2201.263
112.162	15.975	2206.938	2199.557
113.176	16.191	2204.991	2200.183
114.191	16.287	2203.798	2199.985
115.206	16.307	2201.660	2197.849
116.220	16.206	2199.487	2194.099
117.235	16.308	2197.038	2192.725
118.249	16.284	2195.879	2190.991
119.264	16.238	2194.182	2188.440
120.279	16.104	2192.055	2184.310
121.293	16.297	2190.899	2185.411
122.308	16.257	2190.344	2184.064
123.322	16.282	2187.176	2180.981
124.337	16.757	2189.765	2189.466
125.352	19.413	2197.420	2231.446
126.366	19.993	2196.043	2237.308
127.381	17.365	2185.075	2191.877
128.395	16.260	2179.796	2172.024
129.410	16.221	2176.546	2168.033
130.424	15.981	2175.109	2163.240
131.439	16.141	2174.057	2163.995
132.454	16.352	2171.289	2163.700
133.468	16.424	2170.376	2163.456
134.483	16.456	2169.345	2162.583
135.497	16.468	2168.271	2161.404
136.512	16.408	2165.228	2157.351
137.527	16.324	2162.952	2153.741
138.541	16.012	2162.048	2148.589
139.556	16.121	2160.662	2148.352
140.570	16.117	2158.518	2145.913
141.585	15.908	2156.689	2141.159
142.600	15.979	2155.737	2140.869
143.614	15.880	2154.679	2138.302
144.629	15.901	2151.727	2135.377
145.643	15.774	2150.367	2132.158
146.658	15.884	2147.810	2130.765
147.673	15.725	2146.133	2126.831
148.687	15.859	2145.228	2127.378
149.702	15.955	2144.693	2127.807
150.716	15.935	2144.105	2126.714
151.731	16.042	2142.807	2126.529
152.746	16.159	2141.427	2126.397
153.760	16.831	2144.811	2138.025
154.775	19.574	2152.505	2180.294
155.789	20.533	2149.952	2189.596
156.804	17.847	2138.686	2143.985
157.819	16.251	2131.452	2116.380
158.833	15.922	2129.291	2109.831
159.848	15.823	2127.587	2106.656
160.862	16.094	2125.916	2108.154
161.877	16.172	2124.879	2107.849
162.892	16.267	2123.826	2107.745
163.906	16.345	2122.435	2107.090
164.921	16.332	2120.319	2104.578
165.935	16.139	2118.784	2100.387
166.950	16.264	2117.256	2100.182
167.964	16.259	2115.114	2097.736
168.979	16.084	2112.177	2092.390
169.994	15.953	2110.624	2088.977
171.008	16.094	2109.024	2088.894
172.023	15.980	2107.353	2085.574
173.037	16.041	2106.556	2085.286
174.052	16.162	2105.989	2085.980
175.067	16.093	2103.362	2082.273
176.081	16.015	2101.501	2079.219
177.096	16.039	2101.468	2079.236
178.110	16.203	2099.393	2078.965
179.125	16.233	2098.808	2078.507
180.140	16.249	2096.639	2076.302
181.154	16.198	2095.656	2074.453
182.169	16.441	2094.881	2076.442
183.183	17.259	2097.814	2089.214
184.198	20.193	2105.423	2132.863
185.213	20.646	2102.442	2135.175
186.227	17.642	2092.895	2088.278
187.242	16.495	2088.089	2069.134
188.256	16.257	2086.376	2064.262
189.271	16.004	2084.421	2058.974
190.286	16.081	2081.970	2057.248
191.300	16.096	2079.971	2055.217
192.315	16.139	2078.454	2053.999
193.329	16.199	2078.166	2054.197
194.344	16.624	2075.849	2056.853
195.359	16.624	2075.049	2055.812
196.373	16.302	2073.197	2049.808
197.388	16.285	2069.575	2045.770
198.402	16.066	2068.471	2041.774
199.417	15.983	2065.681	2037.765
200.432	16.194	2063.953	2038.383
201.446	16.157	2062.997	2036.739
202.461	16.040	2061.557	2033.663
203.475	15.943	2059.818	2030.528
204.490	16.029	2057.112	2028.654
205.504	16.140	2055.208	2027.875
206.519	16.113	2054.091	2026.206
207.534	16.030	2053.009	2023.894
208.548	16.080	2051.632	2022.900
209.563	16.165	2050.087	2022.158
210.577	16.208	2049.375	2021.729
211.592	16.226	2049.257	2021.583
212.607	17.598	2053.811	2042.382
213.621	21.032	2060.810	2090.545
214.636	20.307	2054.746	2075.429
215.650	17.132	2045.369	2027.658
216.665	16.447	2040.375	2014.266
217.680	16.354	2039.053	2011.607
218.694	16.207	2036.888	2007.469
219.709	16.009	2036.203	2004.190
220.723	16.168	2034.919	2004.587
221.738	16.273	2033.831	2004.528
222.753	16.367	2031.714	2003.321
223.767	16.401	2029.650	2001.454
224.782	16.399	2027.160	1998.738
225.796	16.162	2026.297	1994.826
226.811	16.190	2025.265	1993.899
227.826	16.108	2023.624	1991.072
228.840	16.204	2021.658	1990.044
229.855	16.211	2020.073	1988.326
230.869	16.170	2018.826	1986.379
231.884	16.201	2017.150	1984.849
232.899	16.002	2016.082	1981.211
233.913	16.117	2014.606	1980.883
234.928	16.198	2012.979	1980.004
235.942	16.067	2011.222	1976.495
236.957	15.992	2009.694	1973.870
237.972	16.185	2008.967	1975.197
238.986	15.998	2007.721	1971.532
240.001	16.015	2005.645	1969.458
241.015	16.131	2005.222	1970.173
242.030	17.029	2008.078	1983.291
243.045	19.824	2013.850	2021.642
244.059	20.046	2010.020	2020.149
245.074	17.344	2000.929	1979.204
246.088	16.367	1997.130	1963.799
247.103	16.545	1995.884	1964.416
248.117	16.469	1993.785	1961.230
249.132	16.215	1992.177	1956.462
250.147	16.117	1989.509	1952.457
251.161	16.126	1987.810	1950.666
252.176	16.448	1988.317	1954.678
253.190	16.644	1986.074	1954.510
254.205	16.835	1984.163	1954.607
255.220	16.751	1982.930	1952.183
256.234	16.580	1981.762	1948.826
257.249	16.346	1980.696	1944.832
258.263	16.259	1978.826	1941.766
259.278	16.308	1978.190	1941.467
260.293	16.321	1975.804	1939.046
261.307	15.911	1972.807	1931.145
262.322	15.996	1971.903	1931.005
263.336	16.007	1969.918	1928.959
264.351	15.820	1968.298	1924.993
265.366	15.880	1966.754	1923.944
266.380	15.989	1966.646	1924.859
267.395	15.886	1965.575	1922.393
268.409	15.940	1963.592	1920.852
269.424	16.050	1961.761	1920.083
270.439	16.137	1960.410	1919.525
271.453	17.184	1964.172	1934.978
272.468	20.157	1969.859	1974.430
273.482	20.296	1965.589	1971.508
274.497	17.458	1955.604	1928.970
275.512	16.206	1952.025	1910.962
276.526	16.106	1949.248	1906.876
277.541	16.102	1947.299	1904.692
278.555	15.918	1946.033	1901.147
279.570	15.771	1943.172	1896.449
280.585	15.986	1941.966	1897.481
281.599	16.133	1941.209	1898.178
282.614	16.206	1940.926	1898.499
283.628	16.556	1940.064	1901.389
284.643	16.686	1939.843	1902.407
285.657	16.871	1938.515	1902.966
286.672	16.955	1937.248	1902.443
287.687	16.703	1935.537	1897.703
288.701	16.660	1934.057	1895.541
289.716	16.672	1932.606	1894.025
290.730	16.678	1931.099	1892.388
291.745	16.648	1930.429	1891.172
292.760	16.802	1928.987	1891.251
293.774	16.589	1928.363	1888.025
294.789	16.543	1925.776	1884.755
295.803	16.256	1923.415	1879.007
296.818	16.230	1921.992	1877.105
297.833	16.301	1921.825	1877.504
298.847	16.211	1921.090	1875.554
299.862	16.306	1918.745	1874.110
300.876	17.056	1920.811	1884.265
301.891	20.166	1927.541	1925.410
302.906	20.574	1923.764	1925.960
303.920	17.487	1915.571	1883.253
304.935	16.518	1911.011	1867.783
305.949	16.455	1907.955	1863.873
306.964	16.274	1906.918	1860.639
307.979	16.445	1905.772	1861.190
308.993	16.630	1905.406	1862.652
310.008	16.959	1903.851	1864.548
311.022	16.980	1902.755	1863.486
312.037	16.700	1900.872	1858.323
313.052	16.727	1898.936	1856.508
314.066	16.860	1897.806	1856.648
315.081	16.856	1896.906	1855.501
316.095	16.650	1896.346	1852.460
317.110	16.543	1893.913	1848.694
318.125	16.423	1891.353	1844.655
319.139	16.475	1889.734	1843.425
320.154	16.468	1888.974	1842.381
321.168	16.520	1886.874	1840.689
322.183	16.224	1885.353	1835.741
323.197	16.132	1884.378	1833.569
324.212	15.960	1881.963	1829.119
325.227	15.766	1881.069	1825.919
326.241	15.865	1878.507	1824.298
327.256	16.015	1877.036	1824.279
328.270	15.920	1876.503	1822.506
329.285	16.005	1876.179	1822.900
330.300	17.062	1881.167	1839.045
331.314	20.414	1886.940	1881.022
332.329	20.227	1881.587	1873.432
333.343	17.119	1872.225	1830.261
334.358	16.090	1868.095	1814.884
335.373	15.985	1866.232	1811.721
336.387	15.834	1863.350	1807.078
337.402	15.777	1862.900	1805.807
338.416	15.881	1861.915	1805.751
339.431	15.915	1861.075	1805.088
340.446	15.931	1859.917	1803.923
341.460	16.146	1858.575	1804.715
342.475	16.495	1856.985	1806.709
343.489	16.598	1856.113	1806.749
344.504	16.519	1855.272	1804.868
345.519	16.691	1853.549	1804.815
346.533	16.877	1852.653	1805.722
347.548	16.934	1851.361	1804.857
348.562	16.704	1849.883	1800.743
349.577	16.782	1848.947	1800.445
350.592	16.943	1848.697	1801.707
351.606	17.122	1847.199	1801.940
352.621	17.160	1844.427	1799.424
353.635	16.813	1843.105	1794.233
354.650	16.640	1841.425	1790.543
355.665	16.525	1839.175	1786.909
356.679	16.240	1838.481	1782.997
357.694	16.125	1837.062	1780.192
358.708	16.246	1835.883	1780.122
359.723	17.614	1839.474	1797.901
360.738	20.662	1844.519	1834.984
361.752	19.950	1838.781	1821.536
362.767	17.264	1831.399	1785.672
363.781	16.486	1827.899	1773.850
364.796	16.272	1826.918	1770.428
365.810	16.104	1826.149	1767.698
366.825	16.201	1824.192	1766.619
367.840	16.614	1824.195	1770.749
368.854	16.533	1823.571	1769.085
369.869	16.466	1821.220	1765.889
370.883	16.346	1819.553	1762.798
371.898	16.211	1818.671	1760.314
372.913	16.230	1817.231	1758.915
373.927	16.250	1816.313	1758.028
374.942	16.349	1815.238	1757.806
375.956	16.410	1813.967	1757.003
376.971	16.426	1811.269	1754.349
377.986	16.263	1809.671	1750.893
379.000	16.295	1807.075	1748.505
380.015	16.272	1806.483	1747.476
381.029	16.129	1804.719	1744.078
382.044	15.892	1802.282	1739.058
383.059	15.906	1801.193	1737.940
384.073	15.875	1800.504	1736.749
385.088	15.959	1799.836	1736.767
386.102	15.880	1797.449	1733.435
387.117	15.902	1795.436	1731.514
388.132	15.987	1794.952	1731.721
389.146	17.174	1800.314	1748.977
390.161	20.456	1805.855	1788.161
391.175	20.107	1798.099	1776.675
392.190	17.120	1788.722	1736.538
393.205	16.237	1786.141	1724.759
394.219	16.178	1784.215	1722.079
395.234	16.042	1783.651	1719.937
396.248	16.096	1781.861	1718.560
397.263	16.068	1778.345	1714.678
398.278	15.997	1777.524	1712.958
399.292	15.992	1776.388	1711.603
400.307	16.189	1775.608	1712.656
401.321	16.262	1775.135	1712.744
402.336	16.307	1773.900	1711.800
403.350	16.339	1772.309	1710.390
404.365	16.580	1770.599	1710.981
405.380	16.798	1770.627	1713.016
406.394	16.908	1770.109	1713.432
407.409	16.632	1769.381	1709.716
408.423	16.907	1767.572	1710.554
409.438	16.900	1765.454	1708.227
410.453	16.746	1765.095	1706.120
411.467	16.817	1764.300	1705.862
412.482	16.626	1762.085	1701.589
413.496	16.435	1760.424	1697.855
414.511	16.353	1758.224	1694.702
415.526	16.377	1755.566	1692.178
416.540	16.279	1754.508	1689.968
417.555	16.417	1753.386	1690.071
418.569	16.556	1754.152	1692.005
419.584	16.589	1754.722	1692.685
420.599	16.585	1753.717	1691.478
421.613	16.343	1751.697	1686.892
422.628	16.398	1749.796	1685.415
423.642	16.195	1748.852	1682.273
424.657	16.133	1747.498	1680.148
425.672	16.357	1745.815	1680.560
426.686	16.444	1744.131	1679.610
427.701	16.290	1742.875	1676.663
428.715	16.461	1741.847	1677.184
429.730	16.677	1740.998	1678.316
430.745	16.662	1740.643	1677.623
431.759	16.810	1739.706	1677.993
432.774	17.262	1740.345	1682.909
433.788	17.763	1740.722	1688.052
434.803	18.132	1740.069	1690.893
435.818	17.921	1738.738	1687.299
436.832	17.729	1738.031	1684.500
437.847	16.762	1730.932	1667.856
438.861	9.126	1711.105	1573.579
439.876	1.599	1697.115	1486.792
440.890	0.269	1693.801	1470.664
441.905	0.091	1692.696	1467.785
442.920	0.202	1691.226	1467.416
443.934	-0.003	1689.902	1464.087
444.949	0.044	1688.881	1463.492
445.963	0.129	1687.593	1463.023
446.978	0.084	1687.405	1462.250
447.993	0.164	1685.701	1461.382
449.007	0.137	1683.147	1458.729
450.022	0.231	1681.502	1458.044
451.036	0.103	1679.931	1455.258
452.051	1.020	1684.729	1468.180
453.066	8.365	1701.055	1554.281
454.080	15.982	1711.874	1638.706
455.095	17.651	1715.107	1657.941
456.109	17.907	1714.850	1659.998
457.124	18.218	1713.318	1661.354
458.139	18.136	1713.425	1660.453
459.153	18.247	1711.934	1659.893
460.168	18.411	1710.309	1659.713
461.182	18.181	1709.073	1656.084
462.197	18.223	1706.709	1653.995
463.212	18.162	1705.284	1651.825
464.226	18.104	1703.988	1649.812
465.241	18.291	1703.064	1650.533
466.255	18.341	1702.046	1649.834
467.270	18.433	1701.211	1649.714
468.285	18.141	1699.363	1644.903
469.299	18.145	1698.369	1643.786
470.314	18.182	1696.411	1642.050
471.328	18.106	1695.492	1640.227
472.343	18.228	1694.429	1640.184
473.358	18.322	1692.807	1639.323
474.372	18.210	1691.862	1637.133
475.387	18.132	1690.936	1635.293
476.401	18.184	1689.000	1633.717
477.416	18.056	1687.668	1631.006
478.430	18.176	1686.544	1630.881
479.445	18.018	1685.366	1628.032
480.460	18.028	1683.905	1626.515
481.474	18.147	1682.922	1626.511
482.489	18.238	1682.262	1626.550
483.503	18.333	1680.286	1625.355
484.518	18.332	1679.039	1623.942
485.533	18.364	1677.728	1622.786
486.547	18.443	1676.260	1621.917
487.562	18.527	1675.352	1621.643
488.576	18.411	1674.411	1619.437
489.591	18.372	1673.087	1617.592
490.606	18.416	1671.183	1615.979
491.620	18.479	1669.321	1614.584
492.635	18.514	1668.118	1613.557
493.649	18.681	1667.017	1613.871
494.664	18.319	1665.282	1608.585
495.679	18.032	1663.765	1604.222
496.693	18.151	1662.720	1604.138
497.708	18.156	1662.306	1603.592
498.722	18.487	1661.766	1606.003
499.737	18.511	1659.941	1604.269
500.752	18.344	1658.152	1600.780
501.766	18.232	1656.953	1598.380
502.781	18.400	1655.012	1597.890
503.795	18.484	1653.356	1596.887
504.810	18.486	1652.599	1595.986
505.825	18.462	1652.022	1595.012
506.839	18.487	1651.060	1594.128
507.854	18.442	1649.533	1592.041
508.868	18.567	1647.766	1591.315
509.883	18.526	1646.523	1589.539
510.898	18.616	1645.738	1589.430
511.912	18.557	1644.181	1587.182
512.927	18.476	1642.012	1584.148
513.941	18.461	1640.468	1582.327
514.956	18.293	1640.126	1580.256
515.971	18.303	1638.628	1578.712
516.985	18.170	1638.427	1577.095
518.000	18.344	1637.544	1577.672
519.014	18.747	1635.794	1579.520
520.029	18.709	1634.825	1578.042
521.043	18.629	1633.996	1576.316
522.058	18.512	1632.835	1573.926
523.073	18.763	1631.306	1574.583
524.087	18.770	1630.960	1574.122
525.102	18.850	1629.143	1572.917
526.116	18.481	1627.396	1567.648
527.131	18.461	1626.381	1566.299
528.146	18.749	1626.095	1568.481
529.160	18.734	1624.654	1566.765
530.175	18.824	1623.597	1566.386
531.189	18.835	1622.670	1565.408
532.204	18.816	1621.372	1563.788
533.219	18.729	1619.261	1560.774
534.233	18.504	1618.773	1558.063
535.248	18.643	1618.183	1558.575
536.262	18.964	1616.887	1560.069
537.277	18.781	1615.907	1557.264
538.292	18.509	1614.775	1553.516
539.306	18.729	1612.116	1552.773
540.321	18.643	1611.178	1550.902
541.335	18.521	1610.219	1548.681
542.350	18.548	1608.522	1547.113
543.365	18.757	1606.964	1547.318
544.379	18.722	1605.995	1545.885
545.394	18.733	1604.969	1544.812
546.408	18.845	1602.672	1543.431
547.423	18.512	1601.270	1538.892
548.438	18.504	1600.231	1537.629
549.452	18.545	1599.569	1537.180
550.467	18.733	1598.070	1537.251
551.481	18.711	1597.465	1536.284
552.496	18.759	1597.210	1536.289
553.511	19.003	1595.774	1536.914
554.525	18.961	1594.898	1535.509
555.540	18.958	1594.449	1534.871
556.554	19.065	1592.747	1534.000
557.569	18.907	1591.451	1531.158
558.583	18.787	1589.391	1527.920
559.598	18.723	1588.732	1526.533
560.613	18.846	1587.630	1526.392
561.627	18.785	1586.550	1524.626
562.642	18.950	1584.903	1524.328
563.656	19.119	1583.721	1524.510
564.671	19.104	1582.752	1523.261
565.686	19.055	1581.629	1521.565
566.700	18.953	1579.551	1518.477
567.715	18.892	1577.489	1515.772
568.729	18.707	1576.191	1512.706
569.744	18.490	1574.888	1509.355
570.759	18.577	1573.753	1508.852
571.773	18.630	1572.953	1508.373
572.788	18.778	1571.520	1508.125
573.802	18.769	1570.728	1507.108
574.817	18.966	1569.982	1507.946
575.832	19.038	1569.149	1507.605
576.846	19.003	1568.072	1506.083
577.861	18.894	1565.785	1502.743
578.875	19.100	1565.844	1504.435
579.890	19.191	1564.390	1503.653
580.905	19.167	1563.573	1502.479
581.919	19.240	1562.764	1502.164
582.934	19.265	1562.295	1501.744
583.948	19.269	1561.096	1500.451
584.963	19.242	1559.012	1498.033
585.978	19.008	1557.444	1494.300
586.992	19.141	1556.892	1494.754
588.007	19.171	1556.912	1494.860
589.021	18.933	1554.742	1490.519
590.036	18.849	1552.842	1487.791
591.051	18.804	1551.995	1486.413
592.065	18.997	1550.417	1486.399
593.080	19.182	1549.123	1486.586
594.094	19.163	1547.461	1484.646
595.109	18.937	1545.827	1480.946
596.123	18.780	1543.876	1477.541
597.138	18.975	1543.908	1479.083
598.153	19.136	1542.371	1478.818
599.167	19.166	1541.277	1477.851
600.182	19.203	1540.416	1477.167
601.196	19.087	1539.699	1475.309
602.211	19.259	1538.814	1475.764
603.226	19.343	1537.011	1474.578
604.240	19.408	1535.457	1473.474
605.255	19.546	1534.743	1473.796
606.269	19.419	1534.364	1472.164
607.284	19.233	1533.260	1469.330
608.299	19.448	1530.777	1468.617
609.313	19.350	1529.660	1466.533
610.328	19.279	1528.904	1465.025
611.342	19.316	1527.690	1464.003
612.357	19.363	1527.380	1463.932
613.372	19.407	1526.211	1463.011
614.386	19.320	1524.778	1460.718
615.401	19.395	1524.043	1460.477
616.415	19.380	1523.443	1459.603
617.430	19.343	1523.082	1458.769
618.445	19.456	1521.009	1457.570
619.459	19.341	1519.889	1455.340
620.474	19.109	1518.806	1452.164
621.488	18.960	1516.414	1448.446
622.503	18.764	1514.809	1445.082
623.518	19.007	1514.712	1446.866
624.532	19.288	1513.875	1448.269
625.547	19.386	1513.267	1448.340
626.561	19.435	1513.876	1449.167
627.576	19.591	1511.758	1448.281
628.591	19.152	1509.693	1442.432
629.605	18.933	1508.452	1439.231
630.620	18.888	1506.615	1436.924
631.634	18.863	1505.078	1435.082
632.649	18.975	1504.564	1435.356
633.663	19.027	1504.237	1435.307
634.678	19.311	1502.656	1436.012
635.693	19.511	1501.387	1436.300
636.707	19.609	1500.349	1435.953
637.722	19.715	1499.364	1435.724
638.736	19.665	1499.262	1435.038
639.751	19.740	1497.135	1433.450
640.766	19.770	1495.708	1432.166
641.780	19.710	1494.687	1430.514
642.795	19.546	1494.137	1428.452
643.809	19.706	1493.391	1428.901
644.824	19.669	1492.666	1427.723
645.839	19.505	1491.663	1425.237
646.853	19.506	1489.979	1423.463
647.868	19.669	1488.624	1423.353
648.882	19.651	1486.710	1421.201
649.897	19.558	1485.459	1419.066
650.912	19.515	1484.905	1418.015
651.926	19.500	1483.656	1416.527
652.941	19.438	1482.181	1414.439
653.955	19.292	1479.968	1410.953
654.970	19.049	1477.722	1406.644
655.985	19.052	1476.604	1405.439
656.999	19.042	1475.681	1404.314
658.014	19.281	1474.981	1405.440
659.028	19.254	1474.375	1404.470
660.043	19.497	1473.488	1405.448
661.058	19.581	1472.265	1404.800
662.072	19.692	1470.880	1404.211
663.087	19.505	1469.769	1401.461
664.101	19.590	1468.910	1401.170
665.116	19.670	1467.641	1400.437
666.131	19.752	1466.940	1400.274
667.145	19.653	1465.948	1398.354
668.160	19.720	1465.446	1398.246
669.174	19.901	1464.015	1398.183
670.189	19.870	1462.679	1396.490
671.204	19.728	1462.513	1395.011
672.218	19.663	1461.631	1393.480
673.233	19.970	1459.872	1394.119
674.247	20.000	1458.882	1393.251
675.262	20.048	1458.093	1392.718
676.276	19.990	1456.983	1391.026
677.291	19.717	1456.397	1388.095
678.306	19.681	1454.336	1385.672
679.320	19.681	1452.762	1384.011
680.335	19.940	1453.116	1386.265
681.349	19.890	1452.999	1385.586
682.364	19.855	1451.050	1383.278
683.379	19.883	1449.617	1381.971
684.393	19.779	1448.078	1379.502
685.408	19.947	1447.187	1379.836
686.422	19.813	1446.648	1378.082
687.437	19.858	1445.537	1377.218
688.452	20.089	1444.702	1378.108
689.466	20.004	1442.988	1375.629
690.481	19.744	1441.810	1372.265
691.495	19.564	1440.969	1369.870
692.510	19.211	1438.379	1364.432
693.525	18.921	1436.842	1360.506
694.539	19.117	1436.906	1361.959
695.554	19.581	1436.911	1365.494
696.568	20.113	1435.806	1368.498
697.583	20.062	1435.506	1367.648
698.598	19.966	1434.235	1365.512
699.612	20.221	1432.825	1366.028
700.627	20.146	1432.335	1364.798
701.641	19.952	1431.330	1362.144
702.656	20.006	1429.737	1360.890
703.671	20.066	1429.972	1361.430
704.685	20.154	1428.865	1360.903
705.700	20.108	1427.092	1358.691
706.714	20.012	1425.984	1356.720
707.729	19.897	1423.389	1353.184
708.744	19.843	1422.382	1351.641
709.758	19.764	1421.625	1350.136
710.773	19.520	1420.269	1346.772
711.787	19.481	1418.363	1344.502
712.802	19.477	1417.286	1343.286
713.816	19.681	1417.334	1344.769
714.831	19.836	1416.554	1345.077
715.846	20.069	1415.162	1345.412
716.860	20.094	1413.854	1344.201
717.875	19.959	1413.595	1342.742
718.889	19.906	1412.454	1341.086
719.904	20.094	1411.242	1341.240
720.919	20.016	1410.465	1339.737
721.933	20.159	1409.164	1339.445
722.948	20.137	1409.191	1339.140
723.962	20.130	1407.685	1337.499
724.977	20.352	1406.054	1337.510
725.992	20.218	1404.908	1335.219
727.006	19.995	1404.244	1332.704
728.021	20.188	1402.879	1332.737
729.035	20.291	1401.545	1332.111
730.050	20.185	1400.475	1330.114
731.065	20.147	1399.545	1328.782
732.079	20.274	1398.618	1328.715
733.094	20.178	1397.301	1326.569
734.108	20.123	1395.676	1324.443
735.123	20.308	1393.714	1323.848
736.138	20.156	1393.100	1321.940
737.152	20.143	1393.065	1321.645
738.167	20.266	1391.596	1321.034
739.181	20.262	1390.712	1320.007
740.196	20.285	1390.304	1319.636
741.211	20.337	1389.069	1318.709
742.225	20.136	1389.124	1317.065
743.240	20.352	1386.550	1316.116
744.254	20.272	1384.638	1313.528
745.269	20.300	1384.293	1313.264
746.284	20.186	1383.326	1311.319
747.298	20.023	1382.345	1308.996
748.313	19.618	1381.630	1305.089
749.327	19.581	1379.461	1302.597
750.342	19.255	1378.517	1299.085
751.356	19.141	1377.163	1296.789
752.371	19.137	1376.583	1296.057
753.386	19.823	1376.068	1300.602
754.400	20.098	1375.974	1302.436
755.415	20.424	1374.743	1303.577
756.429	20.357	1373.360	1301.599
757.444	20.377	1371.745	1300.069
758.459	20.353	1371.462	1299.466
759.473	20.393	1370.837	1299.012
760.488	20.490	1369.644	1298.455
761.502	20.611	1367.918	1297.575
762.517	20.289	1366.974	1294.111
763.532	20.190	1365.830	1292.130
764.546	20.071	1364.392	1289.726
765.561	19.830	1363.132	1286.581
766.575	19.474	1361.484	1282.208
767.590	19.663	1360.250	1282.303
768.605	19.669	1359.648	1281.627
769.619	20.078	1358.409	1283.354
770.634	20.205	1357.812	1283.581
771.648	20.276	1357.867	1284.002
772.663	20.315	1357.499	1283.791
773.678	20.431	1356.397	1283.458
774.692	20.262	1355.481	1281.181
775.707	20.435	1354.814	1281.682
776.721	20.451	1353.805	1280.695
777.736	20.529	1352.326	1279.720
778.751	20.561	1351.895	1279.396
779.765	20.413	1350.331	1276.671
780.780	20.364	1349.880	1275.725
781.794	20.329	1348.934	1274.424
782.809	20.316	1347.383	1272.707
783.824	20.247	1345.916	1270.664
784.838	19.863	1344.058	1265.932
785.853	19.491	1342.518	1261.599
786.867	19.713	1342.322	1262.892
787.882	19.690	1342.717	1262.948
788.897	19.904	1342.286	1263.962
789.911	20.006	1341.625	1263.937
790.926	20.308	1339.850	1264.319
791.940	20.252	1338.145	1262.152
792.955	20.268	1337.359	1261.376
793.969	20.373	1335.771	1260.493
794.984	20.540	1334.933	1260.774
795.999	20.558	1334.348	1260.196
797.013	20.654	1332.617	1259.111
798.028	20.563	1331.599	1257.336
799.042	20.491	1331.357	1256.432
800.057	20.648	1329.489	1255.664
801.072	20.688	1327.973	1254.370
802.086	20.633	1327.075	1252.974
803.101	20.621	1326.383	1252.081
804.115	20.721	1325.299	1251.635
805.130	20.654	1324.221	1249.983
806.145	20.535	1323.390	1248.184
807.159	20.579	1322.038	1247.082
808.174	20.408	1320.766	1244.496
809.188	20.353	1319.149	1242.429
810.203	20.114	1317.842	1239.335
811.218	19.909	1316.262	1236.225
812.232	19.773	1314.810	1233.740
813.247	19.710	1313.517	1231.926
814.261	20.050	1313.025	1233.751
815.276	20.406	1312.263	1235.438
816.291	20.465	1312.035	1235.492
817.305	20.632	1311.261	1235.815
818.320	20.610	1310.035	1234.351
819.334	20.716	1309.046	1234.026
820.349	20.603	1307.640	1231.751
821.364	20.740	1305.998	1231.032
822.378	20.620	1304.504	1228.623
823.393	20.660	1302.930	1227.277
824.407	20.704	1301.958	1226.527
825.422	20.487	1302.080	1224.953
826.437	20.452	1301.221	1223.752
827.451	20.097	1298.852	1218.870
828.466	19.845	1296.275	1214.526
829.480	19.730	1294.683	1212.080
830.495	19.734	1293.832	1211.165
831.509	19.971	1293.728	1212.594
832.524	20.366	1292.684	1214.246
833.539	20.481	1292.079	1214.339
834.553	20.626	1290.573	1213.794
835.568	20.847	1289.220	1213.925
836.582	20.689	1288.593	1212.087
837.597	20.829	1286.936	1211.364
838.612	20.684	1285.437	1208.794
839.626	20.540	1284.228	1206.508
840.641	20.486	1283.207	1205.030
841.655	20.120	1282.508	1201.678
842.670	19.950	1280.952	1198.894
843.685	19.646	1279.901	1195.650
844.699	20.037	1278.983	1197.365
845.714	20.149	1279.044	1198.056
846.728	20.266	1278.022	1197.766
847.743	20.651	1276.261	1198.642
848.758	20.616	1275.494	1197.537
849.772	20.743	1273.814	1196.693
850.787	20.615	1272.710	1194.628
851.801	20.639	1272.068	1194.049
852.816	20.420	1271.196	1191.578
853.831	20.580	1269.153	1190.619
854.845	20.552	1267.468	1188.704
855.860	20.463	1265.513	1186.120
856.874	20.348	1264.253	1184.006
857.889	20.084	1263.126	1181.004
858.904	19.905	1261.129	1177.766
859.918	19.623	1259.292	1173.985
860.933	19.387	1258.997	1171.960
861.947	19.585	1258.521	1172.726
862.962	20.081	1257.395	1174.922
863.977	20.071	1256.410	1173.793
864.991	20.374	1255.343	1174.716
866.006	20.564	1254.682	1175.247
867.020	20.609	1253.691	1174.483
868.035	20.692	1252.884	1174.153
869.049	20.678	1252.248	1173.319
870.064	20.908	1250.637	1173.227
871.079	20.720	1250.538	1171.719
872.093	20.615	1250.354	1170.696
873.108	20.484	1249.434	1168.811
874.122	20.456	1247.396	1166.574
875.137	20.130	1246.765	1163.646
876.152	20.186	1245.177	1162.400
877.166	20.203	1244.199	1161.460
878.181	20.280	1243.133	1160.846
879.195	20.565	1242.544	1162.074
880.210	20.639	1241.710	1161.653
881.225	20.703	1241.086	1161.355
882.239	20.662	1240.121	1160.039
883.254	20.786	1238.979	1159.666
884.268	20.862	1237.572	1158.717
885.283	20.833	1236.490	1157.373
886.298	20.667	1234.929	1154.660
887.312	20.864	1233.948	1154.923
888.327	20.761	1233.064	1153.266
889.341	20.777	1232.263	1152.491
890.356	20.656	1231.632	1150.953
891.371	20.634	1231.697	1150.733
892.385	20.469	1230.091	1148.000
893.400	20.562	1228.625	1147.108
894.414	20.351	1227.566	1144.584
895.429	19.966	1225.887	1140.337
896.444	19.640	1223.558	1135.875
897.458	19.378	1222.419	1132.957
898.473	19.468	1222.508	1133.498
899.487	19.991	1222.436	1136.748
900.502	20.215	1221.817	1137.508
901.517	20.419	1219.745	1136.787
902.531	20.578	1218.799	1136.811
903.546	20.596	1218.842	1136.839
904.560	20.596	1218.351	1136.244
905.575	20.870	1217.294	1136.919
906.589	20.699	1216.336	1134.769
907.604	20.788	1215.205	1134.162
