DTS Sentinel unit serial number:	SN409020Multiplexer serial number:	ORYXHardware model number:	OX4-SRSoftware version number:	ORYX F/W v3.00 Oryx Data Collector v3.7.2.0data status	okinstallation	HaddamTimeLapsedifferential loss correction	single-endedforward channel	channel 3reverse channel	N/Adate	2011/06/21time	19:06:18forward acquisition time	30.00reverse acquisition time	0.00gamma	498.7831k internal	0.1804k external	0.1804temperature offset calibration	1.0074default loss term (dB/km)	0.3790temperature slope calibration	1.3530multiplexer offset coefficient	1.0000multiplexer slope coefficient	1.0000fibre end	0.00T internal ref (°C)	34.78T ext. ref 1 (°C)	26.39T ext. ref 2 (°C)	0.23length (m)	temperature (°C)	Stokes	anti-Stokes-747.200	-71.172	-0.191	-0.092
-746.185	9.607	-0.192	0.188
-745.171	276.268	-0.106	-0.243
-744.156	328.740	0.173	0.429
-743.142	-114.526	0.201	-0.049
-742.127	171.725	-0.189	0.351
-741.112	-200.000	0.007	-0.086
-740.098	-78.232	-0.200	-0.088
-739.083	307.132	0.048	-0.117
-738.069	-105.272	0.543	-0.159
-737.054	-150.024	-0.531	0.053
-736.039	205.163	0.217	0.436
-735.025	172.335	0.074	-0.137
-734.010	-162.020	-0.760	-0.049
-732.996	19.766	0.199	-0.206
-731.981	-50.680	-0.205	-0.124
-730.966	-92.451	-0.029	-0.010
-729.952	800.000	0.083	-0.380
-728.937	82.752	-0.186	0.261
-727.923	-71.627	0.277	-0.133
-726.908	11.314	-0.356	0.351
-725.894	-107.484	0.089	-0.025
-724.879	800.000	-0.051	-0.230
-723.864	-98.821	0.171	0.056
-722.850	138.483	0.208	0.352
-721.835	-1.155	-0.255	-0.232
-720.821	-200.000	-0.036	0.236
-719.806	20.728	-0.349	0.364
-718.791	800.000	0.045	0.166
-717.777	252.928	0.054	-0.120
-716.762	0.477	0.354	0.326
-715.748	-98.548	0.249	-0.081
-714.733	-95.651	-0.499	-0.171
-713.718	-141.178	-0.328	0.043
-712.704	-57.326	0.172	-0.097
-711.689	-200.000	-0.063	-0.588
-710.675	-57.584	-0.340	-0.191
-709.660	-200.000	0.006	-0.119
-708.645	-4.601	-0.365	-0.324
-707.631	800.000	-0.063	-0.325
-706.616	-200.000	-0.004	0.134
-705.602	-140.544	0.066	0.009
-704.587	44.620	-0.104	0.123
-703.572	-49.774	-0.415	0.253
-702.558	-82.932	-0.500	0.207
-701.543	175.792	0.056	0.104
-700.529	-166.526	-0.111	-0.006
-699.514	269.355	0.122	0.276
-698.499	-94.610	-0.225	-0.078
-697.485	14.025	0.190	-0.190
-696.470	-116.343	-0.294	0.070
-695.456	-163.515	-0.391	0.023
-694.441	503.811	0.108	0.324
-693.426	-36.403	-0.323	0.223
-692.412	246.126	0.103	0.223
-691.397	-37.186	-0.182	0.125
-690.383	83.700	-0.227	0.319
-689.368	10.208	0.277	0.271
-688.354	5.214	0.720	-0.682
-687.339	179.363	-0.215	-0.406
-686.324	733.651	0.034	-0.116
-685.310	111.460	-0.330	0.513
-684.295	341.804	0.027	0.069
-683.281	-113.591	0.346	0.086
-682.266	-136.500	-0.304	-0.045
-681.251	583.750	-0.075	0.239
-680.237	248.885	0.103	-0.224
-679.222	144.054	0.031	-0.054
-678.208	0.369	0.048	0.044
-677.193	-54.146	0.543	0.317
-676.178	-166.505	0.151	-0.008
-675.164	333.174	0.080	0.201
-674.149	800.000	-0.088	-0.405
-673.135	-139.656	-0.543	0.074
-672.120	-35.673	-0.472	0.328
-671.105	-29.026	0.269	0.198
-670.091	-200.000	0.009	-0.298
-669.076	140.022	0.265	-0.451
-668.062	127.065	-0.451	0.736
-667.047	-200.000	0.067	0.391
-666.032	-105.150	-0.292	0.085
-665.018	67.904	0.327	0.431
-664.003	-87.667	0.406	0.157
-662.989	98.040	0.128	-0.190
-661.974	-200.000	-0.010	0.335
-660.959	-143.376	-0.338	-0.041
-659.945	41.257	-0.413	-0.480
-658.930	72.622	0.124	0.166
-657.916	-152.263	-0.236	-0.022
-656.901	-200.000	-0.069	-0.417
-655.886	528.871	0.181	-0.552
-654.872	-50.391	0.064	0.039
-653.857	-80.364	-0.230	-0.098
-652.843	-135.696	-0.326	0.049
-651.828	-101.810	-0.316	-0.098
-650.814	-84.281	-0.372	-0.151
-649.799	800.000	-0.025	0.100
-648.784	-200.000	-0.019	0.141
-647.770	323.504	-0.138	-0.340
-646.755	-49.529	-0.310	-0.189
-645.741	-70.730	0.329	-0.159
-644.726	-35.946	0.373	-0.259
-643.711	-160.991	0.603	0.040
-642.697	-93.120	0.541	-0.192
-641.682	-49.233	0.297	0.182
-640.668	17.789	0.306	-0.313
-639.653	-51.741	-0.366	0.218
-638.638	21.055	-0.129	0.135
-637.624	516.519	0.111	-0.334
-636.609	131.468	0.334	-0.552
-635.595	53.574	-0.343	0.422
-634.580	92.553	0.116	-0.168
-633.565	521.421	0.154	-0.466
-632.551	-200.000	0.024	0.297
-631.536	-114.602	-0.119	-0.029
-630.522	-99.728	0.677	-0.216
-629.507	260.396	0.112	0.250
-628.492	-172.496	0.220	-0.009
-627.478	10.983	0.159	0.155
-626.463	690.954	0.072	-0.243
-625.449	-200.000	0.037	0.256
-624.434	-200.000	-0.008	-0.252
-623.419	68.494	-0.133	-0.175
-622.405	-110.724	-0.710	0.187
-621.390	-139.476	-0.209	-0.028
-620.376	82.023	-0.077	-0.107
-619.361	41.535	0.057	0.066
-618.346	6.258	0.321	0.306
-617.332	41.683	-0.086	-0.100
-616.317	33.875	-0.350	-0.391
-615.303	-52.325	0.224	0.133
-614.288	-105.519	0.227	-0.066
-613.273	800.000	0.047	-0.208
-612.259	-148.559	-0.138	0.014
-611.244	-113.656	-0.243	0.060
-610.230	28.699	0.119	0.129
-609.215	306.001	-0.120	0.287
-608.201	49.625	0.204	-0.247
-607.186	277.632	-0.129	-0.296
-606.171	157.953	-0.026	0.047
-605.157	-37.675	0.322	0.219
-604.142	-200.000	-0.013	-0.439
-603.128	-19.761	0.191	0.151
-602.113	-2.863	-0.392	0.350
-601.098	141.544	-0.329	0.560
-600.084	-200.000	-0.006	0.165
-599.069	100.110	0.101	0.150
-598.055	85.130	0.241	0.339
-597.040	-42.141	-0.154	0.101
-596.025	-23.356	0.287	0.221
-595.011	-200.000	-0.069	-0.408
-593.996	13.916	0.169	-0.168
-592.982	14.802	0.271	-0.271
-591.967	328.646	0.069	0.170
-590.952	800.000	0.081	-0.323
-589.938	83.257	0.274	0.382
-588.923	-113.126	-0.541	-0.136
-587.909	800.000	0.078	0.332
-586.894	-79.309	-0.088	0.038
-585.879	-102.551	-0.283	-0.086
-584.865	645.920	0.026	-0.086
-583.850	-200.000	0.023	-0.365
-582.836	-107.016	-0.275	0.077
-581.821	-3.714	-0.165	-0.146
-580.806	433.619	-0.138	-0.385
-579.792	12.137	-0.107	0.106
-578.777	-200.000	-0.344	0.001
-577.763	136.592	-0.295	-0.494
-576.748	283.051	0.110	-0.253
-575.733	-186.161	-0.417	-0.008
-574.719	-131.078	0.675	-0.114
-573.704	-116.095	0.179	0.042
-572.690	133.189	0.132	0.219
-571.675	800.000	-0.149	-0.663
-570.661	34.426	-0.134	0.149
-569.646	191.551	-0.329	-0.637
-568.631	241.665	-0.191	-0.411
-567.617	-108.066	0.231	-0.064
-566.602	-200.000	-0.015	-0.182
-565.588	-168.494	-0.039	-0.002
-564.573	-91.144	0.174	0.063
-563.558	-100.791	0.275	0.086
-562.544	-199.685	0.533	-0.003
-561.529	362.402	-0.064	0.164
-560.515	495.384	0.010	-0.029
-559.500	239.562	-0.162	-0.347
-558.485	-108.227	0.047	-0.013
-557.471	111.072	0.067	0.103
-556.456	406.825	-0.107	0.292
-555.442	21.700	0.242	-0.252
-554.427	-95.776	-0.300	-0.102
-553.412	-72.616	0.179	-0.084
-552.398	-50.830	-0.182	-0.109
-551.383	-63.963	-0.632	-0.329
-550.369	-91.652	-0.032	0.011
-549.354	47.506	0.259	-0.309
-548.339	-84.050	0.516	-0.209
-547.325	-92.366	-0.311	0.111
-546.310	-39.182	0.185	0.124
-545.296	127.002	0.313	-0.508
-544.281	-48.479	-0.145	-0.089
-543.266	266.123	-0.090	0.202
-542.252	38.132	-0.527	0.601
-541.237	-132.193	0.526	-0.086
-540.223	382.527	-0.016	0.043
-539.208	800.000	-0.064	0.262
-538.193	-75.841	-0.197	0.089
-537.179	-167.058	-0.082	0.004
-536.164	-130.779	-0.408	0.069
-535.150	-127.182	-0.150	-0.028
-534.135	165.752	0.073	-0.132
-533.121	31.966	0.196	-0.216
-532.106	-200.000	0.104	0.617
-531.091	-82.513	-0.510	0.211
-530.077	-70.196	-0.155	-0.075
-529.062	800.000	-0.111	-0.454
-528.048	249.073	-0.109	-0.238
-527.033	-111.648	-0.267	0.069
-526.018	-200.000	0.006	0.037
-525.004	-99.608	-0.222	-0.071
-523.989	-3.387	-0.362	-0.322
-522.975	-198.017	-0.254	-0.002
-521.960	-200.000	0.022	0.193
-520.945	-55.457	-0.306	0.175
-519.931	-169.931	0.178	-0.008
-518.916	288.896	0.145	-0.337
-517.902	-159.609	-0.563	-0.039
-516.887	-200.000	-0.001	-0.355
-515.872	-82.270	0.064	-0.027
-514.858	-98.767	-0.181	-0.058
-513.843	800.000	0.080	-0.297
-512.829	-131.238	0.121	0.020
-511.814	-200.000	0.006	-0.049
-510.799	-200.000	-0.050	0.448
-509.785	800.000	-0.078	0.335
-508.770	-87.821	-0.462	-0.177
-507.756	65.603	0.100	-0.129
-506.741	111.085	-0.244	-0.376
-505.726	-101.885	-0.294	0.090
-504.712	-129.121	0.153	0.027
-503.697	-186.465	0.142	0.003
-502.683	800.000	-0.025	-0.142
-501.668	33.465	-0.255	-0.282
-500.653	516.164	0.173	-0.520
-499.639	-6.973	-0.524	-0.454
-498.624	-66.321	-0.233	0.118
-497.610	-99.923	-0.529	-0.168
-496.595	118.012	0.197	-0.311
-495.581	-25.808	-0.070	0.052
-494.566	30.639	-0.167	0.182
-493.551	541.937	0.078	0.238
-492.537	-119.577	0.384	0.084
-491.522	-160.620	-0.202	0.014
-490.508	-13.413	-0.362	-0.299
-489.493	3.009	0.269	-0.250
-488.478	37.364	0.245	0.277
-487.464	-130.026	-0.469	0.081
-486.449	-72.212	0.271	0.128
-485.435	-74.243	0.284	0.130
-484.420	419.986	-0.072	0.198
-483.405	-65.727	0.119	0.061
-482.391	-122.996	0.235	-0.048
-481.376	-30.967	-0.199	-0.143
-480.362	-101.137	0.466	-0.145
-479.347	-156.242	0.160	-0.013
-478.332	2.458	-0.357	-0.329
-477.318	-200.000	0.018	0.231
-476.303	-160.361	-0.310	0.021
-475.289	-4.016	0.247	-0.219
-474.274	202.482	0.154	0.305
-473.259	-76.895	0.298	0.132
-472.245	88.639	0.102	-0.145
-471.230	-56.211	-0.283	-0.160
-470.216	-91.598	-0.327	0.118
-469.201	-200.000	0.035	-0.822
-468.186	-40.873	0.180	-0.118
-467.172	292.056	-0.195	0.455
-466.157	43.133	-0.088	0.102
-465.143	-108.373	0.235	0.064
-464.128	-200.000	0.003	-0.137
-463.113	-200.000	-0.014	-0.298
-462.099	472.806	-0.155	0.447
-461.084	17.871	0.132	-0.135
-460.070	-80.774	0.429	0.181
-459.055	264.840	0.079	-0.176
-458.040	-20.064	0.117	0.092
-457.026	-28.732	0.532	0.389
-456.011	-200.000	0.023	-0.296
-454.997	8.434	-0.118	-0.113
-453.982	44.013	0.261	0.305
-452.968	-25.561	-0.274	-0.206
-451.953	-77.574	0.092	-0.040
-450.938	103.572	0.122	-0.182
-449.924	-180.286	0.337	0.009
-448.909	9.495	-0.047	0.046
-447.895	54.257	0.129	0.159
-446.880	117.602	0.264	0.414
-445.865	2.771	0.318	0.294
-444.851	5.842	-0.183	0.173
-443.836	9.600	-0.191	-0.185
-442.822	-2.317	0.207	0.185
-441.807	-98.458	0.488	0.158
-440.792	-19.905	-0.276	-0.217
-439.778	-4.492	-0.221	-0.194
-438.763	124.016	-0.179	0.287
-437.749	-65.210	-0.587	0.300
-436.734	-74.242	-0.431	0.198
-435.719	177.937	-0.220	-0.410
-434.705	-14.783	-0.313	0.255
-433.690	-83.877	0.140	-0.057
-432.676	19.401	0.305	0.313
-431.661	-73.017	0.225	-0.105
-430.646	-200.000	-0.000	-0.037
-429.632	-136.137	0.331	-0.049
-428.617	33.600	0.333	-0.368
-427.603	151.473	-0.270	0.469
-426.588	-200.000	0.054	-0.314
-425.573	-33.652	-0.203	0.142
-424.559	-130.279	0.443	0.076
-423.544	255.037	0.037	0.080
-422.530	800.000	-0.041	0.230
-421.515	800.000	-0.020	-0.101
-420.500	68.950	-0.134	0.176
-419.486	-141.713	0.126	0.016
-418.471	623.014	0.109	-0.351
-417.457	-131.503	0.040	-0.007
-416.442	169.274	0.209	-0.381
-415.428	-79.236	0.238	0.102
-414.413	-108.608	-0.285	0.077
-413.398	-117.010	-0.289	0.067
-412.384	617.540	-0.102	0.328
-411.369	-129.811	-0.098	0.017
-410.355	-0.791	0.324	-0.292
-409.340	21.629	-0.146	0.151
-408.325	-21.427	0.242	0.187
-407.311	77.992	0.302	0.411
-406.296	-200.000	-0.117	-0.000
-405.282	210.505	-0.185	0.371
-404.267	-68.605	0.314	-0.154
-403.252	-128.546	0.678	0.121
-402.238	-83.857	0.281	-0.113
-401.223	101.875	-0.083	0.123
-400.209	-133.933	0.388	0.061
-399.194	-200.000	-0.030	-0.234
-398.179	-36.020	-0.324	0.222
-397.165	-101.535	-0.304	0.093
-396.150	800.000	-0.109	-0.412
-395.136	192.734	0.063	0.121
-394.121	12.695	0.188	0.185
-393.106	-171.939	0.495	-0.020
-392.092	-36.186	0.258	-0.176
-391.077	800.000	0.039	-0.151
-390.063	267.897	-0.162	-0.362
-389.048	-53.086	0.656	0.382
-388.033	-200.000	0.003	0.572
-387.019	-200.000	0.025	0.326
-386.004	-104.508	0.133	-0.039
-384.990	33.493	0.206	0.228
-383.975	-6.093	0.207	-0.179
-382.960	167.517	-0.148	0.268
-381.946	325.514	0.013	0.032
-380.931	-87.736	0.143	0.055
-379.917	-113.888	0.252	0.062
-378.902	-72.163	-0.322	0.151
-377.888	494.499	-0.130	-0.381
-376.873	-121.413	0.543	-0.114
-375.858	-53.717	-0.102	0.059
-374.844	298.396	-0.231	-0.541
-373.829	-108.774	0.070	0.019
-372.815	800.000	0.018	0.095
-371.800	102.282	0.077	-0.115
-370.785	-47.456	-0.123	-0.075
-369.771	-200.000	0.048	-0.298
-368.756	73.987	-0.263	0.351
-367.742	-49.592	0.378	0.228
-366.727	-14.287	0.217	0.177
-365.712	-200.000	0.033	-0.528
-364.698	518.536	-0.034	-0.102
-363.683	-51.741	-0.075	0.044
-362.669	-41.115	0.046	-0.030
-361.654	-148.900	0.410	0.042
-360.639	65.536	-0.129	-0.166
-359.625	64.521	-0.089	-0.114
-358.610	176.760	0.131	-0.242
-357.596	-89.950	0.430	-0.159
-356.581	-70.196	-0.549	-0.264
-355.566	-25.132	-0.415	0.312
-354.552	-113.711	-0.391	0.096
-353.537	-106.141	0.068	-0.019
-352.523	-182.800	0.518	0.012
-351.508	-160.773	0.461	-0.031
-350.493	83.551	-0.091	-0.127
-349.479	-160.675	0.397	0.026
-348.464	219.470	0.125	0.255
-347.450	-40.620	0.092	0.061
-346.435	6.716	-0.325	-0.307
-345.420	-50.468	-0.233	-0.139
-344.406	800.000	0.037	0.148
-343.391	-128.720	0.561	-0.100
-342.377	-107.557	0.151	-0.042
-341.362	83.951	-0.034	-0.047
-340.348	-138.278	-0.439	0.061
-339.333	-185.443	0.447	-0.009
-338.318	-130.015	0.270	0.046
-337.304	111.809	-0.008	-0.013
-336.289	101.682	-0.106	0.158
-335.275	238.816	0.215	-0.454
-334.260	-87.807	-0.384	-0.146
-333.245	-200.000	0.005	0.187
-332.231	43.946	-0.418	-0.486
-331.216	800.000	-0.068	-0.355
-330.202	146.277	0.153	0.261
-329.187	-99.251	-0.630	0.201
-328.172	-200.000	-0.005	0.095
-327.158	497.412	-0.125	-0.368
-326.143	-41.293	0.244	0.159
-325.129	-21.172	0.153	-0.119
-324.114	-90.897	0.266	-0.097
-323.099	140.655	-0.232	-0.389
-322.085	-77.679	-0.145	0.063
-321.070	-155.602	0.409	-0.033
-320.056	800.000	-0.125	-0.501
-319.041	529.556	0.086	-0.259
-318.026	209.461	0.281	-0.561
-317.012	-128.789	-0.170	0.030
-315.997	-15.579	0.127	0.103
-314.983	-54.774	0.546	0.312
-313.968	-87.900	0.258	0.098
-312.953	-71.086	-0.205	-0.097
-311.939	34.659	-0.113	-0.125
-310.924	-154.363	-0.563	0.047
-309.910	-136.707	-0.076	0.011
-308.895	-180.570	0.112	0.003
-307.880	-79.809	0.058	0.025
-306.866	-200.000	-0.013	0.281
-305.851	232.332	0.204	-0.426
-304.837	-19.338	-0.187	-0.147
-303.822	-91.180	0.182	-0.066
-302.807	-200.000	0.048	-0.449
-301.793	-15.511	-0.188	0.152
-300.778	183.953	0.071	-0.133
-299.764	-143.678	0.191	0.023
-298.749	-200.000	0.007	0.386
-297.735	800.000	0.066	-0.311
-296.720	211.667	-0.069	-0.139
-295.705	68.069	-0.165	-0.214
-294.691	-12.214	0.075	-0.062
-293.676	-42.389	-0.193	0.124
-292.662	44.772	-0.289	-0.337
-291.647	800.000	-0.125	0.585
-290.632	-192.516	-0.238	-0.003
-289.618	-110.704	-0.090	0.023
-288.603	-54.206	-0.268	-0.154
-287.589	-12.412	-0.221	-0.182
-286.574	47.501	0.147	0.174
-285.559	-85.941	0.246	0.096
-284.545	-14.718	0.443	0.360
-283.530	-200.000	0.101	0.665
-282.516	-12.592	0.350	0.289
-281.501	800.000	-0.122	-0.442
-280.486	170.795	-0.516	0.939
-279.472	-200.000	-0.032	0.188
-278.457	563.071	-0.076	0.235
-277.443	7.433	0.140	0.132
-276.428	386.743	0.050	0.132
-275.413	-29.417	0.152	-0.110
-274.399	-60.395	-0.069	-0.037
-273.384	-16.879	-0.279	0.223
-272.370	-20.309	0.483	0.376
-271.355	736.855	0.091	-0.311
-270.340	45.895	0.069	-0.081
-269.326	264.619	-0.060	-0.132
-268.311	-200.000	-0.042	0.515
-267.297	-87.245	0.151	0.058
-266.282	1.662	0.226	-0.206
-265.267	-131.586	-0.119	0.020
-264.253	-126.195	0.288	0.054
-263.238	-200.000	0.022	-0.675
-262.224	800.000	0.030	-0.120
-261.209	-118.741	-0.552	-0.122
-260.195	-200.000	0.037	-0.676
-259.180	63.826	-0.066	0.083
-258.165	683.760	-0.081	0.268
-257.151	693.640	0.009	0.031
-256.136	125.266	-0.281	-0.449
-255.122	-148.718	0.371	-0.038
-254.107	180.725	-0.098	0.182
-253.092	433.587	-0.158	-0.437
-252.078	-200.000	0.033	0.410
-251.063	137.946	0.226	0.375
-250.049	255.714	0.242	0.526
-249.034	-200.000	-0.079	0.454
-248.019	-56.988	-0.053	0.030
-247.005	-200.000	0.115	0.000
-245.990	194.961	0.051	-0.098
-244.976	-200.000	0.000	0.216
-243.961	-18.391	0.142	0.112
-242.946	6.357	0.414	0.389
-241.932	-155.935	0.364	0.029
-240.917	800.000	-0.058	-0.253
-239.903	66.237	-0.264	-0.340
-238.888	-200.000	0.045	-0.311
-237.873	-200.000	-0.045	-0.359
-236.859	23.026	0.268	0.278
-235.844	784.206	0.139	-0.486
-234.830	-79.087	-0.218	0.093
-233.815	800.000	0.067	0.293
-232.800	-149.883	-0.126	0.012
-231.786	232.052	0.134	0.278
-230.771	145.204	0.314	-0.532
-229.757	-200.000	-0.003	0.259
-228.742	-27.050	0.326	0.240
-227.727	-200.000	-0.012	0.354
-226.713	-135.507	-0.136	-0.020
-225.698	13.606	0.244	-0.239
-224.684	59.493	0.132	-0.165
-223.669	-24.583	-0.217	0.163
-222.655	286.662	0.118	-0.270
-221.640	120.213	-0.099	0.155
-220.625	-200.000	0.039	0.224
-219.611	405.726	-0.159	0.425
-218.596	113.254	-0.147	0.226
-217.582	-21.688	-0.299	-0.229
-216.567	288.938	-0.065	-0.150
-215.552	-138.965	-0.411	-0.056
-214.538	2.854	-0.362	-0.331
-213.523	27.115	-0.363	-0.385
-212.509	157.723	-0.286	0.501
-211.494	91.479	-0.104	0.148
-210.479	11.640	-0.293	0.284
-209.465	-113.549	0.285	0.070
-208.450	82.371	0.294	0.403
-207.436	-129.990	-0.403	-0.069
-206.421	-200.000	0.075	0.454
-205.406	-108.154	-0.355	-0.096
-204.392	34.554	0.241	0.266
-203.377	50.093	0.151	0.180
-202.363	-129.124	0.261	0.046
-201.348	-3.411	-0.206	-0.181
-200.333	-200.000	0.020	0.430
-199.319	113.664	-0.046	0.070
-198.304	800.000	0.103	0.515
-197.290	-14.339	0.141	0.114
-196.275	-28.062	0.035	0.025
-195.260	381.417	-0.168	-0.437
-194.246	482.484	0.036	-0.105
-193.231	800.000	-0.100	-0.391
-192.217	800.000	-0.057	-0.277
-191.202	-52.865	-0.379	0.220
-190.187	-9.326	-0.234	0.197
-189.173	164.754	-0.069	-0.124
-188.158	132.308	-0.218	0.356
-187.144	185.253	-0.268	0.503
-186.129	800.000	-0.070	-0.247
-185.114	-200.000	-0.007	0.154
-184.100	800.000	-0.036	0.161
-183.085	-160.783	0.491	0.032
-182.071	-105.183	-0.522	0.149
-181.056	24.435	-0.066	-0.068
-180.042	-44.294	0.285	0.180
-179.027	34.763	0.034	0.037
-178.012	106.344	0.163	-0.244
-176.998	-200.000	-0.031	-0.297
-175.983	-68.714	-0.338	-0.164
-174.969	39.331	-0.164	0.185
-173.954	-136.002	-0.419	0.062
-172.939	287.906	0.134	0.306
-171.925	-200.000	0.034	0.575
-170.910	-71.339	-0.376	0.177
-169.896	800.000	-0.104	0.380
-168.881	223.117	0.302	0.616
-167.866	13.715	-0.302	0.295
-166.852	-48.821	0.098	0.059
-165.837	-51.689	0.242	-0.142
-164.823	-50.545	0.254	0.150
-163.808	275.784	-0.123	0.275
-162.793	-47.335	-0.420	0.257
-161.779	259.150	-0.151	-0.330
-160.764	-14.695	0.181	0.146
-159.750	800.000	-0.051	0.183
-158.735	289.552	-0.026	-0.060
-157.720	-139.996	-0.355	-0.047
-156.706	-95.792	-0.322	0.108
-155.691	-200.000	-0.028	0.177
-154.677	-21.923	0.297	-0.227
-153.662	-31.903	-0.344	0.242
-152.647	-94.072	-0.272	0.093
-151.633	800.000	-0.093	-0.411
-150.618	800.000	0.079	-0.420
-149.604	12.138	-0.051	0.049
-148.589	159.505	-0.085	0.150
-147.574	-48.770	0.173	-0.104
-146.560	-49.486	-0.226	-0.135
-145.545	-131.157	-0.507	0.084
-144.531	-131.480	-0.652	-0.107
-143.516	158.715	0.177	-0.311
-142.502	-79.870	-0.054	-0.023
-141.487	-141.186	0.315	0.040
-140.472	184.185	0.114	-0.213
-139.458	-43.992	0.053	-0.034
-138.443	-101.318	-0.183	0.056
-137.429	366.584	-0.042	-0.106
-136.414	-93.261	0.271	0.094
-135.399	-73.559	-0.315	0.144
-134.385	800.000	0.043	-0.214
-133.370	-129.476	0.305	-0.053
-132.356	-113.646	-0.331	-0.081
-131.341	86.529	-0.313	0.435
-130.326	-166.201	0.432	-0.023
-129.312	-108.244	0.150	0.041
-128.297	24.243	-0.124	0.129
-127.283	-112.900	0.293	0.073
-126.268	17.744	-0.249	0.249
-125.253	-77.996	0.399	0.172
-124.239	-34.741	-0.218	0.149
-123.224	-121.082	-0.495	-0.103
-122.210	144.163	-0.100	0.168
-121.195	159.652	-0.133	-0.234
-120.180	-44.223	-0.400	-0.252
-119.166	-49.022	0.427	-0.257
-118.151	-82.259	0.385	-0.157
-117.137	128.107	0.197	-0.316
-116.122	-54.656	0.224	0.127
-115.107	-72.168	0.375	0.174
-114.093	-113.779	-0.263	-0.064
-113.078	-15.423	-0.305	0.245
-112.064	-200.000	-0.015	-0.120
-111.049	-9.219	0.028	0.023
-110.034	-200.000	-0.030	0.227
-109.020	-200.000	0.452	0.002
-108.005	-10.259	0.348	-0.290
-106.991	16.150	0.371	0.368
-105.976	-135.856	0.587	0.086
-104.962	84.514	0.022	-0.030
-103.947	1.246	-0.203	0.183
-102.932	-14.833	-0.098	-0.079
-101.918	128.077	-0.136	-0.218
-100.903	19.802	-0.190	-0.192
-99.889	97.275	0.134	-0.194
-98.874	-119.103	-0.231	-0.050
-97.859	-107.501	0.502	0.137
-96.845	245.410	-0.123	-0.262
-95.830	-200.000	-0.008	-0.362
-94.816	-69.552	0.386	0.185
-93.801	-178.431	0.157	0.005
-92.786	800.000	-0.131	0.510
-91.772	176.618	-0.291	0.534
-90.757	58.817	-0.108	-0.133
-89.743	-116.109	0.317	-0.074
-88.728	20.273	-0.171	-0.174
-87.713	-199.235	-0.187	0.001
-86.699	-22.277	-0.257	-0.195
-85.684	-200.000	0.086	0.660
-84.670	153.997	0.210	0.363
-83.655	-66.652	0.289	-0.143
-82.640	-80.464	0.365	0.152
-81.626	151.506	-0.113	-0.194
-80.611	262.550	-0.131	-0.288
-79.597	-92.264	-0.500	-0.176
-78.582	-150.408	0.167	0.016
-77.567	159.123	-0.228	-0.399
-76.553	226.447	-0.022	-0.045
-75.538	514.390	-0.096	0.283
-74.524	61.306	0.234	-0.292
-73.509	-70.386	-0.215	-0.102
-72.494	-179.901	-0.290	-0.008
-71.480	117.567	-0.259	-0.400
-70.465	709.506	-0.120	-0.402
-69.451	103.175	-0.088	-0.130
-68.436	83.551	-0.108	0.148
-67.422	794.923	-0.056	-0.195
-66.407	-0.263	0.034	-0.031
-65.392	-200.000	-0.001	0.131
-64.378	-200.000	-0.003	0.370
-63.363	68.228	-0.246	-0.316
-62.349	800.000	-0.078	0.289
-61.334	-5.781	-1.771	-1.521
-60.319	56.038	0.683	0.833
-59.305	221.332	-2.853	-5.771
-58.290	52.935	2.826	3.396
-57.276	378.301	4.245	10.948
-56.261	-200.000	14.748	234.449
-55.246	453.100	1181.175	3296.242
-54.232	61.210	2829.630	3530.423
-53.217	69.898	2723.677	3528.933
-52.203	53.121	2451.348	2947.167
-51.188	44.425	2100.574	2421.818
-50.173	37.280	1973.062	2193.954
-49.159	35.661	1962.691	2164.026
-48.144	35.153	1958.050	2153.090
-47.130	35.172	1955.127	2150.007
-46.115	35.095	1954.619	2148.491
-45.100	35.268	1952.748	2148.295
-44.086	35.231	1951.282	2146.185
-43.071	34.946	1951.048	2142.629
-42.057	35.036	1949.128	2141.455
-41.042	35.073	1947.290	2139.758
-40.027	35.055	1946.634	2138.758
-39.013	34.987	1944.147	2135.179
-37.998	34.974	1942.907	2133.580
-36.984	35.003	1941.243	2131.994
-35.969	34.835	1941.060	2129.829
-34.954	34.992	1938.838	2129.064
-33.940	35.016	1937.790	2128.098
-32.925	34.804	1938.025	2125.892
-31.911	34.915	1935.595	2124.386
-30.896	34.930	1934.307	2123.056
-29.881	34.894	1933.014	2121.153
-28.867	35.017	1931.231	2120.486
-27.852	34.818	1930.173	2117.014
-26.838	34.826	1928.096	2114.743
-25.823	34.791	1927.283	2113.386
-24.809	34.778	1926.064	2111.821
-23.794	34.737	1924.848	2109.942
-22.779	34.691	1923.785	2108.188
-21.765	34.773	1921.857	2106.894
-20.750	34.880	1920.169	2106.150
-19.736	34.665	1920.355	2103.885
-18.721	34.831	1918.322	2103.415
-17.706	34.657	1917.580	2100.592
-16.692	34.769	1915.782	2099.772
-15.677	34.653	1914.071	2096.541
-14.663	34.788	1912.300	2096.000
-13.648	34.705	1911.345	2093.958
-12.633	34.713	1910.658	2093.209
-11.619	34.658	1909.395	2091.141
-10.604	34.681	1907.496	2089.232
-9.590	34.693	1907.136	2088.884
-8.575	34.632	1905.674	2086.533
-7.560	34.576	1904.725	2084.787
-6.546	34.489	1904.216	2083.201
-5.531	34.617	1902.435	2082.573
-4.517	34.460	1901.356	2079.581
-3.502	34.526	1900.362	2079.143
-2.487	34.622	1898.761	2078.358
-1.473	34.609	1896.652	2075.820
-0.458	34.250	1875.843	2049.080
0.556	29.500	2008.151	2125.952
1.571	27.830	2222.771	2331.459
2.586	29.227	2270.028	2399.046
3.600	29.225	2273.111	2401.994
4.615	29.394	2271.934	2402.676
5.629	29.364	2270.025	2399.973
6.644	29.349	2267.792	2397.131
7.659	29.587	2266.150	2398.216
8.673	29.757	2264.501	2398.398
9.688	28.969	2268.341	2391.882
10.702	25.711	2339.856	2422.990
11.717	22.488	2402.642	2442.857
12.731	11.496	2376.320	2263.430
13.746	1.817	2350.322	2104.500
14.761	0.358	2344.349	2078.687
15.775	0.144	2342.504	2073.842
16.790	0.077	2341.050	2071.378
17.804	0.052	2339.468	2069.385
18.819	-0.008	2338.436	2067.397
19.834	0.040	2336.678	2066.263
20.848	0.110	2335.486	2065.924
21.863	0.136	2333.909	2064.635
22.877	0.020	2332.198	2061.274
23.892	0.112	2329.615	2060.019
24.907	0.031	2326.785	2056.152
25.921	0.132	2324.431	2055.215
26.936	0.057	2322.611	2052.326
27.950	0.027	2320.523	2049.822
28.965	0.134	2317.483	2048.357
29.980	0.082	2317.076	2047.051
30.994	0.105	2316.089	2046.246
32.009	6.012	2335.284	2144.196
33.023	19.119	2373.278	2360.581
34.038	24.746	2385.147	2449.810
35.053	25.385	2381.781	2454.849
36.067	25.313	2378.526	2450.208
37.082	25.002	2377.077	2444.164
38.096	25.097	2376.412	2444.491
39.111	25.154	2374.207	2442.702
40.126	25.174	2370.294	2438.659
41.140	25.369	2369.371	2440.084
42.155	25.380	2368.262	2438.804
43.169	25.161	2366.127	2433.316
44.184	25.264	2362.858	2431.076
45.199	25.069	2361.573	2426.802
46.213	24.983	2359.887	2423.619
47.228	24.980	2359.361	2422.744
48.242	25.128	2357.899	2422.956
49.257	25.378	2356.271	2424.387
50.271	25.620	2354.233	2425.285
51.286	25.675	2351.531	2422.955
52.301	25.216	2350.173	2415.051
53.315	25.374	2349.965	2416.689
54.330	26.381	2351.422	2431.515
55.344	27.155	2350.725	2440.959
56.359	27.403	2347.523	2440.680
57.374	27.244	2346.244	2436.918
58.388	27.210	2342.726	2432.517
59.403	26.974	2338.806	2424.995
60.417	26.810	2334.938	2418.494
61.432	27.045	2333.454	2419.816
62.447	26.996	2331.787	2417.138
63.461	27.012	2330.899	2416.140
64.476	27.028	2328.936	2414.034
65.490	27.211	2326.483	2413.640
66.505	26.724	2324.289	2404.585
67.520	25.880	2321.802	2390.478
68.534	25.567	2318.380	2382.497
69.549	25.437	2313.507	2375.476
70.563	25.281	2310.273	2369.797
71.578	25.209	2309.672	2367.952
72.593	25.473	2308.256	2369.706
73.607	25.435	2305.166	2365.754
74.622	25.398	2304.694	2364.498
75.636	25.511	2302.591	2363.552
76.651	25.504	2300.023	2360.538
77.666	25.592	2298.409	2359.764
78.680	25.387	2295.984	2354.282
79.695	25.025	2292.321	2345.488
80.709	24.499	2290.631	2336.560
81.724	24.438	2287.284	2332.062
82.739	24.797	2286.450	2335.652
83.753	25.388	2286.501	2343.175
84.768	25.402	2284.125	2340.639
85.782	25.297	2283.653	2338.499
86.797	25.466	2281.371	2338.091
87.812	25.283	2278.950	2332.948
88.826	25.373	2276.727	2331.558
89.841	25.510	2275.693	2332.013
90.855	25.671	2273.085	2331.151
91.870	25.388	2270.768	2324.823
92.884	25.329	2269.227	2322.190
93.899	25.227	2268.323	2319.665
94.914	25.248	2267.185	2318.506
95.928	25.606	2269.483	2325.220
96.943	26.019	2267.916	2328.706
97.957	25.744	2263.202	2320.023
98.972	25.403	2259.607	2311.652
99.987	25.302	2256.512	2306.906
101.001	25.132	2254.468	2302.347
102.016	25.361	2251.774	2302.261
103.030	25.248	2249.516	2298.228
104.045	24.988	2247.001	2292.034
105.060	25.174	2245.254	2292.372
106.074	25.494	2243.651	2294.565
107.089	25.120	2242.193	2288.009
108.103	24.856	2240.809	2282.936
109.118	25.100	2239.932	2284.890
110.133	25.321	2238.186	2285.675
111.147	25.413	2236.018	2284.357
112.162	25.396	2234.663	2282.483
113.176	25.565	2232.087	2281.732
114.191	25.218	2229.875	2274.779
115.206	25.057	2228.434	2270.990
116.220	25.292	2227.176	2272.423
117.235	25.283	2225.394	2270.224
118.249	25.326	2223.074	2268.119
119.264	25.412	2220.736	2266.554
120.279	25.166	2219.712	2262.128
121.293	25.073	2217.028	2257.935
122.308	25.206	2215.839	2258.141
123.322	24.947	2214.753	2253.492
124.337	24.694	2212.417	2247.641
125.352	25.483	2214.685	2259.651
126.366	26.292	2215.230	2270.164
127.381	25.974	2210.833	2261.382
128.395	25.707	2207.464	2254.298
129.410	25.469	2204.469	2247.982
130.424	25.328	2203.066	2244.506
131.439	25.549	2201.490	2245.413
132.454	25.495	2200.281	2243.228
133.468	25.689	2197.990	2243.059
134.483	25.720	2195.666	2240.806
135.497	25.527	2194.713	2237.150
136.512	25.764	2192.205	2237.282
137.527	25.844	2191.193	2236.978
138.541	25.749	2190.462	2234.785
139.556	25.749	2189.282	2233.306
140.570	25.602	2187.003	2228.888
141.585	25.334	2184.472	2222.708
142.600	25.248	2182.991	2219.869
143.614	25.135	2181.676	2216.861
144.629	25.157	2179.256	2214.407
145.643	25.044	2176.580	2210.023
146.658	24.994	2175.169	2207.702
147.673	24.839	2172.691	2203.003
148.687	24.782	2170.614	2199.938
149.702	24.933	2170.682	2201.611
150.716	25.099	2170.452	2203.155
151.731	25.569	2170.003	2208.249
152.746	25.613	2168.782	2207.279
153.760	25.369	2168.077	2203.287
154.775	25.708	2169.594	2208.754
155.789	26.141	2167.291	2211.474
156.804	25.607	2162.871	2200.130
157.819	25.017	2158.508	2188.190
158.833	25.064	2155.808	2185.765
159.848	25.176	2152.793	2183.826
160.862	25.352	2151.529	2184.426
161.877	25.608	2151.484	2187.253
162.892	25.557	2151.048	2185.931
163.906	25.568	2150.004	2184.734
164.921	25.549	2147.534	2181.734
165.935	25.292	2145.232	2176.008
166.950	25.165	2142.335	2171.260
167.964	25.373	2140.391	2171.557
168.979	25.254	2139.149	2168.596
169.994	25.210	2137.374	2165.997
171.008	25.183	2135.467	2163.474
172.023	25.040	2133.951	2159.948
173.037	25.203	2134.346	2162.072
174.052	25.355	2131.380	2160.639
175.067	25.168	2130.116	2156.847
176.081	25.198	2128.739	2155.549
177.096	25.321	2127.791	2155.824
178.110	25.460	2125.943	2155.365
179.125	25.340	2125.167	2152.876
180.140	25.384	2123.496	2151.457
181.154	25.520	2122.633	2151.963
182.169	25.603	2121.542	2151.589
183.183	25.664	2121.410	2151.936
184.198	26.330	2121.517	2159.782
185.213	26.456	2120.079	2159.581
186.227	25.870	2116.226	2148.372
187.242	25.418	2112.797	2139.232
188.256	25.191	2112.041	2135.483
189.271	25.454	2109.533	2135.839
190.286	25.193	2108.259	2131.175
191.300	24.973	2105.763	2125.774
192.315	25.223	2104.525	2127.257
193.329	25.536	2103.401	2129.583
194.344	25.598	2101.686	2128.335
195.359	25.556	2100.368	2126.247
196.373	25.564	2099.199	2124.906
197.388	25.464	2095.932	2120.153
198.402	25.281	2094.217	2116.003
199.417	25.539	2092.488	2117.059
200.432	25.548	2089.844	2114.230
201.446	25.267	2089.586	2110.395
202.461	25.256	2087.561	2107.964
203.475	25.140	2085.435	2104.201
204.490	25.114	2083.473	2101.666
205.504	25.245	2080.920	2100.381
206.519	25.164	2079.127	2097.360
207.534	25.307	2078.471	2098.131
208.548	25.486	2076.943	2098.443
209.563	25.183	2075.761	2093.439
210.577	25.462	2074.171	2094.850
211.592	25.675	2073.207	2096.123
212.607	25.575	2074.534	2096.043
213.621	25.897	2074.477	2099.511
214.636	25.881	2071.786	2096.349
215.650	25.755	2069.754	2092.563
216.665	25.833	2067.400	2090.841
217.680	25.603	2064.747	2085.232
218.694	25.395	2063.336	2081.130
219.709	25.139	2061.060	2075.612
220.723	25.167	2058.830	2073.447
221.738	25.468	2058.556	2076.415
222.753	25.722	2056.399	2076.933
223.767	25.492	2054.872	2072.477
224.782	25.374	2052.441	2068.416
225.796	25.373	2050.816	2066.519
226.811	25.568	2050.040	2067.749
227.826	25.440	2047.743	2063.707
228.840	25.305	2045.451	2059.589
229.855	25.209	2045.684	2058.468
230.869	25.396	2043.935	2058.614
231.884	25.533	2042.601	2058.606
232.899	25.616	2041.734	2058.438
233.913	25.619	2040.405	2056.890
234.928	25.524	2039.009	2054.143
235.942	25.113	2036.533	2046.685
236.957	24.929	2034.080	2041.864
237.972	25.160	2033.812	2044.005
238.986	25.138	2031.971	2041.658
240.001	24.900	2030.108	2036.819
241.015	24.935	2029.095	2035.958
242.030	25.605	2029.796	2044.069
243.045	26.206	2031.363	2052.274
244.059	26.608	2029.899	2055.131
245.074	26.194	2024.838	2045.048
246.088	25.678	2021.254	2035.328
247.103	25.606	2020.031	2033.036
248.117	25.895	2019.724	2035.756
249.132	25.721	2017.905	2031.715
250.147	25.355	2014.353	2023.746
251.161	25.188	2012.014	2019.266
252.176	25.273	2011.089	2019.059
253.190	25.185	2008.882	2015.598
254.205	25.223	2006.449	2013.353
255.220	25.097	2005.204	2010.437
256.234	24.876	2003.568	2006.074
257.249	24.944	2002.698	2005.723
258.263	25.087	2002.117	2006.515
259.278	25.165	2001.983	2007.018
260.293	25.099	2000.483	2004.525
261.307	25.340	1997.965	2004.473
262.322	25.290	1997.617	2003.325
263.336	24.885	1994.890	1995.807
264.351	24.944	1993.673	1995.010
265.366	25.153	1992.635	1996.068
266.380	25.327	1990.877	1996.015
267.395	25.027	1989.477	1991.029
268.409	25.306	1987.970	1992.389
269.424	25.343	1987.284	1991.876
270.439	25.223	1986.294	1989.309
271.453	25.760	1986.152	1994.908
272.468	26.284	1985.219	1999.566
273.482	26.088	1983.657	1995.572
274.497	25.487	1979.187	1984.173
275.512	25.390	1975.944	1979.612
276.526	25.452	1973.766	1977.878
277.541	25.166	1971.534	1972.246
278.555	25.017	1969.410	1968.238
279.570	24.958	1968.525	1966.468
280.585	25.051	1966.942	1965.669
281.599	25.128	1966.125	1965.475
282.614	25.352	1964.761	1966.333
283.628	25.275	1964.117	1964.605
284.643	24.990	1962.594	1959.719
285.657	24.726	1959.764	1953.758
286.672	24.653	1957.251	1950.222
287.687	24.447	1956.321	1946.805
288.701	24.398	1954.426	1944.141
289.716	24.173	1952.164	1939.204
290.730	23.493	1949.153	1928.548
291.745	24.130	1949.681	1935.796
292.760	24.629	1949.921	1941.256
293.774	24.823	1949.596	1942.816
294.789	25.187	1949.854	1946.811
295.803	25.299	1947.909	1945.855
296.818	25.159	1947.107	1943.304
297.833	25.549	1946.159	1946.369
298.847	25.519	1942.910	1942.561
299.862	25.156	1941.417	1936.892
300.876	25.377	1940.499	1938.140
301.891	26.355	1942.244	1950.262
302.906	26.591	1941.697	1952.043
303.920	25.803	1938.059	1939.621
304.935	25.622	1935.032	1934.404
305.949	25.563	1932.998	1931.500
306.964	25.670	1931.117	1930.547
307.979	25.145	1927.478	1921.028
308.993	23.970	1923.099	1903.797
310.008	22.766	1918.981	1886.563
311.022	22.482	1917.034	1881.377
312.037	22.554	1916.455	1881.358
313.052	22.527	1913.038	1877.486
314.066	22.244	1910.960	1872.194
315.081	22.400	1911.040	1873.723
316.095	22.517	1910.136	1873.859
317.110	22.344	1908.193	1869.885
318.125	22.064	1906.712	1865.218
319.139	22.138	1905.278	1864.381
320.154	22.418	1905.015	1866.884
321.168	22.547	1903.474	1866.523
322.183	23.684	1905.786	1880.686
323.197	25.083	1907.061	1896.611
324.212	25.334	1905.406	1897.404
325.227	25.270	1903.980	1895.069
326.241	25.292	1902.898	1894.008
327.256	25.519	1902.117	1895.401
328.270	25.170	1899.745	1889.124
329.285	25.045	1899.842	1887.670
330.300	25.337	1899.827	1890.518
331.314	26.056	1900.675	1898.744
332.329	26.119	1898.769	1897.281
333.343	25.509	1894.987	1886.842
334.358	24.957	1891.969	1877.793
335.373	25.168	1890.937	1878.766
336.387	25.443	1889.366	1879.869
337.402	25.508	1887.830	1878.804
338.416	25.460	1886.045	1876.295
339.431	25.463	1885.198	1875.261
340.446	25.408	1882.921	1872.198
341.460	24.907	1879.434	1863.258
342.475	24.140	1875.089	1850.729
343.489	22.817	1871.443	1833.103
344.504	22.456	1869.728	1827.442
345.519	22.410	1868.113	1825.162
346.533	22.291	1865.781	1821.428
347.548	22.368	1864.335	1820.597
348.562	22.507	1863.079	1820.601
349.577	22.379	1863.238	1819.205
350.592	22.730	1862.190	1821.614
351.606	22.704	1860.658	1819.625
352.621	22.414	1858.277	1814.074
353.635	22.216	1857.599	1811.145
354.650	22.796	1858.624	1817.932
355.665	24.241	1859.641	1833.667
356.679	25.032	1860.242	1842.223
357.694	25.379	1859.918	1845.266
358.708	25.471	1858.289	1844.377
359.723	25.720	1859.132	1847.558
360.738	26.420	1858.693	1854.117
361.752	26.551	1856.992	1853.547
362.767	26.273	1854.219	1847.695
363.781	25.669	1851.024	1838.094
364.796	25.418	1849.722	1834.008
365.810	25.371	1848.875	1832.465
366.825	24.830	1844.188	1822.064
367.840	23.315	1839.268	1801.509
368.854	22.356	1836.986	1789.261
369.869	22.406	1834.876	1787.506
370.883	22.402	1834.612	1786.994
371.898	22.565	1833.694	1787.549
372.913	22.577	1831.331	1785.148
373.927	22.307	1830.190	1781.080
374.942	22.487	1830.522	1783.025
375.956	23.301	1831.348	1791.890
376.971	24.007	1830.056	1797.588
377.986	24.064	1828.874	1796.785
379.000	24.083	1826.825	1794.753
380.015	24.017	1825.939	1793.000
381.029	24.707	1826.626	1800.443
382.044	25.290	1825.391	1804.911
383.059	25.289	1823.885	1803.191
384.073	25.232	1823.254	1801.778
385.088	25.373	1822.538	1802.281
386.102	25.471	1820.786	1801.312
387.117	25.090	1819.036	1795.538
388.132	25.006	1819.250	1794.682
389.146	25.463	1820.058	1799.867
390.161	26.187	1818.964	1805.847
391.175	26.271	1814.584	1802.127
392.190	25.299	1810.383	1788.014
393.205	25.299	1808.175	1785.622
394.219	25.285	1806.303	1783.413
395.234	25.118	1804.866	1780.122
396.248	25.224	1802.990	1779.111
397.263	24.994	1800.233	1773.891
398.278	24.956	1800.138	1773.203
399.292	24.926	1799.223	1771.790
400.307	24.914	1797.143	1769.417
401.321	24.652	1795.493	1764.978
402.336	24.747	1794.781	1765.013
403.350	24.516	1792.411	1760.178
404.365	24.311	1790.522	1756.085
405.380	23.854	1787.737	1748.625
406.394	22.628	1783.701	1732.363
407.409	22.329	1782.453	1727.992
408.423	22.401	1780.961	1727.057
409.438	22.367	1779.859	1725.444
410.453	22.350	1778.455	1723.704
411.467	22.599	1777.928	1725.436
412.482	22.653	1777.925	1725.758
413.496	24.278	1779.708	1743.277
414.511	25.322	1779.481	1753.095
415.526	25.192	1777.711	1749.867
416.540	25.336	1776.379	1749.754
417.555	25.400	1775.851	1749.657
418.569	25.467	1775.780	1750.028
419.584	25.447	1775.484	1749.337
420.599	25.456	1775.698	1749.418
421.613	25.894	1774.253	1752.068
422.628	25.595	1772.061	1746.776
423.642	25.161	1769.966	1740.272
424.657	24.819	1767.607	1734.413
425.672	25.176	1766.427	1736.526
426.686	25.118	1764.764	1734.117
427.701	24.637	1763.893	1728.373
428.715	24.916	1761.324	1728.363
429.730	25.145	1761.054	1730.105
430.745	25.448	1760.349	1732.150
431.759	25.662	1760.454	1734.119
432.774	25.982	1760.281	1736.840
433.788	25.094	1757.448	1725.244
434.803	24.016	1754.548	1711.776
435.818	23.725	1754.019	1708.238
436.832	23.723	1753.221	1707.239
437.847	23.252	1746.032	1695.501
438.861	14.814	1720.810	1590.424
439.876	3.114	1699.599	1459.545
440.890	0.405	1693.451	1428.317
441.905	0.188	1692.341	1425.147
442.920	0.181	1690.927	1423.722
443.934	0.112	1690.151	1422.243
444.949	0.111	1688.824	1420.946
445.963	0.126	1687.798	1420.053
446.978	0.085	1687.182	1418.980
447.993	0.112	1685.442	1417.597
449.007	-0.030	1684.090	1414.949
450.022	0.174	1681.509	1414.536
451.036	-0.035	1681.276	1412.198
452.051	1.409	1687.795	1431.186
453.066	12.230	1712.393	1555.408
454.080	22.447	1728.360	1667.471
455.095	24.828	1733.218	1694.650
456.109	26.832	1736.548	1716.800
457.124	27.659	1735.247	1723.162
458.139	27.178	1733.809	1716.963
459.153	26.877	1732.125	1712.233
460.168	26.889	1730.868	1710.901
461.182	27.050	1730.746	1712.099
462.197	27.760	1729.389	1717.273
463.212	27.621	1727.872	1714.247
464.226	27.716	1726.943	1714.022
465.241	28.030	1726.410	1716.249
466.255	28.229	1725.661	1717.174
467.270	28.254	1724.686	1716.235
468.285	28.162	1723.116	1713.597
469.299	28.282	1721.988	1713.403
470.314	28.410	1721.205	1713.618
471.328	28.648	1719.564	1714.016
472.343	28.704	1718.065	1712.838
473.358	28.686	1717.174	1711.582
474.372	28.710	1716.174	1710.600
475.387	28.742	1715.194	1709.720
476.401	28.464	1713.869	1705.602
477.416	28.199	1711.784	1700.844
478.430	28.498	1710.359	1702.013
479.445	28.339	1709.118	1699.092
480.460	28.169	1707.433	1695.632
481.474	28.213	1706.641	1695.053
482.489	28.805	1706.259	1699.973
483.503	28.831	1704.700	1698.460
484.518	28.746	1703.258	1696.029
485.533	28.816	1702.449	1695.672
486.547	28.813	1700.174	1693.176
487.562	28.870	1699.088	1692.422
488.576	29.093	1698.314	1693.511
489.591	29.102	1697.752	1692.823
490.606	29.057	1695.564	1690.033
491.620	29.064	1694.242	1688.577
492.635	29.148	1691.980	1686.893
493.649	28.823	1690.772	1682.491
494.664	28.329	1689.090	1676.075
495.679	28.096	1686.939	1671.596
496.693	28.458	1685.690	1673.487
497.708	28.737	1685.230	1675.385
498.722	28.997	1685.925	1678.256
499.737	29.136	1684.171	1677.589
500.752	29.152	1682.145	1675.513
501.766	28.873	1680.956	1671.579
502.781	29.089	1679.244	1671.649
503.795	28.996	1677.933	1669.296
504.810	28.931	1676.760	1667.338
505.825	29.162	1675.844	1668.333
506.839	28.701	1674.432	1662.533
507.854	28.660	1673.172	1660.707
508.868	28.654	1671.352	1658.644
509.883	28.496	1668.936	1654.622
510.898	28.189	1667.916	1650.629
511.912	27.704	1665.438	1643.586
512.927	27.152	1662.531	1635.524
513.941	27.198	1660.512	1633.764
514.956	27.405	1660.946	1635.865
515.971	28.024	1660.126	1640.446
516.985	27.708	1658.649	1635.945
518.000	27.483	1657.512	1632.601
519.014	27.545	1656.525	1631.984
520.029	27.565	1655.019	1630.491
521.043	27.433	1653.293	1627.406
522.058	27.495	1653.036	1627.512
523.073	27.885	1652.058	1629.853
524.087	28.314	1651.417	1632.873
525.102	28.570	1650.677	1634.241
526.116	28.455	1650.197	1632.540
527.131	28.510	1649.757	1632.403
528.146	28.927	1649.571	1635.749
529.160	29.245	1648.677	1637.507
530.175	29.480	1647.308	1638.051
531.189	29.626	1646.423	1638.278
532.204	29.558	1645.263	1636.322
533.219	29.380	1642.834	1632.124
534.233	28.983	1641.162	1626.744
535.248	28.853	1640.443	1624.676
536.262	29.164	1640.256	1627.058
537.277	29.323	1640.303	1628.326
538.292	29.319	1638.136	1625.946
539.306	29.329	1636.311	1624.028
540.321	29.225	1634.233	1620.849
541.335	28.919	1632.727	1616.460
542.350	29.270	1631.300	1617.950
543.365	29.596	1630.724	1620.060
544.379	29.756	1630.388	1620.942
545.394	29.829	1628.075	1619.093
546.408	29.133	1625.752	1610.473
547.423	28.820	1623.930	1605.725
548.438	28.691	1623.228	1603.705
549.452	29.149	1621.842	1606.159
550.467	29.048	1621.237	1604.480
551.481	29.129	1620.878	1604.647
552.496	29.365	1620.219	1605.865
553.511	29.729	1619.348	1607.992
554.525	29.740	1618.305	1606.867
555.540	29.602	1617.590	1604.753
556.554	29.669	1616.686	1604.255
557.569	29.468	1614.482	1600.121
558.583	29.122	1611.689	1594.148
559.598	29.207	1609.977	1593.007
560.613	29.133	1609.585	1591.783
561.627	29.053	1608.152	1589.486
562.642	28.866	1606.317	1585.859
563.656	28.638	1604.825	1582.220
564.671	28.397	1602.911	1578.058
565.686	28.117	1601.543	1574.098
566.700	27.862	1599.527	1569.728
567.715	27.839	1598.341	1568.175
568.729	27.905	1596.772	1567.020
569.744	28.280	1596.298	1569.597
570.759	28.388	1595.479	1569.531
571.773	28.317	1593.887	1567.170
572.788	28.367	1591.807	1565.365
573.802	28.008	1590.323	1560.640
574.817	28.163	1588.974	1560.456
575.832	28.237	1589.090	1561.019
576.846	28.807	1588.819	1565.445
577.861	29.216	1587.481	1567.440
578.875	29.344	1587.532	1568.394
579.890	29.682	1587.333	1570.897
580.905	29.737	1586.678	1570.539
581.919	29.956	1586.561	1572.104
582.934	30.041	1585.678	1571.765
583.948	30.001	1583.628	1569.198
584.963	29.832	1581.753	1565.717
585.978	29.416	1579.982	1560.240
586.992	29.264	1578.921	1557.717
588.007	29.614	1578.933	1560.517
589.021	29.029	1575.710	1552.182
590.036	28.138	1573.983	1542.744
591.051	28.884	1574.166	1549.060
592.065	29.607	1573.301	1554.141
593.080	29.789	1572.330	1554.539
594.094	29.946	1570.631	1553.993
595.109	29.457	1568.195	1547.278
596.123	29.363	1566.472	1544.604
597.138	29.738	1565.961	1547.070
598.153	29.698	1565.136	1545.732
599.167	29.431	1563.627	1541.818
600.182	29.331	1562.562	1539.741
601.196	29.526	1562.205	1540.841
602.211	29.787	1561.239	1541.886
603.226	29.795	1560.125	1540.669
604.240	29.991	1558.779	1540.798
605.255	30.094	1558.071	1540.779
606.269	30.073	1556.770	1539.129
607.284	29.889	1555.564	1536.219
608.299	29.808	1553.155	1532.979
609.313	29.586	1551.822	1529.629
610.328	29.486	1550.762	1527.575
611.342	29.618	1548.989	1526.737
612.357	29.531	1548.565	1525.413
613.372	29.585	1547.638	1524.766
614.386	29.407	1545.956	1521.452
615.401	29.326	1545.225	1519.883
616.415	29.208	1543.834	1517.353
617.430	28.961	1542.051	1513.379
618.445	28.658	1541.190	1509.848
619.459	28.521	1539.417	1506.801
620.474	28.436	1537.228	1503.773
621.488	28.435	1536.965	1503.328
622.503	28.614	1535.748	1503.434
623.518	28.578	1535.246	1502.469
624.532	28.618	1533.254	1500.663
625.547	28.621	1532.332	1499.612
626.561	28.671	1531.884	1499.396
627.576	28.755	1531.439	1499.476
628.591	28.695	1530.072	1497.461
629.605	28.898	1529.088	1497.986
630.620	29.118	1527.414	1497.966
631.634	29.241	1526.638	1498.028
632.649	29.305	1525.764	1497.515
633.663	29.360	1524.037	1496.086
634.678	29.087	1522.216	1491.900
635.693	28.937	1520.669	1488.982
636.707	28.727	1519.548	1486.004
637.722	28.935	1518.902	1486.882
638.736	29.289	1518.724	1489.401
639.751	29.884	1518.107	1493.452
640.766	29.824	1516.772	1491.470
641.780	29.661	1515.912	1489.123
642.795	29.981	1515.082	1490.725
643.809	30.067	1514.418	1490.587
644.824	30.202	1514.343	1491.421
645.839	30.210	1513.460	1490.445
646.853	30.324	1511.585	1489.339
647.868	30.165	1509.689	1486.008
648.882	29.893	1507.855	1481.837
649.897	29.628	1506.836	1478.526
650.912	29.748	1504.873	1477.388
651.926	29.977	1503.871	1478.068
652.941	29.877	1502.981	1476.211
653.955	29.460	1500.132	1469.903
654.970	28.648	1497.131	1460.290
655.985	28.362	1496.010	1456.737
656.999	28.385	1494.628	1455.405
658.014	28.639	1494.627	1457.256
659.028	29.171	1494.926	1461.619
660.043	29.684	1494.583	1465.200
661.058	29.942	1493.347	1465.859
662.072	29.877	1492.363	1464.207
663.087	29.762	1491.220	1461.995
664.101	29.570	1489.919	1459.018
665.116	29.774	1488.977	1459.536
666.131	29.841	1488.293	1459.225
667.145	30.088	1487.109	1459.850
668.160	29.942	1486.402	1457.819
669.174	29.924	1484.947	1456.077
670.189	30.084	1483.826	1456.070
671.204	30.186	1483.409	1456.291
672.218	30.206	1482.203	1455.086
673.233	30.343	1481.123	1454.933
674.247	30.332	1480.180	1453.750
675.262	30.302	1478.603	1451.786
676.276	30.188	1477.595	1449.729
677.291	30.240	1476.905	1449.287
678.306	30.092	1475.695	1446.761
679.320	29.967	1473.625	1443.584
680.335	29.761	1472.959	1441.144
681.349	29.871	1472.792	1441.669
682.364	29.971	1471.642	1441.156
683.379	29.712	1469.961	1437.312
684.393	29.587	1467.652	1433.907
685.408	29.659	1466.298	1432.977
686.422	29.537	1465.017	1430.598
687.437	29.300	1464.118	1427.706
688.452	29.106	1463.006	1424.937
689.466	28.973	1460.924	1421.711
690.481	28.840	1460.889	1420.470
691.495	28.781	1460.562	1419.528
692.510	29.347	1459.349	1422.570
693.525	29.639	1457.452	1422.812
694.539	29.360	1456.469	1419.520
695.554	29.037	1455.834	1416.236
696.568	28.979	1454.546	1414.361
697.583	28.813	1453.528	1411.921
698.598	29.222	1453.309	1414.695
699.612	29.437	1452.243	1415.145
700.627	29.517	1451.174	1414.553
701.641	29.843	1450.314	1416.054
702.656	30.172	1449.159	1417.283
703.671	30.129	1449.727	1417.344
704.685	30.327	1449.054	1418.031
705.700	30.274	1446.735	1415.191
706.714	29.920	1444.580	1410.198
707.729	29.767	1443.378	1407.687
708.744	29.875	1442.510	1407.498
709.758	29.699	1440.062	1403.596
710.773	28.889	1438.538	1395.764
711.787	28.741	1436.983	1392.966
712.802	29.437	1436.660	1397.782
713.816	29.744	1435.826	1399.140
714.831	29.718	1436.268	1399.208
715.846	29.732	1435.166	1398.072
716.860	29.979	1433.232	1397.896
717.875	29.850	1431.903	1395.455
718.889	29.755	1430.726	1393.424
719.904	29.681	1429.698	1391.696
720.919	29.847	1428.367	1391.482
721.933	29.676	1427.411	1389.099
722.948	29.693	1426.286	1387.960
723.962	29.672	1425.790	1387.152
724.977	29.906	1424.722	1387.713
725.992	29.914	1424.111	1387.010
727.006	30.175	1423.474	1388.191
728.021	30.057	1421.956	1385.660
729.035	30.154	1420.706	1385.003
730.050	30.157	1419.577	1383.760
731.065	30.081	1418.404	1381.878
732.079	30.011	1417.091	1379.912
733.094	29.982	1416.172	1378.632
734.108	30.190	1414.871	1378.759
735.123	30.063	1413.311	1376.121
736.138	29.886	1412.691	1374.037
737.152	29.899	1411.543	1372.848
738.167	30.021	1409.838	1371.936
739.181	30.143	1408.988	1371.851
740.196	30.156	1408.454	1371.263
741.211	29.980	1407.622	1368.984
742.225	29.888	1406.296	1366.843
743.240	29.675	1404.538	1363.391
744.254	29.547	1402.881	1360.671
745.269	29.283	1401.866	1357.576
746.284	29.121	1400.708	1355.091
747.298	28.998	1399.979	1353.315
748.313	29.151	1398.758	1353.105
749.327	29.340	1398.351	1353.940
750.342	29.443	1398.202	1354.393
751.356	29.635	1396.988	1354.475
752.371	29.631	1395.255	1352.603
753.386	29.298	1393.935	1348.710
754.400	29.470	1393.633	1349.519
755.415	29.851	1393.217	1351.754
756.429	30.080	1392.402	1352.481
757.444	30.275	1390.768	1352.161
758.459	30.275	1389.125	1350.407
759.473	30.018	1387.895	1347.166
760.488	29.610	1386.765	1342.930
761.502	29.570	1385.442	1341.195
762.517	29.702	1384.784	1341.362
763.532	29.925	1383.200	1341.287
764.546	29.718	1381.686	1338.153
765.561	29.060	1380.165	1331.735
766.575	28.347	1378.225	1324.525
767.590	28.310	1377.426	1323.331
768.605	29.222	1376.986	1329.366
769.619	29.433	1376.811	1330.571
770.634	29.814	1375.376	1331.782
771.648	29.673	1374.509	1329.762
772.663	29.508	1373.788	1327.716
773.678	29.710	1373.606	1328.841
774.692	30.050	1373.006	1330.557
775.707	30.030	1372.579	1329.840
776.721	29.962	1371.918	1328.549
777.736	29.936	1370.274	1326.608
778.751	29.938	1368.932	1325.168
779.765	30.073	1367.940	1325.018
780.780	29.882	1367.733	1323.283
781.794	29.985	1366.662	1322.829
782.809	29.536	1364.942	1317.789
783.824	29.045	1363.565	1312.780
784.838	29.128	1361.766	1311.481
785.853	29.272	1360.993	1311.616
786.867	29.490	1360.291	1312.340
787.882	29.300	1359.377	1309.942
788.897	29.236	1358.089	1308.090
789.911	29.001	1356.738	1304.953
790.926	28.913	1355.615	1303.091
791.940	29.282	1354.753	1304.731
792.955	29.436	1353.842	1304.791
793.969	29.291	1352.605	1302.417
794.984	29.560	1351.842	1303.437
795.999	29.669	1351.568	1303.790
797.013	29.818	1350.351	1303.511
798.028	29.912	1349.053	1302.772
799.042	29.800	1348.307	1301.098
800.057	29.894	1347.232	1300.568
801.072	29.851	1345.254	1298.202
802.086	29.947	1344.883	1298.369
803.101	29.923	1343.859	1297.051
804.115	29.861	1342.945	1295.579
805.130	29.783	1341.796	1293.765
806.145	29.665	1339.801	1290.863
807.159	29.534	1338.929	1288.946
808.174	29.572	1337.955	1288.121
809.188	29.654	1336.851	1287.479
810.203	29.416	1335.025	1283.903
811.218	29.234	1332.899	1280.430
812.232	28.710	1330.668	1274.478
813.247	28.434	1329.632	1271.412
814.261	28.969	1330.534	1275.852
815.276	29.383	1330.520	1278.571
816.291	29.439	1329.206	1277.549
817.305	29.259	1327.841	1274.831
818.320	29.463	1326.563	1274.870
819.334	29.726	1325.859	1275.865
820.349	29.765	1324.853	1275.013
821.364	29.844	1323.302	1273.917
822.378	29.822	1322.090	1272.440
823.393	29.834	1319.828	1270.199
824.407	29.606	1319.539	1268.190
825.422	29.564	1319.278	1267.503
826.437	29.398	1317.664	1264.657
827.451	29.216	1315.617	1261.284
828.466	29.161	1314.164	1259.367
829.480	29.404	1312.544	1259.327
830.495	29.339	1310.493	1256.765
831.509	29.162	1309.564	1254.513
832.524	29.217	1309.620	1254.790
833.539	29.438	1308.151	1254.746
834.553	29.713	1306.885	1255.257
835.568	29.659	1306.216	1254.096
836.582	29.614	1305.469	1252.923
837.597	29.792	1303.642	1252.231
838.612	29.514	1302.623	1249.213
839.626	29.422	1301.251	1247.122
840.641	29.237	1300.367	1244.865
841.655	28.960	1299.414	1241.931
842.670	28.519	1297.379	1236.848
843.685	27.994	1295.362	1231.222
844.699	28.621	1295.133	1235.095
845.714	29.089	1294.691	1237.695
846.728	28.931	1293.759	1235.590
847.743	29.247	1292.846	1236.696
848.758	29.280	1292.020	1235.983
849.772	29.446	1290.787	1235.771
850.787	29.367	1289.743	1234.092
851.801	29.342	1289.275	1233.334
852.816	29.516	1287.470	1232.625
853.831	29.433	1285.180	1229.730
854.845	29.249	1283.571	1226.813
855.860	29.157	1281.913	1224.467
856.874	29.076	1280.763	1222.681
857.889	29.067	1280.256	1221.992
858.904	29.223	1279.356	1222.022
859.918	29.404	1278.129	1221.912
860.933	29.481	1276.858	1221.062
861.947	29.426	1275.513	1219.261
862.962	28.902	1274.404	1214.579
863.977	28.768	1273.017	1212.224
864.991	28.925	1272.126	1212.269
866.006	28.955	1271.634	1211.853
867.020	29.013	1270.734	1211.235
868.035	29.405	1269.449	1212.454
869.049	29.431	1268.995	1212.045
870.064	29.538	1268.522	1212.159
871.079	29.484	1267.460	1210.645
872.093	29.190	1266.133	1207.293
873.108	29.115	1265.004	1205.578
874.122	29.028	1263.459	1203.389
875.137	28.559	1262.851	1199.584
876.152	28.674	1261.541	1198.953
877.166	28.634	1259.639	1196.741
878.181	28.854	1258.097	1196.571
879.195	28.900	1258.928	1197.517
880.210	29.135	1257.945	1197.976
881.225	29.410	1256.765	1198.504
882.239	29.325	1256.239	1197.304
883.254	29.526	1254.584	1196.894
884.268	29.455	1253.990	1195.724
885.283	29.193	1253.417	1193.329
886.298	29.361	1251.609	1192.556
887.312	29.319	1250.404	1190.994
888.327	29.234	1249.887	1189.809
889.341	29.392	1248.042	1188.933
890.356	28.994	1247.900	1186.076
891.371	28.826	1247.635	1184.590
892.385	29.129	1245.953	1184.812
893.400	28.696	1245.427	1181.369
894.414	28.803	1243.453	1180.049
895.429	28.944	1241.849	1179.297
896.444	29.149	1241.135	1179.793
897.458	29.338	1240.310	1180.086
898.473	29.272	1239.257	1178.521
899.487	28.955	1238.040	1175.186
900.502	28.798	1237.108	1173.149
901.517	28.833	1235.533	1171.741
902.531	29.028	1234.518	1171.887
903.546	29.151	1233.669	1171.731
904.560	29.069	1233.679	1171.076
905.575	29.187	1233.041	1171.078
906.589	29.068	1231.226	1168.457
907.604	29.089	1230.310	1167.582
