DTS Sentinel unit serial number:	SN409020Multiplexer serial number:	ORYXHardware model number:	OX4-SRSoftware version number:	ORYX F/W v3.00 Oryx Data Collector v3.7.2.0data status	okinstallation	HaddamTimeLapsedifferential loss correction	single-endedforward channel	channel 3reverse channel	N/Adate	2011/06/22time	08:11:17forward acquisition time	30.00reverse acquisition time	0.00gamma	498.7831k internal	0.1771k external	0.1771temperature offset calibration	1.0074default loss term (dB/km)	0.3790temperature slope calibration	1.3530multiplexer offset coefficient	1.0000multiplexer slope coefficient	1.0000fibre end	0.00T internal ref (°C)	25.03T ext. ref 1 (°C)	23.51T ext. ref 2 (°C)	0.16length (m)	temperature (°C)	Stokes	anti-Stokes-747.200	-200.000	0.035	-0.298
-746.185	363.938	-0.090	-0.238
-745.171	-6.471	-0.132	0.118
-744.156	-135.420	0.341	0.053
-743.142	-171.225	-0.308	0.013
-742.127	-200.000	0.045	0.334
-741.112	427.152	0.046	0.130
-740.098	-200.000	-0.021	0.460
-739.083	208.876	-0.135	-0.278
-738.069	87.644	0.394	0.573
-737.054	-76.207	0.339	-0.156
-736.039	94.668	0.310	-0.464
-735.025	800.000	-0.068	-0.304
-734.010	-92.532	-0.610	0.224
-732.996	800.000	-0.063	-0.339
-731.981	800.000	-0.038	0.164
-730.966	800.000	0.059	-0.250
-729.952	-200.000	-0.019	-0.291
-728.937	-111.668	0.185	0.049
-727.923	348.898	0.160	0.417
-726.908	-200.000	0.018	-0.189
-725.894	396.788	0.026	0.072
-724.879	-87.862	-0.233	0.091
-723.864	-104.064	0.242	-0.073
-722.850	464.203	0.081	0.239
-721.835	-40.705	-0.168	0.114
-720.821	-12.225	-0.183	-0.157
-719.806	-111.055	0.376	0.100
-718.791	-44.361	0.217	-0.142
-717.777	-71.828	-0.131	0.064
-716.762	413.763	0.085	-0.237
-715.748	90.336	-0.038	0.056
-714.733	612.780	-0.123	0.408
-713.718	-200.000	-0.056	-0.415
-712.704	-138.303	-0.574	0.082
-711.689	781.176	0.056	-0.202
-710.675	-81.083	0.449	0.194
-709.660	800.000	0.119	0.604
-708.645	108.875	0.082	-0.129
-707.631	-200.000	0.013	0.381
-706.616	-113.051	-0.441	-0.113
-705.602	-51.870	-0.435	-0.265
-704.587	-98.849	-0.518	-0.172
-703.572	-48.089	0.208	0.131
-702.558	-137.768	0.352	0.051
-701.543	-113.349	0.436	0.112
-700.529	-12.064	-0.056	0.048
-699.514	-92.379	-0.421	0.154
-698.499	137.894	-0.050	-0.087
-697.485	-127.251	0.294	-0.056
-696.470	-200.000	0.009	-0.972
-695.456	-200.000	0.007	-0.411
-694.441	-154.697	-0.376	0.032
-693.426	20.233	-0.310	-0.328
-692.412	40.160	0.326	-0.384
-691.397	-54.672	0.229	-0.135
-690.383	800.000	-0.058	-0.316
-689.368	30.208	-0.276	0.308
-688.354	-171.559	-0.534	0.023
-687.339	52.967	0.132	0.165
-686.324	-115.173	0.353	-0.087
-685.310	445.979	0.150	-0.433
-684.295	212.039	-0.294	0.609
-683.281	-108.340	0.579	0.163
-682.266	-10.876	0.243	0.210
-681.251	115.927	0.183	0.294
-680.237	-117.849	-0.359	-0.084
-679.222	572.203	-0.036	-0.116
-678.208	178.428	0.205	-0.393
-677.193	-36.370	-0.221	0.156
-676.178	-72.168	-0.219	0.106
-675.164	-136.200	0.166	0.025
-674.149	-98.687	-0.486	0.161
-673.135	110.947	-0.356	0.562
-672.120	-63.153	-0.177	0.095
-671.105	102.015	0.049	-0.075
-670.091	800.000	-0.079	-0.301
-669.076	44.334	-0.198	0.238
-668.062	45.278	0.081	0.098
-667.047	10.780	0.263	-0.262
-666.032	-107.036	0.277	-0.079
-665.018	-33.680	-0.286	-0.206
-664.003	-169.194	-0.171	0.008
-662.989	-136.203	-0.624	-0.095
-661.974	-134.593	-0.365	-0.058
-660.959	166.227	0.154	-0.286
-659.945	14.582	0.073	0.075
-658.930	-85.428	-0.105	-0.043
-657.916	561.749	0.109	-0.346
-656.901	52.732	0.136	0.170
-655.886	-137.561	-0.281	-0.041
-654.872	-160.160	-0.082	-0.006
-653.857	-116.906	0.461	-0.110
-652.843	-103.676	-0.126	-0.039
-651.828	12.632	0.150	0.151
-650.814	-57.178	0.278	-0.160
-649.799	5.498	-0.201	0.194
-648.784	306.586	-0.149	0.364
-647.770	-37.669	0.178	0.124
-646.755	-55.154	0.150	0.088
-645.741	13.625	0.199	0.202
-644.726	-32.461	0.489	-0.356
-643.711	-46.058	-0.250	-0.161
-642.697	0.771	-0.255	0.239
-641.682	-39.671	0.269	-0.184
-640.668	106.088	-0.135	-0.210
-639.653	-151.893	-0.278	0.026
-638.638	420.183	0.105	-0.297
-637.624	-129.500	0.266	0.048
-636.609	-200.000	0.002	0.835
-635.595	-200.000	0.149	0.000
-634.580	-47.150	-0.387	-0.246
-633.565	466.724	0.075	-0.222
-632.551	-200.000	0.037	-0.305
-631.536	-153.885	-0.479	0.042
-630.522	21.835	0.049	0.052
-629.507	3.631	0.219	0.208
-628.492	20.709	0.382	0.405
-627.478	134.634	-0.180	-0.306
-626.463	72.007	0.113	0.153
-625.449	26.977	-0.316	-0.347
-624.434	-156.071	-0.488	-0.040
-623.419	-56.381	-0.410	-0.237
-622.405	-82.588	0.289	0.122
-621.390	329.100	-0.112	0.282
-620.376	-200.000	-0.035	-0.394
-619.361	9.163	0.432	-0.426
-618.346	-45.131	-0.540	-0.350
-617.332	-41.796	-0.242	0.162
-616.317	-28.460	-0.144	0.108
-615.303	-200.000	0.078	-0.582
-614.288	-68.891	0.365	0.183
-613.273	-154.502	0.477	-0.041
-612.259	-47.320	0.404	0.256
-611.244	800.000	0.087	-0.488
-610.230	-137.314	-0.092	0.014
-609.215	-32.626	0.643	-0.467
-608.201	43.663	0.134	-0.160
-607.186	84.360	0.354	-0.507
-606.171	-85.207	0.215	-0.087
-605.157	-95.168	0.341	0.119
-604.142	-30.823	0.198	-0.146
-603.128	800.000	-0.071	-0.377
-602.113	-197.082	0.259	-0.002
-601.098	-200.000	0.037	0.226
-600.084	-53.278	-0.273	0.163
-599.069	-200.000	-0.039	-0.420
-598.055	-85.836	0.081	0.032
-597.040	-66.306	-0.125	-0.065
-596.025	562.579	0.124	-0.395
-595.011	-55.187	-0.113	-0.066
-593.996	71.384	0.155	-0.211
-592.982	-62.201	-0.200	-0.108
-591.967	-110.830	-0.234	-0.063
-590.952	800.000	0.109	-0.508
-589.938	-83.786	0.392	-0.163
-588.923	-18.510	0.209	-0.170
-587.909	-25.336	-0.165	0.127
-586.894	-145.335	-0.551	-0.064
-585.879	339.589	-0.147	0.375
-584.865	800.000	0.050	0.249
-583.850	13.152	-0.202	-0.204
-582.836	-34.072	-0.212	-0.152
-581.821	287.932	-0.072	-0.171
-580.806	100.755	-0.489	0.744
-579.792	-188.385	0.145	0.002
-578.777	-20.113	-0.425	-0.342
-577.763	-200.000	0.011	-0.143
-576.748	133.479	0.336	-0.568
-575.733	109.301	0.095	-0.148
-574.719	-63.709	-0.235	-0.125
-573.704	31.903	-0.358	-0.403
-572.690	-1.707	-0.197	0.181
-571.675	191.082	0.166	-0.327
-570.661	-186.264	-0.333	0.006
-569.646	-65.189	0.310	0.162
-568.631	115.770	0.072	0.115
-567.617	-118.404	-0.713	-0.164
-566.602	800.000	0.056	0.323
-565.588	-73.202	0.378	0.180
-564.573	-83.001	0.167	0.070
-563.558	-200.000	0.017	-0.163
-562.544	-85.327	-0.189	-0.077
-561.529	95.645	0.453	-0.675
-560.515	-171.325	0.156	-0.007
-559.500	-88.994	-0.460	-0.177
-558.485	154.642	-0.190	0.341
-557.471	-70.633	-0.415	0.204
-556.456	-45.539	-0.070	-0.045
-555.442	229.571	0.213	-0.456
-554.427	54.146	0.247	0.310
-553.412	-164.974	-0.336	-0.019
-552.398	-200.000	0.017	0.152
-551.383	-148.039	-0.246	-0.026
-550.369	90.609	0.097	-0.141
-549.354	-114.494	-0.198	-0.049
-548.339	-163.810	-0.311	-0.019
-547.325	-200.000	-0.004	0.260
-546.310	-122.884	-0.132	0.028
-545.296	-113.913	-0.418	-0.105
-544.281	37.748	0.216	-0.250
-543.266	-23.443	-0.178	0.139
-542.252	-28.094	0.213	-0.160
-541.237	-171.418	-0.496	-0.021
-540.223	144.919	-0.098	-0.172
-539.208	-200.000	0.008	0.402
-538.193	-76.156	-0.086	-0.039
-537.179	-136.826	-0.382	-0.057
-536.164	342.038	-0.192	0.490
-535.150	44.396	-0.131	-0.157
-534.135	-200.000	-0.049	-0.286
-533.121	-38.991	0.354	0.242
-532.106	-200.000	0.001	0.129
-531.091	-200.000	-0.060	0.440
-530.077	-108.740	0.581	-0.161
-529.062	30.549	0.288	-0.321
-528.048	114.047	0.151	-0.239
-527.033	0.932	-0.199	-0.186
-526.018	-109.460	0.360	0.098
-525.004	-7.117	0.325	-0.287
-523.989	-9.484	-0.124	-0.108
-522.975	-200.000	-0.003	-0.130
-521.960	-40.585	0.246	0.166
-520.945	-200.000	-0.076	-0.596
-519.931	-87.804	-0.417	-0.163
-518.916	-46.196	0.180	-0.115
-517.902	-200.000	-0.012	0.150
-516.887	227.950	-0.092	0.196
-515.872	800.000	0.083	0.339
-514.858	13.008	0.086	0.086
-513.843	119.129	-0.078	0.125
-512.829	63.418	0.184	-0.241
-511.814	-200.000	0.009	0.261
-510.799	-200.000	-0.025	-0.210
-509.785	-167.580	0.576	0.029
-508.770	64.694	-0.158	0.208
-507.756	59.592	0.228	-0.292
-506.741	-200.000	0.024	-0.282
-505.726	190.693	-0.118	-0.232
-504.712	-42.256	0.503	-0.334
-503.697	134.207	0.174	-0.293
-502.683	-200.000	0.003	-0.019
-501.668	-200.000	0.010	0.182
-500.653	800.000	0.109	0.596
-499.639	-21.107	0.294	0.234
-498.624	12.151	0.102	0.102
-497.610	-68.221	0.253	-0.128
-496.595	-154.715	-0.379	0.032
-495.581	256.204	-0.103	0.231
-494.566	800.000	-0.053	-0.281
-493.551	150.120	0.214	-0.378
-492.537	31.251	0.073	0.081
-491.522	-90.905	-0.184	-0.068
-490.508	-61.863	0.133	-0.072
-489.493	261.142	0.116	0.261
-488.478	-200.000	-0.007	-0.109
-487.464	50.810	-0.274	-0.338
-486.449	-6.842	0.405	0.357
-485.435	-129.457	-0.261	-0.047
-484.420	83.755	-0.333	-0.473
-483.405	-65.889	0.377	-0.195
-482.391	246.759	-0.194	0.426
-481.376	800.000	0.042	-0.205
-480.362	507.088	0.127	0.384
-479.347	-4.326	0.203	0.182
-478.332	36.399	0.095	0.109
-477.318	-31.886	-0.186	-0.135
-476.303	-31.368	0.169	0.124
-475.289	-200.000	0.028	0.000
-474.274	-13.939	0.150	-0.125
-473.259	722.131	0.077	0.267
-472.245	550.420	0.117	-0.365
-471.230	-31.368	-0.366	0.267
-470.216	118.657	0.347	-0.559
-469.201	-74.974	-0.116	0.054
-468.186	-80.773	0.327	-0.141
-467.172	-200.000	0.019	-0.179
-466.157	-9.715	0.337	0.292
-465.143	240.544	0.079	0.171
-464.128	800.000	0.031	0.112
-463.113	-93.454	0.226	-0.081
-462.099	173.523	-0.177	0.332
-461.084	-74.647	0.239	0.111
-460.070	-125.185	-0.366	-0.072
-459.055	-151.392	0.441	-0.042
-458.040	-200.000	-0.007	0.122
-457.026	582.138	0.096	-0.308
-456.011	48.257	-0.319	-0.387
-454.997	-89.183	-0.115	-0.044
-453.982	-56.381	-0.286	-0.164
-452.968	-147.733	-0.627	-0.067
-451.953	-34.317	0.285	-0.202
-450.938	200.193	0.153	-0.306
-449.924	-85.643	0.151	-0.061
-448.909	-69.861	-0.015	-0.008
-447.895	302.908	-0.249	0.602
-446.880	59.832	0.390	0.500
-445.865	-90.881	0.422	-0.157
-444.851	-144.056	0.213	0.026
-443.836	6.085	0.250	0.240
-442.822	-200.000	-0.009	0.234
-441.807	-28.516	-0.390	0.291
-440.792	800.000	0.126	0.650
-439.778	-121.633	0.534	0.114
-438.763	-138.362	0.557	0.079
-437.749	-200.000	-0.433	-0.001
-436.734	-9.783	0.111	-0.095
-435.719	201.179	0.125	0.250
-434.705	-11.078	-0.270	-0.231
-433.690	-80.410	0.474	-0.205
-432.676	139.804	-0.224	-0.385
-431.661	-55.036	0.347	-0.202
-430.646	-117.641	0.387	-0.090
-429.632	800.000	0.041	-0.230
-428.617	-200.000	0.039	0.294
-427.603	233.790	-0.146	-0.314
-426.588	130.256	-0.028	0.046
-425.573	61.208	-0.202	0.261
-424.559	-150.783	0.253	-0.025
-423.544	116.875	0.249	0.398
-422.530	137.765	-0.123	-0.210
-421.515	147.981	-0.158	-0.276
-420.500	-33.496	-0.479	0.342
-419.486	18.760	0.462	0.480
-418.471	166.254	0.098	-0.181
-417.457	-200.000	0.021	-0.145
-416.442	800.000	-0.154	0.707
-415.428	800.000	0.043	0.226
-414.413	800.000	0.024	0.113
-413.398	-81.525	0.572	0.243
-412.384	296.332	0.159	-0.380
-411.369	-161.693	-0.505	-0.033
-410.355	800.000	-0.075	-0.370
-409.340	356.664	-0.116	-0.300
-408.325	233.566	-0.113	0.242
-407.311	30.135	0.039	-0.043
-406.296	-54.056	0.285	-0.168
-405.282	-117.406	0.219	-0.051
-404.267	-173.045	-0.274	0.011
-403.252	-21.320	0.099	0.078
-402.238	-76.313	0.245	-0.111
-401.223	-200.000	-0.016	0.221
-400.209	-135.281	0.373	0.057
-399.194	-46.378	-0.176	0.112
-398.179	49.535	0.166	0.202
-397.165	-200.000	0.017	-0.309
-396.150	53.800	-0.290	-0.361
-395.136	-88.474	-0.342	-0.131
-394.121	-50.655	-0.143	-0.087
-393.106	-190.848	0.778	0.010
-392.092	-184.608	0.494	0.010
-391.077	-49.970	-0.077	-0.047
-390.063	-16.278	0.071	0.058
-389.048	-38.391	-0.287	-0.196
-388.033	140.908	-0.101	0.174
-387.019	631.408	0.184	0.606
-386.004	-17.939	-0.105	-0.085
-384.990	-60.833	-0.204	-0.111
-383.975	54.133	0.016	0.020
-382.960	-94.510	0.227	-0.080
-381.946	-100.092	0.152	0.049
-380.931	560.860	-0.143	-0.448
-379.917	-148.292	0.146	0.015
-378.902	85.309	-0.130	-0.185
-377.888	-44.542	0.224	0.145
-376.873	800.000	0.133	0.478
-375.858	-124.717	-0.628	-0.125
-374.844	-126.747	-0.316	0.060
-373.829	-200.000	0.043	0.335
-372.815	-47.950	0.269	-0.168
-371.800	16.070	-0.151	0.154
-370.785	-80.896	0.404	-0.173
-369.771	-94.952	0.408	-0.142
-368.756	-46.638	-0.089	0.056
-367.742	800.000	0.072	-0.269
-366.727	-200.000	0.003	-0.266
-365.712	-117.451	-0.074	0.017
-364.698	-105.653	0.209	-0.061
-363.683	-200.000	-0.066	0.482
-362.669	240.684	-0.113	-0.245
-361.654	800.000	0.064	0.315
-360.639	-94.273	0.565	0.199
-359.625	-15.343	0.470	0.388
-358.610	-108.421	0.213	0.059
-357.596	-145.068	-0.302	0.035
-356.581	-78.157	-0.223	-0.099
-355.566	-90.302	-0.697	0.260
-354.552	231.034	-0.044	0.093
-353.537	117.360	-0.143	-0.228
-352.523	-62.803	0.141	0.075
-351.508	719.356	-0.110	0.381
-350.493	-74.088	-0.149	-0.069
-349.479	-104.141	-0.124	0.037
-348.464	42.117	0.195	0.229
-347.450	-45.038	-0.719	0.461
-346.435	-86.663	-0.061	-0.024
-345.420	-167.746	-0.260	-0.013
-344.406	140.203	-0.161	-0.275
-343.391	-200.000	-0.007	0.211
-342.377	-200.000	-0.012	0.311
-341.362	800.000	0.044	-0.216
-340.348	-94.351	0.414	0.145
-339.333	38.630	0.035	0.041
-338.318	162.341	-0.280	0.509
-337.304	-200.000	0.002	0.467
-336.289	42.686	-0.042	0.049
-335.275	-17.233	-0.164	-0.134
-334.260	-130.879	0.297	0.051
-333.245	800.000	0.033	-0.180
-332.231	-115.213	-0.506	0.123
-331.216	-124.256	-0.214	-0.043
-330.202	-6.327	0.068	0.060
-329.187	-163.775	0.431	0.026
-328.172	-109.942	-0.401	-0.108
-327.158	-58.918	0.189	-0.105
-326.143	-133.685	-0.324	0.052
-325.129	-200.000	-0.031	0.206
-324.114	-111.764	0.730	0.189
-323.099	15.517	-0.358	-0.363
-322.085	-3.787	-0.403	0.361
-321.070	-117.590	-0.230	-0.053
-320.056	61.329	-0.142	0.183
-319.041	-134.237	0.572	-0.090
-318.026	-89.610	-0.180	-0.068
-317.012	41.877	-0.252	-0.296
-315.997	-200.000	0.093	0.533
-314.983	-38.758	0.185	-0.125
-313.968	-14.545	-0.468	0.388
-312.953	-92.464	-0.128	0.046
-311.939	39.364	0.075	0.087
-310.924	-164.753	-0.071	-0.004
-309.910	-38.760	0.111	0.076
-308.895	-140.952	-0.145	-0.019
-307.880	760.565	-0.122	-0.429
-306.866	-38.468	0.308	-0.210
-305.851	-200.000	-0.001	-0.011
-304.837	-71.200	0.239	-0.116
-303.822	52.431	0.234	0.288
-302.807	800.000	-0.094	0.496
-301.793	-122.399	-0.173	-0.036
-300.778	394.715	-0.134	0.361
-299.764	-200.000	-0.004	-0.424
-298.749	-5.914	-0.389	-0.343
-297.735	-166.437	-0.476	-0.025
-296.720	67.991	-0.393	0.519
-295.705	-104.838	-0.340	-0.100
-294.691	-42.496	-0.455	0.299
-293.676	-200.000	-0.001	-0.213
-292.662	-200.000	0.003	-0.325
-291.647	447.440	0.009	-0.026
-290.632	635.574	0.079	0.262
-289.618	-107.568	0.100	0.028
-288.603	-200.000	0.003	0.527
-287.589	-118.064	0.475	0.109
-286.574	528.923	-0.068	-0.208
-285.559	46.635	-0.085	0.102
-284.545	134.641	-0.272	0.456
-283.530	-83.233	-0.555	0.229
-282.516	141.879	-0.119	0.204
-281.501	-30.490	-0.107	-0.078
-280.486	112.552	-0.107	-0.167
-279.472	262.503	-0.157	-0.353
-278.457	-82.931	-0.314	-0.130
-277.443	-57.831	-0.302	-0.170
-276.428	724.410	-0.132	-0.458
-275.413	-192.842	0.261	0.003
-274.399	-86.297	0.503	-0.199
-273.384	-31.037	-0.101	0.073
-272.370	-186.894	-0.184	-0.003
-271.355	-92.135	-0.186	0.067
-270.340	-35.848	0.417	-0.290
-269.326	-24.177	-0.182	0.140
-268.311	-200.000	-0.049	-0.436
-267.297	14.917	0.435	0.439
-266.282	23.498	0.189	-0.200
-265.267	-8.263	0.307	0.266
-264.253	-200.000	-0.056	-0.731
-263.238	-105.897	0.241	0.070
-262.224	249.712	0.205	0.449
-261.209	-97.156	0.349	-0.117
-260.195	-200.000	0.006	0.055
-259.180	-119.474	0.221	0.049
-258.165	-103.328	-0.387	0.117
-257.151	-140.175	-0.390	-0.052
-256.136	3.030	-0.128	0.120
-255.122	547.164	-0.136	-0.423
-254.107	245.680	-0.130	-0.283
-253.092	-1.445	0.156	-0.141
-252.078	-61.290	-0.275	-0.149
-251.063	492.605	0.058	-0.171
-250.049	-160.535	0.389	0.026
-249.034	-166.724	-0.223	0.012
-248.019	-41.937	-0.467	-0.308
-247.005	-112.518	-0.419	-0.107
-245.990	-87.443	0.327	0.127
-244.976	-200.000	0.052	0.684
-243.961	-107.461	0.172	0.048
-242.946	-64.773	0.116	0.060
-241.932	36.537	0.083	0.094
-240.917	-143.733	0.247	-0.030
-239.903	143.955	0.133	-0.228
-238.888	626.439	0.097	-0.316
-237.873	-200.000	0.061	-0.386
-236.859	-43.835	-0.371	-0.240
-235.844	-24.387	0.371	0.285
-234.830	-175.931	0.136	-0.005
-233.815	11.001	-0.129	0.127
-232.800	-200.000	-0.003	-0.284
-231.786	-18.938	0.355	0.284
-230.771	-65.108	0.107	0.055
-229.757	-47.401	-0.348	-0.217
-228.742	-200.000	-0.018	-0.149
-227.727	800.000	-0.089	-0.364
-226.713	-37.185	-0.134	0.092
-225.698	51.045	-0.208	-0.254
-224.684	22.925	0.482	-0.509
-223.669	-152.238	-0.373	0.034
-222.655	-141.023	-0.275	-0.036
-221.640	-132.529	-0.496	0.081
-220.625	-0.916	-0.132	0.121
-219.611	-187.326	0.238	-0.004
-218.596	-39.072	-0.657	0.444
-217.582	-8.973	-0.373	-0.321
-216.567	521.328	-0.081	0.246
-215.552	25.539	0.213	0.228
-214.538	509.601	0.164	0.492
-213.523	-150.796	0.495	-0.048
-212.509	145.120	0.120	-0.206
-211.494	-64.669	-0.608	-0.316
-210.479	-70.146	-0.135	0.066
-209.465	-90.879	-0.521	0.192
-208.450	109.544	0.312	0.482
-207.436	800.000	0.072	0.397
-206.421	-125.352	0.399	-0.078
-205.406	328.233	0.215	0.533
-204.392	-93.895	0.290	-0.102
-203.377	-175.684	0.535	-0.018
-202.363	800.000	-0.099	0.437
-201.348	-58.406	-0.100	0.056
-200.333	50.730	-0.327	0.398
-199.319	-183.467	0.035	-0.001
-198.304	-52.978	-0.193	-0.114
-197.290	-10.277	-0.278	-0.237
-196.275	-200.000	-0.037	-0.430
-195.260	-93.533	0.362	-0.128
-194.246	458.003	0.095	-0.273
-193.231	-86.312	-0.219	0.086
-192.217	-56.351	-0.062	-0.036
-191.202	800.000	0.095	-0.348
-190.187	155.554	-0.115	-0.204
-189.173	-200.000	-0.050	-0.356
-188.158	-200.000	0.005	0.387
-187.144	-173.353	0.432	-0.017
-186.129	531.427	-0.098	-0.300
-185.114	-112.261	0.321	0.082
-184.100	-93.821	0.288	0.101
-183.085	-55.263	-0.163	0.094
-182.071	71.787	0.141	-0.188
-181.056	-42.576	0.155	-0.101
-180.042	800.000	-0.028	0.137
-179.027	514.684	-0.139	0.420
-178.012	-3.899	0.207	-0.184
-176.998	-149.306	0.120	-0.012
-175.983	-118.428	-0.471	-0.106
-174.969	282.432	-0.034	0.080
-173.954	5.627	-0.151	0.143
-172.939	-36.453	-0.276	0.190
-171.925	-200.000	-0.030	0.290
-170.910	-200.000	-0.032	0.562
-169.896	-105.682	0.287	-0.083
-168.881	163.528	0.327	0.591
-167.866	425.222	0.183	0.510
-166.852	-200.000	0.030	0.398
-165.837	49.033	-0.068	0.082
-164.823	252.736	0.187	0.410
-163.808	-17.537	-0.389	-0.313
-162.793	-102.835	0.371	0.113
-161.779	-65.423	-0.175	0.090
-160.764	-200.000	-0.042	-0.262
-159.750	-75.798	-0.314	0.142
-158.735	-31.085	-0.268	-0.193
-157.720	-111.301	0.112	-0.029
-156.706	-200.000	-0.022	0.275
-155.691	166.764	-0.042	-0.077
-154.677	-93.097	-0.573	0.204
-153.662	-95.694	0.244	-0.083
-152.647	-123.817	0.390	0.078
-151.633	-147.224	-0.357	-0.039
-150.618	-75.962	-0.208	-0.094
-149.604	40.167	-0.212	0.245
-148.589	-200.000	0.023	-0.310
-147.574	80.299	0.193	0.267
-146.560	99.247	0.045	0.067
-145.545	-39.213	0.186	-0.125
-144.531	-83.524	0.162	0.066
-143.516	-200.000	0.027	-0.184
-142.502	-200.000	0.006	0.086
-141.487	20.880	0.093	-0.096
-140.472	-93.637	-0.161	-0.057
-139.458	244.676	0.184	-0.398
-138.443	270.272	0.171	-0.386
-137.429	12.640	-0.563	-0.558
-136.414	176.278	-0.209	-0.391
-135.399	-15.223	0.216	0.177
-134.385	-25.621	-0.262	0.198
-133.370	295.217	-0.256	-0.602
-132.356	48.337	-0.272	-0.327
-131.341	-165.433	-0.193	-0.011
-130.326	128.706	-0.050	-0.082
-129.312	-11.132	-0.289	0.244
-128.297	-200.000	0.007	-0.075
-127.283	475.610	-0.186	-0.541
-126.268	-28.652	-0.899	-0.662
-125.253	631.626	-0.057	0.187
-124.239	-200.000	-0.003	0.287
-123.224	-73.622	-0.095	0.044
-122.210	121.874	-0.344	-0.551
-121.195	407.447	-0.049	-0.132
-120.180	494.525	-0.089	-0.262
-119.166	-200.000	0.013	0.149
-118.151	-125.847	-0.262	0.050
-117.137	-140.350	0.537	-0.071
-116.122	-62.796	0.118	0.062
-115.107	-23.380	-0.605	0.465
-114.093	-200.000	0.017	0.266
-113.078	-57.704	-0.106	-0.059
-112.064	329.999	-0.134	-0.331
-111.049	36.386	0.216	0.244
-110.034	800.000	-0.092	0.389
-109.020	-200.000	0.001	-0.009
-108.005	108.629	0.183	-0.281
-106.991	542.649	0.144	-0.443
-105.976	-4.708	0.327	-0.288
-104.962	231.616	0.107	-0.225
-103.947	-139.743	0.304	-0.041
-102.932	-60.533	-0.348	-0.188
-101.918	-5.079	-0.165	-0.146
-100.903	-143.108	0.717	0.088
-99.889	186.366	-0.088	-0.168
-98.874	625.089	0.133	0.432
-97.859	-121.794	-0.481	-0.101
-96.845	-18.213	0.047	0.038
-95.830	157.732	0.125	0.222
-94.816	-108.486	-0.378	0.103
-93.801	-7.503	-0.441	0.382
-92.786	345.217	-0.124	0.313
-91.772	-83.411	0.126	-0.051
-90.757	770.558	-0.039	0.137
-89.743	-16.792	0.124	-0.100
-88.728	-69.538	-0.170	0.083
-87.713	-113.993	0.293	0.072
-86.699	173.747	0.184	0.341
-85.684	-200.000	-0.071	0.442
-84.670	487.411	0.107	0.316
-83.655	166.899	-0.165	0.300
-82.640	11.208	-0.126	0.124
-81.626	28.681	0.158	0.171
-80.611	800.000	-0.126	-0.456
-79.597	36.401	-0.198	-0.224
-78.582	-148.457	-0.787	-0.082
-77.567	250.728	0.152	-0.332
-76.553	-200.000	0.103	0.614
-75.538	-20.446	0.402	-0.316
-74.524	-183.445	0.160	0.003
-73.509	122.726	0.217	-0.348
-72.494	-51.420	0.107	0.064
-71.480	-134.202	0.319	0.050
-70.465	138.249	0.022	0.037
-69.451	-42.443	-0.146	0.095
-68.436	-144.149	-0.263	-0.031
-67.422	344.727	0.176	0.443
-66.407	800.000	0.062	-0.246
-65.392	-14.326	-0.048	-0.040
-64.378	-14.034	0.354	0.292
-63.363	-99.026	0.288	0.093
-62.349	-53.910	0.087	0.051
-61.334	-16.302	-2.046	-1.658
-60.319	80.523	0.936	1.290
-59.305	232.543	-3.410	-7.185
-58.290	67.096	3.642	4.751
-57.276	496.700	3.577	10.573
-56.261	-200.000	20.316	284.688
-55.246	387.532	1255.245	3333.491
-54.232	57.389	2823.892	3527.951
-53.217	63.872	2670.506	3434.458
-52.203	30.944	2403.258	2632.990
-51.188	30.712	2063.822	2258.186
-50.173	27.287	1946.216	2089.942
-49.159	25.913	1935.844	2062.931
-48.144	25.466	1931.023	2052.578
-47.130	25.334	1928.680	2048.495
-46.115	25.235	1926.644	2045.111
-45.100	25.257	1925.702	2044.282
-44.086	25.223	1924.611	2042.657
-43.071	25.269	1922.278	2040.631
-42.057	25.172	1922.084	2039.227
-41.042	25.328	1919.743	2038.443
-40.027	25.230	1918.326	2035.749
-39.013	25.272	1916.826	2034.546
-37.998	25.090	1916.004	2031.526
-36.984	25.241	1914.235	2031.284
-35.969	25.091	1913.885	2029.123
-34.954	25.152	1911.761	2027.485
-33.940	25.228	1910.673	2027.114
-32.925	25.126	1909.674	2024.820
-31.911	25.076	1908.615	2023.049
-30.896	25.053	1907.323	2021.340
-29.881	25.211	1904.906	2020.486
-28.867	25.099	1904.286	2018.481
-27.852	24.979	1903.639	2016.353
-26.838	25.049	1901.813	2015.137
-25.823	25.153	1899.890	2014.194
-24.809	24.982	1899.256	2011.503
-23.794	25.100	1898.429	2011.886
-22.779	24.971	1897.036	2008.871
-21.765	25.060	1895.007	2007.648
-20.750	24.981	1893.843	2005.449
-19.736	25.068	1893.161	2005.617
-18.721	25.045	1891.705	2003.742
-17.706	25.024	1890.765	2002.431
-16.692	25.024	1888.842	2000.312
-15.677	24.973	1888.666	1999.471
-14.663	24.937	1887.316	1997.567
-13.648	24.978	1886.288	1996.850
-12.633	24.815	1884.796	1993.372
-11.619	25.035	1882.599	1993.429
-10.604	24.943	1882.631	1992.356
-9.590	24.911	1880.772	1989.955
-8.575	24.969	1879.395	1989.061
-7.560	24.869	1878.439	1986.852
-6.546	24.878	1877.014	1985.376
-5.531	24.896	1876.026	1984.445
-4.517	24.896	1874.597	1982.860
-3.502	25.007	1873.771	1983.141
-2.487	24.866	1873.282	1980.970
-1.473	25.086	1868.908	1978.709
-0.458	25.375	1852.843	1964.802
0.556	22.803	2000.804	2078.899
1.571	22.232	2210.335	2288.856
2.586	23.303	2251.269	2345.235
3.600	23.276	2254.839	2348.312
4.615	23.407	2252.790	2347.635
5.629	23.430	2251.055	2345.855
6.644	23.306	2249.138	2341.930
7.659	23.448	2247.065	2341.381
8.673	23.317	2245.989	2338.237
9.688	23.140	2253.329	2343.245
10.702	22.371	2334.280	2416.523
11.717	21.214	2400.600	2468.454
12.731	10.821	2371.354	2291.477
13.746	1.641	2346.844	2138.305
14.761	0.409	2342.222	2116.460
15.775	0.200	2340.670	2111.864
16.790	0.247	2339.281	2111.011
17.804	0.143	2337.866	2108.023
18.819	0.121	2337.189	2106.847
19.834	0.103	2335.969	2105.242
20.848	0.131	2334.070	2103.673
21.863	0.154	2332.487	2102.321
22.877	0.129	2330.161	2099.620
23.892	0.081	2328.440	2097.140
24.907	0.076	2326.144	2094.761
25.921	0.132	2323.942	2093.303
26.936	0.125	2321.192	2090.486
27.950	0.090	2319.432	2088.163
28.965	0.137	2317.031	2086.396
29.980	0.083	2316.558	2084.973
30.994	0.308	2312.983	2084.629
32.009	5.631	2331.852	2175.863
33.023	19.481	2374.528	2411.195
34.038	26.260	2387.527	2519.479
35.053	27.317	2387.522	2533.978
36.067	27.429	2385.201	2532.781
37.082	27.016	2383.019	2524.384
38.096	27.048	2381.220	2522.630
39.111	26.909	2377.984	2516.956
40.126	26.913	2375.163	2513.726
41.140	26.902	2374.411	2512.478
42.155	26.294	2370.470	2499.558
43.169	26.344	2369.115	2498.524
44.184	27.114	2368.348	2508.103
45.199	27.155	2367.415	2507.381
46.213	27.167	2366.109	2505.871
47.228	26.806	2363.539	2497.847
48.242	26.930	2362.817	2498.508
49.257	27.175	2361.572	2500.276
50.271	26.881	2356.324	2490.363
51.286	26.872	2355.463	2489.035
52.301	27.272	2355.254	2494.027
53.315	25.627	2348.079	2463.507
54.330	23.138	2338.911	2419.424
55.344	22.130	2333.266	2399.474
56.359	21.861	2330.326	2392.464
57.374	21.846	2327.323	2388.902
58.388	22.046	2325.217	2389.185
59.403	22.206	2322.096	2387.880
60.417	22.270	2320.807	2387.130
61.432	22.509	2319.728	2389.004
62.447	22.499	2318.190	2386.997
63.461	22.479	2315.859	2384.030
64.476	22.464	2313.224	2380.827
65.490	22.721	2313.378	2384.192
66.505	23.428	2315.013	2395.204
67.520	24.872	2318.117	2417.756
68.534	26.174	2320.110	2437.224
69.549	27.165	2320.148	2450.406
70.563	27.387	2318.288	2451.156
71.578	27.340	2315.578	2447.355
72.593	26.991	2313.172	2439.804
73.607	27.114	2311.097	2438.986
74.622	27.364	2310.923	2441.883
75.636	27.766	2308.393	2444.333
76.651	27.744	2307.273	2442.552
77.666	27.809	2304.249	2439.942
78.680	27.653	2302.075	2435.250
79.695	27.692	2302.271	2435.681
80.709	28.041	2301.813	2439.599
81.724	28.359	2300.323	2441.978
82.739	28.109	2296.972	2434.789
83.753	27.874	2295.144	2429.425
84.768	28.227	2293.757	2432.371
85.782	28.093	2293.513	2430.041
86.797	27.913	2289.866	2423.482
87.812	27.493	2285.685	2413.179
88.826	27.582	2284.435	2412.744
89.841	27.793	2283.186	2413.950
90.855	27.938	2281.159	2413.443
91.870	27.570	2279.446	2406.452
92.884	27.559	2277.419	2403.889
93.899	27.797	2275.674	2404.903
94.914	26.902	2272.703	2389.630
95.928	24.420	2263.702	2347.117
96.943	23.283	2260.496	2328.499
97.957	25.501	2264.577	2361.749
98.972	27.067	2266.385	2384.030
99.987	27.122	2262.686	2380.576
101.001	27.283	2261.598	2381.263
102.016	27.402	2260.100	2380.962
103.030	27.172	2256.647	2374.020
104.045	27.163	2255.329	2372.237
105.060	27.323	2252.770	2371.352
106.074	27.207	2250.889	2367.578
107.089	27.202	2249.713	2365.992
108.103	27.543	2250.436	2370.925
109.118	27.800	2248.223	2371.668
110.133	27.608	2246.715	2367.289
111.147	27.957	2245.552	2370.336
112.162	28.324	2244.854	2374.092
113.176	27.996	2239.982	2364.397
114.191	27.383	2237.345	2353.363
115.206	27.264	2235.619	2349.714
116.220	27.391	2233.129	2348.464
117.235	26.977	2231.250	2340.842
118.249	26.910	2228.642	2336.967
119.264	27.190	2228.098	2339.733
120.279	27.507	2227.676	2343.115
121.293	27.374	2224.077	2337.327
122.308	27.260	2222.397	2333.813
123.322	27.201	2220.657	2330.947
124.337	26.180	2216.169	2312.817
125.352	24.182	2210.581	2281.028
126.366	23.790	2209.525	2274.620
127.381	25.541	2210.513	2297.882
128.395	26.060	2209.667	2303.390
129.410	26.654	2209.480	2310.540
130.424	27.259	2209.013	2317.522
131.439	26.973	2207.019	2311.497
132.454	27.120	2205.954	2311.987
133.468	27.239	2202.924	2310.050
134.483	27.046	2200.283	2304.542
135.497	26.666	2198.530	2297.590
136.512	26.747	2196.059	2295.761
137.527	26.891	2195.383	2296.615
138.541	27.172	2195.255	2299.779
139.556	26.911	2193.504	2294.357
140.570	27.279	2192.148	2297.328
141.585	27.442	2191.220	2298.157
142.600	27.388	2189.171	2295.038
143.614	26.994	2187.040	2287.541
144.629	27.202	2186.690	2289.540
145.643	27.089	2183.879	2284.887
146.658	27.239	2182.019	2284.566
147.673	27.421	2180.406	2284.900
148.687	27.624	2180.304	2287.086
149.702	27.796	2179.464	2288.092
150.716	27.548	2178.399	2283.582
151.731	27.545	2177.487	2282.306
152.746	27.737	2176.157	2283.058
153.760	26.711	2172.220	2265.772
154.775	24.073	2162.628	2222.441
155.789	22.859	2159.613	2203.849
156.804	25.017	2162.391	2233.500
157.819	26.782	2162.536	2255.469
158.833	27.373	2162.051	2262.086
159.848	27.599	2161.226	2263.770
160.862	27.773	2160.144	2264.532
161.877	27.821	2158.969	2263.633
162.892	27.593	2157.054	2258.510
163.906	27.752	2155.944	2259.058
164.921	27.820	2153.293	2256.865
165.935	27.458	2151.779	2250.505
166.950	27.452	2149.858	2248.152
167.964	27.483	2146.468	2244.721
168.979	27.361	2144.985	2241.388
169.994	27.569	2145.070	2243.793
171.008	27.872	2143.804	2245.942
172.023	27.895	2142.188	2244.262
173.037	27.849	2140.732	2241.903
174.052	27.324	2138.557	2232.881
175.067	26.832	2135.621	2223.493
176.081	27.009	2134.884	2224.634
177.096	27.351	2132.178	2225.753
178.110	26.666	2130.194	2215.006
179.125	26.870	2129.284	2216.295
180.140	27.280	2128.602	2220.346
181.154	27.075	2127.336	2216.248
182.169	26.732	2124.466	2208.797
183.183	25.770	2120.211	2192.337
184.198	23.481	2112.914	2156.588
185.213	23.101	2111.986	2150.738
186.227	25.590	2116.410	2185.419
187.242	26.582	2116.565	2197.428
188.256	26.867	2116.278	2200.346
189.271	27.558	2116.333	2208.558
190.286	27.576	2114.670	2206.779
191.300	26.977	2111.349	2195.767
192.315	27.030	2109.425	2194.149
193.329	27.149	2108.658	2194.532
194.344	27.242	2107.234	2193.919
195.359	27.069	2106.599	2190.897
196.373	27.291	2104.089	2190.715
197.388	27.380	2101.193	2188.507
198.402	27.163	2099.642	2184.007
199.417	27.232	2098.201	2183.082
200.432	27.494	2097.248	2184.988
201.446	27.745	2095.727	2186.163
202.461	27.677	2093.851	2183.135
203.475	27.398	2091.148	2176.694
204.490	27.483	2089.861	2176.119
205.504	27.391	2087.690	2172.494
206.519	27.024	2085.931	2166.000
207.534	27.034	2083.371	2163.207
208.548	27.044	2082.537	2162.207
209.563	27.237	2081.121	2162.775
210.577	27.117	2078.026	2157.875
211.592	26.902	2077.735	2154.744
212.607	25.717	2072.808	2135.257
213.621	23.171	2065.984	2097.683
214.636	23.407	2065.429	2099.670
215.650	26.000	2070.359	2135.344
216.665	26.932	2070.388	2146.198
217.680	27.325	2070.954	2151.203
218.694	27.851	2071.302	2157.550
219.709	28.105	2068.975	2157.882
220.723	27.854	2067.411	2153.020
221.738	27.773	2064.832	2149.115
222.753	27.509	2063.237	2144.079
223.767	27.489	2060.246	2140.474
224.782	27.071	2058.139	2133.093
225.796	26.917	2057.038	2129.879
226.811	27.172	2054.567	2130.081
227.826	27.464	2055.290	2134.005
228.840	27.623	2053.816	2134.099
229.855	27.430	2051.704	2129.372
230.869	27.480	2049.617	2127.542
231.884	27.323	2047.411	2123.152
232.899	27.096	2045.493	2118.259
233.913	27.108	2044.696	2117.312
234.928	27.093	2042.992	2115.121
235.942	27.269	2041.468	2115.350
236.957	26.958	2040.012	2109.956
237.972	26.959	2039.073	2108.745
238.986	27.305	2038.521	2111.961
240.001	27.250	2036.761	2109.238
241.015	26.795	2034.938	2101.795
242.030	26.266	2031.512	2091.854
243.045	24.086	2024.086	2058.645
244.059	23.562	2023.618	2051.838
245.074	25.814	2024.925	2079.078
246.088	26.633	2024.117	2087.489
247.103	26.753	2022.878	2087.351
248.117	26.722	2022.015	2085.859
249.132	26.936	2021.267	2087.303
250.147	26.792	2019.265	2083.322
251.161	26.720	2016.412	2079.308
252.176	26.660	2015.352	2077.266
253.190	26.629	2013.267	2074.517
254.205	26.509	2010.277	2069.808
255.220	26.660	2010.111	2071.129
256.234	26.605	2009.120	2069.219
257.249	26.533	2007.466	2066.442
258.263	26.531	2006.177	2064.845
259.278	26.427	2005.746	2062.966
260.293	26.445	2003.101	2060.202
261.307	26.789	2001.970	2062.734
262.322	27.017	2001.490	2064.599
263.336	26.911	2000.350	2061.961
264.351	27.092	1998.402	2061.767
265.366	27.223	1998.007	2062.608
266.380	27.445	1996.668	2063.516
267.395	26.973	1994.389	2055.540
268.409	26.937	1993.322	2053.782
269.424	27.735	1993.152	2062.433
270.439	27.901	1991.833	2062.706
271.453	26.908	1987.134	2046.342
272.468	23.829	1978.015	2001.902
273.482	23.378	1977.666	1996.213
274.497	26.004	1981.347	2029.425
275.512	27.334	1980.677	2043.529
276.526	27.499	1979.627	2044.053
277.541	27.655	1977.904	2043.795
278.555	27.676	1977.428	2043.291
279.570	27.205	1973.546	2033.747
280.585	26.927	1973.094	2029.909
281.599	27.209	1971.323	2031.007
282.614	26.786	1969.249	2023.881
283.628	26.438	1967.331	2017.767
284.643	26.361	1965.756	2015.051
285.657	26.435	1962.736	2012.537
286.672	25.671	1960.573	2001.547
287.687	25.006	1957.497	1990.740
288.701	24.944	1955.938	1988.229
289.716	24.860	1954.362	1985.442
290.730	24.709	1951.606	1980.729
291.745	24.723	1950.814	1979.844
292.760	25.321	1951.723	1987.186
293.774	25.808	1953.234	1993.902
294.789	26.284	1951.804	1997.502
295.803	26.393	1949.544	1996.156
296.818	26.775	1950.162	2000.782
297.833	27.055	1949.377	2002.850
298.847	26.738	1947.764	1997.434
299.862	26.798	1944.686	1994.711
300.876	25.926	1939.573	1979.598
301.891	23.660	1933.622	1948.327
302.906	23.534	1935.650	1948.745
303.920	25.970	1938.781	1978.570
304.935	26.844	1938.504	1987.678
305.949	26.677	1935.993	1983.027
306.964	26.732	1935.564	1982.961
307.979	26.563	1931.487	1976.691
308.993	25.863	1928.734	1965.962
310.008	26.134	1928.042	1967.998
311.022	26.151	1927.332	1967.222
312.037	25.707	1923.280	1957.995
313.052	25.150	1920.178	1948.517
314.066	24.847	1917.983	1942.755
315.081	24.710	1917.691	1940.730
316.095	24.593	1916.940	1938.457
317.110	24.735	1915.314	1938.135
318.125	25.315	1915.296	1944.201
319.139	25.929	1915.601	1950.952
320.154	26.457	1913.773	1954.603
321.168	26.863	1913.712	1958.710
322.183	26.817	1912.401	1956.638
323.197	27.082	1912.089	1958.951
324.212	27.198	1911.188	1959.058
325.227	27.299	1910.465	1959.168
326.241	27.420	1907.729	1957.433
327.256	27.506	1906.363	1956.734
328.270	27.462	1906.420	1956.078
329.285	27.348	1906.651	1954.850
330.300	26.395	1902.373	1939.965
331.314	23.773	1893.573	1902.570
332.329	23.584	1892.645	1899.377
333.343	26.239	1897.366	1932.480
334.358	27.652	1898.227	1948.319
335.373	27.954	1896.668	1949.718
336.387	27.755	1894.969	1945.608
337.402	27.942	1893.987	1946.365
338.416	27.799	1891.792	1942.353
339.431	27.707	1890.078	1939.375
340.446	27.839	1887.291	1937.692
341.460	27.304	1884.911	1929.317
342.475	26.985	1882.291	1923.008
343.489	26.412	1879.728	1914.062
344.504	26.049	1878.613	1908.840
345.519	25.662	1875.579	1901.418
346.533	25.167	1872.607	1892.932
347.548	25.114	1872.542	1892.076
348.562	25.399	1870.576	1892.879
349.577	25.045	1869.298	1887.610
350.592	24.975	1868.400	1885.741
351.606	25.463	1867.534	1889.804
352.621	25.780	1866.359	1891.732
353.635	25.682	1864.757	1888.847
354.650	25.397	1863.189	1884.034
355.665	25.841	1862.176	1887.459
356.679	26.476	1862.705	1894.451
357.694	26.860	1862.587	1898.146
358.708	27.054	1861.879	1899.238
359.723	26.219	1857.380	1885.662
360.738	23.827	1850.626	1853.541
361.752	23.900	1852.581	1856.038
362.767	26.170	1854.857	1881.909
363.781	26.878	1853.627	1887.846
364.796	26.983	1852.660	1887.735
365.810	26.951	1852.318	1886.825
366.825	27.241	1851.215	1888.508
367.840	27.491	1850.234	1889.888
368.854	27.624	1850.291	1891.098
369.869	27.471	1848.845	1887.807
370.883	27.020	1845.393	1879.360
371.898	26.496	1843.774	1872.041
372.913	26.166	1840.828	1865.395
373.927	25.955	1839.538	1861.684
374.942	26.009	1838.470	1860.931
375.956	26.709	1838.788	1868.290
376.971	27.781	1839.351	1879.749
377.986	27.922	1837.808	1879.401
379.000	27.835	1836.513	1876.955
380.015	27.851	1834.384	1874.720
381.029	27.868	1832.150	1872.383
382.044	27.829	1831.185	1870.774
383.059	28.234	1830.000	1873.507
384.073	27.960	1828.394	1868.820
385.088	27.207	1825.223	1857.629
386.102	27.106	1824.016	1855.145
387.117	27.053	1821.839	1852.164
388.132	26.924	1822.450	1851.236
389.146	26.626	1819.919	1845.398
390.161	23.886	1812.199	1809.362
391.175	23.774	1810.278	1806.080
392.190	26.225	1812.778	1833.399
393.205	26.847	1812.261	1838.997
394.219	27.189	1811.435	1841.426
395.234	27.570	1811.276	1844.917
396.248	27.759	1809.996	1845.314
397.263	27.695	1806.972	1841.367
398.278	27.208	1804.669	1833.858
399.292	26.823	1801.828	1826.853
400.307	26.562	1802.012	1824.184
401.321	26.670	1799.585	1822.599
402.336	26.317	1797.106	1816.307
403.350	26.278	1796.282	1814.865
404.365	26.750	1797.024	1820.159
405.380	27.016	1796.083	1821.671
406.394	26.898	1794.607	1818.764
407.409	26.779	1792.352	1815.062
408.423	26.388	1789.112	1807.642
409.438	26.083	1786.169	1801.386
410.453	25.932	1785.412	1798.893
411.467	26.112	1785.226	1800.303
412.482	25.975	1784.263	1797.742
413.496	26.407	1784.365	1801.950
414.511	26.598	1782.914	1802.187
415.526	26.692	1779.638	1799.600
416.540	26.779	1779.051	1799.654
417.555	26.626	1778.314	1797.167
418.569	26.313	1777.952	1793.461
419.584	26.449	1777.659	1794.315
420.599	27.116	1778.158	1801.246
421.613	27.434	1777.216	1803.243
422.628	27.440	1776.585	1802.444
423.642	27.591	1775.115	1802.240
424.657	27.287	1772.400	1796.256
425.672	26.787	1770.286	1788.942
426.686	26.937	1769.201	1789.109
427.701	26.866	1766.575	1785.542
428.715	26.430	1765.827	1780.261
429.730	26.535	1764.620	1779.871
430.745	26.568	1762.962	1778.304
431.759	25.918	1759.358	1768.055
432.774	24.832	1757.681	1755.454
433.788	24.170	1755.139	1746.181
434.803	23.724	1753.099	1739.558
435.818	23.601	1753.272	1738.305
436.832	23.839	1752.453	1739.635
437.847	22.656	1743.636	1719.084
438.861	12.773	1717.187	1596.961
439.876	2.348	1697.907	1477.987
440.890	0.307	1693.700	1454.367
441.905	0.326	1691.914	1452.835
442.920	0.248	1691.134	1451.241
443.934	0.240	1688.938	1449.101
444.949	0.084	1688.320	1446.894
445.963	0.091	1687.162	1445.791
446.978	0.006	1686.934	1444.607
447.993	0.018	1685.420	1443.248
449.007	0.187	1682.138	1441.897
450.022	0.283	1679.815	1440.650
451.036	0.171	1679.061	1438.755
452.051	0.756	1682.756	1447.384
453.066	9.392	1703.946	1549.315
454.080	19.740	1721.643	1665.949
455.095	22.013	1724.781	1690.817
456.109	22.301	1723.744	1692.385
457.124	22.048	1723.049	1689.045
458.139	22.269	1722.781	1690.717
459.153	22.443	1721.338	1690.784
460.168	22.402	1719.442	1688.326
461.182	22.498	1717.785	1687.414
462.197	22.580	1716.557	1686.799
463.212	22.745	1715.893	1687.530
464.226	22.982	1714.485	1688.221
465.241	22.698	1713.321	1684.149
466.255	22.502	1711.410	1680.191
467.270	22.412	1710.605	1678.332
468.285	22.646	1709.586	1679.376
469.299	22.793	1708.233	1679.247
470.314	22.690	1705.447	1675.321
471.328	22.438	1704.315	1671.608
472.343	22.483	1703.757	1671.286
473.358	22.208	1702.241	1666.981
474.372	22.086	1700.011	1663.441
475.387	22.200	1699.139	1663.473
476.401	21.929	1697.377	1658.968
477.416	21.812	1695.433	1655.764
478.430	21.617	1694.246	1652.553
479.445	21.960	1693.639	1655.020
480.460	22.065	1692.732	1654.929
481.474	22.109	1691.876	1654.310
482.489	21.934	1690.428	1651.039
483.503	21.550	1687.919	1644.762
484.518	21.666	1685.911	1643.706
485.533	21.653	1684.617	1642.128
486.547	21.291	1682.708	1636.661
487.562	20.958	1680.990	1631.660
488.576	21.036	1680.323	1631.547
489.591	21.370	1679.215	1633.418
490.606	21.539	1678.439	1634.054
491.620	21.811	1676.388	1634.409
492.635	21.403	1673.959	1628.031
493.649	21.198	1672.735	1624.726
494.664	21.686	1673.277	1629.624
495.679	22.264	1672.839	1634.403
496.693	22.315	1672.032	1633.892
497.708	22.271	1669.541	1630.852
498.722	21.998	1667.992	1626.602
499.737	21.798	1666.984	1623.566
500.752	22.196	1666.981	1627.073
501.766	22.378	1665.716	1627.331
502.781	22.300	1662.636	1623.404
503.795	22.366	1661.452	1622.663
504.810	22.349	1661.292	1622.154
505.825	21.981	1660.562	1617.838
506.839	21.986	1659.309	1616.470
507.854	22.102	1656.762	1614.871
508.868	21.822	1655.899	1611.250
509.883	21.823	1654.346	1609.555
510.898	21.616	1652.276	1605.439
511.912	21.822	1650.778	1605.688
512.927	21.942	1649.428	1605.288
513.941	21.856	1648.520	1603.424
514.956	21.907	1647.265	1602.481
515.971	21.879	1644.598	1599.436
516.985	21.963	1644.207	1599.635
518.000	21.775	1643.974	1597.490
519.014	21.393	1642.479	1592.356
520.029	21.331	1640.598	1589.774
521.043	21.457	1638.825	1589.015
522.058	21.535	1639.032	1589.737
523.073	21.544	1637.347	1587.997
524.087	21.101	1635.703	1582.174
525.102	21.314	1635.006	1583.254
526.116	21.919	1635.369	1588.924
527.131	22.247	1634.445	1590.813
528.146	21.830	1631.915	1584.376
529.160	21.519	1629.558	1579.077
530.175	21.447	1628.919	1577.617
531.189	21.364	1627.744	1575.534
532.204	21.355	1625.837	1573.418
533.219	21.414	1625.961	1573.886
534.233	21.637	1625.368	1575.143
535.248	21.573	1623.041	1572.124
536.262	20.861	1621.203	1563.733
537.277	20.876	1619.875	1562.399
538.292	21.134	1618.524	1563.229
539.306	21.209	1616.226	1561.500
540.321	20.910	1615.328	1557.759
541.335	20.864	1613.994	1555.866
542.350	20.993	1612.771	1555.660
543.365	20.932	1610.650	1552.881
544.379	20.950	1608.962	1551.234
545.394	20.880	1607.969	1549.465
546.408	21.048	1608.765	1551.547
547.423	21.770	1608.405	1557.467
548.438	21.966	1607.254	1557.912
549.452	21.435	1605.528	1551.319
550.467	21.478	1603.746	1549.791
551.481	21.492	1603.199	1549.205
552.496	21.326	1601.331	1545.742
553.511	20.916	1599.710	1540.350
554.525	21.017	1598.951	1540.325
555.540	20.973	1598.453	1539.272
556.554	21.028	1597.431	1538.591
557.569	21.066	1595.340	1536.729
558.583	21.310	1594.013	1537.433
559.598	21.293	1593.125	1536.234
560.613	21.143	1592.160	1533.798
561.627	21.039	1590.297	1530.903
562.642	20.845	1588.408	1527.191
563.656	20.659	1586.589	1523.619
564.671	20.565	1585.110	1521.194
565.686	20.552	1584.485	1520.296
566.700	20.628	1584.062	1520.376
567.715	21.043	1581.761	1521.626
568.729	21.041	1580.572	1520.287
569.744	21.020	1579.261	1518.659
570.759	21.044	1577.969	1517.444
571.773	20.849	1577.577	1515.176
572.788	20.787	1575.945	1512.889
573.802	20.793	1574.242	1511.122
574.817	20.638	1572.329	1507.761
575.832	20.387	1570.798	1503.928
576.846	20.689	1569.873	1505.481
577.861	20.942	1569.020	1506.684
578.875	20.858	1569.325	1506.068
579.890	20.776	1567.889	1503.800
580.905	20.825	1566.391	1502.607
581.919	20.824	1565.231	1501.307
582.934	20.640	1564.409	1498.741
583.948	20.567	1563.057	1496.635
584.963	20.511	1562.262	1495.209
585.978	20.805	1561.530	1496.874
586.992	20.769	1559.175	1494.124
588.007	20.365	1558.354	1489.674
589.021	20.481	1557.542	1489.724
590.036	20.784	1555.912	1490.594
591.051	20.446	1554.925	1486.561
592.065	20.247	1553.244	1483.070
593.080	20.342	1550.662	1481.243
594.094	20.564	1549.080	1481.454
595.109	20.766	1549.245	1483.162
596.123	21.157	1548.546	1485.657
597.138	20.964	1547.016	1482.362
598.153	20.593	1545.998	1478.040
599.167	20.723	1543.505	1476.595
600.182	20.726	1542.568	1475.541
601.196	20.633	1542.606	1474.610
602.211	20.710	1540.594	1473.172
603.226	20.424	1539.262	1469.290
604.240	20.419	1538.201	1468.051
605.255	20.324	1536.603	1465.544
606.269	20.344	1536.263	1465.216
607.284	20.446	1535.392	1465.073
608.299	20.647	1533.278	1464.589
609.313	20.510	1533.115	1463.092
610.328	20.598	1531.976	1462.575
611.342	20.611	1529.707	1460.341
612.357	20.451	1527.934	1457.132
613.372	20.389	1527.517	1456.035
614.386	20.417	1526.111	1454.755
615.401	20.238	1525.665	1452.646
616.415	20.242	1524.328	1451.234
617.430	20.374	1523.062	1450.965
618.445	20.021	1522.349	1447.153
619.459	20.165	1521.585	1447.456
620.474	20.208	1521.303	1447.376
621.488	20.638	1520.011	1449.579
622.503	20.697	1518.514	1448.468
623.518	20.398	1516.944	1444.297
624.532	20.002	1515.574	1439.514
625.547	19.976	1513.937	1437.576
626.561	20.030	1512.395	1436.386
627.576	19.810	1512.104	1434.105
628.591	20.135	1511.129	1435.718
629.605	20.354	1510.028	1436.314
630.620	20.474	1508.563	1435.749
631.634	20.449	1508.415	1435.224
632.649	20.468	1507.034	1433.896
633.663	20.174	1504.724	1429.094
634.678	19.966	1503.505	1426.041
635.693	19.848	1501.845	1423.327
636.707	19.666	1500.561	1420.436
637.722	19.920	1499.154	1421.026
638.736	19.991	1498.200	1420.538
639.751	20.098	1497.501	1420.587
640.766	20.232	1495.791	1419.894
641.780	20.177	1494.907	1418.437
642.795	20.233	1494.729	1418.558
643.809	20.173	1493.617	1416.841
644.824	20.365	1492.313	1417.012
645.839	20.401	1491.461	1416.321
646.853	20.242	1490.469	1413.910
647.868	20.240	1489.186	1412.512
648.882	20.171	1487.388	1410.070
649.897	20.333	1486.175	1410.074
650.912	20.246	1484.691	1407.784
651.926	20.179	1483.662	1406.101
652.941	20.078	1483.052	1404.530
653.955	20.286	1481.494	1404.574
654.970	20.461	1480.670	1405.047
655.985	20.418	1479.361	1403.291
656.999	20.331	1477.577	1400.724
658.014	20.103	1476.320	1397.518
659.028	19.994	1474.801	1395.030
660.043	20.042	1474.587	1395.052
661.058	20.071	1473.193	1393.799
662.072	19.993	1471.564	1391.463
663.087	20.200	1470.806	1392.248
664.101	20.173	1470.344	1391.425
665.116	20.031	1469.628	1389.436
666.131	20.231	1467.798	1389.146
667.145	20.312	1466.167	1388.090
668.160	20.002	1465.589	1384.888
669.174	19.871	1463.593	1381.782
670.189	20.105	1462.139	1382.118
671.204	20.001	1462.758	1381.703
672.218	20.043	1462.204	1381.359
673.233	19.949	1460.204	1378.546
674.247	19.960	1457.994	1376.381
675.262	19.800	1457.248	1374.234
676.276	19.814	1456.282	1373.277
677.291	20.042	1455.865	1374.533
678.306	20.340	1454.596	1375.549
679.320	20.305	1453.149	1373.735
680.335	20.080	1453.214	1371.842
681.349	19.839	1452.763	1369.337
682.364	19.774	1451.597	1367.557
683.379	19.715	1449.964	1365.385
684.393	19.869	1448.054	1364.646
685.408	19.761	1446.540	1362.194
686.422	19.797	1445.462	1361.308
687.437	19.753	1444.511	1359.895
688.452	19.648	1444.260	1358.669
689.466	19.544	1442.882	1356.386
690.481	19.607	1441.532	1355.453
691.495	19.768	1440.891	1355.957
692.510	19.977	1440.327	1356.914
693.525	20.395	1438.218	1358.049
694.539	19.945	1437.143	1353.337
695.554	19.653	1436.592	1350.364
696.568	19.560	1435.253	1348.208
697.583	19.424	1434.045	1345.850
698.598	19.670	1432.925	1346.563
699.612	19.489	1431.591	1343.730
700.627	19.659	1430.866	1344.223
701.641	19.830	1429.784	1344.376
702.656	19.744	1428.629	1342.459
703.671	19.812	1428.023	1342.265
704.685	19.624	1427.986	1340.601
705.700	19.714	1426.189	1339.450
706.714	19.691	1425.153	1338.138
707.729	19.877	1423.905	1338.252
708.744	19.844	1422.517	1336.531
709.758	19.644	1421.505	1333.872
710.773	19.965	1419.908	1334.704
711.787	19.961	1418.589	1333.273
712.802	19.793	1417.755	1331.024
713.816	19.908	1416.459	1330.537
714.831	19.862	1415.496	1329.123
715.846	19.770	1413.281	1326.173
716.860	19.690	1412.877	1325.018
717.875	19.848	1412.170	1325.411
718.889	19.809	1411.459	1324.283
719.904	19.760	1410.109	1322.489
720.919	19.770	1407.846	1320.284
721.933	19.635	1407.851	1319.090
722.948	19.746	1406.976	1318.963
723.962	19.695	1405.672	1317.197
724.977	19.623	1404.811	1315.675
725.992	19.623	1403.680	1314.460
727.006	19.741	1402.246	1313.866
728.021	19.550	1401.121	1311.194
729.035	19.674	1399.683	1310.634
730.050	19.579	1399.501	1309.586
731.065	19.642	1398.127	1308.619
732.079	19.524	1396.442	1305.996
733.094	19.604	1396.068	1306.096
734.108	19.677	1395.033	1305.527
735.123	19.885	1392.407	1304.485
736.138	19.744	1391.447	1302.363
737.152	19.775	1390.632	1301.676
738.167	19.661	1389.739	1299.824
739.181	19.531	1388.819	1297.824
740.196	19.671	1387.426	1297.423
741.211	19.399	1387.671	1295.450
742.225	19.558	1386.753	1295.632
743.240	19.668	1384.360	1294.074
744.254	19.624	1382.786	1292.116
745.269	19.349	1382.943	1290.037
746.284	19.359	1382.128	1289.199
747.298	19.515	1380.610	1288.801
748.313	19.562	1380.046	1288.468
749.327	19.697	1379.238	1288.578
750.342	19.984	1379.255	1290.589
751.356	20.144	1378.521	1290.942
752.371	19.974	1376.729	1287.838
753.386	19.617	1375.103	1283.498
754.400	19.482	1374.020	1281.325
755.415	19.500	1372.705	1280.083
756.429	19.567	1370.906	1278.750
757.444	19.505	1370.348	1277.618
758.459	19.621	1368.881	1276.952
759.473	19.575	1368.378	1275.989
760.488	19.469	1367.725	1274.445
761.502	19.450	1366.100	1272.638
762.517	19.404	1365.495	1271.581
763.532	19.507	1364.198	1270.981
764.546	19.661	1362.526	1270.408
765.561	19.819	1362.119	1271.047
766.575	19.931	1362.075	1271.678
767.590	20.021	1361.291	1271.460
768.605	19.719	1359.571	1267.476
769.619	19.713	1357.606	1265.444
770.634	19.559	1356.917	1263.517
771.648	19.430	1355.774	1261.360
772.663	19.282	1355.615	1259.971
773.678	19.305	1354.462	1258.918
774.692	19.482	1352.612	1258.341
775.707	19.510	1352.617	1258.404
776.721	19.466	1351.531	1256.922
777.736	19.535	1350.238	1256.071
778.751	19.590	1349.190	1255.350
779.765	19.474	1348.044	1253.283
780.780	19.444	1347.603	1252.507
781.794	19.532	1346.349	1251.832
782.809	19.373	1345.619	1249.843
783.824	19.192	1344.496	1247.336
784.838	19.341	1343.445	1247.298
785.853	19.586	1343.153	1248.656
786.867	19.389	1342.369	1246.346
787.882	19.380	1341.529	1245.348
788.897	19.415	1340.356	1244.368
789.911	19.296	1339.090	1242.184
790.926	19.184	1337.174	1239.446
791.940	19.343	1335.528	1238.918
792.955	19.329	1334.406	1237.631
793.969	19.345	1333.276	1236.550
794.984	19.234	1333.223	1235.554
795.999	19.236	1332.417	1234.667
797.013	19.176	1330.908	1232.691
798.028	19.169	1329.898	1231.558
799.042	19.134	1329.189	1230.502
800.057	19.400	1327.308	1230.522
801.072	19.342	1325.407	1228.198
802.086	19.387	1324.851	1227.858
803.101	19.379	1323.309	1226.228
804.115	19.351	1322.465	1225.096
805.130	19.324	1321.660	1224.015
806.145	19.339	1320.714	1223.098
807.159	19.490	1319.468	1222.871
808.174	19.459	1318.217	1221.345
809.188	19.509	1317.231	1220.642
810.203	19.500	1315.995	1219.286
811.218	19.503	1314.838	1218.089
812.232	19.692	1313.340	1217.895
813.247	19.679	1312.709	1217.072
814.261	19.532	1312.275	1215.479
815.276	19.432	1310.526	1213.007
816.291	19.202	1309.927	1210.689
817.305	19.332	1308.605	1210.236
818.320	19.443	1306.679	1209.091
819.334	19.279	1305.896	1207.065
820.349	19.370	1304.617	1206.378
821.364	19.353	1303.258	1204.862
822.378	19.304	1301.434	1202.688
823.393	19.227	1299.931	1200.612
824.407	19.290	1299.143	1200.183
825.422	19.144	1298.896	1198.791
826.437	19.202	1298.084	1198.304
827.451	19.265	1296.292	1196.943
828.466	19.391	1295.750	1197.179
829.480	19.583	1293.858	1196.630
830.495	19.469	1291.511	1193.518
831.509	19.195	1290.815	1190.828
832.524	19.123	1290.106	1189.531
833.539	19.291	1288.867	1189.414
834.553	19.303	1287.203	1187.823
835.568	19.266	1286.585	1186.851
836.582	19.427	1285.379	1186.709
837.597	19.461	1283.837	1185.381
838.612	19.352	1283.089	1183.796
839.626	19.386	1281.721	1182.628
840.641	19.680	1280.523	1183.401
841.655	19.483	1280.630	1182.001
842.670	19.815	1280.271	1183.812
843.685	19.952	1278.679	1183.139
844.699	19.857	1276.794	1180.608
845.714	19.577	1275.396	1177.251
846.728	19.482	1275.162	1176.243
847.743	19.280	1274.539	1174.147
848.758	19.461	1272.400	1173.275
849.772	19.381	1271.122	1171.409
850.787	19.425	1269.390	1169.970
851.801	19.292	1268.573	1168.172
852.816	19.237	1267.354	1166.536
853.831	19.182	1265.211	1164.050
854.845	19.188	1264.036	1162.871
855.860	19.281	1263.010	1162.415
856.874	19.099	1261.878	1160.004
857.889	19.301	1261.093	1160.514
858.904	19.498	1259.744	1160.460
859.918	19.571	1258.463	1159.634
860.933	19.668	1257.128	1158.922
861.947	19.628	1255.642	1157.145
862.962	19.555	1253.765	1154.786
863.977	19.445	1253.172	1153.364
864.991	19.161	1252.496	1150.696
866.006	19.195	1252.513	1150.800
867.020	19.188	1251.152	1149.367
868.035	19.120	1250.050	1147.757
869.049	19.184	1249.307	1147.366
870.064	19.272	1247.715	1146.354
871.079	19.388	1246.843	1146.192
872.093	19.269	1246.900	1145.313
873.108	19.520	1245.684	1145.733
874.122	19.640	1244.592	1145.394
875.137	19.554	1244.839	1144.909
876.152	19.776	1243.594	1145.107
877.166	19.780	1241.076	1142.676
878.181	19.505	1240.489	1140.172
879.195	19.523	1239.531	1139.278
880.210	19.413	1238.386	1137.359
881.225	19.333	1237.494	1135.873
882.239	19.343	1236.919	1135.276
883.254	19.343	1236.164	1134.449
884.268	19.392	1235.255	1133.801
885.283	19.352	1233.904	1132.159
886.298	19.364	1231.758	1130.137
887.312	19.420	1230.930	1129.611
888.327	19.505	1230.112	1129.283
889.341	19.275	1228.902	1126.522
890.356	19.342	1228.285	1126.264
891.371	19.327	1228.331	1126.070
892.385	19.351	1227.714	1125.529
893.400	19.192	1227.054	1123.746
894.414	19.432	1224.853	1123.168
895.429	19.444	1223.574	1121.940
896.444	19.660	1222.553	1122.279
897.458	20.089	1221.664	1124.124
898.473	19.716	1220.746	1120.718
899.487	19.790	1219.322	1119.759
900.502	19.560	1218.005	1116.919
901.517	19.477	1217.038	1115.357
902.531	19.394	1216.042	1113.771
903.546	19.429	1215.475	1113.349
904.560	19.572	1214.290	1113.056
905.575	19.509	1213.668	1111.942
906.589	19.552	1213.142	1111.606
907.604	19.556	1212.547	1110.955
