DTS Sentinel unit serial number:	SN409020Multiplexer serial number:	ORYXHardware model number:	OX4-SRSoftware version number:	ORYX F/W v3.00 Oryx Data Collector v3.7.2.0data status	okinstallation	HaddamTimeLapsedifferential loss correction	single-endedforward channel	channel 3reverse channel	N/Adate	2011/06/21time	15:36:17forward acquisition time	30.00reverse acquisition time	0.00gamma	498.7831k internal	0.1811k external	0.1811temperature offset calibration	1.0074default loss term (dB/km)	0.3790temperature slope calibration	1.3530multiplexer offset coefficient	1.0000multiplexer slope coefficient	1.0000fibre end	0.00T internal ref (°C)	37.22T ext. ref 1 (°C)	27.96T ext. ref 2 (°C)	0.24length (m)	temperature (°C)	Stokes	anti-Stokes-747.200	253.186	-0.148	-0.325
-746.185	330.742	0.157	0.389
-745.171	-28.153	-0.457	-0.339
-744.156	368.469	0.213	0.555
-743.142	800.000	0.087	-0.332
-742.127	-200.000	0.050	0.562
-741.112	60.758	0.057	-0.072
-740.098	41.086	0.556	0.645
-739.083	182.197	0.265	0.503
-738.069	141.102	0.200	0.341
-737.054	-128.270	-0.661	0.120
-736.039	119.485	-0.421	0.670
-735.025	-98.082	0.090	-0.030
-734.010	-86.400	0.269	0.106
-732.996	-29.190	-0.342	0.251
-731.981	-200.000	-0.032	0.275
-730.966	241.708	0.180	-0.389
-729.952	-58.757	0.386	0.214
-728.937	40.285	0.193	0.223
-727.923	-182.930	-0.350	0.008
-726.908	-200.000	0.042	-0.744
-725.894	800.000	-0.116	-0.430
-724.879	120.618	0.143	-0.229
-723.864	13.517	-0.100	-0.099
-722.850	-30.836	-0.371	-0.269
-721.835	-200.000	0.074	0.434
-720.821	-200.000	-0.021	-0.208
-719.806	136.115	0.168	-0.281
-718.791	-71.886	-0.416	-0.198
-717.777	123.552	-0.163	0.262
-716.762	-200.000	-0.000	-0.479
-715.748	-116.282	-0.153	-0.036
-714.733	-200.000	-0.036	0.466
-713.718	-170.403	0.686	0.030
-712.704	-84.444	0.433	-0.175
-711.689	33.706	0.145	0.162
-710.675	-67.093	0.502	-0.253
-709.660	-104.672	0.300	-0.088
-708.645	-11.111	-0.041	0.035
-707.631	-200.000	0.010	0.341
-706.616	-69.869	0.131	0.064
-705.602	-115.049	-0.480	0.116
-704.587	41.091	0.240	-0.278
-703.572	7.902	-0.141	-0.136
-702.558	34.657	0.093	-0.105
-701.543	683.446	-0.090	-0.302
-700.529	-22.555	-0.073	0.057
-699.514	105.741	-0.284	0.432
-698.499	38.161	0.318	-0.362
-697.485	-15.276	0.318	-0.261
-696.470	-61.884	0.306	0.163
-695.456	-99.478	-0.060	0.019
-694.441	-116.696	-0.238	0.056
-693.426	-106.575	0.236	-0.067
-692.412	149.421	-0.110	0.192
-691.397	-200.000	-0.008	0.138
-690.383	-76.234	-0.546	-0.246
-689.368	-29.866	0.156	0.114
-688.354	-34.232	-0.222	-0.156
-687.339	-97.490	-0.496	-0.164
-686.324	13.265	0.110	0.109
-685.310	216.429	0.255	-0.520
-684.295	-200.000	-0.005	-0.041
-683.281	-127.044	-0.387	0.072
-682.266	3.214	-0.191	0.178
-681.251	-87.540	-0.226	-0.087
-680.237	-67.288	0.116	-0.058
-679.222	126.569	0.217	-0.353
-678.208	-39.040	0.080	-0.054
-677.193	206.318	-0.233	-0.467
-676.178	-200.000	-0.010	0.396
-675.164	-86.075	-0.103	-0.040
-674.149	800.000	0.015	-0.078
-673.135	-39.425	-0.309	0.207
-672.120	85.245	0.187	0.263
-671.105	165.999	0.056	0.101
-670.091	83.230	0.167	0.233
-669.076	78.120	0.090	0.124
-668.062	373.857	-0.111	-0.289
-667.047	-50.868	0.038	0.023
-666.032	147.648	0.181	-0.313
-665.018	-46.872	-0.182	0.114
-664.003	-90.917	0.324	0.119
-662.989	298.731	0.041	-0.097
-661.974	800.000	-0.067	0.266
-660.959	-129.908	-0.150	-0.026
-659.945	-49.308	0.227	0.138
-658.930	-155.366	0.392	0.032
-657.916	-163.964	0.625	0.037
-656.901	321.353	0.209	0.511
-655.886	112.834	0.207	-0.321
-654.872	-142.612	-0.944	0.117
-653.857	-200.000	0.075	0.603
-652.843	-110.590	0.194	-0.051
-651.828	570.927	0.034	0.108
-650.814	-3.778	-0.157	0.139
-649.799	-200.000	-0.033	-0.226
-648.784	800.000	-0.138	0.534
-647.770	194.261	-0.131	0.256
-646.755	-175.934	0.054	0.002
-645.741	29.820	-0.102	0.111
-644.726	-167.606	0.444	-0.022
-643.711	-200.000	0.001	0.018
-642.697	2.115	-0.455	-0.420
-641.682	800.000	-0.121	0.504
-640.668	147.076	0.101	-0.174
-639.653	-104.653	-0.368	0.108
-638.638	800.000	0.086	-0.321
-637.624	-121.625	-0.481	-0.101
-636.609	-20.414	-0.203	-0.160
-635.595	-159.591	-0.148	0.010
-634.580	150.249	0.067	-0.116
-633.565	796.889	-0.026	0.093
-632.551	260.990	-0.113	-0.251
-631.536	-58.087	-0.303	0.168
-630.522	-139.838	-0.323	0.043
-629.507	-147.860	0.222	-0.023
-628.492	123.171	0.239	-0.383
-627.478	23.973	-0.153	0.161
-626.463	765.753	0.086	0.300
-625.449	82.598	-0.222	-0.309
-624.434	371.624	0.052	0.135
-623.419	-123.986	-0.200	0.040
-622.405	-4.331	-0.172	-0.152
-621.390	-118.148	-0.317	0.072
-620.376	-180.009	0.302	0.008
-619.361	21.587	-0.331	-0.344
-618.346	207.420	0.172	0.344
-617.332	-11.679	-0.138	0.116
-616.317	-72.234	-0.031	-0.015
-615.303	-112.365	-0.371	0.094
-614.288	-200.000	-0.024	0.450
-613.273	-124.211	0.197	0.039
-612.259	-187.030	-0.238	0.004
-611.244	-118.736	-0.352	0.079
-610.230	335.266	-0.123	0.306
-609.215	234.303	0.048	-0.101
-608.201	248.002	0.234	-0.507
-607.186	-72.011	-0.315	-0.149
-606.171	-135.090	-0.356	-0.054
-605.157	16.597	-0.201	0.203
-604.142	695.752	0.097	0.326
-603.128	586.223	0.234	0.741
-602.113	204.094	0.114	0.226
-601.098	800.000	-0.077	-0.388
-600.084	-100.848	-0.152	-0.047
-599.069	-0.870	-0.150	0.135
-598.055	55.071	0.192	0.237
-597.040	-20.517	0.346	0.271
-596.025	-164.064	-0.110	0.006
-595.011	267.054	-0.102	-0.227
-593.996	-10.954	0.113	0.095
-592.982	-70.112	0.274	-0.132
-591.967	78.033	-0.373	-0.508
-590.952	561.338	-0.115	-0.358
-589.938	12.205	-0.148	0.146
-588.923	800.000	0.070	-0.253
-587.909	-72.209	-0.184	0.087
-586.894	-26.485	0.280	0.209
-585.879	73.878	-0.220	-0.295
-584.865	-126.033	0.353	-0.067
-583.850	-200.000	0.004	0.074
-582.836	-118.477	-0.362	-0.081
-581.821	742.860	-0.107	-0.369
-580.806	-91.597	-0.343	0.124
-579.792	-200.000	-0.015	0.102
-578.777	-118.135	0.122	0.028
-577.763	356.020	-0.058	0.149
-576.748	-200.000	-0.082	0.515
-575.733	-60.235	-0.153	-0.083
-574.719	-106.484	0.117	-0.033
-573.704	177.188	0.086	0.160
-572.690	-93.168	0.254	-0.089
-571.675	261.321	0.079	-0.174
-570.661	-176.056	-0.270	-0.009
-569.646	414.591	-0.115	0.313
-568.631	795.631	0.046	-0.162
-567.617	790.058	0.192	-0.676
-566.602	208.181	-0.176	-0.353
-565.588	200.341	-0.127	-0.250
-564.573	260.035	0.119	0.262
-563.558	-9.181	-0.204	-0.174
-562.544	-49.483	0.243	-0.147
-561.529	138.943	0.188	-0.316
-560.515	-57.559	0.310	-0.173
-559.500	-43.924	0.229	-0.147
-558.485	-37.383	-0.202	0.137
-557.471	76.387	-0.086	-0.116
-556.456	-85.679	-0.260	-0.102
-555.442	800.000	0.037	-0.146
-554.427	-200.000	0.412	0.001
-553.412	142.195	0.119	-0.202
-552.398	-84.356	0.625	0.251
-551.383	-200.000	0.551	-0.000
-550.369	-200.000	0.005	-0.204
-549.354	28.439	0.350	-0.377
-548.339	297.780	-0.092	-0.216
-547.325	102.401	-0.373	0.557
-546.310	-80.424	0.171	0.072
-545.296	-101.396	-0.319	-0.099
-544.281	86.387	-0.205	-0.288
-543.266	800.000	-0.058	0.257
-542.252	-200.000	0.018	0.469
-541.237	148.049	-0.129	0.223
-540.223	742.411	-0.131	0.451
-539.208	-17.078	0.520	-0.417
-538.193	150.529	-0.268	-0.465
-537.179	54.974	0.177	-0.218
-536.164	-200.000	0.031	-0.303
-535.150	237.654	0.247	-0.524
-534.135	-85.903	-0.449	-0.176
-533.121	800.000	-0.057	0.257
-532.106	228.439	-0.213	-0.444
-531.091	800.000	0.058	0.210
-530.077	800.000	0.076	-0.384
-529.062	-73.187	0.178	0.083
-528.048	-6.669	-0.106	0.092
-527.033	122.774	0.132	-0.211
-526.018	181.805	0.057	-0.106
-525.004	59.164	0.302	0.379
-523.989	-200.000	0.005	0.158
-522.975	800.000	0.081	-0.413
-521.960	49.943	0.353	0.424
-520.945	408.636	0.117	-0.318
-519.931	-115.792	-0.197	-0.047
-518.916	37.372	0.085	0.096
-517.902	-20.531	0.275	0.215
-516.887	-200.000	0.021	0.137
-515.872	85.358	0.121	0.169
-514.858	-102.210	-0.380	0.116
-513.843	-34.007	-0.135	0.094
-512.829	751.568	0.095	-0.327
-511.814	-200.000	0.009	0.156
-510.799	-200.000	0.039	-0.454
-509.785	-22.835	-0.231	0.177
-508.770	-56.178	-0.196	-0.111
-507.756	-200.000	0.019	-0.259
-506.741	152.922	-0.129	-0.225
-505.726	31.341	0.486	0.531
-504.712	-93.531	0.238	-0.083
-503.697	-95.533	0.285	-0.097
-502.683	65.919	0.130	-0.169
-501.668	-166.991	0.531	-0.027
-500.653	315.988	-0.087	0.210
-499.639	-82.112	0.752	0.311
-498.624	800.000	-0.049	0.265
-497.610	402.521	-0.106	0.286
-496.595	-138.396	0.494	0.069
-495.581	-105.239	-0.588	0.169
-494.566	37.007	-0.086	-0.096
-493.551	-59.078	-0.262	0.143
-492.537	-200.000	0.001	-0.056
-491.522	83.498	0.212	-0.294
-490.508	-30.089	0.229	0.165
-489.493	-160.481	-0.214	-0.014
-488.478	-65.238	0.350	0.179
-487.464	-25.275	-0.244	-0.184
-486.449	118.949	-0.260	0.409
-485.435	-67.890	-0.104	-0.051
-484.420	-133.887	0.383	-0.060
-483.405	171.037	-0.151	0.276
-482.391	10.894	-0.539	0.523
-481.376	-200.000	0.019	-0.262
-480.362	-26.610	-0.125	0.093
-479.347	245.807	0.016	-0.035
-478.332	-200.000	-0.018	-0.234
-477.318	69.827	-0.211	-0.277
-476.303	-10.223	0.260	-0.219
-475.289	-200.000	-0.053	-0.396
-474.274	-183.201	-0.097	0.002
-473.259	-50.821	0.389	0.232
-472.245	23.720	0.137	0.144
-471.230	-31.889	-0.215	0.153
-470.216	-144.015	-0.278	0.033
-469.201	-110.349	0.155	0.041
-468.186	320.884	-0.114	-0.276
-467.172	69.553	0.363	-0.476
-466.157	-110.333	-0.062	-0.016
-465.143	160.715	0.304	0.540
-464.128	-83.526	-0.543	0.220
-463.113	-97.936	-0.543	-0.177
-462.099	344.951	-0.139	-0.349
-461.084	-138.566	0.593	-0.082
-460.070	-94.178	-0.128	0.044
-459.055	-32.347	0.566	0.400
-458.040	302.740	0.025	0.059
-457.026	116.142	-0.071	-0.111
-456.011	-156.562	-0.034	0.003
-454.997	-145.654	0.715	-0.080
-453.982	784.573	0.106	0.373
-452.968	-162.748	-0.579	-0.035
-451.953	800.000	0.104	-0.425
-450.938	-200.000	0.000	-0.337
-449.924	-137.148	-0.093	0.013
-448.909	-47.370	-0.173	0.106
-447.895	800.000	0.052	0.185
-446.880	-21.639	0.119	0.092
-445.865	483.190	0.193	0.559
-444.851	158.633	-0.171	-0.303
-443.836	117.479	-0.127	0.199
-442.822	186.657	0.076	-0.144
-441.807	8.168	-0.152	0.145
-440.792	94.550	0.321	0.463
-439.778	112.965	0.065	-0.100
-438.763	106.030	-0.060	-0.090
-437.749	-200.000	-0.071	0.456
-436.734	-200.000	-0.009	0.237
-435.719	800.000	-0.040	-0.180
-434.705	94.781	0.055	0.080
-433.690	220.340	-0.058	0.118
-432.676	-177.665	0.743	-0.022
-431.661	-36.079	0.069	-0.047
-430.646	-200.000	0.046	-0.314
-429.632	130.466	0.241	0.393
-428.617	139.770	-0.151	-0.253
-427.603	-50.376	-0.154	-0.092
-426.588	-55.239	-0.261	0.148
-425.573	82.199	0.201	0.277
-424.559	-68.773	0.150	0.073
-423.544	-200.000	0.046	0.623
-422.530	-118.118	-0.489	0.110
-421.515	-200.000	0.009	-0.381
-420.500	-111.410	-0.424	-0.109
-419.486	-18.962	-0.292	-0.230
-418.471	17.380	-0.209	0.210
-417.457	-200.000	0.013	-0.078
-416.442	-1.854	-0.295	-0.263
-415.428	511.800	-0.089	-0.265
-414.413	-120.617	0.446	-0.095
-413.398	346.896	-0.166	0.417
-412.384	136.587	-0.283	0.469
-411.369	-179.090	-0.101	-0.003
-410.355	58.864	0.255	0.318
-409.340	12.802	-0.290	0.284
-408.325	-59.394	-0.580	-0.315
-407.311	-200.000	-0.014	0.162
-406.296	-83.945	0.087	0.035
-405.282	647.080	0.025	-0.082
-404.267	-200.000	-0.050	-0.575
-403.252	42.155	0.192	-0.222
-402.238	783.460	-0.100	0.349
-401.223	-200.000	-0.003	0.342
-400.209	34.168	-0.201	-0.222
-399.194	116.606	0.332	0.517
-398.179	25.554	0.246	0.259
-397.165	-19.405	0.255	0.200
-396.150	-73.042	-0.048	-0.022
-395.136	-200.000	0.022	0.255
-394.121	194.968	0.020	0.039
-393.106	394.315	0.106	0.280
-392.092	151.247	-0.475	0.821
-391.077	-200.000	0.014	0.403
-390.063	58.589	0.127	0.158
-389.048	-200.000	-0.031	-0.675
-388.033	47.883	-0.289	-0.342
-387.019	12.975	0.137	0.134
-386.004	8.050	-0.259	-0.246
-384.990	-151.594	-0.731	-0.068
-383.975	110.537	-0.329	-0.501
-382.960	44.024	0.082	-0.095
-381.946	-200.000	-0.021	-0.122
-380.931	-177.799	-0.368	0.011
-379.917	776.419	0.120	0.417
-378.902	-98.851	0.495	-0.158
-377.888	133.726	-0.192	-0.315
-376.873	-112.087	-0.448	0.113
-375.858	-200.000	-0.010	0.124
-374.844	-50.965	-0.344	0.204
-373.829	48.594	0.068	0.080
-372.815	258.612	0.123	-0.269
-371.800	113.563	-0.270	-0.417
-370.785	-186.550	0.336	0.006
-369.771	206.373	0.033	0.066
-368.756	-74.526	-0.390	-0.177
-367.742	-64.234	-0.474	-0.244
-366.727	421.813	0.217	0.592
-365.712	177.350	0.056	0.104
-364.698	332.063	-0.018	0.043
-363.683	-88.203	0.447	-0.168
-362.669	3.538	0.259	-0.239
-361.654	-123.895	0.081	-0.016
-360.639	103.224	-0.193	-0.287
-359.625	-42.973	-0.107	0.068
-358.610	-146.867	0.110	-0.012
-357.596	-21.689	-0.076	-0.058
-356.581	13.781	-0.200	0.197
-355.566	-91.323	-0.242	0.087
-354.552	-116.894	-0.071	0.016
-353.537	521.218	0.152	0.454
-352.523	-59.952	0.377	-0.203
-351.508	90.770	-0.234	-0.333
-350.493	-9.259	-0.066	-0.056
-349.479	4.868	-0.016	-0.015
-348.464	663.890	0.114	0.373
-347.450	-200.000	-0.002	0.171
-346.435	800.000	-0.048	-0.205
-345.420	267.403	0.237	0.526
-344.406	246.682	0.159	0.340
-343.391	2.795	0.399	0.366
-342.377	110.667	0.201	0.307
-341.362	216.462	0.156	0.314
-340.348	-96.552	0.370	-0.123
-339.333	14.777	0.090	-0.089
-338.318	-73.391	-0.154	-0.071
-337.304	-118.967	0.289	-0.064
-336.289	-29.978	-0.156	-0.112
-335.275	701.325	0.041	0.137
-334.260	-60.682	0.358	-0.191
-333.245	122.609	-0.150	-0.238
-332.231	-106.587	0.283	0.079
-331.216	-55.308	-0.138	-0.078
-330.202	-200.000	0.032	-0.223
-329.187	31.080	-0.187	-0.202
-328.172	-123.714	-0.337	0.067
-327.158	57.275	0.267	0.329
-326.143	-3.082	0.119	0.105
-325.129	-146.715	0.415	-0.045
-324.114	22.802	0.267	-0.277
-323.099	-105.491	-0.309	0.088
-322.085	-126.811	0.307	-0.057
-321.070	74.303	-0.085	-0.113
-320.056	207.550	0.218	-0.431
-319.041	-200.000	-0.008	0.121
-318.026	-133.025	-0.259	0.041
-317.012	800.000	0.073	-0.346
-315.997	142.907	0.081	-0.136
-314.983	69.513	-0.184	-0.239
-313.968	-129.254	0.560	-0.098
-312.953	-200.000	0.040	-0.244
-311.939	-63.933	-0.063	0.033
-310.924	-87.488	-0.129	0.049
-309.910	-90.617	-0.185	0.067
-308.895	26.630	-0.064	-0.067
-307.880	-75.782	0.067	-0.030
-306.866	-36.689	-0.203	0.137
-305.851	800.000	0.027	0.097
-304.837	-37.505	-0.076	-0.051
-303.822	-67.338	0.045	-0.022
-302.807	-155.295	0.217	0.018
-301.793	-143.797	-0.562	0.066
-300.778	-144.944	-0.356	-0.041
-299.764	53.304	-0.325	-0.393
-298.749	-110.496	-0.313	0.081
-297.735	124.704	0.096	0.153
-296.720	-79.550	-0.073	0.031
-295.705	238.684	-0.098	-0.207
-294.691	-66.195	0.075	0.038
-293.676	-55.354	-0.277	-0.156
-292.662	-54.826	0.302	-0.172
-291.647	-6.716	0.335	-0.287
-290.632	9.508	-0.274	-0.262
-289.618	25.427	0.197	0.207
-288.603	-91.515	0.612	-0.219
-287.589	704.697	-0.078	-0.260
-286.574	-23.149	0.034	-0.026
-285.559	-52.255	0.478	0.278
-284.545	378.206	-0.089	-0.230
-283.530	-37.745	-0.265	-0.178
-282.516	-69.878	-0.506	0.243
-281.501	-110.712	0.283	-0.073
-280.486	26.716	0.130	-0.138
-279.472	-191.955	0.166	-0.002
-278.457	-56.799	0.199	0.111
-277.443	800.000	-0.013	0.062
-276.428	662.400	0.059	0.193
-275.413	-110.138	-0.134	0.035
-274.399	190.356	0.084	-0.160
-273.384	-17.775	0.317	-0.251
-272.370	800.000	-0.031	-0.164
-271.355	21.378	-0.338	-0.346
-270.340	51.273	0.093	-0.111
-269.326	-200.000	-0.085	-0.489
-268.311	285.146	0.157	-0.358
-267.297	-103.078	-0.265	0.079
-266.282	-81.878	-0.287	0.118
-265.267	-104.015	0.196	-0.057
-264.253	-41.889	-0.369	0.238
-263.238	-86.496	-0.255	0.098
-262.224	307.968	0.055	-0.130
-261.209	-65.098	-0.179	-0.091
-260.195	205.446	0.180	-0.354
-259.180	-25.716	-0.259	-0.192
-258.165	153.615	-0.290	-0.502
-257.151	-63.467	-0.536	-0.277
-256.136	-200.000	-0.035	0.779
-255.122	-108.583	0.114	-0.031
-254.107	60.210	-0.302	0.377
-253.092	159.538	0.321	0.564
-252.078	-117.818	0.528	0.119
-251.063	258.717	0.236	0.515
-250.049	-200.000	0.005	-0.111
-249.034	295.341	0.218	-0.504
-248.019	800.000	-0.008	0.037
-247.005	-27.125	-0.192	-0.141
-245.990	142.483	0.085	-0.143
-244.976	800.000	0.089	-0.365
-243.961	84.521	0.221	-0.305
-242.946	55.797	0.313	-0.383
-241.932	467.075	-0.052	0.146
-240.917	269.363	-0.098	0.217
-239.903	-144.122	0.197	0.023
-238.888	-200.000	-0.030	0.358
-237.873	-200.000	-0.008	-0.211
-236.859	-26.610	0.255	0.188
-235.844	-200.000	-0.027	-0.203
-234.830	-200.000	0.050	0.431
-233.815	-129.545	0.493	0.085
-232.800	335.553	0.075	0.185
-231.786	463.933	0.131	-0.370
-230.771	-22.594	-0.216	-0.164
-229.757	-140.045	0.248	-0.032
-228.742	-20.130	0.304	0.235
-227.727	200.769	0.229	-0.445
-226.713	-86.564	-0.375	0.144
-225.698	-65.444	0.315	0.159
-224.684	13.333	-0.191	0.186
-223.669	-52.486	-0.200	-0.116
-222.655	49.537	-0.089	-0.106
-221.640	26.963	0.167	0.176
-220.625	-200.000	0.082	0.538
-219.611	-18.362	0.314	0.247
-218.596	-200.000	0.000	-0.698
-217.582	3.651	0.047	-0.043
-216.567	-200.000	-0.014	-0.360
-215.552	-136.847	0.196	0.028
-214.538	612.975	-0.207	-0.657
-213.523	203.767	0.137	0.268
-212.509	-147.186	0.182	0.019
-211.494	11.313	-0.190	-0.183
-210.479	800.000	-0.069	-0.283
-209.465	-33.794	0.260	0.180
-208.450	-200.000	-0.017	-0.272
-207.436	71.989	-0.123	-0.161
-206.421	145.278	-0.071	0.121
-205.406	27.293	-0.023	-0.025
-204.392	-77.066	-0.248	0.108
-203.377	800.000	-0.069	0.284
-202.363	-55.767	0.325	0.182
-201.348	11.560	0.093	-0.090
-200.333	-117.360	0.132	0.030
-199.319	-96.997	0.364	0.119
-198.304	-50.947	0.321	-0.189
-197.290	-168.949	0.031	0.001
-196.275	-94.233	0.546	-0.187
-195.260	-71.778	0.410	0.192
-194.246	-139.850	0.261	-0.034
-193.231	84.251	0.071	0.098
-192.217	29.191	0.353	0.377
-191.202	-200.000	0.015	0.128
-190.187	-140.762	-0.448	0.057
-189.173	-64.470	-0.582	-0.296
-188.158	66.168	-0.177	0.226
-187.144	141.535	0.025	0.041
-186.129	-6.145	-0.463	0.397
-185.114	58.544	0.160	0.198
-184.100	-200.000	0.021	-0.195
-183.085	92.064	-0.105	-0.149
-182.071	-68.066	0.171	0.083
-181.056	-72.427	0.082	0.038
-180.042	28.802	-0.149	-0.159
-179.027	-65.772	-0.099	-0.050
-178.012	-1.710	-0.112	0.099
-176.998	-200.000	0.013	-0.197
-175.983	4.517	-0.491	-0.452
-174.969	42.726	-0.236	-0.270
-173.954	-14.978	-0.426	0.343
-172.939	69.435	-0.266	-0.344
-171.925	129.909	-0.420	0.676
-170.910	-141.490	0.762	-0.096
-169.896	-108.963	-0.208	0.055
-168.881	-82.638	0.378	-0.153
-167.866	9.302	0.318	-0.301
-166.852	528.275	-0.195	0.581
-165.837	301.067	0.107	0.249
-164.823	84.436	-0.069	-0.095
-163.808	-166.568	0.345	0.018
-162.793	-47.401	0.309	-0.188
-161.779	800.000	0.060	-0.222
-160.764	-116.016	-0.246	-0.057
-159.750	-63.698	-0.421	0.216
-158.735	-83.684	0.297	0.119
-157.720	-133.834	0.320	0.049
-156.706	-200.000	0.006	0.284
-155.691	-2.916	-0.362	0.317
-154.677	-200.000	-0.011	0.276
-153.662	-61.131	-0.326	0.172
-152.647	800.000	0.045	0.170
-151.633	450.599	0.171	0.475
-150.618	292.082	-0.163	-0.374
-149.604	-200.000	0.014	-0.262
-148.589	-200.000	0.010	-0.470
-147.574	197.632	0.140	-0.269
-146.560	-200.000	-0.017	-0.352
-145.545	-159.890	0.209	-0.014
-144.531	-104.547	-0.322	-0.093
-143.516	-49.320	-0.211	0.126
-142.502	-23.584	-0.413	-0.311
-141.487	166.716	0.328	-0.586
-140.472	75.467	0.185	-0.245
-139.458	-6.005	0.405	0.347
-138.443	-102.791	-0.191	0.057
-137.429	-129.927	-0.397	0.068
-136.414	-122.537	-0.329	0.066
-135.399	-125.568	-0.177	-0.033
-134.385	-116.857	-0.142	-0.032
-133.370	-111.271	-0.473	-0.120
-132.356	-148.517	-0.475	-0.048
-131.341	-200.000	0.014	-0.449
-130.326	-93.869	0.116	0.040
-129.312	800.000	0.070	0.308
-128.297	45.755	0.219	-0.254
-127.283	-200.000	0.033	0.326
-126.268	87.362	-0.276	0.383
-125.253	18.777	-0.442	0.443
-124.239	-31.854	-0.223	0.156
-123.224	-41.858	-0.418	0.268
-122.210	60.821	0.282	-0.351
-121.195	-135.919	-0.815	-0.119
-120.180	149.032	0.175	0.297
-119.166	-118.075	0.274	-0.061
-118.151	402.860	0.058	0.154
-117.137	556.239	-0.026	0.079
-116.122	-63.360	-0.198	-0.102
-115.107	225.633	-0.091	-0.184
-114.093	-108.946	-0.598	0.159
-113.078	11.962	-0.256	-0.246
-112.064	119.938	0.172	-0.267
-111.049	736.408	0.123	-0.417
-110.034	240.843	-0.142	-0.299
-109.020	46.411	-0.306	-0.356
-108.005	-10.074	0.299	-0.249
-106.991	800.000	-0.012	0.063
-105.976	-49.448	-0.163	-0.097
-104.962	-110.873	-0.239	0.061
-103.947	-73.607	-0.413	0.188
-102.932	-83.928	0.272	-0.108
-101.918	-200.000	0.064	-0.569
-100.903	800.000	0.076	-0.419
-99.889	-27.017	0.283	-0.206
-98.874	20.536	-0.197	0.199
-97.859	-200.000	-0.011	0.366
-96.845	-195.291	-0.143	0.001
-95.830	-65.488	-0.254	-0.127
-94.816	101.875	-0.080	0.117
-93.801	-169.733	0.717	0.032
-92.786	-110.365	0.347	0.090
-91.772	118.691	0.113	-0.174
-90.757	-61.411	-0.277	0.146
-89.743	800.000	-0.048	-0.177
-88.728	-200.000	-0.018	-0.123
-87.713	499.477	0.103	-0.298
-86.699	-116.299	-0.508	0.117
-85.684	21.862	-0.124	-0.126
-84.670	629.666	-0.078	-0.248
-83.655	116.754	-0.143	-0.220
-82.640	-103.132	-0.083	0.024
-81.626	45.007	0.073	-0.084
-80.611	-12.926	0.304	0.247
-79.597	79.753	0.156	-0.210
-78.582	800.000	0.064	0.262
-77.567	-60.287	0.497	0.264
-76.553	215.337	0.187	-0.372
-75.538	-60.165	-0.469	0.249
-74.524	-57.482	-0.552	0.302
-73.509	591.500	0.059	0.182
-72.494	305.674	-0.094	-0.218
-71.480	-200.000	0.026	-0.471
-70.465	63.242	-0.430	0.539
-69.451	-118.415	0.162	0.036
-68.436	800.000	-0.090	0.445
-67.422	72.564	0.247	-0.323
-66.407	-53.561	-0.208	-0.119
-65.392	-16.607	0.201	-0.159
-64.378	800.000	0.066	-0.239
-63.363	507.599	0.244	0.713
-62.349	394.023	0.161	0.422
-61.334	-42.406	-1.273	-0.810
-60.319	150.599	0.458	0.780
-59.305	203.097	-2.915	-5.652
-58.290	-5.351	2.958	2.538
-57.276	450.405	3.753	10.408
-56.261	-200.000	13.578	216.808
-55.246	465.064	1168.632	3285.198
-54.232	63.166	2821.436	3537.364
-53.217	72.117	2713.884	3535.757
-52.203	56.053	2439.886	2962.287
-51.188	46.904	2089.789	2429.595
-50.173	40.024	1958.419	2200.148
-49.159	38.087	1948.143	2166.930
-48.144	37.615	1944.292	2157.301
-47.130	37.765	1941.697	2156.000
-46.115	37.649	1940.035	2152.782
-45.100	37.580	1938.934	2150.706
-44.086	37.635	1937.470	2149.611
-43.071	37.662	1935.081	2147.171
-42.057	37.535	1934.591	2145.135
-41.042	37.436	1933.987	2143.290
-40.027	37.358	1932.092	2140.232
-39.013	37.535	1929.468	2139.203
-37.998	37.403	1929.338	2137.514
-36.984	37.311	1927.760	2134.669
-35.969	37.507	1926.410	2135.244
-34.954	37.329	1925.402	2132.084
-33.940	37.429	1924.179	2131.748
-32.925	37.398	1922.548	2129.513
-31.911	37.359	1921.402	2127.734
-30.896	37.432	1919.865	2126.749
-29.881	37.351	1919.210	2125.049
-28.867	37.338	1917.180	2122.574
-27.852	37.261	1916.562	2120.959
-26.838	37.158	1915.037	2118.051
-25.823	37.209	1913.964	2117.344
-24.809	37.215	1912.193	2115.372
-23.794	37.157	1911.532	2113.914
-22.779	37.340	1909.076	2113.117
-21.765	37.168	1907.907	2109.860
-20.750	37.164	1906.836	2108.552
-19.736	37.187	1905.934	2107.722
-18.721	37.191	1904.990	2106.640
-17.706	37.160	1902.980	2103.991
-16.692	37.199	1901.348	2102.524
-15.677	37.184	1900.849	2101.725
-14.663	37.168	1899.363	2099.832
-13.648	37.036	1898.499	2097.356
-12.633	36.939	1897.907	2095.561
-11.619	37.076	1895.672	2094.502
-10.604	37.143	1894.231	2093.550
-9.590	37.019	1893.322	2091.117
-8.575	37.087	1891.590	2089.858
-7.560	37.103	1890.492	2088.740
-6.546	37.095	1888.673	2086.560
-5.531	37.013	1888.470	2085.368
-4.517	37.002	1887.563	2084.161
-3.502	37.038	1887.137	2084.000
-2.487	37.122	1884.918	2082.366
-1.473	37.140	1881.958	2079.207
-0.458	36.512	1861.509	2049.848
0.556	31.423	1989.893	2120.560
1.571	29.476	2202.644	2322.397
2.586	30.797	2250.308	2389.432
3.600	30.803	2254.412	2393.579
4.615	31.018	2253.273	2394.860
5.629	30.813	2251.173	2389.696
6.644	30.876	2248.875	2387.782
7.659	30.948	2247.675	2387.147
8.673	31.145	2246.539	2388.197
9.688	30.642	2250.419	2385.546
10.702	27.552	2319.887	2417.757
11.717	24.130	2384.809	2438.118
12.731	12.455	2353.376	2246.232
13.746	2.073	2325.382	2077.754
14.761	0.501	2321.140	2052.241
15.775	0.377	2318.701	2048.138
16.790	0.315	2316.449	2045.068
17.804	0.283	2315.670	2043.697
18.819	0.283	2315.113	2042.953
19.834	0.288	2312.296	2040.293
20.848	0.170	2312.364	2038.508
21.863	0.324	2308.966	2037.357
22.877	0.240	2308.112	2035.225
23.892	0.193	2305.637	2032.152
24.907	0.278	2303.445	2031.128
25.921	0.162	2302.497	2028.476
26.936	0.321	2299.565	2027.808
27.950	0.221	2297.210	2024.131
28.965	0.258	2295.507	2022.887
29.980	0.211	2295.063	2021.621
30.994	0.355	2292.191	2020.790
32.009	6.630	2313.954	2124.891
33.023	20.754	2354.876	2355.621
34.038	26.990	2366.641	2452.065
35.053	27.813	2367.075	2463.397
36.067	27.860	2363.955	2460.485
37.082	27.634	2360.265	2453.294
38.096	27.572	2360.165	2452.057
39.111	27.955	2358.374	2455.082
40.126	28.412	2357.361	2459.898
41.140	28.830	2357.658	2465.552
42.155	28.660	2355.646	2460.854
43.169	28.695	2352.783	2458.046
44.184	28.827	2350.338	2456.965
45.199	28.788	2348.266	2453.991
46.213	28.511	2347.880	2449.569
47.228	28.670	2346.716	2450.194
48.242	28.578	2344.642	2446.504
49.257	28.573	2342.501	2443.908
50.271	29.000	2340.393	2447.137
51.286	28.768	2338.206	2441.457
52.301	28.461	2334.827	2433.542
53.315	28.648	2335.617	2436.559
54.330	29.948	2339.008	2457.171
55.344	30.828	2337.484	2466.992
56.359	30.963	2335.252	2466.137
57.374	30.724	2333.199	2460.505
58.388	30.571	2329.741	2454.524
59.403	30.604	2326.384	2451.135
60.417	30.618	2323.566	2448.055
61.432	30.707	2322.121	2447.417
62.447	30.756	2320.133	2445.673
63.461	30.635	2317.342	2440.851
64.476	30.482	2315.689	2436.794
65.490	30.843	2315.701	2441.273
66.505	30.717	2314.317	2437.867
67.520	29.725	2308.460	2418.370
68.534	27.909	2301.866	2387.333
69.549	27.419	2297.266	2375.853
70.563	27.403	2294.748	2372.762
71.578	27.447	2292.736	2370.972
72.593	27.599	2291.546	2371.437
73.607	27.815	2290.722	2373.127
74.622	27.896	2289.453	2372.587
75.636	27.804	2285.817	2367.331
76.651	27.750	2283.702	2364.159
77.666	27.762	2281.068	2361.306
78.680	27.788	2279.783	2360.031
79.695	27.911	2278.121	2359.626
80.709	27.947	2276.374	2358.004
81.724	27.866	2274.836	2355.075
82.739	27.872	2272.343	2352.294
83.753	27.929	2270.397	2350.725
84.768	27.819	2269.111	2347.694
85.782	27.565	2267.056	2342.008
86.797	27.681	2265.323	2341.437
87.812	27.519	2263.406	2337.085
88.826	27.463	2261.502	2334.122
89.841	27.588	2258.955	2332.823
90.855	27.822	2256.127	2332.622
91.870	27.476	2255.404	2327.160
92.884	27.514	2253.413	2325.311
93.899	27.827	2252.079	2327.661
94.914	28.022	2253.213	2331.062
95.928	28.722	2256.482	2343.139
96.943	29.231	2254.672	2347.498
97.957	28.334	2249.565	2330.440
98.972	27.763	2244.711	2317.845
99.987	27.456	2241.535	2310.369
101.001	27.521	2238.727	2308.032
102.016	27.551	2236.887	2306.241
103.030	27.612	2234.189	2303.953
104.045	27.733	2232.910	2303.902
105.060	28.027	2230.813	2305.182
106.074	27.929	2229.635	2302.451
107.089	27.758	2227.418	2297.717
108.103	27.660	2226.495	2295.251
109.118	27.787	2225.469	2295.522
110.133	27.951	2222.878	2294.651
111.147	27.722	2220.545	2289.082
112.162	27.708	2218.648	2286.675
113.176	27.691	2216.945	2284.427
114.191	27.804	2215.087	2283.664
115.206	27.832	2214.211	2282.835
116.220	27.727	2212.681	2279.670
117.235	27.687	2209.685	2275.814
118.249	27.643	2207.871	2273.119
119.264	27.784	2206.436	2273.132
120.279	27.839	2203.795	2270.831
121.293	27.596	2202.467	2266.154
122.308	27.542	2200.298	2262.975
123.322	27.514	2199.710	2261.752
124.337	27.575	2198.902	2261.409
125.352	28.970	2203.285	2283.066
126.366	29.866	2203.657	2294.345
127.381	28.527	2195.193	2268.623
128.395	27.643	2190.442	2252.478
129.410	27.641	2188.985	2250.682
130.424	27.630	2188.755	2250.039
131.439	27.735	2187.239	2249.510
132.454	27.669	2185.324	2246.461
133.468	27.882	2182.558	2245.973
134.483	27.825	2181.562	2243.978
135.497	28.012	2178.950	2243.330
136.512	28.163	2177.290	2243.213
137.527	27.994	2175.800	2239.327
138.541	27.644	2173.974	2232.880
139.556	27.548	2172.441	2229.858
140.570	27.751	2170.352	2229.930
141.585	27.739	2169.421	2228.560
142.600	27.920	2168.405	2229.479
143.614	27.739	2166.934	2225.474
144.629	27.797	2165.464	2224.416
145.643	27.744	2163.181	2221.146
146.658	27.694	2161.418	2218.466
147.673	27.560	2158.739	2213.812
148.687	27.562	2157.215	2212.010
149.702	27.780	2156.537	2213.712
150.716	27.830	2155.382	2212.863
151.731	27.910	2154.835	2213.009
152.746	27.829	2154.346	2211.257
153.760	27.843	2153.939	2210.752
154.775	28.590	2155.341	2221.021
155.789	29.089	2154.329	2225.773
156.804	28.263	2148.310	2209.270
157.819	27.421	2143.262	2193.630
158.833	27.337	2140.091	2189.105
159.848	27.717	2138.468	2191.774
160.862	27.922	2138.731	2194.255
161.877	28.043	2137.730	2194.421
162.892	28.335	2137.528	2197.471
163.906	28.556	2136.578	2198.900
164.921	28.524	2134.203	2195.809
165.935	28.429	2131.876	2192.003
166.950	28.167	2130.767	2187.458
167.964	28.021	2128.064	2182.672
168.979	27.890	2125.602	2178.308
169.994	27.921	2123.488	2176.257
171.008	27.662	2121.908	2171.281
172.023	27.561	2120.487	2168.354
173.037	27.725	2120.199	2169.760
174.052	27.904	2118.520	2169.925
175.067	27.750	2116.097	2165.345
176.081	27.642	2114.675	2162.343
177.096	27.786	2113.511	2162.609
178.110	27.608	2112.345	2159.040
179.125	27.624	2110.684	2157.266
180.140	27.758	2109.464	2157.362
181.154	27.815	2108.907	2157.207
182.169	27.796	2107.629	2155.417
183.183	28.155	2107.343	2159.128
184.198	29.653	2110.179	2179.551
185.213	29.610	2107.535	2176.046
186.227	28.281	2101.669	2154.023
187.242	27.747	2098.529	2144.241
188.256	27.598	2096.377	2140.032
189.271	27.760	2096.079	2141.385
190.286	27.933	2093.743	2140.772
191.300	27.909	2090.351	2136.767
192.315	27.540	2089.220	2131.018
193.329	27.892	2088.413	2134.078
194.344	28.274	2087.702	2137.580
195.359	28.359	2087.373	2137.981
196.373	28.506	2085.158	2137.180
197.388	28.351	2082.545	2132.439
198.402	27.981	2080.464	2125.729
199.417	27.982	2078.390	2123.362
200.432	28.074	2076.836	2122.592
201.446	27.911	2076.060	2119.649
202.461	27.869	2072.962	2115.745
203.475	27.751	2071.252	2112.368
204.490	27.671	2069.116	2109.006
205.504	27.746	2066.087	2106.536
206.519	27.629	2064.420	2103.230
207.534	27.681	2063.023	2102.160
208.548	27.875	2061.291	2102.385
209.563	27.438	2059.986	2095.747
210.577	27.421	2059.586	2094.893
211.592	27.858	2059.696	2099.804
212.607	28.181	2058.851	2102.421
213.621	28.280	2060.563	2105.069
214.636	28.370	2058.096	2103.336
215.650	27.997	2053.995	2094.590
216.665	27.853	2051.035	2089.663
217.680	27.935	2049.858	2089.160
218.694	27.840	2048.689	2086.631
219.709	27.817	2047.470	2084.876
220.723	28.055	2046.778	2086.647
221.738	28.301	2045.089	2087.502
222.753	28.183	2042.669	2083.428
223.767	27.878	2040.636	2077.614
224.782	27.771	2037.608	2073.069
225.796	27.775	2036.938	2072.173
226.811	28.111	2036.908	2075.736
227.826	28.251	2035.173	2075.312
228.840	28.127	2033.364	2071.813
229.855	28.052	2031.115	2068.415
230.869	27.913	2029.352	2064.797
231.884	27.633	2027.525	2059.512
232.899	27.758	2025.936	2059.072
233.913	27.800	2025.934	2059.299
234.928	27.804	2025.531	2058.687
235.942	27.822	2024.049	2057.130
236.957	27.826	2021.437	2054.279
237.972	27.820	2020.504	2053.020
238.986	27.770	2019.845	2051.541
240.001	27.553	2017.576	2046.540
241.015	27.492	2015.991	2043.998
242.030	28.086	2016.895	2051.373
243.045	29.583	2019.891	2071.054
244.059	30.163	2018.043	2075.441
245.074	28.722	2011.848	2052.644
246.088	27.871	2007.601	2038.524
247.103	27.909	2006.489	2037.574
248.117	27.996	2004.489	2036.282
249.132	27.785	2003.107	2032.271
250.147	27.796	2000.818	2029.827
251.161	27.629	2000.024	2026.911
252.176	27.904	1998.217	2027.904
253.190	27.829	1996.024	2024.607
254.205	27.707	1993.887	2020.829
255.220	27.989	1992.526	2022.347
256.234	28.030	1990.976	2020.989
257.249	27.741	1989.637	2016.182
258.263	27.756	1989.720	2016.184
259.278	27.922	1988.653	2016.704
260.293	27.911	1986.802	2014.464
261.307	27.781	1984.824	2010.779
262.322	27.693	1983.533	2008.256
263.336	27.592	1980.948	2004.289
264.351	27.359	1979.103	1999.602
265.366	27.393	1977.968	1998.595
266.380	27.631	1978.065	2001.082
267.395	27.542	1975.417	1997.183
268.409	27.501	1973.809	1994.864
269.424	27.752	1971.865	1995.425
270.439	27.754	1972.279	1995.620
271.453	28.279	1972.580	2001.462
272.468	29.325	1973.865	2014.018
273.482	29.319	1970.673	2010.447
274.497	28.209	1965.136	1992.417
275.512	27.703	1962.397	1983.877
276.526	27.509	1960.461	1979.561
277.541	27.582	1957.769	1977.409
278.555	27.404	1956.847	1974.296
279.570	27.286	1954.840	1970.752
280.585	27.298	1953.003	1968.796
281.599	27.384	1952.433	1968.917
282.614	27.581	1951.184	1969.568
283.628	28.024	1951.800	1974.766
284.643	28.303	1950.565	1976.304
285.657	28.065	1949.305	1972.214
286.672	27.920	1946.697	1967.767
287.687	27.887	1944.663	1965.117
288.701	27.529	1944.101	1960.438
289.716	27.684	1942.022	1959.786
290.730	27.917	1940.777	1960.807
291.745	28.126	1939.478	1961.516
292.760	27.979	1938.757	1958.965
293.774	27.814	1937.490	1955.675
294.789	27.858	1937.152	1955.568
295.803	27.947	1934.946	1954.064
296.818	27.835	1933.680	1951.355
297.833	27.905	1932.817	1951.000
298.847	27.891	1931.249	1949.028
299.862	27.889	1929.515	1947.027
300.876	28.168	1929.096	1949.361
301.891	29.776	1931.359	1968.631
302.906	30.014	1929.571	1969.124
303.920	28.597	1924.807	1948.908
304.935	28.054	1921.815	1939.852
305.949	27.991	1919.938	1937.060
306.964	28.253	1918.835	1938.508
307.979	28.090	1917.340	1935.030
308.993	27.638	1913.515	1926.133
310.008	27.541	1912.583	1923.939
311.022	27.889	1912.196	1927.009
312.037	28.026	1910.151	1926.176
313.052	27.913	1908.030	1922.611
314.066	27.758	1906.005	1918.693
315.081	27.660	1905.255	1916.683
316.095	27.771	1904.740	1917.103
317.110	27.808	1902.276	1914.788
318.125	27.709	1900.930	1912.160
319.139	27.774	1899.385	1911.061
320.154	27.846	1898.927	1911.129
321.168	27.784	1896.749	1908.055
322.183	27.845	1895.577	1907.286
323.197	27.990	1895.712	1908.714
324.212	27.996	1893.551	1906.377
325.227	27.804	1891.063	1901.632
326.241	27.649	1889.461	1898.170
327.256	27.646	1888.160	1896.604
328.270	27.669	1887.685	1896.139
329.285	27.946	1886.960	1898.077
330.300	28.139	1888.564	1901.478
331.314	29.052	1889.837	1912.075
332.329	29.439	1887.342	1913.355
333.343	28.388	1882.276	1897.065
334.358	27.891	1879.606	1888.980
335.373	27.960	1878.389	1888.244
336.387	27.966	1875.971	1885.648
337.402	27.909	1874.578	1883.436
338.416	27.780	1873.413	1880.697
339.431	27.770	1872.156	1879.109
340.446	28.052	1870.567	1880.209
341.460	27.947	1869.150	1877.476
342.475	28.128	1867.020	1876.972
343.489	27.781	1865.050	1871.193
344.504	27.559	1864.194	1867.828
345.519	27.784	1862.663	1868.389
346.533	27.806	1861.124	1866.843
347.548	27.695	1859.649	1864.002
348.562	27.656	1858.009	1861.733
349.577	27.924	1857.074	1863.322
350.592	28.095	1856.766	1864.544
351.606	28.104	1856.115	1863.752
352.621	28.220	1854.062	1862.655
353.635	27.773	1852.646	1856.447
354.650	27.599	1850.718	1852.509
355.665	27.564	1848.654	1849.870
356.679	27.561	1847.542	1848.503
357.694	27.679	1847.429	1849.373
358.708	27.869	1846.762	1850.416
359.723	28.386	1847.455	1856.159
360.738	29.290	1848.801	1866.495
361.752	29.099	1845.524	1861.022
362.767	28.408	1840.842	1849.071
363.781	27.953	1838.088	1841.479
364.796	28.115	1836.156	1840.956
365.810	28.039	1835.855	1839.664
366.825	27.719	1834.670	1835.029
367.840	27.507	1833.213	1831.205
368.854	27.501	1831.256	1828.969
369.869	27.473	1829.509	1826.726
370.883	27.458	1827.641	1824.487
371.898	27.416	1826.775	1822.982
372.913	27.363	1826.067	1821.528
373.927	27.480	1824.931	1821.352
374.942	27.678	1823.631	1821.823
375.956	27.680	1822.611	1820.604
376.971	27.739	1819.688	1818.064
377.986	27.820	1818.311	1817.276
379.000	27.932	1818.124	1817.997
380.015	27.962	1816.647	1816.600
381.029	27.898	1815.691	1814.785
382.044	27.913	1813.545	1812.570
383.059	27.985	1812.202	1811.733
384.073	27.777	1811.191	1808.429
385.088	27.656	1810.133	1805.954
386.102	27.901	1808.923	1806.971
387.117	28.066	1807.220	1806.686
388.132	28.073	1806.517	1805.844
389.146	28.261	1807.921	1808.898
390.161	29.156	1807.734	1817.377
391.175	29.454	1803.399	1815.743
392.190	28.470	1799.186	1801.570
393.205	27.937	1797.211	1794.117
394.219	27.984	1794.515	1791.674
395.234	27.718	1793.148	1787.482
396.248	27.586	1791.503	1784.324
397.263	27.511	1789.654	1781.538
398.278	27.674	1787.070	1780.348
399.292	27.502	1786.831	1778.209
400.307	27.872	1787.255	1782.044
401.321	27.874	1786.473	1781.079
402.336	27.908	1784.101	1778.835
403.350	27.911	1782.550	1777.104
404.365	27.951	1781.484	1776.219
405.380	28.008	1779.955	1775.032
406.394	27.638	1779.330	1770.586
407.409	27.576	1776.665	1767.122
408.423	27.649	1775.054	1766.014
409.438	27.653	1774.036	1764.831
410.453	27.556	1773.422	1763.069
411.467	27.689	1772.035	1762.764
412.482	27.688	1770.620	1761.140
413.496	27.752	1769.326	1760.264
414.511	27.860	1767.959	1759.743
415.526	27.827	1766.236	1757.491
416.540	27.984	1764.983	1757.551
417.555	27.781	1764.198	1754.602
418.569	27.754	1764.217	1754.148
419.584	27.980	1763.389	1755.298
420.599	27.806	1762.644	1752.665
421.613	27.623	1761.456	1749.508
422.628	27.443	1760.294	1746.415
423.642	27.755	1758.372	1747.303
424.657	27.667	1755.387	1743.282
425.672	27.448	1753.553	1739.143
426.686	27.583	1752.925	1739.607
427.701	27.815	1752.194	1740.900
428.715	27.981	1751.590	1741.687
429.730	28.322	1750.621	1743.779
430.745	28.350	1749.081	1742.301
431.759	28.104	1748.155	1738.820
432.774	27.757	1746.251	1733.401
433.788	26.638	1743.818	1720.108
434.803	26.265	1741.614	1714.169
435.818	26.198	1740.806	1712.529
436.832	26.047	1740.703	1710.780
437.847	25.598	1733.685	1699.416
438.861	16.440	1707.524	1587.500
439.876	3.743	1682.994	1445.698
440.890	0.648	1676.989	1411.333
441.905	0.568	1675.212	1408.919
442.920	0.257	1675.206	1405.829
443.934	0.376	1672.958	1404.895
444.949	0.312	1672.249	1403.524
445.963	0.253	1671.157	1401.894
446.978	0.246	1671.413	1401.870
447.993	0.255	1669.430	1400.126
449.007	0.272	1666.905	1397.998
450.022	0.335	1665.107	1396.913
451.036	0.319	1664.084	1395.735
452.051	1.490	1671.096	1412.393
453.066	12.516	1696.090	1537.423
454.080	23.966	1714.607	1662.187
455.095	27.567	1720.865	1701.923
456.109	30.206	1725.535	1731.143
457.124	31.247	1725.643	1740.804
458.139	30.628	1723.750	1732.888
459.153	29.979	1722.702	1725.553
460.168	29.835	1720.407	1721.699
461.182	29.790	1718.234	1718.898
462.197	29.765	1717.230	1717.455
463.212	29.796	1715.258	1715.567
464.226	29.898	1713.987	1715.037
465.241	30.177	1714.175	1717.617
466.255	30.304	1712.963	1717.379
467.270	30.462	1711.697	1717.372
468.285	30.235	1709.858	1713.219
469.299	30.137	1708.747	1710.991
470.314	30.380	1707.860	1712.149
471.328	30.435	1706.641	1711.227
472.343	30.413	1705.602	1709.784
473.358	30.369	1703.588	1707.155
474.372	30.420	1701.802	1705.624
475.387	30.471	1700.760	1704.848
476.401	30.314	1699.452	1701.889
477.416	30.199	1697.976	1699.145
478.430	30.492	1697.448	1701.109
479.445	30.407	1696.512	1699.186
480.460	30.071	1694.543	1693.927
481.474	30.144	1693.342	1693.188
482.489	30.519	1692.794	1695.880
483.503	30.656	1690.784	1694.925
484.518	30.590	1689.736	1693.062
485.533	30.785	1688.731	1693.641
486.547	30.734	1688.387	1692.623
487.562	31.104	1687.698	1695.112
488.576	31.313	1685.885	1694.988
489.591	31.303	1685.031	1693.837
490.606	31.077	1683.577	1690.116
491.620	30.996	1681.687	1687.276
492.635	31.261	1679.919	1687.713
493.649	31.092	1678.340	1684.388
494.664	30.633	1675.085	1676.759
495.679	30.073	1673.463	1669.871
496.693	30.206	1673.171	1670.579
497.708	30.525	1672.978	1673.074
498.722	31.005	1672.405	1676.645
499.737	31.093	1671.205	1676.031
500.752	30.918	1669.071	1672.113
501.766	30.776	1667.236	1668.792
502.781	30.906	1665.848	1668.376
503.795	30.759	1663.976	1664.977
504.810	30.567	1663.870	1662.951
505.825	30.917	1664.047	1666.078
506.839	30.863	1662.458	1663.802
507.854	30.744	1660.626	1660.698
508.868	30.636	1658.930	1657.833
509.883	30.335	1657.183	1653.202
510.898	30.397	1656.083	1652.460
511.912	30.279	1653.852	1648.976
512.927	30.010	1651.662	1644.197
513.941	30.043	1650.731	1643.366
514.956	30.661	1651.348	1649.294
515.971	31.317	1651.553	1655.144
516.985	31.119	1649.409	1651.038
518.000	30.756	1647.762	1645.966
519.014	30.761	1646.429	1644.481
520.029	30.585	1644.582	1640.879
521.043	30.318	1642.898	1636.642
522.058	30.285	1642.076	1635.331
523.073	30.364	1641.131	1634.893
524.087	30.642	1641.143	1637.167
525.102	30.935	1638.944	1637.372
526.116	30.713	1637.699	1633.973
527.131	30.715	1636.747	1632.838
528.146	31.091	1636.568	1635.779
529.160	31.184	1635.558	1635.397
530.175	31.397	1634.934	1636.449
531.189	31.508	1634.179	1636.475
532.204	31.590	1632.689	1635.511
533.219	31.348	1630.369	1630.865
534.233	30.680	1629.581	1624.023
535.248	30.766	1627.777	1622.786
536.262	31.261	1628.150	1627.300
537.277	31.657	1627.033	1629.453
538.292	31.842	1625.810	1629.654
539.306	31.699	1623.908	1626.303
540.321	31.541	1622.154	1622.971
541.335	31.116	1621.134	1618.054
542.350	31.424	1619.896	1619.303
543.365	31.812	1619.069	1621.660
544.379	31.953	1617.840	1621.459
545.394	31.947	1616.454	1619.824
546.408	31.373	1613.386	1611.580
547.423	30.816	1611.088	1604.276
548.438	30.492	1610.967	1601.154
549.452	30.816	1610.016	1602.821
550.467	31.029	1608.521	1602.981
551.481	31.225	1607.895	1603.859
552.496	31.324	1608.174	1604.804
553.511	31.495	1607.795	1605.708
554.525	31.524	1606.135	1604.106
555.540	31.351	1605.797	1602.082
556.554	31.521	1603.895	1601.460
557.569	31.448	1601.547	1598.299
558.583	31.179	1600.330	1594.582
559.598	31.269	1598.574	1593.410
560.613	31.141	1597.721	1591.275
561.627	31.159	1596.198	1589.720
562.642	31.163	1594.389	1587.760
563.656	30.889	1593.318	1584.160
564.671	30.944	1592.200	1583.333
565.686	30.859	1590.820	1581.049
566.700	30.789	1589.233	1578.682
567.715	30.749	1588.545	1577.466
568.729	31.052	1587.610	1578.929
569.744	31.631	1586.430	1582.487
570.759	31.793	1585.412	1582.660
571.773	31.480	1584.281	1578.689
572.788	31.368	1582.746	1576.015
573.802	31.072	1580.328	1570.919
574.817	31.120	1577.688	1568.512
575.832	30.821	1577.881	1565.988
576.846	31.122	1577.105	1567.574
577.861	31.309	1575.958	1567.820
578.875	31.544	1575.534	1569.197
579.890	31.591	1574.813	1568.687
580.905	31.787	1574.183	1569.520
581.919	31.882	1574.006	1569.957
582.934	31.925	1573.548	1569.670
583.948	31.870	1572.023	1567.496
584.963	31.809	1569.897	1564.682
585.978	31.352	1568.303	1559.074
586.992	31.398	1566.933	1557.906
588.007	31.908	1567.277	1562.333
589.021	31.604	1564.721	1557.063
590.036	30.823	1562.800	1548.439
591.051	31.445	1563.090	1553.740
592.065	31.911	1562.183	1556.537
593.080	32.273	1560.895	1558.080
594.094	32.431	1558.923	1557.245
595.109	31.782	1556.202	1548.948
596.123	31.285	1554.320	1542.768
597.138	31.455	1554.319	1543.992
598.153	31.457	1553.427	1542.939
599.167	31.437	1551.677	1540.846
600.182	31.573	1551.095	1541.213
601.196	31.677	1550.069	1540.867
602.211	31.697	1548.493	1539.285
603.226	31.727	1547.721	1538.581
604.240	31.821	1546.659	1538.117
605.255	31.910	1545.441	1537.449
606.269	32.153	1543.857	1537.688
607.284	31.926	1543.260	1535.049
608.299	31.845	1541.182	1532.131
609.313	31.720	1539.486	1529.236
610.328	31.765	1538.183	1528.130
611.342	31.632	1537.245	1525.923
612.357	31.601	1536.931	1525.175
613.372	31.542	1536.160	1523.743
614.386	31.397	1534.144	1520.373
615.401	31.403	1534.122	1520.218
616.415	31.298	1532.860	1517.934
617.430	31.165	1530.984	1514.808
618.445	31.185	1529.356	1513.174
619.459	30.991	1528.682	1510.746
620.474	31.012	1528.101	1510.162
621.488	31.424	1527.251	1512.495
622.503	31.816	1526.699	1514.950
623.518	31.684	1525.274	1512.285
624.532	31.280	1523.940	1507.510
625.547	30.980	1522.597	1503.565
626.561	31.095	1520.845	1502.589
627.576	31.018	1520.396	1501.337
628.591	31.531	1519.503	1504.424
629.605	31.930	1519.303	1507.275
630.620	32.294	1518.074	1508.807
631.634	32.524	1517.376	1509.786
632.649	32.559	1516.831	1509.351
633.663	32.367	1515.020	1505.819
634.678	31.860	1513.049	1499.603
635.693	31.455	1510.362	1493.509
636.707	31.332	1508.111	1490.120
637.722	31.219	1506.789	1487.732
638.736	31.347	1507.058	1488.846
639.751	31.664	1506.737	1490.884
640.766	31.749	1504.863	1489.537
641.780	31.743	1503.262	1487.721
642.795	31.789	1502.975	1487.624
643.809	31.859	1502.486	1487.526
644.824	32.029	1501.867	1488.085
645.839	32.092	1501.209	1487.757
646.853	32.114	1499.889	1486.446
647.868	31.941	1498.270	1483.288
648.882	31.830	1496.620	1480.598
649.897	31.709	1495.673	1478.521
650.912	31.746	1494.146	1477.129
651.926	32.172	1493.573	1479.758
652.941	32.404	1491.638	1479.501
653.955	31.684	1489.884	1471.900
654.970	31.129	1486.726	1464.229
655.985	30.978	1485.037	1461.199
656.999	30.903	1483.918	1459.332
658.014	31.149	1483.547	1460.730
659.028	31.640	1483.855	1464.715
660.043	32.194	1484.079	1469.116
661.058	32.263	1482.775	1468.197
662.072	32.210	1481.539	1466.380
663.087	32.203	1479.663	1464.294
664.101	31.778	1478.442	1459.585
665.116	31.906	1477.526	1459.504
666.131	31.992	1476.389	1458.877
667.145	31.915	1475.761	1457.483
668.160	31.949	1474.316	1456.146
669.174	31.998	1472.407	1454.471
670.189	32.004	1471.429	1453.374
671.204	32.151	1471.247	1454.168
672.218	32.047	1470.256	1452.199
673.233	32.185	1469.483	1452.339
674.247	32.162	1468.076	1450.595
675.262	32.013	1466.843	1448.046
676.276	31.929	1465.395	1445.796
677.291	31.931	1464.548	1444.801
678.306	32.057	1463.270	1444.343
679.320	31.691	1462.318	1440.402
680.335	31.696	1461.579	1439.535
681.349	31.767	1461.245	1439.585
682.364	31.824	1459.636	1438.266
683.379	31.741	1457.923	1435.768
684.393	31.621	1456.114	1432.891
685.408	31.646	1454.940	1431.757
686.422	31.541	1453.989	1429.846
687.437	31.339	1452.912	1427.063
688.452	30.993	1452.268	1423.606
689.466	31.034	1450.397	1421.912
690.481	31.108	1449.407	1421.337
691.495	31.527	1449.662	1424.627
692.510	32.144	1450.216	1429.722
693.525	32.609	1448.963	1431.866
694.539	32.254	1447.302	1427.351
695.554	31.579	1445.077	1419.840
696.568	31.133	1443.021	1414.248
697.583	31.059	1442.623	1413.124
698.598	31.230	1441.487	1413.143
699.612	31.372	1440.264	1412.856
700.627	31.483	1439.289	1412.572
701.641	31.718	1438.904	1413.808
702.656	31.865	1437.719	1413.595
703.671	31.867	1437.457	1413.177
704.685	31.817	1437.617	1412.789
705.700	31.891	1436.132	1411.720
706.714	31.827	1433.662	1408.640
707.729	31.727	1432.465	1406.542
708.744	31.975	1432.149	1407.937
709.758	32.043	1430.088	1406.250
710.773	31.345	1427.947	1398.725
711.787	31.116	1426.718	1395.632
712.802	31.769	1425.995	1399.666
713.816	32.025	1426.308	1401.727
714.831	32.082	1425.633	1401.323
715.846	32.016	1423.874	1398.934
716.860	32.114	1421.996	1397.651
717.875	31.815	1421.012	1394.285
718.889	31.730	1420.073	1392.560
719.904	31.876	1418.593	1392.029
720.919	31.735	1417.605	1389.846
721.933	31.637	1416.953	1388.309
722.948	31.570	1415.842	1386.555
723.962	31.621	1414.397	1385.351
724.977	31.779	1413.145	1385.132
725.992	31.665	1412.507	1383.497
727.006	31.947	1411.512	1384.447
728.021	31.867	1410.227	1382.429
729.035	31.970	1408.694	1381.523
730.050	31.914	1408.146	1380.404
731.065	31.889	1406.894	1378.832
732.079	31.602	1405.695	1375.368
733.094	31.706	1404.778	1375.075
734.108	31.874	1403.627	1375.023
735.123	31.751	1402.045	1372.406
736.138	31.604	1400.982	1370.116
737.152	31.651	1399.926	1369.267
738.167	31.617	1398.348	1367.306
739.181	31.703	1397.474	1366.920
740.196	31.746	1396.784	1366.396
741.211	31.446	1396.195	1363.460
742.225	31.580	1395.565	1363.661
743.240	31.597	1393.383	1361.488
744.254	31.391	1391.701	1358.183
745.269	31.287	1390.431	1356.022
746.284	31.026	1389.364	1352.913
747.298	31.167	1388.393	1352.832
748.313	31.308	1388.582	1353.881
749.327	31.642	1389.553	1357.103
750.342	32.390	1388.822	1361.667
751.356	32.638	1388.134	1362.637
752.371	32.512	1385.695	1359.166
753.386	31.609	1383.553	1350.354
754.400	31.298	1382.112	1346.537
755.415	31.758	1381.047	1348.667
756.429	31.792	1379.997	1347.722
757.444	31.867	1379.552	1347.666
758.459	31.697	1378.173	1344.930
759.473	31.608	1376.810	1342.802
760.488	31.512	1375.447	1340.619
761.502	31.357	1374.428	1338.351
762.517	31.494	1373.587	1338.353
763.532	31.864	1372.147	1339.448
764.546	31.911	1371.113	1338.617
765.561	31.205	1369.608	1331.929
766.575	30.609	1367.916	1325.852
767.590	30.475	1367.050	1323.895
768.605	31.250	1367.377	1329.601
769.619	31.702	1366.701	1332.020
770.634	31.774	1365.395	1331.099
771.648	31.467	1363.346	1326.753
772.663	31.300	1362.481	1324.563
773.678	31.306	1362.248	1324.224
774.692	31.700	1361.324	1325.970
775.707	31.562	1360.952	1324.464
776.721	31.616	1359.905	1323.673
777.736	31.382	1359.102	1321.070
778.751	31.352	1357.851	1319.484
779.765	31.505	1356.638	1319.234
780.780	31.550	1355.838	1318.610
781.794	31.576	1354.982	1317.805
782.809	31.171	1353.596	1313.440
783.824	30.853	1352.396	1309.870
784.838	31.076	1351.846	1310.753
785.853	31.864	1351.594	1315.915
786.867	31.817	1350.713	1314.566
787.882	31.518	1349.671	1311.287
788.897	31.264	1347.759	1307.489
789.911	30.936	1346.412	1303.719
790.926	30.850	1345.171	1301.759
791.940	30.855	1343.712	1300.224
792.955	30.887	1342.666	1299.282
793.969	30.801	1341.610	1297.500
794.984	31.189	1340.685	1299.166
795.999	31.174	1339.826	1298.075
797.013	31.290	1338.287	1297.240
798.028	31.205	1337.309	1295.541
799.042	31.167	1336.605	1294.440
800.057	31.158	1335.421	1293.077
801.072	31.160	1333.788	1291.353
802.086	31.324	1332.752	1291.336
803.101	31.129	1331.724	1288.832
804.115	31.134	1331.315	1288.316
805.130	31.302	1330.420	1288.457
806.145	31.222	1328.865	1286.246
807.159	31.178	1327.314	1284.290
808.174	31.300	1326.484	1284.172
809.188	31.386	1325.447	1283.608
810.203	31.612	1323.903	1283.519
811.218	31.315	1322.054	1279.523
812.232	31.019	1320.641	1275.970
813.247	30.428	1320.323	1271.448
814.261	30.842	1321.020	1274.816
815.276	31.247	1319.855	1276.322
816.291	31.018	1317.946	1272.750
817.305	30.750	1316.556	1269.419
818.320	30.955	1315.504	1269.659
819.334	31.072	1314.836	1269.661
820.349	31.083	1313.327	1268.127
821.364	31.026	1311.788	1266.096
822.378	31.030	1310.522	1264.751
823.393	30.928	1309.280	1262.710
824.407	31.025	1307.761	1261.755
825.422	30.969	1307.581	1261.044
826.437	30.999	1306.228	1259.795
827.451	30.968	1304.639	1257.904
828.466	31.125	1304.614	1258.790
829.480	31.783	1303.345	1261.868
830.495	31.689	1300.432	1258.269
831.509	30.874	1299.068	1251.294
832.524	30.755	1298.705	1249.990
833.539	30.792	1297.413	1248.847
834.553	30.742	1296.078	1247.080
835.568	30.619	1295.234	1245.291
836.582	30.652	1294.821	1244.962
837.597	30.990	1292.695	1245.038
838.612	31.093	1290.633	1243.596
839.626	30.829	1290.047	1241.116
840.641	30.818	1289.717	1240.574
841.655	31.015	1288.605	1240.672
842.670	30.621	1286.700	1236.062
843.685	30.185	1285.315	1231.668
844.699	30.579	1284.578	1233.445
845.714	30.919	1283.197	1234.233
846.728	30.684	1282.428	1231.784
847.743	30.624	1281.960	1230.789
848.758	30.675	1280.879	1229.944
849.772	30.665	1280.268	1229.145
850.787	30.616	1278.608	1227.077
851.801	30.691	1277.393	1226.263
852.816	30.600	1276.645	1224.792
853.831	30.653	1275.287	1223.696
854.845	30.679	1272.940	1221.465
855.860	30.566	1271.762	1219.448
856.874	30.456	1270.992	1217.836
857.889	30.833	1270.321	1219.528
858.904	31.420	1269.806	1222.751
859.918	31.982	1268.913	1225.432
860.933	31.987	1268.389	1224.813
861.947	31.797	1266.294	1221.400
862.962	31.220	1263.904	1215.174
863.977	30.931	1262.507	1211.798
864.991	30.619	1261.922	1209.052
866.006	30.416	1261.648	1207.318
867.020	30.565	1260.095	1206.660
868.035	30.667	1258.578	1205.728
869.049	30.532	1257.823	1203.980
870.064	30.536	1257.204	1203.268
871.079	30.539	1256.793	1202.751
872.093	30.711	1255.420	1202.413
873.108	30.628	1254.070	1200.437
874.122	30.564	1252.509	1198.387
875.137	30.373	1252.405	1196.903
876.152	30.323	1251.305	1195.385
877.166	30.348	1249.551	1193.730
878.181	30.315	1248.438	1192.309
879.195	30.283	1247.736	1191.288
880.210	30.421	1247.247	1191.570
881.225	30.473	1246.569	1191.117
882.239	30.443	1245.175	1189.445
883.254	30.443	1244.189	1188.365
884.268	30.583	1243.228	1188.203
885.283	30.563	1241.700	1186.475
886.298	30.655	1239.449	1184.767
887.312	30.584	1239.321	1184.049
888.327	30.582	1238.282	1182.900
889.341	30.497	1237.218	1181.201
890.356	30.497	1236.121	1180.013
891.371	30.467	1235.944	1179.509
892.385	30.620	1235.439	1179.862
893.400	30.537	1235.201	1178.964
894.414	30.381	1234.318	1176.987
895.429	30.821	1232.615	1178.020
896.444	31.633	1232.304	1182.740
897.458	31.932	1231.821	1184.033
898.473	31.746	1229.999	1180.962
899.487	31.093	1228.481	1175.233
900.502	30.652	1226.554	1170.459
901.517	30.594	1224.551	1168.040
902.531	30.456	1223.689	1166.208
903.546	30.414	1223.107	1165.248
904.560	30.361	1222.908	1164.585
905.575	30.400	1222.184	1164.006
906.589	30.249	1221.034	1161.816
907.604	30.103	1220.311	1160.073
