DTS Sentinel unit serial number:	SN409020Multiplexer serial number:	ORYXHardware model number:	OX4-SRSoftware version number:	ORYX F/W v3.00 Oryx Data Collector v3.7.2.0data status	okinstallation	HaddamTimeLapsedifferential loss correction	single-endedforward channel	channel 3reverse channel	N/Adate	2011/06/22time	01:46:17forward acquisition time	30.00reverse acquisition time	0.00gamma	498.7831k internal	0.1751k external	0.1751temperature offset calibration	1.0074default loss term (dB/km)	0.3790temperature slope calibration	1.3530multiplexer offset coefficient	1.0000multiplexer slope coefficient	1.0000fibre end	0.00T internal ref (°C)	22.44T ext. ref 1 (°C)	17.73T ext. ref 2 (°C)	0.01length (m)	temperature (°C)	Stokes	anti-Stokes-747.200	-135.915	0.382	0.059
-746.185	-163.287	0.198	0.012
-745.171	-158.032	0.167	0.013
-744.156	800.000	-0.075	0.327
-743.142	53.264	0.162	-0.207
-742.127	-93.553	-0.223	0.082
-741.112	-32.636	0.163	0.120
-740.098	259.865	0.042	0.096
-739.083	-166.199	0.226	-0.013
-738.069	800.000	-0.104	0.393
-737.054	-162.651	0.128	-0.008
-736.039	549.229	-0.052	0.166
-735.025	-103.918	-0.138	0.042
-734.010	-189.347	0.457	0.007
-732.996	734.742	-0.027	0.097
-731.981	249.291	0.145	0.327
-730.966	420.936	0.054	-0.153
-729.952	-200.000	-0.007	0.052
-728.937	21.340	-0.397	-0.428
-727.923	-145.940	0.522	0.061
-726.908	85.898	0.323	-0.472
-725.894	-2.821	0.552	0.512
-724.879	10.941	-0.196	-0.198
-723.864	-132.556	-0.080	-0.013
-722.850	-200.000	0.002	0.383
-721.835	110.600	0.271	-0.433
-720.821	-118.282	0.210	-0.049
-719.806	44.211	0.144	-0.176
-718.791	-128.235	0.224	-0.042
-717.777	46.777	-0.129	-0.159
-716.762	576.356	-0.077	0.251
-715.748	-200.000	-0.020	-0.296
-714.733	-11.037	-0.673	-0.588
-713.718	-131.780	-0.555	0.096
-712.704	-36.038	-0.199	0.142
-711.689	-66.020	0.188	-0.099
-710.675	-157.529	0.326	0.026
-709.660	-200.000	-0.049	0.429
-708.645	-70.517	0.718	-0.359
-707.631	799.384	0.081	-0.300
-706.616	-140.343	0.195	-0.027
-705.602	800.000	0.048	-0.252
-704.587	-200.000	0.063	-0.528
-703.572	277.384	-0.105	-0.248
-702.558	-130.570	0.176	-0.031
-701.543	-71.266	-0.300	0.149
-700.529	-163.235	0.137	0.009
-699.514	0.512	0.282	-0.267
-698.499	436.149	-0.132	0.382
-697.485	19.951	0.077	0.082
-696.470	-139.065	0.134	-0.019
-695.456	-10.206	0.182	-0.160
-694.441	-200.000	-0.011	-0.242
-693.426	-200.000	-0.019	0.240
-692.412	236.861	-0.097	-0.213
-691.397	-132.093	-0.549	-0.094
-690.383	488.729	-0.085	0.258
-689.368	0.690	-0.105	0.099
-688.354	800.000	-0.075	0.370
-687.339	800.000	0.053	-0.203
-686.324	143.888	-0.324	0.574
-685.310	185.985	0.102	0.201
-684.295	-53.355	-0.144	-0.087
-683.281	-200.000	-0.027	0.202
-682.266	-189.691	-0.444	0.007
-681.251	-200.000	0.019	-0.206
-680.237	-98.912	0.076	-0.025
-679.222	800.000	0.104	-0.557
-678.208	323.898	-0.129	-0.327
-677.193	144.435	0.191	-0.339
-676.178	24.018	-0.348	0.380
-675.164	226.097	0.247	0.532
-674.149	-114.531	0.247	-0.062
-673.135	-133.968	0.360	-0.059
-672.120	-88.302	-0.167	-0.066
-671.105	107.065	-0.227	0.358
-670.091	732.950	0.194	-0.691
-669.076	-200.000	-0.007	-0.259
-668.062	-86.340	0.143	0.058
-667.047	33.231	-0.189	0.217
-666.032	800.000	-0.048	0.274
-665.018	-116.651	0.078	-0.019
-664.003	-48.787	-0.167	0.106
-662.989	-143.850	-0.411	-0.051
-661.974	40.900	0.196	0.234
-660.959	297.651	-0.157	0.384
-659.945	800.000	0.024	0.120
-658.930	10.372	-0.250	-0.252
-657.916	-148.983	0.264	0.028
-656.901	115.332	0.084	0.137
-655.886	-196.449	-0.580	-0.005
-654.872	-43.116	-0.093	0.062
-653.857	-62.605	-0.329	0.180
-652.843	800.000	0.027	-0.141
-651.828	158.935	0.012	-0.022
-650.814	-113.740	-0.103	0.026
-649.799	759.087	-0.090	0.324
-648.784	524.467	0.175	-0.547
-647.770	-60.772	-0.276	-0.154
-646.755	-200.000	0.003	-0.084
-645.741	800.000	0.016	-0.086
-644.726	-200.000	-0.034	-0.242
-643.711	-170.363	0.372	0.017
-642.697	-101.270	0.128	-0.041
-641.682	-117.186	-0.133	-0.032
-640.668	-54.316	-0.196	-0.117
-639.653	-19.595	-0.071	-0.058
-638.638	17.342	0.234	0.245
-637.624	-82.015	0.141	-0.060
-636.609	-200.000	-0.007	0.169
-635.595	-200.000	0.079	0.671
-634.580	690.045	-0.099	0.343
-633.565	-85.392	0.094	0.038
-632.551	-200.000	-0.037	0.469
-631.536	5.752	0.444	0.434
-630.522	-200.000	-0.019	-0.190
-629.507	-200.000	-0.038	0.248
-628.492	-200.000	-0.024	0.180
-627.478	-192.592	0.205	-0.002
-626.463	-24.417	-0.119	0.094
-625.449	-25.371	-0.337	0.263
-624.434	800.000	0.024	-0.101
-623.419	39.271	0.102	0.121
-622.405	229.108	0.171	0.370
-621.390	28.082	-0.203	0.226
-620.376	-140.740	-0.181	-0.024
-619.361	-120.647	-0.664	-0.147
-618.346	56.055	0.338	-0.434
-617.332	113.692	0.075	0.120
-616.317	188.599	0.143	0.284
-615.303	266.603	-0.163	-0.378
-614.288	-89.769	0.332	-0.128
-613.273	800.000	-0.066	-0.264
-612.259	-200.000	0.098	-0.590
-611.244	-170.652	0.036	-0.002
-610.230	372.475	-0.107	-0.289
-609.215	800.000	0.118	-0.622
-608.201	-182.346	0.071	0.002
-607.186	-94.929	0.170	-0.060
-606.171	65.041	0.106	0.142
-605.157	-58.691	0.582	0.332
-604.142	-200.000	-0.051	0.393
-603.128	-37.773	-0.251	-0.176
-602.113	-100.314	0.287	0.093
-601.098	-200.000	0.024	-0.341
-600.084	-40.757	-0.205	0.140
-599.069	-117.564	0.054	0.013
-598.055	145.820	-0.307	0.545
-597.040	-168.252	0.390	0.020
-596.025	-23.859	-0.354	-0.279
-595.011	36.260	-0.191	0.222
-593.996	-122.706	-0.148	-0.031
-592.982	-67.981	0.260	-0.133
-591.967	173.638	-0.084	0.161
-590.952	-200.000	-0.009	-0.282
-589.938	-109.684	-0.393	0.108
-588.923	491.161	-0.175	0.533
-587.909	-200.000	-0.037	-0.422
-586.894	78.798	0.208	-0.294
-585.879	-37.338	-0.126	-0.089
-584.865	16.088	-0.280	-0.292
-583.850	-96.298	0.090	-0.031
-582.836	-200.000	-0.049	0.386
-581.821	184.566	0.201	0.394
-580.806	-101.076	0.443	-0.142
-579.792	59.154	0.230	-0.299
-578.777	-122.511	0.549	0.117
-577.763	-85.909	-0.463	0.188
-576.748	29.507	0.144	-0.161
-575.733	-30.693	0.380	-0.283
-574.719	-135.552	-0.291	-0.045
-573.704	52.306	0.091	0.115
-572.690	507.971	-0.137	0.420
-571.675	-19.241	0.345	-0.282
-570.661	540.133	0.050	0.157
-569.646	-200.000	0.065	0.830
-568.631	-56.233	0.070	-0.041
-567.617	-200.000	0.026	-0.322
-566.602	800.000	-0.055	-0.252
-565.588	-98.375	0.460	-0.154
-564.573	57.965	-0.203	-0.263
-563.558	263.835	-0.079	0.182
-562.544	-200.000	0.020	-0.302
-561.529	217.535	0.166	-0.349
-560.515	10.228	-0.387	-0.388
-559.500	-14.185	-0.130	0.111
-558.485	16.984	0.352	0.367
-557.471	-35.261	0.292	0.209
-556.456	-101.678	0.389	0.124
-555.442	-67.882	-0.443	0.227
-554.427	-13.433	-0.102	0.087
-553.412	-62.477	-0.648	0.354
-552.398	-200.000	0.078	-0.461
-551.383	-81.343	-0.309	-0.134
-550.369	-30.048	-0.186	-0.139
-549.354	-4.690	-0.319	-0.290
-548.339	225.649	0.113	0.241
-547.325	-200.000	-0.015	0.398
-546.310	-0.813	0.440	0.411
-545.296	800.000	0.065	-0.315
-544.281	216.244	-0.044	-0.092
-543.266	-99.835	0.505	0.166
-542.252	-200.000	-0.096	0.573
-541.237	-78.589	-0.195	0.088
-540.223	-177.315	-0.473	-0.015
-539.208	30.156	-0.062	-0.070
-538.193	260.644	0.052	-0.119
-537.179	-200.000	-0.017	-0.243
-536.164	690.450	0.055	0.189
-535.150	427.744	0.055	-0.158
-534.135	-200.000	0.006	-0.142
-533.121	-90.916	-0.366	0.138
-532.106	295.905	0.131	0.319
-531.091	264.604	-0.158	0.364
-530.077	-136.778	0.078	-0.012
-529.062	55.275	-0.129	0.165
-528.048	-131.263	-0.259	-0.045
-527.033	135.669	0.213	0.366
-526.018	58.804	0.203	0.263
-525.004	-200.000	0.006	-0.107
-523.989	129.762	-0.255	-0.431
-522.975	231.040	0.191	-0.414
-521.960	125.019	0.135	0.225
-520.945	75.436	-0.179	0.249
-519.931	11.740	-0.068	0.068
-518.916	-200.000	0.019	0.193
-517.902	-134.621	-0.213	-0.034
-516.887	-19.379	0.297	0.242
-515.872	255.444	0.193	-0.438
-514.858	-17.901	0.279	-0.230
-513.843	41.478	-0.112	-0.134
-512.829	28.452	-0.183	0.204
-511.814	800.000	-0.095	0.423
-510.799	313.931	0.156	-0.387
-509.785	-88.885	-0.037	-0.014
-508.770	-47.247	-0.533	0.341
-507.756	36.835	-0.352	0.410
-506.741	70.061	-0.287	0.390
-505.726	86.109	-0.317	-0.460
-504.712	102.734	0.197	0.304
-503.697	127.903	0.142	-0.239
-502.683	-84.605	0.126	0.052
-501.668	-200.000	0.007	-0.320
-500.653	346.181	0.079	-0.206
-499.639	18.270	-0.214	-0.225
-498.624	-28.108	-0.157	0.119
-497.610	-117.430	0.191	0.045
-496.595	255.971	-0.086	-0.194
-495.581	-200.000	-0.001	0.233
-494.566	325.316	0.105	0.264
-493.551	425.537	-0.171	0.488
-492.537	226.146	-0.114	-0.245
-491.522	39.496	0.186	-0.219
-490.508	-155.333	0.327	0.028
-489.493	43.242	0.085	0.102
-488.478	-158.536	-0.476	0.036
-487.464	-200.000	-0.054	-0.948
-486.449	135.871	-0.126	-0.216
-485.435	-200.000	0.058	-0.459
-484.420	-90.264	0.093	-0.036
-483.405	-127.663	-0.021	0.004
-482.391	37.183	0.059	0.069
-481.376	-200.000	-0.023	0.412
-480.362	427.590	0.143	0.408
-479.347	266.451	0.023	0.053
-478.332	-25.411	-0.295	-0.229
-477.318	676.828	0.065	-0.224
-476.303	538.581	-0.105	-0.331
-475.289	-200.000	0.009	0.172
-474.274	500.483	-0.116	-0.354
-473.259	291.355	-0.075	0.181
-472.245	-102.449	-0.437	-0.136
-471.230	773.518	0.056	0.201
-470.216	0.231	0.182	-0.170
-469.201	800.000	-0.093	-0.507
-468.186	-136.019	-0.188	-0.029
-467.172	-132.359	-0.316	-0.053
-466.157	2.809	-0.398	0.379
-465.143	-53.918	-0.372	0.222
-464.128	-193.545	-0.363	0.004
-463.113	163.628	0.137	-0.255
-462.099	-37.679	0.245	0.171
-461.084	-95.531	-0.792	-0.277
-460.070	162.585	-0.170	0.314
-459.055	-200.000	-0.008	-0.153
-458.040	-129.551	-0.330	-0.059
-457.026	-174.407	0.337	0.013
-456.011	143.490	0.329	0.578
-454.997	223.051	0.171	0.363
-453.982	82.376	0.176	0.251
-452.968	-6.975	-0.139	0.124
-451.953	-95.131	-0.428	0.151
-450.938	622.301	0.096	-0.318
-449.924	105.593	0.180	-0.279
-448.909	-75.920	0.125	-0.058
-447.895	-146.923	-0.137	-0.015
-446.880	-13.224	-0.193	-0.164
-445.865	55.644	0.202	0.257
-444.851	-200.000	0.031	0.401
-443.836	-200.000	0.017	0.103
-442.822	800.000	-0.033	0.186
-441.807	-19.331	0.237	-0.192
-440.792	-130.488	-0.589	0.104
-439.778	76.718	-0.245	0.342
-438.763	-7.392	-0.068	-0.060
-437.749	43.649	-0.306	0.367
-436.734	68.697	0.052	-0.070
-435.719	-175.562	0.275	0.010
-434.705	96.679	0.306	-0.461
-433.690	204.322	-0.132	0.269
-432.676	800.000	0.012	0.066
-431.661	-79.795	0.184	-0.081
-430.646	-104.585	0.556	0.167
-429.632	800.000	0.058	-0.224
-428.617	-30.456	-0.182	-0.135
-427.603	4.417	0.324	0.312
-426.588	65.518	0.192	-0.255
-425.573	-64.493	0.047	-0.025
-424.559	-89.564	0.187	0.071
-423.544	-50.303	-0.148	0.092
-422.530	182.070	-0.208	0.404
-421.515	-51.829	0.265	0.161
-420.500	-5.288	0.460	-0.415
-419.486	-47.225	-0.151	0.096
-418.471	309.040	-0.197	-0.486
-417.457	800.000	-0.031	0.148
-416.442	-57.634	-0.406	-0.233
-415.428	-200.000	-0.014	0.103
-414.413	-200.000	0.006	-0.094
-413.398	-79.616	0.154	0.068
-412.384	67.551	0.314	-0.421
-411.369	-125.363	0.480	-0.095
-410.355	293.519	-0.193	0.464
-409.340	-149.625	0.607	-0.062
-408.325	3.700	0.162	0.155
-407.311	44.430	0.385	0.464
-406.296	93.628	0.243	0.361
-405.282	-200.000	-0.029	-0.241
-404.267	-130.576	0.306	-0.054
-403.252	19.688	0.329	-0.346
-402.238	-125.064	-0.247	0.049
-401.223	-50.987	0.115	-0.070
-400.209	125.711	-0.181	0.300
-399.194	-96.099	-0.280	-0.097
-398.179	122.191	0.025	-0.041
-397.165	-1.078	0.398	-0.368
-396.150	-87.292	-0.434	-0.172
-395.136	-175.811	0.132	-0.005
-394.121	-46.863	0.306	-0.195
-393.106	78.556	0.129	0.181
-392.092	550.541	-0.126	-0.398
-391.077	-200.000	-0.041	-0.326
-390.063	-70.901	-0.495	0.243
-389.048	397.201	-0.035	0.097
-388.033	-195.913	-0.256	0.002
-387.019	-129.945	-0.228	0.041
-386.004	234.812	0.222	-0.481
-384.990	525.534	0.056	-0.175
-383.975	213.127	-0.068	-0.142
-382.960	493.817	-0.079	0.238
-381.946	-200.000	0.006	0.123
-380.931	46.511	0.097	-0.118
-379.917	-200.000	0.039	-0.263
-378.902	-15.210	0.395	-0.330
-377.888	-200.000	0.025	-0.321
-376.873	-2.760	0.305	-0.279
-375.858	-74.571	-0.214	0.101
-374.844	319.165	0.125	-0.312
-373.829	800.000	-0.088	-0.349
-372.815	-108.804	0.263	0.073
-371.800	-200.000	-0.003	0.273
-370.785	-200.000	-0.042	-0.266
-369.771	789.189	-0.149	0.539
-368.756	-200.000	-0.008	-0.092
-367.742	-200.000	0.010	0.114
-366.727	-68.703	-0.130	-0.065
-365.712	800.000	0.038	0.201
-364.698	60.049	0.312	0.404
-363.683	-200.000	0.003	-0.492
-362.669	-135.514	-0.130	0.020
-361.654	176.325	0.074	0.142
-360.639	-48.781	-0.137	-0.086
-359.625	-86.416	0.351	-0.140
-358.610	216.740	-0.125	-0.262
-357.596	48.597	0.310	0.380
-356.581	-24.952	-0.141	0.110
-355.566	-28.780	0.341	0.256
-354.552	283.012	-0.014	0.034
-353.537	-95.806	0.327	-0.114
-352.523	157.283	0.176	0.320
-351.508	-200.000	-0.031	-0.410
-350.493	-200.000	0.013	0.101
-349.479	197.427	0.216	-0.433
-348.464	121.501	-0.405	-0.661
-347.450	-130.800	-0.434	-0.075
-346.435	-90.559	0.360	-0.135
-345.420	-73.491	0.233	0.111
-344.406	609.288	-0.027	-0.088
-343.391	-14.399	0.424	0.357
-342.377	-131.875	-0.634	0.107
-341.362	24.160	-0.218	-0.235
-340.348	10.488	0.143	-0.143
-339.333	800.000	-0.049	-0.186
-338.318	294.085	0.145	0.347
-337.304	230.862	-0.124	0.267
-336.289	800.000	-0.068	-0.373
-335.275	-57.819	0.173	0.099
-334.260	-196.513	-0.599	0.005
-333.245	-197.577	-0.358	0.003
-332.231	-23.502	0.156	-0.122
-331.216	-106.227	-0.225	-0.065
-330.202	318.181	-0.023	-0.057
-329.187	337.433	-0.131	0.333
-328.172	800.000	0.057	0.294
-327.158	-52.462	-0.538	0.324
-326.143	-200.000	0.231	0.001
-325.129	2.590	-0.208	-0.196
-324.114	-200.000	-0.053	-0.346
-323.099	-39.581	-0.350	0.239
-322.085	-26.473	0.473	0.362
-321.070	-200.000	0.020	-0.348
-320.056	-90.319	0.343	-0.129
-319.041	-200.000	0.009	0.486
-318.026	-110.996	-0.075	0.020
-317.012	800.000	-0.033	0.148
-315.997	4.871	-0.402	-0.386
-314.983	-200.000	0.001	0.252
-313.968	209.830	0.053	-0.108
-312.953	-13.279	0.308	-0.261
-311.939	-200.000	-0.019	-0.550
-310.924	-200.000	-0.011	-0.286
-309.910	-39.800	0.117	-0.080
-308.895	-65.173	-0.240	0.126
-307.880	-66.164	0.352	-0.182
-306.866	329.689	-0.063	-0.160
-305.851	-200.000	-0.003	-0.387
-304.837	-154.715	0.215	-0.018
-303.822	-200.000	-0.020	0.242
-302.807	421.415	-0.194	0.546
-301.793	-200.000	0.069	0.403
-300.778	-90.774	-0.098	0.037
-299.764	-126.867	-0.289	0.055
-298.749	100.099	0.232	-0.352
-297.735	87.634	0.129	-0.187
-296.720	-106.356	0.050	-0.014
-295.705	-91.770	0.301	-0.111
-294.691	-143.389	0.402	0.050
-293.676	-45.706	0.029	-0.018
-292.662	-152.399	0.325	-0.030
-291.647	-9.575	-0.120	0.104
-290.632	-133.937	-0.135	0.022
-289.618	-200.000	-0.042	-0.645
-288.603	-200.000	0.000	0.074
-287.589	800.000	-0.045	0.233
-286.574	-64.735	-0.539	0.284
-285.559	17.054	-0.282	0.292
-284.545	-200.000	0.042	0.296
-283.530	85.900	0.061	0.088
-282.516	-150.446	-0.360	0.036
-281.501	-118.157	0.058	-0.013
-280.486	800.000	-0.057	-0.217
-279.472	59.700	-0.096	0.124
-278.457	-200.000	-0.005	0.227
-277.443	132.447	-0.099	0.167
-276.428	-106.593	-0.234	-0.068
-275.413	-200.000	-0.002	-0.066
-274.399	-200.000	0.007	0.068
-273.384	-3.873	-0.399	0.360
-272.370	637.532	0.088	0.293
-271.355	-57.772	-0.192	-0.109
-270.340	92.190	0.414	-0.609
-269.326	368.952	0.072	-0.191
-268.311	193.889	-0.301	-0.596
-267.297	800.000	-0.132	-0.634
-266.282	78.069	-0.197	-0.275
-265.267	-133.297	0.569	0.093
-264.253	-23.129	-0.217	0.170
-263.238	285.856	-0.202	0.477
-262.224	710.883	0.063	0.218
-261.209	800.000	0.063	-0.289
-260.195	800.000	-0.109	-0.471
-259.180	-48.414	0.270	0.169
-258.165	-90.847	0.733	-0.274
-257.151	-200.000	0.003	0.076
-256.136	214.955	0.189	0.393
-255.122	-200.000	0.043	-0.412
-254.107	-31.706	0.282	0.206
-253.092	5.133	0.130	0.124
-252.078	-1.683	0.230	0.211
-251.063	-50.108	-0.429	0.264
-250.049	-60.681	0.183	0.101
-249.034	800.000	0.115	0.425
-248.019	-6.404	-0.521	0.462
-247.005	-133.428	-0.402	0.065
-245.990	129.094	0.239	-0.398
-244.976	299.006	-0.117	0.281
-243.961	-61.249	-0.305	0.167
-242.946	-113.308	0.374	0.095
-241.932	-129.683	0.059	-0.011
-240.917	95.804	0.168	0.250
-239.903	-200.000	-0.028	0.260
-238.888	-62.222	-0.247	-0.134
-237.873	-200.000	0.036	-0.407
-236.859	-7.842	0.230	-0.202
-235.844	-32.680	0.249	-0.180
-234.830	117.908	-0.157	-0.252
-233.815	-131.409	0.462	0.079
-232.800	-150.790	0.146	-0.014
-231.786	-200.000	-0.112	-0.654
-230.771	-200.000	0.003	0.272
-229.757	-82.421	-0.307	-0.129
-228.742	-118.964	-0.358	-0.081
-227.727	-12.593	-0.331	0.281
-226.713	-163.091	0.067	0.004
-225.698	-154.296	-0.388	-0.034
-224.684	-47.480	0.515	-0.325
-223.669	-95.301	0.305	-0.106
-222.655	-3.269	-0.289	-0.262
-221.640	-200.000	-0.013	-0.205
-220.625	-85.734	-0.033	0.013
-219.611	-11.033	0.167	0.143
-218.596	50.243	-0.405	-0.498
-217.582	27.246	-0.124	-0.136
-216.567	-200.000	0.111	0.831
-215.552	-90.445	0.377	0.141
-214.538	-20.483	-0.181	-0.145
-213.523	-106.991	0.533	0.152
-212.509	-200.000	0.002	0.059
-211.494	-115.159	0.589	0.144
-210.479	-200.000	0.016	-0.253
-209.465	65.326	0.030	-0.040
-208.450	800.000	-0.043	0.208
-207.436	-10.188	0.436	0.376
-206.421	665.849	0.067	-0.226
-205.406	-46.112	0.205	0.131
-204.392	478.908	0.185	-0.549
-203.377	138.987	-0.094	0.161
-202.363	28.304	-0.026	0.029
-201.348	-29.580	0.116	0.086
-200.333	-200.000	0.002	0.176
-199.319	-125.797	-0.473	0.092
-198.304	-137.479	0.135	0.020
-197.290	-200.000	0.042	0.463
-196.275	800.000	-0.080	0.375
-195.260	-7.059	0.178	0.157
-194.246	-9.998	0.118	-0.102
-193.231	-115.453	-0.392	0.095
-192.217	-200.000	-0.015	0.330
-191.202	73.269	-0.189	-0.258
-190.187	-2.037	-0.514	0.469
-189.173	184.972	0.254	0.491
-188.158	-80.525	0.463	-0.200
-187.144	-152.661	-0.058	0.005
-186.129	-47.725	0.377	0.237
-185.114	-171.515	-0.104	-0.004
-184.100	14.131	-0.322	-0.326
-183.085	800.000	-0.058	-0.311
-182.071	-40.150	-0.239	-0.161
-181.056	48.640	-0.048	-0.059
-180.042	-98.195	0.276	-0.092
-179.027	-91.070	-0.079	-0.029
-178.012	609.008	-0.065	0.211
-176.998	-153.370	0.074	-0.007
-175.983	-136.631	-0.222	-0.033
-174.969	-29.309	-0.081	-0.060
-173.954	-200.000	0.003	0.272
-172.939	-200.000	-0.014	0.467
-171.925	-200.000	0.010	0.196
-170.910	228.188	-0.220	0.467
-169.896	-200.000	0.048	-0.383
-168.881	800.000	0.142	-0.719
-167.866	-37.860	-0.260	-0.179
-166.852	57.138	0.186	-0.236
-165.837	304.154	0.055	-0.133
-164.823	11.709	-0.296	0.295
-163.808	-200.000	-0.029	-0.286
-162.793	-85.383	-0.312	0.126
-161.779	-101.002	-0.119	-0.038
-160.764	-67.473	0.249	0.126
-159.750	-103.583	0.277	-0.084
-158.735	495.379	-0.054	-0.161
-157.720	-117.695	-0.138	-0.032
-156.706	217.418	-0.021	0.043
-155.691	365.536	-0.034	-0.088
-154.677	-164.027	-0.175	0.010
-153.662	156.119	-0.289	-0.519
-152.647	-148.822	0.314	-0.033
-151.633	-0.055	0.105	-0.097
-150.618	51.981	0.311	-0.384
-149.604	-23.330	0.179	-0.139
-148.589	-72.684	0.217	-0.104
-147.574	13.809	0.212	0.214
-146.560	637.943	0.023	-0.077
-145.545	-79.268	0.262	-0.115
-144.531	-200.000	0.065	-0.412
-143.516	-3.329	0.236	0.213
-142.502	33.971	0.352	-0.397
-141.487	-171.404	-0.362	-0.015
-140.472	-110.775	-0.425	-0.113
-139.458	800.000	-0.042	0.218
-138.443	-183.535	0.316	0.007
-137.429	88.531	0.207	-0.299
-136.414	-200.000	0.010	-0.120
-135.399	93.414	-0.088	0.129
-134.385	800.000	-0.126	0.665
-133.370	-145.574	0.176	-0.020
-132.356	-70.410	-0.273	0.134
-131.341	-200.000	0.010	0.266
-130.326	-79.192	-0.340	0.149
-129.312	-64.489	-0.477	0.250
-128.297	-200.000	-0.047	-0.482
-127.283	-200.000	0.038	0.449
-126.268	10.239	0.186	0.183
-125.253	-80.065	-0.309	-0.134
-124.239	-84.812	-0.535	-0.217
-123.224	-117.638	0.612	0.142
-122.210	544.860	0.146	0.454
-121.195	61.569	0.167	0.215
-120.180	800.000	0.053	0.234
-119.166	-63.624	0.341	-0.181
-118.151	800.000	-0.071	0.344
-117.137	-5.293	0.145	0.129
-116.122	-95.973	0.246	-0.084
-115.107	-74.153	0.263	-0.123
-114.093	-120.680	-0.638	0.139
-113.078	-161.328	0.106	-0.007
-112.064	-174.825	0.509	-0.018
-111.049	21.886	0.286	-0.302
-110.034	-117.549	0.188	-0.044
-109.020	-113.481	0.178	-0.045
-108.005	102.308	0.250	0.379
-106.991	-174.865	0.439	0.016
-105.976	-43.616	0.453	0.295
-104.962	-162.615	0.293	-0.018
-103.947	-102.830	0.456	0.140
-102.932	541.457	-0.114	0.355
-101.918	685.659	-0.165	0.560
-100.903	280.132	-0.055	0.128
-99.889	-200.000	0.012	-0.097
-98.874	-200.000	-0.042	-0.539
-97.859	212.845	0.041	-0.083
-96.845	-139.227	-0.035	0.005
-95.830	800.000	-0.026	0.102
-94.816	56.575	-0.110	0.138
-93.801	333.527	0.016	-0.041
-92.786	-128.602	0.398	0.072
-91.772	-13.321	0.115	-0.097
-90.757	261.344	-0.071	0.160
-89.743	-63.648	0.266	0.141
-88.728	332.171	-0.040	-0.099
-87.713	68.168	-0.143	-0.189
-86.699	800.000	-0.035	-0.165
-85.684	-117.013	0.431	-0.101
-84.670	-37.483	0.059	-0.040
-83.655	134.054	-0.167	-0.281
-82.640	9.011	-0.315	-0.308
-81.626	800.000	0.092	-0.378
-80.611	162.685	0.218	0.397
-79.597	-9.865	0.263	-0.226
-78.582	-153.366	-0.304	0.027
-77.567	83.176	-0.098	-0.139
-76.553	-7.167	-0.094	0.082
-75.538	245.677	0.084	-0.184
-74.524	22.518	0.062	0.065
-73.509	81.819	-0.227	0.318
-72.494	135.086	0.058	0.098
-71.480	-109.771	0.409	-0.110
-70.465	-116.343	-0.172	-0.041
-69.451	-24.952	0.043	-0.033
-68.436	-26.607	0.436	0.329
-67.422	-55.193	-0.214	0.124
-66.407	-200.000	0.055	0.331
-65.392	800.000	-0.011	-0.051
-64.378	405.669	-0.108	0.296
-63.363	-155.725	-0.091	0.007
-62.349	-30.275	-0.578	0.424
-61.334	50.730	-1.918	-2.350
-60.319	74.927	1.440	1.963
-59.305	210.363	-3.413	-6.953
-58.290	81.410	3.881	5.432
-57.276	420.409	3.756	10.457
-56.261	-200.000	24.004	319.965
-55.246	352.468	1304.787	3359.221
-54.232	52.285	2848.530	3514.972
-53.217	50.901	2661.966	3263.199
-52.203	31.411	2391.969	2657.057
-51.188	27.478	2058.593	2238.178
-50.173	24.388	1943.992	2077.386
-49.159	23.346	1932.271	2052.649
-48.144	22.807	1927.379	2041.118
-47.130	22.703	1925.119	2037.435
-46.115	22.689	1923.769	2035.763
-45.100	22.620	1922.078	2033.085
-44.086	22.680	1921.090	2032.659
-43.071	22.810	1917.962	2030.766
-42.057	22.605	1917.303	2027.620
-41.042	22.635	1916.082	2026.599
-40.027	22.689	1914.659	2025.640
-39.013	22.708	1913.235	2024.266
-37.998	22.529	1912.428	2021.268
-36.984	22.585	1911.538	2020.890
-35.969	22.515	1909.879	2018.257
-34.954	22.459	1908.246	2015.804
-33.940	22.468	1907.069	2014.581
-32.925	22.590	1905.318	2014.055
-31.911	22.483	1905.175	2012.596
-30.896	22.555	1902.757	2010.788
-29.881	22.574	1901.277	2009.362
-28.867	22.512	1900.498	2007.744
-27.852	22.451	1898.440	2004.797
-26.838	22.419	1897.358	2003.208
-25.823	22.504	1895.823	2002.478
-24.809	22.509	1894.803	2001.373
-23.794	22.393	1893.342	1998.429
-22.779	22.499	1891.902	1998.043
-21.765	22.435	1891.129	1996.417
-20.750	22.454	1890.230	1995.609
-19.736	22.395	1888.595	1993.129
-18.721	22.458	1887.402	1992.510
-17.706	22.398	1886.288	1990.576
-16.692	22.464	1885.093	1989.978
-15.677	22.363	1883.484	1987.055
-14.663	22.446	1882.494	1986.879
-13.648	22.329	1881.127	1984.025
-12.633	22.371	1880.316	1983.570
-11.619	22.418	1878.809	1982.431
-10.604	22.329	1877.344	1979.798
-9.590	22.420	1875.835	1979.157
-8.575	22.303	1875.083	1976.962
-7.560	22.196	1874.985	1975.571
-6.546	22.248	1872.805	1973.785
-5.531	22.298	1871.900	1973.322
-4.517	22.233	1870.828	1971.375
-3.502	22.256	1869.861	1970.534
-2.487	22.352	1868.602	1970.216
-1.473	22.389	1864.511	1966.235
-0.458	22.275	1846.143	1945.524
0.556	18.834	1993.543	2047.428
1.571	17.342	2197.141	2236.552
2.586	18.119	2235.997	2286.275
3.600	18.144	2238.483	2288.889
4.615	18.109	2238.171	2287.815
5.629	18.079	2235.825	2284.746
6.644	18.086	2233.215	2281.899
7.659	18.161	2230.893	2280.253
8.673	18.106	2230.689	2279.036
9.688	17.890	2239.679	2285.042
10.702	17.079	2319.777	2355.171
11.717	15.375	2383.952	2395.598
12.731	7.097	2364.397	2257.409
13.746	0.902	2348.751	2153.773
14.761	0.052	2346.902	2139.672
15.775	0.106	2343.240	2136.851
16.790	0.109	2341.433	2134.986
17.804	0.084	2340.848	2133.847
18.819	0.102	2339.639	2132.739
19.834	0.042	2337.885	2130.035
20.848	0.178	2336.039	2130.030
21.863	0.076	2334.340	2126.770
22.877	0.106	2332.564	2125.327
23.892	0.053	2330.480	2122.426
24.907	0.070	2327.926	2120.084
25.921	0.045	2327.501	2119.092
26.936	-0.081	2325.107	2114.877
27.950	-0.016	2321.480	2112.247
28.965	-0.010	2320.160	2110.878
29.980	0.035	2318.370	2109.620
30.994	0.140	2315.851	2108.557
32.009	3.749	2327.929	2170.314
33.023	12.595	2352.948	2319.176
34.038	16.236	2358.450	2375.921
35.053	16.163	2354.783	2370.913
36.067	16.026	2351.927	2365.829
37.082	16.057	2350.154	2364.196
38.096	16.256	2348.998	2365.549
39.111	16.408	2347.028	2365.424
40.126	16.605	2345.051	2365.913
41.140	16.759	2343.715	2366.457
42.155	16.725	2341.608	2363.556
43.169	16.641	2339.611	2360.087
44.184	16.518	2336.251	2354.696
45.199	16.499	2334.113	2351.996
46.213	16.623	2332.960	2352.277
47.228	16.606	2332.528	2351.320
48.242	16.617	2332.375	2351.038
49.257	16.741	2329.796	2349.891
50.271	16.910	2326.527	2348.666
51.286	16.617	2324.017	2341.775
52.301	16.350	2322.109	2335.866
53.315	17.145	2324.572	2349.120
54.330	19.949	2331.212	2394.583
55.344	21.716	2333.055	2420.757
56.359	21.947	2329.215	2419.680
57.374	22.048	2329.385	2420.962
58.388	22.098	2326.938	2418.830
59.403	21.898	2322.885	2411.563
60.417	21.582	2319.975	2403.885
61.432	21.578	2318.959	2402.494
62.447	21.942	2317.088	2405.287
63.461	22.065	2315.462	2405.007
64.476	22.278	2313.044	2405.125
65.490	21.895	2311.280	2397.748
66.505	20.918	2308.381	2381.043
67.520	19.055	2299.377	2345.959
68.534	17.008	2291.041	2309.202
69.549	16.326	2287.240	2295.779
70.563	16.319	2284.594	2292.756
71.578	16.411	2282.844	2291.978
72.593	16.461	2280.284	2289.808
73.607	16.630	2279.786	2291.338
74.622	16.596	2278.502	2289.313
75.636	16.384	2275.471	2283.110
76.651	16.422	2272.507	2280.385
77.666	16.347	2271.140	2277.718
78.680	16.277	2268.253	2273.603
79.695	16.053	2265.883	2267.923
80.709	16.078	2264.777	2266.892
81.724	16.123	2261.671	2264.118
82.739	16.165	2260.099	2262.832
83.753	16.029	2257.739	2258.374
84.768	16.000	2256.697	2256.673
85.782	15.962	2254.924	2254.117
86.797	15.943	2253.269	2251.936
87.812	16.019	2250.816	2250.230
88.826	16.116	2249.958	2250.410
89.841	16.228	2246.855	2248.536
90.855	16.178	2244.790	2245.526
91.870	16.247	2243.955	2245.349
92.884	16.124	2241.857	2241.338
93.899	16.180	2240.915	2240.867
94.914	16.943	2242.750	2252.630
95.928	19.430	2250.426	2293.343
96.943	20.141	2249.373	2301.488
97.957	17.714	2238.205	2257.518
98.972	16.101	2233.034	2230.599
99.987	15.933	2229.483	2224.558
101.001	16.002	2226.496	2222.232
102.016	15.979	2224.263	2219.436
103.030	16.059	2222.136	2218.103
104.045	15.947	2220.665	2214.882
105.060	16.076	2217.455	2213.116
106.074	16.023	2216.531	2211.239
107.089	15.988	2215.230	2209.210
108.103	16.088	2213.914	2208.953
109.118	16.213	2211.660	2208.088
110.133	16.258	2209.880	2206.637
111.147	16.048	2209.041	2202.766
112.162	16.097	2206.861	2200.971
113.176	16.422	2204.535	2202.659
114.191	16.313	2204.149	2200.573
115.206	16.342	2201.779	2198.323
116.220	16.212	2200.265	2194.858
117.235	16.406	2197.714	2194.580
118.249	16.316	2195.821	2191.246
119.264	16.261	2194.586	2189.034
120.279	16.303	2192.250	2186.996
121.293	16.391	2190.368	2186.004
122.308	16.285	2189.341	2183.338
123.322	16.169	2188.394	2180.619
124.337	16.515	2190.072	2186.536
125.352	19.354	2197.627	2230.784
126.366	20.059	2195.057	2237.066
127.381	17.362	2183.687	2190.343
128.395	16.293	2179.532	2172.101
129.410	16.167	2176.656	2167.341
130.424	16.023	2175.605	2164.182
131.439	16.202	2173.101	2163.738
132.454	16.220	2172.195	2162.804
133.468	16.462	2170.359	2163.833
134.483	16.434	2169.307	2162.168
135.497	16.581	2167.455	2161.949
136.512	16.463	2165.055	2157.787
137.527	16.253	2162.864	2152.642
138.541	16.126	2161.897	2149.795
139.556	16.141	2161.553	2149.390
140.570	15.953	2159.267	2144.451
141.585	16.059	2156.553	2142.856
142.600	15.902	2155.802	2139.853
143.614	15.964	2154.323	2138.923
144.629	15.874	2152.877	2136.077
145.643	15.699	2151.118	2131.846
146.658	15.816	2147.873	2129.869
147.673	15.766	2145.822	2126.937
148.687	15.796	2145.659	2126.907
149.702	16.095	2144.577	2129.375
150.716	15.998	2144.127	2127.446
151.731	16.099	2142.229	2126.590
152.746	16.182	2142.019	2127.170
153.760	16.970	2145.036	2139.908
154.775	19.643	2151.147	2179.693
155.789	20.439	2149.125	2187.467
156.804	17.833	2138.563	2143.584
157.819	16.153	2132.306	2115.891
158.833	16.042	2128.787	2110.754
159.848	16.118	2126.786	2109.466
160.862	16.211	2125.440	2109.050
161.877	16.277	2124.348	2108.549
162.892	16.358	2124.449	2109.407
163.906	16.348	2122.368	2106.967
164.921	16.244	2120.541	2103.597
165.935	16.222	2118.274	2100.823
166.950	16.330	2117.365	2101.018
167.964	16.310	2114.222	2097.394
168.979	16.027	2112.640	2092.050
169.994	16.043	2110.730	2090.104
171.008	15.973	2108.433	2086.705
172.023	15.952	2107.318	2085.094
173.037	15.942	2107.797	2085.192
174.052	16.091	2105.949	2084.969
175.067	16.177	2103.326	2083.187
176.081	16.116	2102.004	2080.871
177.096	16.012	2102.204	2079.529
178.110	16.183	2099.532	2078.757
179.125	16.290	2097.831	2078.148
180.140	16.221	2096.347	2075.583
181.154	16.225	2095.638	2074.671
182.169	16.421	2095.130	2076.350
183.183	17.149	2097.791	2087.737
184.198	20.066	2105.071	2130.839
185.213	20.521	2102.204	2133.297
186.227	17.707	2091.817	2087.910
187.242	16.515	2087.746	2068.949
188.256	16.273	2086.272	2064.265
189.271	16.158	2083.256	2059.616
190.286	15.993	2082.162	2056.273
191.300	16.119	2079.596	2055.031
192.315	16.080	2078.977	2053.692
193.329	16.306	2077.741	2054.996
194.344	16.602	2076.549	2057.193
195.359	16.545	2076.002	2055.705
196.373	16.247	2073.415	2049.262
197.388	16.211	2070.210	2045.408
198.402	16.103	2067.064	2040.742
199.417	15.967	2065.558	2037.353
200.432	16.057	2065.227	2037.879
201.446	15.998	2063.859	2035.573
202.461	16.030	2061.479	2033.368
203.475	15.871	2060.052	2029.785
204.490	15.997	2058.367	2029.406
205.504	15.982	2055.645	2026.298
206.519	16.181	2054.182	2027.025
207.534	16.140	2052.735	2024.854
208.548	16.179	2051.032	2023.404
209.563	16.169	2050.002	2022.032
210.577	16.179	2050.049	2021.955
211.592	16.259	2048.661	2021.299
212.607	17.662	2053.513	2042.766
213.621	20.924	2060.095	2088.418
214.636	20.284	2053.338	2073.642
215.650	17.194	2044.862	2027.809
216.665	16.393	2041.314	2014.455
217.680	16.237	2039.301	2010.360
218.694	16.084	2037.370	2006.384
219.709	16.071	2035.611	2004.262
220.723	16.050	2035.375	2003.537
221.738	16.324	2033.325	2004.542
222.753	16.418	2030.648	2002.783
223.767	16.336	2030.336	2001.260
224.782	16.256	2028.332	1998.097
225.796	16.275	2026.352	1996.131
226.811	16.262	2025.031	1994.441
227.826	16.252	2022.812	1991.892
228.840	16.144	2021.610	1989.195
229.855	16.032	2020.428	1986.463
230.869	16.115	2018.573	1985.384
231.884	16.204	2017.138	1984.783
232.899	16.122	2016.067	1982.529
233.913	16.167	2014.598	1981.377
234.928	16.102	2012.909	1978.706
235.942	16.053	2011.419	1976.434
236.957	16.082	2010.441	1975.577
237.972	16.026	2008.476	1972.752
238.986	15.971	2007.229	1970.645
240.001	16.062	2005.557	1969.836
241.015	16.250	2005.143	1971.395
242.030	17.026	2007.031	1982.130
243.045	19.617	2013.504	2018.764
244.059	19.905	2010.262	2018.652
245.074	17.369	2001.035	1979.515
246.088	16.406	1996.537	1963.585
247.103	16.548	1995.264	1963.750
248.117	16.511	1993.085	1960.951
249.132	16.243	1991.616	1956.142
250.147	16.031	1990.251	1952.096
251.161	16.156	1988.574	1951.676
252.176	16.407	1988.281	1954.075
253.190	16.674	1986.271	1954.967
254.205	16.672	1984.151	1952.617
255.220	16.688	1982.637	1951.086
256.234	16.626	1981.359	1948.875
257.249	16.308	1980.069	1943.688
258.263	16.292	1979.020	1942.240
259.278	16.441	1977.644	1942.387
260.293	16.177	1975.372	1936.876
261.307	16.066	1973.397	1933.420
262.322	15.968	1972.003	1930.694
263.336	16.047	1969.542	1928.968
264.351	15.875	1968.494	1925.735
265.366	15.741	1967.052	1922.548
266.380	15.856	1966.622	1923.221
267.395	16.085	1964.410	1923.453
268.409	16.078	1962.096	1920.878
269.424	15.921	1961.869	1918.630
270.439	16.136	1960.897	1919.903
271.453	17.045	1964.478	1933.598
272.468	19.959	1969.776	1971.993
273.482	20.090	1965.479	1968.946
274.497	17.287	1955.466	1926.799
275.512	16.135	1951.357	1909.414
276.526	15.964	1949.592	1905.509
277.541	15.999	1947.108	1903.253
278.555	15.856	1945.358	1899.697
279.570	15.729	1944.141	1896.840
280.585	15.837	1943.111	1896.824
281.599	15.972	1941.835	1896.880
282.614	16.139	1941.401	1898.127
283.628	16.535	1940.870	1901.858
284.643	16.609	1939.410	1901.029
285.657	16.816	1939.146	1902.885
286.672	16.847	1937.397	1901.288
287.687	16.945	1935.222	1900.029
288.701	16.758	1933.977	1896.473
289.716	16.612	1932.568	1893.230
290.730	16.618	1931.567	1892.089
291.745	16.822	1930.099	1892.716
292.760	16.755	1928.867	1890.529
293.774	16.493	1927.699	1886.217
294.789	16.461	1925.798	1883.768
295.803	16.342	1922.338	1878.836
296.818	16.257	1921.811	1877.137
297.833	16.341	1921.833	1877.874
298.847	16.365	1919.476	1875.618
299.862	16.280	1918.706	1873.689
300.876	17.142	1920.323	1884.668
301.891	20.028	1926.508	1922.762
302.906	20.442	1924.171	1924.809
303.920	17.562	1914.933	1883.368
304.935	16.576	1911.456	1868.784
305.949	16.282	1909.110	1863.007
306.964	16.267	1906.912	1860.468
307.979	16.328	1905.962	1859.997
308.993	16.569	1904.946	1861.443
310.008	16.897	1903.901	1863.830
311.022	16.848	1903.283	1862.456
312.037	16.658	1900.888	1857.800
313.052	16.819	1898.335	1856.853
314.066	16.745	1898.212	1855.699
315.081	16.805	1897.624	1855.558
316.095	16.793	1895.839	1853.453
317.110	16.541	1893.802	1848.475
318.125	16.479	1891.844	1845.662
319.139	16.372	1891.043	1843.486
320.154	16.557	1889.352	1843.650
321.168	16.474	1887.494	1840.709
322.183	16.277	1886.167	1837.035
323.197	16.028	1884.911	1832.874
324.212	16.055	1881.658	1829.779
325.227	15.811	1880.331	1825.615
326.241	15.932	1878.452	1824.891
327.256	15.925	1877.795	1823.955
328.270	15.927	1876.730	1822.726
329.285	16.027	1875.852	1822.742
330.300	17.151	1880.650	1839.422
331.314	20.367	1886.568	1880.051
332.329	20.156	1881.596	1872.579
333.343	17.198	1872.047	1830.858
334.358	15.982	1868.218	1813.746
335.373	15.952	1866.331	1811.370
336.387	15.571	1864.709	1805.468
337.402	15.805	1863.704	1806.809
338.416	15.893	1861.832	1805.725
339.431	16.016	1860.813	1805.844
340.446	16.219	1859.094	1806.147
341.460	16.223	1859.054	1805.934
342.475	16.461	1858.620	1807.855
343.489	16.781	1855.924	1808.448
344.504	16.503	1855.664	1804.992
345.519	16.595	1853.924	1804.069
346.533	16.833	1852.734	1805.246
347.548	16.811	1851.164	1803.270
348.562	16.773	1849.532	1801.052
349.577	16.785	1849.579	1801.017
350.592	16.934	1849.157	1801.982
351.606	16.975	1848.028	1801.103
352.621	17.002	1845.149	1798.363
353.635	16.683	1843.472	1793.121
354.650	16.638	1841.166	1790.183
355.665	16.406	1840.184	1786.549
356.679	16.323	1838.220	1783.548
357.694	16.233	1837.527	1781.708
358.708	16.155	1835.610	1778.811
359.723	17.494	1839.796	1796.869
360.738	20.521	1844.244	1833.139
361.752	19.761	1839.718	1820.382
362.767	17.162	1831.986	1785.084
363.781	16.512	1828.866	1774.975
364.796	16.374	1826.596	1771.111
365.810	16.176	1826.060	1768.291
366.825	16.249	1825.169	1767.988
367.840	16.522	1824.572	1770.065
368.854	16.627	1823.040	1769.470
369.869	16.368	1821.662	1765.202
370.883	16.385	1819.323	1762.907
371.898	16.342	1818.112	1761.074
372.913	16.232	1816.981	1758.615
373.927	16.203	1816.562	1757.693
374.942	16.382	1815.619	1758.443
375.956	16.578	1814.265	1758.973
376.971	16.603	1811.090	1755.942
377.986	16.372	1809.754	1752.025
379.000	16.329	1808.131	1749.796
380.015	16.352	1806.795	1748.533
381.029	16.271	1804.350	1745.120
382.044	15.911	1802.299	1739.187
383.059	15.928	1801.236	1738.129
384.073	15.970	1800.382	1737.537
385.088	15.891	1799.936	1736.082
386.102	15.976	1797.776	1734.670
387.117	15.917	1796.302	1732.426
388.132	15.997	1796.550	1733.285
389.146	16.997	1800.599	1747.345
390.161	20.362	1805.096	1786.358
391.175	20.174	1797.665	1776.852
392.190	17.179	1789.402	1737.720
393.205	16.219	1786.864	1725.185
394.219	16.204	1785.189	1723.209
395.234	16.065	1783.225	1719.681
396.248	16.229	1781.248	1719.254
397.263	16.114	1779.274	1715.961
398.278	16.104	1777.348	1713.796
399.292	16.032	1777.364	1712.875
400.307	16.112	1776.813	1712.954
401.321	16.331	1775.396	1713.621
402.336	16.385	1774.812	1713.400
403.350	16.446	1773.449	1712.502
404.365	16.473	1772.405	1711.560
405.380	16.795	1771.640	1713.890
406.394	16.912	1770.691	1713.954
407.409	16.795	1769.247	1711.168
408.423	16.994	1767.427	1711.221
409.438	16.878	1765.516	1707.994
410.453	16.764	1764.339	1705.498
411.467	16.840	1764.066	1705.795
412.482	16.715	1762.242	1702.562
413.496	16.445	1760.184	1697.643
414.511	16.221	1758.802	1693.847
415.526	16.212	1756.630	1691.460
416.540	16.286	1754.064	1689.541
417.555	16.321	1754.532	1690.140
418.569	16.528	1754.964	1692.433
419.584	16.582	1754.454	1692.279
420.599	16.547	1754.471	1691.742
421.613	16.406	1752.666	1688.384
422.628	16.464	1750.635	1686.810
423.642	16.336	1748.812	1683.567
424.657	16.455	1747.593	1683.380
425.672	16.482	1745.596	1681.530
426.686	16.514	1744.371	1680.471
427.701	16.392	1743.455	1678.161
428.715	16.524	1742.714	1678.569
429.730	16.606	1741.669	1678.176
430.745	16.718	1739.911	1677.402
431.759	16.717	1740.028	1677.304
432.774	17.091	1740.908	1681.668
433.788	17.769	1740.315	1687.639
434.803	17.966	1740.182	1689.272
435.818	17.884	1739.380	1687.471
436.832	17.689	1738.416	1684.405
437.847	16.688	1731.357	1667.454
438.861	9.092	1711.238	1573.297
439.876	1.662	1696.917	1487.162
440.890	0.269	1693.304	1470.166
441.905	0.180	1692.652	1468.552
442.920	0.220	1690.984	1467.316
443.934	0.137	1690.107	1465.566
444.949	0.161	1689.235	1464.871
445.963	0.055	1688.040	1462.625
446.978	0.200	1687.320	1463.241
447.993	0.134	1685.313	1460.683
449.007	0.198	1683.326	1459.408
450.022	0.292	1681.099	1458.218
451.036	0.101	1680.618	1455.772
452.051	1.005	1684.906	1468.118
453.066	8.385	1701.157	1554.499
454.080	15.983	1712.144	1638.902
455.095	17.546	1714.917	1656.652
456.109	17.831	1713.887	1658.243
457.124	17.908	1713.535	1658.463
458.139	17.956	1712.326	1657.562
459.153	18.046	1712.325	1658.241
460.168	18.052	1710.292	1656.132
461.182	18.018	1708.649	1654.012
462.197	18.093	1706.140	1652.114
463.212	18.014	1704.773	1649.821
464.226	18.036	1703.320	1648.428
465.241	18.074	1703.128	1648.414
466.255	18.093	1702.094	1647.401
467.270	18.150	1700.319	1646.035
468.285	17.869	1698.960	1641.809
469.299	17.944	1697.539	1640.967
470.314	18.068	1696.020	1640.497
471.328	17.936	1694.905	1637.953
472.343	17.967	1694.883	1638.026
473.358	18.098	1692.961	1637.239
474.372	18.099	1691.497	1635.632
475.387	18.060	1689.529	1633.159
476.401	17.998	1688.053	1630.942
477.416	18.091	1687.074	1630.697
478.430	18.039	1685.905	1628.869
479.445	18.079	1684.309	1627.519
480.460	17.862	1683.554	1624.516
481.474	17.902	1682.547	1623.733
482.489	18.022	1681.746	1623.918
483.503	18.099	1680.138	1622.905
484.518	18.211	1678.518	1622.211
485.533	18.205	1677.683	1621.148
486.547	18.203	1675.791	1619.112
487.562	18.373	1675.281	1620.038
488.576	18.273	1674.212	1617.862
489.591	18.170	1672.778	1615.305
490.606	18.208	1671.407	1614.152
491.620	18.314	1669.722	1613.333
492.635	18.372	1668.077	1612.097
493.649	18.396	1667.176	1611.265
494.664	18.143	1665.901	1607.447
495.679	17.943	1663.788	1603.330
496.693	17.873	1662.651	1601.376
497.708	18.122	1661.832	1602.749
498.722	18.338	1661.018	1603.799
499.737	18.339	1659.421	1602.080
500.752	18.135	1657.633	1598.244
501.766	18.087	1655.976	1596.007
502.781	18.061	1655.337	1594.957
503.795	18.094	1653.138	1592.956
504.810	18.217	1652.525	1593.319
505.825	18.242	1652.879	1593.707
506.839	18.189	1650.478	1590.703
507.854	18.217	1649.615	1589.943
508.868	18.270	1648.123	1588.812
509.883	18.229	1647.074	1587.233
510.898	18.472	1645.464	1587.747
511.912	18.302	1644.082	1584.649
512.927	18.207	1641.548	1581.129
513.941	18.242	1639.790	1579.571
514.956	18.151	1639.115	1577.888
515.971	18.112	1637.947	1576.219
516.985	18.119	1637.038	1575.215
518.000	18.194	1636.454	1575.163
519.014	18.244	1636.071	1575.065
520.029	18.396	1634.559	1574.827
521.043	18.520	1632.706	1573.993
522.058	18.285	1632.029	1570.985
523.073	18.391	1631.211	1570.990
524.087	18.526	1630.591	1571.449
525.102	18.557	1628.140	1569.182
526.116	18.406	1626.336	1565.867
527.131	18.252	1626.293	1564.224
528.146	18.559	1625.096	1565.708
529.160	18.574	1623.591	1564.208
530.175	18.555	1623.501	1563.761
531.189	18.612	1622.137	1562.777
532.204	18.592	1620.709	1561.033
533.219	18.478	1618.842	1558.008
534.233	18.324	1617.599	1555.219
535.248	18.470	1617.487	1556.254
536.262	18.630	1617.041	1557.104
537.277	18.628	1614.802	1554.737
538.292	18.420	1613.205	1551.122
539.306	18.312	1611.889	1548.695
540.321	18.298	1610.523	1547.068
541.335	18.277	1609.202	1545.421
542.350	18.393	1607.491	1544.641
543.365	18.541	1606.512	1544.857
544.379	18.465	1605.620	1543.132
545.394	18.487	1604.479	1542.043
546.408	18.306	1602.301	1538.131
547.423	18.289	1601.022	1536.564
548.438	18.249	1600.087	1535.124
549.452	18.323	1599.288	1534.843
550.467	18.511	1597.470	1534.603
551.481	18.565	1596.650	1534.123
552.496	18.520	1596.412	1533.301
553.511	18.753	1595.456	1534.296
554.525	18.615	1594.181	1531.648
555.540	18.684	1593.737	1531.652
556.554	18.778	1592.283	1530.918
557.569	18.686	1590.622	1528.311
558.583	18.548	1588.998	1525.341
559.598	18.630	1587.944	1524.870
560.613	18.574	1587.046	1523.332
561.627	18.675	1585.681	1522.733
562.642	18.647	1584.920	1521.578
563.656	19.004	1583.191	1522.906
564.671	18.876	1581.899	1520.351
565.686	18.716	1580.854	1517.740
566.700	18.577	1579.080	1514.619
567.715	18.371	1577.879	1511.455
568.729	18.298	1576.643	1509.447
569.744	18.449	1573.608	1507.696
570.759	18.343	1573.359	1506.339
571.773	18.267	1573.348	1505.475
572.788	18.500	1571.661	1505.745
573.802	18.649	1569.578	1504.881
574.817	18.717	1568.801	1504.550
575.832	18.772	1567.936	1504.026
576.846	18.729	1566.629	1502.217
577.861	18.650	1565.427	1500.191
578.875	18.790	1565.010	1500.837
579.890	18.854	1563.873	1500.133
580.905	18.820	1563.506	1499.305
581.919	18.825	1562.511	1498.207
582.934	18.900	1561.633	1497.845
583.948	18.865	1560.668	1496.440
584.963	18.773	1558.711	1493.572
585.978	18.823	1557.056	1492.252
586.992	18.838	1556.224	1491.402
588.007	18.815	1556.181	1490.983
589.021	18.708	1554.240	1488.009
590.036	18.418	1552.689	1483.825
591.051	18.590	1551.852	1484.343
592.065	18.769	1549.976	1483.929
593.080	18.755	1548.867	1482.566
594.094	18.919	1546.619	1481.656
595.109	18.724	1544.901	1478.147
596.123	18.479	1543.195	1474.216
597.138	18.711	1542.976	1475.844
598.153	18.851	1542.037	1475.973
599.167	18.683	1540.897	1473.260
600.182	18.871	1540.013	1473.854
601.196	18.884	1539.262	1473.069
602.211	18.857	1537.797	1471.259
603.226	18.904	1537.041	1470.769
604.240	18.911	1535.996	1469.651
605.255	19.042	1534.556	1469.219
606.269	19.015	1533.937	1468.221
607.284	18.935	1532.334	1465.824
608.299	19.154	1530.198	1465.484
609.313	18.846	1529.408	1461.918
610.328	18.874	1528.976	1461.568
611.342	19.065	1527.093	1461.220
612.357	19.029	1526.204	1459.887
613.372	19.119	1525.642	1459.944
614.386	18.989	1524.486	1457.554
615.401	19.046	1524.057	1457.460
616.415	19.033	1523.266	1456.415
617.430	19.112	1522.155	1455.850
618.445	19.039	1520.998	1453.946
619.459	19.014	1520.021	1452.628
620.474	18.736	1518.292	1448.445
621.488	18.550	1516.260	1444.755
622.503	18.379	1515.622	1442.529
623.518	18.683	1515.024	1444.359
624.532	18.907	1514.135	1445.231
625.547	18.996	1512.901	1444.637
626.561	19.283	1512.463	1446.462
627.576	19.233	1510.993	1444.462
628.591	18.947	1508.951	1439.927
629.605	18.748	1507.623	1436.821
630.620	18.738	1505.854	1434.874
631.634	18.552	1504.688	1432.032
632.649	18.708	1503.510	1432.046
633.663	18.715	1503.418	1431.849
634.678	18.948	1502.279	1432.546
635.693	19.274	1500.834	1433.716
636.707	19.262	1499.746	1432.410
637.722	19.314	1498.822	1431.790
638.736	19.380	1498.429	1431.791
639.751	19.378	1496.757	1430.009
640.766	19.310	1495.545	1428.114
641.780	19.320	1494.865	1427.374
642.795	19.207	1494.402	1425.825
643.809	19.344	1492.971	1425.428
644.824	19.168	1492.595	1423.431
645.839	19.242	1490.603	1421.976
646.853	19.393	1489.510	1422.018
647.868	19.218	1487.999	1418.957
648.882	19.224	1486.902	1417.789
649.897	19.211	1486.000	1416.652
650.912	19.250	1483.811	1414.716
651.926	19.181	1482.446	1412.673
652.941	19.198	1480.736	1411.019
653.955	18.877	1479.494	1407.028
654.970	18.681	1477.416	1403.270
655.985	18.807	1476.446	1403.211
656.999	18.765	1475.546	1401.843
658.014	18.993	1474.297	1402.364
659.028	19.071	1473.880	1402.434
660.043	19.101	1473.410	1402.068
661.058	19.122	1472.366	1401.081
662.072	19.188	1471.347	1400.474
663.087	19.350	1469.299	1399.685
664.101	19.018	1469.362	1396.869
665.116	19.327	1467.781	1397.712
666.131	19.290	1466.675	1396.196
667.145	19.345	1465.830	1395.668
668.160	19.312	1464.928	1394.371
669.174	19.540	1463.694	1394.887
670.189	19.335	1463.441	1392.816
671.204	19.236	1461.705	1390.193
672.218	19.319	1460.871	1389.904
673.233	19.422	1459.402	1389.172
674.247	19.521	1458.790	1389.223
675.262	19.577	1458.001	1388.763
676.276	19.658	1456.558	1387.878
677.291	19.427	1455.289	1384.635
678.306	19.462	1453.596	1383.141
679.320	19.379	1452.800	1381.550
680.335	19.389	1453.142	1381.789
681.349	19.461	1452.157	1381.269
682.364	19.511	1450.522	1379.949
683.379	19.541	1449.266	1378.827
684.393	19.357	1448.491	1376.447
685.408	19.556	1446.413	1375.903
686.422	19.388	1445.786	1373.802
687.437	19.260	1446.241	1373.039
688.452	19.347	1445.031	1372.428
689.466	19.376	1443.462	1371.000
690.481	19.402	1440.767	1368.482
691.495	19.261	1440.240	1366.701
692.510	18.882	1438.947	1362.290
693.525	18.680	1437.369	1359.022
694.539	18.823	1436.490	1359.170
695.554	19.221	1436.292	1361.982
696.568	19.498	1435.908	1363.655
697.583	19.607	1435.176	1363.662
698.598	19.656	1434.053	1362.818
699.612	19.562	1432.584	1360.518
700.627	19.667	1430.962	1359.640
701.641	19.507	1430.809	1358.066
702.656	19.565	1429.592	1357.209
703.671	19.662	1428.783	1357.040
704.685	19.740	1427.665	1356.434
705.700	19.733	1426.198	1354.823
706.714	19.583	1424.791	1352.140
707.729	19.311	1424.266	1349.348
708.744	19.565	1422.075	1349.106
709.758	19.277	1421.326	1345.973
710.773	19.196	1420.293	1344.194
711.787	19.051	1418.701	1341.395
712.802	19.334	1416.842	1341.689
713.816	19.324	1416.685	1341.303
714.831	19.568	1415.827	1342.233
715.846	19.832	1414.643	1343.012
716.860	19.622	1414.116	1340.709
717.875	19.634	1412.620	1339.226
718.889	19.589	1411.149	1337.324
719.904	19.706	1410.198	1337.171
720.919	19.738	1409.717	1336.805
721.933	19.708	1408.996	1335.724
722.948	19.802	1407.720	1335.089
723.962	19.858	1406.744	1334.431
724.977	19.877	1405.231	1332.983
725.992	19.908	1404.240	1332.130
727.006	19.817	1402.897	1329.987
728.021	19.796	1402.476	1329.273
729.035	19.783	1401.676	1328.248
730.050	19.723	1400.126	1326.162
731.065	19.835	1398.249	1325.087
732.079	19.898	1397.928	1325.111
733.094	19.872	1396.280	1323.189
734.108	19.813	1394.479	1320.874
735.123	19.718	1393.605	1319.153
736.138	19.868	1392.749	1319.339
737.152	19.723	1391.986	1317.342
738.167	19.964	1390.483	1317.608
739.181	19.979	1389.713	1316.836
740.196	19.815	1389.822	1315.526
741.211	19.934	1388.501	1315.026
742.225	19.790	1387.325	1312.661
743.240	19.816	1385.487	1310.962
744.254	19.893	1384.569	1310.523
745.269	19.787	1383.709	1308.746
746.284	19.743	1383.166	1307.740
747.298	19.544	1381.891	1304.869
748.313	19.254	1380.724	1301.411
749.327	19.081	1378.841	1298.168
750.342	18.896	1377.697	1295.533
751.356	18.643	1376.734	1292.557
752.371	18.814	1376.195	1293.187
753.386	19.337	1375.837	1296.652
754.400	19.810	1374.773	1299.068
755.415	19.860	1374.035	1298.590
756.429	19.908	1372.898	1297.725
757.444	19.842	1371.783	1296.015
758.459	19.920	1371.461	1296.144
759.473	20.002	1370.468	1295.668
760.488	20.044	1368.772	1294.222
761.502	19.987	1367.964	1292.874
762.517	19.886	1367.036	1291.091
763.532	19.854	1364.597	1288.393
764.546	19.882	1362.890	1286.835
765.561	19.488	1362.822	1283.674
766.575	19.178	1361.191	1279.662
767.590	19.192	1360.389	1278.860
768.605	19.412	1359.292	1279.322
769.619	19.590	1358.449	1279.697
770.634	19.749	1357.390	1279.734
771.648	20.023	1356.892	1281.143
772.663	20.067	1356.631	1281.074
773.678	19.994	1355.701	1279.498
774.692	20.095	1354.641	1279.097
775.707	20.088	1354.762	1279.002
776.721	20.115	1352.773	1277.175
777.736	20.103	1352.041	1276.238
778.751	20.165	1350.231	1274.837
779.765	19.931	1350.275	1272.996
780.780	19.927	1349.398	1271.984
781.794	19.986	1347.964	1270.916
782.809	19.845	1346.801	1268.628
783.824	19.804	1345.902	1267.327
784.838	19.764	1342.937	1264.090
785.853	19.271	1342.100	1259.531
786.867	19.132	1342.406	1258.646
787.882	19.313	1342.399	1259.822
788.897	19.562	1341.615	1260.761
789.911	19.658	1340.274	1260.057
790.926	19.899	1338.633	1260.123
791.940	19.847	1338.067	1259.061
792.955	19.919	1337.022	1258.451
793.969	19.957	1335.889	1257.512
794.984	19.886	1335.079	1256.082
795.999	19.996	1333.964	1255.684
797.013	20.204	1331.622	1254.842
798.028	20.222	1330.108	1253.399
799.042	20.110	1330.401	1252.705
800.057	20.259	1329.454	1252.749
801.072	20.030	1328.104	1249.663
802.086	20.045	1327.522	1249.079
803.101	20.029	1327.111	1248.428
804.115	20.054	1325.922	1247.339
805.130	20.152	1324.149	1246.227
806.145	20.177	1322.489	1244.701
807.159	20.127	1321.410	1243.175
808.174	20.113	1319.797	1241.405
809.188	20.076	1318.207	1239.494
810.203	19.694	1317.012	1235.481
811.218	19.755	1315.164	1234.035
812.232	19.574	1313.257	1230.802
813.247	19.368	1312.842	1228.788
814.261	19.650	1313.165	1230.965
815.276	19.887	1312.159	1231.570
816.291	20.024	1311.340	1231.635
817.305	20.334	1310.433	1232.851
818.320	20.213	1309.114	1230.596
819.334	20.148	1308.510	1229.421
820.349	20.159	1307.038	1227.964
821.364	20.211	1305.146	1226.409
822.378	20.174	1303.826	1224.764
823.393	20.317	1302.502	1224.385
824.407	20.183	1301.320	1222.180
825.422	20.221	1300.914	1221.921
826.437	20.100	1300.106	1220.158
827.451	19.889	1297.405	1215.985
828.466	19.443	1296.318	1211.673
829.480	19.263	1294.177	1208.260
830.495	19.534	1292.624	1208.577
831.509	19.793	1292.359	1210.001
832.524	19.972	1291.853	1210.640
833.539	20.037	1291.051	1210.201
834.553	20.218	1289.407	1209.786
835.568	20.252	1289.176	1209.666
836.582	20.101	1287.739	1207.111
837.597	20.320	1285.896	1206.771
838.612	20.283	1284.858	1205.394
839.626	20.152	1283.756	1203.305
840.641	20.125	1282.506	1201.798
841.655	19.699	1281.967	1198.180
842.670	19.470	1280.760	1195.319
843.685	19.214	1279.492	1192.211
844.699	19.731	1278.030	1194.296
845.714	19.861	1276.913	1194.012
846.728	20.056	1276.849	1195.160
847.743	20.172	1276.100	1195.120
848.758	20.201	1274.752	1193.917
849.772	20.283	1273.371	1193.047
850.787	20.314	1272.215	1192.035
851.801	20.232	1271.157	1190.336
852.816	20.050	1269.817	1187.681
853.831	20.346	1268.186	1188.052
854.845	19.992	1266.625	1184.015
855.860	19.694	1265.430	1180.706
856.874	19.679	1264.212	1179.328
857.889	19.707	1261.902	1177.224
858.904	19.571	1260.257	1174.618
859.918	19.261	1258.456	1170.681
860.933	19.052	1257.793	1168.500
861.947	19.561	1257.207	1171.284
862.962	19.775	1256.402	1171.855
863.977	19.667	1255.870	1170.483
864.991	19.860	1255.462	1171.273
866.006	19.943	1254.805	1171.087
867.020	20.164	1253.112	1170.866
868.035	20.251	1252.256	1170.517
869.049	20.216	1251.333	1169.274
870.064	20.275	1250.761	1169.001
871.079	20.230	1249.996	1167.843
872.093	20.219	1249.603	1167.261
873.108	20.185	1248.057	1165.446
874.122	19.951	1246.613	1162.379
875.137	19.848	1245.709	1160.705
876.152	19.745	1244.214	1158.477
877.166	19.961	1242.883	1158.553
878.181	20.091	1242.249	1158.696
879.195	20.067	1242.245	1158.391
880.210	20.230	1241.256	1158.429
881.225	20.217	1240.048	1157.071
882.239	20.239	1239.288	1156.375
883.254	20.382	1238.575	1156.527
884.268	20.264	1237.387	1154.492
885.283	20.271	1236.201	1153.294
886.298	20.122	1234.895	1150.941
887.312	20.274	1233.657	1150.661
888.327	20.410	1232.722	1150.562
889.341	20.230	1231.352	1147.946
890.356	20.272	1230.710	1147.492
891.371	20.131	1229.810	1145.576
892.385	20.169	1229.248	1145.171
893.400	20.078	1228.231	1143.481
894.414	19.909	1226.782	1140.873
895.429	19.818	1224.722	1138.217
896.444	19.210	1222.828	1132.308
897.458	19.030	1221.467	1129.727
898.473	19.253	1221.485	1131.078
899.487	19.742	1220.941	1133.664
900.502	20.076	1220.093	1134.941
901.517	20.070	1219.163	1133.898
902.531	20.176	1218.355	1133.707
903.546	20.321	1217.784	1133.992
904.560	20.078	1217.746	1132.226
905.575	20.332	1216.006	1132.137
906.589	20.426	1214.851	1131.540
907.604	20.323	1213.884	1129.829
