DTS Sentinel unit serial number:	SN409020Multiplexer serial number:	ORYXHardware model number:	OX4-SRSoftware version number:	ORYX F/W v3.00 Oryx Data Collector v3.7.2.0data status	okinstallation	HaddamTimeLapsedifferential loss correction	single-endedforward channel	channel 3reverse channel	N/Adate	2011/06/22time	05:21:17forward acquisition time	30.00reverse acquisition time	0.00gamma	498.7831k internal	0.1751k external	0.1751temperature offset calibration	1.0074default loss term (dB/km)	0.3790temperature slope calibration	1.3530multiplexer offset coefficient	1.0000multiplexer slope coefficient	1.0000fibre end	0.00T internal ref (°C)	22.59T ext. ref 1 (°C)	17.71T ext. ref 2 (°C)	0.14length (m)	temperature (°C)	Stokes	anti-Stokes-747.200	-37.096	-0.177	-0.126
-746.185	-200.000	0.009	0.449
-745.171	-41.291	-0.136	0.093
-744.156	389.337	0.110	-0.304
-743.142	800.000	0.026	-0.109
-742.127	-29.562	-0.295	0.223
-741.112	-94.381	0.127	0.046
-740.098	5.495	-0.286	-0.280
-739.083	800.000	0.058	0.301
-738.069	191.193	-0.042	-0.084
-737.054	-73.046	-0.211	-0.103
-736.039	-170.430	-0.318	-0.015
-735.025	-111.212	-0.341	0.092
-734.010	6.560	0.458	-0.452
-732.996	794.577	-0.113	-0.416
-731.981	-200.000	0.019	0.349
-730.966	30.666	-0.362	-0.411
-729.952	-200.000	0.004	-0.166
-728.937	-200.000	-0.004	-0.360
-727.923	-169.641	0.424	-0.020
-726.908	800.000	0.095	0.379
-725.894	297.416	0.178	-0.436
-724.879	16.057	0.083	0.086
-723.864	29.631	-0.204	-0.230
-722.850	-62.056	-0.573	0.316
-721.835	-56.341	-0.198	0.116
-720.821	12.414	-0.359	0.367
-719.806	-180.354	0.406	0.011
-718.791	145.231	-0.120	-0.214
-717.777	199.678	0.047	-0.096
-716.762	-114.113	-0.425	0.108
-715.748	196.998	0.094	0.190
-714.733	312.567	-0.026	0.066
-713.718	-118.350	-0.334	-0.078
-712.704	-77.039	-0.208	-0.096
-711.689	9.868	0.185	-0.186
-710.675	98.698	-0.289	-0.443
-709.660	-200.000	-0.021	0.320
-708.645	-152.719	-0.223	0.021
-707.631	-123.073	-0.203	0.043
-706.616	119.353	-0.139	0.229
-705.602	-168.543	-0.731	0.036
-704.587	-21.073	-0.188	-0.153
-703.572	-116.243	0.260	-0.063
-702.558	-105.389	0.065	-0.020
-701.543	-101.219	-0.165	-0.053
-700.529	-105.259	0.230	0.069
-699.514	-28.798	-0.256	-0.195
-698.499	-125.680	-0.660	0.131
-697.485	-12.471	0.116	0.100
-696.470	-88.054	0.144	-0.057
-695.456	-75.317	-0.062	0.029
-694.441	19.570	-0.075	-0.080
-693.426	383.447	-0.129	-0.355
-692.412	-160.572	0.090	-0.006
-691.397	188.095	-0.170	-0.337
-690.383	800.000	0.064	-0.311
-689.368	-200.000	0.006	-0.047
-688.354	-80.363	0.592	-0.261
-687.339	-6.221	0.456	-0.412
-686.324	-115.840	-0.504	0.124
-685.310	800.000	-0.047	0.253
-684.295	121.482	-0.066	0.109
-683.281	10.446	-0.191	-0.192
-682.266	60.036	0.363	0.475
-681.251	30.244	-0.225	-0.254
-680.237	-200.000	-0.001	-0.409
-679.222	-95.168	0.352	-0.125
-678.208	-74.315	0.166	0.079
-677.193	-141.807	-0.224	0.029
-676.178	800.000	0.092	0.463
-675.164	-200.000	-0.035	-0.283
-674.149	300.351	-0.066	-0.161
-673.135	-189.469	-0.655	-0.010
-672.120	-134.186	-0.198	0.032
-671.105	-200.000	0.006	0.152
-670.091	-155.484	0.400	0.034
-669.076	-5.819	-0.121	0.109
-668.062	800.000	-0.079	-0.336
-667.047	-86.539	-0.492	0.199
-666.032	-44.672	-0.058	-0.039
-665.018	-35.166	-0.342	-0.246
-664.003	46.329	0.076	-0.094
-662.989	5.487	-0.341	-0.333
-661.974	-200.000	-0.028	-0.274
-660.959	-22.121	0.030	-0.024
-659.945	-147.346	-0.267	-0.030
-658.930	-159.670	0.274	0.020
-657.916	53.031	-0.103	-0.131
-656.901	554.334	0.104	-0.332
-655.886	-200.000	0.031	-0.276
-654.872	-38.088	-0.210	-0.147
-653.857	-200.000	0.041	-0.316
-652.843	-120.909	0.134	-0.030
-651.828	177.611	-0.325	0.629
-650.814	26.864	-0.234	-0.259
-649.799	297.135	0.049	-0.121
-648.784	-200.000	0.043	-0.454
-647.770	-49.768	-0.387	-0.243
-646.755	-157.453	-0.523	-0.041
-645.741	-3.975	-0.205	0.188
-644.726	-92.457	-0.477	0.176
-643.711	-120.787	0.114	-0.025
-642.697	202.589	0.090	0.184
-641.682	60.207	0.339	0.445
-640.668	162.188	-0.213	0.395
-639.653	-9.053	0.221	0.195
-638.638	-109.848	0.057	0.016
-637.624	-136.187	0.618	0.095
-636.609	-49.584	-0.283	-0.178
-635.595	-107.809	-0.248	0.071
-634.580	128.233	0.283	0.478
-633.565	262.714	-0.141	0.326
-632.551	12.505	-0.236	0.240
-631.536	-200.000	0.001	0.278
-630.522	-191.162	0.296	0.004
-629.507	-146.977	-0.467	0.052
-628.492	71.876	0.118	-0.162
-627.478	133.236	0.098	-0.167
-626.463	-200.000	0.010	-0.137
-625.449	-72.888	-0.399	0.193
-624.434	204.484	0.160	0.330
-623.419	-57.210	-0.122	0.070
-622.405	158.864	-0.259	0.476
-621.390	99.652	0.109	0.167
-620.376	-200.000	0.014	0.206
-619.361	285.111	0.327	0.782
-618.346	-200.000	-0.389	0.002
-617.332	182.104	-0.062	-0.121
-616.317	-77.153	-0.471	0.216
-615.303	-123.553	0.289	0.060
-614.288	-101.833	0.200	-0.063
-613.273	130.238	0.066	-0.112
-612.259	-128.812	-0.074	0.014
-611.244	411.057	-0.264	-0.744
-610.230	-121.782	0.235	-0.051
-609.215	-27.286	0.322	-0.247
-608.201	-78.799	-0.134	0.060
-607.186	132.923	0.336	-0.575
-606.171	566.069	0.197	0.634
-605.157	-17.294	-0.304	-0.253
-604.142	-200.000	0.058	-0.629
-603.128	487.936	-0.197	0.597
-602.113	236.643	0.055	-0.121
-601.098	-102.757	-0.055	0.017
-600.084	-5.797	-0.282	0.255
-599.069	-110.736	-0.253	0.069
-598.055	-122.456	0.532	-0.113
-597.040	-168.096	0.225	-0.011
-596.025	164.093	0.161	-0.301
-595.011	-40.705	-0.280	-0.191
-593.996	208.715	0.129	0.267
-592.982	528.274	-0.018	-0.057
-591.967	-155.246	0.215	0.018
-590.952	-36.355	-0.254	0.180
-589.938	210.344	0.171	-0.357
-588.923	-19.821	0.124	-0.101
-587.909	66.369	0.221	0.297
-586.894	230.114	-0.130	-0.281
-585.879	316.846	-0.120	0.300
-584.865	-66.963	-0.220	-0.114
-583.850	-113.803	-0.366	-0.093
-582.836	-64.571	-0.266	-0.142
-581.821	170.200	-0.037	0.070
-580.806	64.433	-0.438	-0.583
-579.792	800.000	0.104	0.503
-578.777	172.447	-0.096	-0.182
-577.763	-21.476	0.368	0.295
-576.748	-27.937	-0.150	-0.114
-575.733	-101.990	-0.654	0.207
-574.719	-11.155	-0.534	-0.464
-573.704	10.714	0.078	0.078
-572.690	-4.940	-0.356	-0.323
-571.675	-88.977	-0.200	0.078
-570.661	229.021	-0.061	0.132
-569.646	80.132	-0.150	0.212
-568.631	-65.970	0.013	0.007
-567.617	-35.480	-0.121	0.086
-566.602	800.000	-0.155	0.604
-565.588	-88.116	0.199	0.078
-564.573	143.622	-0.160	0.282
-563.558	-153.026	0.302	-0.028
-562.544	-52.253	0.261	-0.159
-561.529	112.859	-0.177	-0.283
-560.515	11.137	-0.285	-0.287
-559.500	-128.937	-0.214	-0.039
-558.485	-100.504	-0.072	0.023
-557.471	-61.170	0.312	0.173
-556.456	-200.000	-0.010	-0.315
-555.442	800.000	-0.098	-0.560
-554.427	-62.892	0.222	-0.120
-553.412	-45.729	0.256	-0.167
-552.398	-200.000	-0.020	-0.418
-551.383	109.415	-0.071	-0.112
-550.369	169.783	-0.255	0.483
-549.354	16.968	0.154	-0.160
-548.339	-134.722	0.227	0.036
-547.325	-145.691	-0.299	0.035
-546.310	-15.978	0.452	0.379
-545.296	800.000	-0.101	0.572
-544.281	634.633	-0.050	0.169
-543.266	-80.521	0.364	0.159
-542.252	-109.222	0.448	-0.125
-541.237	177.937	0.221	0.425
-540.223	-102.170	-0.567	-0.179
-539.208	-200.000	0.016	0.361
-538.193	159.507	0.065	0.119
-537.179	-86.611	-0.304	-0.122
-536.164	-39.940	-0.267	-0.183
-535.150	104.595	-0.238	-0.371
-534.135	-111.947	0.089	-0.024
-533.121	-108.100	-0.275	-0.078
-532.106	-95.984	-0.259	0.090
-531.091	54.356	0.163	-0.207
-530.077	-175.296	-0.190	-0.007
-529.062	-32.098	0.238	-0.175
-528.048	-6.433	-0.372	-0.334
-527.033	-38.902	0.248	-0.171
-526.018	-150.402	0.420	-0.042
-525.004	-137.565	-0.101	0.015
-523.989	800.000	-0.095	0.422
-522.975	-200.000	-0.026	0.320
-521.960	-55.431	0.373	0.220
-520.945	472.425	-0.058	0.174
-519.931	-85.109	-0.442	0.181
-518.916	-28.910	0.084	-0.063
-517.902	-200.000	-0.005	-0.109
-516.887	119.257	0.144	0.235
-515.872	94.504	-0.257	0.385
-514.858	-135.984	-0.206	-0.032
-513.843	-8.056	-0.295	-0.262
-512.829	-49.068	-0.306	-0.192
-511.814	-22.150	0.157	-0.125
-510.799	9.163	-0.462	-0.459
-509.785	405.959	-0.044	-0.124
-508.770	82.081	0.269	-0.384
-507.756	-200.000	0.025	-0.376
-506.741	-108.051	-0.367	-0.104
-505.726	-200.000	0.009	-0.676
-504.712	-78.896	0.278	-0.124
-503.697	-94.044	0.551	-0.198
-502.683	549.849	0.249	-0.789
-501.668	45.733	-0.245	0.298
-500.653	25.190	0.224	-0.245
-499.639	36.302	-0.477	-0.553
-498.624	143.280	0.202	-0.355
-497.610	-88.356	0.764	0.299
-496.595	-200.000	-0.018	-0.287
-495.581	91.652	0.173	0.256
-494.566	-200.000	0.020	-0.334
-493.551	-148.634	-0.204	-0.022
-492.537	-200.000	-0.021	-0.512
-491.522	358.552	0.121	-0.320
-490.508	-38.112	-0.252	-0.175
-489.493	-200.000	0.080	0.489
-488.478	14.315	-0.277	-0.284
-487.464	-7.053	0.160	0.143
-486.449	-200.000	0.025	-0.208
-485.435	-102.588	-0.131	-0.041
-484.420	-112.351	0.222	0.058
-483.405	337.134	0.168	-0.430
-482.391	45.466	-0.269	-0.327
-481.376	100.083	-0.149	-0.227
-480.362	-200.000	-0.030	-0.231
-479.347	-29.661	0.140	-0.105
-478.332	-200.000	0.001	-0.320
-477.318	-200.000	0.044	-0.535
-476.303	-112.660	-0.081	0.021
-475.289	-133.933	-0.645	0.104
-474.274	-81.060	-0.233	-0.101
-473.259	25.238	0.262	-0.286
-472.245	-0.279	0.117	-0.109
-471.230	-66.650	-0.114	0.059
-470.216	-46.394	-0.148	0.096
-469.201	800.000	-0.084	0.483
-468.186	-82.561	0.271	0.115
-467.172	151.302	-0.079	0.142
-466.157	-99.363	-0.249	-0.082
-465.143	171.884	0.079	-0.149
-464.128	440.123	0.147	-0.423
-463.113	262.134	-0.169	0.387
-462.099	-103.201	0.398	0.123
-461.084	-106.791	0.159	-0.046
-460.070	-150.966	0.427	0.042
-459.055	241.913	-0.208	-0.458
-458.040	287.603	0.071	-0.169
-457.026	800.000	0.091	-0.419
-456.011	19.785	-0.135	0.142
-454.997	-129.125	0.245	0.045
-453.982	-149.526	0.342	-0.035
-452.968	127.998	0.219	-0.367
-451.953	-0.820	-0.110	-0.102
-450.938	-58.070	-0.335	0.191
-449.924	-151.840	-0.331	-0.031
-448.909	-10.321	-0.347	-0.301
-447.895	121.966	-0.111	0.182
-446.880	46.180	0.194	0.236
-445.865	-43.852	0.444	0.293
-444.851	-179.082	0.468	-0.014
-443.836	-200.000	-0.064	0.422
-442.822	7.462	0.087	-0.085
-441.807	-200.000	0.075	-0.444
-440.792	-157.242	0.460	0.036
-439.778	800.000	-0.152	-0.665
-438.763	-90.122	0.299	0.114
-437.749	380.558	0.075	0.202
-436.734	32.628	0.440	-0.500
-435.719	-200.000	0.000	0.165
-434.705	-200.000	-0.031	0.346
-433.690	123.564	-0.130	0.215
-432.676	-17.979	0.273	0.224
-431.661	-84.952	0.519	0.213
-430.646	-168.781	-0.236	0.012
-429.632	-200.000	0.003	-0.040
-428.617	200.466	0.187	0.379
-427.603	-200.000	-0.021	-0.239
-426.588	32.978	0.144	-0.164
-425.573	-23.007	-0.467	-0.368
-424.559	800.000	-0.078	-0.377
-423.544	-150.123	-0.393	0.040
-422.530	-0.216	0.180	-0.168
-421.515	0.997	0.120	-0.113
-420.500	-1.021	-0.036	0.033
-419.486	-191.366	0.645	0.008
-418.471	-68.140	-0.142	0.072
-417.457	-46.239	0.396	0.255
-416.442	-132.828	0.210	0.035
-415.428	-200.000	-0.034	-0.276
-414.413	48.676	0.115	-0.142
-413.398	-96.191	-0.455	0.157
-412.384	-79.153	-0.292	-0.129
-411.369	-4.507	0.128	0.116
-410.355	-40.360	-0.188	0.128
-409.340	-81.361	-0.237	-0.102
-408.325	-16.568	-0.202	-0.168
-407.311	-6.398	-0.155	0.139
-406.296	65.974	-0.280	0.372
-405.282	8.182	-0.244	0.240
-404.267	91.322	0.132	0.195
-403.252	-129.571	-0.390	0.070
-402.238	-50.634	0.312	0.192
-401.223	-200.000	0.063	0.406
-400.209	333.398	-0.054	0.139
-399.194	-63.853	-0.187	0.100
-398.179	15.287	-0.151	0.155
-397.165	-56.379	-0.215	-0.125
-396.150	800.000	0.025	-0.125
-395.136	-112.897	0.341	-0.088
-394.121	398.234	-0.132	0.363
-393.106	-108.594	-0.178	-0.050
-392.092	110.811	-0.236	-0.373
-391.077	-173.501	0.476	-0.018
-390.063	-200.000	-0.068	-0.543
-389.048	-67.434	0.205	0.105
-388.033	-47.673	0.209	0.132
-387.019	264.593	-0.064	-0.147
-386.004	-158.278	0.387	0.029
-384.990	1.436	0.163	0.153
-383.975	367.899	0.219	0.581
-382.960	-141.709	-0.170	-0.022
-381.946	-200.000	-0.024	0.196
-380.931	800.000	0.031	-0.155
-379.917	64.230	-0.238	-0.314
-378.902	231.533	0.082	-0.177
-377.888	-138.975	-0.364	0.051
-376.873	-123.162	-0.503	0.105
-375.858	298.216	0.026	0.062
-374.844	80.071	-0.402	0.566
-373.829	-200.000	-0.017	-0.269
-372.815	-30.432	0.117	0.087
-371.800	465.166	0.113	0.332
-370.785	145.877	-0.231	0.407
-369.771	-77.611	-0.155	0.070
-368.756	113.429	0.097	0.154
-367.742	-1.266	0.166	-0.154
-366.727	152.818	-0.276	0.495
-365.712	-95.430	-0.366	-0.128
-364.698	-92.470	-0.277	0.101
-363.683	-114.187	0.324	-0.081
-362.669	-25.885	0.548	-0.422
-361.654	-14.696	0.105	-0.088
-360.639	66.157	0.137	0.182
-359.625	-200.000	0.005	0.054
-358.610	-200.000	-0.438	0.002
-357.596	-82.956	0.281	0.118
-356.581	90.438	0.081	-0.119
-355.566	-141.566	0.288	0.038
-354.552	-104.587	0.583	0.175
-353.537	-96.920	0.667	0.227
-352.523	376.990	0.155	0.417
-351.508	125.393	-0.060	-0.099
-350.493	787.110	0.036	-0.130
-349.479	-52.633	0.273	-0.164
-348.464	73.250	-0.206	0.283
-347.450	300.314	-0.201	0.486
-346.435	800.000	-0.061	0.306
-345.420	15.880	0.033	-0.034
-344.406	-88.814	0.008	0.003
-343.391	-116.173	0.137	0.033
-342.377	-110.266	0.405	-0.110
-341.362	124.806	-0.211	0.348
-340.348	165.696	-0.029	0.054
-339.333	-75.282	0.216	0.100
-338.318	-120.914	0.534	0.116
-337.304	8.500	-0.370	-0.364
-336.289	65.940	-0.087	0.115
-335.275	-200.000	0.036	-0.281
-334.260	409.036	-0.124	-0.344
-333.245	-58.970	0.339	0.191
-332.231	114.264	-0.165	0.263
-331.216	-153.410	-0.173	-0.015
-330.202	69.744	-0.310	0.419
-329.187	44.291	0.199	-0.239
-328.172	235.012	-0.097	-0.211
-327.158	-78.381	0.318	-0.142
-326.143	-7.944	0.190	0.168
-325.129	98.556	0.210	0.317
-324.114	-154.804	0.372	0.032
-323.099	302.195	0.049	-0.119
-322.085	-146.052	0.605	-0.069
-321.070	225.544	0.258	-0.548
-320.056	-3.923	-0.675	-0.611
-319.041	201.827	-0.117	0.237
-318.026	98.197	0.084	-0.126
-317.012	-164.172	0.718	-0.043
-315.997	215.349	-0.204	0.423
-314.983	-95.001	-0.263	0.092
-313.968	-21.613	-0.067	0.054
-312.953	800.000	-0.149	0.577
-311.939	-60.072	0.220	-0.122
-310.924	173.102	-0.106	0.201
-309.910	93.032	0.223	0.329
-308.895	13.353	-0.236	0.238
-307.880	-200.000	-0.037	0.215
-306.866	60.098	-0.443	0.573
-305.851	-135.169	-0.522	0.081
-304.837	-132.527	-0.499	-0.083
-303.822	-96.878	0.430	-0.147
-302.807	405.306	0.107	-0.295
-301.793	-154.369	-0.320	-0.028
-300.778	800.000	-0.157	0.776
-299.764	-148.042	0.346	0.037
-298.749	22.330	0.250	0.266
-297.735	-200.000	-0.009	-0.195
-296.720	-131.932	-0.351	0.059
-295.705	-152.933	-0.197	0.018
-294.691	-126.752	-0.535	0.102
-293.676	-200.000	0.017	-0.248
-292.662	800.000	-0.093	-0.348
-291.647	800.000	0.064	-0.263
-290.632	-16.264	0.375	0.310
-289.618	-16.246	-0.241	0.200
-288.603	-200.000	-0.056	-0.370
-287.589	-105.750	0.089	0.026
-286.574	-200.000	0.068	0.469
-285.559	-110.356	-0.223	-0.060
-284.545	50.244	-0.112	-0.139
-283.530	94.618	0.342	0.509
-282.516	-134.764	-0.050	0.008
-281.501	-54.970	0.131	0.077
-280.486	21.653	0.034	0.036
-279.472	-69.795	0.644	-0.320
-278.457	-13.808	-0.184	-0.155
-277.443	-27.060	0.147	0.112
-276.428	-166.086	-0.428	-0.023
-275.413	96.050	0.324	-0.484
-274.399	-173.104	0.380	0.015
-273.384	152.894	-0.132	0.235
-272.370	-147.728	-0.465	-0.050
-271.355	137.617	-0.328	0.562
-270.340	-82.067	-0.145	0.062
-269.326	800.000	0.094	-0.414
-268.311	-24.347	-0.246	-0.191
-267.297	-77.333	-0.265	0.119
-266.282	248.890	0.149	-0.331
-265.267	-99.678	0.374	0.121
-264.253	-152.462	-0.403	0.037
-263.238	800.000	-0.118	-0.549
-262.224	-200.000	-0.009	-0.128
-261.209	-154.159	-0.206	0.018
-260.195	-57.524	0.208	-0.119
-259.180	-98.330	-0.171	-0.057
-258.165	2.431	0.236	0.222
-257.151	-200.000	0.009	0.079
-256.136	654.047	0.109	-0.366
-255.122	-200.000	0.066	-0.553
-254.107	-120.000	-0.418	-0.093
-253.092	-200.000	0.015	0.107
-252.078	110.055	-0.253	0.397
-251.063	64.872	-0.243	-0.320
-250.049	-29.363	0.131	0.098
-249.034	800.000	-0.046	-0.223
-248.019	328.043	-0.159	-0.400
-247.005	-200.000	0.028	-0.303
-245.990	44.609	0.117	0.140
-244.976	-151.731	0.374	0.035
-243.961	-157.428	0.364	-0.028
-242.946	241.736	0.141	0.307
-241.932	308.926	-0.080	-0.196
-240.917	140.208	0.281	-0.485
-239.903	738.605	-0.076	-0.266
-238.888	-200.000	-0.002	-0.048
-237.873	781.376	0.077	0.278
-236.859	134.418	0.201	0.340
-235.844	639.827	-0.130	0.433
-234.830	194.611	-0.190	0.377
-233.815	-200.000	-0.045	-0.457
-232.800	-75.194	0.036	-0.016
-231.786	-61.485	0.218	0.119
-230.771	-155.844	-0.549	-0.045
-229.757	800.000	-0.077	0.372
-228.742	-8.734	0.120	-0.105
-227.727	-78.342	0.351	-0.156
-226.713	113.021	-0.261	-0.412
-225.698	310.895	-0.103	0.253
-224.684	-145.555	0.333	0.038
-223.669	-58.722	0.318	-0.179
-222.655	-83.995	0.382	0.157
-221.640	-31.157	-0.131	0.096
-220.625	300.152	-0.210	0.505
-219.611	-159.566	-0.296	0.021
-218.596	-116.865	-0.350	-0.083
-217.582	-5.427	-0.252	0.225
-216.567	82.918	-0.072	-0.102
-215.552	524.647	0.050	-0.155
-214.538	-200.000	-0.003	-0.068
-213.523	50.405	-0.113	-0.139
-212.509	481.490	-0.204	0.606
-211.494	-120.827	-0.478	0.104
-210.479	26.315	0.104	0.113
-209.465	-180.792	0.273	-0.007
-208.450	134.601	0.167	0.282
-207.436	-26.754	0.216	0.164
-206.421	-111.251	-0.256	0.068
-205.406	800.000	-0.025	-0.138
-204.392	290.896	0.182	-0.432
-203.377	249.426	0.052	0.116
-202.363	246.253	0.141	0.310
-201.348	-86.896	0.231	0.091
-200.333	-200.000	0.031	-0.183
-199.319	-125.223	0.168	-0.033
-198.304	-103.063	0.208	0.064
-197.290	707.843	-0.080	-0.275
-196.275	-48.628	-0.352	-0.219
-195.260	-200.000	0.058	0.532
-194.246	-200.000	0.004	-0.117
-193.231	-64.731	0.393	-0.206
-192.217	-135.194	0.311	0.048
-191.202	-166.656	0.208	-0.011
-190.187	800.000	-0.138	-0.569
-189.173	-168.012	0.563	0.028
-188.158	416.746	-0.025	0.069
-187.144	36.525	0.314	-0.360
-186.129	57.706	0.105	-0.134
-185.114	-3.105	0.419	-0.380
-184.100	-196.022	0.147	0.001
-183.085	-200.000	0.068	0.534
-182.071	34.262	0.174	0.197
-181.056	-125.678	0.496	0.097
-180.042	-170.632	0.097	0.004
-179.027	44.128	-0.275	0.327
-178.012	-11.665	0.068	-0.058
-176.998	800.000	0.112	-0.418
-175.983	-136.465	-0.137	0.020
-174.969	491.017	0.036	0.108
-173.954	800.000	0.092	0.421
-172.939	-200.000	-0.050	-0.305
-171.925	45.162	0.273	-0.327
-170.910	40.556	0.141	0.165
-169.896	-146.666	-0.499	0.055
-168.881	-200.000	0.043	-0.441
-167.866	-115.211	0.240	0.059
-166.852	-101.158	0.123	0.039
-165.837	800.000	0.025	0.132
-164.823	-73.171	-0.399	0.189
-163.808	165.911	0.086	-0.158
-162.793	-118.825	0.260	-0.059
-161.779	-9.842	-0.161	-0.139
-160.764	607.238	-0.056	-0.181
-159.750	-146.347	-0.223	0.025
-158.735	685.862	0.030	0.101
-157.720	185.320	-0.216	0.417
-156.706	236.541	-0.352	0.758
-155.691	-48.199	-0.303	-0.189
-154.677	117.273	0.117	0.187
-153.662	97.903	0.099	0.148
-152.647	-122.911	-0.126	-0.026
-151.633	-200.000	0.013	-0.289
-150.618	94.654	0.242	-0.358
-149.604	-10.647	0.441	0.378
-148.589	64.482	0.207	0.271
-147.574	522.586	-0.065	-0.199
-146.560	7.981	-0.216	-0.210
-145.545	-15.669	0.350	-0.289
-144.531	-101.634	0.129	-0.041
-143.516	-200.000	0.014	-0.177
-142.502	800.000	0.081	-0.378
-141.487	-95.917	-0.314	-0.108
-140.472	-118.043	0.345	0.079
-139.458	-200.000	0.012	-0.074
-138.443	-30.493	-0.132	-0.097
-137.429	-33.272	-0.180	0.129
-136.414	-73.517	0.281	0.132
-135.399	800.000	0.173	-0.665
-134.385	-102.855	-0.287	0.088
-133.370	-100.242	0.289	-0.092
-132.356	-200.000	-0.005	0.108
-131.341	-122.709	-0.137	0.028
-130.326	58.044	-0.230	0.293
-129.312	-159.631	-0.261	-0.018
-128.297	249.311	0.043	-0.095
-127.283	130.910	-0.152	0.253
-126.268	-161.471	0.063	-0.004
-125.253	69.576	0.214	0.286
-124.239	63.899	0.301	-0.392
-123.224	103.623	-0.097	0.148
-122.210	68.795	-0.066	-0.088
-121.195	226.564	0.297	0.627
-120.180	79.896	-0.351	0.490
-119.166	-200.000	-0.029	0.187
-118.151	116.369	-0.264	0.420
-117.137	-53.679	0.452	-0.267
-116.122	159.664	-0.022	0.040
-115.107	60.989	-0.280	0.360
-114.093	-200.000	0.004	-0.570
-113.078	-70.814	-0.267	-0.130
-112.064	-200.000	-0.060	0.404
-111.049	800.000	0.083	-0.316
-110.034	27.718	0.247	0.270
-109.020	800.000	0.123	0.529
-108.005	-174.442	-0.486	-0.018
-106.991	-26.703	-0.254	-0.192
-105.976	-16.531	-0.233	0.191
-104.962	-104.694	0.496	-0.147
-103.947	-26.979	-0.117	-0.089
-102.932	15.158	-0.477	0.485
-101.918	8.982	-0.315	0.308
-100.903	17.879	-0.180	-0.185
-99.889	-200.000	0.043	-0.353
-98.874	-38.539	0.318	-0.217
-97.859	-11.764	0.426	-0.361
-96.845	-200.000	-0.067	-0.392
-95.830	-124.156	0.105	-0.021
-94.816	311.237	0.150	-0.366
-93.801	-200.000	0.035	0.211
-92.786	32.428	-0.249	0.278
-91.772	2.886	0.242	-0.227
-90.757	-22.865	-0.265	-0.207
-89.743	800.000	-0.059	-0.311
-88.728	800.000	-0.063	-0.337
-87.713	-35.870	-0.213	0.149
-86.699	-44.976	0.337	0.217
-85.684	22.918	0.420	-0.445
-84.670	314.589	0.138	0.337
-83.655	23.753	0.403	0.430
-82.640	-200.000	-0.032	-0.643
-81.626	-123.112	-0.140	0.029
-80.611	-105.030	-0.247	0.073
-79.597	-42.924	0.389	0.255
-78.582	382.228	0.211	-0.563
-77.567	142.735	-0.090	-0.156
-76.553	-28.917	-0.484	0.359
-75.538	233.959	-0.263	-0.563
-74.524	-33.076	-0.273	-0.195
-73.509	-200.000	-0.024	0.391
-72.494	-200.000	0.025	-0.682
-71.480	156.687	0.270	0.483
-70.465	-178.609	0.693	-0.020
-69.451	-149.280	0.207	0.021
-68.436	1.774	-0.250	-0.233
-67.422	123.561	0.042	0.068
-66.407	-89.794	0.217	-0.082
-65.392	661.623	0.019	-0.064
-64.378	-200.000	0.010	-0.342
-63.363	75.906	0.299	-0.409
-62.349	-200.000	-0.006	-0.190
-61.334	34.035	-2.214	-2.495
-60.319	67.983	1.053	1.395
-59.305	261.712	-3.423	-7.699
-58.290	53.681	3.998	4.967
-57.276	367.255	4.010	10.516
-56.261	-200.000	24.718	319.581
-55.246	355.362	1303.335	3367.703
-54.232	53.375	2842.054	3524.838
-53.217	51.612	2659.301	3270.813
-52.203	31.769	2389.607	2659.445
-51.188	27.751	2055.651	2238.262
-50.173	24.445	1941.719	2075.549
-49.159	23.449	1929.837	2051.184
-48.144	23.012	1925.313	2041.226
-47.130	22.854	1923.270	2037.145
-46.115	22.845	1921.312	2034.887
-45.100	22.747	1919.691	2031.961
-44.086	22.766	1917.844	2030.140
-43.071	22.842	1916.105	2029.098
-42.057	22.789	1914.757	2026.983
-41.042	22.810	1912.994	2025.270
-40.027	22.840	1912.050	2024.543
-39.013	22.859	1910.542	2023.085
-37.998	22.798	1909.235	2020.910
-36.984	22.712	1907.707	2018.224
-35.969	22.677	1906.742	2016.721
-34.954	22.710	1905.902	2016.141
-33.940	22.676	1904.073	2013.737
-32.925	22.796	1902.373	2013.229
-31.911	22.698	1902.296	2011.950
-30.896	22.685	1900.444	2009.756
-29.881	22.758	1898.755	2008.731
-28.867	22.736	1897.955	2007.543
-27.852	22.577	1896.677	2004.303
-26.838	22.745	1894.755	2004.107
-25.823	22.567	1894.227	2001.433
-24.809	22.659	1892.365	2000.442
-23.794	22.650	1890.822	1998.629
-22.779	22.446	1891.006	1996.418
-21.765	22.507	1888.920	1994.836
-20.750	22.622	1887.518	1994.577
-19.736	22.544	1885.994	1992.001
-18.721	22.587	1885.745	1992.144
-17.706	22.585	1884.143	1990.357
-16.692	22.543	1882.504	1988.071
-15.677	22.426	1882.674	1986.839
-14.663	22.508	1880.544	1985.449
-13.648	22.541	1878.257	1983.330
-12.633	22.535	1877.788	1982.679
-11.619	22.599	1876.819	1982.306
-10.604	22.441	1875.374	1978.920
-9.590	22.422	1873.778	1976.936
-8.575	22.485	1872.310	1976.025
-7.560	22.493	1871.812	1975.509
-6.546	22.356	1870.617	1972.619
-5.531	22.452	1869.953	1972.930
-4.517	22.540	1867.850	1971.618
-3.502	22.509	1867.290	1970.604
-2.487	22.567	1866.443	1970.283
-1.473	22.567	1863.297	1966.886
-0.458	22.455	1843.738	1944.914
0.556	18.981	1990.326	2045.806
1.571	17.415	2193.935	2234.175
2.586	18.298	2232.295	2284.806
3.600	18.412	2234.794	2288.628
4.615	18.233	2234.360	2285.509
5.629	18.285	2232.290	2283.811
6.644	18.239	2230.995	2281.596
7.659	18.209	2228.962	2278.845
8.673	18.282	2227.144	2277.688
9.688	18.185	2234.277	2283.403
10.702	17.025	2314.448	2348.929
11.717	15.590	2379.244	2393.862
12.731	7.431	2359.620	2257.537
13.746	1.054	2342.513	2150.150
14.761	0.224	2339.194	2135.011
15.775	0.104	2338.554	2132.473
16.790	0.003	2337.173	2129.509
17.804	0.083	2335.814	2129.155
18.819	0.064	2333.504	2126.535
19.834	-0.010	2332.268	2124.100
20.848	0.020	2330.512	2122.662
21.863	0.017	2329.162	2121.147
22.877	-0.035	2327.469	2118.614
23.892	0.024	2324.780	2116.748
24.907	0.014	2322.584	2114.354
25.921	-0.001	2320.781	2112.241
26.936	-0.043	2318.842	2109.628
27.950	0.041	2316.158	2108.129
28.965	-0.052	2314.041	2104.633
29.980	0.040	2313.076	2104.802
30.994	0.156	2310.838	2104.147
32.009	3.967	2323.514	2169.196
33.023	13.275	2349.440	2325.236
34.038	17.112	2355.552	2385.294
35.053	17.390	2352.750	2386.096
36.067	17.430	2350.498	2384.082
37.082	17.289	2349.629	2380.938
38.096	17.373	2346.428	2378.580
39.111	17.447	2345.066	2377.958
40.126	17.514	2343.456	2376.988
41.140	17.734	2341.542	2377.834
42.155	17.664	2339.454	2374.451
43.169	17.585	2337.967	2371.557
44.184	17.655	2334.517	2368.754
45.199	17.504	2333.393	2365.213
46.213	17.552	2332.879	2365.085
47.228	17.619	2332.152	2364.997
48.242	17.713	2328.690	2362.515
49.257	17.735	2326.921	2360.749
50.271	17.714	2324.398	2357.609
51.286	17.682	2321.477	2353.926
52.301	17.520	2320.759	2350.662
53.315	17.947	2321.619	2357.173
54.330	19.826	2325.978	2387.412
55.344	20.938	2326.346	2402.925
56.359	21.052	2322.860	2400.617
57.374	21.207	2321.845	2401.422
58.388	21.411	2319.247	2401.260
59.403	21.319	2315.888	2396.234
60.417	21.141	2312.898	2390.402
61.432	21.206	2311.979	2390.059
62.447	21.330	2311.936	2391.431
63.461	21.634	2308.545	2391.817
64.476	21.656	2306.048	2389.237
65.490	21.429	2304.919	2384.677
66.505	20.765	2302.407	2372.697
67.520	19.420	2295.845	2347.259
68.534	17.921	2290.030	2320.576
69.549	17.502	2285.826	2310.321
70.563	17.663	2283.587	2309.981
71.578	17.546	2282.821	2307.331
72.593	17.703	2280.093	2306.431
73.607	17.819	2279.075	2306.701
74.622	17.924	2276.833	2305.584
75.636	17.693	2273.615	2298.920
76.651	17.573	2271.875	2295.260
77.666	17.671	2269.922	2294.338
78.680	17.542	2268.223	2290.609
79.695	17.522	2265.780	2287.597
80.709	17.703	2263.026	2286.981
81.724	17.664	2262.051	2285.195
82.739	17.628	2260.060	2282.420
83.753	17.552	2258.181	2279.233
84.768	17.397	2257.070	2275.758
85.782	17.516	2254.270	2274.259
86.797	17.495	2252.758	2272.173
87.812	17.493	2250.737	2269.835
88.826	17.549	2248.916	2268.479
89.841	17.527	2247.076	2266.059
90.855	17.587	2244.199	2263.684
91.870	17.520	2243.608	2261.922
92.884	17.538	2241.299	2259.566
93.899	17.476	2240.348	2257.507
94.914	17.826	2242.648	2264.232
95.928	19.596	2246.223	2291.193
96.943	20.126	2244.008	2295.710
97.957	18.535	2236.118	2266.241
98.972	17.584	2232.401	2249.592
99.987	17.380	2229.529	2243.717
101.001	17.437	2225.984	2240.637
102.016	17.426	2224.759	2238.990
103.030	17.355	2222.658	2235.668
104.045	17.515	2219.768	2234.607
105.060	17.516	2218.729	2233.308
106.074	17.520	2216.863	2231.219
107.089	17.625	2214.921	2230.373
108.103	17.560	2213.246	2227.570
109.118	17.515	2213.151	2226.611
110.133	17.494	2212.609	2225.530
111.147	17.618	2209.637	2223.898
112.162	17.751	2207.281	2222.998
113.176	17.661	2204.868	2219.131
114.191	17.658	2203.262	2217.211
115.206	17.655	2202.573	2216.210
116.220	17.558	2200.203	2212.294
117.235	17.453	2198.246	2208.690
118.249	17.488	2196.148	2206.779
119.264	17.668	2194.430	2207.123
120.279	17.598	2193.589	2205.114
121.293	17.555	2191.174	2201.859
122.308	17.532	2190.056	2200.168
123.322	17.613	2188.253	2199.146
124.337	17.872	2189.535	2203.538
125.352	19.734	2194.216	2232.171
126.366	20.066	2192.380	2234.335
127.381	18.238	2183.403	2201.301
128.395	17.523	2179.065	2187.439
129.410	17.572	2176.589	2185.326
130.424	17.601	2175.707	2184.555
131.439	17.549	2173.496	2181.395
132.454	17.489	2172.693	2179.567
133.468	17.452	2170.520	2176.641
134.483	17.580	2168.204	2175.707
135.497	17.618	2166.325	2174.043
136.512	17.688	2163.933	2172.289
137.527	17.585	2163.052	2169.823
138.541	17.407	2162.040	2166.266
139.556	17.447	2160.379	2164.862
140.570	17.417	2159.898	2163.732
141.585	17.459	2156.941	2161.043
142.600	17.492	2156.337	2160.598
143.614	17.443	2154.580	2157.964
144.629	17.478	2153.061	2156.630
145.643	17.476	2149.913	2153.188
146.658	17.273	2149.596	2150.031
147.673	17.320	2147.344	2148.117
148.687	17.540	2145.898	2149.209
149.702	17.588	2145.330	2148.985
150.716	17.456	2144.135	2145.857
151.731	17.632	2142.894	2146.597
152.746	17.518	2142.107	2144.100
153.760	17.900	2143.152	2149.735
154.775	19.679	2147.725	2176.605
155.789	20.327	2144.510	2181.272
156.804	18.517	2136.970	2150.540
157.819	17.539	2131.847	2132.825
158.833	17.520	2129.325	2129.810
159.848	17.545	2127.929	2128.461
160.862	17.599	2126.525	2127.481
161.877	17.783	2125.382	2128.399
162.892	17.704	2124.531	2126.297
163.906	17.806	2122.262	2125.046
164.921	17.718	2119.494	2120.929
165.935	17.609	2118.914	2118.729
166.950	17.625	2116.608	2116.363
167.964	17.640	2113.962	2113.654
168.979	17.463	2112.287	2109.527
169.994	17.557	2111.087	2109.242
171.008	17.510	2109.887	2107.210
172.023	17.464	2108.206	2104.704
173.037	17.418	2107.949	2103.627
174.052	17.638	2104.770	2102.928
175.067	17.557	2103.354	2100.251
176.081	17.520	2102.613	2098.805
177.096	17.616	2101.513	2098.650
178.110	17.513	2099.069	2094.683
179.125	17.499	2097.852	2093.042
180.140	17.474	2096.820	2091.454
181.154	17.465	2096.203	2090.471
182.169	17.502	2095.136	2089.620
183.183	18.026	2095.097	2095.798
184.198	19.934	2100.200	2124.206
185.213	20.388	2097.304	2126.604
186.227	18.462	2091.030	2096.338
187.242	17.750	2087.597	2083.897
188.256	17.626	2085.784	2080.318
189.271	17.528	2085.475	2078.561
190.286	17.611	2082.310	2076.168
191.300	17.516	2079.697	2072.158
192.315	17.529	2077.666	2070.044
193.329	17.602	2077.787	2070.810
194.344	17.910	2076.326	2072.866
195.359	17.838	2074.710	2070.129
196.373	17.729	2073.444	2067.287
197.388	17.567	2071.224	2062.849
198.402	17.599	2068.739	2060.520
199.417	17.603	2065.346	2056.945
200.432	17.518	2064.769	2055.086
201.446	17.533	2063.981	2054.238
202.461	17.477	2062.698	2052.036
203.475	17.414	2060.879	2049.224
204.490	17.436	2058.577	2046.953
205.504	17.577	2055.888	2045.742
206.519	17.462	2054.558	2042.786
207.534	17.495	2051.932	2040.323
208.548	17.631	2050.842	2040.629
209.563	17.563	2050.283	2039.018
210.577	17.571	2048.477	2037.071
211.592	17.621	2048.204	2037.157
212.607	18.524	2051.418	2050.967
213.621	20.580	2055.986	2080.040
214.636	20.139	2051.314	2069.780
215.650	18.127	2043.971	2038.039
216.665	17.569	2041.039	2028.195
217.680	17.715	2039.592	2028.252
218.694	17.706	2037.730	2026.051
219.709	17.582	2036.161	2022.771
220.723	17.554	2034.699	2020.741
221.738	17.772	2032.119	2020.542
222.753	17.678	2029.938	2017.002
223.767	17.617	2029.333	2015.437
224.782	17.583	2027.626	2013.100
225.796	17.667	2026.986	2013.217
226.811	17.801	2024.957	2012.550
227.826	17.711	2023.858	2010.155
228.840	17.621	2022.621	2007.617
229.855	17.686	2021.053	2006.596
230.869	17.671	2019.138	2004.275
231.884	17.658	2017.549	2002.303
232.899	17.524	2016.278	1999.222
233.913	17.561	2014.473	1997.622
234.928	17.429	2014.706	1996.059
235.942	17.657	2011.426	1995.252
236.957	17.545	2010.898	1993.172
237.972	17.602	2009.799	1992.522
238.986	17.622	2008.484	1991.211
240.001	17.596	2006.320	1988.523
241.015	17.502	2005.494	1986.361
242.030	17.946	2006.857	1992.684
243.045	19.743	2009.967	2016.627
244.059	19.874	2006.535	2014.467
245.074	18.249	2000.240	1988.942
246.088	17.598	1996.954	1977.842
247.103	17.622	1995.138	1976.086
248.117	17.705	1993.094	1974.790
249.132	17.648	1991.857	1972.668
250.147	17.611	1989.734	1969.892
251.161	17.437	1989.369	1967.274
252.176	17.665	1988.004	1968.345
253.190	17.862	1986.105	1968.512
254.205	17.799	1983.175	1964.641
255.220	17.839	1981.284	1962.990
256.234	17.885	1980.573	1962.591
257.249	17.710	1979.339	1959.102
258.263	17.675	1979.171	1958.296
259.278	17.676	1978.649	1957.558
260.293	17.654	1975.817	1954.268
261.307	17.611	1974.192	1951.934
262.322	17.458	1973.112	1948.875
263.336	17.522	1970.507	1946.806
264.351	17.455	1968.322	1943.648
265.366	17.512	1968.005	1943.755
266.380	17.512	1967.217	1942.741
267.395	17.370	1965.492	1939.182
268.409	17.363	1963.562	1936.956
269.424	17.552	1962.695	1938.032
270.439	17.396	1962.759	1936.078
271.453	18.054	1963.459	1944.073
272.468	19.946	1965.608	1967.593
273.482	20.034	1962.067	1964.815
274.497	18.172	1955.405	1936.744
275.512	17.628	1952.328	1927.283
276.526	17.549	1949.890	1923.742
277.541	17.416	1948.071	1920.207
278.555	17.482	1946.503	1919.178
279.570	17.398	1944.551	1916.078
280.585	17.269	1943.991	1913.832
281.599	17.525	1941.731	1914.276
282.614	17.669	1941.269	1915.212
283.628	17.768	1940.745	1915.589
284.643	17.765	1940.550	1915.134
285.657	17.971	1938.891	1915.591
286.672	18.022	1936.705	1913.776
287.687	18.003	1934.811	1911.458
288.701	17.711	1934.336	1907.483
289.716	17.620	1932.604	1904.523
290.730	17.836	1930.041	1904.193
291.745	17.960	1929.195	1904.516
292.760	17.767	1928.494	1901.439
293.774	17.629	1927.420	1898.597
294.789	17.677	1926.226	1897.734
295.803	17.667	1923.438	1894.647
296.818	17.523	1922.088	1891.484
297.833	17.459	1922.176	1890.637
298.847	17.538	1921.129	1890.256
299.862	17.640	1918.787	1888.861
300.876	18.079	1918.486	1893.231
301.891	19.988	1923.143	1918.877
302.906	20.385	1921.685	1921.609
303.920	18.324	1915.039	1891.868
304.935	17.801	1910.382	1881.251
305.949	17.519	1908.895	1876.433
306.964	17.628	1907.259	1875.811
307.979	17.661	1905.090	1873.815
308.993	17.648	1904.607	1872.974
310.008	17.791	1902.412	1872.168
311.022	17.894	1902.051	1872.727
312.037	17.918	1900.803	1871.533
313.052	17.936	1897.773	1868.525
314.066	17.748	1896.801	1865.280
315.081	17.833	1896.922	1866.107
316.095	17.872	1894.754	1864.179
317.110	17.870	1892.985	1862.190
318.125	17.665	1892.572	1859.323
319.139	17.740	1890.638	1858.013
320.154	17.896	1889.086	1857.972
321.168	17.770	1887.622	1854.936
322.183	17.819	1885.544	1853.206
323.197	17.556	1885.087	1849.662
324.212	17.511	1882.398	1846.316
325.227	17.520	1880.501	1844.337
326.241	17.424	1879.553	1842.140
327.256	17.638	1878.166	1842.888
328.270	17.477	1877.544	1840.298
329.285	17.538	1876.570	1839.794
330.300	18.246	1879.432	1850.069
331.314	20.254	1882.904	1875.109
332.329	20.168	1878.485	1869.551
333.343	18.230	1871.432	1841.357
334.358	17.664	1868.853	1832.494
335.373	17.640	1867.037	1830.233
336.387	17.625	1865.073	1827.923
337.402	17.471	1864.854	1825.826
338.416	17.566	1863.229	1825.044
339.431	17.528	1862.249	1823.460
340.446	17.817	1860.092	1824.234
341.460	17.733	1859.269	1822.301
342.475	17.970	1857.022	1822.421
343.489	17.849	1855.913	1819.825
344.504	17.886	1854.322	1818.441
345.519	17.907	1853.646	1817.790
346.533	17.924	1851.908	1816.047
347.548	18.018	1850.549	1815.497
348.562	17.969	1849.354	1813.588
349.577	17.992	1848.289	1812.566
350.592	18.043	1847.143	1811.773
351.606	17.834	1845.815	1808.025
352.621	17.910	1843.528	1806.375
353.635	17.543	1842.254	1801.014
354.650	17.582	1840.521	1799.515
355.665	17.567	1838.329	1796.998
356.679	17.527	1837.871	1795.911
357.694	17.515	1836.400	1794.130
358.708	17.503	1835.979	1793.380
359.723	18.485	1837.152	1804.708
360.738	20.438	1840.306	1828.281
361.752	19.882	1836.511	1818.417
362.767	18.066	1830.455	1793.068
363.781	17.674	1828.211	1786.523
364.796	17.497	1827.302	1783.559
365.810	17.534	1825.555	1782.027
366.825	17.533	1823.936	1780.231
367.840	17.508	1823.910	1779.729
368.854	17.767	1822.716	1781.064
369.869	17.577	1820.423	1776.615
370.883	17.449	1818.822	1773.502
371.898	17.522	1818.076	1773.329
372.913	17.613	1817.197	1773.207
373.927	17.587	1816.170	1771.724
374.942	17.647	1814.046	1770.070
375.956	17.662	1813.474	1769.451
376.971	17.661	1811.220	1767.036
377.986	17.517	1809.393	1763.535
379.000	17.664	1807.420	1762.937
380.015	17.777	1806.354	1762.856
381.029	17.932	1805.321	1763.251
382.044	17.678	1803.511	1758.636
383.059	17.752	1801.631	1757.355
384.073	17.611	1800.963	1755.037
385.088	17.604	1799.276	1753.108
386.102	17.497	1797.825	1750.382
387.117	17.481	1796.268	1748.495
388.132	17.355	1795.776	1746.496
389.146	18.149	1798.619	1757.258
390.161	20.236	1801.042	1780.979
391.175	20.104	1794.459	1772.896
392.190	18.093	1787.398	1745.098
393.205	17.664	1785.767	1738.891
394.219	17.534	1785.423	1737.017
395.234	17.503	1783.853	1734.965
396.248	17.612	1782.776	1734.823
397.263	17.645	1779.162	1731.436
398.278	17.503	1777.888	1728.541
399.292	17.534	1777.768	1728.538
400.307	17.708	1777.210	1729.559
401.321	17.695	1776.250	1728.284
402.336	17.631	1774.962	1726.179
403.350	17.726	1772.771	1724.807
404.365	17.962	1771.579	1725.837
405.380	18.079	1770.698	1725.959
406.394	18.035	1770.318	1724.932
407.409	17.903	1768.662	1721.776
408.423	17.884	1766.392	1719.165
409.438	17.904	1765.244	1718.052
410.453	17.825	1764.360	1716.187
411.467	17.945	1763.084	1715.950
412.482	17.802	1761.498	1712.760
413.496	17.786	1759.830	1710.770
414.511	17.678	1757.723	1707.424
415.526	17.687	1755.644	1705.293
416.540	17.675	1753.358	1702.754
417.555	17.498	1753.101	1700.520
418.569	17.583	1753.873	1701.915
419.584	17.592	1753.203	1701.154
420.599	17.578	1752.672	1700.298
421.613	17.586	1751.599	1699.136
422.628	17.589	1750.238	1697.639
423.642	17.639	1749.089	1696.824
424.657	17.578	1747.570	1694.539
425.672	17.518	1745.621	1691.841
426.686	17.497	1744.637	1690.475
427.701	17.522	1743.071	1689.003
428.715	17.526	1741.069	1686.900
429.730	17.680	1739.907	1687.110
430.745	17.649	1738.535	1685.269
431.759	17.686	1737.991	1684.909
432.774	17.745	1737.716	1685.027
433.788	17.804	1737.540	1685.233
434.803	17.993	1736.517	1685.921
435.818	18.013	1735.809	1685.231
436.832	17.948	1735.011	1683.608
437.847	16.989	1727.786	1666.923
438.861	9.511	1708.312	1574.667
439.876	1.597	1694.044	1483.957
440.890	0.236	1689.893	1466.830
441.905	0.073	1689.118	1464.378
442.920	0.255	1687.197	1464.322
443.934	0.249	1685.359	1462.494
444.949	0.079	1685.597	1460.860
445.963	0.131	1684.717	1460.431
446.978	0.056	1685.074	1459.838
447.993	0.100	1682.052	1457.469
449.007	0.163	1679.796	1455.956
450.022	0.089	1677.538	1453.103
451.036	0.234	1676.890	1453.779
452.051	1.207	1681.499	1467.064
453.066	8.941	1698.557	1557.488
454.080	16.250	1710.009	1639.407
455.095	17.507	1711.752	1653.159
456.109	17.730	1710.765	1654.177
457.124	17.661	1710.208	1652.766
458.139	17.730	1709.118	1652.190
459.153	17.815	1707.870	1651.614
460.168	17.905	1705.242	1649.745
461.182	17.697	1704.161	1646.488
462.197	17.692	1701.893	1644.048
463.212	17.746	1701.021	1643.529
464.226	17.666	1700.459	1642.018
465.241	17.852	1698.069	1641.315
466.255	17.855	1697.023	1640.130
467.270	17.818	1695.868	1638.461
468.285	17.549	1695.609	1635.420
469.299	17.691	1693.980	1635.029
470.314	17.659	1691.997	1632.606
471.328	17.574	1691.086	1630.711
472.343	17.708	1689.840	1630.602
473.358	17.634	1689.145	1629.032
474.372	17.719	1687.654	1628.208
475.387	17.747	1686.587	1627.256
476.401	17.641	1684.976	1624.491
477.416	17.630	1684.004	1623.259
478.430	17.760	1683.306	1623.635
479.445	17.786	1681.264	1621.718
480.460	17.695	1679.983	1619.419
481.474	17.854	1678.469	1619.283
482.489	17.731	1677.202	1616.690
483.503	17.779	1675.851	1615.657
484.518	17.676	1675.044	1613.701
485.533	17.845	1673.432	1613.565
486.547	17.888	1671.835	1612.234
487.562	17.948	1671.489	1612.281
488.576	17.997	1669.806	1610.928
489.591	18.034	1668.391	1609.719
490.606	17.940	1666.893	1607.189
491.620	17.797	1665.057	1603.884
492.635	17.924	1663.592	1603.473
493.649	17.952	1662.121	1602.129
494.664	17.785	1661.749	1600.004
495.679	17.635	1659.898	1596.622
496.693	17.640	1658.868	1595.481
497.708	17.676	1657.204	1594.035
498.722	17.621	1657.018	1593.145
499.737	17.758	1655.501	1592.780
500.752	17.737	1653.181	1590.158
501.766	17.647	1652.008	1587.997
502.781	17.777	1650.487	1587.567
503.795	17.814	1649.032	1586.318
504.810	17.764	1648.325	1584.987
505.825	17.751	1648.168	1584.518
506.839	17.844	1646.423	1583.523
507.854	17.711	1645.606	1581.308
508.868	17.805	1643.340	1579.814
509.883	17.741	1642.886	1578.595
510.898	17.858	1642.078	1578.712
511.912	17.862	1639.738	1576.312
512.927	17.724	1637.568	1572.758
513.941	17.625	1636.740	1570.860
514.956	17.790	1635.600	1571.102
515.971	17.813	1634.571	1570.141
516.985	17.835	1633.258	1568.898
518.000	17.984	1632.133	1569.000
519.014	17.880	1631.548	1567.290
520.029	17.890	1631.026	1566.694
521.043	17.852	1629.210	1564.412
522.058	17.806	1627.806	1562.456
523.073	17.790	1627.010	1561.353
524.087	17.969	1625.374	1561.244
525.102	18.023	1624.020	1560.252
526.116	17.641	1623.805	1556.350
527.131	17.904	1621.918	1556.768
528.146	17.991	1620.621	1556.135
529.160	17.949	1619.164	1554.162
530.175	17.873	1618.802	1552.934
531.189	17.848	1617.330	1551.112
532.204	17.988	1615.602	1550.548
533.219	17.942	1614.960	1549.320
534.233	17.861	1614.113	1547.585
535.248	17.863	1613.548	1546.881
536.262	17.910	1612.752	1546.361
537.277	17.885	1611.083	1544.345
538.292	17.929	1609.045	1542.612
539.306	17.836	1607.518	1540.119
540.321	17.981	1606.605	1540.370
541.335	17.948	1605.446	1538.779
542.350	18.041	1602.686	1536.789
543.365	18.115	1601.455	1536.092
544.379	18.109	1600.367	1534.810
545.394	18.061	1599.551	1533.409
546.408	17.868	1598.442	1530.426
547.423	17.756	1597.444	1528.275
548.438	17.635	1596.102	1525.718
549.452	17.858	1595.123	1526.610
550.467	17.832	1593.459	1524.598
551.481	17.878	1593.000	1524.390
552.496	17.865	1592.012	1523.149
553.511	17.918	1590.778	1522.255
554.525	17.951	1589.937	1521.570
555.540	17.925	1588.874	1520.139
556.554	17.949	1588.039	1519.371
557.569	17.978	1586.712	1518.173
558.583	17.937	1585.409	1516.382
559.598	17.907	1583.457	1514.065
560.613	17.912	1582.588	1513.096
561.627	17.894	1581.256	1511.483
562.642	17.935	1579.412	1509.903
563.656	17.998	1578.614	1509.517
564.671	18.023	1577.913	1508.888
565.686	18.026	1576.254	1507.153
566.700	17.954	1574.798	1504.943
567.715	18.033	1572.738	1503.489
568.729	17.915	1572.034	1501.597
569.744	17.934	1570.737	1500.344
570.759	17.914	1569.816	1499.109
571.773	17.912	1569.092	1498.223
572.788	17.916	1567.917	1496.955
573.802	17.885	1566.228	1494.889
574.817	17.900	1564.340	1493.040
575.832	18.029	1563.440	1493.138
576.846	17.939	1562.253	1491.030
577.861	17.972	1561.332	1490.266
578.875	18.094	1560.643	1490.499
579.890	18.087	1559.995	1489.642
580.905	18.052	1558.769	1487.982
581.919	17.965	1558.313	1486.611
582.934	18.156	1556.375	1486.253
583.948	18.095	1555.136	1484.358
584.963	17.960	1554.141	1482.055
585.978	17.989	1552.800	1480.852
586.992	18.057	1551.961	1480.462
588.007	18.185	1551.283	1480.751
589.021	18.066	1549.924	1478.243
590.036	18.058	1548.609	1476.745
591.051	18.038	1547.593	1475.429
592.065	18.218	1545.798	1475.097
593.080	18.111	1544.873	1473.109
594.094	18.172	1543.005	1471.677
595.109	18.129	1540.874	1469.100
596.123	17.968	1539.481	1466.209
597.138	18.020	1538.054	1465.126
598.153	18.132	1537.283	1465.173
599.167	18.082	1536.327	1463.659
600.182	18.026	1535.814	1462.517
601.196	18.156	1534.449	1462.160
602.211	18.077	1532.913	1459.842
603.226	18.129	1531.474	1458.737
604.240	18.183	1530.836	1458.421
605.255	18.222	1529.223	1457.040
606.269	18.036	1528.713	1454.788
607.284	18.145	1527.349	1454.248
608.299	18.227	1525.801	1453.304
609.313	18.004	1525.341	1450.785
610.328	18.139	1523.805	1450.305
611.342	18.154	1522.180	1448.715
612.357	18.185	1521.918	1448.556
613.372	18.188	1520.704	1447.254
614.386	18.108	1519.774	1445.512
615.401	18.210	1518.755	1445.238
616.415	18.054	1518.443	1443.445
617.430	18.069	1517.616	1442.610
618.445	18.350	1515.702	1442.998
619.459	18.125	1514.161	1439.456
620.474	18.095	1513.260	1438.176
621.488	18.093	1512.350	1437.118
622.503	18.054	1511.410	1435.719
623.518	18.121	1510.446	1435.203
624.532	18.026	1509.785	1433.597
625.547	18.075	1508.526	1432.644
626.561	18.136	1507.496	1432.014
627.576	18.291	1506.816	1432.492
628.591	18.034	1505.520	1428.937
629.605	18.056	1504.459	1427.939
630.620	18.093	1502.002	1425.750
631.634	18.117	1501.282	1425.098
632.649	18.195	1500.264	1424.610
633.663	18.287	1498.010	1423.071
634.678	18.262	1497.134	1421.853
635.693	18.361	1495.683	1421.136
636.707	18.242	1495.213	1419.524
637.722	18.401	1494.194	1419.711
638.736	18.304	1492.668	1417.286
639.751	18.381	1491.648	1416.788
640.766	18.335	1490.664	1415.299
641.780	18.375	1489.212	1414.085
642.795	18.145	1489.271	1412.062
643.809	18.138	1488.560	1411.158
644.824	18.336	1486.681	1410.849
645.839	18.219	1485.637	1408.726
646.853	18.198	1484.296	1407.109
647.868	18.371	1482.546	1406.712
648.882	18.227	1481.995	1404.829
649.897	18.402	1480.102	1404.310
650.912	18.356	1478.961	1402.678
651.926	18.396	1477.970	1401.899
652.941	18.331	1477.132	1400.409
653.955	18.331	1475.333	1398.533
654.970	18.247	1473.348	1395.794
655.985	18.502	1471.854	1396.303
656.999	18.308	1471.377	1394.095
658.014	18.354	1470.217	1393.200
659.028	18.336	1469.654	1392.356
660.043	18.319	1469.115	1391.542
661.058	18.286	1467.271	1389.361
662.072	18.330	1466.436	1388.757
663.087	18.254	1465.545	1387.128
664.101	18.181	1464.186	1385.083
665.116	18.355	1462.665	1384.893
666.131	18.290	1462.409	1383.956
667.145	18.271	1461.026	1382.327
668.160	18.370	1459.499	1381.517
669.174	18.541	1458.308	1381.616
670.189	18.382	1457.338	1379.240
671.204	18.316	1456.931	1378.161
672.218	18.396	1455.719	1377.496
673.233	18.488	1454.396	1376.816
674.247	18.431	1453.392	1375.240
675.262	18.460	1452.660	1374.621
676.276	18.369	1451.948	1373.047
677.291	18.222	1450.726	1370.546
678.306	18.468	1448.493	1370.250
679.320	18.370	1447.578	1368.433
680.335	18.237	1448.297	1367.880
681.349	18.306	1447.208	1367.241
682.364	18.273	1446.266	1365.920
683.379	18.417	1444.237	1364.997
684.393	18.293	1442.947	1362.622
685.408	18.298	1442.105	1361.703
686.422	18.310	1441.077	1360.662
687.437	18.419	1440.238	1360.584
688.452	18.487	1439.448	1360.212
689.466	18.425	1437.839	1358.033
690.481	18.267	1436.451	1355.308
691.495	18.267	1435.859	1354.585
692.510	18.290	1434.234	1353.071
693.525	18.239	1433.641	1351.943
694.539	18.264	1432.485	1350.891
695.554	18.333	1431.608	1350.448
696.568	18.509	1430.298	1350.451
697.583	18.355	1429.759	1348.559
698.598	18.414	1429.220	1348.353
699.612	18.416	1427.532	1346.616
700.627	18.327	1426.348	1344.633
701.641	18.354	1425.582	1343.967
702.656	18.337	1424.457	1342.614
703.671	18.456	1424.196	1343.139
704.685	18.600	1422.733	1342.730
705.700	18.465	1421.862	1340.693
706.714	18.424	1420.318	1338.754
707.729	18.420	1418.435	1336.786
708.744	18.378	1417.733	1335.632
709.758	18.349	1417.013	1334.567
710.773	18.409	1415.773	1333.714
711.787	18.498	1413.892	1332.476
712.802	18.529	1412.247	1331.006
713.816	18.525	1411.835	1330.427
714.831	18.683	1410.871	1330.591
715.846	18.670	1409.799	1329.324
716.860	18.562	1409.195	1327.752
717.875	18.456	1407.997	1325.639
718.889	18.496	1407.112	1324.961
719.904	18.436	1405.580	1322.889
720.919	18.464	1404.687	1322.112
721.933	18.638	1403.864	1322.522
722.948	18.677	1402.717	1321.588
723.962	18.600	1401.854	1320.024
724.977	18.588	1400.227	1318.235
725.992	18.611	1398.975	1317.080
727.006	18.492	1398.068	1315.151
728.021	18.577	1396.737	1314.399
729.035	18.644	1395.384	1313.480
730.050	18.498	1395.100	1311.930
731.065	18.569	1393.662	1310.972
732.079	18.670	1392.359	1310.362
733.094	18.551	1391.326	1308.319
734.108	18.546	1389.947	1306.831
735.123	18.513	1388.518	1305.078
736.138	18.588	1387.720	1304.740
737.152	18.371	1387.282	1302.518
738.167	18.563	1386.584	1303.169
739.181	18.677	1385.297	1302.680
740.196	18.579	1384.458	1300.981
741.211	18.508	1384.256	1300.094
742.225	18.471	1382.399	1297.913
743.240	18.590	1380.845	1297.206
744.254	18.551	1379.746	1295.726
745.269	18.653	1378.792	1295.445
746.284	18.390	1378.840	1293.341
747.298	18.490	1376.767	1291.996
748.313	18.331	1376.162	1290.072
749.327	18.457	1374.670	1289.469
750.342	18.325	1374.273	1287.948
751.356	18.308	1372.716	1286.202
752.371	18.199	1372.362	1284.899
753.386	18.421	1371.068	1285.206
754.400	18.423	1370.246	1284.295
755.415	18.605	1369.390	1284.710
756.429	18.700	1367.641	1283.626
757.444	18.751	1366.149	1282.457
758.459	18.588	1365.540	1280.507
759.473	18.732	1364.630	1280.583
760.488	18.766	1363.675	1279.789
761.502	18.762	1362.604	1278.601
762.517	18.779	1360.953	1277.026
763.532	18.698	1359.661	1275.055
764.546	18.791	1358.401	1274.412
765.561	18.462	1358.831	1272.209
766.575	18.502	1358.000	1271.582
767.590	18.466	1356.147	1269.425
768.605	18.612	1355.134	1269.412
769.619	18.702	1353.763	1268.644
770.634	18.733	1352.465	1267.505
771.648	18.696	1352.058	1266.696
772.663	18.831	1351.368	1266.901
773.678	18.636	1350.841	1264.812
774.692	18.729	1349.542	1264.130
775.707	18.585	1349.891	1263.242
776.721	18.697	1348.498	1262.611
777.736	18.619	1347.021	1260.501
778.751	18.758	1345.914	1260.338
779.765	18.718	1344.575	1258.642
780.780	18.589	1344.715	1257.672
781.794	18.813	1343.170	1257.723
782.809	18.604	1342.324	1255.241
783.824	18.544	1341.276	1253.672
784.838	18.382	1339.605	1250.769
785.853	18.158	1339.489	1248.871
786.867	18.270	1338.791	1248.894
787.882	18.429	1337.535	1248.734
788.897	18.426	1336.502	1247.597
789.911	18.554	1335.583	1247.527
790.926	18.491	1334.692	1246.084
791.940	18.672	1332.869	1245.556
792.955	18.592	1331.459	1243.507
793.969	18.664	1330.456	1242.946
794.984	18.597	1330.234	1242.101
795.999	18.625	1329.285	1241.273
797.013	18.796	1327.096	1240.315
798.028	18.652	1325.799	1237.910
799.042	18.720	1324.839	1237.363
800.057	18.642	1324.239	1236.092
801.072	18.617	1323.324	1234.908
802.086	18.645	1321.998	1233.725
803.101	18.772	1320.626	1233.213
804.115	18.725	1320.151	1232.283
805.130	18.732	1318.977	1231.086
806.145	18.628	1317.893	1229.178
807.159	18.818	1316.210	1228.828
808.174	18.720	1315.586	1227.398
809.188	18.746	1313.951	1225.907
810.203	18.682	1312.591	1224.036
811.218	18.715	1311.221	1222.844
812.232	18.673	1309.987	1221.250
813.247	18.584	1309.017	1219.565
814.261	18.669	1308.465	1219.511
815.276	18.740	1307.543	1219.010
816.291	18.745	1307.062	1218.451
817.305	18.810	1305.723	1217.520
818.320	18.827	1303.978	1215.873
819.334	18.629	1303.493	1213.862
820.349	18.602	1302.704	1212.793
821.364	18.751	1300.502	1211.657
822.378	18.708	1298.651	1209.482
823.393	18.726	1297.280	1208.184
824.407	18.699	1296.985	1207.573
825.422	18.507	1296.555	1205.670
826.437	18.673	1294.814	1205.083
827.451	18.549	1293.526	1202.868
828.466	18.303	1292.302	1199.848
829.480	18.334	1289.683	1197.492
830.495	18.433	1288.015	1196.496
831.509	18.555	1287.616	1196.835
832.524	18.658	1286.834	1196.693
833.539	18.656	1286.147	1195.896
834.553	18.719	1284.955	1195.082
835.568	18.748	1283.562	1193.847
836.582	18.891	1282.556	1193.764
837.597	18.933	1280.986	1192.458
838.612	18.990	1279.072	1190.928
839.626	18.944	1278.853	1190.263
840.641	18.849	1278.572	1189.199
841.655	18.790	1277.490	1187.637
842.670	18.723	1275.974	1185.624
843.685	18.600	1274.911	1183.641
844.699	18.652	1274.171	1183.169
845.714	18.722	1272.645	1182.093
846.728	18.676	1272.346	1181.357
847.743	18.937	1270.701	1181.495
848.758	18.925	1269.696	1180.335
849.772	18.678	1268.284	1177.178
850.787	18.747	1267.249	1176.554
851.801	18.731	1266.359	1175.471
852.816	18.905	1264.917	1175.192
853.831	18.624	1263.264	1171.586
854.845	18.742	1261.005	1170.161
855.860	18.622	1260.317	1168.558
856.874	18.530	1259.103	1166.667
857.889	18.592	1257.770	1165.714
858.904	18.619	1256.300	1164.398
859.918	18.495	1255.037	1162.243
860.933	18.283	1253.652	1159.375
861.947	18.544	1252.645	1160.080
862.962	18.470	1251.926	1158.773
863.977	18.589	1250.568	1158.186
864.991	18.479	1250.662	1157.388
866.006	18.756	1250.023	1158.535
867.020	18.670	1248.395	1156.307
868.035	18.837	1246.655	1155.687
869.049	18.953	1246.048	1155.769
870.064	18.712	1245.548	1153.540
871.079	18.825	1244.863	1153.526
872.093	18.886	1244.247	1153.228
873.108	18.881	1243.203	1152.088
874.122	18.962	1241.548	1150.961
875.137	18.862	1241.580	1150.183
876.152	18.766	1240.694	1148.577
877.166	18.894	1238.896	1147.636
878.181	18.946	1238.054	1147.071
879.195	18.842	1237.615	1145.825
880.210	18.586	1237.104	1143.499
881.225	18.534	1235.984	1141.983
882.239	18.713	1234.460	1141.633
883.254	18.804	1233.739	1141.435
884.268	18.846	1232.743	1140.662
885.283	18.894	1230.874	1139.116
886.298	18.801	1229.277	1136.883
887.312	18.969	1228.766	1137.387
888.327	18.878	1228.015	1135.956
889.341	18.775	1226.059	1133.322
890.356	18.802	1225.375	1132.734
891.371	18.770	1225.428	1132.439
892.385	18.755	1224.731	1131.560
893.400	18.761	1223.809	1130.610
894.414	18.627	1222.060	1127.972
895.429	18.668	1219.665	1125.898
896.444	18.461	1218.741	1123.544
897.458	18.310	1217.877	1121.618
898.473	18.479	1217.337	1122.102
899.487	18.627	1216.912	1122.553
900.502	18.836	1215.473	1122.462
901.517	18.864	1213.999	1121.150
902.531	18.976	1212.975	1120.805
903.546	18.886	1212.942	1120.048
904.560	18.799	1212.515	1118.951
905.575	18.836	1211.645	1118.253
906.589	18.888	1210.572	1117.472
907.604	18.900	1209.449	1116.379
