DTS Sentinel unit serial number:	SN409020Multiplexer serial number:	ORYXHardware model number:	OX4-SRSoftware version number:	ORYX F/W v3.00 Oryx Data Collector v3.7.2.0data status	okinstallation	HaddamTimeLapsedifferential loss correction	single-endedforward channel	channel 3reverse channel	N/Adate	2011/06/22time	00:06:17forward acquisition time	30.00reverse acquisition time	0.00gamma	498.7831k internal	0.1752k external	0.1752temperature offset calibration	1.0074default loss term (dB/km)	0.3790temperature slope calibration	1.3530multiplexer offset coefficient	1.0000multiplexer slope coefficient	1.0000fibre end	0.00T internal ref (°C)	22.87T ext. ref 1 (°C)	18.14T ext. ref 2 (°C)	0.05length (m)	temperature (°C)	Stokes	anti-Stokes-747.200	68.587	0.514	0.700
-746.185	71.656	0.312	0.430
-745.171	-125.394	-0.152	0.030
-744.156	143.287	-0.347	0.615
-743.142	-200.000	0.016	0.352
-742.127	800.000	-0.033	-0.181
-741.112	-97.478	-0.487	-0.167
-740.098	331.784	-0.159	0.409
-739.083	424.799	0.016	0.047
-738.069	229.999	-0.079	-0.172
-737.054	-200.000	0.020	-0.166
-736.039	-179.292	-0.803	-0.023
-735.025	407.001	0.127	0.357
-734.010	31.735	-0.095	-0.109
-732.996	29.511	0.336	0.379
-731.981	24.963	-0.077	-0.085
-730.966	258.621	-0.123	-0.283
-729.952	150.754	-0.247	-0.446
-728.937	30.114	-0.208	-0.236
-727.923	298.925	-0.266	-0.652
-726.908	-32.192	0.035	0.026
-725.894	717.251	-0.015	0.053
-724.879	-157.344	-0.330	-0.026
-723.864	-166.996	-0.276	0.015
-722.850	-110.614	-0.220	-0.060
-721.835	-133.359	-0.260	0.043
-720.821	-133.873	-0.186	-0.030
-719.806	19.711	0.222	0.237
-718.791	-54.245	0.084	0.050
-717.777	53.693	-0.194	-0.247
-716.762	-8.209	0.243	-0.216
-715.748	-104.934	-0.289	0.087
-714.733	-68.091	-0.293	-0.151
-713.718	-140.892	0.181	0.024
-712.704	-88.196	-0.370	-0.146
-711.689	-125.559	-0.174	-0.035
-710.675	-72.824	0.156	-0.076
-709.660	-72.438	-0.342	-0.167
-708.645	114.057	-0.131	-0.212
-707.631	-123.274	-0.322	-0.068
-706.616	-18.405	-0.600	-0.496
-705.602	472.964	0.072	-0.217
-704.587	-96.602	-0.398	0.138
-703.572	-12.771	0.249	-0.215
-702.558	-200.000	-0.025	0.337
-701.543	-171.360	-0.369	-0.016
-700.529	634.352	0.145	-0.490
-699.514	-200.000	0.004	0.157
-698.499	21.818	0.135	0.146
-697.485	1.481	0.139	0.133
-696.470	104.504	-0.050	-0.078
-695.456	-52.259	0.234	0.143
-694.441	-82.910	0.299	-0.127
-693.426	507.938	-0.137	-0.424
-692.412	-64.631	-0.328	-0.176
-691.397	-160.608	0.373	-0.026
-690.383	79.662	0.150	0.213
-689.368	-113.163	-0.452	0.117
-688.354	41.337	0.419	0.502
-687.339	-200.000	0.020	0.142
-686.324	-140.920	0.209	0.028
-685.310	-59.226	0.281	-0.160
-684.295	499.767	-0.047	0.145
-683.281	-58.816	-0.288	-0.165
-682.266	23.322	0.269	0.293
-681.251	-200.000	-0.001	0.368
-680.237	-83.412	0.308	0.130
-679.222	37.890	0.441	0.519
-678.208	800.000	0.097	-0.528
-677.193	800.000	-0.108	-0.505
-676.178	800.000	0.072	0.266
-675.164	42.389	-0.099	-0.119
-674.149	-63.422	-0.029	0.016
-673.135	-181.490	-0.498	-0.013
-672.120	-75.261	-0.143	0.067
-671.105	800.000	-0.046	0.270
-670.091	-130.340	-0.305	0.054
-669.076	-68.049	0.195	0.100
-668.062	56.766	0.271	-0.350
-667.047	42.840	0.250	0.302
-666.032	-200.000	0.005	0.096
-665.018	275.853	-0.198	-0.468
-664.003	86.135	-0.042	-0.062
-662.989	29.140	-0.479	-0.538
-661.974	-136.108	-0.131	-0.020
-660.959	-66.592	0.311	-0.162
-659.945	205.913	0.160	0.331
-658.930	-147.855	-0.586	0.064
-657.916	-30.865	-0.348	0.260
-656.901	-175.150	0.190	-0.007
-655.886	-134.874	-0.636	-0.101
-654.872	-200.000	-0.011	-0.303
-653.857	4.770	0.399	-0.388
-652.843	16.492	-0.166	0.173
-651.828	-2.691	-0.200	0.185
-650.814	800.000	-0.087	0.334
-649.799	-58.148	-0.232	-0.133
-648.784	-200.000	-0.003	0.141
-647.770	-200.000	0.089	0.000
-646.755	685.319	0.026	0.090
-645.741	800.000	0.032	-0.149
-644.726	491.867	0.087	0.264
-643.711	-54.578	-0.249	0.149
-642.697	-40.282	0.255	0.175
-641.682	381.758	0.131	-0.357
-640.668	54.971	-0.233	0.298
-639.653	2.755	0.276	0.264
-638.638	96.809	-0.090	-0.137
-637.624	800.000	-0.081	-0.412
-636.609	-158.938	-0.321	0.024
-635.595	-200.000	-0.019	-0.315
-634.580	-117.370	-0.176	-0.042
-633.565	-43.492	0.410	-0.273
-632.551	190.561	0.076	-0.150
-631.536	-127.562	-0.582	-0.111
-630.522	205.295	-0.036	-0.073
-629.507	-99.008	-0.526	-0.175
-628.492	-69.443	-0.277	-0.140
-627.478	264.663	-0.239	-0.551
-626.463	-90.544	0.413	-0.157
-625.449	-52.011	-0.085	-0.052
-624.434	-129.667	0.269	0.049
-623.419	5.455	-0.239	0.233
-622.405	-59.448	0.230	-0.130
-621.390	-17.781	-0.170	-0.141
-620.376	-23.061	0.277	0.220
-619.361	-104.903	0.156	-0.047
-618.346	64.806	0.132	-0.176
-617.332	598.579	-0.020	-0.066
-616.317	218.853	0.167	-0.353
-615.303	48.972	0.211	0.262
-614.288	-47.393	-0.053	-0.034
-613.273	134.512	0.238	0.408
-612.259	-98.336	0.781	0.263
-611.244	87.428	0.157	-0.230
-610.230	497.587	-0.048	0.146
-609.215	554.664	-0.123	-0.394
-608.201	-116.165	-0.246	-0.060
-607.186	600.970	0.063	-0.209
-606.171	20.056	-0.249	0.265
-605.157	-84.838	-0.264	0.109
-604.142	-59.704	-0.282	-0.159
-603.128	-56.919	-0.089	-0.051
-602.113	209.045	0.108	-0.225
-601.098	3.893	-0.169	0.163
-600.084	208.841	-0.097	-0.201
-599.069	188.882	0.316	-0.627
-598.055	462.699	-0.213	-0.631
-597.040	-106.615	0.103	0.030
-596.025	117.019	0.252	-0.409
-595.011	-200.000	-0.049	-0.557
-593.996	13.200	0.066	0.068
-592.982	800.000	-0.084	0.470
-591.967	800.000	0.036	-0.203
-590.952	-128.659	0.307	0.057
-589.938	800.000	-0.035	-0.159
-588.923	207.079	-0.076	0.158
-587.909	151.225	-0.235	0.424
-586.894	-42.994	0.115	0.077
-585.879	800.000	0.074	-0.339
-584.865	-115.644	0.556	-0.137
-583.850	58.468	0.182	-0.236
-582.836	384.390	-0.109	0.298
-581.821	1.999	-0.105	0.100
-580.806	-142.639	0.324	0.041
-579.792	219.345	-0.159	-0.336
-578.777	-61.239	-0.580	-0.321
-577.763	-5.811	-0.021	-0.019
-576.748	-97.729	0.150	0.051
-575.733	-53.951	-0.072	0.043
-574.719	-38.276	-0.199	0.139
-573.704	-200.000	0.028	0.338
-572.690	47.856	-0.518	-0.639
-571.675	-48.035	0.370	-0.235
-570.661	-109.722	0.295	0.081
-569.646	57.060	0.223	0.287
-568.631	-200.000	0.048	-0.302
-567.617	111.151	0.163	-0.259
-566.602	-20.215	-0.286	-0.232
-565.588	-64.036	-0.700	0.375
-564.573	800.000	0.142	0.523
-563.558	57.020	-0.216	-0.277
-562.544	-21.740	-0.447	0.358
-561.529	-112.640	-0.127	-0.033
-560.515	146.016	0.067	-0.119
-559.500	-32.058	0.100	0.074
-558.485	66.790	0.151	0.203
-557.471	-81.864	0.119	-0.051
-556.456	-26.948	-0.596	-0.458
-555.442	800.000	0.049	0.218
-554.427	-88.459	0.142	-0.056
-553.412	88.812	0.227	-0.333
-552.398	-30.909	0.385	0.286
-551.383	61.107	-0.192	-0.251
-550.369	-120.875	0.476	0.105
-549.354	51.892	-0.388	-0.487
-548.339	-140.613	-0.254	0.034
-547.325	-112.697	0.477	-0.124
-546.310	-97.128	0.095	0.033
-545.296	-179.511	0.299	0.008
-544.281	-200.000	-0.009	-0.422
-543.266	-83.059	0.355	0.150
-542.252	-56.015	-0.080	-0.047
-541.237	137.574	0.196	0.339
-540.223	-62.176	-0.103	0.056
-539.208	18.057	-0.149	0.156
-538.193	800.000	0.077	0.309
-537.179	54.173	-0.183	-0.232
-536.164	-39.153	0.540	-0.373
-535.150	-7.047	-0.316	-0.283
-534.135	-77.409	0.365	-0.166
-533.121	-75.887	-0.478	0.222
-532.106	-200.000	0.035	0.340
-531.091	39.377	0.157	-0.185
-530.077	-89.541	0.193	0.074
-529.062	800.000	0.102	-0.390
-528.048	426.640	0.094	0.269
-527.033	58.691	0.220	-0.284
-526.018	6.530	-0.171	-0.167
-525.004	-200.000	-0.036	0.974
-523.989	-39.615	0.182	-0.125
-522.975	-56.029	-0.228	0.133
-521.960	78.105	0.149	-0.210
-520.945	-200.000	0.038	-0.321
-519.931	-54.336	0.168	-0.100
-518.916	-92.025	0.343	-0.127
-517.902	668.304	0.051	-0.176
-516.887	-200.000	0.007	-0.212
-515.872	16.535	0.286	0.297
-514.858	17.712	0.254	0.266
-513.843	-58.158	-0.627	0.359
-512.829	-200.000	0.015	-0.391
-511.814	-122.553	-0.413	0.088
-510.799	114.020	0.087	0.140
-509.785	-21.274	0.119	-0.096
-508.770	-200.000	-0.002	-0.121
-507.756	278.154	-0.065	-0.153
-506.741	800.000	0.094	-0.455
-505.726	-22.153	0.235	-0.187
-504.712	800.000	0.043	0.240
-503.697	-176.377	-0.433	-0.015
-502.683	-116.960	-0.170	-0.041
-501.668	19.196	0.092	-0.097
-500.653	-143.151	0.387	-0.049
-499.639	-42.954	-0.317	0.211
-498.624	-61.761	-0.558	0.306
-497.610	-55.722	-0.330	-0.194
-496.595	-200.000	-0.079	-0.505
-495.581	-54.552	-0.532	0.316
-494.566	-159.023	-0.400	0.029
-493.551	800.000	-0.058	0.335
-492.537	95.095	-0.104	-0.156
-491.522	-81.305	0.088	-0.038
-490.508	-87.708	-0.311	-0.122
-489.493	-145.424	-0.111	0.013
-488.478	800.000	-0.065	0.238
-487.464	-139.245	-0.546	0.077
-486.449	-131.624	0.174	0.030
-485.435	-150.999	0.256	-0.025
-484.420	-124.296	-0.591	0.120
-483.405	-66.147	-0.393	-0.205
-482.391	-135.782	-0.251	0.039
-481.376	117.161	0.263	0.425
-480.362	-31.374	-0.460	-0.339
-479.347	-65.642	-0.192	0.101
-478.332	-162.669	0.377	-0.024
-477.318	-191.573	0.517	-0.007
-476.303	-113.581	0.235	0.060
-475.289	-19.851	0.070	-0.056
-474.274	800.000	0.050	-0.252
-473.259	-83.792	0.202	0.084
-472.245	-200.000	0.084	-0.600
-471.230	87.241	0.305	-0.444
-470.216	-88.946	0.201	-0.078
-469.201	167.510	0.178	0.334
-468.186	-25.586	0.606	0.469
-467.172	-125.905	-0.093	-0.018
-466.157	-200.000	0.102	-0.001
-465.143	-200.000	0.099	0.987
-464.128	57.044	0.145	0.185
-463.113	386.035	-0.140	-0.381
-462.099	-118.589	0.516	0.119
-461.084	127.194	0.208	0.348
-460.070	-10.291	-0.224	0.195
-459.055	-44.925	-0.366	0.238
-458.040	-169.331	0.233	0.011
-457.026	19.232	-0.230	-0.243
-456.011	43.525	-0.221	0.265
-454.997	-63.714	0.347	0.186
-453.982	41.406	-0.034	-0.040
-452.968	-125.737	0.411	0.081
-451.953	-87.824	-0.203	0.080
-450.938	-104.105	-0.276	-0.084
-449.924	-200.000	-0.015	0.181
-448.909	-6.967	-0.046	0.041
-447.895	-111.337	-0.356	-0.095
-446.880	565.212	-0.147	0.470
-445.865	80.348	-0.088	-0.125
-444.851	-27.687	0.078	-0.059
-443.836	-62.253	0.167	-0.091
-442.822	-53.647	-0.169	0.101
-441.807	146.898	-0.154	-0.273
-440.792	-29.578	-0.150	-0.112
-439.778	165.707	0.147	-0.274
-438.763	1.120	-0.205	0.193
-437.749	-120.448	-0.211	0.047
-436.734	146.461	-0.088	-0.155
-435.719	-17.364	0.177	-0.146
-434.705	-187.456	-0.150	0.003
-433.690	495.475	-0.165	0.501
-432.676	-127.722	0.239	-0.045
-431.661	93.454	0.266	0.395
-430.646	-200.000	0.033	-0.211
-429.632	-101.890	0.270	0.085
-428.617	-128.718	-0.253	-0.046
-427.603	-93.972	-0.043	0.016
-426.588	-114.015	0.375	0.095
-425.573	171.733	-0.192	0.363
-424.559	-200.000	0.011	0.247
-423.544	-27.225	-0.396	0.302
-422.530	-38.496	-0.212	-0.147
-421.515	-200.000	-0.006	-0.148
-420.500	-81.003	0.616	0.266
-419.486	-106.966	0.148	-0.043
-418.471	-81.478	0.252	0.108
-417.457	28.663	-0.059	-0.065
-416.442	-162.630	0.645	0.041
-415.428	-35.745	-0.248	-0.176
-414.413	275.455	0.106	-0.247
-413.398	262.359	0.244	0.556
-412.384	18.381	-0.234	0.245
-411.369	32.232	0.346	0.391
-410.355	-79.346	0.395	0.174
-409.340	-118.833	-0.313	0.072
-408.325	-82.309	-0.355	-0.151
-407.311	155.614	0.025	-0.046
-406.296	115.315	-0.092	-0.148
-405.282	800.000	0.078	0.334
-404.267	-131.162	0.364	-0.063
-403.252	-55.257	-0.104	-0.061
-402.238	245.409	0.267	0.590
-401.223	132.982	0.201	-0.340
-400.209	10.025	-0.333	-0.332
-399.194	-141.355	-0.395	-0.052
-398.179	100.323	0.239	0.364
-397.165	-79.658	0.109	0.048
-396.150	-107.907	-0.328	-0.093
-395.136	397.203	0.114	0.314
-394.121	22.597	0.256	0.274
-393.106	-142.573	0.148	-0.019
-392.092	47.728	-0.252	0.308
-391.077	-200.000	0.003	-0.243
-390.063	-200.000	-0.012	0.190
-389.048	0.697	-0.410	0.384
-388.033	87.604	0.273	0.397
-387.019	121.616	-0.076	-0.123
-386.004	-59.871	-0.159	0.089
-384.990	393.451	0.095	0.260
-383.975	-152.125	-0.698	0.065
-382.960	-74.748	-0.569	0.267
-381.946	-25.350	0.097	-0.075
-380.931	257.574	-0.050	-0.113
-379.917	486.576	0.062	-0.185
-378.902	-130.265	-0.251	0.044
-377.888	-42.737	0.192	-0.127
-376.873	-48.685	0.275	0.173
-375.858	-82.997	0.600	0.252
-374.844	544.508	-0.013	-0.042
-373.829	-13.602	0.226	-0.191
-372.815	-83.203	0.630	0.264
-371.800	378.581	0.177	0.476
-370.785	800.000	0.060	-0.235
-369.771	-95.353	-0.143	0.050
-368.756	800.000	0.098	0.425
-367.742	-3.860	0.294	0.266
-366.727	240.893	-0.070	0.154
-365.712	-53.617	-0.354	-0.211
-364.698	-45.945	0.323	0.208
-363.683	61.730	0.220	0.287
-362.669	126.552	-0.259	0.431
-361.654	-200.000	-0.018	-0.173
-360.639	-111.971	0.252	-0.066
-359.625	539.189	-0.197	-0.617
-358.610	-30.575	-0.099	-0.073
-357.596	-40.034	0.171	0.117
-356.581	9.428	-0.348	0.344
-355.566	-42.781	0.369	0.245
-354.552	-200.000	0.013	-0.079
-353.537	-200.000	-0.009	0.408
-352.523	-200.000	-0.025	-0.581
-351.508	59.954	0.254	-0.328
-350.493	562.635	0.117	-0.371
-349.479	-187.737	0.581	-0.010
-348.464	-200.000	-0.004	-0.389
-347.450	285.095	0.064	0.152
-346.435	114.776	0.187	-0.298
-345.420	-99.263	0.458	0.150
-344.406	800.000	0.136	0.582
-343.391	140.351	-0.149	0.258
-342.377	22.609	-0.168	0.180
-341.362	109.106	-0.407	0.638
-340.348	-174.938	-0.232	-0.008
-339.333	-110.956	-0.146	0.039
-338.318	-66.593	0.169	0.087
-337.304	49.492	-0.368	0.453
-336.289	-150.445	0.259	-0.026
-335.275	-84.380	-0.414	0.170
-334.260	594.084	-0.048	0.158
-333.245	-103.566	0.178	0.054
-332.231	14.492	0.069	-0.070
-331.216	55.188	-0.354	-0.447
-330.202	-200.000	0.042	-0.495
-329.187	-79.591	-0.215	0.094
-328.172	53.449	-0.053	0.066
-327.158	-125.173	0.237	-0.047
-326.143	-78.535	-0.104	0.046
-325.129	-60.749	-0.238	-0.131
-324.114	-200.000	-0.080	0.789
-323.099	-200.000	0.023	-0.353
-322.085	800.000	-0.051	-0.203
-321.070	227.849	0.163	0.347
-320.056	-4.262	-0.218	-0.197
-319.041	-128.042	-0.477	-0.089
-318.026	130.976	-0.272	-0.457
-317.012	-200.000	0.005	-0.235
-315.997	-200.000	-0.012	-0.296
-314.983	66.876	-0.082	-0.109
-313.968	-36.838	-0.172	-0.120
-312.953	388.980	-0.062	-0.169
-311.939	60.204	-0.442	-0.572
-310.924	-30.786	0.531	-0.391
-309.910	292.904	0.229	-0.547
-308.895	-91.900	0.354	0.130
-307.880	-9.838	-0.493	0.427
-306.866	550.157	0.072	-0.226
-305.851	-55.390	-0.155	0.090
-304.837	125.184	0.290	0.479
-303.822	-200.000	-0.004	0.040
-302.807	366.578	0.144	-0.380
-301.793	-6.630	-0.371	-0.329
-300.778	-200.000	0.010	-0.320
-299.764	-57.741	-0.106	0.061
-298.749	-114.851	0.063	0.015
-297.735	124.450	-0.138	-0.227
-296.720	-200.000	-0.035	0.203
-295.705	291.123	0.256	0.611
-294.691	800.000	0.048	-0.207
-293.676	25.495	0.301	-0.326
-292.662	-200.000	0.006	-0.045
-291.647	-59.206	-0.201	0.112
-290.632	-70.489	-0.163	0.080
-289.618	612.985	-0.154	0.505
-288.603	-151.845	0.451	0.043
-287.589	127.238	-0.071	-0.118
-286.574	-87.051	0.605	-0.239
-285.559	-78.237	-0.315	-0.141
-284.545	40.803	-0.106	-0.125
-283.530	-85.197	0.564	-0.229
-282.516	378.041	0.061	0.163
-281.501	424.588	0.127	-0.359
-280.486	-7.056	0.108	0.095
-279.472	168.790	-0.069	0.129
-278.457	-51.491	-0.500	-0.304
-277.443	-100.704	0.227	0.072
-276.428	116.762	0.006	0.010
-275.413	49.223	-0.421	0.516
-274.399	-155.981	-0.587	0.048
-273.384	52.754	0.346	0.432
-272.370	-14.788	0.348	0.291
-271.355	-77.561	0.572	0.257
-270.340	-72.338	0.076	0.037
-269.326	-200.000	-0.014	-0.171
-268.311	-77.289	-0.629	-0.284
-267.297	-98.974	-0.396	0.130
-266.282	-200.000	0.049	-0.401
-265.267	-150.174	0.472	-0.047
-264.253	32.891	-0.208	0.235
-263.238	-200.000	0.020	0.194
-262.224	-82.250	0.089	-0.037
-261.209	-37.830	0.174	0.120
-260.195	-46.034	0.417	0.267
-259.180	-51.461	0.359	0.218
-258.165	37.465	-0.129	-0.149
-257.151	730.692	-0.107	0.373
-256.136	80.832	-0.216	-0.304
-255.122	-200.000	0.064	-0.397
-254.107	-54.774	-0.358	-0.210
-253.092	552.060	-0.089	0.280
-252.078	-53.766	0.253	0.150
-251.063	-86.926	0.195	0.077
-250.049	61.590	-0.277	-0.359
-249.034	-59.556	0.520	-0.290
-248.019	441.136	0.041	-0.117
-247.005	27.615	-0.246	-0.270
-245.990	-77.861	-0.399	-0.179
-244.976	17.471	0.245	0.254
-243.961	-187.319	-0.223	-0.004
-242.946	60.462	0.262	0.338
-241.932	-76.021	0.255	-0.117
-240.917	-121.444	0.123	0.026
-239.903	-94.528	-0.217	0.076
-238.888	32.835	0.115	0.130
-237.873	800.000	0.084	0.432
-236.859	440.780	-0.026	0.074
-235.844	-87.901	0.521	-0.203
-234.830	-200.000	0.021	-0.198
-233.815	-77.606	0.573	-0.257
-232.800	-174.084	-0.245	-0.009
-231.786	-200.000	0.022	0.227
-230.771	800.000	0.066	0.344
-229.757	-75.799	-0.240	-0.110
-228.742	-143.116	-0.461	-0.057
-227.727	-34.620	0.064	0.046
-226.713	193.881	-0.141	0.278
-225.698	187.670	0.188	-0.366
-224.684	-200.000	-0.033	0.267
-223.669	-200.000	0.015	-0.211
-222.655	53.445	0.283	0.353
-221.640	-142.495	0.399	-0.050
-220.625	173.860	-0.280	-0.527
-219.611	-200.000	0.029	0.182
-218.596	-200.000	0.088	-0.553
-217.582	-163.996	-0.223	0.013
-216.567	63.869	-0.126	0.165
-215.552	-107.617	0.201	-0.057
-214.538	-69.576	0.372	0.184
-213.523	-73.164	-0.427	0.202
-212.509	-194.420	-0.334	-0.003
-211.494	414.039	0.068	0.189
-210.479	-170.162	0.230	0.010
-209.465	97.870	-0.123	0.185
-208.450	37.594	0.072	-0.083
-207.436	44.781	0.255	0.305
-206.421	31.099	0.123	0.137
-205.406	776.090	0.090	-0.320
-204.392	-200.000	0.061	0.455
-203.377	-200.000	-0.081	-0.523
-202.363	249.135	-0.244	-0.538
-201.348	698.549	-0.112	-0.385
-200.333	49.361	-0.198	0.242
-199.319	-126.601	-0.394	-0.075
-198.304	-135.262	0.178	0.027
-197.290	-142.835	0.104	0.013
-196.275	119.882	0.160	-0.258
-195.260	212.553	-0.159	-0.327
-194.246	170.210	-0.295	-0.549
-193.231	-141.315	0.541	-0.071
-192.217	-200.000	0.029	-0.262
-191.202	-50.642	-0.159	-0.097
-190.187	43.712	0.160	-0.190
-189.173	87.902	-0.164	0.236
-188.158	170.244	0.060	-0.112
-187.144	188.727	0.040	0.078
-186.129	-20.826	-0.174	0.139
-185.114	-3.416	0.335	0.303
-184.100	-113.841	-0.549	-0.138
-183.085	32.755	0.263	-0.296
-182.071	-24.563	0.214	-0.165
-181.056	-19.152	-0.296	0.238
-180.042	44.205	-0.196	-0.233
-179.027	-200.000	-0.006	-0.348
-178.012	-29.284	-0.220	0.164
-176.998	196.973	0.192	0.382
-175.983	-8.755	0.205	0.179
-174.969	800.000	0.011	0.044
-173.954	-53.881	-0.167	-0.098
-172.939	-130.317	-0.185	0.032
-171.925	18.758	0.055	-0.057
-170.910	-130.238	-0.204	-0.036
-169.896	-147.928	-0.332	0.035
-168.881	-62.873	-0.321	-0.172
-167.866	25.212	-0.125	0.134
-166.852	118.877	0.096	0.154
-165.837	-43.724	0.160	0.104
-164.823	-48.030	-0.451	0.282
-163.808	359.978	-0.077	-0.200
-162.793	-62.751	-0.354	0.190
-161.779	-100.011	-0.481	0.155
-160.764	267.582	-0.185	-0.422
-159.750	2.425	0.204	0.191
-158.735	-132.512	-0.246	-0.041
-157.720	322.218	0.237	0.588
-156.706	67.492	0.205	0.272
-155.691	-170.268	0.354	-0.016
-154.677	-81.913	-0.531	0.224
-153.662	800.000	0.064	-0.296
-152.647	-7.378	0.137	-0.121
-151.633	-89.396	0.224	-0.085
-150.618	9.139	0.166	0.163
-149.604	93.986	-0.138	-0.204
-148.589	-200.000	0.012	-0.273
-147.574	144.475	-0.104	-0.181
-146.560	-34.391	0.325	0.231
-145.545	800.000	-0.104	0.398
-144.531	201.237	-0.105	0.211
-143.516	192.990	-0.194	0.381
-142.502	-200.000	0.002	-0.112
-141.487	29.734	0.288	0.318
-140.472	-160.053	-0.379	-0.026
-139.458	-35.996	-0.119	0.084
-138.443	63.924	-0.099	-0.130
-137.429	-200.000	0.022	0.190
-136.414	-114.851	0.385	-0.094
-135.399	-129.884	-0.306	-0.054
-134.385	800.000	0.062	-0.225
-133.370	113.051	-0.063	-0.099
-132.356	-140.603	-0.150	-0.020
-131.341	-200.000	0.100	0.670
-130.326	-123.522	0.529	0.108
-129.312	800.000	-0.036	0.134
-128.297	-146.398	0.190	-0.021
-127.283	-148.260	0.501	0.053
-126.268	-114.901	0.481	-0.118
-125.253	117.329	-0.114	0.182
-124.239	800.000	0.079	-0.297
-123.224	-200.000	0.024	0.456
-122.210	-78.181	-0.157	0.070
-121.195	-138.335	0.389	-0.055
-120.180	313.789	-0.215	-0.526
-119.166	61.489	-0.149	0.192
-118.151	800.000	0.003	-0.010
-117.137	15.294	-0.129	-0.131
-116.122	-200.000	0.029	0.177
-115.107	245.893	0.161	0.352
-114.093	-110.384	0.376	0.101
-113.078	-21.402	0.089	-0.070
-112.064	-200.000	0.059	-0.534
-111.049	-73.174	0.377	0.178
-110.034	-112.817	0.302	-0.077
-109.020	-15.259	-0.213	0.176
-108.005	-140.298	-0.286	0.038
-106.991	-125.403	0.218	0.043
-105.976	-40.446	0.451	0.303
-104.962	-106.874	-0.254	-0.072
-103.947	265.067	0.203	0.460
-102.932	800.000	0.058	-0.263
-101.918	-143.588	-0.299	-0.036
-100.903	8.448	-0.159	-0.154
-99.889	-133.318	0.330	0.053
-98.874	86.554	0.080	0.114
-97.859	-61.210	0.256	0.139
-96.845	64.091	-0.084	-0.109
-95.830	-15.903	-0.067	-0.055
-94.816	-116.773	0.440	-0.104
-93.801	800.000	0.047	-0.171
-92.786	464.386	0.083	0.242
-91.772	-50.215	-0.272	-0.166
-90.757	-200.000	-0.015	0.194
-89.743	-60.423	-0.167	0.092
-88.728	197.540	-0.218	-0.432
-87.713	-91.715	0.347	-0.127
-86.699	-16.122	0.393	-0.323
-85.684	-129.969	-0.374	-0.066
-84.670	3.759	0.127	0.120
-83.655	-128.851	0.200	-0.036
-82.640	-200.000	-0.007	-0.078
-81.626	-23.041	-0.124	-0.097
-80.611	-93.615	0.301	-0.107
-79.597	-66.545	0.058	0.029
-78.582	-200.000	0.031	0.235
-77.567	-86.914	-0.318	0.125
-76.553	448.256	-0.030	0.086
-75.538	-140.575	-0.432	-0.057
-74.524	112.382	-0.314	0.492
-73.509	-33.789	-0.100	0.071
-72.494	-42.530	-0.034	0.022
-71.480	-109.884	0.587	-0.158
-70.465	-40.293	0.229	0.154
-69.451	-200.000	0.084	-0.599
-68.436	800.000	0.132	-0.500
-67.422	219.387	-0.200	0.416
-66.407	87.487	-0.191	-0.274
-65.392	73.083	-0.130	-0.175
-64.378	-74.679	0.385	0.178
-63.363	-68.760	0.477	0.238
-62.349	78.100	-0.139	-0.192
-61.334	35.275	-2.252	-2.553
-60.319	211.824	0.834	1.704
-59.305	235.181	-3.478	-7.447
-58.290	65.456	3.986	5.219
-57.276	379.072	3.793	10.082
-56.261	-200.000	22.950	320.759
-55.246	357.286	1298.335	3361.064
-54.232	52.939	2843.742	3517.807
-53.217	51.456	2662.071	3270.001
-52.203	31.958	2391.717	2663.029
-51.188	28.002	2058.174	2242.868
-50.173	24.712	1943.786	2079.732
-49.159	23.704	1932.115	2055.453
-48.144	23.143	1928.690	2045.202
-47.130	23.098	1925.587	2041.308
-46.115	23.065	1923.674	2038.815
-45.100	23.074	1922.678	2037.792
-44.086	23.102	1920.354	2035.565
-43.071	23.114	1918.902	2034.090
-42.057	22.976	1917.792	2031.233
-41.042	22.969	1915.840	2029.008
-40.027	23.082	1913.892	2028.168
-39.013	23.148	1912.769	2027.654
-37.998	23.095	1911.631	2025.759
-36.984	22.967	1911.080	2023.618
-35.969	22.949	1909.847	2022.026
-34.954	23.011	1907.859	2020.561
-33.940	23.136	1906.264	2020.218
-32.925	22.977	1905.812	2017.839
-31.911	23.057	1904.369	2017.152
-30.896	22.896	1903.355	2014.142
-29.881	22.928	1902.191	2013.200
-28.867	22.947	1899.939	2010.955
-27.852	22.932	1898.437	2009.117
-26.838	22.877	1896.740	2006.615
-25.823	22.992	1895.448	2006.477
-24.809	22.995	1893.998	2004.896
-23.794	22.897	1893.385	2003.046
-22.779	22.881	1891.864	2001.180
-21.765	22.944	1890.422	2000.295
-20.750	22.954	1888.629	1998.433
-19.736	22.836	1888.216	1996.577
-18.721	22.699	1887.431	1994.105
-17.706	22.858	1886.432	1994.776
-16.692	22.796	1884.854	1992.325
-15.677	22.745	1884.223	1991.005
-14.663	22.776	1882.495	1989.447
-13.648	22.788	1880.836	1987.745
-12.633	22.694	1880.021	1985.752
-11.619	22.768	1879.115	1985.549
-10.604	22.760	1877.033	1983.179
-9.590	22.757	1876.654	1982.665
-8.575	22.697	1875.369	1980.558
-7.560	22.851	1873.111	1979.830
-6.546	22.682	1872.896	1977.619
-5.531	22.674	1871.958	1976.461
-4.517	22.586	1870.876	1974.240
-3.502	22.716	1868.932	1973.579
-2.487	22.770	1868.373	1973.517
-1.473	22.851	1864.288	1970.031
-0.458	22.543	1846.775	1948.019
0.556	19.139	1992.564	2048.867
1.571	17.740	2196.373	2239.716
2.586	18.304	2237.032	2288.481
3.600	18.477	2238.049	2291.571
4.615	18.533	2237.293	2291.278
5.629	18.414	2236.072	2288.153
6.644	18.441	2233.339	2285.441
7.659	18.352	2231.334	2281.928
8.673	18.370	2230.300	2280.843
9.688	18.270	2238.773	2287.881
10.702	17.369	2318.926	2356.970
11.717	15.608	2381.848	2395.421
12.731	7.186	2361.525	2254.611
13.746	0.999	2345.628	2151.031
14.761	0.201	2341.743	2135.839
15.775	0.086	2340.135	2132.474
16.790	0.043	2338.708	2130.309
17.804	0.095	2337.063	2129.291
18.819	0.071	2336.467	2128.160
19.834	-0.007	2334.845	2125.320
20.848	-0.041	2333.820	2123.643
21.863	0.052	2332.049	2123.097
22.877	-0.009	2329.279	2119.465
23.892	0.009	2327.004	2117.392
24.907	0.045	2325.081	2115.903
25.921	0.002	2323.278	2113.397
26.936	-0.073	2322.273	2111.170
27.950	-0.003	2318.970	2108.905
28.965	0.013	2316.069	2106.231
29.980	-0.141	2315.259	2103.084
30.994	0.088	2313.076	2104.060
32.009	3.735	2323.091	2164.337
33.023	12.798	2349.764	2317.546
34.038	16.587	2356.440	2377.471
35.053	16.411	2352.028	2370.246
36.067	16.302	2348.922	2365.301
37.082	16.218	2346.798	2361.693
38.096	16.343	2345.993	2362.368
39.111	16.673	2344.115	2364.825
40.126	16.879	2342.207	2365.507
41.140	17.019	2341.721	2366.700
42.155	17.055	2339.950	2365.123
43.169	16.975	2337.956	2361.713
44.184	16.816	2333.652	2354.853
45.199	16.743	2332.336	2352.228
46.213	16.911	2331.175	2353.123
47.228	16.979	2331.191	2353.793
48.242	17.025	2328.654	2351.596
49.257	17.122	2327.132	2351.132
50.271	17.174	2324.639	2349.052
51.286	16.865	2320.875	2340.676
52.301	16.630	2318.165	2334.402
53.315	17.467	2322.141	2349.750
54.330	20.447	2330.819	2399.691
55.344	22.421	2332.050	2428.062
56.359	22.673	2329.075	2428.167
57.374	22.771	2329.244	2429.403
58.388	22.884	2326.116	2427.416
59.403	22.650	2321.721	2419.306
60.417	22.279	2317.953	2409.987
61.432	22.353	2316.733	2409.449
62.447	22.670	2315.604	2412.346
63.461	22.768	2313.807	2411.523
64.476	22.934	2312.612	2412.272
65.490	22.607	2309.868	2404.636
66.505	21.624	2306.742	2387.633
67.520	19.428	2297.497	2347.776
68.534	17.258	2287.828	2308.020
69.549	16.657	2284.693	2296.394
70.563	16.577	2281.415	2291.729
71.578	16.539	2279.897	2289.418
72.593	16.507	2279.004	2287.807
73.607	16.751	2277.735	2289.579
74.622	16.916	2274.672	2288.459
75.636	16.709	2272.001	2282.701
76.651	16.676	2269.198	2279.158
77.666	16.670	2267.346	2276.943
78.680	16.557	2265.282	2273.075
79.695	16.280	2263.417	2267.189
80.709	16.131	2261.948	2263.438
81.724	16.214	2259.089	2261.427
82.739	16.282	2257.790	2260.765
83.753	16.255	2255.066	2257.407
84.768	16.144	2253.358	2253.940
85.782	16.020	2252.237	2250.888
86.797	16.017	2249.249	2247.587
87.812	15.992	2248.533	2246.265
88.826	16.146	2246.354	2245.879
89.841	16.238	2242.838	2243.331
90.855	16.175	2241.492	2240.872
91.870	16.233	2240.756	2240.643
92.884	16.270	2238.556	2238.668
93.899	16.334	2237.626	2238.325
94.914	17.091	2241.255	2251.783
95.928	19.785	2249.828	2296.126
96.943	20.766	2246.288	2305.305
97.957	18.007	2235.428	2257.295
98.972	16.208	2229.419	2227.103
99.987	15.953	2226.277	2220.326
101.001	16.057	2223.653	2218.813
102.016	16.093	2221.250	2216.622
103.030	16.242	2218.790	2215.870
104.045	16.175	2216.444	2212.385
105.060	16.155	2215.366	2210.782
106.074	16.058	2213.786	2207.660
107.089	16.167	2211.823	2206.874
108.103	16.164	2210.757	2205.511
109.118	16.265	2209.391	2205.204
110.133	16.413	2206.848	2204.345
111.147	16.225	2204.993	2199.758
112.162	16.244	2204.059	2198.814
113.176	16.406	2202.715	2199.328
114.191	16.583	2201.115	2199.786
115.206	16.490	2199.498	2196.686
116.220	16.444	2196.499	2192.837
117.235	16.463	2195.139	2191.463
118.249	16.568	2193.130	2190.560
119.264	16.533	2190.586	2187.301
120.279	16.366	2190.413	2184.697
121.293	16.418	2189.424	2184.120
122.308	16.426	2187.396	2181.944
123.322	16.476	2185.251	2180.196
124.337	16.934	2187.543	2188.159
125.352	19.867	2196.247	2234.732
126.366	20.555	2194.284	2241.391
127.381	17.671	2182.397	2191.755
128.395	16.502	2177.219	2171.211
129.410	16.418	2174.146	2166.801
130.424	16.362	2172.638	2164.328
131.439	16.396	2171.096	2162.964
132.454	16.456	2169.505	2161.893
133.468	16.744	2168.271	2164.108
134.483	16.851	2166.428	2163.380
135.497	16.803	2165.831	2161.900
136.512	16.760	2163.205	2158.471
137.527	16.582	2160.851	2153.590
138.541	16.332	2159.002	2148.296
139.556	16.372	2158.230	2147.775
140.570	16.395	2156.179	2145.775
141.585	16.135	2154.865	2140.889
142.600	16.103	2153.467	2138.846
143.614	16.130	2150.918	2136.393
144.629	16.169	2149.003	2134.731
145.643	16.060	2147.511	2131.615
146.658	15.984	2145.998	2128.896
147.673	15.894	2143.824	2125.343
148.687	16.028	2142.570	2125.538
149.702	16.276	2142.052	2127.909
150.716	16.348	2141.023	2127.547
151.731	16.292	2139.566	2125.139
152.746	16.300	2139.245	2124.662
153.760	17.126	2142.556	2138.150
154.775	20.122	2149.144	2182.446
155.789	21.000	2147.726	2191.849
156.804	18.225	2136.854	2145.564
157.819	16.577	2128.775	2116.483
158.833	16.209	2125.936	2108.784
159.848	16.175	2124.073	2106.258
160.862	16.390	2122.768	2107.405
161.877	16.461	2121.826	2107.115
162.892	16.449	2121.843	2106.729
163.906	16.520	2120.670	2106.197
164.921	16.532	2117.922	2103.368
165.935	16.572	2114.648	2100.367
166.950	16.689	2114.570	2101.492
167.964	16.673	2111.867	2098.356
168.979	16.420	2110.496	2093.593
169.994	16.296	2108.323	2089.647
171.008	16.276	2106.822	2087.652
172.023	16.298	2105.589	2086.454
173.037	16.358	2104.378	2085.754
174.052	16.586	2102.732	2086.698
175.067	16.490	2101.074	2083.608
176.081	16.287	2099.634	2079.422
177.096	16.362	2098.476	2078.950
178.110	16.526	2096.485	2078.762
179.125	16.548	2096.298	2078.601
180.140	16.504	2094.491	2076.019
181.154	16.565	2093.770	2075.802
182.169	16.572	2093.193	2075.067
183.183	17.536	2095.200	2088.700
184.198	20.605	2103.474	2134.620
185.213	21.154	2100.695	2138.318
186.227	18.207	2090.149	2091.166
187.242	16.919	2085.389	2070.350
188.256	16.757	2082.756	2065.510
189.271	16.564	2081.323	2061.475
190.286	16.476	2079.756	2058.603
191.300	16.349	2077.776	2054.840
192.315	16.414	2076.282	2053.912
193.329	16.707	2075.007	2055.975
194.344	16.983	2074.519	2058.622
195.359	16.979	2073.207	2057.022
196.373	16.704	2070.514	2050.749
197.388	16.559	2067.381	2045.645
198.402	16.334	2065.170	2040.479
199.417	16.196	2063.257	2036.667
200.432	16.364	2061.842	2037.071
201.446	16.346	2060.648	2035.430
202.461	16.253	2058.118	2031.561
203.475	16.217	2056.307	2029.093
204.490	16.266	2054.133	2027.298
205.504	16.131	2053.605	2024.903
206.519	16.281	2051.161	2024.063
207.534	16.391	2049.555	2023.552
208.548	16.328	2048.184	2021.197
209.563	16.409	2047.592	2021.349
210.577	16.549	2046.411	2021.620
211.592	16.618	2046.115	2021.918
212.607	17.895	2050.799	2041.670
213.621	21.404	2058.839	2091.689
214.636	20.835	2052.588	2078.271
215.650	17.546	2041.956	2027.949
216.665	16.556	2038.048	2012.004
217.680	16.516	2036.739	2009.986
218.694	16.318	2034.720	2005.392
219.709	16.264	2033.673	2003.478
220.723	16.345	2032.648	2003.196
221.738	16.640	2030.418	2004.264
222.753	16.776	2029.691	2004.930
223.767	16.769	2026.896	2001.848
224.782	16.665	2026.057	1999.537
225.796	16.615	2024.722	1997.390
226.811	16.467	2022.765	1993.469
227.826	16.529	2021.114	1992.338
228.840	16.534	2019.281	1990.342
229.855	16.433	2018.211	1987.866
230.869	16.578	2016.277	1987.435
231.884	16.559	2013.812	1984.542
232.899	16.613	2013.952	1985.079
233.913	16.608	2012.204	1983.059
234.928	16.503	2011.134	1980.529
235.942	16.496	2009.492	1978.593
236.957	16.445	2008.045	1976.327
237.972	16.457	2007.145	1975.348
238.986	16.324	2006.227	1972.642
240.001	16.324	2004.244	1970.459
241.015	16.654	2002.814	1972.688
242.030	17.566	2005.829	1986.110
243.045	20.289	2012.017	2023.973
244.059	20.608	2008.354	2023.776
245.074	17.685	2000.058	1981.084
246.088	16.849	1995.407	1966.489
247.103	17.034	1993.497	1966.523
248.117	16.979	1991.896	1964.077
249.132	16.753	1989.463	1958.815
250.147	16.640	1987.107	1954.942
251.161	16.540	1986.651	1953.096
252.176	16.870	1985.987	1956.044
253.190	17.164	1983.331	1956.600
254.205	17.274	1982.931	1957.242
255.220	17.069	1981.849	1953.565
256.234	16.996	1980.106	1950.769
257.249	16.902	1977.985	1947.362
258.263	16.843	1976.904	1945.390
259.278	16.872	1975.728	1944.325
260.293	16.633	1973.745	1939.393
261.307	16.433	1971.157	1934.314
262.322	16.414	1970.045	1932.779
263.336	16.360	1968.597	1930.507
264.351	16.289	1966.139	1927.049
265.366	16.267	1964.656	1925.114
266.380	16.291	1964.267	1924.773
267.395	16.280	1962.529	1922.716
268.409	16.383	1961.080	1922.241
269.424	16.257	1959.523	1919.051
270.439	16.217	1959.665	1918.502
271.453	17.449	1961.838	1934.479
272.468	20.563	1967.863	1975.820
273.482	20.732	1963.075	1972.706
274.497	17.613	1953.676	1927.603
275.512	16.403	1948.764	1908.794
276.526	16.256	1947.267	1905.441
277.541	16.233	1944.586	1902.321
278.555	15.992	1943.595	1898.401
279.570	16.140	1940.885	1897.198
280.585	16.266	1939.937	1897.464
281.599	16.340	1939.219	1897.378
282.614	16.611	1938.474	1899.473
283.628	16.932	1938.740	1903.133
284.643	16.992	1938.215	1903.063
285.657	17.088	1937.315	1903.035
286.672	17.243	1935.815	1903.078
287.687	17.113	1933.214	1898.836
288.701	16.959	1932.733	1896.403
289.716	16.858	1930.797	1893.139
290.730	16.979	1930.171	1893.660
291.745	17.086	1927.926	1892.433
292.760	17.101	1926.626	1891.089
293.774	16.800	1925.834	1886.716
294.789	16.812	1924.095	1884.926
295.803	16.561	1921.730	1879.582
296.818	16.586	1920.303	1878.241
297.833	16.605	1918.856	1876.811
298.847	16.624	1917.929	1875.893
299.862	16.592	1916.034	1873.454
300.876	17.548	1918.094	1885.886
301.891	20.566	1925.179	1926.293
302.906	21.091	1921.582	1928.296
303.920	17.929	1913.016	1884.445
304.935	16.760	1908.767	1867.092
305.949	16.572	1906.656	1862.725
306.964	16.524	1904.623	1859.982
307.979	16.701	1903.233	1860.357
308.993	16.993	1902.736	1862.870
310.008	17.325	1902.381	1865.972
311.022	17.285	1900.501	1863.461
312.037	17.034	1898.294	1858.305
313.052	17.074	1896.245	1856.526
314.066	17.075	1895.505	1855.587
315.081	17.137	1894.517	1855.080
316.095	17.034	1892.868	1852.109
317.110	16.732	1891.815	1847.542
318.125	16.597	1889.575	1843.658
319.139	16.598	1887.580	1841.501
320.154	16.702	1886.623	1841.484
321.168	16.684	1884.796	1839.286
322.183	16.442	1882.758	1834.437
323.197	16.305	1880.771	1830.788
324.212	16.214	1879.102	1827.957
325.227	15.927	1877.823	1823.370
326.241	15.917	1876.321	1821.578
327.256	16.121	1874.567	1821.876
328.270	15.998	1874.354	1820.116
329.285	16.044	1874.595	1820.633
330.300	17.188	1879.121	1837.251
331.314	20.922	1885.026	1883.449
332.329	20.701	1879.791	1875.594
333.343	17.294	1870.264	1829.083
334.358	16.202	1865.877	1812.790
335.373	16.042	1863.523	1808.561
336.387	15.822	1861.313	1803.822
337.402	15.798	1860.499	1802.566
338.416	15.995	1859.268	1803.274
339.431	16.270	1857.853	1804.635
340.446	16.114	1856.655	1801.583
341.460	16.413	1856.093	1804.032
342.475	16.817	1855.277	1807.354
343.489	16.911	1854.057	1806.961
344.504	16.768	1853.604	1804.768
345.519	16.885	1851.790	1804.037
346.533	17.074	1850.535	1804.622
347.548	17.113	1849.705	1804.011
348.562	16.930	1847.971	1800.153
349.577	17.003	1847.790	1800.536
350.592	17.300	1846.370	1802.100
351.606	17.328	1844.883	1800.731
352.621	17.377	1842.495	1798.707
353.635	16.990	1841.590	1793.502
354.650	16.903	1839.538	1790.360
355.665	16.656	1837.662	1785.702
356.679	16.573	1835.483	1782.495
357.694	16.548	1833.833	1780.411
358.708	16.478	1832.515	1778.181
359.723	17.739	1838.025	1796.672
360.738	21.011	1842.711	1835.725
361.752	20.277	1836.881	1821.951
362.767	17.310	1829.395	1783.082
363.781	16.671	1825.631	1772.474
364.796	16.516	1824.891	1769.912
365.810	16.349	1823.142	1766.250
366.825	16.399	1822.282	1765.728
367.840	16.640	1821.789	1767.571
368.854	16.985	1820.526	1769.756
369.869	16.682	1818.529	1764.428
370.883	16.618	1817.075	1762.135
371.898	16.493	1816.186	1759.754
372.913	16.182	1814.672	1754.821
373.927	16.427	1813.150	1755.702
374.942	16.574	1812.803	1756.688
375.956	16.537	1812.057	1755.364
376.971	16.601	1808.652	1752.530
377.986	16.635	1806.512	1750.602
379.000	16.516	1805.813	1748.477
380.015	16.589	1804.042	1747.305
381.029	16.377	1801.937	1742.863
382.044	16.007	1799.895	1736.846
383.059	15.989	1798.633	1735.230
384.073	16.116	1797.907	1735.641
385.088	16.184	1796.347	1734.622
386.102	16.052	1794.204	1730.988
387.117	16.026	1792.826	1729.181
388.132	16.015	1793.940	1729.935
389.146	17.197	1798.116	1745.978
390.161	20.801	1803.055	1787.817
391.175	20.590	1795.480	1777.926
392.190	17.319	1786.356	1735.179
393.205	16.583	1783.706	1724.863
394.219	16.375	1782.025	1720.898
395.234	16.234	1780.685	1717.957
396.248	16.241	1779.509	1716.686
397.263	16.104	1776.536	1712.219
398.278	16.162	1775.154	1711.266
399.292	16.150	1774.759	1710.557
400.307	16.282	1773.916	1710.884
401.321	16.328	1773.560	1710.812
402.336	16.599	1772.283	1712.129
403.350	16.554	1770.910	1710.145
404.365	16.671	1769.826	1710.081
405.380	16.961	1769.049	1712.066
406.394	17.084	1767.754	1711.856
407.409	17.169	1766.748	1711.535
408.423	17.193	1765.659	1710.520
409.438	17.185	1763.178	1707.831
410.453	16.873	1762.602	1703.916
411.467	17.085	1762.213	1705.477
412.482	16.825	1761.014	1701.492
413.496	16.584	1758.117	1696.061
414.511	16.603	1755.388	1693.417
415.526	16.364	1753.633	1689.111
416.540	16.292	1752.938	1687.517
417.555	16.332	1752.047	1686.858
418.569	16.746	1752.523	1691.275
419.584	16.821	1751.860	1691.183
420.599	16.782	1750.661	1689.431
421.613	16.516	1750.145	1686.070
422.628	16.613	1747.954	1684.730
423.642	16.426	1746.157	1680.921
424.657	16.321	1744.716	1678.288
425.672	16.613	1743.192	1679.533
426.686	16.702	1742.247	1679.311
427.701	16.667	1740.617	1677.188
428.715	16.753	1739.075	1676.359
429.730	16.914	1738.965	1677.647
430.745	17.008	1737.099	1676.587
431.759	16.908	1738.354	1676.599
432.774	17.396	1738.276	1681.175
433.788	17.885	1738.332	1685.879
434.803	18.216	1737.897	1688.538
435.818	18.106	1737.852	1687.208
436.832	18.098	1736.152	1685.270
437.847	17.183	1728.126	1668.249
438.861	9.417	1708.907	1573.426
439.876	1.612	1694.270	1483.480
440.890	0.291	1691.088	1467.588
441.905	0.218	1690.183	1465.921
442.920	0.200	1688.721	1464.298
443.934	0.242	1686.471	1462.581
444.949	0.189	1685.164	1460.757
445.963	0.070	1684.782	1459.094
446.978	0.130	1684.353	1459.130
447.993	0.177	1683.002	1458.240
449.007	0.183	1680.275	1455.759
450.022	0.185	1678.159	1453.779
451.036	0.127	1677.446	1452.420
452.051	0.962	1682.015	1464.321
453.066	8.478	1698.637	1552.186
454.080	16.266	1710.686	1639.308
455.095	18.002	1713.272	1658.542
456.109	18.685	1713.256	1664.991
457.124	18.769	1712.242	1664.626
458.139	19.060	1711.645	1666.680
459.153	18.908	1711.013	1664.389
460.168	19.033	1709.459	1663.895
461.182	19.042	1707.500	1661.871
462.197	18.888	1705.987	1658.704
463.212	18.735	1704.154	1655.243
464.226	18.713	1703.438	1654.135
465.241	18.906	1702.696	1655.091
466.255	19.035	1701.756	1655.218
467.270	19.142	1699.896	1654.248
468.285	18.904	1698.471	1650.370
469.299	18.837	1696.436	1647.547
470.314	18.881	1695.142	1646.515
471.328	18.889	1694.317	1645.594
472.343	18.937	1692.618	1644.212
473.358	18.975	1691.910	1643.691
474.372	18.934	1691.123	1642.330
475.387	18.777	1689.613	1639.168
476.401	18.741	1687.880	1636.939
477.416	18.749	1686.687	1635.671
478.430	18.764	1685.136	1634.109
479.445	18.682	1684.267	1632.292
480.460	18.454	1683.009	1628.696
481.474	18.669	1682.243	1629.807
482.489	19.018	1680.950	1631.688
483.503	19.061	1679.617	1630.613
484.518	19.089	1678.195	1629.302
485.533	19.126	1677.188	1628.484
486.547	19.106	1675.271	1626.233
487.562	19.236	1674.234	1626.268
488.576	19.255	1672.908	1624.967
489.591	19.204	1672.223	1623.620
490.606	18.964	1670.323	1619.314
491.620	19.071	1668.757	1618.609
492.635	19.211	1667.672	1618.691
493.649	19.313	1666.365	1618.186
494.664	19.187	1664.780	1615.268
495.679	18.781	1663.067	1609.589
496.693	18.874	1661.421	1608.680
497.708	19.052	1661.565	1610.301
498.722	19.223	1660.739	1610.912
499.737	19.335	1658.384	1609.485
500.752	19.200	1657.096	1606.779
501.766	18.957	1655.790	1603.046
502.781	19.105	1654.423	1602.916
503.795	19.141	1652.498	1601.195
504.810	19.047	1652.503	1600.130
505.825	19.232	1652.078	1601.257
506.839	19.349	1650.460	1600.585
507.854	19.185	1648.698	1597.155
508.868	19.298	1647.854	1597.203
509.883	19.245	1646.866	1595.554
510.898	19.378	1645.555	1595.337
511.912	19.316	1644.132	1593.188
512.927	19.036	1642.327	1588.650
513.941	19.165	1640.429	1587.818
514.956	19.081	1638.582	1585.059
515.971	19.085	1636.605	1582.995
516.985	19.054	1636.771	1582.681
518.000	19.200	1636.345	1583.427
519.014	19.293	1635.425	1583.205
520.029	19.345	1634.320	1582.431
521.043	19.287	1632.780	1580.215
522.058	19.412	1630.910	1579.364
523.073	19.389	1630.626	1578.692
524.087	19.564	1630.821	1580.298
525.102	19.617	1628.726	1578.570
526.116	19.331	1626.492	1573.594
527.131	19.287	1626.142	1572.663
528.146	19.583	1624.782	1573.867
529.160	19.551	1624.104	1572.728
530.175	19.559	1622.973	1571.516
531.189	19.514	1622.666	1570.622
532.204	19.715	1620.244	1569.922
533.219	19.454	1618.509	1565.679
534.233	19.247	1617.326	1562.453
535.248	19.546	1616.715	1564.405
536.262	19.757	1616.275	1565.716
537.277	19.579	1615.205	1562.869
538.292	19.401	1612.712	1558.653
539.306	19.484	1611.201	1557.762
540.321	19.547	1609.509	1556.507
541.335	19.368	1608.542	1553.769
542.350	19.515	1607.062	1553.475
543.365	19.696	1605.793	1553.706
544.379	19.683	1604.905	1552.541
545.394	19.608	1603.840	1550.651
546.408	19.520	1602.192	1548.071
547.423	19.300	1600.096	1543.881
548.438	19.116	1599.751	1541.712
549.452	19.344	1599.128	1542.973
550.467	19.451	1597.429	1542.110
551.481	19.630	1595.719	1541.884
552.496	19.649	1596.211	1542.341
553.511	19.727	1595.401	1542.077
554.525	19.821	1594.214	1541.587
555.540	19.781	1593.712	1540.562
556.554	19.926	1591.891	1539.910
557.569	19.761	1590.834	1537.227
558.583	19.618	1589.380	1534.368
559.598	19.767	1587.894	1534.074
560.613	19.657	1587.570	1532.594
561.627	19.695	1585.724	1530.972
562.642	19.857	1584.630	1531.174
563.656	20.014	1583.065	1530.868
564.671	19.936	1582.142	1529.103
565.686	19.950	1580.509	1527.463
566.700	19.641	1579.874	1523.928
567.715	19.608	1577.335	1521.008
568.729	19.536	1575.260	1518.189
569.744	19.346	1573.984	1515.103
570.759	19.251	1573.356	1513.474
571.773	19.575	1572.022	1514.868
572.788	19.667	1570.775	1514.293
573.802	19.727	1569.956	1513.848
574.817	19.890	1568.447	1513.649
575.832	20.019	1568.240	1514.404
576.846	19.993	1566.716	1512.519
577.861	19.757	1566.047	1509.622
578.875	19.906	1564.995	1509.737
579.890	20.077	1564.381	1510.457
580.905	20.083	1562.952	1508.954
581.919	20.020	1563.020	1508.282
582.934	20.243	1561.790	1508.869
583.948	20.271	1560.330	1507.522
584.963	19.990	1559.029	1503.628
585.978	19.736	1557.813	1500.062
586.992	20.130	1556.770	1502.313
588.007	20.233	1555.717	1502.012
589.021	19.841	1553.695	1496.470
590.036	19.508	1551.210	1491.011
591.051	19.627	1550.806	1491.475
592.065	20.018	1549.337	1493.272
593.080	19.994	1548.598	1492.173
594.094	20.077	1546.656	1490.844
595.109	19.851	1544.158	1486.307
596.123	19.557	1543.554	1483.005
597.138	19.838	1543.493	1485.196
598.153	19.989	1541.829	1484.723
599.167	20.091	1540.124	1483.779
600.182	20.009	1540.027	1482.806
601.196	20.095	1539.363	1482.727
602.211	19.994	1538.405	1480.757
603.226	20.166	1537.497	1481.178
604.240	20.276	1535.907	1480.414
605.255	20.441	1534.626	1480.415
606.269	20.436	1533.905	1479.503
607.284	20.323	1532.888	1477.376
608.299	20.403	1530.563	1475.641
609.313	20.114	1529.765	1472.232
610.328	20.262	1528.055	1471.670
611.342	20.286	1527.555	1471.217
612.357	20.428	1527.124	1471.832
613.372	20.316	1526.053	1469.671
614.386	20.447	1524.525	1469.142
615.401	20.446	1523.862	1468.321
616.415	20.512	1522.883	1467.756
617.430	20.258	1522.667	1465.221
618.445	20.499	1521.318	1465.789
619.459	20.339	1519.390	1462.404
620.474	20.059	1518.310	1458.816
621.488	19.619	1516.693	1453.367
622.503	19.558	1514.335	1450.416
623.518	19.800	1514.845	1452.776
624.532	20.113	1514.311	1454.733
625.547	20.305	1513.142	1455.051
626.561	20.651	1512.743	1457.412
627.576	20.601	1511.268	1455.392
628.591	20.207	1508.869	1449.600
629.605	20.050	1506.596	1445.923
630.620	19.807	1505.667	1442.827
631.634	19.534	1504.600	1439.341
632.649	19.898	1503.511	1441.176
633.663	19.981	1503.179	1441.382
634.678	20.387	1502.678	1444.125
635.693	20.587	1501.362	1444.354
636.707	20.597	1500.672	1443.601
637.722	20.751	1499.601	1443.677
638.736	20.823	1498.130	1442.690
639.751	20.711	1497.073	1440.570
640.766	20.552	1496.203	1438.235
641.780	20.654	1494.847	1437.604
642.795	20.607	1494.112	1436.339
643.809	20.606	1493.491	1435.559
644.824	20.656	1491.727	1434.108
645.839	20.618	1490.937	1432.861
646.853	20.608	1489.717	1431.437
647.868	20.613	1488.447	1430.084
648.882	20.535	1487.142	1428.013
649.897	20.557	1485.225	1426.190
650.912	20.500	1484.146	1424.512
651.926	20.469	1482.777	1422.769
652.941	20.058	1481.421	1417.918
653.955	19.912	1479.156	1414.384
654.970	19.863	1476.561	1411.328
655.985	19.790	1476.288	1410.303
656.999	19.922	1475.631	1410.588
658.014	20.017	1474.575	1410.189
659.028	20.013	1474.470	1409.882
660.043	20.325	1473.655	1411.486
661.058	20.523	1471.905	1411.262
662.072	20.513	1471.153	1410.284
663.087	20.607	1470.459	1410.216
664.101	20.449	1469.868	1408.195
665.116	20.701	1467.933	1408.221
666.131	20.677	1467.304	1407.256
667.145	20.629	1466.544	1405.970
668.160	20.870	1465.457	1406.715
669.174	21.051	1463.554	1406.184
670.189	20.984	1463.056	1405.000
671.204	20.694	1462.181	1401.639
672.218	20.858	1461.068	1401.734
673.233	20.907	1459.600	1400.554
674.247	21.089	1458.805	1401.090
675.262	21.141	1458.042	1400.609
676.276	21.092	1456.819	1398.875
677.291	21.049	1455.231	1396.835
678.306	20.772	1454.254	1393.504
679.320	20.694	1453.464	1391.950
680.335	20.877	1453.173	1392.973
681.349	20.842	1452.660	1392.039
682.364	21.003	1451.000	1391.571
683.379	20.957	1449.866	1389.950
684.393	20.946	1448.586	1388.468
685.408	20.905	1447.735	1387.157
686.422	20.864	1446.596	1385.574
687.437	20.951	1446.459	1385.965
688.452	21.023	1445.784	1385.734
689.466	21.111	1442.779	1383.388
690.481	20.920	1441.016	1380.013
691.495	20.600	1439.739	1376.080
692.510	20.037	1438.332	1370.097
693.525	19.844	1436.593	1366.742
694.539	20.113	1436.330	1368.466
695.554	20.657	1436.554	1372.824
696.568	20.925	1436.771	1374.997
697.583	21.082	1435.400	1374.763
698.598	21.108	1434.652	1374.089
699.612	21.152	1432.925	1372.616
700.627	21.259	1431.733	1372.157
701.641	21.067	1430.477	1369.271
702.656	21.266	1429.391	1369.639
703.671	21.277	1429.807	1369.964
704.685	21.262	1428.704	1368.622
705.700	21.233	1427.389	1366.971
706.714	21.136	1425.164	1363.916
707.729	20.776	1423.222	1359.070
708.744	20.816	1422.030	1358.078
709.758	20.749	1420.856	1356.270
710.773	20.341	1420.153	1352.245
711.787	20.096	1418.960	1349.033
712.802	20.302	1417.402	1348.993
713.816	20.740	1417.510	1352.359
714.831	20.987	1416.077	1352.760
715.846	21.008	1415.230	1351.948
716.860	21.016	1414.508	1351.162
717.875	21.139	1413.111	1350.622
718.889	21.168	1411.281	1348.938
719.904	21.086	1410.718	1347.596
720.919	21.295	1409.984	1348.361
721.933	21.288	1408.895	1347.102
722.948	21.327	1408.357	1346.725
723.962	21.300	1408.281	1346.285
724.977	21.464	1406.381	1345.571
725.992	21.404	1404.480	1343.132
727.006	21.359	1403.663	1341.843
728.021	21.378	1402.262	1340.492
729.035	21.356	1401.115	1339.064
730.050	21.361	1400.415	1338.276
731.065	21.428	1399.075	1337.343
732.079	21.412	1398.412	1336.432
733.094	21.359	1397.606	1335.091
734.108	21.341	1395.483	1332.769
735.123	21.473	1393.632	1331.851
736.138	21.352	1393.511	1330.649
737.152	21.318	1393.523	1330.238
738.167	21.486	1392.359	1330.258
739.181	21.454	1391.463	1328.997
740.196	21.529	1390.346	1328.343
741.211	21.366	1389.983	1326.590
742.225	21.262	1388.687	1324.402
743.240	21.372	1386.999	1323.472
744.254	21.385	1385.722	1322.194
745.269	21.322	1384.912	1320.783
746.284	21.216	1384.083	1319.030
747.298	21.092	1382.475	1316.403
748.313	20.946	1380.887	1313.625
749.327	20.458	1378.796	1307.783
750.342	20.142	1377.789	1304.283
751.356	19.909	1376.556	1301.204
752.371	20.201	1376.320	1303.032
753.386	20.948	1375.584	1307.815
754.400	21.239	1375.549	1309.813
755.415	21.532	1374.183	1310.564
756.429	21.535	1373.453	1309.734
757.444	21.492	1372.397	1308.250
758.459	21.541	1371.764	1307.853
759.473	21.671	1370.684	1307.645
760.488	21.672	1369.527	1306.394
761.502	21.671	1368.581	1305.328
762.517	21.543	1367.683	1303.353
763.532	21.220	1365.397	1298.606
764.546	21.140	1363.670	1296.211
765.561	20.791	1362.593	1292.432
766.575	20.540	1361.068	1288.957
767.590	20.429	1359.931	1286.899
768.605	20.665	1359.269	1287.877
769.619	21.151	1358.125	1290.246
770.634	21.247	1357.748	1290.449
771.648	21.604	1356.949	1292.187
772.663	21.634	1356.815	1292.127
773.678	21.753	1355.956	1292.034
774.692	21.681	1355.504	1290.917
775.707	21.571	1355.054	1289.518
776.721	21.605	1354.143	1288.747
777.736	21.670	1352.158	1287.187
778.751	21.721	1351.654	1286.929
779.765	21.627	1350.637	1285.113
780.780	21.546	1350.253	1283.993
781.794	21.694	1348.488	1283.249
782.809	21.482	1347.753	1280.842
783.824	21.356	1346.786	1278.837
784.838	20.961	1344.917	1274.008
785.853	20.406	1343.202	1268.163
786.867	20.569	1343.047	1269.061
787.882	20.951	1341.899	1270.625
788.897	21.218	1341.406	1271.956
789.911	21.264	1340.823	1271.590
790.926	21.332	1339.904	1271.064
791.940	21.300	1338.718	1269.549
792.955	21.539	1337.395	1269.888
793.969	21.649	1336.554	1269.738
794.984	21.679	1336.284	1269.552
795.999	21.793	1335.231	1269.226
797.013	21.832	1332.519	1266.781
798.028	21.842	1330.772	1265.042
799.042	21.733	1330.916	1264.233
800.057	21.921	1330.065	1264.635
801.072	21.710	1329.142	1262.084
802.086	21.774	1328.159	1261.462
803.101	21.796	1326.736	1260.116
804.115	21.767	1326.095	1259.146
805.130	21.872	1325.135	1258.847
806.145	21.759	1324.148	1256.941
807.159	21.830	1322.155	1255.411
808.174	21.560	1320.727	1251.965
809.188	21.497	1319.287	1249.995
810.203	21.367	1317.656	1247.369
811.218	21.089	1316.112	1243.764
812.232	20.902	1313.977	1240.261
813.247	20.696	1313.443	1238.133
814.261	21.005	1314.035	1240.753
815.276	21.423	1313.274	1242.873
816.291	21.553	1312.682	1243.094
817.305	21.599	1312.128	1242.749
818.320	21.789	1310.443	1242.358
819.334	21.829	1308.684	1240.826
820.349	21.824	1307.801	1239.804
821.364	21.766	1307.007	1238.489
822.378	21.814	1305.213	1236.987
823.393	21.914	1303.483	1235.902
824.407	21.782	1303.158	1234.511
825.422	21.751	1302.387	1233.420
826.437	21.617	1301.166	1231.169
827.451	21.495	1298.775	1227.894
828.466	20.925	1296.493	1221.577
829.480	20.700	1294.979	1218.421
830.495	20.805	1294.072	1218.162
831.509	21.301	1293.519	1220.979
832.524	21.725	1292.957	1223.274
833.539	21.621	1292.332	1221.811
834.553	21.740	1290.932	1221.172
835.568	21.772	1289.526	1219.923
836.582	21.906	1289.433	1220.626
837.597	21.920	1288.036	1219.257
838.612	21.907	1286.017	1217.105
839.626	21.838	1284.853	1215.382
840.641	21.530	1283.686	1211.983
841.655	21.197	1282.635	1208.529
842.670	20.824	1280.509	1203.796
843.685	20.742	1279.096	1201.751
844.699	21.092	1278.679	1203.643
845.714	21.509	1278.536	1206.253
846.728	21.665	1277.788	1206.482
847.743	21.830	1276.474	1206.239
848.758	22.036	1275.402	1206.506
849.772	21.999	1275.041	1205.763
850.787	21.906	1273.485	1203.508
851.801	21.955	1272.130	1202.421
852.816	21.809	1271.014	1200.219
853.831	21.722	1269.362	1197.916
854.845	21.737	1267.971	1196.564
855.860	21.589	1266.327	1193.851
856.874	21.350	1264.911	1190.743
857.889	21.307	1262.935	1188.446
858.904	20.789	1261.300	1183.226
859.918	20.649	1259.322	1180.271
860.933	20.572	1258.213	1178.566
861.947	20.787	1258.116	1179.799
862.962	21.125	1257.447	1181.334
863.977	21.291	1255.951	1180.912
864.991	21.470	1256.103	1182.128
866.006	21.541	1256.412	1182.760
867.020	21.784	1254.936	1182.879
868.035	21.990	1253.301	1182.592
869.049	21.939	1253.018	1181.837
870.064	22.007	1251.757	1180.964
871.079	21.898	1251.391	1179.743
872.093	21.886	1250.982	1179.138
873.108	21.871	1249.555	1177.551
874.122	21.544	1247.819	1173.566
875.137	21.346	1246.690	1171.030
876.152	21.251	1245.370	1169.012
877.166	21.359	1243.695	1168.029
878.181	21.581	1243.306	1169.009
879.195	21.820	1243.212	1170.385
880.210	21.856	1242.910	1170.204
881.225	21.873	1241.805	1169.137
882.239	22.016	1240.318	1168.555
883.254	22.013	1239.262	1167.397
884.268	22.175	1238.552	1167.674
885.283	21.972	1237.266	1164.968
886.298	22.051	1235.843	1164.013
887.312	21.942	1235.003	1162.355
888.327	21.990	1233.457	1161.081
889.341	21.913	1232.083	1159.140
890.356	21.772	1231.763	1157.765
891.371	21.855	1231.217	1157.663
892.385	21.782	1230.706	1156.559
893.400	21.625	1229.786	1154.515
894.414	21.588	1227.633	1152.114
895.429	21.256	1225.461	1147.745
896.444	20.660	1223.197	1141.558
897.458	20.240	1221.938	1137.477
898.473	20.773	1221.759	1140.681
899.487	21.251	1221.482	1143.433
900.502	21.543	1221.571	1145.302
901.517	21.764	1220.049	1145.187
902.531	21.882	1219.224	1145.055
903.546	21.891	1219.167	1144.921
904.560	21.824	1219.352	1144.520
905.575	21.954	1217.752	1143.732
906.589	21.954	1215.998	1141.945
907.604	21.911	1215.370	1140.940
