DTS Sentinel unit serial number:	SN409020Multiplexer serial number:	ORYXHardware model number:	OX4-SRSoftware version number:	ORYX F/W v3.00 Oryx Data Collector v3.7.2.0data status	okinstallation	HaddamTimeLapsedifferential loss correction	single-endedforward channel	channel 3reverse channel	N/Adate	2011/06/22time	02:26:17forward acquisition time	30.00reverse acquisition time	0.00gamma	498.7831k internal	0.1751k external	0.1751temperature offset calibration	1.0074default loss term (dB/km)	0.3790temperature slope calibration	1.3530multiplexer offset coefficient	1.0000multiplexer slope coefficient	1.0000fibre end	0.00T internal ref (°C)	22.37T ext. ref 1 (°C)	17.52T ext. ref 2 (°C)	0.02length (m)	temperature (°C)	Stokes	anti-Stokes-747.200	417.637	-0.072	-0.204
-746.185	480.925	0.157	0.476
-745.171	800.000	-0.033	-0.155
-744.156	-177.906	-0.446	-0.014
-743.142	-107.052	-0.487	-0.142
-742.127	-148.683	0.174	-0.019
-741.112	-111.112	0.556	0.150
-740.098	121.283	-0.050	-0.083
-739.083	216.636	-0.136	0.288
-738.069	-200.000	0.046	0.308
-737.054	-118.951	0.256	-0.059
-736.039	30.238	-0.108	-0.123
-735.025	-89.738	-0.216	0.083
-734.010	-3.068	-0.080	-0.074
-732.996	-139.339	-0.206	0.029
-731.981	247.411	-0.070	-0.157
-730.966	-76.297	0.304	0.142
-729.952	23.400	0.387	-0.422
-728.937	68.110	0.208	0.283
-727.923	-110.995	0.668	-0.181
-726.908	113.266	-0.069	-0.112
-725.894	-92.369	0.230	0.086
-724.879	-147.031	-0.419	0.047
-723.864	-149.564	0.328	0.034
-722.850	526.160	-0.060	0.187
-721.835	168.777	-0.127	0.240
-720.821	-104.910	-0.519	-0.157
-719.806	-109.611	0.354	0.098
-718.791	-94.126	0.262	0.095
-717.777	61.118	0.248	0.327
-716.762	-127.107	-0.363	0.070
-715.748	105.226	0.073	-0.115
-714.733	307.957	-0.221	-0.549
-713.718	-65.258	-0.181	0.096
-712.704	39.713	0.305	0.363
-711.689	-17.590	-0.311	0.259
-710.675	800.000	-0.068	0.349
-709.660	800.000	0.055	-0.257
-708.645	-68.022	-0.122	-0.063
-707.631	-130.566	0.536	0.095
-706.616	-200.000	-0.033	0.493
-705.602	-133.092	-0.231	-0.038
-704.587	399.830	0.053	0.149
-703.572	-200.000	-0.002	-0.254
-702.558	258.459	0.077	-0.176
-701.543	-126.983	0.171	0.033
-700.529	247.028	0.275	0.619
-699.514	59.930	0.309	-0.405
-698.499	91.560	-0.177	0.265
-697.485	-96.929	-0.511	-0.176
-696.470	-98.678	-0.465	-0.156
-695.456	-98.369	-0.352	-0.119
-694.441	-200.000	0.028	0.210
-693.426	-67.173	-0.334	0.174
-692.412	624.412	-0.038	-0.127
-691.397	42.052	0.275	-0.331
-690.383	412.401	0.067	0.190
-689.368	-130.159	-0.489	0.088
-688.354	-57.489	-0.441	-0.256
-687.339	269.569	-0.146	-0.342
-686.324	-21.213	-0.186	-0.150
-685.310	-135.885	0.228	-0.035
-684.295	-200.000	-0.022	-0.533
-683.281	800.000	0.021	-0.100
-682.266	-30.116	-0.350	0.263
-681.251	800.000	-0.072	0.406
-680.237	-56.537	-0.169	0.099
-679.222	288.259	0.096	-0.231
-678.208	684.896	0.049	-0.171
-677.193	53.292	0.161	-0.205
-676.178	119.686	0.058	-0.096
-675.164	-107.756	0.203	-0.058
-674.149	240.967	-0.045	-0.099
-673.135	-55.780	-0.388	0.229
-672.120	-200.000	0.007	-0.049
-671.105	-135.142	0.460	0.073
-670.091	-104.840	0.060	0.018
-669.076	-43.734	-0.321	0.214
-668.062	-52.365	0.198	-0.121
-667.047	46.466	-0.101	-0.124
-666.032	-21.213	-0.137	-0.111
-665.018	50.126	-0.113	-0.142
-664.003	-63.349	-0.273	-0.148
-662.989	7.400	0.044	-0.043
-661.974	-43.986	0.377	-0.250
-660.959	800.000	-0.119	-0.505
-659.945	169.913	0.154	-0.293
-658.930	75.004	0.028	0.039
-657.916	-109.853	-0.255	0.070
-656.901	354.174	-0.058	-0.153
-655.886	-30.208	0.237	-0.178
-654.872	-200.000	0.003	-0.182
-653.857	44.017	-0.076	0.092
-652.843	-40.967	-0.363	0.248
-651.828	-44.139	-0.269	-0.178
-650.814	-91.810	-0.291	0.109
-649.799	800.000	-0.059	0.297
-648.784	-94.814	0.204	-0.073
-647.770	-59.466	0.045	-0.026
-646.755	-104.380	-0.508	-0.155
-645.741	-170.935	-0.207	0.009
-644.726	20.367	0.376	-0.402
-643.711	-200.000	0.016	-0.299
-642.697	129.845	0.258	-0.438
-641.682	-84.490	0.545	0.227
-640.668	-47.850	0.245	0.157
-639.653	-12.611	-0.372	-0.321
-638.638	-110.135	-0.160	0.044
-637.624	431.418	0.095	0.274
-636.609	1.415	-0.317	0.301
-635.595	-200.000	0.037	0.284
-634.580	-200.000	0.065	0.400
-633.565	-120.346	-0.517	0.115
-632.551	-28.106	0.209	-0.160
-631.536	-86.611	-0.359	-0.145
-630.522	59.571	-0.106	-0.138
-629.507	-51.232	-0.082	0.050
-628.492	50.563	-0.301	0.377
-627.478	-37.485	0.095	-0.067
-626.463	557.011	-0.071	-0.229
-625.449	181.336	0.077	-0.150
-624.434	-125.591	-0.350	0.070
-623.419	-117.207	-0.244	0.058
-622.405	20.787	-0.381	-0.408
-621.390	-116.434	0.281	-0.068
-620.376	-135.171	-0.291	-0.046
-619.361	238.022	-0.164	-0.361
-618.346	-200.000	-0.037	0.342
-617.332	-200.000	0.010	-0.284
-616.317	388.850	0.225	0.620
-615.303	-148.549	-0.540	0.058
-614.288	-61.241	0.287	-0.159
-613.273	-24.629	-0.234	-0.184
-612.259	-200.000	0.005	-0.278
-611.244	-0.469	0.341	0.319
-610.230	24.089	-0.219	0.239
-609.215	-128.901	0.031	-0.006
-608.201	-47.358	0.081	0.052
-607.186	129.679	0.072	0.122
-606.171	-60.387	0.155	0.087
-605.157	-41.429	-0.285	-0.193
-604.142	39.929	-0.258	0.306
-603.128	-132.910	-0.470	0.078
-602.113	199.814	0.086	-0.175
-601.098	-7.022	0.570	-0.511
-600.084	235.493	-0.021	-0.046
-599.069	-200.000	0.313	-0.001
-598.055	70.351	0.138	-0.189
-597.040	646.483	0.110	-0.372
-596.025	-46.780	0.165	-0.106
-595.011	-64.482	0.288	-0.154
-593.996	-71.603	0.194	-0.095
-592.982	-119.660	-0.265	0.060
-591.967	-89.957	0.086	-0.033
-590.952	-60.459	0.070	-0.039
-589.938	59.565	-0.318	-0.415
-588.923	399.169	0.051	0.141
-587.909	-160.922	-0.523	0.036
-586.894	-200.000	0.021	-0.337
-585.879	800.000	-0.107	-0.498
-584.865	-121.840	-0.628	-0.136
-583.850	-102.376	-0.235	-0.074
-582.836	-130.094	0.611	0.109
-581.821	-147.684	0.499	-0.055
-580.806	-97.069	-0.205	0.070
-579.792	98.836	-0.161	-0.246
-578.777	-136.734	-0.250	-0.038
-577.763	-54.686	0.067	-0.040
-576.748	6.711	0.149	0.146
-575.733	-21.166	-0.201	-0.162
-574.719	368.166	-0.093	-0.248
-573.704	-200.000	-0.044	-0.274
-572.690	69.344	-0.106	0.144
-571.675	630.896	-0.072	0.242
-570.661	-171.896	0.541	0.023
-569.646	139.131	-0.180	-0.313
-568.631	-82.147	0.354	-0.152
-567.617	-127.366	-0.363	-0.069
-566.602	-200.000	-0.047	-0.398
-565.588	-77.222	-0.101	0.046
-564.573	800.000	-0.091	0.483
-563.558	800.000	0.073	0.320
-562.544	-92.549	0.454	-0.167
-561.529	6.407	0.086	0.084
-560.515	-200.000	-0.043	0.515
-559.500	800.000	0.155	0.571
-558.485	-200.000	-0.029	-0.261
-557.471	-95.140	0.204	0.072
-556.456	-24.534	0.058	-0.045
-555.442	-162.302	-0.161	0.010
-554.427	3.884	-0.126	-0.121
-553.412	3.861	0.203	0.196
-552.398	267.348	-0.072	0.167
-551.383	-95.538	-0.181	0.064
-550.369	180.850	0.161	0.312
-549.354	256.606	-0.135	0.308
-548.339	-160.190	0.480	-0.034
-547.325	-200.000	-0.027	0.466
-546.310	800.000	-0.045	0.195
-545.296	-120.504	0.271	-0.060
-544.281	50.370	-0.092	0.114
-543.266	-20.384	0.475	0.385
-542.252	-33.462	-0.161	-0.117
-541.237	40.248	0.160	-0.190
-540.223	-23.469	0.173	0.137
-539.208	616.644	0.095	0.315
-538.193	173.710	0.147	-0.280
-537.179	80.178	0.187	-0.265
-536.164	-43.272	0.086	0.057
-535.150	-200.000	-0.019	0.138
-534.135	-22.833	0.201	0.160
-533.121	-22.022	0.053	0.043
-532.106	-42.115	-0.284	0.191
-531.091	380.685	-0.133	-0.362
-530.077	-200.000	-0.011	-0.336
-529.062	-179.304	-0.227	0.006
-528.048	-36.320	0.256	-0.182
-527.033	-200.000	0.045	-0.421
-526.018	61.336	-0.106	-0.140
-525.004	800.000	-0.036	-0.188
-523.989	37.413	0.259	0.302
-522.975	800.000	-0.017	0.080
-521.960	13.970	-0.151	0.155
-520.945	-23.686	0.308	0.243
-519.931	-76.578	-0.071	-0.033
-518.916	-200.000	-0.085	-0.581
-517.902	-121.119	0.429	0.094
-516.887	51.182	0.258	0.323
-515.872	-200.000	0.002	0.030
-514.858	-116.262	0.261	0.063
-513.843	-200.000	0.042	-0.624
-512.829	800.000	0.007	0.034
-511.814	-200.000	-0.019	0.147
-510.799	103.449	-0.065	0.100
-509.785	-159.037	-0.450	-0.033
-508.770	-49.807	-0.159	0.099
-507.756	-200.000	-0.053	-0.459
-506.741	-63.639	0.402	0.216
-505.726	-68.490	-0.377	-0.192
-504.712	-116.772	0.408	-0.098
-503.697	-70.423	-0.514	-0.255
-502.683	-200.000	-0.019	-0.242
-501.668	-200.000	-0.015	-0.100
-500.653	493.253	-0.136	-0.413
-499.639	-200.000	0.026	-0.308
-498.624	-78.788	0.454	-0.203
-497.610	54.270	0.248	0.314
-496.595	-50.481	-0.108	0.067
-495.581	-45.641	-0.271	0.176
-494.566	92.259	0.105	-0.155
-493.551	-83.500	0.194	0.081
-492.537	-143.067	0.157	0.020
-491.522	365.825	-0.074	0.196
-490.508	268.801	0.018	0.042
-489.493	-200.000	0.054	-0.556
-488.478	185.967	-0.136	0.266
-487.464	-147.661	-0.160	-0.017
-486.449	246.823	0.048	-0.108
-485.435	315.483	0.156	0.388
-484.420	50.061	0.214	0.265
-483.405	-16.458	0.132	0.110
-482.391	-28.832	0.163	-0.123
-481.376	-62.599	-0.403	-0.219
-480.362	-17.966	-0.261	-0.215
-479.347	-99.569	-0.204	0.067
-478.332	-52.169	-0.299	0.182
-477.318	-93.371	-0.403	-0.146
-476.303	800.000	-0.098	0.391
-475.289	-200.000	0.035	-0.368
-474.274	-105.255	0.225	-0.067
-473.259	-45.561	-0.160	0.104
-472.245	154.605	0.153	0.277
-471.230	261.876	-0.111	0.254
-470.216	-200.000	-0.013	-0.176
-469.201	-200.000	-0.003	-0.199
-468.186	195.626	-0.130	-0.261
-467.172	233.100	0.159	0.345
-466.157	153.125	-0.096	0.172
-465.143	64.677	-0.195	-0.259
-464.128	428.223	0.099	-0.282
-463.113	159.907	-0.239	0.439
-462.099	95.946	-0.059	-0.088
-461.084	-52.448	0.032	0.019
-460.070	-21.985	-0.083	-0.066
-459.055	-74.984	-0.425	-0.199
-458.040	101.490	-0.227	0.347
-457.026	-104.952	-0.188	0.056
-456.011	-114.309	-0.368	0.092
-454.997	29.934	0.542	0.607
-453.982	155.979	-0.246	0.447
-452.968	509.186	0.140	0.429
-451.953	-144.656	-0.506	-0.061
-450.938	800.000	-0.045	-0.204
-449.924	-200.000	0.012	-0.384
-448.909	46.184	0.108	-0.131
-447.895	-71.285	-0.439	0.215
-446.880	-16.342	-0.604	0.503
-445.865	37.470	-0.267	-0.311
-444.851	800.000	0.026	-0.123
-443.836	-184.433	-0.514	-0.011
-442.822	133.100	-0.025	0.042
-441.807	-137.425	0.620	0.091
-440.792	-54.426	0.108	0.064
-439.778	-133.659	-0.200	0.033
-438.763	-120.208	-0.554	0.123
-437.749	-160.419	0.523	-0.036
-436.734	-35.890	-0.105	-0.074
-435.719	2.369	-0.269	0.255
-434.705	94.633	-0.196	-0.294
-433.690	-122.900	0.107	0.022
-432.676	120.258	0.162	-0.264
-431.661	88.305	-0.202	-0.294
-430.646	-200.000	0.075	-0.452
-429.632	298.800	0.162	0.394
-428.617	-146.438	0.026	-0.003
-427.603	131.686	0.252	-0.427
-426.588	-152.445	-0.285	0.027
-425.573	421.960	0.206	-0.584
-424.559	190.413	0.319	0.630
-423.544	-135.198	-0.331	0.052
-422.530	-85.437	-0.063	0.026
-421.515	-156.761	0.218	-0.017
-420.500	-70.678	-0.209	-0.103
-419.486	134.203	-0.198	0.337
-418.471	85.382	-0.168	-0.243
-417.457	202.918	0.048	0.097
-416.442	-42.859	0.249	0.166
-415.428	-200.000	0.114	0.666
-414.413	-64.622	0.294	-0.156
-413.398	-34.493	0.169	0.121
-412.384	-41.188	0.389	0.263
-411.369	-77.022	0.435	0.198
-410.355	392.326	0.148	0.406
-409.340	-200.000	-0.018	0.369
-408.325	190.834	0.061	-0.120
-407.311	-44.791	-0.456	-0.298
-406.296	90.723	-0.296	0.436
-405.282	-200.000	-0.007	0.156
-404.267	-25.498	0.162	-0.126
-403.252	-200.000	-0.005	-0.384
-402.238	218.383	0.265	-0.556
-401.223	-91.628	0.468	-0.174
-400.209	-30.945	0.168	-0.124
-399.194	441.774	-0.095	-0.273
-398.179	-140.250	0.371	0.050
-397.165	127.609	-0.279	0.466
-396.150	74.391	0.233	-0.322
-395.136	-168.082	0.421	-0.021
-394.121	-69.875	-0.603	-0.300
-393.106	480.151	-0.065	-0.194
-392.092	209.366	0.024	-0.050
-391.077	-37.702	0.369	0.257
-390.063	-5.596	-0.237	-0.213
-389.048	264.703	0.029	0.067
-388.033	37.837	-0.168	0.195
-387.019	-200.000	0.009	-0.159
-386.004	800.000	0.042	-0.163
-384.990	82.037	0.092	0.131
-383.975	577.953	-0.029	-0.093
-382.960	-200.000	0.049	0.340
-381.946	-73.397	0.193	0.092
-380.931	-100.710	0.344	-0.110
-379.917	800.000	-0.059	0.247
-378.902	177.986	-0.186	0.356
-377.888	-95.460	-0.234	-0.082
-376.873	-88.193	-0.354	0.138
-375.858	13.569	-0.037	-0.038
-374.844	-98.428	0.284	-0.095
-373.829	-93.337	-0.191	-0.069
-372.815	-44.960	-0.356	0.232
-371.800	512.433	-0.039	0.119
-370.785	-42.350	0.342	0.228
-369.771	-150.590	0.730	0.072
-368.756	-112.927	-0.199	0.051
-367.742	321.836	0.128	-0.319
-366.727	-200.000	-0.006	-0.235
-365.712	800.000	-0.045	-0.203
-364.698	-145.066	0.048	0.006
-363.683	190.033	-0.116	-0.229
-362.669	-59.700	-0.106	0.060
-361.654	66.870	0.207	-0.277
-360.639	772.985	0.123	-0.441
-359.625	320.699	-0.089	0.221
-358.610	-77.285	0.345	0.157
-357.596	26.057	-0.302	-0.330
-356.581	-58.466	0.183	-0.104
-355.566	-105.033	-0.247	0.073
-354.552	53.661	0.233	-0.293
-353.537	145.395	-0.024	-0.042
-352.523	-200.000	-0.010	0.450
-351.508	-73.969	0.317	-0.150
-350.493	-50.475	-0.253	0.156
-349.479	359.936	-0.079	0.207
-348.464	-101.486	0.300	-0.095
-347.450	610.423	0.047	-0.153
-346.435	60.091	0.192	-0.248
-345.420	-79.708	0.280	0.123
-344.406	-86.215	0.302	0.121
-343.391	-30.798	-0.211	-0.156
-342.377	-3.932	-0.169	0.153
-341.362	-200.000	0.035	0.309
-340.348	80.215	0.056	0.079
-339.333	70.863	-0.219	-0.297
-338.318	-17.073	0.554	-0.456
-337.304	800.000	-0.054	-0.227
-336.289	-200.000	-0.012	0.273
-335.275	350.697	0.033	0.085
-334.260	-168.286	-0.588	0.029
-333.245	145.931	0.357	0.627
-332.231	-0.748	-0.422	0.391
-331.216	-158.951	0.618	-0.045
-330.202	-61.254	-0.331	0.182
-329.187	297.424	-0.146	0.351
-328.172	-22.087	-0.201	0.159
-327.158	-46.030	-0.091	0.058
-326.143	-128.425	-0.068	-0.012
-325.129	157.222	0.331	-0.601
-324.114	92.874	-0.037	0.055
-323.099	-119.969	-0.619	0.138
-322.085	255.926	-0.224	-0.505
-321.070	800.000	0.075	0.401
-320.056	-200.000	-0.006	0.360
-319.041	134.790	-0.341	0.580
-318.026	-143.690	-0.243	0.030
-317.012	397.284	-0.135	0.369
-315.997	-42.916	-0.270	0.179
-314.983	116.075	-0.185	0.297
-313.968	-11.550	0.161	0.138
-312.953	-100.513	0.251	0.081
-311.939	776.459	0.050	-0.179
-310.924	-73.880	-0.234	-0.110
-309.910	800.000	0.061	0.339
-308.895	79.641	-0.123	-0.173
-307.880	391.678	-0.167	0.454
-306.866	-77.310	0.285	0.129
-305.851	42.255	-0.321	0.381
-304.837	-105.553	-0.605	-0.178
-303.822	33.297	-0.289	-0.327
-302.807	300.038	-0.109	0.263
-301.793	11.058	0.075	0.074
-300.778	184.266	0.215	0.417
-299.764	18.593	0.143	-0.149
-298.749	-57.908	0.675	0.384
-297.735	207.790	-0.169	-0.345
-296.720	-107.401	-0.301	0.086
-295.705	-149.687	-0.353	0.036
-294.691	800.000	-0.079	0.339
-293.676	-200.000	-0.017	-0.135
-292.662	-200.000	0.025	-0.155
-291.647	-118.784	0.338	-0.077
-290.632	-83.437	0.409	-0.170
-289.618	-200.000	-0.030	0.248
-288.603	-40.082	-0.088	0.060
-287.589	-200.000	0.061	-0.359
-286.574	-79.609	0.213	-0.093
-285.559	-145.667	0.477	-0.055
-284.545	1.367	-0.308	0.289
-283.530	800.000	-0.085	-0.383
-282.516	15.740	0.193	0.198
-281.501	-117.180	-0.591	0.139
-280.486	-103.735	0.143	-0.043
-279.472	30.939	0.064	0.072
-278.457	800.000	-0.008	0.044
-277.443	-156.678	0.303	0.024
-276.428	55.887	0.144	-0.182
-275.413	-49.933	-0.120	0.074
-274.399	-145.041	0.609	-0.071
-273.384	-91.797	-0.299	0.110
-272.370	81.992	0.090	0.128
-271.355	-80.690	0.163	0.071
-270.340	23.344	0.097	0.104
-269.326	-48.299	-0.380	-0.238
-268.311	-13.219	-0.181	-0.153
-267.297	13.816	0.222	-0.225
-266.282	800.000	0.090	0.356
-265.267	-124.468	-0.382	-0.077
-264.253	265.056	-0.225	-0.513
-263.238	-200.000	0.103	-0.658
-262.224	-150.262	-0.651	-0.065
-261.209	438.892	0.132	0.379
-260.195	340.289	-0.162	-0.413
-259.180	604.595	0.181	-0.592
-258.165	270.618	-0.124	-0.285
-257.151	-94.038	-0.329	0.117
-256.136	-93.532	0.281	-0.101
-255.122	-178.413	-0.202	-0.006
-254.107	40.926	-0.307	0.361
-253.092	-29.828	-0.034	0.025
-252.078	-72.513	-0.245	-0.118
-251.063	-23.955	0.460	0.358
-250.049	112.090	0.231	0.364
-249.034	33.079	-0.239	0.270
-248.019	82.302	0.100	-0.142
-247.005	-11.547	0.251	-0.215
-245.990	112.718	0.094	0.148
-244.976	-31.578	-0.370	0.270
-243.961	15.728	-0.161	-0.165
-242.946	-200.000	-0.003	0.158
-241.932	-145.621	-0.200	-0.023
-240.917	-200.000	-0.036	-0.305
-239.903	292.539	-0.069	-0.165
-238.888	66.423	-0.140	0.185
-237.873	-4.988	-0.288	0.258
-236.859	800.000	0.086	0.388
-235.844	800.000	-0.025	0.094
-234.830	-81.938	-0.034	-0.014
-233.815	800.000	-0.034	-0.148
-232.800	-145.248	0.367	-0.043
-231.786	-26.063	-0.228	-0.174
-230.771	-200.000	-0.027	-0.598
-229.757	-173.979	-0.118	0.004
-228.742	68.816	0.074	0.098
-227.727	416.608	-0.071	-0.197
-226.713	-77.563	0.190	-0.085
-225.698	800.000	0.057	-0.244
-224.684	105.993	-0.202	-0.312
-223.669	-115.046	-0.174	0.043
-222.655	-100.713	0.541	0.173
-221.640	275.923	0.135	0.313
-220.625	-88.938	-0.361	-0.139
-219.611	26.215	-0.181	-0.197
-218.596	-85.207	0.339	0.137
-217.582	-165.428	-0.306	-0.017
-216.567	800.000	-0.064	-0.342
-215.552	-200.000	-0.004	0.106
-214.538	800.000	-0.120	0.459
-213.523	-51.689	0.348	-0.210
-212.509	-167.875	-0.450	-0.023
-211.494	-200.000	0.023	-0.214
-210.479	-95.415	-0.322	0.112
-209.465	-124.238	0.091	0.018
-208.450	-125.997	0.700	-0.136
-207.436	-25.434	0.210	0.161
-206.421	35.099	-0.149	-0.170
-205.406	800.000	0.124	0.487
-204.392	-99.207	-0.593	-0.194
-203.377	-200.000	-0.023	0.209
-202.363	800.000	0.043	0.156
-201.348	-52.463	-0.312	0.187
-200.333	201.933	-0.077	-0.154
-199.319	523.304	-0.111	-0.341
-198.304	53.670	0.350	-0.438
-197.290	10.683	0.569	-0.564
-196.275	232.408	-0.112	-0.241
-195.260	26.998	0.264	0.288
-194.246	-85.180	0.165	-0.067
-193.231	60.925	-0.160	-0.207
-192.217	-200.000	0.061	-0.541
-191.202	257.275	0.192	-0.430
-190.187	132.978	0.119	-0.201
-189.173	-200.000	-0.019	0.197
-188.158	-156.451	-0.194	0.016
-187.144	25.565	0.144	0.155
-186.129	128.202	0.323	0.535
-185.114	199.101	0.099	0.197
-184.100	-24.238	-0.250	0.193
-183.085	97.992	0.032	-0.048
-182.071	-200.000	-0.009	-0.091
-181.056	-200.000	0.055	-0.321
-180.042	22.983	0.171	-0.182
-179.027	-23.632	-0.282	-0.220
-178.012	800.000	0.061	0.281
-176.998	-34.667	0.320	-0.227
-175.983	244.186	-0.253	-0.554
-174.969	-8.410	0.430	-0.375
-173.954	-200.000	-0.006	0.354
-172.939	-133.197	0.568	-0.092
-171.925	-168.417	0.257	-0.013
-170.910	404.750	-0.172	0.473
-169.896	341.212	-0.052	0.132
-168.881	56.450	-0.243	0.307
-167.866	-31.725	0.347	0.253
-166.852	49.984	0.527	0.647
-165.837	-41.738	0.040	-0.027
-164.823	-200.000	0.005	0.055
-163.808	-129.111	-0.087	0.016
-162.793	-200.000	0.003	0.024
-161.779	-112.865	-0.102	-0.026
-160.764	251.323	-0.108	0.239
-159.750	-27.665	0.299	-0.225
-158.735	-200.000	0.397	-0.001
-157.720	-111.536	0.367	-0.096
-156.706	-11.032	0.513	0.439
-155.691	-67.313	0.189	-0.096
-154.677	800.000	0.032	-0.174
-153.662	-134.533	-0.274	-0.043
-152.647	-176.301	-0.292	0.010
-151.633	-132.927	0.459	0.075
-150.618	-60.354	0.074	0.041
-149.604	-20.304	-0.339	0.271
-148.589	-77.988	-0.203	0.090
-147.574	-26.066	0.174	0.133
-146.560	6.702	-0.261	-0.252
-145.545	-117.470	0.287	-0.067
-144.531	35.156	-0.204	-0.233
-143.516	118.581	-0.390	-0.627
-142.502	51.127	0.159	0.195
-141.487	20.003	-0.182	-0.190
-140.472	-200.000	-0.074	-0.657
-139.458	-84.040	-0.560	-0.230
-138.443	-93.358	-0.365	0.130
-137.429	-200.000	-0.052	0.423
-136.414	98.856	0.210	-0.315
-135.399	-22.946	0.086	0.067
-134.385	-107.043	0.388	0.110
-133.370	209.964	0.062	-0.127
-132.356	17.771	-0.402	0.415
-131.341	800.000	-0.102	-0.473
-130.326	800.000	0.046	0.207
-129.312	-111.300	0.268	0.070
-128.297	-82.169	-0.083	-0.035
-127.283	136.285	0.094	-0.159
-126.268	-200.000	-0.048	-0.391
-125.253	-22.296	-0.106	0.083
-124.239	329.230	-0.042	0.104
-123.224	-131.873	0.378	0.063
-122.210	501.978	-0.101	0.304
-121.195	30.266	0.433	0.480
-120.180	71.273	0.147	0.198
-119.166	27.016	-0.152	-0.166
-118.151	46.543	0.141	0.170
-117.137	-28.136	0.300	0.225
-116.122	-92.294	-0.070	0.026
-115.107	-200.000	-0.014	0.161
-114.093	-197.445	0.733	-0.006
-113.078	800.000	-0.016	-0.078
-112.064	232.906	-0.176	0.376
-111.049	800.000	-0.116	0.457
-110.034	-200.000	0.031	-0.410
-109.020	276.036	0.124	0.286
-108.005	-143.278	0.335	-0.041
-106.991	711.464	-0.131	0.451
-105.976	-29.112	-0.087	0.065
-104.962	-76.334	-0.460	-0.209
-103.947	-200.000	-0.005	-0.252
-102.932	-100.233	-0.165	0.053
-101.918	-123.431	-0.576	0.118
-100.903	-75.453	0.389	-0.179
-99.889	8.954	-0.089	-0.086
-98.874	-200.000	-0.015	0.212
-97.859	124.094	-0.104	-0.170
-96.845	-160.545	0.202	-0.014
-95.830	48.876	-0.179	-0.218
-94.816	-125.765	-0.347	0.067
-93.801	-120.250	0.185	0.041
-92.786	68.507	0.113	-0.150
-91.772	2.503	0.429	-0.402
-90.757	45.684	-0.210	-0.252
-89.743	137.509	0.310	-0.526
-88.728	-42.831	-0.230	-0.151
-87.713	-136.231	-0.506	0.076
-86.699	-132.539	0.265	0.044
-85.684	-200.000	0.062	-0.579
-84.670	800.000	0.065	-0.344
-83.655	61.280	-0.146	0.188
-82.640	-25.971	0.146	0.111
-81.626	21.454	-0.240	0.253
-80.611	-200.000	-0.066	0.451
-79.597	-200.000	0.007	0.150
-78.582	-177.907	-0.409	0.012
-77.567	-200.000	0.005	-0.320
-76.553	305.794	-0.202	-0.487
-75.538	322.981	0.092	0.229
-74.524	-126.275	-0.538	0.103
-73.509	243.985	-0.085	0.186
-72.494	777.982	-0.057	-0.201
-71.480	-172.438	0.392	-0.016
-70.465	800.000	-0.008	0.044
-69.451	46.163	0.223	-0.267
-68.436	-61.524	-0.373	-0.202
-67.422	-21.735	0.170	-0.134
-66.407	-55.900	-0.312	-0.180
-65.392	-102.873	0.267	-0.082
-64.378	398.107	0.058	0.158
-63.363	-200.000	-0.029	0.269
-62.349	163.659	-0.114	-0.209
-61.334	14.800	-2.509	-2.537
-60.319	33.230	1.457	1.636
-59.305	251.576	-3.542	-7.827
-58.290	42.131	4.072	4.785
-57.276	341.764	4.059	10.310
-56.261	-200.000	24.356	320.832
-55.246	350.993	1308.683	3363.656
-54.232	52.363	2850.182	3519.089
-53.217	51.003	2661.703	3265.180
-52.203	31.284	2391.056	2654.825
-51.188	27.584	2057.946	2239.274
-50.173	24.273	1943.809	2076.308
-49.159	23.233	1932.666	2052.208
-48.144	22.692	1928.383	2041.290
-47.130	22.661	1924.916	2037.182
-46.115	22.571	1923.451	2034.508
-45.100	22.552	1922.233	2032.914
-44.086	22.540	1920.444	2030.801
-43.071	22.694	1918.207	2030.140
-42.057	22.505	1917.916	2027.563
-41.042	22.423	1916.665	2025.212
-40.027	22.450	1914.904	2023.582
-39.013	22.557	1913.527	2023.277
-37.998	22.472	1912.748	2021.394
-36.984	22.545	1911.521	2020.857
-35.969	22.585	1909.352	2018.954
-34.954	22.497	1908.499	2016.954
-33.940	22.402	1906.941	2014.133
-32.925	22.377	1906.486	2013.284
-31.911	22.623	1904.051	2013.465
-30.896	22.513	1903.088	2011.102
-29.881	22.333	1902.506	2008.342
-28.867	22.488	1899.697	2007.066
-27.852	22.435	1899.169	2005.822
-26.838	22.303	1898.288	2003.301
-25.823	22.378	1896.798	2002.506
-24.809	22.335	1895.721	2000.801
-23.794	22.306	1894.489	1999.091
-22.779	22.425	1892.438	1998.211
-21.765	22.386	1891.181	1996.361
-20.750	22.378	1889.786	1994.712
-19.736	22.301	1889.045	1992.976
-18.721	22.294	1887.737	1991.436
-17.706	22.330	1886.414	1990.374
-16.692	22.297	1885.114	1988.550
-15.677	22.234	1884.371	1986.968
-14.663	22.439	1882.852	1987.612
-13.648	22.310	1881.026	1984.150
-12.633	22.269	1880.718	1983.275
-11.619	22.396	1878.218	1981.998
-10.604	22.336	1877.723	1980.724
-9.590	22.215	1876.652	1978.145
-8.575	22.342	1874.911	1977.661
-7.560	22.300	1873.895	1976.038
-6.546	22.268	1873.001	1974.661
-5.531	22.301	1872.141	1974.041
-4.517	22.253	1870.929	1972.146
-3.502	22.339	1870.194	1972.260
-2.487	22.269	1868.557	1969.668
-1.473	22.362	1864.869	1966.746
-0.458	22.132	1847.413	1945.702
0.556	18.620	1994.387	2046.185
1.571	17.201	2197.474	2235.528
2.586	17.996	2236.010	2285.148
3.600	17.997	2238.730	2287.672
4.615	18.060	2236.824	2286.287
5.629	18.141	2235.548	2285.809
6.644	18.011	2233.080	2281.264
7.659	17.994	2231.986	2279.640
8.673	18.010	2229.962	2277.514
9.688	17.723	2238.262	2281.855
10.702	16.766	2319.463	2351.017
11.717	15.220	2383.037	2392.994
12.731	7.179	2364.719	2259.387
13.746	0.941	2347.593	2153.754
14.761	0.227	2344.257	2140.239
15.775	0.179	2342.053	2137.275
16.790	0.017	2341.710	2134.399
17.804	0.067	2339.816	2133.134
18.819	-0.007	2338.982	2131.066
19.834	0.063	2337.110	2130.094
20.848	0.008	2335.155	2127.279
21.863	-0.005	2334.124	2125.893
22.877	0.104	2330.735	2124.109
23.892	0.052	2329.478	2121.966
24.907	0.086	2326.987	2119.934
25.921	0.021	2325.143	2117.079
26.936	-0.079	2323.170	2113.605
27.950	0.130	2320.311	2113.703
28.965	0.010	2318.572	2110.179
29.980	0.033	2317.398	2109.179
30.994	0.140	2314.989	2108.235
32.009	3.758	2326.638	2169.730
33.023	12.759	2352.356	2321.426
34.038	16.509	2358.199	2380.059
35.053	16.534	2355.043	2376.951
36.067	16.439	2352.512	2372.766
37.082	16.398	2351.114	2370.497
38.096	16.634	2349.372	2371.785
39.111	16.692	2346.540	2369.454
40.126	16.906	2343.861	2369.466
41.140	16.790	2342.871	2366.562
42.155	16.837	2341.875	2365.928
43.169	16.870	2339.866	2364.084
44.184	16.669	2335.867	2356.941
45.199	16.684	2333.406	2354.388
46.213	16.905	2331.984	2355.751
47.228	16.868	2332.328	2355.309
48.242	16.863	2330.374	2352.977
49.257	17.013	2328.410	2352.810
50.271	17.032	2326.577	2350.939
51.286	16.809	2324.478	2345.428
52.301	16.656	2322.139	2340.670
53.315	17.394	2323.681	2352.194
54.330	19.892	2330.167	2393.252
55.344	21.354	2332.021	2415.193
56.359	21.498	2328.437	2413.186
57.374	21.558	2327.866	2413.130
58.388	21.832	2325.515	2414.198
59.403	21.662	2321.018	2406.894
60.417	21.377	2318.197	2399.746
61.432	21.495	2316.659	2399.502
62.447	21.722	2315.333	2400.966
63.461	21.959	2313.225	2401.748
64.476	22.094	2311.146	2401.166
65.490	21.768	2308.828	2393.989
66.505	20.908	2305.413	2378.371
67.520	19.051	2298.063	2345.089
68.534	17.275	2290.457	2312.782
69.549	16.681	2285.898	2299.783
70.563	16.647	2283.953	2297.087
71.578	16.553	2282.434	2294.005
72.593	16.711	2280.212	2293.651
73.607	16.685	2279.865	2292.674
74.622	16.710	2277.476	2290.337
75.636	16.688	2273.155	2285.419
76.651	16.613	2271.862	2282.823
77.666	16.628	2270.329	2281.214
78.680	16.583	2267.098	2277.093
79.695	16.477	2264.965	2273.249
80.709	16.286	2263.659	2269.085
81.724	16.237	2262.068	2266.549
82.739	16.248	2259.756	2264.118
83.753	16.217	2257.824	2261.490
84.768	16.205	2255.089	2258.322
85.782	15.987	2254.869	2254.888
86.797	16.091	2251.660	2252.807
87.812	16.276	2249.440	2252.799
88.826	16.329	2248.887	2252.687
89.841	16.304	2246.559	2249.756
90.855	16.271	2244.409	2246.890
91.870	16.457	2241.888	2246.580
92.884	16.414	2240.423	2244.265
93.899	16.368	2240.015	2242.986
94.914	16.961	2243.071	2253.698
95.928	19.277	2248.707	2290.057
96.943	20.155	2246.729	2299.475
97.957	17.834	2237.047	2258.448
98.972	16.365	2232.192	2233.770
99.987	16.267	2228.041	2228.049
101.001	16.107	2225.879	2223.503
102.016	16.252	2224.060	2223.339
103.030	16.162	2221.385	2219.205
104.045	16.287	2218.970	2218.178
105.060	16.291	2216.877	2215.865
106.074	16.268	2215.156	2213.585
107.089	16.239	2214.331	2212.113
108.103	16.372	2212.286	2211.556
109.118	16.468	2211.474	2211.740
110.133	16.499	2209.991	2210.405
111.147	16.397	2206.992	2205.796
112.162	16.467	2205.801	2205.260
113.176	16.521	2204.283	2204.186
114.191	16.525	2203.401	2203.095
115.206	16.593	2201.398	2201.717
116.220	16.553	2199.327	2198.865
117.235	16.583	2196.342	2195.998
118.249	16.658	2194.740	2195.121
119.264	16.701	2193.633	2194.308
120.279	16.509	2191.331	2189.247
121.293	16.565	2190.155	2188.529
122.308	16.591	2189.291	2187.744
123.322	16.592	2187.831	2186.042
124.337	17.063	2189.642	2193.706
125.352	19.430	2195.485	2230.092
126.366	19.931	2193.649	2234.459
127.381	17.567	2183.604	2193.401
128.395	16.549	2178.395	2174.756
129.410	16.556	2175.965	2172.152
130.424	16.439	2175.311	2169.732
131.439	16.648	2173.786	2170.646
132.454	16.562	2172.369	2167.858
133.468	16.714	2169.542	2166.735
134.483	16.859	2167.562	2166.369
135.497	16.775	2166.922	2164.391
136.512	16.802	2163.629	2161.179
137.527	16.521	2162.727	2156.427
138.541	16.297	2161.595	2152.168
139.556	16.484	2160.290	2153.005
140.570	16.486	2158.586	2151.080
141.585	16.380	2155.860	2146.745
142.600	16.353	2155.046	2145.332
143.614	16.265	2153.090	2142.004
144.629	16.198	2150.938	2138.756
145.643	16.184	2149.053	2136.452
146.658	16.122	2148.150	2134.502
147.673	16.145	2146.153	2132.557
148.687	16.131	2144.696	2130.672
149.702	16.297	2144.122	2131.957
150.716	16.305	2142.665	2130.358
151.731	16.426	2141.231	2130.212
152.746	16.390	2140.600	2128.871
153.760	16.996	2143.729	2139.414
154.775	19.541	2149.876	2177.592
155.789	20.210	2147.140	2183.032
156.804	17.941	2137.115	2143.970
157.819	16.403	2130.486	2117.706
158.833	16.257	2127.638	2112.783
159.848	16.273	2125.809	2110.913
160.862	16.418	2124.572	2111.262
161.877	16.439	2123.943	2110.645
162.892	16.634	2123.000	2111.894
163.906	16.659	2121.119	2110.086
164.921	16.551	2119.133	2106.504
165.935	16.497	2117.445	2103.901
166.950	16.651	2116.969	2105.105
167.964	16.632	2114.161	2101.822
168.979	16.404	2112.221	2096.794
169.994	16.430	2109.925	2094.592
171.008	16.333	2109.679	2092.888
172.023	16.276	2107.867	2090.126
173.037	16.424	2105.710	2089.588
174.052	16.553	2104.804	2090.032
175.067	16.505	2102.925	2087.325
176.081	16.468	2101.832	2085.526
177.096	16.530	2100.593	2084.820
178.110	16.546	2099.170	2083.352
179.125	16.558	2097.865	2081.961
180.140	16.503	2096.908	2080.087
181.154	16.544	2095.682	2079.125
182.169	16.746	2094.879	2080.574
183.183	17.385	2096.845	2090.167
184.198	20.014	2103.133	2128.708
185.213	20.513	2100.082	2131.523
186.227	17.924	2091.558	2090.786
187.242	16.853	2087.818	2073.628
188.256	16.786	2084.378	2069.149
189.271	16.426	2083.077	2063.188
190.286	16.347	2081.727	2060.633
191.300	16.320	2080.098	2058.451
192.315	16.629	2077.784	2059.689
193.329	16.672	2076.338	2058.542
194.344	16.854	2076.138	2060.314
195.359	16.895	2074.784	2059.229
196.373	16.621	2072.676	2053.548
197.388	16.489	2070.109	2049.145
198.402	16.534	2067.292	2046.662
199.417	16.460	2065.488	2043.729
200.432	16.493	2064.126	2042.542
201.446	16.515	2062.720	2041.175
202.461	16.363	2061.770	2038.142
203.475	16.273	2059.649	2034.713
204.490	16.298	2057.038	2032.198
205.504	16.234	2054.874	2029.043
206.519	16.331	2052.894	2028.010
207.534	16.388	2050.696	2026.289
208.548	16.286	2051.218	2025.331
209.563	16.442	2049.284	2025.058
210.577	16.363	2048.326	2022.913
211.592	16.492	2046.859	2022.778
212.607	17.743	2051.223	2041.906
213.621	20.690	2058.690	2084.640
214.636	20.083	2053.241	2071.587
215.650	17.193	2043.544	2026.936
216.665	16.565	2040.204	2015.860
217.680	16.516	2037.865	2012.728
218.694	16.396	2036.329	2009.536
219.709	16.341	2034.956	2007.279
220.723	16.396	2034.021	2006.774
221.738	16.543	2032.328	2006.621
222.753	16.691	2030.136	2005.980
223.767	16.678	2028.608	2004.068
224.782	16.465	2027.713	2000.415
225.796	16.519	2026.199	1999.324
226.811	16.550	2024.040	1997.325
227.826	16.607	2022.564	1996.302
228.840	16.540	2021.734	1994.446
229.855	16.500	2020.701	1992.718
230.869	16.527	2018.355	1990.485
231.884	16.481	2016.677	1988.049
232.899	16.565	2014.946	1987.098
233.913	16.546	2015.038	1986.730
234.928	16.649	2013.351	1986.035
235.942	16.388	2011.843	1981.233
236.957	16.519	2009.879	1980.607
237.972	16.653	2008.783	1980.870
238.986	16.527	2007.637	1978.016
240.001	16.484	2005.551	1975.226
241.015	16.530	2004.588	1974.578
242.030	17.170	2006.881	1984.120
243.045	19.692	2011.402	2017.988
244.059	19.910	2007.827	2016.711
245.074	17.542	2000.362	1981.308
246.088	16.834	1996.713	1969.196
247.103	16.889	1995.116	1968.029
248.117	16.695	1994.288	1964.706
249.132	16.733	1991.153	1961.827
250.147	16.544	1989.566	1957.834
251.161	16.615	1988.276	1957.150
252.176	16.716	1987.514	1957.345
253.190	16.935	1986.054	1958.209
254.205	16.848	1984.549	1955.483
255.220	16.888	1982.441	1953.633
256.234	16.940	1980.841	1952.431
257.249	16.717	1979.943	1948.726
258.263	16.609	1978.930	1946.247
259.278	16.760	1977.060	1945.922
260.293	16.622	1974.413	1941.490
261.307	16.491	1972.480	1937.850
262.322	16.344	1970.858	1934.335
263.336	16.211	1969.712	1931.451
264.351	16.125	1968.244	1928.785
265.366	16.220	1966.114	1927.565
266.380	16.322	1965.352	1927.749
267.395	16.162	1964.928	1925.266
268.409	16.248	1962.436	1923.583
269.424	16.274	1960.891	1922.135
270.439	16.322	1959.757	1921.349
271.453	17.263	1963.153	1935.213
272.468	19.901	1967.999	1969.987
273.482	20.052	1963.530	1967.004
274.497	17.588	1954.722	1929.910
275.512	16.382	1951.390	1912.674
276.526	16.308	1949.357	1909.618
277.541	16.349	1947.593	1908.128
278.555	16.286	1945.434	1905.071
279.570	16.254	1943.191	1902.282
280.585	16.447	1941.995	1903.061
281.599	16.482	1941.559	1902.809
282.614	16.607	1940.300	1902.761
283.628	16.877	1939.621	1904.910
284.643	16.849	1939.107	1903.865
285.657	16.933	1937.632	1903.137
286.672	17.017	1936.115	1902.363
287.687	16.985	1935.143	1900.818
288.701	16.749	1934.499	1897.303
289.716	16.867	1932.797	1896.737
290.730	16.878	1931.014	1894.881
291.745	16.995	1929.092	1894.087
292.760	16.924	1928.432	1892.411
293.774	16.850	1927.191	1890.137
294.789	16.730	1925.814	1887.219
295.803	16.670	1923.339	1883.893
296.818	16.685	1921.869	1882.402
297.833	16.805	1920.995	1882.655
298.847	16.705	1919.819	1880.166
299.862	16.705	1917.631	1877.794
300.876	17.385	1919.910	1887.382
301.891	19.893	1925.285	1920.460
302.906	20.382	1921.596	1921.990
303.920	17.770	1914.286	1885.458
304.935	16.841	1911.758	1872.430
305.949	16.749	1908.578	1868.071
306.964	16.779	1906.533	1866.183
307.979	16.816	1905.980	1865.828
308.993	16.936	1904.306	1865.293
310.008	17.255	1902.693	1867.006
311.022	17.040	1902.270	1864.002
312.037	16.934	1900.625	1860.993
313.052	17.018	1898.322	1859.444
314.066	17.025	1896.702	1857.715
315.081	16.951	1896.877	1856.840
316.095	16.946	1895.399	1855.118
317.110	16.838	1892.965	1851.330
318.125	16.872	1890.899	1849.459
319.139	16.688	1889.863	1846.206
320.154	16.788	1889.017	1846.260
321.168	16.789	1886.561	1843.645
322.183	16.650	1884.587	1839.982
323.197	16.492	1883.446	1836.922
324.212	16.462	1880.656	1833.654
325.227	16.172	1879.664	1829.299
326.241	16.210	1877.314	1827.210
327.256	16.352	1876.621	1827.867
328.270	16.318	1875.632	1826.315
329.285	16.322	1876.550	1827.026
330.300	17.292	1880.216	1840.947
331.314	20.165	1885.260	1876.972
332.329	20.212	1879.367	1871.385
333.343	17.253	1871.694	1831.514
334.358	16.330	1867.997	1817.701
335.373	16.268	1866.072	1814.936
336.387	16.062	1863.610	1810.101
337.402	16.155	1862.010	1809.337
338.416	16.230	1861.602	1809.534
339.431	16.445	1860.016	1810.092
340.446	16.343	1859.226	1808.009
341.460	16.526	1858.337	1808.889
342.475	16.788	1856.849	1810.044
343.489	16.886	1856.085	1810.132
344.504	16.830	1855.394	1808.646
345.519	16.944	1853.214	1807.523
346.533	17.102	1852.055	1807.866
347.548	17.118	1850.406	1806.212
348.562	16.987	1848.663	1802.892
349.577	17.017	1848.184	1802.526
350.592	17.152	1847.266	1802.855
351.606	17.209	1845.898	1801.914
352.621	17.111	1844.305	1799.097
353.635	17.000	1842.484	1795.934
354.650	16.765	1841.556	1792.308
355.665	16.788	1839.334	1790.182
356.679	16.705	1838.598	1788.371
357.694	16.688	1835.943	1785.391
358.708	16.690	1835.414	1784.680
359.723	17.720	1839.026	1798.911
360.738	20.589	1841.781	1831.810
361.752	19.803	1837.634	1819.167
362.767	17.426	1831.208	1787.519
363.781	16.767	1827.941	1777.161
364.796	16.612	1826.601	1774.017
365.810	16.442	1826.065	1771.493
366.825	16.839	1823.660	1773.117
367.840	16.956	1823.583	1774.068
368.854	16.987	1823.137	1773.745
369.869	16.771	1820.760	1768.953
370.883	16.679	1818.443	1765.522
371.898	16.497	1817.758	1762.738
372.913	16.585	1816.539	1762.266
373.927	16.731	1815.576	1762.648
374.942	16.895	1814.101	1762.724
375.956	16.883	1813.324	1761.633
376.971	16.669	1811.352	1757.268
377.986	16.632	1809.384	1754.766
379.000	16.545	1808.061	1752.364
380.015	16.753	1806.440	1752.753
381.029	16.626	1804.313	1749.159
382.044	16.497	1802.907	1746.243
383.059	16.470	1800.353	1743.286
384.073	16.401	1800.247	1742.259
385.088	16.393	1799.491	1741.235
386.102	16.400	1796.773	1738.465
387.117	16.341	1794.960	1735.897
388.132	16.267	1794.634	1734.607
389.146	17.392	1798.790	1750.053
390.161	20.237	1804.098	1784.468
391.175	19.832	1797.316	1773.377
392.190	17.330	1788.331	1738.624
393.205	16.728	1784.954	1728.953
394.219	16.517	1783.519	1725.188
395.234	16.351	1783.489	1723.259
396.248	16.560	1781.106	1722.883
397.263	16.468	1779.073	1719.776
398.278	16.371	1778.133	1717.664
399.292	16.439	1776.244	1716.334
400.307	16.424	1775.536	1715.287
401.321	16.500	1775.236	1715.566
402.336	16.619	1774.351	1715.724
403.350	16.651	1772.483	1714.036
404.365	16.903	1770.893	1714.851
405.380	17.145	1770.791	1717.004
406.394	17.049	1770.651	1715.691
407.409	16.862	1769.260	1712.239
408.423	17.150	1766.510	1712.289
409.438	17.096	1764.999	1710.076
410.453	17.016	1764.366	1708.451
411.467	17.113	1762.893	1707.800
412.482	16.947	1761.719	1704.781
413.496	16.744	1760.192	1701.045
414.511	16.720	1757.647	1698.146
415.526	16.777	1755.848	1696.775
416.540	16.573	1754.745	1693.457
417.555	16.657	1753.780	1693.171
418.569	16.742	1753.993	1694.018
419.584	16.991	1753.574	1695.919
420.599	16.868	1753.182	1694.100
421.613	16.861	1751.411	1692.114
422.628	16.796	1749.970	1689.872
423.642	16.666	1748.397	1686.843
424.657	16.657	1747.006	1685.208
425.672	16.700	1745.546	1684.033
426.686	16.728	1744.605	1683.200
427.701	16.737	1743.115	1681.653
428.715	16.903	1741.347	1681.400
429.730	16.981	1740.297	1680.967
430.745	17.001	1738.573	1679.298
431.759	17.067	1738.313	1679.498
432.774	17.238	1739.085	1681.747
433.788	17.611	1738.666	1684.849
434.803	17.959	1738.209	1687.664
435.818	17.716	1737.613	1684.461
436.832	17.635	1736.398	1682.283
437.847	16.671	1729.509	1665.881
438.861	9.160	1709.761	1572.957
439.876	1.616	1696.187	1486.408
440.890	0.329	1692.177	1470.095
441.905	0.194	1691.163	1467.723
442.920	0.145	1689.250	1465.402
443.934	0.147	1688.474	1464.579
444.949	0.248	1686.854	1463.982
445.963	0.176	1686.651	1462.927
446.978	0.111	1686.264	1461.782
447.993	0.159	1684.671	1460.695
449.007	0.092	1682.047	1457.592
450.022	0.094	1680.160	1455.800
451.036	0.175	1679.445	1455.792
452.051	1.055	1683.117	1467.370
453.066	8.495	1699.401	1554.314
454.080	15.853	1711.429	1637.309
455.095	17.200	1712.791	1651.586
456.109	17.604	1712.943	1655.486
457.124	17.704	1711.778	1655.135
458.139	17.757	1711.046	1654.746
459.153	17.879	1709.248	1654.000
460.168	17.793	1707.639	1651.407
461.182	17.846	1705.647	1649.795
462.197	17.757	1703.752	1646.902
463.212	17.624	1702.851	1644.540
464.226	17.636	1702.012	1643.654
465.241	17.828	1700.606	1643.958
466.255	17.916	1699.562	1643.603
467.270	17.955	1698.324	1642.588
468.285	17.757	1696.655	1638.868
469.299	17.648	1695.788	1636.776
470.314	17.805	1693.680	1636.058
471.328	17.751	1692.609	1634.315
472.343	17.803	1691.553	1633.591
473.358	17.926	1690.122	1633.205
474.372	17.685	1689.574	1630.162
475.387	17.721	1687.466	1628.272
476.401	17.827	1685.992	1627.674
477.416	17.775	1685.701	1626.704
478.430	17.799	1683.815	1624.917
479.445	17.737	1682.753	1623.104
480.460	17.672	1681.622	1621.194
481.474	17.645	1680.499	1619.660
482.489	17.635	1680.159	1619.041
483.503	17.773	1678.022	1618.110
484.518	17.782	1676.746	1616.769
485.533	17.760	1674.946	1614.630
486.547	17.816	1674.293	1614.339
487.562	18.119	1672.510	1615.304
488.576	17.964	1671.617	1612.778
489.591	17.967	1669.952	1611.008
490.606	17.815	1669.003	1608.463
491.620	17.996	1666.530	1607.599
492.635	18.041	1665.054	1606.406
493.649	18.126	1664.422	1606.410
494.664	17.775	1663.390	1601.905
495.679	17.539	1661.594	1597.762
496.693	17.797	1659.791	1598.265
497.708	17.744	1659.534	1597.324
498.722	17.860	1658.717	1597.442
499.737	17.991	1657.043	1596.866
500.752	17.773	1655.670	1593.302
501.766	17.887	1654.729	1593.280
502.781	17.842	1652.947	1590.952
503.795	18.002	1650.392	1589.797
504.810	17.976	1649.818	1588.810
505.825	18.015	1649.713	1588.890
506.839	17.966	1648.564	1587.135
507.854	17.911	1647.149	1585.067
508.868	17.970	1645.820	1584.146
509.883	17.931	1645.335	1583.130
510.898	18.044	1644.324	1583.016
511.912	18.059	1641.842	1580.580
512.927	17.964	1640.299	1578.024
513.941	17.947	1638.634	1576.077
514.956	17.826	1637.492	1573.665
515.971	17.861	1636.349	1572.702
516.985	17.883	1635.330	1571.733
518.000	18.017	1634.761	1572.242
519.014	18.027	1633.755	1571.175
520.029	18.017	1632.459	1569.650
521.043	18.131	1630.789	1568.913
522.058	17.984	1629.577	1566.200
523.073	17.982	1629.395	1565.822
524.087	18.225	1628.841	1567.337
525.102	18.265	1626.842	1565.597
526.116	18.025	1625.284	1561.703
527.131	17.923	1623.849	1559.204
528.146	18.205	1623.433	1561.202
529.160	18.086	1622.205	1558.747
530.175	18.110	1621.189	1557.802
531.189	18.101	1620.503	1556.874
532.204	18.311	1618.475	1556.653
533.219	17.964	1617.381	1552.251
534.233	17.873	1616.670	1550.548
535.248	18.109	1615.676	1551.568
536.262	18.229	1614.954	1551.775
537.277	18.212	1613.620	1550.156
538.292	17.928	1612.175	1545.994
539.306	18.067	1609.508	1544.516
540.321	17.978	1608.711	1542.766
541.335	17.908	1608.039	1541.294
542.350	18.153	1606.201	1541.572
543.365	18.224	1604.519	1540.415
544.379	18.260	1602.644	1538.756
545.394	18.234	1602.035	1537.753
546.408	18.105	1600.253	1534.695
547.423	18.000	1598.739	1532.109
548.438	17.920	1598.273	1530.764
549.452	18.058	1597.407	1530.988
550.467	18.160	1596.009	1530.388
551.481	18.075	1595.023	1528.491
552.496	18.164	1594.309	1528.421
553.511	18.342	1592.996	1528.583
554.525	18.281	1592.679	1527.545
555.540	18.251	1592.518	1526.936
556.554	18.300	1590.683	1525.436
557.569	18.285	1588.295	1522.831
558.583	18.211	1587.069	1520.807
559.598	18.252	1586.088	1520.054
560.613	18.181	1585.046	1518.242
561.627	18.243	1583.899	1517.514
562.642	18.390	1582.516	1517.317
563.656	18.469	1581.621	1516.981
564.671	18.415	1580.800	1515.526
565.686	18.308	1579.456	1513.110
566.700	18.161	1577.768	1510.008
567.715	18.193	1575.739	1508.168
568.729	18.043	1574.249	1505.229
569.744	18.160	1572.138	1504.069
570.759	18.059	1571.152	1502.052
571.773	18.262	1570.704	1503.234
572.788	18.258	1570.040	1502.382
573.802	18.321	1568.443	1501.236
574.817	18.345	1566.870	1499.764
575.832	18.421	1566.260	1499.666
576.846	18.521	1564.741	1498.908
577.861	18.333	1563.637	1496.024
578.875	18.350	1563.163	1495.542
579.890	18.592	1561.604	1495.991
580.905	18.465	1560.764	1493.898
581.919	18.533	1560.293	1493.858
582.934	18.601	1559.450	1493.468
583.948	18.566	1558.478	1492.053
584.963	18.582	1555.953	1489.595
585.978	18.355	1555.022	1486.547
586.992	18.497	1554.682	1487.285
588.007	18.601	1554.006	1487.360
589.021	18.418	1551.830	1483.508
590.036	18.241	1550.825	1480.835
591.051	18.437	1549.292	1480.897
592.065	18.457	1547.895	1479.555
593.080	18.490	1547.079	1478.884
594.094	18.597	1544.793	1477.453
595.109	18.312	1542.943	1473.041
596.123	18.266	1541.870	1471.442
597.138	18.441	1540.776	1471.734
598.153	18.479	1540.213	1471.343
599.167	18.477	1538.195	1469.228
600.182	18.528	1537.460	1468.780
601.196	18.576	1536.749	1468.347
602.211	18.519	1535.638	1466.618
603.226	18.668	1534.956	1467.065
604.240	18.604	1533.714	1465.155
605.255	18.852	1531.975	1465.447
606.269	18.756	1530.736	1463.264
607.284	18.560	1530.428	1461.113
608.299	18.689	1528.702	1460.395
609.313	18.494	1528.002	1457.886
610.328	18.609	1527.174	1457.902
611.342	18.600	1525.258	1455.822
612.357	18.618	1523.909	1454.515
613.372	18.739	1523.504	1454.981
614.386	18.701	1522.286	1453.326
615.401	18.743	1521.643	1452.893
616.415	18.730	1520.601	1451.612
617.430	18.768	1519.375	1450.597
618.445	18.806	1518.098	1449.520
619.459	18.670	1517.676	1447.794
620.474	18.536	1515.989	1444.875
621.488	18.187	1515.033	1440.833
622.503	18.087	1513.467	1438.326
623.518	18.261	1513.119	1439.301
624.532	18.591	1511.768	1440.628
625.547	18.729	1510.684	1440.582
626.561	18.738	1509.798	1439.644
627.576	18.845	1508.760	1439.385
628.591	18.631	1506.888	1435.625
629.605	18.415	1505.390	1432.207
630.620	18.312	1504.434	1430.265
631.634	18.214	1502.979	1427.891
632.649	18.388	1502.141	1428.383
633.663	18.350	1501.620	1427.398
634.678	18.524	1500.727	1427.832
635.693	18.649	1498.892	1426.960
636.707	18.905	1497.371	1427.483
637.722	18.930	1496.831	1427.001
638.736	19.074	1495.298	1426.569
639.751	19.089	1493.522	1424.827
640.766	19.050	1492.567	1423.420
641.780	18.995	1491.421	1421.707
642.795	18.946	1490.926	1420.654
643.809	18.959	1490.591	1420.272
644.824	18.938	1489.381	1418.775
645.839	18.770	1489.075	1416.923
646.853	18.811	1487.496	1415.590
647.868	18.908	1485.555	1414.375
648.882	18.859	1484.495	1412.793
649.897	18.847	1483.741	1411.805
650.912	18.848	1481.974	1409.965
651.926	18.742	1479.895	1406.943
652.941	18.722	1478.954	1405.717
653.955	18.621	1476.851	1402.715
654.970	18.466	1475.167	1399.677
655.985	18.527	1474.313	1399.201
656.999	18.563	1473.090	1398.166
658.014	18.700	1471.727	1397.831
659.028	18.733	1471.821	1398.024
660.043	18.744	1471.451	1397.596
661.058	18.850	1470.048	1396.961
662.072	18.872	1469.495	1396.443
663.087	18.886	1468.045	1395.012
664.101	18.772	1467.084	1393.006
665.116	18.781	1466.169	1392.046
666.131	18.900	1464.846	1391.587
667.145	18.905	1464.095	1390.745
668.160	18.991	1462.950	1390.192
669.174	19.133	1461.430	1389.736
670.189	19.158	1459.818	1388.236
671.204	18.827	1459.369	1384.959
672.218	18.995	1458.161	1385.015
673.233	19.139	1457.298	1385.193
674.247	19.142	1455.861	1383.682
675.262	19.242	1455.038	1383.543
676.276	19.053	1455.270	1382.072
677.291	19.013	1453.529	1379.930
678.306	18.950	1451.512	1377.339
679.320	18.995	1450.259	1376.349
680.335	19.077	1450.135	1376.726
681.349	19.090	1449.950	1376.492
682.364	19.046	1448.452	1374.551
683.379	19.112	1446.627	1373.185
684.393	18.919	1445.654	1370.548
685.408	18.924	1445.110	1369.911
686.422	19.051	1444.094	1369.798
687.437	19.065	1443.804	1369.469
688.452	19.038	1442.547	1367.899
689.466	19.021	1441.213	1366.335
690.481	18.947	1439.845	1364.285
691.495	18.732	1438.224	1360.873
692.510	18.502	1436.605	1357.345
693.525	18.218	1435.538	1353.915
694.539	18.428	1434.950	1354.870
695.554	18.643	1435.184	1356.637
696.568	19.086	1434.064	1358.936
697.583	19.131	1432.850	1357.977
698.598	19.114	1432.282	1357.145
699.612	19.248	1430.147	1356.017
700.627	19.181	1429.490	1354.700
701.641	19.146	1427.872	1352.733
702.656	19.121	1427.259	1351.788
703.671	19.178	1427.449	1352.259
704.685	19.164	1426.418	1351.006
705.700	19.131	1424.281	1348.566
706.714	18.999	1423.446	1346.575
707.729	19.103	1421.726	1345.602
708.744	19.030	1420.298	1343.520
709.758	18.919	1419.488	1341.723
710.773	18.830	1417.966	1339.423
711.787	18.786	1416.830	1337.848
712.802	18.793	1415.201	1336.203
713.816	18.934	1414.519	1336.499
714.831	19.167	1413.764	1337.442
715.846	19.166	1412.591	1336.170
716.860	19.146	1412.021	1335.309
717.875	19.181	1410.826	1334.297
718.889	18.952	1409.907	1331.483
719.904	19.186	1408.812	1332.110
720.919	19.331	1407.480	1331.816
721.933	19.357	1406.809	1331.221
722.948	19.366	1405.933	1330.309
723.962	19.375	1404.618	1328.970
724.977	19.409	1403.295	1327.822
725.992	19.589	1402.336	1328.153
727.006	19.342	1401.057	1324.872
728.021	19.253	1400.303	1323.309
729.035	19.400	1398.317	1322.413
730.050	19.306	1398.068	1321.296
731.065	19.458	1396.654	1320.969
732.079	19.539	1395.656	1320.490
733.094	19.460	1393.977	1318.136
734.108	19.412	1392.725	1316.426
735.123	19.418	1391.411	1315.074
736.138	19.405	1390.661	1314.108
737.152	19.443	1389.656	1313.294
738.167	19.533	1388.607	1312.832
739.181	19.629	1387.730	1312.580
740.196	19.445	1387.213	1310.524
741.211	19.285	1386.653	1308.622
742.225	19.293	1385.965	1307.873
743.240	19.279	1384.138	1305.887
744.254	19.495	1382.392	1305.726
745.269	19.371	1381.980	1304.234
746.284	19.281	1381.335	1302.791
747.298	19.151	1380.339	1300.708
748.313	18.861	1378.986	1297.074
749.327	18.769	1377.223	1294.562
750.342	18.510	1376.483	1291.754
751.356	18.488	1374.990	1290.028
752.371	18.644	1373.371	1289.533
753.386	18.977	1373.091	1291.634
754.400	19.320	1372.936	1293.918
755.415	19.383	1372.301	1293.644
756.429	19.523	1370.252	1292.612
757.444	19.280	1369.428	1289.850
758.459	19.548	1368.590	1290.921
759.473	19.634	1367.440	1290.331
760.488	19.595	1366.556	1289.047
761.502	19.558	1365.561	1287.679
762.517	19.406	1364.391	1285.279
763.532	19.428	1362.630	1283.633
764.546	19.318	1361.322	1281.421
765.561	19.136	1360.409	1279.054
766.575	18.867	1359.932	1276.447
767.590	18.737	1359.096	1274.538
768.605	19.112	1357.155	1275.360
769.619	19.224	1356.471	1275.394
770.634	19.223	1355.530	1274.351
771.648	19.410	1354.856	1274.953
772.663	19.440	1354.173	1274.381
773.678	19.613	1352.899	1274.315
774.692	19.581	1352.896	1273.917
775.707	19.497	1352.295	1272.575
776.721	19.618	1351.581	1272.650
777.736	19.538	1350.585	1270.970
778.751	19.569	1349.481	1270.007
779.765	19.557	1347.816	1268.201
780.780	19.588	1347.499	1267.978
781.794	19.438	1346.595	1265.871
782.809	19.554	1345.032	1265.103
783.824	19.423	1343.742	1262.776
784.838	19.240	1340.783	1258.495
785.853	18.782	1339.699	1253.969
786.867	18.847	1339.822	1254.410
787.882	19.099	1339.535	1255.841
788.897	19.029	1339.430	1255.078
789.911	19.208	1339.174	1256.004
790.926	19.319	1336.841	1254.473
791.940	19.323	1336.010	1253.576
792.955	19.328	1334.666	1252.203
793.969	19.367	1333.626	1251.355
794.984	19.467	1332.914	1251.266
795.999	19.611	1331.638	1250.968
797.013	19.601	1331.110	1250.252
798.028	19.581	1329.502	1248.447
799.042	19.758	1328.500	1248.643
800.057	19.595	1327.463	1246.336
801.072	19.695	1326.061	1245.596
802.086	19.742	1324.608	1244.418
803.101	19.748	1323.987	1243.732
804.115	19.638	1323.290	1242.131
805.130	19.708	1321.921	1241.207
806.145	19.751	1320.871	1240.376
807.159	19.632	1319.564	1238.145
808.174	19.464	1318.297	1235.601
809.188	19.415	1316.948	1233.834
810.203	19.526	1314.830	1232.503
811.218	19.392	1313.163	1229.832
812.232	19.249	1311.934	1227.511
813.247	19.046	1311.383	1225.391
814.261	19.247	1311.277	1226.584
815.276	19.439	1310.429	1227.017
816.291	19.527	1309.529	1226.653
817.305	19.672	1308.500	1226.578
818.320	19.725	1307.102	1225.498
819.334	19.722	1306.212	1224.495
820.349	19.752	1305.169	1223.591
821.364	19.635	1303.447	1220.994
822.378	19.769	1301.929	1220.380
823.393	19.787	1300.685	1219.197
824.407	19.683	1299.430	1217.133
825.422	19.810	1298.675	1217.179
826.437	19.786	1297.325	1215.597
827.451	19.488	1295.771	1211.896
828.466	19.089	1294.549	1207.794
829.480	19.038	1292.170	1205.073
830.495	19.125	1290.522	1204.000
831.509	19.355	1290.513	1205.466
832.524	19.321	1290.224	1204.810
833.539	19.453	1289.511	1204.932
834.553	19.527	1288.293	1204.166
835.568	19.706	1287.023	1204.088
836.582	19.799	1285.947	1203.588
837.597	19.731	1284.700	1201.798
838.612	19.852	1283.002	1200.914
839.626	19.603	1282.280	1198.357
840.641	19.434	1281.401	1196.216
841.655	19.493	1279.793	1194.981
842.670	19.290	1277.847	1191.607
843.685	18.898	1277.477	1188.395
844.699	19.307	1276.579	1190.263
845.714	19.340	1275.914	1189.726
846.728	19.655	1274.933	1190.855
847.743	19.802	1274.334	1191.165
848.758	19.638	1273.302	1188.927
849.772	19.627	1271.590	1187.112
850.787	19.723	1270.333	1186.455
851.801	19.684	1269.301	1185.082
852.816	19.557	1267.830	1182.691
853.831	19.550	1266.478	1181.241
854.845	19.603	1264.431	1179.558
855.860	19.517	1262.984	1177.474
856.874	19.471	1261.576	1175.708
857.889	19.323	1260.766	1173.796
858.904	19.052	1259.337	1170.476
859.918	18.895	1256.793	1166.900
860.933	18.735	1256.326	1165.236
861.947	19.075	1255.600	1166.739
862.962	19.245	1254.700	1166.920
863.977	19.293	1253.564	1166.049
864.991	19.301	1253.542	1165.946
866.006	19.405	1252.896	1165.911
867.020	19.676	1250.964	1165.810
868.035	19.760	1249.919	1165.263
869.049	19.840	1249.282	1165.076
870.064	19.781	1248.847	1164.128
871.079	19.768	1247.932	1163.050
872.093	19.729	1247.134	1161.902
873.108	19.731	1246.281	1160.981
874.122	19.473	1244.699	1157.632
875.137	19.474	1244.075	1156.918
876.152	19.299	1242.827	1154.439
877.166	19.483	1241.288	1154.111
878.181	19.795	1240.186	1155.046
879.195	19.691	1239.966	1154.000
880.210	19.828	1238.987	1153.873
881.225	19.699	1238.304	1152.230
882.239	19.828	1237.708	1152.404
883.254	19.811	1236.584	1151.108
884.268	19.816	1235.509	1150.000
885.283	19.770	1234.228	1148.364
886.298	19.820	1232.855	1147.283
887.312	19.680	1232.469	1145.852
888.327	19.720	1230.875	1144.496
889.341	19.958	1229.084	1144.277
890.356	19.554	1229.319	1141.675
891.371	19.715	1229.046	1142.354
892.385	19.640	1227.492	1140.276
893.400	19.546	1226.332	1138.443
894.414	19.595	1224.652	1137.070
895.429	19.355	1222.855	1133.674
896.444	19.006	1221.302	1129.797
897.458	18.703	1219.880	1126.352
898.473	18.830	1220.050	1127.212
899.487	19.274	1219.795	1129.767
900.502	19.485	1218.636	1129.947
901.517	19.721	1217.142	1129.976
902.531	19.777	1216.757	1129.854
903.546	19.839	1216.309	1129.706
904.560	19.702	1216.008	1128.390
905.575	19.808	1214.845	1127.873
906.589	19.761	1213.588	1126.262
907.604	19.835	1212.325	1125.441
