DTS Sentinel unit serial number:	SN409020Multiplexer serial number:	ORYXHardware model number:	OX4-SRSoftware version number:	ORYX F/W v3.00 Oryx Data Collector v3.7.2.0data status	okinstallation	HaddamTimeLapsedifferential loss correction	single-endedforward channel	channel 3reverse channel	N/Adate	2011/06/22time	04:06:17forward acquisition time	30.00reverse acquisition time	0.00gamma	498.7831k internal	0.1752k external	0.1752temperature offset calibration	1.0074default loss term (dB/km)	0.3790temperature slope calibration	1.3530multiplexer offset coefficient	1.0000multiplexer slope coefficient	1.0000fibre end	0.00T internal ref (°C)	22.53T ext. ref 1 (°C)	18.23T ext. ref 2 (°C)	0.10length (m)	temperature (°C)	Stokes	anti-Stokes-747.200	-71.317	-0.497	-0.246
-746.185	-49.967	0.149	-0.093
-745.171	-200.000	0.013	0.249
-744.156	-145.191	-0.507	0.060
-743.142	47.316	-0.248	-0.307
-742.127	-200.000	0.012	0.631
-741.112	-11.502	0.138	0.120
-740.098	221.329	0.187	0.401
-739.083	800.000	-0.064	-0.245
-738.069	25.325	-0.032	-0.035
-737.054	-200.000	-0.022	-0.360
-736.039	-106.104	-0.357	0.106
-735.025	-200.000	-0.002	0.114
-734.010	-129.498	-0.242	0.044
-732.996	800.000	-0.069	-0.298
-731.981	-85.710	-0.141	0.058
-730.966	-141.041	0.417	-0.056
-729.952	-18.061	0.058	-0.048
-728.937	170.903	-0.148	-0.282
-727.923	-113.342	0.196	0.051
-726.908	-200.000	-0.041	-0.347
-725.894	800.000	-0.149	0.634
-724.879	-186.631	-0.650	0.012
-723.864	-119.592	0.321	-0.073
-722.850	-62.255	0.008	-0.005
-721.835	800.000	0.039	0.196
-720.821	-93.430	-0.164	-0.060
-719.806	-7.135	0.125	0.113
-718.791	-114.471	0.269	-0.068
-717.777	714.894	-0.053	-0.187
-716.762	-21.986	0.150	-0.121
-715.748	-85.915	-0.138	0.056
-714.733	84.174	0.183	0.266
-713.718	-62.179	0.369	0.203
-712.704	-37.353	0.144	0.102
-711.689	20.770	-0.073	-0.078
-710.675	-109.872	-0.145	-0.040
-709.660	-10.439	-0.205	0.180
-708.645	-74.103	0.414	0.198
-707.631	212.284	-0.187	0.393
-706.616	2.552	-0.171	0.164
-705.602	92.156	-0.059	-0.089
-704.587	12.786	-0.429	-0.439
-703.572	-79.982	0.276	-0.122
-702.558	153.287	-0.092	-0.167
-701.543	-4.650	-0.131	-0.120
-700.529	-200.000	-0.026	0.193
-699.514	16.866	-0.215	0.225
-698.499	157.579	-0.140	0.257
-697.485	379.151	0.096	-0.261
-696.470	146.118	0.317	0.564
-695.456	-200.000	0.002	-0.171
-694.441	800.000	0.101	0.408
-693.426	-123.546	-0.248	-0.052
-692.412	-200.000	0.020	-0.216
-691.397	-58.224	-0.484	0.279
-690.383	-82.949	-0.256	0.109
-689.368	-181.124	0.314	-0.008
-688.354	-44.035	0.094	0.063
-687.339	632.271	-0.036	-0.121
-686.324	-3.129	-0.055	-0.051
-685.310	448.344	-0.089	-0.261
-684.295	101.410	-0.184	0.285
-683.281	212.352	-0.235	-0.492
-682.266	-140.317	-0.683	-0.094
-681.251	-124.287	0.150	0.031
-680.237	-127.717	0.505	-0.096
-679.222	-46.539	-0.453	-0.294
-678.208	-158.776	0.202	0.015
-677.193	-117.617	0.472	0.112
-676.178	-120.051	0.688	0.155
-675.164	233.257	-0.130	-0.284
-674.149	50.477	0.075	0.094
-673.135	121.498	-0.292	0.482
-672.120	800.000	-0.047	-0.254
-671.105	-116.524	0.253	0.061
-670.091	85.468	0.197	0.288
-669.076	-34.015	0.278	-0.202
-668.062	-73.171	-0.235	-0.114
-667.047	-83.179	0.145	-0.061
-666.032	-200.000	0.050	0.492
-665.018	-40.702	0.314	0.215
-664.003	-200.000	-0.010	-0.326
-662.989	-5.529	0.036	-0.032
-661.974	24.654	0.041	0.045
-660.959	800.000	-0.027	-0.120
-659.945	23.863	-0.198	-0.216
-658.930	-47.129	-0.289	-0.186
-657.916	-68.696	0.521	-0.266
-656.901	-32.131	0.193	0.143
-655.886	800.000	0.117	-0.545
-654.872	800.000	0.050	-0.235
-653.857	79.286	-0.161	-0.228
-652.843	-122.905	-0.097	0.021
-651.828	-123.289	0.032	-0.007
-650.814	1.613	0.061	0.058
-649.799	-99.984	0.167	0.055
-648.784	-98.215	0.727	-0.246
-647.770	-104.702	-0.291	-0.088
-646.755	800.000	-0.108	-0.502
-645.741	258.853	0.061	-0.139
-644.726	-91.915	0.327	-0.122
-643.711	-37.411	-0.150	0.106
-642.697	-23.188	0.148	-0.117
-641.682	162.456	0.112	-0.208
-640.668	25.468	-0.092	0.102
-639.653	-200.000	-0.020	-0.160
-638.638	133.729	0.459	-0.787
-637.624	-52.170	0.210	-0.129
-636.609	-87.192	0.215	0.086
-635.595	-21.610	0.297	0.239
-634.580	-200.000	0.024	-0.381
-633.565	-87.790	0.235	0.093
-632.551	546.656	0.042	-0.134
-631.536	-162.657	-0.472	-0.030
-630.522	-37.399	-0.099	0.070
-629.507	-200.000	-0.074	-0.455
-628.492	-200.000	-0.007	0.147
-627.478	800.000	0.135	0.600
-626.463	82.330	-0.024	-0.035
-625.449	64.483	0.159	0.211
-624.434	-99.755	0.106	-0.035
-623.419	-144.630	-0.226	0.027
-622.405	262.316	0.162	-0.373
-621.390	-144.575	0.327	-0.039
-620.376	-82.105	-0.354	-0.152
-619.361	-39.469	0.296	-0.205
-618.346	-120.684	-0.518	0.115
-617.332	-200.000	0.022	-0.285
-616.317	-41.519	0.280	-0.190
-615.303	76.122	0.201	-0.282
-614.288	428.750	0.098	-0.280
-613.273	-150.244	-0.181	0.018
-612.259	-131.016	-0.046	0.008
-611.244	355.872	-0.258	-0.681
-610.230	10.732	0.156	-0.157
-609.215	65.974	0.023	-0.030
-608.201	62.281	-0.132	0.174
-607.186	-33.532	0.104	-0.076
-606.171	-200.000	0.003	0.473
-605.157	73.949	-0.153	-0.212
-604.142	-38.136	-0.196	0.137
-603.128	800.000	-0.065	0.292
-602.113	-127.402	-0.273	-0.052
-601.098	-149.904	0.361	0.037
-600.084	-106.808	0.305	0.089
-599.069	-58.912	-0.432	-0.246
-598.055	-78.889	-0.336	-0.151
-597.040	19.267	-0.169	-0.179
-596.025	-200.000	0.001	-0.160
-595.011	170.303	0.186	-0.352
-593.996	-159.916	0.202	-0.014
-592.982	-172.554	0.379	-0.016
-591.967	-136.147	0.255	0.039
-590.952	331.346	-0.129	0.331
-589.938	-165.301	-0.349	-0.020
-588.923	-119.249	-0.300	-0.068
-587.909	-117.861	0.371	0.087
-586.894	80.178	0.493	-0.700
-585.879	-139.315	0.189	-0.027
-584.865	-200.000	0.013	0.279
-583.850	-12.227	-0.062	0.053
-582.836	-61.081	-0.085	-0.047
-581.821	-98.442	-0.250	-0.084
-580.806	-75.280	-0.193	0.090
-579.792	-111.344	0.243	-0.065
-578.777	-200.000	-0.009	0.148
-577.763	800.000	0.092	-0.368
-576.748	277.375	0.239	-0.563
-575.733	772.169	-0.143	-0.519
-574.719	-182.936	-0.124	-0.003
-573.704	-144.320	0.215	-0.026
-572.690	8.499	-0.017	-0.017
-571.675	637.538	-0.074	-0.250
-570.661	-127.783	-0.414	-0.078
-569.646	-64.765	-0.198	-0.105
-568.631	800.000	-0.060	0.233
-567.617	-63.943	0.271	-0.146
-566.602	263.621	-0.135	-0.311
-565.588	-111.895	0.345	-0.091
-564.573	-51.437	0.084	-0.052
-563.558	-200.000	0.006	-0.366
-562.544	105.655	0.168	0.263
-561.529	65.409	-0.160	0.213
-560.515	-24.020	-0.222	-0.175
-559.500	13.646	0.332	0.340
-558.485	731.381	-0.172	0.610
-557.471	-130.176	-0.176	0.031
-556.456	6.404	0.063	-0.062
-555.442	122.139	-0.101	0.166
-554.427	211.921	0.067	-0.140
-553.412	330.401	0.209	0.533
-552.398	-35.977	-0.460	0.327
-551.383	-18.794	-0.493	0.404
-550.369	-42.115	-0.436	0.293
-549.354	-193.436	-0.349	0.004
-548.339	-200.000	-0.076	0.452
-547.325	145.983	-0.171	-0.304
-546.310	-0.916	-0.174	0.162
-545.296	-105.544	-0.591	0.176
-544.281	-78.029	-0.264	-0.119
-543.266	176.223	-0.081	-0.155
-542.252	-130.905	0.411	-0.072
-541.237	-52.442	-0.126	-0.077
-540.223	116.311	-0.108	0.174
-539.208	-200.000	0.037	0.372
-538.193	-143.671	0.330	-0.041
-537.179	77.331	-0.106	0.149
-536.164	-22.276	-0.159	0.127
-535.150	-92.763	0.530	-0.194
-534.135	-150.272	0.665	0.067
-533.121	-200.000	-0.008	-0.175
-532.106	544.717	0.061	-0.193
-531.091	-104.541	0.528	-0.159
-530.077	-71.489	-0.318	-0.156
-529.062	33.324	-0.155	-0.177
-528.048	155.404	-0.042	-0.077
-527.033	211.873	0.075	-0.155
-526.018	3.182	0.299	0.286
-525.004	-200.000	-0.010	-0.106
-523.989	59.390	0.214	-0.278
-522.975	-26.188	-0.297	-0.229
-521.960	22.115	0.084	0.090
-520.945	-168.450	0.387	0.019
-519.931	800.000	0.039	-0.177
-518.916	-79.655	0.207	-0.092
-517.902	-136.845	0.657	-0.098
-516.887	49.087	0.555	-0.687
-515.872	16.901	-0.261	-0.272
-514.858	139.232	-0.125	0.217
-513.843	-139.011	-0.292	0.041
-512.829	-114.354	0.576	0.145
-511.814	603.247	0.075	-0.248
-510.799	-118.875	-0.219	0.050
-509.785	197.600	-0.119	0.239
-508.770	50.301	-0.205	0.255
-507.756	193.028	-0.144	0.288
-506.741	-66.070	-0.089	0.047
-505.726	101.485	0.172	0.263
-504.712	31.605	-0.168	-0.190
-503.697	800.000	-0.044	-0.220
-502.683	12.397	0.183	-0.186
-501.668	-16.615	0.297	-0.247
-500.653	-200.000	0.014	0.146
-499.639	144.572	-0.104	-0.183
-498.624	18.466	-0.414	-0.436
-497.610	132.014	-0.184	0.313
-496.595	47.683	0.044	0.053
-495.581	324.251	0.210	-0.529
-494.566	-86.537	0.062	0.025
-493.551	-98.193	-0.364	0.122
-492.537	-71.433	-0.142	-0.069
-491.522	-66.209	-0.220	0.115
-490.508	98.759	-0.359	0.545
-489.493	-79.169	0.039	0.017
-488.478	-129.451	0.579	-0.104
-487.464	-117.182	0.160	0.038
-486.449	399.134	-0.164	0.455
-485.435	-200.000	0.085	0.641
-484.420	4.988	-0.263	-0.254
-483.405	6.775	-0.110	-0.107
-482.391	608.854	0.101	-0.334
-481.376	58.105	0.339	-0.437
-480.362	-112.378	-0.352	0.092
-479.347	-116.658	-0.438	0.105
-478.332	-75.123	-0.492	0.230
-477.318	78.489	0.020	0.028
-476.303	-13.790	-0.091	0.078
-475.289	-200.000	0.008	0.192
-474.274	800.000	-0.047	0.196
-473.259	800.000	-0.020	-0.107
-472.245	-144.043	-0.336	0.041
-471.230	-114.823	0.323	-0.080
-470.216	800.000	-0.043	-0.177
-469.201	-176.411	-0.248	-0.008
-468.186	16.900	0.239	-0.249
-467.172	45.071	-0.053	0.065
-466.157	-200.000	0.023	0.470
-465.143	-200.000	-0.024	-0.192
-464.128	49.835	0.167	-0.207
-463.113	18.166	0.113	-0.119
-462.099	149.700	-0.086	-0.154
-461.084	76.031	0.144	0.201
-460.070	-115.297	0.284	0.070
-459.055	-75.334	0.219	0.102
-458.040	-22.960	-0.156	-0.123
-457.026	-54.909	-0.463	-0.273
-456.011	17.462	-0.168	-0.175
-454.997	-84.438	0.440	-0.182
-453.982	309.723	-0.099	-0.243
-452.968	800.000	-0.082	0.430
-451.953	500.818	0.197	0.600
-450.938	-90.598	0.210	0.079
-449.924	614.758	0.158	0.521
-448.909	-63.076	0.176	0.095
-447.895	209.987	0.177	0.366
-446.880	63.449	-0.060	-0.079
-445.865	697.542	0.060	-0.209
-444.851	-68.284	0.301	-0.153
-443.836	246.141	-0.131	-0.290
-442.822	-84.586	-0.128	0.053
-441.807	-45.042	0.501	0.326
-440.792	63.951	0.139	0.183
-439.778	-113.916	0.297	-0.075
-438.763	-200.000	0.011	0.575
-437.749	113.694	0.156	-0.248
-436.734	661.296	-0.017	0.057
-435.719	-118.790	-0.429	-0.098
-434.705	301.802	-0.071	0.173
-433.690	44.963	-0.329	0.398
-432.676	-32.237	-0.305	-0.223
-431.661	800.000	0.078	0.294
-430.646	-152.611	0.225	-0.021
-429.632	800.000	-0.042	-0.209
-428.617	120.386	0.179	-0.293
-427.603	243.700	-0.079	-0.175
-426.588	-75.285	0.319	-0.149
-425.573	708.953	0.018	0.062
-424.559	377.913	0.120	-0.323
-423.544	66.042	-0.217	-0.289
-422.530	-63.302	0.179	0.096
-421.515	31.791	-0.280	0.316
-420.500	424.210	0.083	0.235
-419.486	-52.702	-0.308	0.186
-418.471	800.000	0.132	0.492
-417.457	-200.000	0.014	0.445
-416.442	22.533	0.309	0.332
-415.428	53.335	-0.282	0.354
-414.413	-155.190	-0.009	-0.001
-413.398	193.194	-0.295	-0.586
-412.384	800.000	-0.076	0.331
-411.369	800.000	-0.033	0.161
-410.355	-148.934	-0.255	-0.027
-409.340	49.666	-0.181	-0.224
-408.325	78.888	0.202	0.284
-407.311	-180.351	-0.354	0.009
-406.296	51.283	0.223	0.277
-405.282	-96.439	0.434	0.149
-404.267	-104.299	0.113	-0.034
-403.252	75.290	-0.329	-0.455
-402.238	-60.334	0.373	0.207
-401.223	176.895	0.106	0.203
-400.209	-64.281	0.064	0.034
-399.194	800.000	0.087	0.323
-398.179	186.347	0.132	0.259
-397.165	1.636	-0.246	0.232
-396.150	-52.723	-0.338	-0.204
-395.136	-187.120	0.569	0.010
-394.121	332.823	0.153	-0.389
-393.106	-200.000	-0.011	0.160
-392.092	-59.396	0.154	0.086
-391.077	372.126	-0.101	-0.270
-390.063	-197.278	-0.399	0.003
-389.048	-123.259	0.189	0.039
-388.033	-52.133	-0.244	0.148
-387.019	122.577	0.117	-0.191
-386.004	-53.128	-0.426	0.256
-384.990	-143.662	0.158	0.019
-383.975	53.583	-0.117	-0.147
-382.960	-95.372	-0.659	0.231
-381.946	-1.701	0.337	-0.311
-380.931	189.522	0.085	0.167
-379.917	-31.156	-0.355	0.261
-378.902	-200.000	0.006	0.089
-377.888	-52.012	-0.485	0.294
-376.873	-70.676	-0.306	-0.151
-375.858	65.474	-0.095	-0.126
-374.844	468.161	0.054	-0.159
-373.829	-22.515	-0.070	0.055
-372.815	-200.000	0.002	0.196
-371.800	91.873	-0.182	0.268
-370.785	800.000	-0.151	-0.802
-369.771	-200.000	-0.069	0.425
-368.756	800.000	0.117	-0.473
-367.742	-200.000	-0.038	-0.450
-366.727	13.955	-0.150	0.153
-365.712	34.208	0.449	0.513
-364.698	-42.725	0.423	0.281
-363.683	-66.634	-0.144	0.074
-362.669	233.525	0.201	0.435
-361.654	774.564	-0.110	-0.396
-360.639	-107.473	-0.165	0.047
-359.625	412.313	-0.116	0.323
-358.610	-96.775	-0.502	-0.172
-357.596	46.687	-0.060	-0.073
-356.581	-112.329	0.235	-0.061
-355.566	-11.150	-0.184	0.158
-354.552	-45.486	0.279	0.180
-353.537	-141.934	0.272	-0.035
-352.523	-4.330	-0.209	-0.189
-351.508	-53.318	0.201	0.120
-350.493	-200.000	-0.005	-0.130
-349.479	-46.455	-0.441	-0.282
-348.464	-148.431	0.237	0.025
-347.450	-161.956	0.204	0.013
-346.435	-106.890	0.508	-0.146
-345.420	30.919	0.219	0.245
-344.406	-86.703	-0.393	0.157
-343.391	-200.000	-0.009	-0.263
-342.377	-55.675	-0.199	-0.116
-341.362	-103.137	-0.220	0.068
-340.348	8.844	-0.087	0.086
-339.333	48.959	0.504	-0.619
-338.318	-137.501	0.419	-0.061
-337.304	-13.401	-0.096	-0.082
-336.289	-60.962	-0.277	0.153
-335.275	-70.001	-0.336	-0.167
-334.260	-200.000	0.049	0.389
-333.245	-173.433	0.375	-0.015
-332.231	144.693	0.091	-0.159
-331.216	-200.000	0.002	0.102
-330.202	558.919	0.028	-0.089
-329.187	-50.297	0.369	0.227
-328.172	8.136	-0.277	-0.271
-327.158	0.213	-0.248	0.231
-326.143	346.763	-0.146	-0.378
-325.129	-200.000	0.009	0.334
-324.114	161.970	-0.040	-0.073
-323.099	200.994	0.102	-0.205
-322.085	-98.294	0.810	0.270
-321.070	90.897	0.112	-0.164
-320.056	-73.178	0.228	0.109
-319.041	-200.000	-0.006	0.462
-318.026	-24.686	0.309	0.240
-317.012	98.854	0.263	-0.397
-315.997	40.441	-0.124	0.146
-314.983	-15.289	0.466	0.389
-313.968	-103.697	-0.512	0.156
-312.953	346.738	-0.063	-0.162
-311.939	-113.031	-0.383	0.098
-310.924	79.986	0.291	0.409
-309.910	147.927	-0.143	-0.253
-308.895	31.544	0.239	-0.268
-307.880	55.679	-0.122	-0.154
-306.866	151.748	0.270	-0.482
-305.851	800.000	-0.055	-0.277
-304.837	-8.008	0.217	0.191
-303.822	549.883	0.091	-0.287
-302.807	9.566	-0.468	-0.462
-301.793	-113.092	0.294	0.075
-300.778	800.000	0.065	0.348
-299.764	-200.000	-0.016	0.417
-298.749	-65.387	0.217	-0.114
-297.735	566.392	0.082	-0.260
-296.720	800.000	-0.031	0.173
-295.705	-90.338	-0.284	-0.107
-294.691	30.810	-0.176	-0.196
-293.676	-130.190	0.204	0.036
-292.662	-139.305	-0.215	0.030
-291.647	237.915	-0.168	-0.366
-290.632	-162.511	-0.286	-0.018
-289.618	-39.479	0.234	0.160
-288.603	-9.614	0.468	0.406
-287.589	241.367	0.078	0.172
-286.574	182.317	-0.089	-0.173
-285.559	32.847	-0.121	0.137
-284.545	-200.000	-0.002	-0.336
-283.530	-181.375	0.175	0.004
-282.516	124.506	0.221	0.364
-281.501	-113.180	-0.114	-0.029
-280.486	281.804	0.055	0.129
-279.472	445.462	-0.113	0.324
-278.457	-179.791	-0.116	-0.003
-277.443	49.508	-0.068	0.083
-276.428	-106.234	0.288	0.084
-275.413	-82.861	0.227	-0.095
-274.399	-200.000	0.002	-0.103
-273.384	8.384	-0.140	-0.137
-272.370	372.309	0.048	-0.129
-271.355	-40.856	0.160	-0.108
-270.340	-30.126	0.435	0.322
-269.326	800.000	0.023	0.094
-268.311	202.798	0.166	-0.336
-267.297	95.368	0.164	0.244
-266.282	-74.265	0.358	0.168
-265.267	-53.106	-0.258	-0.154
-264.253	-25.335	0.028	-0.022
-263.238	-135.163	0.228	0.035
-262.224	-78.754	-0.174	0.077
-261.209	-99.738	-0.282	0.091
-260.195	800.000	0.007	-0.036
-259.180	-107.979	-0.406	0.114
-258.165	-135.501	-0.312	0.048
-257.151	-143.996	0.503	0.061
-256.136	146.475	-0.236	-0.414
-255.122	9.213	0.049	0.049
-254.107	630.426	-0.100	-0.333
-253.092	113.129	0.080	0.126
-252.078	-164.098	0.309	0.018
-251.063	37.487	-0.045	0.051
-250.049	-51.825	-0.297	0.180
-249.034	-170.661	0.144	0.006
-248.019	-200.000	-0.017	-0.126
-247.005	-200.000	-0.002	-0.020
-245.990	-133.596	-0.392	-0.063
-244.976	-200.000	-0.027	0.546
-243.961	5.035	0.134	-0.129
-242.946	-200.000	-0.025	0.216
-241.932	251.659	0.164	-0.366
-240.917	-105.771	-0.616	-0.180
-239.903	10.217	-0.265	0.262
-238.888	313.181	-0.081	-0.200
-237.873	-21.054	-0.713	-0.567
-236.859	-41.928	-0.129	-0.086
-235.844	-33.012	0.264	-0.191
-234.830	115.486	0.193	-0.308
-233.815	85.433	-0.058	0.083
-232.800	-98.350	-0.235	-0.078
-231.786	-200.000	0.045	-0.525
-230.771	-33.406	-0.282	0.203
-229.757	-145.601	-0.410	-0.047
-228.742	693.520	-0.038	0.129
-227.727	800.000	-0.071	-0.261
-226.713	-21.493	-0.303	0.240
-225.698	-133.030	0.305	-0.050
-224.684	-117.505	0.345	-0.081
-223.669	77.440	0.242	0.336
-222.655	13.283	0.089	0.090
-221.640	231.629	0.062	-0.133
-220.625	-196.025	0.602	0.005
-219.611	528.503	-0.046	0.141
-218.596	30.259	0.378	-0.419
-217.582	-200.000	0.044	-0.332
-216.567	145.541	0.276	-0.483
-215.552	113.841	0.223	0.354
-214.538	-16.734	0.373	0.306
-213.523	-71.502	0.132	-0.064
-212.509	-17.859	0.214	-0.174
-211.494	85.687	-0.063	0.090
-210.479	-125.662	0.145	-0.028
-209.465	-92.847	-0.440	-0.159
-208.450	-116.469	-0.139	0.033
-207.436	-200.000	-0.057	-0.394
-206.421	800.000	0.038	-0.158
-205.406	-26.689	-0.096	0.073
-204.392	800.000	-0.076	0.281
-203.377	-130.495	-0.307	0.053
-202.363	-11.822	-0.193	-0.164
-201.348	-33.093	-0.228	-0.164
-200.333	288.120	0.097	-0.229
-199.319	-200.000	0.008	0.104
-198.304	223.464	0.207	0.436
-197.290	-12.213	-0.231	0.196
-196.275	33.868	-0.155	-0.175
-195.260	348.517	0.246	-0.633
-194.246	-103.128	-0.337	-0.103
-193.231	-179.276	-0.229	-0.006
-192.217	-25.640	0.363	0.278
-191.202	-7.894	-0.293	0.257
-190.187	-97.672	-0.384	-0.128
-189.173	73.301	0.190	-0.258
-188.158	-89.222	0.412	0.157
-187.144	96.724	-0.269	0.401
-186.129	47.579	-0.389	0.472
-185.114	800.000	-0.103	0.460
-184.100	591.095	-0.138	0.446
-183.085	468.025	0.034	0.100
-182.071	10.964	-0.081	0.080
-181.056	-173.755	-0.328	0.012
-180.042	-192.557	0.354	-0.004
-179.027	167.694	-0.172	-0.318
-178.012	-5.442	0.230	0.205
-176.998	-200.000	-0.185	-0.000
-175.983	800.000	0.044	-0.200
-174.969	-200.000	-0.048	0.442
-173.954	-62.845	-0.332	-0.178
-172.939	-89.401	0.119	0.045
-171.925	-156.573	-0.096	-0.008
-170.910	-134.624	0.147	-0.023
-169.896	793.217	-0.043	-0.156
-168.881	-200.000	-0.031	-0.249
-167.866	63.884	-0.213	0.278
-166.852	-152.816	0.316	0.029
-165.837	-33.869	-0.417	0.298
-164.823	-16.909	-0.225	0.185
-163.808	-133.072	-0.283	0.046
-162.793	-140.039	-0.305	0.041
-161.779	8.639	0.148	0.145
-160.764	274.723	-0.133	0.308
-159.750	-147.408	0.303	0.033
-158.735	-153.874	-0.431	-0.038
-157.720	-200.000	0.005	0.391
-156.706	247.231	0.055	0.120
-155.691	-178.296	0.158	0.005
-154.677	800.000	-0.091	0.343
-153.662	-35.966	0.220	0.154
-152.647	116.661	0.164	-0.261
-151.633	-200.000	-0.018	0.275
-150.618	-78.367	0.195	-0.086
-149.604	58.034	-0.152	-0.193
-148.589	-150.284	-0.079	-0.008
-147.574	99.495	0.059	-0.089
-146.560	-45.412	0.115	0.074
-145.545	-164.867	0.530	-0.030
-144.531	800.000	-0.087	-0.354
-143.516	-89.402	-0.137	-0.052
-142.502	-200.000	0.003	0.180
-141.487	-150.601	0.277	0.027
-140.472	301.463	0.277	0.666
-139.458	-110.860	-0.411	0.109
-138.443	87.015	0.167	0.239
-137.429	-78.747	-0.259	-0.114
-136.414	-63.204	0.263	-0.140
-135.399	-145.531	-0.798	-0.092
-134.385	-117.692	-0.319	-0.074
-133.370	-147.277	-0.503	0.055
-132.356	-158.404	0.194	0.014
-131.341	-200.000	0.008	0.144
-130.326	-122.495	-0.528	0.110
-129.312	-10.758	0.321	0.275
-128.297	-200.000	-0.045	0.278
-127.283	-104.448	0.213	-0.063
-126.268	0.268	0.263	-0.244
-125.253	26.896	0.314	-0.341
-124.239	-92.735	0.302	0.109
-123.224	-174.290	0.162	-0.006
-122.210	-111.664	0.119	0.031
-121.195	-200.000	0.001	-0.339
-120.180	233.803	-0.154	-0.330
-119.166	-132.887	0.150	-0.025
-118.151	-69.117	0.169	0.084
-117.137	800.000	0.068	0.290
-116.122	199.959	0.240	-0.478
-115.107	167.291	0.105	-0.193
-114.093	-180.924	0.215	-0.006
-113.078	-200.000	-0.013	0.487
-112.064	-56.614	0.046	0.026
-111.049	-59.189	0.067	0.037
-110.034	102.952	-0.017	-0.026
-109.020	-79.008	-0.218	-0.096
-108.005	-111.949	-0.195	-0.051
-106.991	-55.149	-0.270	0.157
-105.976	343.805	0.177	0.451
-104.962	-85.269	0.515	-0.207
-103.947	63.034	-0.313	-0.407
-102.932	-143.266	-0.385	-0.047
-101.918	48.550	-0.246	-0.298
-100.903	-2.555	0.206	0.187
-99.889	-50.880	0.303	0.184
-98.874	0.087	0.177	0.163
-97.859	-170.652	0.350	0.015
-96.845	-200.000	0.029	0.413
-95.830	16.302	-0.211	-0.216
-94.816	800.000	0.102	0.560
-93.801	-55.059	0.390	0.226
-92.786	-200.000	0.238	-0.001
-91.772	800.000	0.047	0.226
-90.757	-173.894	0.362	0.014
-89.743	-200.000	-0.339	-0.001
-88.728	800.000	-0.094	0.422
-87.713	-195.670	-0.209	0.002
-86.699	-157.370	0.228	-0.018
-85.684	-145.158	0.344	-0.040
-84.670	-200.000	0.034	0.206
-83.655	-7.960	0.215	-0.188
-82.640	-200.000	0.036	-0.291
-81.626	406.153	0.039	-0.106
-80.611	-145.506	-0.456	0.052
-79.597	65.186	0.265	0.347
-78.582	387.322	-0.188	0.504
-77.567	-88.488	0.259	-0.100
-76.553	9.026	-0.130	0.127
-75.538	-145.430	-0.364	-0.042
-74.524	740.072	0.023	0.081
-73.509	-115.072	0.249	0.061
-72.494	-200.000	0.011	0.139
-71.480	154.721	-0.075	0.134
-70.465	-200.000	0.091	0.662
-69.451	-82.464	-0.113	0.047
-68.436	-52.159	-0.124	-0.074
-67.422	800.000	0.122	0.493
-66.407	10.728	-0.200	0.197
-65.392	-22.901	-0.391	-0.304
-64.378	12.003	0.241	-0.239
-63.363	95.682	-0.319	-0.471
-62.349	-87.396	0.308	-0.120
-61.334	-10.984	-2.659	-2.266
-60.319	14.823	1.209	1.222
-59.305	309.907	-3.247	-7.885
-58.290	73.411	3.793	5.137
-57.276	389.066	3.855	10.369
-56.261	-200.000	24.218	316.446
-55.246	356.586	1300.220	3363.776
-54.232	53.197	2842.219	3520.994
-53.217	51.659	2659.471	3270.715
-52.203	31.837	2388.984	2658.882
-51.188	27.852	2054.800	2237.867
-50.173	24.501	1940.634	2074.387
-49.159	23.331	1929.509	2048.827
-48.144	22.842	1924.796	2038.058
-47.130	22.929	1921.499	2035.503
-46.115	22.756	1920.224	2032.069
-45.100	22.676	1918.856	2029.608
-44.086	22.713	1918.507	2029.595
-43.071	22.827	1915.511	2027.660
-42.057	22.764	1914.108	2025.361
-41.042	22.832	1912.669	2024.544
-40.027	22.744	1911.665	2022.390
-39.013	22.685	1909.946	2019.812
-37.998	22.705	1908.946	2018.897
-36.984	22.666	1907.690	2017.044
-35.969	22.667	1906.151	2015.353
-34.954	22.663	1905.033	2014.044
-33.940	22.671	1903.862	2012.811
-32.925	22.650	1902.098	2010.627
-31.911	22.655	1901.230	2009.685
-30.896	22.574	1900.504	2007.909
-29.881	22.616	1899.089	2006.816
-28.867	22.635	1897.160	2004.919
-27.852	22.684	1895.309	2003.442
-26.838	22.551	1894.181	2000.655
-25.823	22.587	1892.569	1999.278
-24.809	22.616	1891.915	1998.838
-23.794	22.523	1890.555	1996.272
-22.779	22.513	1889.454	1994.915
-21.765	22.532	1888.636	1994.188
-20.750	22.486	1887.277	1992.153
-19.736	22.423	1885.937	1989.933
-18.721	22.557	1884.142	1989.486
-17.706	22.500	1883.671	1988.258
-16.692	22.408	1882.688	1986.101
-15.677	22.522	1880.954	1985.488
-14.663	22.541	1879.192	1983.762
-13.648	22.495	1877.952	1981.854
-12.633	22.369	1877.330	1979.699
-11.619	22.470	1876.187	1979.548
-10.604	22.398	1874.363	1976.735
-9.590	22.403	1873.767	1976.091
-8.575	22.424	1872.319	1974.716
-7.560	22.516	1870.618	1973.886
-6.546	22.317	1870.526	1971.467
-5.531	22.251	1869.406	1969.468
-4.517	22.436	1867.339	1969.288
-3.502	22.401	1866.413	1967.837
-2.487	22.496	1865.873	1968.259
-1.473	22.658	1862.042	1965.954
-0.458	22.450	1844.065	1944.587
0.556	19.217	1991.331	2049.022
1.571	17.942	2194.187	2240.676
2.586	18.550	2234.398	2289.629
3.600	18.645	2236.729	2293.015
4.615	18.609	2236.069	2291.576
5.629	18.653	2233.865	2289.643
6.644	18.648	2230.825	2286.185
7.659	18.551	2230.810	2284.588
8.673	18.576	2227.614	2281.384
9.688	18.346	2237.056	2287.685
10.702	17.468	2316.506	2356.441
11.717	16.171	2382.067	2404.267
12.731	8.046	2362.554	2268.430
13.746	1.022	2344.278	2150.635
14.761	0.248	2339.273	2134.758
15.775	0.085	2337.702	2130.743
16.790	0.040	2336.412	2128.683
17.804	0.108	2334.573	2127.719
18.819	0.062	2333.613	2125.931
19.834	0.073	2332.450	2124.769
20.848	0.097	2330.944	2123.492
21.863	-0.004	2329.583	2120.565
22.877	-0.040	2327.994	2118.348
23.892	-0.024	2325.528	2116.083
24.907	0.003	2322.946	2113.863
25.921	-0.024	2321.075	2111.517
26.936	0.032	2318.199	2109.444
27.950	-0.023	2315.830	2106.255
28.965	0.015	2314.646	2105.469
29.980	0.102	2312.736	2104.692
30.994	0.102	2310.566	2102.477
32.009	4.241	2323.879	2172.710
33.023	13.726	2350.565	2331.993
34.038	17.491	2357.127	2391.494
35.053	17.729	2355.019	2392.421
36.067	17.814	2352.297	2390.570
37.082	17.861	2350.154	2388.766
38.096	17.929	2348.755	2388.007
39.111	18.005	2346.225	2386.220
40.126	18.218	2343.540	2386.185
41.140	18.176	2342.884	2384.650
42.155	18.192	2340.541	2382.204
43.169	18.056	2339.092	2378.544
44.184	18.020	2335.339	2373.932
45.199	17.955	2334.072	2371.450
46.213	17.953	2332.961	2370.016
47.228	18.080	2331.729	2370.251
48.242	18.098	2330.624	2369.101
49.257	18.137	2328.172	2366.862
50.271	18.215	2324.947	2364.383
51.286	18.060	2323.053	2360.019
52.301	18.047	2321.596	2358.081
53.315	18.473	2322.644	2364.775
54.330	20.070	2327.296	2391.403
55.344	21.154	2327.179	2406.019
56.359	21.346	2322.693	2403.747
57.374	21.417	2322.631	2404.374
58.388	21.489	2320.361	2402.732
59.403	21.415	2316.535	2397.459
60.417	21.329	2314.212	2393.590
61.432	21.432	2312.291	2392.730
62.447	21.624	2311.090	2393.836
63.461	21.680	2309.075	2392.238
64.476	21.860	2306.654	2391.904
65.490	21.627	2305.936	2387.686
66.505	21.083	2302.450	2376.338
67.520	19.676	2296.698	2350.891
68.534	18.435	2290.518	2327.357
69.549	18.235	2286.594	2320.360
70.563	18.028	2284.767	2315.410
71.578	18.104	2283.293	2314.683
72.593	18.090	2281.773	2312.670
73.607	18.291	2280.191	2313.521
74.622	18.272	2278.305	2311.076
75.636	18.134	2274.353	2304.911
76.651	18.058	2273.323	2302.568
77.666	18.222	2270.916	2302.066
78.680	18.080	2269.379	2298.326
79.695	18.163	2265.536	2295.268
80.709	18.063	2264.958	2293.069
81.724	18.101	2263.443	2291.762
82.739	18.036	2261.305	2288.454
83.753	18.070	2259.009	2286.309
84.768	18.076	2257.025	2284.107
85.782	17.959	2256.293	2281.520
86.797	17.977	2253.625	2278.804
87.812	17.934	2252.004	2276.313
88.826	18.050	2249.081	2274.633
89.841	18.068	2246.898	2272.391
90.855	18.058	2245.474	2270.550
91.870	17.990	2243.930	2267.812
92.884	17.976	2241.277	2264.669
93.899	17.887	2241.029	2262.964
94.914	18.359	2241.927	2269.885
95.928	19.913	2246.335	2294.805
96.943	20.423	2244.235	2299.167
97.957	18.955	2237.033	2272.030
98.972	18.085	2232.632	2255.762
99.987	18.020	2229.653	2251.621
101.001	17.943	2226.808	2247.456
102.016	17.975	2225.037	2245.823
103.030	17.973	2222.918	2243.385
104.045	18.028	2220.945	2241.854
105.060	18.055	2218.654	2239.634
106.074	18.101	2216.594	2237.891
107.089	17.858	2215.617	2233.443
108.103	17.979	2214.442	2233.582
109.118	18.018	2212.912	2232.275
110.133	18.104	2211.317	2231.527
111.147	18.058	2209.506	2228.832
112.162	18.088	2208.191	2227.632
113.176	18.037	2205.624	2224.107
114.191	18.098	2204.122	2223.125
115.206	18.122	2202.110	2221.144
116.220	18.116	2199.984	2218.655
117.235	18.049	2197.315	2214.819
118.249	18.094	2195.701	2213.518
119.264	18.087	2194.677	2212.129
120.279	18.073	2193.159	2210.161
121.293	18.132	2190.619	2208.092
122.308	18.216	2189.211	2207.504
123.322	18.100	2188.899	2205.421
124.337	18.276	2189.130	2207.671
125.352	19.981	2193.955	2234.403
126.366	20.376	2191.960	2237.223
127.381	18.731	2184.113	2207.707
128.395	18.116	2178.816	2194.154
129.410	18.025	2176.890	2190.775
130.424	18.148	2175.187	2190.389
131.439	18.018	2174.621	2187.883
132.454	17.987	2173.088	2185.681
133.468	18.127	2169.315	2183.420
134.483	18.088	2167.972	2181.306
135.497	18.111	2167.518	2180.880
136.512	18.045	2164.813	2177.051
137.527	18.075	2162.267	2174.617
138.541	17.941	2161.589	2171.965
139.556	17.998	2161.410	2172.252
140.570	17.975	2160.124	2170.400
141.585	17.854	2158.076	2166.535
142.600	17.866	2156.474	2164.830
143.614	18.057	2154.372	2164.893
144.629	18.052	2152.641	2162.824
145.643	17.823	2151.818	2158.835
146.658	17.860	2150.311	2157.530
147.673	17.864	2147.573	2154.580
148.687	17.947	2146.735	2154.526
149.702	18.040	2144.874	2153.577
150.716	17.919	2144.749	2151.664
151.731	17.942	2143.488	2150.432
152.746	18.058	2142.405	2150.563
153.760	18.443	2143.853	2156.628
154.775	20.039	2147.312	2180.048
155.789	20.469	2145.400	2183.285
156.804	18.921	2137.422	2155.412
157.819	18.120	2132.214	2139.829
158.833	18.050	2128.958	2135.424
159.848	17.982	2128.496	2133.852
160.862	18.151	2126.847	2134.059
161.877	18.239	2125.894	2133.958
162.892	18.248	2124.037	2131.941
163.906	18.141	2123.191	2129.501
164.921	18.086	2120.618	2125.981
165.935	18.210	2118.272	2124.925
166.950	18.146	2116.952	2122.545
167.964	18.053	2114.274	2118.449
168.979	17.956	2113.173	2115.878
169.994	17.979	2112.323	2115.065
171.008	17.969	2110.436	2112.802
172.023	17.956	2108.423	2110.367
173.037	18.058	2108.184	2111.140
174.052	18.032	2105.663	2108.038
175.067	18.027	2103.976	2106.036
176.081	18.144	2102.402	2105.665
177.096	18.080	2102.235	2104.453
178.110	18.084	2099.561	2101.567
179.125	17.997	2098.854	2099.534
180.140	18.002	2097.897	2098.387
181.154	18.138	2095.673	2097.593
182.169	18.050	2095.053	2095.631
183.183	18.453	2095.674	2100.966
184.198	20.238	2099.578	2126.649
185.213	20.634	2097.051	2128.712
186.227	18.931	2090.829	2101.230
187.242	18.075	2087.661	2087.300
188.256	18.073	2085.575	2084.939
189.271	18.066	2084.649	2083.671
190.286	18.092	2082.955	2082.051
191.300	18.058	2080.097	2078.523
192.315	18.006	2077.854	2075.408
193.329	18.194	2076.821	2076.419
194.344	18.295	2075.820	2076.397
195.359	18.269	2075.007	2075.019
196.373	18.142	2072.733	2070.953
197.388	18.112	2070.203	2067.812
198.402	18.079	2068.541	2065.498
199.417	18.010	2066.346	2062.226
200.432	18.036	2064.838	2060.791
201.446	18.144	2063.529	2060.543
202.461	17.997	2061.746	2056.742
203.475	17.989	2060.548	2055.197
204.490	18.017	2059.035	2053.787
205.504	18.140	2056.388	2052.381
206.519	18.003	2053.824	2047.927
207.534	18.089	2051.739	2046.635
208.548	18.118	2050.549	2045.562
209.563	18.055	2050.172	2044.180
210.577	17.982	2048.393	2041.281
211.592	17.989	2048.059	2040.786
212.607	19.004	2051.069	2055.738
213.621	20.916	2055.501	2082.933
214.636	20.487	2050.741	2072.718
215.650	18.548	2045.105	2043.570
216.665	17.976	2041.647	2033.023
217.680	18.238	2038.794	2033.074
218.694	18.220	2036.982	2030.806
219.709	18.037	2036.570	2027.965
220.723	18.068	2035.015	2026.549
221.738	18.059	2033.411	2024.601
222.753	18.061	2031.075	2022.053
223.767	18.031	2029.944	2020.325
224.782	18.033	2027.449	2017.626
225.796	18.080	2025.821	2016.325
226.811	18.200	2025.036	2016.730
227.826	18.098	2023.571	2013.820
228.840	18.099	2022.706	2012.723
229.855	18.166	2020.561	2011.145
230.869	18.097	2019.672	2009.202
231.884	18.038	2017.500	2006.104
232.899	18.087	2015.304	2004.263
233.913	17.997	2015.522	2003.177
234.928	18.094	2013.696	2002.265
235.942	18.192	2011.647	2001.135
236.957	18.042	2010.394	1997.895
237.972	18.046	2009.968	1997.269
238.986	18.201	2008.077	1996.973
240.001	18.125	2006.303	1994.082
241.015	17.994	2004.872	1990.887
242.030	18.451	2006.634	1997.753
243.045	19.991	2009.596	2018.520
244.059	20.204	2006.499	2017.658
245.074	18.643	1999.899	1992.569
246.088	18.068	1996.877	1982.626
247.103	18.188	1994.407	1981.333
248.117	18.132	1993.778	1979.815
249.132	18.099	1991.448	1976.886
250.147	18.069	1990.219	1975.080
251.161	18.025	1988.152	1972.280
252.176	18.249	1987.702	1974.188
253.190	18.365	1984.873	1972.492
254.205	18.179	1984.070	1969.302
255.220	18.273	1981.975	1968.073
256.234	18.234	1981.381	1966.800
257.249	18.156	1980.109	1964.406
258.263	17.986	1980.043	1962.140
259.278	18.065	1978.225	1961.009
260.293	18.164	1975.932	1959.642
261.307	17.953	1975.414	1956.470
262.322	18.045	1972.583	1954.491
263.336	18.031	1970.182	1951.715
264.351	17.957	1968.996	1949.454
265.366	17.891	1967.976	1947.453
266.380	18.056	1966.769	1947.914
267.395	17.985	1966.040	1946.145
268.409	17.939	1963.723	1943.095
269.424	17.989	1961.849	1941.583
270.439	18.013	1961.442	1941.222
271.453	18.519	1962.479	1947.793
272.468	20.238	1965.308	1970.007
273.482	20.211	1962.875	1967.030
274.497	18.667	1955.004	1941.363
275.512	18.092	1952.013	1931.635
276.526	18.097	1950.083	1929.549
277.541	18.025	1947.705	1926.145
278.555	18.066	1946.598	1925.281
279.570	17.832	1944.944	1920.768
280.585	17.945	1943.082	1919.982
281.599	18.063	1942.160	1920.169
282.614	18.101	1941.401	1919.615
283.628	18.305	1939.391	1919.697
284.643	18.375	1939.061	1919.938
285.657	18.389	1938.567	1919.371
286.672	18.390	1937.197	1917.797
287.687	18.390	1934.346	1914.744
288.701	18.219	1934.027	1912.286
289.716	18.242	1931.793	1910.101
290.730	18.070	1931.274	1907.433
291.745	18.330	1929.086	1907.956
292.760	18.342	1927.384	1906.171
293.774	18.106	1927.939	1903.857
294.789	18.221	1925.499	1902.503
295.803	18.162	1924.210	1900.345
296.818	18.136	1922.092	1897.734
297.833	18.005	1921.499	1895.456
298.847	17.970	1919.969	1893.335
299.862	18.086	1917.903	1892.362
300.876	18.507	1917.998	1896.915
301.891	20.292	1922.088	1920.610
302.906	20.689	1920.127	1922.831
303.920	18.949	1913.847	1897.030
304.935	18.331	1910.785	1886.922
305.949	18.103	1908.410	1881.828
306.964	18.085	1908.276	1881.267
307.979	18.106	1906.299	1879.325
308.993	18.103	1903.797	1876.602
310.008	18.248	1902.836	1877.037
311.022	18.323	1901.519	1876.338
312.037	18.369	1900.533	1875.648
313.052	18.356	1899.258	1874.016
314.066	18.306	1896.616	1870.642
315.081	18.232	1895.913	1868.912
316.095	18.253	1894.722	1867.740
317.110	18.144	1892.795	1864.423
318.125	18.138	1891.752	1863.108
319.139	18.183	1890.150	1861.796
320.154	18.248	1888.738	1860.896
321.168	18.246	1887.386	1859.314
322.183	18.159	1886.003	1856.784
323.197	18.073	1884.954	1854.592
324.212	18.004	1882.677	1851.377
325.227	17.979	1880.321	1848.571
326.241	17.977	1879.505	1847.519
327.256	18.043	1878.384	1846.915
328.270	17.921	1877.219	1844.225
329.285	18.018	1877.815	1845.639
330.300	18.688	1880.193	1855.037
331.314	20.605	1882.069	1877.493
332.329	20.453	1877.642	1871.201
333.343	18.732	1871.924	1846.692
334.358	18.064	1869.253	1836.623
335.373	18.178	1867.128	1835.549
336.387	18.153	1865.226	1833.192
337.402	18.050	1863.921	1830.573
338.416	18.009	1863.136	1829.139
339.431	18.136	1861.450	1828.632
340.446	18.256	1860.223	1828.503
341.460	18.100	1859.006	1825.415
342.475	18.343	1856.229	1825.072
343.489	18.423	1855.402	1824.894
344.504	18.301	1854.955	1822.928
345.519	18.365	1853.259	1821.726
346.533	18.444	1851.325	1820.453
347.548	18.439	1850.437	1819.306
348.562	18.375	1849.060	1817.051
349.577	18.297	1848.212	1815.173
350.592	18.436	1846.687	1814.939
351.606	18.372	1845.370	1812.744
352.621	18.211	1844.436	1809.901
353.635	18.122	1842.196	1806.537
354.650	18.061	1840.545	1804.059
355.665	18.121	1838.598	1802.571
356.679	18.043	1837.872	1800.819
357.694	18.150	1836.065	1799.958
358.708	18.066	1835.519	1798.326
359.723	19.028	1837.793	1810.518
360.738	20.776	1839.971	1830.940
361.752	20.078	1837.089	1820.481
362.767	18.479	1830.972	1797.359
363.781	18.145	1828.341	1791.047
364.796	18.104	1827.468	1789.544
365.810	18.018	1825.711	1786.711
366.825	18.085	1824.182	1785.701
367.840	18.047	1824.766	1785.661
368.854	18.189	1823.410	1785.609
369.869	18.099	1820.813	1781.909
370.883	18.021	1819.294	1779.391
371.898	18.042	1818.152	1778.284
372.913	18.212	1816.694	1778.419
373.927	18.079	1815.726	1775.876
374.942	18.142	1814.395	1775.013
375.956	18.128	1812.748	1773.047
376.971	18.072	1811.266	1770.804
377.986	17.914	1809.693	1767.409
379.000	17.994	1808.781	1767.139
380.015	18.215	1806.692	1767.175
381.029	18.316	1805.191	1766.551
382.044	18.352	1803.326	1764.888
383.059	18.134	1802.063	1761.179
384.073	18.032	1801.106	1758.977
385.088	18.078	1800.088	1758.249
386.102	18.110	1797.013	1755.365
387.117	17.891	1796.711	1752.602
388.132	17.928	1795.943	1752.025
389.146	18.584	1798.711	1761.288
390.161	20.449	1801.593	1783.160
391.175	20.422	1795.348	1776.492
392.190	18.529	1789.242	1750.825
393.205	18.235	1785.820	1744.249
394.219	18.003	1784.800	1740.667
395.234	18.054	1784.884	1741.065
396.248	18.053	1781.871	1737.905
397.263	18.083	1779.679	1735.865
398.278	18.036	1778.317	1733.852
399.292	18.003	1778.105	1733.106
400.307	18.183	1776.568	1733.227
401.321	18.312	1775.848	1733.629
402.336	18.197	1774.546	1730.984
403.350	18.239	1773.261	1729.946
404.365	18.372	1771.624	1729.495
405.380	18.516	1770.367	1729.520
406.394	18.496	1769.561	1728.326
407.409	18.416	1767.911	1725.695
408.423	18.331	1766.982	1723.720
409.438	18.342	1765.054	1721.745
410.453	18.232	1764.463	1719.850
411.467	18.390	1763.233	1720.049
412.482	18.313	1761.078	1716.965
413.496	18.171	1760.155	1714.424
414.511	18.276	1757.790	1712.976
415.526	18.075	1756.092	1709.093
416.540	18.146	1754.747	1708.294
417.555	18.073	1753.784	1706.420
418.569	18.028	1753.834	1705.807
419.584	18.119	1753.975	1706.653
420.599	18.102	1752.704	1705.042
421.613	18.057	1751.922	1703.632
422.628	18.055	1751.354	1702.853
423.642	18.092	1749.094	1700.825
424.657	18.104	1747.051	1698.755
425.672	18.089	1745.403	1696.798
426.686	18.100	1744.063	1695.399
427.701	17.956	1743.066	1692.795
428.715	17.987	1741.445	1691.322
429.730	18.067	1739.660	1690.180
430.745	18.167	1738.820	1690.156
431.759	18.150	1738.350	1689.328
432.774	18.265	1737.574	1689.513
433.788	18.260	1737.074	1688.772
434.803	18.290	1736.323	1688.141
435.818	18.183	1736.103	1686.661
436.832	18.084	1734.833	1684.248
437.847	17.361	1728.642	1670.902
438.861	9.842	1708.890	1577.964
439.876	1.935	1693.044	1485.918
440.890	0.435	1688.882	1467.426
441.905	0.306	1687.585	1464.864
442.920	0.234	1686.643	1463.175
443.934	0.134	1685.981	1461.443
444.949	0.259	1684.089	1460.845
445.963	0.115	1683.474	1458.736
446.978	0.050	1683.531	1457.977
447.993	0.192	1681.447	1457.378
449.007	0.164	1678.830	1454.667
450.022	0.162	1677.271	1453.118
451.036	0.105	1676.843	1452.028
452.051	1.234	1680.829	1466.270
453.066	8.991	1698.577	1557.507
454.080	16.613	1709.573	1642.009
455.095	17.889	1710.769	1655.413
456.109	18.053	1711.314	1657.335
457.124	18.097	1710.362	1656.646
458.139	18.122	1709.353	1655.712
459.153	18.058	1707.757	1653.342
460.168	18.098	1705.914	1651.754
461.182	18.135	1704.548	1650.590
462.197	18.067	1703.075	1648.306
463.212	18.100	1701.278	1646.694
464.226	18.066	1700.276	1645.195
465.241	18.075	1698.736	1643.599
466.255	18.145	1697.819	1643.190
467.270	18.194	1696.619	1642.305
468.285	18.193	1694.651	1640.191
469.299	18.043	1693.981	1637.902
470.314	18.260	1691.720	1637.606
471.328	18.106	1691.205	1635.431
472.343	18.029	1690.559	1633.871
473.358	18.176	1688.605	1633.193
474.372	18.169	1687.916	1632.265
475.387	18.128	1686.218	1630.036
476.401	18.172	1684.335	1628.440
477.416	18.150	1683.607	1627.339
478.430	18.079	1682.610	1625.497
479.445	18.091	1681.344	1624.190
480.460	18.060	1680.199	1622.599
481.474	18.054	1679.170	1621.353
482.489	18.154	1677.633	1620.623
483.503	18.209	1675.831	1619.220
484.518	18.264	1674.153	1617.924
485.533	18.344	1672.839	1617.215
486.547	18.207	1672.172	1615.079
487.562	18.225	1671.143	1614.064
488.576	18.320	1669.828	1613.499
489.591	18.052	1668.933	1609.908
490.606	18.214	1666.501	1608.902
491.620	18.342	1664.302	1607.795
492.635	18.248	1663.785	1606.208
493.649	18.339	1662.331	1605.477
494.664	18.231	1661.408	1603.375
495.679	18.135	1659.821	1600.749
496.693	18.189	1659.114	1600.380
497.708	18.121	1657.686	1598.169
498.722	18.254	1656.187	1597.784
499.737	18.271	1654.702	1596.316
500.752	18.206	1653.775	1594.624
501.766	18.141	1652.288	1592.394
502.781	17.993	1651.321	1589.885
503.795	18.137	1649.163	1588.960
504.810	18.169	1648.057	1588.002
505.825	18.241	1647.661	1588.111
506.839	18.135	1647.104	1586.390
507.854	18.203	1644.777	1584.590
508.868	18.200	1643.847	1583.483
509.883	18.268	1642.472	1582.596
510.898	18.228	1641.329	1580.937
511.912	18.166	1639.793	1578.690
512.927	18.035	1637.592	1575.166
513.941	18.070	1636.844	1574.585
514.956	18.118	1635.327	1573.382
515.971	18.251	1633.790	1572.940
516.985	18.052	1633.406	1570.544
518.000	18.019	1632.954	1569.616
519.014	18.147	1632.169	1569.861
520.029	18.089	1630.751	1567.769
521.043	18.267	1628.564	1567.119
522.058	18.291	1626.918	1565.571
523.073	18.256	1625.837	1564.021
524.087	18.270	1625.929	1564.050
525.102	18.285	1624.326	1562.458
526.116	18.202	1623.005	1560.242
527.131	18.123	1622.404	1558.752
528.146	18.283	1620.982	1558.659
529.160	18.387	1619.389	1557.895
530.175	18.291	1618.767	1556.233
531.189	18.414	1617.449	1555.903
532.204	18.304	1615.984	1553.306
533.219	18.258	1615.139	1551.888
534.233	18.127	1614.342	1549.742
535.248	18.237	1613.555	1549.806
536.262	18.432	1611.825	1549.730
537.277	18.381	1610.944	1548.231
538.292	18.370	1608.652	1545.743
539.306	18.231	1607.571	1543.261
540.321	18.164	1606.571	1541.507
541.335	18.248	1605.400	1540.966
542.350	18.437	1602.907	1540.088
543.365	18.381	1601.374	1537.927
544.379	18.360	1600.763	1536.969
545.394	18.275	1599.454	1534.762
546.408	18.245	1598.438	1533.330
547.423	18.274	1597.008	1532.042
548.438	18.223	1595.633	1530.075
549.452	18.352	1594.811	1530.266
550.467	18.318	1593.469	1528.489
551.481	18.238	1592.911	1527.050
552.496	18.243	1592.979	1526.981
553.511	18.319	1591.333	1525.903
554.525	18.390	1589.398	1524.500
555.540	18.391	1588.742	1523.692
556.554	18.514	1587.441	1523.365
557.569	18.308	1586.435	1520.381
558.583	18.298	1584.211	1517.972
559.598	18.376	1582.826	1517.161
560.613	18.296	1582.608	1516.059
561.627	18.268	1581.811	1514.863
562.642	18.275	1579.420	1512.455
563.656	18.478	1578.322	1513.023
564.671	18.337	1577.312	1510.627
565.686	18.247	1575.969	1508.360
566.700	18.334	1574.132	1507.192
567.715	18.265	1572.707	1505.040
568.729	18.217	1571.272	1503.057
569.744	18.242	1570.558	1502.414
570.759	18.261	1569.176	1501.086
571.773	18.227	1568.206	1499.679
572.788	18.236	1566.764	1498.196
573.802	18.265	1565.566	1497.126
574.817	18.323	1564.494	1496.433
575.832	18.251	1563.616	1494.783
576.846	18.310	1562.387	1493.943
577.861	18.287	1561.225	1492.454
578.875	18.466	1560.385	1493.036
579.890	18.462	1558.842	1491.351
580.905	18.405	1558.185	1490.044
581.919	18.374	1558.199	1489.609
582.934	18.461	1556.851	1488.898
583.948	18.314	1555.319	1485.970
584.963	18.340	1554.351	1485.099
585.978	18.341	1553.646	1484.253
586.992	18.315	1552.902	1483.142
588.007	18.337	1551.349	1481.669
589.021	18.403	1549.496	1480.294
590.036	18.368	1548.233	1478.611
591.051	18.394	1546.859	1477.344
592.065	18.405	1544.967	1475.455
593.080	18.407	1544.329	1474.686
594.094	18.382	1542.943	1472.971
595.109	18.358	1540.698	1470.446
596.123	18.285	1539.196	1468.204
597.138	18.364	1538.956	1468.488
598.153	18.401	1538.193	1467.902
599.167	18.354	1536.139	1465.356
600.182	18.497	1535.423	1465.728
601.196	18.495	1534.842	1464.986
602.211	18.368	1533.594	1462.521
603.226	18.539	1531.361	1461.685
604.240	18.476	1530.081	1459.753
605.255	18.489	1529.270	1458.912
606.269	18.468	1528.561	1457.886
607.284	18.393	1527.283	1455.846
608.299	18.424	1525.769	1454.497
609.313	18.457	1525.342	1454.197
610.328	18.393	1524.064	1452.258
611.342	18.487	1522.715	1451.602
612.357	18.484	1521.814	1450.540
613.372	18.467	1520.059	1448.554
614.386	18.418	1519.720	1447.641
615.401	18.444	1519.510	1447.487
616.415	18.600	1517.689	1446.898
617.430	18.518	1516.624	1445.018
618.445	18.493	1515.286	1443.354
619.459	18.369	1514.876	1441.745
620.474	18.340	1513.355	1439.880
621.488	18.249	1512.032	1437.684
622.503	18.203	1511.121	1436.254
623.518	18.285	1509.488	1435.224
624.532	18.378	1508.053	1434.466
625.547	18.452	1507.594	1434.483
626.561	18.530	1506.615	1434.036
627.576	18.574	1505.468	1433.143
628.591	18.446	1503.967	1430.465
629.605	18.279	1502.652	1427.646
630.620	18.334	1501.252	1426.607
631.634	18.304	1500.444	1425.410
632.649	18.310	1499.074	1423.989
633.663	18.245	1498.872	1423.089
634.678	18.362	1497.506	1422.595
635.693	18.473	1495.555	1421.501
636.707	18.383	1494.607	1419.680
637.722	18.558	1493.932	1420.321
638.736	18.728	1492.504	1420.207
639.751	18.630	1491.375	1418.153
640.766	18.561	1490.194	1416.283
641.780	18.634	1489.078	1415.660
642.795	18.562	1488.590	1414.431
643.809	18.693	1487.641	1414.443
644.824	18.473	1487.331	1412.155
645.839	18.598	1485.713	1411.487
646.853	18.590	1484.411	1410.018
647.868	18.550	1482.889	1408.071
648.882	18.661	1480.452	1406.506
649.897	18.687	1479.641	1405.777
650.912	18.496	1479.028	1403.454
651.926	18.528	1477.652	1402.246
652.941	18.526	1476.880	1401.325
653.955	18.399	1475.190	1398.516
654.970	18.511	1473.000	1397.189
655.985	18.472	1471.834	1395.597
656.999	18.425	1471.383	1394.618
658.014	18.529	1470.176	1394.159
659.028	18.560	1469.558	1393.657
660.043	18.541	1468.607	1392.435
661.058	18.579	1466.974	1391.024
662.072	18.638	1466.167	1390.579
663.087	18.645	1464.898	1389.264
664.101	18.572	1463.859	1387.519
665.116	18.529	1462.926	1386.116
666.131	18.636	1462.193	1386.126
667.145	18.506	1460.943	1383.723
668.160	18.613	1459.263	1382.830
669.174	18.497	1458.324	1380.835
670.189	18.561	1457.581	1380.485
671.204	18.619	1456.621	1379.876
672.218	18.430	1455.734	1377.344
673.233	18.485	1454.652	1376.606
674.247	18.530	1453.320	1375.537
675.262	18.692	1451.863	1375.298
676.276	18.636	1451.153	1374.015
677.291	18.578	1450.627	1372.884
678.306	18.587	1449.076	1371.323
679.320	18.484	1448.527	1369.812
680.335	18.607	1447.708	1369.863
681.349	18.636	1446.298	1368.597
682.364	18.661	1444.949	1367.353
683.379	18.461	1443.617	1364.328
684.393	18.376	1442.449	1362.384
685.408	18.608	1441.735	1363.402
686.422	18.461	1441.172	1361.530
687.437	18.522	1440.516	1361.234
688.452	18.599	1439.532	1360.761
689.466	18.572	1437.273	1358.241
690.481	18.464	1435.838	1355.867
691.495	18.409	1435.295	1354.757
692.510	18.375	1433.918	1353.024
693.525	18.264	1432.402	1350.549
694.539	18.243	1431.877	1349.730
695.554	18.323	1431.732	1350.066
696.568	18.529	1430.773	1350.625
697.583	18.579	1429.662	1349.811
698.598	18.667	1428.713	1349.450
699.612	18.734	1427.005	1348.207
700.627	18.488	1426.339	1345.472
701.641	18.725	1424.848	1345.770
702.656	18.691	1423.594	1344.163
703.671	18.726	1423.453	1344.140
704.685	18.645	1423.334	1343.231
705.700	18.730	1421.531	1342.039
706.714	18.652	1419.884	1339.712
707.729	18.663	1418.565	1338.393
708.744	18.734	1416.836	1337.154
709.758	18.716	1415.785	1335.862
710.773	18.547	1415.410	1334.029
711.787	18.527	1413.664	1332.068
712.802	18.459	1411.924	1329.737
713.816	18.592	1411.320	1330.042
714.831	18.521	1410.363	1328.431
715.846	18.614	1409.870	1328.535
716.860	18.574	1408.987	1327.229
717.875	18.662	1407.418	1326.276
718.889	18.728	1406.357	1325.628
719.904	18.823	1405.047	1324.975
720.919	18.710	1404.402	1323.327
721.933	18.838	1404.004	1323.791
722.948	18.776	1403.139	1322.335
723.962	18.808	1401.813	1321.170
724.977	18.891	1400.410	1320.336
725.992	18.804	1399.163	1318.325
727.006	18.839	1397.915	1317.269
728.021	18.650	1397.049	1314.836
729.035	18.855	1395.379	1314.680
730.050	18.786	1394.718	1313.376
731.065	18.735	1394.011	1312.162
732.079	18.803	1393.020	1311.588
733.094	18.754	1391.832	1309.936
734.108	18.804	1389.713	1308.168
735.123	18.876	1387.805	1306.771
736.138	18.874	1387.137	1305.964
737.152	18.773	1386.383	1304.330
738.167	18.788	1385.442	1303.407
739.181	18.723	1385.284	1302.601
740.196	18.751	1384.314	1301.750
741.211	18.712	1383.202	1300.251
742.225	18.802	1381.824	1299.486
743.240	18.831	1380.385	1298.198
744.254	18.675	1379.673	1296.188
745.269	18.698	1378.242	1294.864
746.284	18.580	1378.168	1293.745
747.298	18.609	1376.730	1292.458
748.313	18.496	1375.229	1290.035
749.327	18.452	1374.495	1288.862
750.342	18.451	1373.098	1287.394
751.356	18.452	1372.185	1286.389
752.371	18.496	1370.522	1285.005
753.386	18.532	1370.410	1285.018
754.400	18.627	1370.139	1285.329
755.415	19.027	1368.494	1286.634
756.429	18.823	1367.292	1283.818
757.444	18.863	1366.294	1283.027
758.459	18.745	1365.395	1281.149
759.473	18.954	1364.304	1281.538
760.488	18.819	1363.600	1279.712
761.502	18.859	1361.865	1278.229
762.517	18.697	1361.499	1276.518
763.532	18.715	1360.082	1275.171
764.546	18.679	1358.675	1273.430
765.561	18.679	1358.586	1273.202
766.575	18.619	1357.146	1271.248
767.590	18.554	1355.801	1269.354
768.605	18.695	1354.542	1269.074
769.619	18.801	1353.333	1268.570
770.634	18.861	1351.836	1267.462
771.648	18.952	1351.215	1267.404
772.663	18.986	1351.230	1267.514
773.678	18.832	1350.538	1265.579
774.692	18.918	1349.059	1264.674
775.707	18.824	1349.012	1263.786
776.721	18.973	1348.127	1263.906
777.736	18.936	1346.857	1262.287
778.751	18.855	1345.578	1260.345
779.765	18.779	1344.516	1258.636
780.780	18.854	1343.966	1258.522
781.794	18.914	1342.489	1257.435
782.809	18.692	1341.924	1255.122
783.824	18.731	1340.451	1253.883
784.838	18.642	1338.518	1251.265
785.853	18.427	1338.061	1249.116
786.867	18.327	1338.074	1248.249
787.882	18.473	1337.274	1248.422
788.897	18.542	1336.553	1248.100
789.911	18.582	1335.310	1247.081
790.926	18.618	1334.351	1246.301
791.940	18.597	1333.334	1245.053
792.955	18.627	1331.533	1243.435
793.969	18.611	1330.884	1242.565
794.984	18.780	1329.531	1242.385
795.999	18.862	1328.621	1241.978
797.013	18.867	1326.754	1240.124
798.028	18.833	1325.099	1238.184
799.042	18.835	1325.595	1238.511
800.057	18.871	1324.081	1237.205
801.072	18.819	1323.088	1235.758
802.086	18.905	1321.579	1234.818
803.101	18.803	1320.932	1233.334
804.115	18.863	1319.988	1232.734
805.130	18.823	1318.968	1231.346
806.145	18.918	1317.763	1230.761
807.159	18.867	1316.558	1229.121
808.174	18.767	1315.163	1226.950
809.188	19.013	1313.192	1226.728
810.203	18.826	1311.835	1223.975
811.218	18.812	1311.076	1223.021
812.232	18.425	1309.759	1218.875
813.247	18.495	1308.948	1218.478
814.261	18.643	1308.574	1219.041
815.276	18.605	1307.560	1217.683
816.291	18.806	1306.607	1218.079
817.305	18.981	1305.702	1218.339
818.320	18.946	1303.797	1216.165
819.334	18.991	1302.509	1215.140
820.349	18.965	1300.923	1213.325
821.364	19.078	1299.474	1212.634
822.378	19.019	1298.093	1210.779
823.393	19.000	1296.851	1209.343
824.407	18.990	1296.079	1208.409
825.422	18.849	1296.036	1207.223
826.437	18.882	1294.865	1206.224
827.451	18.755	1292.748	1203.215
828.466	18.282	1291.893	1198.943
829.480	18.500	1289.359	1197.978
830.495	18.495	1287.529	1196.104
831.509	18.602	1288.125	1197.263
832.524	18.663	1287.488	1196.955
833.539	18.714	1286.018	1195.798
834.553	18.715	1285.144	1194.850
835.568	18.999	1283.779	1195.425
836.582	18.950	1282.976	1194.191
837.597	19.060	1281.423	1193.367
838.612	18.970	1280.367	1191.614
839.626	18.924	1279.203	1190.074
840.641	18.898	1278.122	1188.744
841.655	18.670	1277.546	1186.482
842.670	18.656	1276.270	1185.056
843.685	18.553	1275.432	1183.422
844.699	18.813	1273.495	1183.284
845.714	18.894	1272.210	1182.508
846.728	18.776	1272.271	1181.606
847.743	18.945	1270.531	1181.014
848.758	18.983	1269.559	1180.234
849.772	18.943	1268.553	1178.879
850.787	18.924	1267.010	1177.173
851.801	18.933	1265.972	1176.133
852.816	18.822	1264.872	1174.210
853.831	18.804	1263.171	1172.364
854.845	18.689	1261.580	1169.956
855.860	18.701	1260.094	1168.526
856.874	18.802	1258.473	1167.567
857.889	18.692	1257.392	1165.676
858.904	18.508	1255.706	1162.721
859.918	18.494	1254.236	1161.126
860.933	18.495	1253.329	1160.154
861.947	18.543	1251.999	1159.106
862.962	18.562	1251.409	1158.556
863.977	18.671	1250.297	1158.125
864.991	18.839	1249.310	1158.208
866.006	18.810	1249.405	1157.960
867.020	18.861	1248.345	1157.190
868.035	18.881	1247.452	1156.358
869.049	19.080	1246.112	1156.318
870.064	19.014	1245.048	1154.746
871.079	18.953	1244.830	1153.996
872.093	18.944	1244.246	1153.258
873.108	19.098	1242.734	1152.753
874.122	19.012	1241.158	1150.574
875.137	18.877	1241.041	1149.423
876.152	18.995	1239.910	1149.028
877.166	19.110	1238.467	1148.326
878.181	19.055	1237.256	1146.696
879.195	19.083	1237.120	1146.624
880.210	18.991	1236.315	1145.120
881.225	19.128	1234.538	1144.257
882.239	19.005	1234.102	1142.892
883.254	19.005	1233.631	1142.320
884.268	19.106	1232.416	1141.729
885.283	19.015	1231.164	1139.827
886.298	18.980	1229.555	1137.967
887.312	18.913	1228.688	1136.583
888.327	19.058	1227.303	1136.128
889.341	19.016	1226.078	1134.582
890.356	18.916	1225.470	1133.223
891.371	18.918	1225.181	1132.829
892.385	18.846	1224.539	1131.626
893.400	18.907	1223.292	1130.740
894.414	18.922	1222.161	1129.662
895.429	18.891	1220.243	1127.548
896.444	18.707	1217.985	1124.117
897.458	18.578	1217.555	1122.733
898.473	18.633	1217.445	1122.863
899.487	18.721	1216.709	1122.629
900.502	18.923	1215.734	1122.920
901.517	18.943	1214.593	1121.860
902.531	19.161	1213.564	1122.203
903.546	19.192	1212.984	1121.735
904.560	19.063	1212.238	1120.070
905.575	19.067	1211.090	1118.899
906.589	19.120	1209.936	1118.049
907.604	19.148	1209.269	1117.476
