DTS Sentinel unit serial number:	SN409020Multiplexer serial number:	ORYXHardware model number:	OX4-SRSoftware version number:	ORYX F/W v3.00 Oryx Data Collector v3.7.2.0data status	okinstallation	HaddamTimeLapsedifferential loss correction	single-endedforward channel	channel 3reverse channel	N/Adate	2011/06/21time	22:11:17forward acquisition time	30.00reverse acquisition time	0.00gamma	498.7831k internal	0.1758k external	0.1758temperature offset calibration	1.0074default loss term (dB/km)	0.3790temperature slope calibration	1.3530multiplexer offset coefficient	1.0000multiplexer slope coefficient	1.0000fibre end	0.00T internal ref (°C)	24.62T ext. ref 1 (°C)	18.98T ext. ref 2 (°C)	0.04length (m)	temperature (°C)	Stokes	anti-Stokes-747.200	-97.602	-0.201	-0.068
-746.185	-200.000	-0.058	0.778
-745.171	-200.000	-0.027	0.527
-744.156	-148.412	0.107	-0.011
-743.142	-61.565	-0.239	-0.132
-742.127	-200.000	-0.077	0.515
-741.112	236.140	-0.163	0.357
-740.098	-200.000	0.034	0.390
-739.083	-142.112	-0.196	0.025
-738.069	-2.928	-0.258	0.238
-737.054	21.855	-0.444	-0.478
-736.039	-58.071	-0.235	0.135
-735.025	-200.000	-0.015	-0.481
-734.010	110.015	0.105	-0.166
-732.996	-114.675	0.435	-0.109
-731.981	531.980	-0.115	0.361
-730.966	16.144	-0.194	-0.202
-729.952	-100.692	0.397	0.129
-728.937	-106.947	-0.386	0.112
-727.923	-45.808	-0.329	-0.215
-726.908	-124.662	-0.323	0.066
-725.894	-74.256	-0.295	0.140
-724.879	-16.608	0.256	-0.214
-723.864	125.916	-0.193	0.323
-722.850	-61.304	0.103	-0.057
-721.835	-5.003	-0.092	0.084
-720.821	800.000	-0.063	0.252
-719.806	-30.715	0.392	0.293
-718.791	-78.433	0.171	0.077
-717.777	-200.000	-0.024	0.474
-716.762	75.934	0.621	-0.868
-715.748	-110.857	-0.296	0.080
-714.733	-30.211	0.181	0.135
-713.718	472.166	-0.100	0.300
-712.704	198.555	-0.036	0.073
-711.689	-49.744	0.152	0.095
-710.675	13.080	0.361	-0.369
-709.660	-64.817	0.345	-0.184
-708.645	-61.047	-0.243	-0.135
-707.631	-122.007	-0.710	-0.153
-706.616	-200.000	0.079	-0.507
-705.602	173.019	-0.030	0.058
-704.587	-80.308	0.364	0.160
-703.572	-112.428	0.093	0.024
-702.558	146.930	-0.060	-0.108
-701.543	800.000	-0.097	-0.379
-700.529	173.393	-0.190	0.364
-699.514	18.036	0.205	0.215
-698.499	800.000	0.101	-0.550
-697.485	-66.803	-0.199	-0.104
-696.470	-74.268	-0.550	0.262
-695.456	-128.185	-0.318	-0.059
-694.441	-138.873	-0.096	-0.014
-693.426	-200.000	0.042	-0.397
-692.412	20.739	0.242	0.259
-691.397	-200.000	-0.044	0.342
-690.383	18.892	-0.036	-0.038
-689.368	-4.113	-0.304	-0.278
-688.354	-174.853	-0.327	0.012
-687.339	106.703	0.227	0.356
-686.324	735.562	0.072	-0.257
-685.310	-60.818	0.160	-0.089
-684.295	102.613	-0.373	-0.577
-683.281	397.018	-0.119	0.330
-682.266	-169.826	-0.396	0.019
-681.251	200.648	-0.087	-0.177
-680.237	-36.949	-0.168	0.118
-679.222	131.040	-0.173	0.293
-678.208	571.447	0.035	0.114
-677.193	-101.209	-0.086	-0.027
-676.178	800.000	0.057	-0.269
-675.164	38.819	-0.203	0.239
-674.149	-81.791	0.235	0.101
-673.135	47.729	0.058	-0.071
-672.120	210.941	0.276	0.575
-671.105	9.974	-0.210	-0.211
-670.091	133.754	-0.072	0.124
-669.076	438.291	-0.072	-0.208
-668.062	-200.000	-0.025	-0.332
-667.047	-46.817	0.071	-0.046
-666.032	-110.785	0.167	-0.045
-665.018	-52.463	-0.515	-0.313
-664.003	657.882	0.084	-0.288
-662.989	-113.983	-0.329	-0.083
-661.974	378.542	0.029	-0.079
-660.959	-31.323	0.316	0.234
-659.945	492.162	-0.171	-0.518
-658.930	360.363	-0.056	0.148
-657.916	81.541	-0.180	0.257
-656.901	194.915	-0.117	0.235
-655.886	-200.000	-0.043	0.414
-654.872	-26.018	-0.043	0.033
-653.857	-200.000	-0.001	0.303
-652.843	-64.730	0.219	-0.116
-651.828	800.000	0.011	0.051
-650.814	305.201	0.257	0.633
-649.799	800.000	0.030	-0.115
-648.784	-82.716	-0.051	0.021
-647.770	-50.640	0.292	-0.181
-646.755	5.433	-0.358	0.348
-645.741	-77.503	-0.042	-0.019
-644.726	7.958	-0.165	-0.163
-643.711	-55.893	0.055	0.032
-642.697	-200.000	0.032	-0.282
-641.682	760.571	-0.133	-0.478
-640.668	-32.610	-0.222	-0.163
-639.653	-106.864	0.200	0.058
-638.638	-18.058	-0.020	-0.016
-637.624	-96.182	-0.365	-0.127
-636.609	-27.783	-0.183	-0.140
-635.595	-144.040	0.361	-0.044
-634.580	172.186	0.182	-0.347
-633.565	34.711	0.157	0.180
-632.551	-200.000	-0.027	-0.446
-631.536	-63.855	0.174	-0.093
-630.522	439.212	0.125	-0.361
-629.507	800.000	0.089	0.391
-628.492	-106.529	0.471	0.137
-627.478	238.797	0.278	-0.611
-626.463	-171.338	-0.276	-0.012
-625.449	-105.343	-0.434	-0.129
-624.434	-200.000	0.088	-0.581
-623.419	-31.593	-0.407	0.301
-622.405	-30.479	0.343	0.256
-621.390	-188.435	0.198	0.003
-620.376	-103.196	0.232	0.072
-619.361	173.260	-0.199	-0.379
-618.346	142.854	-0.087	-0.153
-617.332	-66.744	-0.261	0.135
-616.317	212.137	0.164	0.342
-615.303	-200.000	-0.037	0.332
-614.288	-85.133	-0.384	0.157
-613.273	-35.793	-0.253	0.180
-612.259	-0.640	-0.047	-0.044
-611.244	220.529	-0.158	0.335
-610.230	800.000	0.003	0.017
-609.215	-191.297	-0.560	-0.007
-608.201	581.633	0.074	-0.242
-607.186	-200.000	-0.004	-0.034
-606.171	162.816	-0.213	0.394
-605.157	177.733	0.128	0.247
-604.142	155.764	0.079	0.144
-603.128	135.846	-0.032	-0.055
-602.113	-145.409	0.410	-0.048
-601.098	68.634	0.291	0.393
-600.084	210.938	-0.193	-0.400
-599.069	-66.171	-0.197	-0.103
-598.055	-117.449	-0.271	-0.064
-597.040	188.639	-0.030	0.060
-596.025	250.165	-0.080	-0.179
-595.011	-8.252	-0.196	-0.173
-593.996	-74.599	0.243	0.115
-592.982	800.000	0.053	0.272
-591.967	22.882	-0.246	0.265
-590.952	800.000	0.014	-0.077
-589.938	54.555	0.249	-0.316
-588.923	800.000	-0.081	-0.345
-587.909	-200.000	-0.004	0.502
-586.894	-44.676	0.380	0.249
-585.879	64.388	-0.232	-0.307
-584.865	44.544	-0.061	0.074
-583.850	620.784	-0.072	0.239
-582.836	119.737	0.142	0.231
-581.821	228.369	-0.073	-0.156
-580.806	-152.325	-0.333	0.031
-579.792	-200.000	0.029	-0.328
-578.777	-200.000	0.054	0.372
-577.763	-134.233	0.072	-0.011
-576.748	800.000	0.009	0.038
-575.733	-200.000	-0.005	-0.430
-574.719	-200.000	-0.023	-0.269
-573.704	218.855	-0.256	-0.539
-572.690	340.865	-0.049	-0.125
-571.675	15.568	0.443	0.457
-570.661	70.748	-0.369	-0.502
-569.646	515.203	0.071	-0.220
-568.631	-82.380	0.384	-0.163
-567.617	-200.000	-0.037	-0.419
-566.602	-12.306	0.153	0.131
-565.588	800.000	0.104	0.443
-564.573	-92.908	-0.204	0.075
-563.558	-25.619	-0.110	-0.085
-562.544	-52.677	0.098	0.060
-561.529	357.070	-0.075	0.198
-560.515	-200.000	-0.033	-0.302
-559.500	126.523	0.260	-0.433
-558.485	195.926	-0.169	-0.338
-557.471	800.000	-0.102	-0.382
-556.456	687.585	0.073	-0.252
-555.442	11.839	0.104	0.105
-554.427	125.643	-0.167	-0.278
-553.412	30.203	-0.125	-0.140
-552.398	-62.110	0.110	-0.060
-551.383	-164.675	0.304	-0.018
-550.369	-84.710	0.240	0.099
-549.354	-114.630	0.274	-0.068
-548.339	-50.316	-0.191	0.118
-547.325	61.660	0.294	-0.385
-546.310	187.268	-0.085	0.168
-545.296	-200.000	-0.009	0.107
-544.281	-49.277	-0.156	-0.098
-543.266	-47.033	-0.030	0.019
-542.252	-200.000	-0.013	-0.391
-541.237	-200.000	0.159	-0.001
-540.223	-47.250	0.357	-0.228
-539.208	-151.627	-0.149	-0.014
-538.193	-136.109	-0.481	-0.073
-537.179	-38.489	-0.115	0.080
-536.164	-200.000	-0.009	0.060
-535.150	-30.560	0.186	0.138
-534.135	72.696	-0.096	-0.131
-533.121	-143.279	-0.158	-0.020
-532.106	-124.413	0.484	-0.098
-531.091	-169.840	-0.179	0.008
-530.077	-173.339	-0.372	0.015
-529.062	-45.133	-0.336	-0.219
-528.048	82.759	-0.283	0.404
-527.033	30.614	-0.203	-0.228
-526.018	-118.431	-0.217	0.050
-525.004	-65.161	-0.336	0.177
-523.989	-34.070	0.139	-0.100
-522.975	-170.833	-0.492	0.022
-521.960	-200.000	-0.009	0.345
-520.945	144.488	0.171	-0.300
-519.931	-72.180	-0.110	-0.053
-518.916	594.553	-0.063	-0.205
-517.902	363.943	0.039	-0.102
-516.887	562.740	0.100	0.320
-515.872	800.000	0.040	0.149
-514.858	214.769	0.133	-0.278
-513.843	-200.000	-0.032	0.341
-512.829	-200.000	-0.014	0.100
-511.814	-94.363	-0.401	0.143
-510.799	800.000	0.061	-0.341
-509.785	-171.318	0.600	0.026
-508.770	-64.190	0.252	-0.134
-507.756	-70.174	-0.084	-0.042
-506.741	37.944	-0.187	-0.218
-505.726	-70.261	-0.121	0.060
-504.712	163.103	-0.089	-0.165
-503.697	-139.448	-0.536	0.075
-502.683	-73.061	-0.314	-0.150
-501.668	-200.000	0.044	0.260
-500.653	-200.000	0.028	-0.177
-499.639	-177.845	0.258	0.008
-498.624	97.597	-0.234	-0.352
-497.610	501.557	0.110	-0.335
-496.595	-114.500	-0.021	-0.005
-495.581	12.282	0.220	-0.222
-494.566	34.890	-0.012	-0.014
-493.551	-42.204	-0.211	-0.141
-492.537	44.143	0.054	-0.065
-491.522	-185.607	0.419	0.008
-490.508	-18.739	0.181	-0.148
-489.493	-179.340	-0.054	0.002
-488.478	-74.537	-0.435	-0.205
-487.464	347.536	0.073	-0.190
-486.449	215.245	0.260	-0.543
-485.435	125.989	0.266	-0.441
-484.420	-107.390	-0.430	0.123
-483.405	-1.222	-0.409	0.378
-482.391	119.793	0.129	0.211
-481.376	-129.677	0.067	-0.012
-480.362	-19.724	-0.250	0.202
-479.347	-200.000	0.044	-0.439
-478.332	166.848	-0.040	-0.074
-477.318	155.290	0.260	-0.470
-476.303	44.967	-0.209	-0.252
-475.289	17.401	0.202	0.210
-474.274	-200.000	-0.017	-0.117
-473.259	556.453	-0.199	-0.630
-472.245	-110.356	0.173	-0.047
-471.230	-102.046	0.233	-0.073
-470.216	-164.791	-0.476	-0.028
-469.201	-93.192	-0.643	-0.233
-468.186	-106.824	0.117	-0.034
-467.172	-136.876	0.397	-0.059
-466.157	-127.551	0.154	-0.029
-465.143	-141.275	-0.178	0.023
-464.128	-200.000	0.040	0.628
-463.113	51.049	-0.122	0.152
-462.099	-200.000	-0.478	0.003
-461.084	-69.042	-0.238	-0.119
-460.070	-9.437	-0.325	-0.284
-459.055	-93.772	0.168	-0.060
-458.040	28.274	0.177	-0.195
-457.026	-80.701	0.471	0.204
-456.011	206.769	0.023	0.047
-454.997	-200.000	-0.019	-0.292
-453.982	273.126	0.041	0.096
-452.968	36.600	-0.171	-0.198
-451.953	58.286	-0.072	0.092
-450.938	-65.214	-0.155	-0.081
-449.924	102.022	0.155	0.238
-448.909	28.425	-0.350	0.387
-447.895	-110.639	0.254	0.068
-446.880	-98.961	-0.379	-0.125
-445.865	-108.262	0.152	0.043
-444.851	800.000	0.198	0.728
-443.836	-200.000	-0.005	0.477
-442.822	-67.577	0.084	0.043
-441.807	76.329	-0.070	0.097
-440.792	800.000	-0.043	-0.175
-439.778	-160.356	0.224	0.016
-438.763	-200.000	-0.001	0.417
-437.749	-108.690	-0.105	0.029
-436.734	187.058	0.196	0.384
-435.719	-200.000	0.018	-0.451
-434.705	44.825	-0.169	-0.203
-433.690	169.915	-0.082	0.153
-432.676	-128.974	0.380	-0.069
-431.661	800.000	-0.100	0.416
-430.646	-121.948	-0.275	-0.059
-429.632	165.916	-0.017	-0.032
-428.617	66.711	0.067	-0.089
-427.603	-21.425	0.108	-0.086
-426.588	-84.898	-0.257	0.105
-425.573	-134.360	-0.067	0.011
-424.559	224.646	-0.018	-0.039
-423.544	-125.026	-0.274	0.055
-422.530	-200.000	-0.004	-0.706
-421.515	-104.686	0.221	0.066
-420.500	-200.000	-0.043	0.275
-419.486	-0.941	-0.506	0.467
-418.471	800.000	-0.154	0.585
-417.457	-100.510	-0.220	0.071
-416.442	167.728	-0.124	0.231
-415.428	-1.043	0.216	0.199
-414.413	-77.976	-0.399	-0.179
-413.398	-97.062	0.076	0.026
-412.384	23.090	0.279	0.299
-411.369	-83.053	0.411	0.172
-410.355	-200.000	-0.014	-0.083
-409.340	-178.465	0.331	-0.010
-408.325	-200.000	0.002	-0.379
-407.311	-149.532	-0.359	-0.037
-406.296	122.187	-0.185	0.303
-405.282	800.000	0.091	0.381
-404.267	170.488	-0.119	0.223
-403.252	-71.802	-0.247	-0.120
-402.238	-85.548	-0.414	-0.167
-401.223	-45.403	-0.323	0.209
-400.209	-129.431	-0.317	0.057
-399.194	-86.161	0.164	-0.066
-398.179	-113.315	0.286	0.073
-397.165	-200.000	-0.113	0.738
-396.150	-200.000	-0.023	0.174
-395.136	-104.773	-0.408	0.122
-394.121	-91.934	0.148	-0.054
-393.106	-56.483	0.088	-0.051
-392.092	-200.000	-0.015	0.123
-391.077	-24.893	0.327	0.253
-390.063	-120.996	0.319	-0.069
-389.048	-86.519	-0.397	-0.158
-388.033	-1.328	0.154	-0.141
-387.019	50.552	0.164	0.203
-386.004	-111.801	0.184	-0.048
-384.990	-6.470	-0.125	0.111
-383.975	-152.773	0.404	0.037
-382.960	106.783	-0.154	-0.239
-381.946	71.671	-0.139	0.189
-380.931	136.718	0.241	-0.411
-379.917	174.069	0.106	-0.201
-378.902	338.198	0.031	-0.079
-377.888	32.659	0.322	-0.364
-376.873	123.011	0.276	-0.451
-375.858	-153.121	0.488	-0.044
-374.844	94.135	-0.162	0.241
-373.829	-49.699	-0.269	0.166
-372.815	-200.000	-0.058	-0.443
-371.800	800.000	0.023	-0.109
-370.785	-200.000	-0.041	0.405
-369.771	800.000	-0.166	-0.617
-368.756	-110.154	0.122	-0.033
-367.742	-123.288	0.571	0.118
-366.727	-68.500	-0.126	-0.064
-365.712	-59.969	0.317	-0.176
-364.698	-70.652	-0.330	-0.162
-363.683	119.707	-0.139	-0.225
-362.669	-18.788	-0.349	0.283
-361.654	32.728	0.152	-0.171
-360.639	-200.000	0.002	-0.167
-359.625	-80.411	0.221	-0.096
-358.610	33.552	0.244	-0.277
-357.596	-90.730	0.390	-0.146
-356.581	-17.006	0.392	-0.322
-355.566	82.603	-0.084	-0.118
-354.552	-146.639	0.290	-0.032
-353.537	-36.939	0.089	-0.062
-352.523	139.293	0.170	0.293
-351.508	187.960	0.028	-0.055
-350.493	296.385	0.198	0.474
-349.479	-43.548	-0.131	0.086
-348.464	759.853	0.119	0.423
-347.450	2.509	0.180	0.169
-346.435	683.718	-0.125	0.427
-345.420	255.085	0.112	0.251
-344.406	519.413	-0.082	-0.252
-343.391	-6.384	-0.311	-0.276
-342.377	510.407	-0.088	0.269
-341.362	300.718	-0.122	-0.294
-340.348	800.000	-0.070	0.303
-339.333	800.000	-0.059	-0.250
-338.318	-150.228	-0.388	0.039
-337.304	-200.000	0.012	0.441
-336.289	-200.000	0.018	-0.139
-335.275	-200.000	0.025	-0.491
-334.260	-157.852	-0.490	0.037
-333.245	-200.000	0.017	0.143
-332.231	-103.543	0.118	0.036
-331.216	-49.091	-0.339	0.211
-330.202	128.873	-0.166	0.277
-329.187	-4.796	-0.317	0.284
-328.172	110.483	0.025	-0.039
-327.158	-137.105	-0.296	-0.044
-326.143	131.896	-0.013	0.022
-325.129	16.705	0.054	0.055
-324.114	97.399	0.038	0.057
-323.099	-13.270	-0.210	0.177
-322.085	-93.654	0.492	0.176
-321.070	-67.372	0.406	-0.207
-320.056	-191.118	-0.254	0.003
-319.041	-200.000	0.044	-0.260
-318.026	-141.636	-0.218	-0.028
-317.012	348.807	-0.078	-0.202
-315.997	800.000	0.016	-0.086
-314.983	-37.596	-0.052	0.036
-313.968	161.672	0.365	0.667
-312.953	-99.818	-0.241	-0.078
-311.939	-72.593	-0.182	-0.087
-310.924	-135.004	0.314	0.049
-309.910	0.653	0.171	0.159
-308.895	18.011	0.193	-0.200
-307.880	-58.819	-0.462	-0.259
-306.866	-134.258	0.386	0.061
-305.851	-30.505	0.648	-0.477
-304.837	-67.397	-0.297	-0.151
-303.822	619.338	0.055	-0.181
-302.807	86.090	0.164	-0.236
-301.793	-198.826	-0.148	0.001
-300.778	-118.539	0.177	-0.040
-299.764	-93.201	0.244	0.088
-298.749	-120.566	0.368	0.080
-297.735	-200.000	0.007	0.066
-296.720	-200.000	-0.021	0.275
-295.705	171.434	0.187	0.350
-294.691	-139.931	-0.239	-0.033
-293.676	81.106	0.431	-0.606
-292.662	-62.250	-0.045	0.024
-291.647	-43.733	-0.292	-0.191
-290.632	-62.781	0.140	0.075
-289.618	42.599	0.230	0.272
-288.603	117.669	0.234	-0.375
-287.589	-200.000	0.002	0.174
-286.574	-29.763	-0.193	-0.143
-285.559	18.642	0.225	-0.234
-284.545	95.693	0.112	0.167
-283.530	101.983	0.232	-0.352
-282.516	-198.113	0.251	0.002
-281.501	-200.000	-0.045	-0.335
-280.486	-134.947	-0.551	0.086
-279.472	80.982	-0.612	0.859
-278.457	119.061	0.271	0.436
-277.443	-17.107	0.244	-0.200
-276.428	-156.202	-0.209	0.017
-275.413	74.471	0.208	-0.284
-274.399	-136.615	-0.225	-0.034
-273.384	75.689	-0.307	0.422
-272.370	-141.914	-0.427	-0.055
-271.355	792.634	0.124	-0.446
-270.340	-185.859	0.142	0.003
-269.326	-106.603	-0.406	-0.117
-268.311	29.130	-0.210	0.232
-267.297	-200.000	0.083	0.610
-266.282	-200.000	-0.051	0.593
-265.267	108.390	0.123	0.191
-264.253	-84.927	-0.417	0.169
-263.238	6.551	0.409	-0.395
-262.224	800.000	0.014	-0.058
-261.209	-64.530	-0.161	-0.085
-260.195	22.505	-0.476	0.505
-259.180	-137.123	0.650	0.095
-258.165	-32.204	-0.284	0.206
-257.151	67.556	0.104	0.139
-256.136	-155.118	0.433	-0.036
-255.122	205.560	0.180	-0.364
-254.107	-115.516	-0.443	0.107
-253.092	145.893	0.388	0.676
-252.078	304.390	0.090	0.219
-251.063	-117.293	0.043	-0.010
-250.049	-200.000	-0.101	-0.000
-249.034	12.472	-0.223	0.223
-248.019	304.075	-0.095	-0.230
-247.005	-118.074	0.217	0.050
-245.990	-57.627	-0.200	-0.113
-244.976	-143.948	0.335	-0.040
-243.961	462.335	-0.133	0.388
-242.946	132.213	0.150	0.251
-241.932	800.000	0.094	0.376
-240.917	-46.975	-0.022	0.014
-239.903	-200.000	-0.050	0.462
-238.888	245.143	-0.162	0.354
-237.873	-200.000	-0.051	0.567
-236.859	-166.900	0.350	0.018
-235.844	-42.464	0.385	0.254
-234.830	-200.000	-0.062	0.582
-233.815	37.766	0.256	-0.295
-232.800	25.858	0.266	-0.288
-231.786	-115.280	0.155	-0.038
-230.771	20.059	-0.251	-0.263
-229.757	-135.382	-0.521	0.080
-228.742	8.406	-0.267	-0.260
-227.727	-13.334	-0.225	0.189
-226.713	142.137	-0.105	0.182
-225.698	-200.000	-0.035	-0.235
-224.684	-147.843	-0.193	0.021
-223.669	263.277	-0.071	0.162
-222.655	800.000	-0.063	0.338
-221.640	-62.832	-0.433	-0.231
-220.625	-80.915	0.141	0.060
-219.611	-59.403	0.371	-0.206
-218.596	232.314	0.025	0.053
-217.582	-200.000	0.017	-0.332
-216.567	404.930	0.080	-0.220
-215.552	-58.989	0.173	-0.096
-214.538	-107.482	0.182	-0.051
-213.523	-200.000	0.012	0.084
-212.509	2.910	0.147	-0.138
-211.494	129.438	0.173	-0.288
-210.479	-19.220	0.141	0.113
-209.465	-77.007	0.249	0.112
-208.450	800.000	-0.093	0.393
-207.436	-77.222	0.438	-0.197
-206.421	35.768	0.341	-0.388
-205.406	166.398	0.149	0.275
-204.392	-115.759	0.266	-0.064
-203.377	150.936	0.193	0.341
-202.363	-175.860	0.052	-0.002
-201.348	800.000	0.167	0.869
-200.333	-73.059	-0.651	0.308
-199.319	-95.299	0.410	0.142
-198.304	-200.000	-0.005	0.344
-197.290	505.274	-0.076	0.229
-196.275	800.000	0.049	-0.183
-195.260	-132.847	0.350	0.057
-194.246	-32.744	0.156	0.112
-193.231	-91.114	0.152	-0.056
-192.217	6.869	0.289	0.279
-191.202	15.531	0.067	-0.068
-190.187	-85.071	0.447	-0.180
-189.173	800.000	0.069	0.331
-188.158	79.655	0.211	-0.294
-187.144	278.202	-0.114	-0.263
-186.129	-14.091	-0.200	-0.167
-185.114	364.388	-0.189	-0.493
-184.100	-1.846	0.200	0.182
-183.085	-57.690	0.016	-0.009
-182.071	-50.927	-0.142	0.086
-181.056	-95.412	-0.187	-0.065
-180.042	-3.476	-0.138	-0.124
-179.027	-123.637	-0.171	-0.035
-178.012	-128.215	-0.264	-0.048
-176.998	37.586	-0.061	0.070
-175.983	800.000	0.053	-0.287
-174.969	-78.169	0.212	0.094
-173.954	-152.410	-0.310	-0.028
-172.939	-81.435	0.863	-0.366
-171.925	-134.842	-0.302	-0.047
-170.910	800.000	0.089	-0.472
-169.896	-149.533	-0.206	0.021
-168.881	109.326	-0.049	-0.077
-167.866	800.000	-0.115	0.538
-166.852	-110.844	-0.216	-0.057
-165.837	-89.481	0.248	0.094
-164.823	800.000	-0.052	0.237
-163.808	-71.024	-0.274	0.133
-162.793	-97.264	-0.389	0.130
-161.779	-101.418	-0.301	0.094
-160.764	4.317	0.213	0.201
-159.750	59.524	-0.171	0.219
-158.735	-200.000	0.364	0.002
-157.720	-187.180	0.493	-0.009
-156.706	25.102	0.272	-0.292
-155.691	-188.811	0.189	-0.003
-154.677	423.748	-0.124	0.346
-153.662	-86.802	-0.334	-0.131
-152.647	72.597	-0.025	-0.033
-151.633	-173.550	0.322	-0.012
-150.618	8.726	0.500	-0.486
-149.604	-143.608	0.193	0.023
-148.589	45.395	-0.351	0.419
-147.574	150.894	-0.127	0.224
-146.560	-72.311	0.269	0.128
-145.545	-78.976	0.096	0.042
-144.531	-88.036	-0.221	0.085
-143.516	-151.051	0.256	0.025
-142.502	-39.892	0.354	-0.238
-141.487	189.979	-0.164	0.319
-140.472	-115.980	0.346	-0.083
-139.458	-200.000	0.006	-0.432
-138.443	-95.195	0.312	0.108
-137.429	-19.067	-0.157	-0.126
-136.414	149.574	0.083	0.145
-135.399	-133.344	-0.278	0.045
-134.385	127.328	-0.090	-0.148
-133.370	800.000	-0.090	0.478
-132.356	87.606	-0.140	0.200
-131.341	-154.569	-0.249	-0.021
-130.326	17.137	0.328	-0.336
-129.312	800.000	0.034	-0.166
-128.297	800.000	-0.104	-0.456
-127.283	-58.291	0.199	-0.112
-126.268	-100.835	0.489	0.154
-125.253	339.097	-0.176	-0.444
-124.239	-114.688	-0.325	0.080
-123.224	-57.836	0.092	-0.052
-122.210	-200.000	-0.042	0.370
-121.195	32.832	0.216	0.241
-120.180	-138.017	0.238	0.034
-119.166	-103.833	0.252	-0.076
-118.151	48.173	-0.079	-0.095
-117.137	157.467	0.127	-0.227
-116.122	-178.068	-0.199	0.006
-115.107	-116.548	-0.247	0.058
-114.093	106.258	0.280	0.429
-113.078	-60.655	-0.461	0.251
-112.064	-200.000	-0.088	-0.562
-111.049	113.250	0.185	0.290
-110.034	800.000	0.075	-0.313
-109.020	5.849	-0.309	0.295
-108.005	126.900	-0.149	-0.244
-106.991	-186.676	-0.335	0.006
-105.976	800.000	0.086	-0.429
-104.962	-151.481	0.447	-0.042
-103.947	-46.278	0.267	0.169
-102.932	53.433	0.073	-0.091
-101.918	-41.003	-0.569	0.379
-100.903	202.011	0.167	-0.334
-99.889	-125.751	0.034	-0.007
-98.874	-86.399	0.057	-0.022
-97.859	800.000	-0.036	0.194
-96.845	-148.977	-0.266	-0.027
-95.830	87.157	-0.194	-0.277
-94.816	212.433	0.098	0.200
-93.801	-174.816	-0.241	0.009
-92.786	-164.854	0.011	-0.001
-91.772	-132.596	0.122	-0.020
-90.757	-142.479	-0.268	0.034
-89.743	104.614	-0.181	-0.275
-88.728	-8.630	-0.255	-0.220
-87.713	-124.955	0.093	0.018
-86.699	-77.447	-0.580	-0.258
-85.684	-200.000	0.049	-0.389
-84.670	621.217	0.184	-0.602
-83.655	800.000	0.035	0.175
-82.640	65.511	-0.350	0.457
-81.626	288.658	-0.041	0.097
-80.611	27.738	-0.205	-0.223
-79.597	182.368	-0.129	-0.245
-78.582	133.309	0.210	-0.350
-77.567	-200.000	0.064	0.652
-76.553	-108.885	-0.079	-0.022
-75.538	-92.672	-0.314	-0.113
-74.524	-114.838	-0.398	0.097
-73.509	578.051	0.025	0.079
-72.494	-9.654	-0.165	-0.141
-71.480	-55.433	0.382	-0.220
-70.465	-38.978	-0.342	0.232
-69.451	64.686	0.161	-0.209
-68.436	-172.633	-0.445	-0.018
-67.422	30.951	0.161	-0.177
-66.407	800.000	0.020	-0.074
-65.392	-200.000	0.019	-0.226
-64.378	-23.778	0.317	-0.244
-63.363	-40.768	0.134	0.089
-62.349	403.509	-0.190	0.516
-61.334	53.650	-1.697	-2.100
-60.319	-47.745	1.270	0.791
-59.305	197.473	-3.667	-7.232
-58.290	67.992	3.815	5.032
-57.276	475.325	3.554	10.389
-56.261	-200.000	21.088	312.136
-55.246	364.673	1291.759	3363.372
-54.232	53.315	2851.046	3521.073
-53.217	52.957	2670.883	3292.899
-52.203	34.559	2401.155	2701.539
-51.188	29.870	2068.442	2269.463
-50.173	26.546	1953.969	2104.993
-49.159	25.337	1943.103	2079.152
-48.144	25.045	1938.538	2070.790
-47.130	24.886	1937.274	2067.512
-46.115	25.032	1933.665	2065.269
-45.100	24.957	1933.296	2063.925
-44.086	24.977	1931.777	2062.454
-43.071	24.925	1929.991	2059.866
-42.057	24.901	1927.762	2057.126
-41.042	24.857	1927.111	2055.844
-40.027	24.866	1925.934	2054.601
-39.013	24.935	1923.216	2052.426
-37.998	24.749	1922.912	2049.874
-36.984	24.842	1921.200	2049.031
-35.969	24.815	1919.514	2046.845
-34.954	24.665	1919.128	2044.627
-33.940	24.823	1917.058	2044.153
-32.925	24.743	1916.732	2042.813
-31.911	24.742	1915.040	2040.910
-30.896	24.777	1913.519	2039.612
-29.881	24.907	1911.876	2039.271
-28.867	24.704	1911.054	2035.987
-27.852	24.699	1909.109	2033.779
-26.838	24.708	1908.051	2032.678
-25.823	24.542	1907.126	2029.710
-24.809	24.571	1906.327	2029.112
-23.794	24.665	1903.336	2026.917
-22.779	24.565	1902.452	2024.756
-21.765	24.629	1901.871	2024.786
-20.750	24.511	1901.358	2022.821
-19.736	24.578	1899.809	2021.850
-18.721	24.630	1897.420	2019.814
-17.706	24.585	1896.260	2017.991
-16.692	24.590	1895.421	2017.080
-15.677	24.578	1894.305	2015.667
-14.663	24.505	1893.445	2013.846
-13.648	24.519	1891.298	2011.647
-12.633	24.552	1890.178	2010.742
-11.619	24.553	1889.379	2009.832
-10.604	24.482	1888.089	2007.577
-9.590	24.401	1887.118	2005.544
-8.575	24.428	1885.753	2004.323
-7.560	24.422	1884.882	2003.252
-6.546	24.483	1883.182	2002.049
-5.531	24.571	1882.066	2001.771
-4.517	24.429	1881.276	1999.257
-3.502	24.538	1879.438	1998.449
-2.487	24.501	1878.793	1997.269
-1.473	24.554	1875.475	1994.252
-0.458	24.158	1856.510	1969.614
0.556	20.284	2000.641	2063.894
1.571	18.459	2204.917	2250.291
2.586	19.184	2244.594	2300.241
3.600	19.216	2246.942	2302.804
4.615	19.169	2246.541	2301.489
5.629	19.291	2243.603	2299.839
6.644	19.105	2242.457	2295.895
7.659	19.226	2240.208	2294.938
8.673	19.237	2238.102	2292.653
9.688	19.159	2246.240	2299.670
10.702	18.116	2326.809	2367.350
11.717	16.390	2390.103	2406.768
12.731	7.597	2370.183	2261.070
13.746	1.062	2352.105	2150.552
14.761	0.136	2349.594	2134.805
15.775	0.126	2348.023	2132.978
16.790	0.184	2346.076	2131.770
17.804	0.091	2344.463	2128.729
18.819	0.001	2343.600	2126.410
19.834	0.075	2341.040	2124.883
20.848	0.096	2339.342	2123.385
21.863	0.178	2337.645	2122.754
22.877	0.008	2336.659	2119.198
23.892	0.098	2334.272	2118.054
24.907	0.122	2331.823	2115.919
25.921	0.040	2330.522	2113.333
26.936	-0.013	2328.964	2110.922
27.950	0.037	2324.874	2107.664
28.965	-0.054	2323.818	2105.175
29.980	0.059	2322.636	2105.435
30.994	0.051	2320.141	2102.815
32.009	3.902	2331.793	2167.429
33.023	13.387	2358.889	2326.975
34.038	17.437	2366.192	2391.220
35.053	17.398	2362.842	2386.993
36.067	17.234	2360.192	2381.714
37.082	17.214	2358.602	2379.550
38.096	17.457	2357.147	2381.221
39.111	17.606	2354.801	2380.653
40.126	17.778	2353.239	2381.203
41.140	17.996	2351.190	2381.904
42.155	18.011	2348.730	2379.330
43.169	17.898	2347.875	2376.603
44.184	17.730	2344.150	2370.200
45.199	17.725	2341.713	2367.388
46.213	17.798	2342.228	2368.637
47.228	17.954	2340.858	2369.149
48.242	17.892	2339.952	2367.076
49.257	18.107	2337.710	2367.524
50.271	18.157	2335.299	2365.488
51.286	17.954	2331.826	2358.864
52.301	17.533	2330.856	2351.759
53.315	18.480	2333.206	2367.000
54.330	21.623	2342.099	2419.467
55.344	23.672	2343.748	2449.326
56.359	23.823	2341.180	2448.432
57.374	24.014	2340.327	2449.889
58.388	24.133	2337.802	2448.601
59.403	23.737	2333.239	2438.072
60.417	23.426	2328.933	2428.993
61.432	23.544	2327.245	2428.564
62.447	23.670	2327.149	2429.912
63.461	23.930	2325.131	2431.089
64.476	23.949	2323.134	2428.963
65.490	23.689	2320.842	2422.716
66.505	22.835	2316.733	2406.441
67.520	20.687	2307.128	2366.834
68.534	18.321	2299.295	2326.246
69.549	17.663	2294.930	2312.574
70.563	17.518	2292.125	2307.503
71.578	17.575	2289.613	2305.474
72.593	17.574	2288.667	2304.231
73.607	17.700	2287.265	2304.248
74.622	17.701	2285.766	2302.479
75.636	17.693	2281.509	2297.805
76.651	17.553	2278.758	2292.871
77.666	17.603	2277.628	2292.132
78.680	17.516	2274.322	2287.364
79.695	17.263	2272.499	2281.841
80.709	17.236	2271.177	2279.870
81.724	17.268	2269.360	2278.203
82.739	17.172	2267.129	2274.398
83.753	17.152	2264.507	2271.232
84.768	17.118	2262.824	2268.807
85.782	17.003	2261.653	2265.820
86.797	17.027	2259.791	2264.005
87.812	17.126	2257.640	2262.904
88.826	17.346	2255.904	2263.848
89.841	17.283	2253.507	2260.325
90.855	17.200	2250.820	2256.256
91.870	17.297	2249.968	2256.425
92.884	17.277	2248.254	2254.170
93.899	17.371	2246.992	2253.883
94.914	17.978	2250.723	2265.444
95.928	20.790	2258.720	2310.787
96.943	21.702	2257.395	2321.308
97.957	19.018	2245.137	2272.831
98.972	17.337	2238.834	2243.905
99.987	17.055	2236.233	2237.293
101.001	17.244	2232.964	2236.250
102.016	17.279	2231.849	2235.331
103.030	17.147	2229.696	2231.166
104.045	17.169	2227.428	2228.919
105.060	17.264	2224.122	2226.599
106.074	17.286	2222.457	2224.956
107.089	17.177	2222.336	2223.134
108.103	17.225	2220.911	2222.064
109.118	17.410	2218.895	2222.214
110.133	17.529	2218.235	2222.846
111.147	17.344	2215.460	2217.374
112.162	17.439	2213.350	2216.247
113.176	17.577	2211.563	2215.997
114.191	17.517	2211.094	2214.470
115.206	17.547	2209.493	2212.997
116.220	17.596	2206.924	2210.804
117.235	17.639	2205.138	2209.310
118.249	17.585	2202.998	2206.196
119.264	17.502	2201.649	2203.499
120.279	17.517	2199.785	2201.572
121.293	17.527	2197.972	2199.620
122.308	17.634	2195.948	2198.719
123.322	17.524	2195.001	2196.077
124.337	18.071	2196.677	2204.582
125.352	20.787	2204.579	2247.548
126.366	21.641	2202.849	2256.572
127.381	18.720	2191.480	2206.966
128.395	17.548	2186.667	2186.741
129.410	17.540	2184.195	2183.907
130.424	17.409	2182.228	2179.986
131.439	17.578	2181.292	2180.975
132.454	17.614	2179.913	2179.788
133.468	17.691	2178.153	2178.761
134.483	17.949	2176.128	2179.780
135.497	17.825	2175.062	2176.865
136.512	17.794	2172.068	2173.210
137.527	17.664	2170.355	2169.576
138.541	17.354	2168.831	2163.821
139.556	17.362	2167.717	2162.563
140.570	17.291	2166.144	2159.829
141.585	17.324	2162.772	2156.630
142.600	17.233	2161.676	2154.117
143.614	17.124	2160.158	2150.959
144.629	17.006	2158.198	2147.246
145.643	16.882	2157.138	2144.355
146.658	16.862	2155.292	2142.018
147.673	16.823	2152.765	2138.748
148.687	16.883	2151.906	2138.406
149.702	17.060	2150.971	2139.463
150.716	17.193	2150.018	2139.944
151.731	17.196	2148.670	2138.385
152.746	17.307	2147.007	2137.872
153.760	18.102	2150.714	2151.367
154.775	21.025	2159.797	2197.261
155.789	22.038	2157.626	2207.604
156.804	19.042	2145.821	2157.550
157.819	17.214	2138.419	2126.877
158.833	17.059	2133.774	2120.058
159.848	16.913	2132.843	2117.042
160.862	17.111	2132.070	2118.511
161.877	17.307	2130.711	2119.358
162.892	17.209	2130.933	2118.092
163.906	17.409	2128.726	2118.157
164.921	17.381	2126.680	2115.508
165.935	17.417	2124.785	2113.820
166.950	17.543	2122.871	2113.236
167.964	17.438	2121.195	2110.004
168.979	17.072	2119.471	2103.487
169.994	17.144	2116.813	2101.488
171.008	17.134	2114.645	2098.959
172.023	17.133	2113.918	2097.972
173.037	17.217	2113.328	2098.185
174.052	17.410	2111.566	2098.572
175.067	17.364	2109.819	2096.019
176.081	17.161	2108.111	2091.562
177.096	17.296	2107.002	2091.871
178.110	17.291	2106.337	2090.902
179.125	17.472	2104.986	2091.552
180.140	17.370	2104.287	2089.340
181.154	17.450	2101.883	2087.698
182.169	17.632	2101.641	2089.450
183.183	18.553	2104.402	2103.302
184.198	21.650	2113.311	2150.229
185.213	22.316	2109.829	2154.630
186.227	19.165	2098.740	2104.410
187.242	17.667	2094.604	2081.639
188.256	17.515	2092.268	2077.204
189.271	17.372	2090.066	2073.015
190.286	17.266	2088.755	2070.165
191.300	17.202	2087.511	2067.897
192.315	17.341	2085.392	2067.259
193.329	17.485	2083.835	2067.225
194.344	17.688	2083.281	2068.905
195.359	17.769	2081.549	2067.921
196.373	17.548	2078.731	2062.181
197.388	17.242	2075.921	2055.433
198.402	17.048	2074.377	2051.294
199.417	17.062	2072.206	2049.077
200.432	17.294	2070.131	2049.587
201.446	17.266	2069.062	2047.954
202.461	17.052	2067.456	2043.528
203.475	17.010	2065.924	2041.261
204.490	16.908	2063.729	2037.612
205.504	17.061	2061.329	2036.841
206.519	17.239	2060.015	2037.447
207.534	17.165	2057.971	2034.293
208.548	17.176	2056.954	2033.177
209.563	17.219	2055.788	2032.300
210.577	17.385	2054.467	2032.738
211.592	17.277	2054.269	2031.000
212.607	18.823	2059.405	2054.437
213.621	22.232	2067.823	2103.650
214.636	21.798	2061.017	2091.274
215.650	18.431	2050.679	2040.301
216.665	17.482	2046.295	2024.357
217.680	17.548	2043.795	2022.429
218.694	17.117	2043.098	2016.359
219.709	17.079	2041.282	2013.874
220.723	17.244	2040.119	2014.441
221.738	17.361	2039.568	2015.055
222.753	17.505	2037.407	2014.387
223.767	17.425	2035.467	2011.278
224.782	17.483	2033.198	2009.486
225.796	17.347	2031.489	2005.945
226.811	17.258	2030.326	2003.508
227.826	17.241	2029.648	2002.394
228.840	17.263	2026.910	1999.707
229.855	17.286	2025.354	1998.212
230.869	17.254	2024.016	1996.270
231.884	17.310	2022.442	1995.137
232.899	17.321	2022.314	1994.905
233.913	17.424	2020.255	1993.853
234.928	17.309	2019.321	1991.331
235.942	17.279	2018.163	1989.607
236.957	17.234	2016.329	1987.023
237.972	17.225	2015.621	1985.985
238.986	17.156	2013.852	1983.196
240.001	17.255	2011.643	1981.949
241.015	17.424	2010.998	1983.052
242.030	18.207	2014.991	1995.932
243.045	21.120	2021.626	2036.486
244.059	21.688	2017.338	2038.578
245.074	18.827	2006.511	1994.058
246.088	17.610	2003.154	1976.303
247.103	17.834	2000.635	1976.191
248.117	17.746	1999.439	1973.745
249.132	17.511	1998.429	1969.785
250.147	17.484	1995.433	1966.281
251.161	17.410	1994.523	1964.290
252.176	17.576	1993.387	1964.853
253.190	17.703	1992.107	1964.837
254.205	17.882	1990.877	1965.453
255.220	17.803	1989.713	1963.153
256.234	17.647	1987.667	1959.107
257.249	17.480	1985.458	1954.764
258.263	17.257	1983.591	1950.121
259.278	17.158	1983.103	1948.259
260.293	17.078	1981.340	1945.373
261.307	16.975	1979.771	1942.421
262.322	17.095	1978.063	1941.889
263.336	17.079	1975.592	1939.051
264.351	16.981	1974.055	1936.181
265.366	16.839	1973.044	1933.328
266.380	16.950	1972.080	1933.428
267.395	17.007	1970.587	1932.388
268.409	17.098	1968.999	1931.643
269.424	17.111	1967.505	1930.087
270.439	17.111	1967.347	1929.697
271.453	18.283	1970.091	1945.560
272.468	21.424	1976.794	1987.892
273.482	21.617	1972.940	1985.988
274.497	18.492	1961.694	1938.951
275.512	17.249	1957.209	1920.180
276.526	17.057	1954.675	1915.282
277.541	17.153	1952.462	1913.972
278.555	16.905	1951.220	1909.721
279.570	16.878	1949.553	1907.556
280.585	16.922	1949.201	1907.474
281.599	16.982	1948.027	1906.781
282.614	17.238	1946.690	1908.131
283.628	17.771	1947.000	1914.227
284.643	18.036	1946.534	1916.524
285.657	18.221	1945.086	1916.948
286.672	18.151	1943.860	1914.726
287.687	17.935	1941.300	1909.540
288.701	17.745	1940.066	1905.965
289.716	17.692	1938.490	1903.603
290.730	17.878	1937.364	1904.354
291.745	18.621	1937.382	1912.469
292.760	18.515	1936.703	1910.382
293.774	17.934	1934.180	1901.166
294.789	17.702	1932.723	1896.910
295.803	17.570	1929.262	1891.816
296.818	17.384	1929.386	1889.629
297.833	17.610	1927.614	1890.185
298.847	17.519	1926.309	1887.667
299.862	17.498	1924.722	1885.651
300.876	18.416	1926.650	1897.549
301.891	21.616	1934.780	1941.034
302.906	22.190	1930.708	1943.100
303.920	18.951	1921.892	1898.114
304.935	17.892	1917.523	1881.849
305.949	17.688	1915.054	1876.944
306.964	17.657	1914.090	1875.424
307.979	17.745	1912.114	1874.233
308.993	18.095	1910.931	1876.722
310.008	18.297	1910.632	1878.423
311.022	18.533	1909.477	1879.673
312.037	18.316	1907.980	1875.581
313.052	18.857	1907.641	1880.978
314.066	19.208	1906.776	1883.762
315.081	18.736	1904.072	1875.681
316.095	18.365	1902.984	1870.305
317.110	18.189	1899.831	1865.060
318.125	17.873	1897.595	1859.176
319.139	17.504	1896.287	1853.638
320.154	17.565	1895.208	1853.030
321.168	17.739	1893.603	1853.143
322.183	17.463	1892.187	1848.518
323.197	17.244	1889.737	1843.513
324.212	17.137	1886.748	1839.221
325.227	16.828	1886.234	1835.128
326.241	16.931	1883.758	1833.618
327.256	17.023	1882.986	1833.654
328.270	17.004	1882.075	1832.338
329.285	16.959	1881.882	1831.443
330.300	17.949	1887.545	1847.507
331.314	21.663	1893.618	1893.664
332.329	21.818	1887.682	1889.177
333.343	18.295	1877.724	1840.975
334.358	16.990	1874.281	1823.285
335.373	16.888	1871.620	1819.377
336.387	16.784	1869.645	1816.123
337.402	16.808	1868.557	1815.101
338.416	17.036	1866.431	1815.272
339.431	17.073	1865.452	1814.507
340.446	17.175	1863.891	1813.866
341.460	17.423	1864.314	1816.720
342.475	17.836	1863.102	1819.753
343.489	17.984	1861.662	1819.713
344.504	17.935	1861.701	1819.007
345.519	18.087	1860.291	1819.032
346.533	18.350	1858.946	1820.311
347.548	18.916	1858.657	1825.856
348.562	19.017	1858.192	1826.261
349.577	18.772	1856.989	1822.251
350.592	18.558	1855.508	1818.290
351.606	18.467	1853.813	1815.452
352.621	18.585	1851.878	1814.584
353.635	18.221	1850.098	1808.765
354.650	17.938	1847.651	1803.150
355.665	18.005	1845.658	1801.698
356.679	17.743	1844.552	1797.630
357.694	17.607	1843.346	1794.794
358.708	17.619	1841.446	1792.857
359.723	18.894	1845.591	1810.181
360.738	22.215	1851.441	1850.906
361.752	21.724	1846.314	1840.384
362.767	18.763	1837.829	1800.540
363.781	17.922	1833.751	1787.485
364.796	17.801	1832.793	1785.063
365.810	17.646	1831.971	1782.419
366.825	17.644	1830.304	1780.570
367.840	17.710	1829.806	1780.556
368.854	17.862	1829.287	1781.441
369.869	18.372	1828.112	1785.427
370.883	18.671	1827.526	1787.769
371.898	18.690	1826.970	1787.210
372.913	18.538	1826.330	1784.778
373.927	18.725	1824.795	1785.022
374.942	18.799	1823.129	1783.956
375.956	18.664	1821.233	1780.480
376.971	18.275	1817.252	1772.324
377.986	17.754	1815.941	1765.412
379.000	17.704	1814.720	1763.489
380.015	17.803	1812.181	1761.848
381.029	17.353	1809.756	1754.605
382.044	16.979	1807.550	1748.389
383.059	17.114	1806.201	1748.274
384.073	17.175	1805.477	1747.986
385.088	16.940	1805.241	1745.120
386.102	16.997	1802.899	1743.234
387.117	16.983	1802.065	1742.083
388.132	17.068	1801.104	1741.816
389.146	18.157	1805.822	1757.427
390.161	21.668	1811.944	1799.498
391.175	21.620	1804.192	1791.084
392.190	18.192	1795.359	1746.976
393.205	17.299	1790.971	1733.351
394.219	17.212	1790.303	1731.602
395.234	17.110	1788.366	1728.481
396.248	17.066	1787.252	1726.744
397.263	17.076	1784.366	1723.856
398.278	17.045	1782.277	1721.312
399.292	16.962	1781.934	1719.926
400.307	17.171	1781.447	1721.381
401.321	17.384	1780.410	1722.341
402.336	17.719	1780.616	1725.746
403.350	17.828	1778.818	1724.899
404.365	18.017	1778.547	1726.357
405.380	18.481	1778.496	1730.811
406.394	18.573	1777.350	1730.420
407.409	18.435	1775.574	1727.084
408.423	18.737	1774.513	1728.905
409.438	18.685	1773.240	1726.925
410.453	18.555	1772.848	1725.031
411.467	18.478	1771.063	1722.300
412.482	18.102	1768.283	1715.602
413.496	17.722	1765.950	1709.303
414.511	17.740	1764.438	1707.822
415.526	17.696	1761.642	1704.469
416.540	17.613	1759.689	1701.542
417.555	17.564	1759.702	1700.856
418.569	17.757	1759.982	1702.862
419.584	17.907	1759.685	1703.879
420.599	17.771	1758.857	1701.502
421.613	17.620	1757.766	1698.729
422.628	17.661	1756.057	1697.287
423.642	17.386	1754.270	1692.613
424.657	17.513	1753.454	1692.890
425.672	17.656	1751.446	1692.172
426.686	17.598	1750.216	1690.201
427.701	17.662	1748.605	1689.086
428.715	17.729	1747.497	1688.474
429.730	18.003	1745.625	1689.193
430.745	18.008	1744.573	1688.017
431.759	17.884	1744.331	1686.355
432.774	18.155	1745.418	1689.896
433.788	18.539	1745.499	1693.581
434.803	18.878	1743.830	1695.123
435.818	18.779	1743.530	1693.643
436.832	18.626	1743.243	1691.649
437.847	17.797	1735.439	1675.693
438.861	9.994	1714.093	1578.511
439.876	1.809	1699.273	1484.745
440.890	0.318	1696.257	1467.344
441.905	0.226	1695.157	1465.317
442.920	0.260	1693.340	1463.906
443.934	0.190	1692.806	1462.590
444.949	0.253	1691.003	1461.470
445.963	0.173	1690.846	1460.374
446.978	0.083	1690.389	1458.931
447.993	0.044	1688.988	1457.169
449.007	0.197	1686.362	1456.212
450.022	0.238	1684.042	1454.437
451.036	0.253	1682.556	1453.124
452.051	0.969	1687.759	1464.406
453.066	8.818	1705.099	1556.124
454.080	16.870	1718.312	1646.931
455.095	19.014	1721.538	1670.780
456.109	19.806	1722.130	1678.878
457.124	20.114	1721.301	1680.872
458.139	20.305	1721.129	1682.372
459.153	20.443	1720.211	1682.611
460.168	20.573	1717.988	1681.496
461.182	20.350	1717.095	1678.261
462.197	20.243	1714.733	1674.710
463.212	20.144	1712.496	1671.367
464.226	20.094	1711.774	1669.981
465.241	20.456	1710.962	1672.486
466.255	20.680	1710.546	1674.044
467.270	20.819	1708.321	1673.017
468.285	20.274	1706.641	1665.905
469.299	20.140	1705.521	1663.324
470.314	20.284	1704.037	1663.063
471.328	20.455	1702.545	1663.058
472.343	20.359	1702.079	1661.477
473.358	20.505	1701.039	1661.663
474.372	20.502	1699.557	1659.996
475.387	20.233	1698.216	1655.902
476.401	20.254	1695.637	1653.388
477.416	20.171	1694.378	1651.175
478.430	20.191	1693.296	1650.114
479.445	20.147	1691.853	1648.083
480.460	19.998	1690.577	1645.227
481.474	20.138	1690.282	1646.075
482.489	20.440	1688.973	1647.479
483.503	20.728	1688.001	1649.080
484.518	20.650	1687.367	1647.520
485.533	20.638	1685.705	1645.584
486.547	20.516	1684.322	1642.881
487.562	20.941	1683.142	1645.570
488.576	20.731	1682.536	1642.786
489.591	20.743	1680.786	1640.990
490.606	20.498	1679.167	1636.901
491.620	20.694	1677.568	1636.998
492.635	21.029	1676.550	1638.969
493.649	21.202	1675.158	1639.048
494.664	20.806	1672.688	1632.705
495.679	20.091	1670.467	1623.605
496.693	20.196	1670.039	1623.983
497.708	20.566	1669.856	1627.097
498.722	20.905	1668.797	1629.055
499.737	21.019	1667.254	1628.422
500.752	20.826	1665.613	1624.819
501.766	20.572	1664.365	1621.022
502.781	20.600	1662.970	1619.736
503.795	20.774	1661.222	1619.464
504.810	20.708	1661.074	1618.511
505.825	20.989	1660.669	1620.545
506.839	21.039	1658.974	1619.168
507.854	20.829	1657.571	1615.649
508.868	20.929	1656.499	1615.337
509.883	20.987	1654.991	1614.218
510.898	21.145	1654.762	1615.270
511.912	21.112	1652.327	1612.396
512.927	20.909	1649.827	1607.872
513.941	20.854	1648.712	1606.084
514.956	20.531	1647.489	1601.717
515.971	20.487	1646.031	1599.698
516.985	20.684	1644.584	1599.917
518.000	20.885	1645.212	1602.196
519.014	21.103	1644.558	1603.380
520.029	21.312	1643.064	1603.658
521.043	21.233	1641.299	1601.020
522.058	21.117	1640.200	1598.687
523.073	21.184	1640.402	1599.310
524.087	21.530	1639.614	1601.538
525.102	21.451	1637.107	1598.163
526.116	20.950	1635.144	1591.462
527.131	20.805	1634.360	1589.184
528.146	21.370	1634.085	1593.901
529.160	21.551	1633.342	1594.646
530.175	21.532	1632.192	1593.153
531.189	21.588	1631.586	1592.884
532.204	21.672	1629.359	1591.290
533.219	21.245	1627.697	1585.579
534.233	20.767	1626.683	1580.038
535.248	21.221	1625.741	1583.079
536.262	21.654	1626.194	1587.270
537.277	21.425	1624.027	1582.882
538.292	21.122	1621.563	1577.542
539.306	21.126	1620.097	1575.959
540.321	21.123	1618.379	1574.079
541.335	21.064	1616.654	1571.672
542.350	21.251	1615.410	1571.973
543.365	21.499	1614.576	1573.212
544.379	21.472	1614.888	1573.083
545.394	21.557	1613.305	1572.120
546.408	21.282	1611.300	1567.502
547.423	20.778	1608.802	1560.346
548.438	20.783	1607.892	1559.317
549.452	21.135	1607.197	1561.623
550.467	21.290	1606.389	1562.048
551.481	21.342	1605.641	1561.594
552.496	21.479	1605.872	1562.863
553.511	21.906	1604.670	1565.335
554.525	21.733	1603.151	1562.119
555.540	21.837	1602.807	1562.524
556.554	21.879	1601.218	1561.169
557.569	21.893	1598.933	1558.875
558.583	21.586	1597.466	1554.524
559.598	21.686	1596.396	1554.186
560.613	21.769	1595.720	1554.085
561.627	21.695	1594.497	1552.046
562.642	21.686	1593.807	1551.106
563.656	22.123	1592.662	1553.691
564.671	22.169	1591.450	1552.731
565.686	21.929	1590.707	1549.694
566.700	21.659	1588.463	1544.925
567.715	21.754	1585.849	1543.038
568.729	21.348	1583.682	1537.155
569.744	20.973	1583.000	1533.003
570.759	21.063	1581.661	1532.315
571.773	21.257	1581.285	1533.480
572.788	21.554	1580.469	1535.122
573.802	21.696	1579.384	1535.133
574.817	22.074	1578.055	1536.987
575.832	22.160	1577.321	1536.840
576.846	22.142	1576.553	1535.751
577.861	21.935	1574.125	1531.390
578.875	21.935	1574.489	1531.555
579.890	22.294	1573.619	1533.679
580.905	22.141	1572.653	1531.214
581.919	22.408	1571.983	1532.709
582.934	22.276	1571.181	1530.594
583.948	22.499	1569.239	1530.466
584.963	22.383	1567.260	1527.341
585.978	21.982	1566.224	1522.649
586.992	22.176	1565.531	1523.485
588.007	22.116	1565.135	1522.391
589.021	21.546	1562.550	1514.744
590.036	21.034	1560.643	1508.261
591.051	21.579	1560.678	1512.851
592.065	21.949	1559.590	1514.826
593.080	22.134	1558.377	1515.070
594.094	22.226	1556.222	1513.586
595.109	21.854	1553.582	1507.625
596.123	21.540	1552.022	1503.222
597.138	21.850	1552.744	1506.418
598.153	22.259	1550.519	1507.603
599.167	22.109	1549.273	1504.921
600.182	22.175	1548.976	1505.021
601.196	22.344	1548.737	1506.066
602.211	22.044	1548.064	1502.646
603.226	22.377	1546.700	1504.005
604.240	22.416	1545.656	1503.144
605.255	22.796	1544.134	1504.740
606.269	22.586	1543.161	1501.810
607.284	22.573	1541.744	1500.148
608.299	22.477	1540.069	1497.512
609.313	22.284	1539.181	1494.824
610.328	22.423	1537.683	1494.378
611.342	22.462	1536.865	1493.736
612.357	22.689	1536.851	1495.476
613.372	22.815	1534.184	1493.772
614.386	22.651	1533.128	1491.177
615.401	22.672	1533.476	1491.511
616.415	22.696	1532.355	1490.445
617.430	22.824	1531.720	1490.739
618.445	23.022	1530.319	1490.877
619.459	22.573	1528.935	1485.546
620.474	22.285	1526.567	1480.629
621.488	21.661	1525.076	1473.730
622.503	21.275	1523.768	1469.029
623.518	22.018	1523.162	1474.544
624.532	22.477	1522.607	1477.700
625.547	22.758	1522.763	1480.048
626.561	23.018	1522.015	1481.333
627.576	23.085	1520.331	1480.081
628.591	22.423	1518.586	1472.638
629.605	22.062	1516.450	1467.362
630.620	21.899	1514.420	1463.849
631.634	21.428	1513.735	1459.062
632.649	21.673	1512.926	1460.165
633.663	22.255	1511.583	1463.565
634.678	22.601	1511.567	1466.263
635.693	22.903	1510.474	1467.554
636.707	23.117	1509.774	1468.481
637.722	23.303	1509.498	1469.589
638.736	23.383	1507.943	1468.568
639.751	23.183	1507.392	1466.186
640.766	23.131	1505.392	1463.640
641.780	23.154	1503.979	1462.276
642.795	23.038	1502.956	1460.145
643.809	22.997	1502.661	1459.348
644.824	23.022	1501.010	1457.774
645.839	22.806	1500.195	1455.016
646.853	22.982	1499.601	1455.721
647.868	22.957	1498.118	1453.901
648.882	22.975	1495.985	1451.808
649.897	22.898	1494.681	1449.739
650.912	22.784	1493.924	1447.890
651.926	22.925	1492.381	1447.382
652.941	22.543	1490.248	1441.997
653.955	22.085	1487.183	1435.100
654.970	21.610	1485.186	1429.104
655.985	21.676	1484.561	1428.872
656.999	21.749	1483.102	1427.896
658.014	21.989	1483.538	1430.109
659.028	22.438	1482.949	1433.045
660.043	22.762	1482.667	1435.245
661.058	22.866	1481.718	1435.009
662.072	22.896	1480.516	1433.917
663.087	22.796	1479.633	1432.070
664.101	22.795	1478.617	1430.908
665.116	23.052	1477.588	1431.839
666.131	23.060	1476.730	1430.902
667.145	23.089	1475.080	1429.362
668.160	23.329	1474.542	1430.623
669.174	23.720	1472.841	1431.969
670.189	23.349	1472.078	1428.051
671.204	23.157	1471.316	1425.580
672.218	23.161	1470.490	1424.647
673.233	23.381	1469.270	1425.076
674.247	23.712	1468.232	1426.569
675.262	23.686	1467.572	1425.546
676.276	23.709	1466.578	1424.591
677.291	23.415	1465.318	1420.833
678.306	23.146	1463.573	1416.805
679.320	23.211	1462.320	1415.948
680.335	23.412	1462.591	1417.655
681.349	23.698	1461.980	1419.193
682.364	23.547	1461.119	1416.969
683.379	23.407	1459.449	1414.056
684.393	23.426	1457.424	1412.083
685.408	23.623	1456.715	1412.803
686.422	23.506	1455.847	1410.851
687.437	23.505	1455.511	1410.351
688.452	23.717	1454.943	1411.328
689.466	23.679	1452.678	1408.659
690.481	23.361	1451.057	1404.387
691.495	23.005	1449.463	1399.838
692.510	22.365	1447.163	1392.365
693.525	21.947	1444.983	1386.783
694.539	22.330	1445.065	1389.736
695.554	23.137	1445.496	1396.389
696.568	23.669	1445.648	1400.590
697.583	23.673	1445.696	1400.494
698.598	23.810	1444.743	1400.494
699.612	23.828	1443.509	1399.273
700.627	23.970	1441.453	1398.234
701.641	23.856	1440.159	1395.909
702.656	23.658	1439.593	1393.634
703.671	24.081	1439.001	1396.223
704.685	24.087	1438.637	1395.756
705.700	23.924	1436.397	1392.130
706.714	23.681	1434.327	1388.047
707.729	23.480	1432.930	1384.955
708.744	23.327	1432.072	1382.755
709.758	23.254	1429.723	1379.755
710.773	22.819	1427.890	1374.416
711.787	22.500	1426.963	1370.861
712.802	22.791	1425.868	1371.918
713.816	23.177	1425.642	1374.554
714.831	23.425	1425.801	1376.479
715.846	23.660	1425.135	1377.504
716.860	23.807	1423.750	1377.143
717.875	23.761	1422.267	1375.189
718.889	23.680	1421.075	1373.242
719.904	23.646	1420.501	1372.258
720.919	23.878	1419.691	1373.110
721.933	23.864	1419.273	1372.434
722.948	24.051	1417.802	1372.295
723.962	24.044	1416.534	1370.849
724.977	24.207	1415.822	1371.263
725.992	24.116	1415.043	1369.638
727.006	24.068	1413.658	1367.763
728.021	23.943	1412.391	1365.412
729.035	24.077	1411.649	1365.564
730.050	24.079	1410.212	1364.026
731.065	24.214	1408.596	1363.331
732.079	24.081	1408.632	1362.186
733.094	24.000	1407.047	1359.864
734.108	23.987	1405.174	1357.791
735.123	24.157	1403.238	1357.060
736.138	23.864	1403.523	1354.933
737.152	23.982	1402.858	1355.029
738.167	24.230	1401.799	1355.743
739.181	24.527	1399.751	1355.865
740.196	24.434	1399.215	1354.474
741.211	24.266	1398.658	1352.491
742.225	24.204	1398.035	1351.252
743.240	24.193	1396.644	1349.666
744.254	24.237	1394.879	1348.133
745.269	24.170	1393.811	1346.432
746.284	24.149	1393.081	1345.401
747.298	23.968	1391.485	1342.333
748.313	23.460	1389.674	1336.570
749.327	22.977	1387.991	1331.137
750.342	22.415	1386.295	1325.101
751.356	22.049	1385.285	1321.211
752.371	22.302	1385.457	1323.129
753.386	23.421	1385.570	1331.530
754.400	24.071	1385.387	1336.107
755.415	24.221	1384.789	1336.494
756.429	24.267	1383.718	1335.653
757.444	24.005	1382.530	1332.370
758.459	24.270	1381.867	1333.565
759.473	24.356	1380.484	1332.718
760.488	24.662	1378.884	1333.309
761.502	24.670	1377.079	1331.464
762.517	24.390	1376.126	1328.287
763.532	24.206	1373.949	1324.654
764.546	23.968	1372.730	1321.541
765.561	23.290	1371.241	1314.894
766.575	22.492	1369.758	1307.361
767.590	22.472	1368.912	1306.248
768.605	23.229	1367.975	1310.838
769.619	23.643	1367.608	1313.404
770.634	24.072	1366.667	1315.531
771.648	24.288	1367.104	1317.400
772.663	24.338	1366.781	1317.305
773.678	24.466	1365.770	1317.119
774.692	24.400	1365.090	1315.820
775.707	24.472	1364.556	1315.682
776.721	24.554	1363.785	1315.383
777.736	24.555	1361.989	1313.499
778.751	24.561	1360.663	1312.111
779.765	24.551	1359.832	1311.079
780.780	24.521	1359.514	1310.395
781.794	24.404	1358.553	1308.445
782.809	24.313	1357.124	1306.247
783.824	24.222	1355.124	1303.492
784.838	23.723	1352.543	1297.196
785.853	22.869	1350.806	1289.110
786.867	23.141	1350.960	1291.097
787.882	23.451	1351.710	1293.934
788.897	23.746	1351.106	1295.364
789.911	23.874	1350.849	1295.903
790.926	24.101	1349.189	1295.811
791.940	24.262	1347.942	1295.633
792.955	24.337	1346.759	1294.896
793.969	24.627	1345.242	1295.393
794.984	24.349	1345.338	1293.307
795.999	24.638	1343.939	1293.910
797.013	24.785	1341.855	1292.814
798.028	24.729	1340.912	1291.346
799.042	24.774	1340.982	1291.581
800.057	24.672	1340.150	1289.892
801.072	24.721	1338.104	1288.116
802.086	24.747	1336.583	1286.692
803.101	24.818	1335.839	1286.332
804.115	24.674	1335.301	1284.620
805.130	24.629	1334.486	1283.353
806.145	24.799	1333.209	1283.198
807.159	24.757	1331.436	1281.038
808.174	24.699	1329.668	1278.765
809.188	24.449	1328.607	1275.794
810.203	24.166	1326.565	1271.657
811.218	23.875	1324.307	1267.256
812.232	23.340	1322.502	1261.544
813.247	23.037	1321.596	1258.361
814.261	23.722	1322.650	1264.122
815.276	24.111	1322.538	1266.644
816.291	24.441	1321.872	1268.206
817.305	24.574	1321.332	1268.491
818.320	24.676	1320.423	1268.193
819.334	24.757	1318.433	1266.706
820.349	24.879	1317.005	1266.048
821.364	24.864	1316.198	1265.015
822.378	24.776	1314.544	1262.647
823.393	24.876	1312.260	1261.016
824.407	24.928	1311.277	1260.283
825.422	24.692	1311.322	1258.511
826.437	24.692	1309.787	1256.887
827.451	24.481	1307.183	1252.747
828.466	23.625	1305.163	1244.631
829.480	23.150	1303.593	1239.639
830.495	23.700	1302.216	1242.052
831.509	24.096	1302.602	1245.054
832.524	24.317	1302.326	1246.191
833.539	24.522	1302.135	1247.301
834.553	24.799	1301.000	1248.005
835.568	24.797	1299.476	1246.380
836.582	24.842	1298.359	1245.474
837.597	24.956	1296.914	1244.736
838.612	24.846	1295.345	1242.312
839.626	24.599	1294.251	1239.392
840.641	24.388	1292.972	1236.554
841.655	24.072	1290.806	1232.138
842.670	23.356	1289.211	1225.487
843.685	22.674	1288.052	1219.501
844.699	23.549	1287.659	1225.060
845.714	24.252	1287.049	1229.209
846.728	24.414	1287.165	1230.297
847.743	24.618	1286.732	1231.146
848.758	24.729	1285.101	1230.207
849.772	24.928	1283.691	1230.083
850.787	24.982	1282.368	1229.042
851.801	24.837	1281.811	1227.363
852.816	24.824	1280.351	1225.729
853.831	24.771	1278.686	1223.620
854.845	24.659	1277.191	1221.271
855.860	24.473	1275.767	1218.491
856.874	24.437	1273.974	1216.385
857.889	24.065	1271.772	1211.594
858.904	23.690	1269.683	1206.898
859.918	23.166	1267.694	1201.283
860.933	22.867	1267.124	1198.564
861.947	23.578	1266.856	1203.013
862.962	23.863	1266.156	1204.149
863.977	23.962	1265.776	1204.316
864.991	24.221	1265.774	1205.931
866.006	24.414	1265.075	1206.432
867.020	24.742	1263.600	1207.104
868.035	24.844	1262.585	1206.684
869.049	24.872	1261.827	1206.005
870.064	25.191	1260.769	1207.005
871.079	24.818	1260.025	1203.625
872.093	24.625	1259.531	1201.706
873.108	24.778	1258.128	1201.256
874.122	24.388	1256.002	1196.453
875.137	23.873	1255.222	1192.100
876.152	23.759	1254.333	1190.345
877.166	23.965	1252.635	1189.976
878.181	24.317	1252.199	1191.787
879.195	24.625	1251.641	1193.181
880.210	24.785	1251.176	1193.668
881.225	24.785	1250.578	1192.953
882.239	24.857	1249.476	1192.240
883.254	24.900	1248.464	1191.423
884.268	24.859	1247.931	1190.495
885.283	24.853	1246.691	1189.132
886.298	24.869	1245.041	1187.517
887.312	24.869	1243.596	1185.996
888.327	24.868	1242.181	1184.501
889.341	24.890	1240.891	1183.276
890.356	24.735	1240.400	1181.634
891.371	24.834	1239.850	1181.631
892.385	24.657	1238.893	1179.404
893.400	24.528	1237.618	1177.190
894.414	24.331	1236.606	1174.785
895.429	24.075	1233.994	1170.467
896.444	23.073	1230.963	1160.848
897.458	22.546	1229.887	1156.219
898.473	23.067	1230.677	1160.259
899.487	23.761	1230.458	1164.486
900.502	24.144	1230.422	1166.840
901.517	24.597	1229.077	1168.404
902.531	24.758	1228.390	1168.665
903.546	24.799	1227.836	1168.265
904.560	24.752	1227.277	1167.286
905.575	24.757	1226.294	1166.247
906.589	24.732	1224.986	1164.698
907.604	24.782	1224.404	1164.331
