DTS Sentinel unit serial number:	SN409020Multiplexer serial number:	ORYXHardware model number:	OX4-SRSoftware version number:	ORYX F/W v3.00 Oryx Data Collector v3.7.2.0data status	okinstallation	HaddamTimeLapsedifferential loss correction	single-endedforward channel	channel 3reverse channel	N/Adate	2011/06/22time	01:21:17forward acquisition time	30.00reverse acquisition time	0.00gamma	498.7831k internal	0.1751k external	0.1751temperature offset calibration	1.0074default loss term (dB/km)	0.3790temperature slope calibration	1.3530multiplexer offset coefficient	1.0000multiplexer slope coefficient	1.0000fibre end	0.00T internal ref (°C)	22.50T ext. ref 1 (°C)	17.79T ext. ref 2 (°C)	0.01length (m)	temperature (°C)	Stokes	anti-Stokes-747.200	-121.640	-0.266	0.058
-746.185	-66.824	-0.321	-0.168
-745.171	-77.990	0.152	-0.069
-744.156	251.325	0.238	0.539
-743.142	-116.838	0.501	-0.121
-742.127	-104.597	0.336	0.102
-741.112	-120.481	-0.230	-0.051
-740.098	800.000	-0.032	0.122
-739.083	800.000	-0.058	-0.271
-738.069	245.427	0.162	0.363
-737.054	-174.653	0.382	0.014
-736.039	-112.565	-0.273	-0.072
-735.025	-89.744	-0.494	0.191
-734.010	14.635	0.117	0.121
-732.996	133.184	0.320	0.549
-731.981	800.000	-0.060	-0.297
-730.966	787.517	-0.032	-0.119
-729.952	-80.862	-0.217	-0.095
-728.937	800.000	-0.136	-0.634
-727.923	521.739	0.118	-0.370
-726.908	800.000	-0.121	-0.451
-725.894	-116.060	0.056	0.014
-724.879	-200.000	0.040	-0.281
-723.864	-200.000	0.016	-0.216
-722.850	-147.059	0.342	0.038
-721.835	-109.146	-0.378	0.106
-720.821	79.553	0.145	-0.207
-719.806	-73.296	-0.547	-0.264
-718.791	-7.721	-0.308	-0.276
-717.777	-48.111	0.232	-0.148
-716.762	-127.666	0.088	-0.017
-715.748	554.557	0.018	-0.057
-714.733	-156.823	0.716	-0.058
-713.718	7.341	-0.082	0.081
-712.704	-65.016	0.489	0.261
-711.689	-200.000	0.004	0.066
-710.675	-117.600	0.485	0.115
-709.660	-2.277	-0.188	-0.175
-708.645	-200.000	0.002	-0.209
-707.631	800.000	-0.101	0.562
-706.616	88.372	-0.214	-0.316
-705.602	-106.511	0.437	0.128
-704.587	-159.518	0.605	0.044
-703.572	-127.542	-0.406	-0.077
-702.558	-97.105	0.289	-0.100
-701.543	-62.525	0.202	0.111
-700.529	-67.786	-0.317	-0.164
-699.514	-200.000	-0.015	-0.187
-698.499	150.655	-0.156	-0.281
-697.485	637.487	-0.045	-0.152
-696.470	-52.884	-0.376	-0.229
-695.456	98.824	0.287	-0.440
-694.441	-200.000	-0.020	0.413
-693.426	-166.286	0.372	-0.020
-692.412	317.918	0.116	0.292
-691.397	-200.000	-0.058	-0.484
-690.383	-153.925	-0.448	0.040
-689.368	500.741	-0.110	-0.338
-688.354	-60.953	-0.404	-0.225
-687.339	-51.142	0.576	-0.357
-686.324	109.823	0.146	-0.232
-685.310	-200.000	0.009	0.133
-684.295	-140.459	-0.239	0.033
-683.281	54.029	-0.091	0.116
-682.266	-31.337	-0.226	-0.168
-681.251	-53.596	-0.280	-0.169
-680.237	-68.752	-0.145	0.074
-679.222	-144.686	0.147	-0.018
-678.208	421.181	-0.206	-0.587
-677.193	-44.283	-0.587	-0.389
-676.178	-106.113	-0.397	0.117
-675.164	-81.538	0.333	-0.144
-674.149	-200.000	-0.073	-0.438
-673.135	-100.411	0.166	-0.054
-672.120	551.722	0.098	0.314
-671.105	-200.000	0.010	0.118
-670.091	-151.604	0.368	0.036
-669.076	442.215	-0.162	-0.473
-668.062	151.918	0.146	-0.264
-667.047	-142.433	-0.458	0.059
-666.032	-23.117	0.124	0.099
-665.018	-87.220	-0.264	-0.106
-664.003	-36.679	-0.395	-0.280
-662.989	-167.318	-0.052	0.003
-661.974	-41.753	-0.236	0.160
-660.959	-185.527	0.086	-0.002
-659.945	56.279	-0.229	-0.294
-658.930	-176.582	-0.659	0.022
-657.916	142.601	0.117	0.206
-656.901	-193.684	-0.229	-0.003
-655.886	-15.668	0.191	-0.161
-654.872	-49.454	0.057	-0.036
-653.857	-87.439	-0.229	-0.091
-652.843	-66.095	-0.270	0.142
-651.828	214.349	-0.054	-0.113
-650.814	136.811	-0.307	0.531
-649.799	-20.637	-0.625	0.507
-648.784	-151.062	0.237	-0.023
-647.770	-92.794	-0.914	-0.336
-646.755	-107.129	-0.227	0.066
-645.741	-54.097	-0.412	0.247
-644.726	800.000	-0.079	-0.357
-643.711	340.719	0.109	0.283
-642.697	306.547	-0.184	0.454
-641.682	87.858	-0.294	0.431
-640.668	-58.130	0.114	-0.065
-639.653	-200.000	-0.017	-0.113
-638.638	239.423	0.035	-0.077
-637.624	149.107	-0.118	0.211
-636.609	-200.000	0.012	0.241
-635.595	-92.378	0.070	-0.026
-634.580	122.216	0.256	-0.423
-633.565	25.770	0.513	-0.565
-632.551	-200.000	0.055	-0.353
-631.536	-200.000	0.007	-0.607
-630.522	155.431	-0.165	-0.302
-629.507	-69.748	0.208	-0.105
-628.492	-16.815	0.288	-0.241
-627.478	-5.163	0.295	-0.268
-626.463	-200.000	-0.026	0.243
-625.449	-200.000	-0.001	0.011
-624.434	200.084	0.071	0.145
-623.419	-200.000	0.012	-0.193
-622.405	800.000	0.026	0.150
-621.390	-36.529	-0.431	-0.306
-620.376	-83.077	1.140	-0.483
-619.361	-100.025	-0.456	0.149
-618.346	-62.078	0.579	-0.318
-617.332	-162.753	0.047	0.003
-616.317	-34.737	-0.396	-0.285
-615.303	-200.000	0.040	-0.296
-614.288	-157.988	0.115	0.009
-613.273	-81.820	0.216	0.093
-612.259	111.635	-0.047	-0.076
-611.244	-200.000	0.032	0.679
-610.230	87.297	0.334	0.489
-609.215	274.234	-0.015	0.035
-608.201	33.224	-0.077	0.088
-607.186	800.000	-0.073	-0.274
-606.171	-174.101	0.045	-0.002
-605.157	800.000	0.053	-0.255
-604.142	23.659	-0.265	-0.288
-603.128	136.726	-0.101	-0.174
-602.113	201.199	-0.092	-0.189
-601.098	-67.223	-0.188	0.097
-600.084	-172.609	-0.382	0.016
-599.069	229.601	0.171	0.370
-598.055	800.000	0.090	0.336
-597.040	42.188	0.362	0.434
-596.025	-64.710	-0.491	0.262
-595.011	207.464	-0.141	-0.291
-593.996	-131.551	-0.546	-0.094
-592.982	180.249	-0.144	-0.280
-591.967	800.000	0.024	0.130
-590.952	-12.761	-0.368	0.316
-589.938	231.661	-0.280	-0.609
-588.923	-81.401	-0.394	0.170
-587.909	-96.201	0.180	0.063
-586.894	96.347	-0.194	0.293
-585.879	-34.650	0.252	0.181
-584.865	-200.000	0.042	0.268
-583.850	-113.231	0.118	-0.031
-582.836	-18.331	-0.297	0.245
-581.821	-109.931	-0.426	0.117
-580.806	12.597	0.185	0.188
-579.792	589.343	-0.118	-0.387
-578.777	271.636	-0.213	0.498
-577.763	-200.000	-0.105	0.729
-576.748	-59.584	0.352	-0.199
-575.733	800.000	-0.047	0.221
-574.719	-75.522	0.217	-0.101
-573.704	-73.313	0.267	-0.128
-572.690	-43.783	-0.174	-0.116
-571.675	-35.469	0.175	0.125
-570.661	-80.110	-0.341	0.150
-569.646	-57.358	0.252	0.145
-568.631	-84.038	0.169	0.071
-567.617	139.793	0.113	0.196
-566.602	-72.273	-0.380	-0.185
-565.588	186.873	-0.127	0.250
-564.573	-66.048	0.645	-0.338
-563.558	68.457	0.067	-0.091
-562.544	-135.199	-0.499	0.078
-561.529	-150.324	-0.379	-0.038
-560.515	63.942	0.234	-0.311
-559.500	-182.305	-0.529	-0.013
-558.485	-34.264	-0.179	0.129
-557.471	-43.698	0.241	0.160
-556.456	-67.362	0.485	0.250
-555.442	-51.874	-0.187	-0.114
-554.427	-89.068	-0.087	0.034
-553.412	-200.000	-0.012	0.242
-552.398	237.994	-0.208	-0.457
-551.383	381.236	0.052	0.141
-550.369	-200.000	0.078	0.467
-549.354	171.825	-0.205	-0.389
-548.339	143.775	-0.151	-0.266
-547.325	-200.000	0.016	0.261
-546.310	-74.304	-0.462	0.219
-545.296	-141.506	0.160	-0.021
-544.281	785.952	-0.047	-0.170
-543.266	-83.010	0.168	0.071
-542.252	-88.966	-0.328	0.127
-541.237	270.413	0.145	0.337
-540.223	800.000	-0.053	-0.284
-539.208	-82.158	-0.519	-0.222
-538.193	58.670	-0.226	-0.293
-537.179	-130.199	-0.382	-0.068
-536.164	-135.379	-0.478	0.074
-535.150	-74.551	-0.398	0.188
-534.135	80.719	0.198	0.281
-533.121	-51.094	-0.263	0.162
-532.106	-200.000	0.008	0.056
-531.091	-129.576	-0.064	-0.012
-530.077	-124.249	-0.210	0.043
-529.062	308.586	-0.154	0.381
-528.048	157.813	-0.069	-0.126
-527.033	95.198	-0.246	-0.370
-526.018	746.670	0.059	0.211
-525.004	-200.000	-0.058	-0.442
-523.989	-99.417	-0.528	-0.174
-522.975	-135.722	0.468	0.072
-521.960	800.000	0.092	-0.372
-520.945	132.733	0.177	0.302
-519.931	-39.713	-0.062	0.043
-518.916	-4.014	0.181	0.165
-517.902	135.654	-0.174	0.299
-516.887	134.944	0.164	0.280
-515.872	-7.032	-0.249	-0.223
-514.858	-24.534	-0.236	-0.184
-513.843	-103.771	0.544	-0.167
-512.829	-62.210	-0.185	-0.101
-511.814	92.628	0.223	-0.331
-510.799	-119.646	-0.172	0.039
-509.785	-113.938	0.722	0.183
-508.770	-102.272	0.343	-0.108
-507.756	-94.933	-0.308	-0.109
-506.741	22.996	-0.141	-0.152
-505.726	-91.726	0.829	0.308
-504.712	-103.882	0.451	-0.138
-503.697	800.000	-0.149	0.561
-502.683	509.333	0.077	-0.238
-501.668	-31.242	0.323	-0.239
-500.653	186.586	0.039	0.076
-499.639	-120.063	0.386	0.086
-498.624	-175.073	0.239	-0.009
-497.610	-200.000	-0.049	-0.390
-496.595	-200.000	-0.005	-0.105
-495.581	417.531	0.056	0.159
-494.566	-115.538	0.214	-0.052
-493.551	181.664	0.111	-0.216
-492.537	-200.000	-0.012	-0.113
-491.522	-133.901	-0.380	0.061
-490.508	8.804	-0.178	0.176
-489.493	309.948	-0.120	0.297
-488.478	-58.226	-0.231	-0.132
-487.464	282.448	-0.111	-0.263
-486.449	267.647	0.194	-0.449
-485.435	-200.000	0.001	0.097
-484.420	-181.173	-0.518	0.013
-483.405	-43.259	-0.258	0.171
-482.391	-107.641	0.257	0.073
-481.376	-165.778	0.278	0.015
-480.362	-121.985	0.509	0.109
-479.347	-139.369	0.176	0.025
-478.332	39.213	0.134	0.158
-477.318	773.546	-0.075	-0.270
-476.303	33.441	-0.199	0.227
-475.289	-78.907	-0.522	0.232
-474.274	-29.652	0.139	0.104
-473.259	-48.972	0.124	-0.078
-472.245	-98.991	0.154	-0.051
-471.230	-20.791	0.452	-0.364
-470.216	-111.600	0.407	-0.108
-469.201	800.000	-0.026	0.133
-468.186	-2.916	-0.244	0.223
-467.172	27.913	0.407	-0.451
-466.157	65.065	-0.249	0.330
-465.143	800.000	-0.055	0.245
-464.128	139.455	0.399	-0.691
-463.113	280.499	0.051	-0.120
-462.099	-200.000	-0.065	0.556
-461.084	-200.000	0.011	0.178
-460.070	365.773	-0.231	0.614
-459.055	86.055	0.054	0.078
-458.040	-112.137	-0.203	-0.053
-457.026	18.260	0.192	-0.201
-456.011	-88.291	-0.417	-0.163
-454.997	-200.000	-0.035	-0.263
-453.982	-25.608	0.212	0.164
-452.968	245.251	0.197	0.436
-451.953	127.284	0.054	-0.090
-450.938	-200.000	-0.022	-0.267
-449.924	-59.213	-0.510	0.288
-448.909	-81.364	0.571	-0.246
-447.895	-137.390	0.212	-0.031
-446.880	-46.852	0.147	-0.094
-445.865	800.000	-0.098	0.555
-444.851	-29.508	-0.171	0.128
-443.836	-32.005	0.188	0.138
-442.822	-57.296	0.320	-0.184
-441.807	-75.282	-0.397	-0.185
-440.792	282.233	-0.171	-0.405
-439.778	244.207	0.306	-0.678
-438.763	-15.938	0.109	-0.091
-437.749	228.847	-0.076	0.163
-436.734	65.716	0.198	-0.263
-435.719	603.153	-0.157	-0.514
-434.705	-133.450	-0.444	-0.072
-433.690	666.849	-0.020	-0.069
-432.676	68.180	0.078	-0.105
-431.661	216.096	-0.101	-0.211
-430.646	-53.132	-0.227	0.136
-429.632	-100.549	-0.148	-0.048
-428.617	-200.000	-0.006	-0.048
-427.603	800.000	-0.052	0.258
-426.588	-138.220	0.578	0.083
-425.573	398.405	0.279	0.771
-424.559	-120.532	-0.032	0.007
-423.544	-86.437	0.283	0.114
-422.530	-200.000	0.011	-0.252
-421.515	-112.598	0.130	-0.034
-420.500	-87.304	0.463	-0.183
-419.486	-200.000	-0.034	-0.378
-418.471	235.669	-0.170	0.369
-417.457	-78.846	-0.185	-0.082
-416.442	97.507	-0.141	-0.213
-415.428	24.049	-0.294	0.318
-414.413	-149.685	0.175	0.018
-413.398	-82.684	0.538	0.227
-412.384	161.410	-0.219	-0.403
-411.369	-26.231	-0.329	-0.253
-410.355	357.468	0.176	-0.461
-409.340	-110.208	-0.309	0.084
-408.325	-106.635	0.279	0.081
-407.311	-21.765	-0.178	-0.142
-406.296	-43.584	0.272	-0.179
-405.282	-200.000	0.091	0.531
-404.267	0.091	0.187	0.175
-403.252	-76.088	-0.345	0.159
-402.238	-107.634	0.194	0.055
-401.223	800.000	-0.125	-0.672
-400.209	141.754	0.153	-0.267
-399.194	-42.433	-0.290	-0.193
-398.179	800.000	-0.021	-0.111
-397.165	38.199	-0.217	-0.253
-396.150	144.539	0.237	-0.416
-395.136	-63.910	0.119	-0.064
-394.121	-69.972	0.177	-0.088
-393.106	-200.000	0.038	0.415
-392.092	-141.643	0.234	0.030
-391.077	-11.064	0.197	-0.170
-390.063	35.973	-0.052	-0.060
-389.048	800.000	-0.091	-0.348
-388.033	-93.809	-0.509	0.183
-387.019	-200.000	-0.017	0.105
-386.004	800.000	-0.094	0.378
-384.990	526.149	-0.132	-0.408
-383.975	421.147	0.034	-0.095
-382.960	-200.000	0.064	0.388
-381.946	18.294	0.171	-0.179
-380.931	-8.700	0.158	-0.139
-379.917	-47.224	0.105	-0.067
-378.902	250.619	0.078	-0.174
-377.888	-52.515	-0.423	-0.255
-376.873	-144.260	0.479	0.058
-375.858	-36.967	0.215	-0.150
-374.844	-200.000	0.058	-0.364
-373.829	-155.269	-0.486	-0.041
-372.815	-117.976	0.022	-0.005
-371.800	-98.945	0.455	0.150
-370.785	-40.198	0.234	0.159
-369.771	425.959	0.217	-0.615
-368.756	-121.199	0.493	-0.107
-367.742	586.508	-0.096	0.310
-366.727	156.538	-0.314	-0.569
-365.712	-145.713	0.406	-0.047
-364.698	64.799	0.076	0.101
-363.683	-138.371	-0.517	0.074
-362.669	527.676	0.053	-0.164
-361.654	3.749	0.162	0.155
-360.639	-31.119	0.341	-0.251
-359.625	-28.577	0.217	-0.163
-358.610	-141.291	0.413	-0.054
-357.596	-183.468	-0.201	0.004
-356.581	319.382	0.068	-0.171
-355.566	374.092	-0.184	0.493
-354.552	-18.587	-0.163	0.133
-353.537	-126.284	0.329	-0.064
-352.523	-200.000	-0.021	0.137
-351.508	310.098	-0.110	-0.270
-350.493	31.546	0.378	-0.425
-349.479	-165.418	0.336	-0.019
-348.464	129.354	0.161	-0.269
-347.450	-93.220	-0.273	-0.099
-346.435	280.463	-0.178	0.417
-345.420	-200.000	0.027	-0.227
-344.406	-94.372	-0.433	0.154
-343.391	800.000	0.123	-0.446
-342.377	-34.053	-0.326	0.234
-341.362	335.631	-0.142	0.360
-340.348	-87.588	-0.039	0.015
-339.333	-1.068	-0.188	0.174
-338.318	171.646	0.138	-0.261
-337.304	800.000	0.103	0.422
-336.289	81.322	0.118	-0.166
-335.275	-97.153	0.416	-0.141
-334.260	-40.209	0.121	-0.082
-333.245	-200.000	0.028	-0.299
-332.231	800.000	0.034	-0.187
-331.216	-23.576	-0.175	0.137
-330.202	17.895	0.201	-0.210
-329.187	-174.003	-0.231	-0.009
-328.172	-177.964	0.257	0.008
-327.158	-42.749	0.295	-0.196
-326.143	-200.000	-0.056	0.458
-325.129	800.000	0.030	0.154
-324.114	95.777	-0.136	-0.203
-323.099	70.688	-0.302	0.409
-322.085	-92.478	-0.359	-0.131
-321.070	-96.821	0.420	-0.143
-320.056	432.446	-0.014	-0.041
-319.041	36.422	0.053	-0.061
-318.026	11.794	0.046	-0.046
-317.012	800.000	-0.036	0.170
-315.997	-42.217	-0.140	-0.093
-314.983	140.466	-0.146	-0.252
-313.968	800.000	0.075	0.272
-312.953	-145.692	-0.090	0.010
-311.939	800.000	0.046	-0.181
-310.924	-180.085	0.280	0.008
-309.910	176.557	-0.387	-0.737
-308.895	-105.269	-0.429	-0.127
-307.880	78.591	0.258	0.361
-306.866	-28.513	0.220	-0.165
-305.851	-109.903	-0.235	-0.064
-304.837	201.365	-0.171	-0.346
-303.822	-12.163	-0.101	-0.087
-302.807	800.000	-0.074	-0.345
-301.793	-27.874	-0.210	-0.158
-300.778	-45.959	0.337	0.216
-299.764	-52.415	-0.528	0.318
-298.749	-139.425	-0.125	0.017
-297.735	314.338	0.062	0.153
-296.720	729.043	0.044	0.154
-295.705	785.451	-0.065	-0.236
-294.691	137.431	-0.131	0.224
-293.676	-68.080	-0.237	-0.120
-292.662	-101.089	0.286	0.091
-291.647	-200.000	0.047	0.315
-290.632	-200.000	0.001	0.480
-289.618	-162.233	0.563	0.036
-288.603	-73.166	0.492	0.234
-287.589	584.393	0.118	0.379
-286.574	-69.808	0.507	-0.251
-285.559	800.000	-0.061	0.240
-284.545	66.468	-0.060	0.080
-283.530	-48.988	0.186	-0.116
-282.516	-143.501	-0.290	-0.036
-281.501	-84.003	0.607	-0.250
-280.486	800.000	-0.072	-0.269
-279.472	89.271	-0.115	0.167
-278.457	18.253	-0.101	0.105
-277.443	-59.994	-0.103	0.057
-276.428	153.769	-0.170	-0.304
-275.413	151.621	-0.035	-0.063
-274.399	-200.000	0.008	-0.249
-273.384	800.000	0.122	-0.639
-272.370	-52.545	0.442	0.265
-271.355	-21.797	-0.358	-0.284
-270.340	-200.000	0.010	-0.354
-269.326	560.202	0.084	0.266
-268.311	-15.214	-0.433	0.360
-267.297	-200.000	0.014	0.176
-266.282	-101.387	-0.250	0.079
-265.267	-200.000	0.059	0.373
-264.253	-109.067	0.583	0.161
-263.238	170.892	-0.059	0.110
-262.224	-51.201	0.139	-0.085
-261.209	-28.319	-0.136	0.102
-260.195	-200.000	-0.009	-0.177
-259.180	-200.000	-0.029	0.246
-258.165	249.782	0.163	0.361
-257.151	32.709	0.312	-0.352
-256.136	-82.792	0.180	-0.076
-255.122	-49.061	-0.302	0.188
-254.107	-55.299	-0.310	-0.181
-253.092	-119.759	0.229	-0.051
-252.078	800.000	-0.066	0.322
-251.063	-55.654	-0.285	-0.166
-250.049	-65.495	0.105	-0.055
-249.034	183.284	0.165	-0.318
-248.019	-200.000	-0.030	0.468
-247.005	160.354	0.202	-0.368
-245.990	-6.003	-0.367	0.326
-244.976	13.411	0.131	-0.132
-243.961	-11.939	0.312	-0.266
-242.946	522.437	0.046	-0.140
-241.932	33.301	-0.212	0.240
-240.917	81.341	-0.082	0.115
-239.903	-25.569	-0.225	-0.173
-238.888	-128.244	0.231	-0.043
-237.873	-46.340	0.277	0.177
-236.859	4.528	-0.252	-0.241
-235.844	-33.736	-0.347	0.249
-234.830	719.599	-0.094	0.328
-233.815	-67.827	-0.245	-0.124
-232.800	217.729	-0.032	-0.067
-231.786	84.446	-0.160	0.228
-230.771	-122.085	0.259	0.055
-229.757	-149.746	-0.104	0.011
-228.742	-71.739	-0.204	-0.099
-227.727	-200.000	0.009	0.136
-226.713	-0.197	-0.260	-0.241
-225.698	800.000	-0.091	-0.425
-224.684	55.819	-0.259	-0.327
-223.669	-84.728	0.245	0.100
-222.655	-22.249	-0.296	-0.233
-221.640	48.229	0.097	0.118
-220.625	800.000	-0.169	0.868
-219.611	-115.320	0.394	-0.096
-218.596	800.000	-0.057	0.277
-217.582	800.000	0.065	0.244
-216.567	229.516	0.105	-0.225
-215.552	-187.803	0.227	-0.004
-214.538	437.612	0.068	-0.195
-213.523	26.214	-0.106	-0.115
-212.509	-200.000	-0.052	-0.351
-211.494	667.748	-0.105	0.357
-210.479	274.275	0.226	0.522
-209.465	-48.194	0.247	0.154
-208.450	134.672	0.212	-0.358
-207.436	800.000	0.052	0.282
-206.421	-200.000	0.046	0.456
-205.406	-89.564	-0.213	-0.081
-204.392	-178.220	-0.325	-0.010
-203.377	138.514	0.116	-0.199
-202.363	-54.143	-0.360	0.212
-201.348	-160.082	0.272	0.019
-200.333	499.730	0.104	-0.313
-199.319	800.000	-0.075	-0.427
-198.304	-136.390	-0.353	0.053
-197.290	-200.000	-0.027	-0.288
-196.275	92.087	-0.311	0.456
-195.260	47.620	-0.055	0.066
-194.246	-109.712	0.453	0.123
-193.231	-200.000	0.043	-0.349
-192.217	-133.958	-0.116	-0.018
-191.202	800.000	-0.004	-0.019
-190.187	49.315	0.287	0.351
-189.173	-70.436	-0.528	0.259
-188.158	-146.611	-0.544	-0.061
-187.144	-200.000	-0.024	-0.185
-186.129	-127.939	0.055	0.010
-185.114	57.775	-0.307	0.390
-184.100	-85.994	0.332	0.133
-183.085	78.293	0.267	0.371
-182.071	364.751	-0.113	0.296
-181.056	673.000	0.079	0.266
-180.042	-127.370	0.418	0.078
-179.027	-185.822	-0.390	-0.007
-178.012	152.250	-0.082	0.145
-176.998	-20.379	-0.461	0.368
-175.983	-128.583	-0.111	-0.020
-174.969	138.597	0.222	0.379
-173.954	800.000	0.098	0.400
-172.939	-100.516	-0.191	0.061
-171.925	-68.226	-0.175	-0.088
-170.910	-10.200	0.120	-0.103
-169.896	-107.992	0.452	-0.127
-168.881	475.032	-0.073	-0.216
-167.866	218.033	0.191	0.398
-166.852	-101.652	-0.380	0.119
-165.837	-76.914	0.232	-0.105
-164.823	-190.771	0.195	-0.003
-163.808	543.595	0.077	0.240
-162.793	-154.418	-0.249	0.021
-161.779	597.294	0.145	-0.469
-160.764	-142.293	0.149	-0.019
-159.750	-129.963	0.357	-0.063
-158.735	-76.830	0.227	0.102
-157.720	-97.097	-0.110	-0.037
-156.706	-200.000	-0.026	0.544
-155.691	25.515	0.265	0.286
-154.677	109.547	0.090	0.141
-153.662	61.257	0.039	-0.050
-152.647	-45.423	-0.282	0.181
-151.633	195.281	-0.134	0.265
-150.618	49.834	0.111	-0.136
-149.604	-200.000	0.004	0.348
-148.589	-150.008	-0.496	-0.050
-147.574	265.436	0.208	-0.473
-146.560	240.246	-0.072	-0.156
-145.545	-82.206	-0.055	0.023
-144.531	282.524	-0.173	0.404
-143.516	-55.729	-0.268	-0.155
-142.502	-94.963	0.641	-0.223
-141.487	-52.718	0.138	-0.082
-140.472	-101.093	0.283	0.089
-139.458	-89.058	-0.639	-0.244
-138.443	131.334	0.280	-0.468
-137.429	-200.000	-0.003	-0.401
-136.414	-58.469	0.244	-0.137
-135.399	31.036	-0.081	0.090
-134.385	-175.647	0.096	0.003
-133.370	108.625	-0.122	-0.190
-132.356	-71.975	0.758	0.364
-131.341	351.605	-0.147	0.380
-130.326	36.447	-0.133	0.153
-129.312	-200.000	0.030	0.281
-128.297	0.231	0.265	-0.245
-127.283	-99.947	0.371	0.119
-126.268	-30.018	0.263	0.194
-125.253	156.462	-0.109	0.196
-124.239	28.365	-0.236	0.258
-123.224	-86.261	0.204	0.081
-122.210	-41.840	-0.087	-0.058
-121.195	51.727	0.280	0.346
-120.180	109.118	0.198	-0.308
-119.166	-75.154	-0.119	-0.055
-118.151	128.556	0.103	-0.171
-117.137	647.475	-0.118	-0.392
-116.122	800.000	-0.064	-0.273
-115.107	530.856	0.053	-0.164
-114.093	800.000	-0.068	-0.251
-113.078	-140.275	-0.326	0.044
-112.064	84.212	-0.015	-0.021
-111.049	21.410	0.134	0.141
-110.034	-42.936	-0.653	-0.429
-109.020	383.625	-0.177	-0.475
-108.005	122.280	0.191	0.310
-106.991	-67.860	-0.390	-0.197
-105.976	65.449	0.205	-0.269
-104.962	20.246	0.064	-0.067
-103.947	-77.174	0.137	0.062
-102.932	-172.572	0.212	0.009
-101.918	-115.849	0.322	0.077
-100.903	28.606	-0.055	0.061
-99.889	-16.148	0.256	0.210
-98.874	-45.745	-0.136	0.087
-97.859	302.529	-0.181	-0.434
-96.845	-182.606	-0.599	-0.014
-95.830	122.681	-0.204	0.332
-94.816	-50.017	-0.017	0.010
-93.801	-49.501	-0.104	0.064
-92.786	1.833	0.235	0.219
-91.772	-116.957	0.285	-0.067
-90.757	-104.130	0.136	-0.041
-89.743	-197.435	-0.583	-0.005
-88.728	254.698	0.282	-0.627
-87.713	-200.000	0.064	-0.532
-86.699	-56.600	0.201	0.115
-85.684	-24.518	-0.140	-0.107
-84.670	-83.824	-0.275	-0.113
-83.655	-200.000	0.038	0.682
-82.640	-23.513	-0.256	0.199
-81.626	472.135	0.101	0.295
-80.611	-200.000	0.014	-0.245
-79.597	800.000	-0.058	-0.221
-78.582	-118.937	-0.039	-0.009
-77.567	-110.232	0.394	0.105
-76.553	35.015	0.235	0.266
-75.538	-128.625	0.170	0.031
-74.524	-128.035	0.423	0.078
-73.509	-109.052	0.501	-0.137
-72.494	214.816	-0.050	-0.102
-71.480	133.441	0.092	-0.154
-70.465	32.089	0.208	-0.232
-69.451	58.965	0.227	-0.289
-68.436	146.216	0.205	-0.357
-67.422	-200.000	-0.016	-0.207
-66.407	800.000	-0.045	0.244
-65.392	-102.719	0.393	0.120
-64.378	-93.202	0.737	0.263
-63.363	764.188	-0.104	0.368
-62.349	-21.426	-0.390	0.307
-61.334	26.941	-2.288	-2.481
-60.319	-21.950	1.685	1.322
-59.305	223.055	-3.657	-7.648
-58.290	61.690	3.677	4.737
-57.276	348.571	4.019	10.296
-56.261	-200.000	23.924	320.949
-55.246	352.186	1305.908	3360.791
-54.232	52.552	2846.686	3516.998
-53.217	51.055	2661.975	3265.486
-52.203	31.458	2391.467	2657.085
-51.188	27.662	2056.761	2238.385
-50.173	24.485	1942.693	2077.072
-49.159	23.275	1932.327	2051.821
-48.144	22.869	1927.296	2041.678
-47.130	22.793	1925.036	2038.322
-46.115	22.731	1923.136	2035.504
-45.100	22.773	1921.717	2034.417
-44.086	22.874	1919.336	2032.973
-43.071	22.688	1918.745	2030.120
-42.057	22.671	1916.945	2027.935
-41.042	22.729	1915.366	2026.854
-40.027	22.704	1914.091	2025.141
-39.013	22.641	1912.539	2022.690
-37.998	22.615	1912.061	2021.804
-36.984	22.532	1910.880	2019.524
-35.969	22.696	1909.057	2019.400
-34.954	22.672	1907.172	2017.047
-33.940	22.665	1906.810	2016.505
-32.925	22.617	1904.849	2013.805
-31.911	22.546	1903.655	2011.642
-30.896	22.638	1902.179	2011.059
-29.881	22.701	1901.244	2010.720
-28.867	22.574	1900.092	2007.960
-27.852	22.431	1898.423	2004.478
-26.838	22.404	1897.351	2002.961
-25.823	22.527	1895.363	2002.186
-24.809	22.582	1893.892	2001.188
-23.794	22.540	1892.882	1999.562
-22.779	22.401	1892.358	1997.337
-21.765	22.431	1890.855	1996.015
-20.750	22.546	1889.522	1995.834
-19.736	22.466	1888.882	1994.177
-18.721	22.566	1886.405	1992.613
-17.706	22.418	1886.526	1990.982
-16.692	22.344	1885.072	1988.527
-15.677	22.443	1884.026	1988.465
-14.663	22.462	1882.202	1986.676
-13.648	22.431	1881.540	1985.556
-12.633	22.426	1879.803	1983.578
-11.619	22.399	1878.630	1981.958
-10.604	22.405	1877.080	1980.313
-9.590	22.463	1875.971	1979.728
-8.575	22.422	1874.118	1977.229
-7.560	22.437	1873.529	1976.695
-6.546	22.383	1872.101	1974.501
-5.531	22.399	1871.404	1973.865
-4.517	22.405	1870.358	1972.751
-3.502	22.515	1868.659	1972.117
-2.487	22.358	1868.811	1970.434
-1.473	22.399	1865.091	1966.898
-0.458	22.279	1847.340	1946.768
0.556	18.705	1994.411	2046.710
1.571	17.336	2197.421	2236.690
2.586	18.156	2236.266	2286.981
3.600	18.254	2237.750	2289.544
4.615	18.159	2238.039	2288.278
5.629	18.237	2235.907	2286.877
6.644	18.109	2234.008	2282.938
7.659	18.209	2231.865	2281.822
8.673	18.248	2229.855	2280.019
9.688	17.957	2238.860	2285.040
10.702	17.035	2320.101	2354.812
11.717	15.440	2385.227	2397.736
12.731	7.360	2365.412	2262.063
13.746	0.930	2348.376	2153.766
14.761	0.098	2345.677	2139.138
15.775	0.071	2343.198	2136.234
16.790	0.075	2342.640	2135.525
17.804	0.020	2341.342	2133.309
18.819	0.073	2339.825	2132.433
19.834	0.012	2337.952	2129.602
20.848	0.129	2335.981	2129.216
21.863	0.048	2335.136	2127.036
22.877	0.083	2332.351	2124.740
23.892	0.012	2330.336	2121.641
24.907	0.036	2328.549	2120.107
25.921	0.017	2326.736	2117.921
26.936	0.019	2323.672	2114.911
27.950	0.087	2321.094	2113.269
28.965	-0.018	2319.627	2110.206
29.980	0.028	2318.354	2109.441
30.994	0.151	2316.341	2109.087
32.009	3.793	2327.824	2170.773
33.023	12.687	2353.270	2320.717
34.038	16.443	2359.711	2380.043
35.053	16.495	2356.104	2376.859
36.067	16.311	2352.294	2370.133
37.082	16.257	2350.943	2367.736
38.096	16.415	2348.875	2367.583
39.111	16.542	2347.474	2367.685
40.126	16.726	2345.008	2367.497
41.140	16.888	2343.171	2367.632
42.155	16.801	2342.469	2365.420
43.169	16.732	2340.105	2361.785
44.184	16.523	2336.517	2354.947
45.199	16.580	2334.630	2353.568
46.213	16.578	2334.310	2352.927
47.228	16.709	2333.370	2353.539
48.242	16.774	2331.024	2351.791
49.257	16.699	2329.600	2349.024
50.271	16.854	2327.535	2348.831
51.286	16.792	2323.424	2343.532
52.301	16.492	2322.763	2338.421
53.315	17.276	2325.392	2351.694
54.330	20.174	2332.322	2398.771
55.344	21.801	2334.180	2423.020
56.359	21.887	2330.479	2420.082
57.374	22.095	2330.946	2423.167
58.388	22.155	2328.719	2421.381
59.403	22.130	2323.309	2415.122
60.417	21.623	2321.235	2405.684
61.432	21.855	2317.943	2405.179
62.447	22.056	2317.480	2407.181
63.461	22.225	2317.070	2408.789
64.476	22.338	2313.870	2406.736
65.490	22.123	2311.265	2400.784
66.505	21.309	2307.793	2385.717
67.520	19.102	2300.420	2347.597
68.534	17.010	2292.427	2310.550
69.549	16.574	2286.556	2298.397
70.563	16.525	2283.867	2294.761
71.578	16.452	2282.588	2292.208
72.593	16.616	2281.869	2293.446
73.607	16.757	2278.976	2292.178
74.622	16.652	2278.422	2289.909
75.636	16.507	2275.578	2284.811
76.651	16.481	2272.632	2281.224
77.666	16.455	2270.614	2278.575
78.680	16.481	2268.159	2276.188
79.695	16.313	2266.182	2271.673
80.709	16.083	2265.260	2267.365
81.724	16.179	2262.745	2265.863
82.739	16.110	2260.035	2261.952
83.753	16.143	2258.164	2260.257
84.768	16.066	2256.415	2257.199
85.782	16.134	2254.974	2256.402
86.797	16.151	2252.808	2254.193
87.812	16.249	2251.443	2253.873
88.826	16.301	2250.316	2253.175
89.841	16.354	2247.665	2250.957
90.855	16.328	2245.058	2247.723
91.870	16.415	2243.788	2247.352
92.884	16.257	2243.085	2244.260
93.899	16.364	2241.224	2243.570
94.914	17.062	2243.901	2255.296
95.928	19.598	2250.888	2295.989
96.943	20.335	2249.466	2304.089
97.957	17.930	2238.483	2260.606
98.972	16.408	2233.024	2234.608
99.987	16.298	2229.716	2229.571
101.001	16.348	2227.019	2227.263
102.016	16.235	2224.728	2223.211
103.030	16.248	2223.840	2222.229
104.045	16.284	2220.165	2218.765
105.060	16.309	2218.791	2217.453
106.074	16.264	2216.287	2214.100
107.089	16.363	2214.876	2213.726
108.103	16.445	2213.350	2213.012
109.118	16.437	2212.529	2211.829
110.133	16.479	2210.796	2210.377
111.147	16.315	2208.192	2205.361
112.162	16.267	2206.959	2203.239
113.176	16.455	2204.959	2203.435
114.191	16.531	2203.645	2202.854
115.206	16.481	2202.191	2200.486
116.220	16.402	2200.350	2197.349
117.235	16.441	2198.254	2195.499
118.249	16.406	2196.194	2192.722
119.264	16.390	2194.341	2190.408
120.279	16.305	2193.172	2187.870
121.293	16.298	2191.643	2185.986
122.308	16.363	2190.032	2184.971
123.322	16.247	2187.541	2180.712
124.337	16.684	2189.795	2188.378
125.352	19.387	2198.025	2231.542
126.366	20.079	2195.884	2238.090
127.381	17.378	2184.444	2191.238
128.395	16.301	2179.252	2171.844
129.410	16.207	2177.074	2168.206
130.424	16.166	2175.851	2166.194
131.439	16.168	2174.216	2164.333
132.454	16.211	2172.949	2163.368
133.468	16.397	2170.919	2163.478
134.483	16.653	2169.267	2164.868
135.497	16.670	2167.777	2163.344
136.512	16.515	2165.234	2158.559
137.527	16.378	2163.821	2155.136
138.541	16.332	2161.358	2151.829
139.556	16.324	2160.745	2150.856
140.570	16.327	2160.003	2149.905
141.585	16.287	2157.388	2146.526
142.600	16.305	2156.166	2145.288
143.614	16.314	2154.289	2143.286
144.629	16.305	2152.197	2140.829
145.643	16.269	2150.616	2138.546
146.658	16.231	2149.704	2136.888
147.673	16.207	2147.403	2134.046
148.687	16.266	2146.038	2133.188
149.702	16.435	2145.434	2134.476
150.716	16.338	2144.980	2132.537
151.731	16.393	2142.298	2130.306
152.746	16.411	2141.555	2129.546
153.760	17.165	2144.158	2141.436
154.775	19.859	2150.679	2181.887
155.789	20.543	2149.735	2189.332
156.804	18.073	2139.306	2147.295
157.819	16.646	2132.527	2122.264
158.833	16.337	2128.850	2114.463
159.848	16.226	2127.945	2111.914
160.862	16.403	2126.374	2112.318
161.877	16.462	2125.507	2111.949
162.892	16.426	2125.010	2110.750
163.906	16.688	2122.523	2111.306
164.921	16.552	2120.185	2107.028
165.935	16.552	2118.756	2105.364
166.950	16.532	2117.390	2103.495
167.964	16.602	2114.378	2101.128
168.979	16.358	2113.215	2096.678
169.994	16.207	2112.226	2093.566
171.008	16.210	2109.619	2090.767
172.023	16.202	2107.981	2088.791
173.037	16.177	2107.314	2087.574
174.052	16.333	2105.558	2087.515
175.067	16.466	2103.435	2086.817
176.081	16.128	2103.160	2082.097
177.096	16.349	2101.391	2082.837
178.110	16.521	2099.099	2082.442
179.125	16.415	2098.680	2080.469
180.140	16.421	2096.257	2077.888
181.154	16.312	2095.330	2075.375
182.169	16.515	2096.088	2078.394
183.183	17.286	2097.961	2089.525
184.198	20.106	2105.002	2131.191
185.213	20.679	2101.648	2134.606
186.227	17.793	2092.387	2089.469
187.242	16.517	2088.698	2069.848
188.256	16.374	2086.177	2065.344
189.271	16.207	2083.806	2060.697
190.286	16.150	2082.608	2058.571
191.300	16.192	2079.692	2055.953
192.315	16.252	2078.744	2055.500
193.329	16.481	2076.872	2056.209
194.344	16.808	2076.376	2059.460
195.359	16.732	2076.222	2058.141
196.373	16.571	2072.305	2052.046
197.388	16.424	2069.738	2047.466
198.402	16.225	2068.288	2043.370
199.417	16.285	2065.504	2041.100
200.432	16.381	2064.376	2040.906
201.446	16.300	2063.153	2038.476
202.461	16.260	2061.781	2036.385
203.475	16.326	2059.910	2035.096
204.490	16.342	2058.057	2033.214
205.504	16.356	2055.739	2030.850
206.519	16.272	2054.586	2028.455
207.534	16.432	2052.854	2028.425
208.548	16.367	2051.699	2026.259
209.563	16.486	2051.086	2026.851
210.577	16.571	2049.627	2026.190
211.592	16.600	2048.806	2025.482
212.607	17.905	2053.178	2045.290
213.621	21.039	2060.748	2090.404
214.636	20.499	2053.847	2076.662
215.650	17.480	2045.250	2031.557
216.665	16.601	2042.082	2017.641
217.680	16.582	2039.926	2015.038
218.694	16.386	2038.091	2010.643
219.709	16.344	2036.555	2008.385
220.723	16.399	2035.185	2007.455
221.738	16.511	2033.357	2006.743
222.753	16.577	2031.215	2005.178
223.767	16.491	2029.821	2002.537
224.782	16.325	2029.057	1999.569
225.796	16.382	2026.391	1997.370
226.811	16.361	2025.565	1996.078
227.826	16.428	2023.490	1994.586
228.840	16.289	2022.657	1991.881
229.855	16.181	2021.121	1988.842
230.869	16.349	2019.207	1988.716
231.884	16.184	2017.851	1985.187
232.899	16.282	2015.461	1983.759
233.913	16.343	2015.296	1984.073
234.928	16.318	2014.106	1982.372
235.942	16.276	2011.131	1978.716
236.957	16.210	2010.468	1977.045
237.972	16.262	2009.001	1975.981
238.986	16.269	2007.355	1974.204
240.001	16.148	2006.533	1971.737
241.015	16.364	2005.690	1973.214
242.030	17.188	2007.173	1984.112
243.045	19.749	2013.547	2020.293
244.059	20.058	2010.544	2020.667
245.074	17.483	2000.246	1980.001
246.088	16.641	1995.968	1965.705
247.103	16.738	1995.132	1965.782
248.117	16.648	1993.233	1962.628
249.132	16.320	1991.734	1957.095
250.147	16.421	1990.275	1956.595
251.161	16.523	1988.498	1955.808
252.176	16.656	1987.778	1956.411
253.190	16.753	1986.602	1956.144
254.205	16.792	1984.986	1954.769
255.220	16.795	1982.149	1951.777
256.234	16.785	1981.169	1950.461
257.249	16.645	1979.944	1947.403
258.263	16.532	1978.934	1944.864
259.278	16.695	1978.112	1945.708
260.293	16.460	1976.210	1940.892
261.307	16.204	1974.114	1935.653
262.322	16.196	1972.830	1934.070
263.336	16.169	1970.622	1931.365
264.351	16.049	1968.745	1927.919
265.366	16.183	1967.332	1927.839
266.380	16.176	1966.768	1926.977
267.395	16.337	1965.100	1926.958
268.409	16.424	1962.983	1925.648
269.424	16.358	1961.920	1923.617
270.439	16.401	1961.745	1923.713
271.453	17.478	1963.564	1937.589
272.468	20.197	1969.142	1974.012
273.482	20.281	1965.435	1971.020
274.497	17.610	1955.492	1930.434
275.512	16.547	1951.739	1914.407
276.526	16.485	1949.235	1911.026
277.541	16.337	1947.613	1907.521
278.555	16.138	1947.269	1904.696
279.570	16.207	1945.337	1903.360
280.585	16.239	1943.476	1901.679
281.599	16.299	1942.530	1901.206
282.614	16.435	1941.934	1901.932
283.628	16.597	1940.828	1902.448
284.643	16.754	1939.572	1902.760
285.657	16.777	1939.302	1902.536
286.672	16.783	1937.965	1901.059
287.687	16.883	1935.030	1899.083
288.701	16.782	1933.843	1896.545
289.716	16.827	1932.591	1895.603
290.730	16.822	1931.096	1893.853
291.745	16.957	1930.050	1894.120
292.760	16.869	1929.452	1892.312
293.774	16.737	1928.080	1889.259
294.789	16.631	1926.374	1886.180
295.803	16.506	1923.975	1882.202
296.818	16.429	1922.763	1879.931
297.833	16.430	1922.581	1879.539
298.847	16.498	1920.605	1878.146
299.862	16.452	1918.545	1875.394
300.876	17.309	1919.926	1886.073
301.891	20.272	1926.365	1925.265
302.906	20.495	1924.062	1925.223
303.920	17.480	1915.447	1882.899
304.935	16.646	1911.221	1869.266
305.949	16.628	1908.347	1866.030
306.964	16.572	1907.640	1864.501
307.979	16.683	1905.946	1863.844
308.993	16.754	1905.365	1863.844
310.008	17.028	1903.435	1864.758
311.022	17.098	1901.691	1863.596
312.037	16.754	1900.537	1858.449
313.052	16.679	1898.730	1855.630
314.066	16.814	1897.424	1855.622
315.081	16.840	1896.674	1854.954
316.095	16.775	1895.106	1852.485
317.110	16.678	1893.587	1849.705
318.125	16.572	1891.971	1846.747
319.139	16.531	1891.280	1845.396
320.154	16.650	1888.841	1844.106
321.168	16.654	1887.577	1842.695
322.183	16.576	1885.455	1839.549
323.197	16.376	1883.552	1835.288
324.212	16.306	1881.745	1832.545
325.227	16.274	1880.052	1830.326
326.241	16.217	1879.102	1828.557
327.256	16.303	1877.870	1828.079
328.270	16.258	1877.687	1827.190
329.285	16.354	1877.374	1827.718
330.300	17.309	1882.381	1842.776
331.314	20.535	1887.387	1882.636
332.329	20.448	1881.472	1875.570
333.343	17.552	1871.948	1834.541
334.358	16.310	1869.032	1818.029
335.373	16.149	1867.030	1814.119
336.387	16.130	1864.270	1811.018
337.402	16.087	1863.231	1809.332
338.416	16.204	1861.701	1808.883
339.431	16.246	1860.633	1808.083
340.446	16.347	1859.429	1807.785
341.460	16.447	1858.948	1808.174
342.475	16.669	1857.066	1808.515
343.489	16.821	1855.841	1808.740
344.504	16.763	1854.631	1806.713
345.519	16.767	1852.734	1804.691
346.533	16.907	1852.496	1805.748
347.548	16.927	1852.065	1805.328
348.562	16.756	1850.143	1801.409
349.577	16.850	1848.986	1801.065
350.592	17.035	1847.669	1801.541
351.606	17.148	1846.719	1801.612
352.621	17.151	1844.860	1799.610
353.635	16.781	1842.981	1793.627
354.650	16.579	1841.611	1789.927
355.665	16.588	1839.030	1787.300
356.679	16.511	1837.924	1785.191
357.694	16.534	1836.600	1783.942
358.708	16.340	1835.180	1780.295
359.723	17.569	1839.636	1797.442
360.738	20.689	1844.039	1834.650
361.752	19.857	1839.095	1820.719
362.767	17.280	1831.661	1785.963
363.781	16.527	1828.782	1774.996
364.796	16.290	1826.840	1770.406
365.810	16.219	1826.215	1768.834
366.825	16.410	1825.453	1769.894
367.840	16.688	1824.611	1771.796
368.854	16.815	1823.647	1771.979
369.869	16.503	1822.029	1766.921
370.883	16.399	1819.656	1763.320
371.898	16.272	1818.408	1760.559
372.913	16.252	1816.833	1758.615
373.927	16.370	1816.120	1758.951
374.942	16.419	1815.470	1758.626
375.956	16.554	1813.513	1757.934
376.971	16.520	1810.782	1754.714
377.986	16.416	1809.810	1752.479
379.000	16.405	1808.163	1750.559
380.015	16.670	1806.731	1751.722
381.029	16.393	1805.556	1747.497
382.044	16.192	1803.219	1742.936
383.059	16.326	1801.533	1742.484
384.073	16.217	1800.245	1739.900
385.088	16.286	1800.231	1740.399
386.102	16.234	1798.208	1737.701
387.117	16.384	1796.324	1737.213
388.132	16.390	1795.399	1736.177
389.146	17.374	1800.798	1751.380
390.161	20.538	1805.350	1788.364
391.175	20.306	1797.381	1777.878
392.190	17.442	1789.221	1740.195
393.205	16.587	1786.035	1728.110
394.219	16.390	1784.975	1724.855
395.234	16.324	1783.487	1722.534
396.248	16.267	1781.505	1719.833
397.263	16.206	1780.075	1717.620
398.278	16.290	1778.437	1716.695
399.292	16.195	1777.127	1714.257
400.307	16.212	1776.211	1713.337
401.321	16.391	1775.411	1714.186
402.336	16.404	1774.426	1713.164
403.350	16.369	1772.973	1711.202
404.365	16.621	1771.744	1712.367
405.380	17.019	1770.564	1715.069
406.394	16.968	1770.155	1713.952
407.409	16.758	1769.118	1710.607
408.423	17.060	1767.404	1711.809
409.438	16.862	1765.548	1707.803
410.453	16.780	1765.487	1706.705
411.467	16.941	1764.013	1706.706
412.482	16.798	1762.044	1703.154
413.496	16.556	1760.407	1698.926
414.511	16.547	1757.757	1696.073
415.526	16.442	1755.868	1692.993
416.540	16.344	1754.409	1690.395
417.555	16.354	1753.297	1689.226
418.569	16.591	1754.209	1692.284
419.584	16.636	1754.328	1692.646
420.599	16.631	1753.619	1691.708
421.613	16.587	1751.611	1689.124
422.628	16.567	1749.674	1686.855
423.642	16.350	1748.080	1682.944
424.657	16.511	1746.526	1682.859
425.672	16.523	1745.860	1682.136
426.686	16.621	1744.487	1681.592
427.701	16.570	1743.990	1680.403
428.715	16.758	1742.069	1680.226
429.730	16.895	1740.965	1680.320
430.745	16.820	1740.782	1679.194
431.759	17.049	1739.264	1679.814
432.774	17.277	1739.634	1682.235
433.788	17.627	1740.831	1686.675
434.803	17.955	1739.756	1688.696
435.818	18.057	1738.843	1688.612
436.832	17.881	1737.715	1685.574
437.847	16.788	1731.172	1668.211
438.861	9.445	1710.805	1576.330
439.876	1.752	1696.510	1487.645
440.890	0.278	1692.956	1469.904
441.905	0.263	1691.741	1468.526
442.920	0.168	1691.241	1466.979
443.934	0.029	1690.025	1464.393
444.949	0.208	1687.767	1464.014
445.963	0.158	1687.290	1462.929
446.978	-0.046	1686.850	1460.383
447.993	0.087	1685.996	1460.764
449.007	0.077	1683.179	1458.053
450.022	0.165	1681.074	1456.913
451.036	0.219	1680.014	1456.343
452.051	1.159	1684.202	1468.958
453.066	8.531	1700.718	1555.468
454.080	16.087	1711.904	1639.632
455.095	17.735	1713.972	1657.537
456.109	17.978	1714.714	1660.431
457.124	18.027	1713.802	1659.822
458.139	18.153	1713.017	1660.093
459.153	18.138	1712.742	1659.482
460.168	18.170	1710.283	1657.212
461.182	18.127	1708.401	1654.772
462.197	18.141	1706.730	1653.090
463.212	17.932	1704.754	1648.950
464.226	18.068	1703.245	1648.611
465.241	18.314	1702.072	1649.663
466.255	18.172	1701.971	1647.997
467.270	18.376	1700.324	1648.172
468.285	18.132	1698.785	1644.125
469.299	18.108	1697.263	1642.230
470.314	18.166	1695.394	1640.779
471.328	18.208	1693.971	1639.615
472.343	18.212	1693.943	1639.427
473.358	18.042	1693.021	1636.707
474.372	18.201	1691.146	1636.226
475.387	18.163	1690.242	1634.792
476.401	17.914	1688.807	1630.816
477.416	18.061	1687.261	1630.536
478.430	18.134	1685.960	1629.779
479.445	18.122	1684.098	1627.670
480.460	17.849	1682.316	1623.143
481.474	18.178	1681.440	1625.247
482.489	18.146	1681.255	1624.572
483.503	18.278	1679.608	1624.042
484.518	18.239	1678.804	1622.697
485.533	18.186	1677.311	1620.554
486.547	18.340	1675.698	1620.271
487.562	18.563	1675.131	1621.646
488.576	18.499	1673.526	1619.295
489.591	18.382	1672.502	1616.992
490.606	18.385	1670.484	1614.882
491.620	18.293	1668.743	1612.134
492.635	18.377	1668.229	1612.235
493.649	18.522	1667.011	1612.236
494.664	18.307	1665.358	1608.421
495.679	17.990	1663.755	1603.688
496.693	18.188	1661.969	1603.642
497.708	18.192	1661.840	1603.362
498.722	18.445	1660.787	1604.535
499.737	18.522	1658.987	1603.322
500.752	18.288	1657.803	1599.794
501.766	18.098	1656.501	1596.557
502.781	18.322	1654.549	1596.587
503.795	18.340	1653.462	1595.518
504.810	18.289	1652.654	1594.068
505.825	18.511	1652.197	1595.512
506.839	18.404	1651.272	1593.430
507.854	18.484	1649.038	1591.832
508.868	18.496	1648.108	1590.858
509.883	18.547	1646.878	1589.951
510.898	18.626	1645.507	1589.170
511.912	18.558	1643.836	1586.737
512.927	18.308	1642.048	1582.494
513.941	18.407	1640.885	1582.104
514.956	18.366	1638.804	1579.535
515.971	18.307	1637.490	1577.533
516.985	18.331	1637.154	1577.237
518.000	18.341	1637.437	1577.412
519.014	18.551	1636.130	1577.908
520.029	18.501	1634.918	1576.087
521.043	18.470	1633.567	1574.315
522.058	18.557	1632.304	1573.706
523.073	18.614	1631.270	1573.050
524.087	18.722	1630.227	1572.851
525.102	18.766	1628.623	1571.521
526.116	18.516	1626.610	1567.094
527.131	18.369	1626.033	1564.995
528.146	18.767	1625.357	1567.810
529.160	18.709	1624.809	1566.569
530.175	18.588	1623.762	1564.257
531.189	18.759	1622.652	1564.564
532.204	18.829	1620.610	1563.056
533.219	18.669	1618.841	1559.694
534.233	18.607	1618.170	1558.300
535.248	18.559	1617.719	1557.244
536.262	18.967	1616.556	1559.650
537.277	18.863	1614.447	1556.485
538.292	18.659	1613.011	1553.056
539.306	18.603	1611.123	1550.544
540.321	18.731	1610.059	1550.500
541.335	18.505	1608.977	1547.224
542.350	18.623	1608.066	1547.233
543.365	18.673	1606.681	1546.169
544.379	18.800	1604.997	1545.512
545.394	18.842	1603.774	1544.526
546.408	18.619	1601.989	1540.607
547.423	18.469	1600.838	1537.962
548.438	18.470	1600.065	1537.043
549.452	18.545	1599.521	1537.015
550.467	18.619	1598.282	1536.308
551.481	18.604	1597.367	1535.113
552.496	18.907	1596.020	1536.353
553.511	18.938	1595.610	1536.049
554.525	18.817	1594.537	1533.754
555.540	19.026	1593.937	1534.865
556.554	18.871	1593.010	1532.394
557.569	18.837	1590.926	1529.902
558.583	18.943	1588.609	1528.446
559.598	18.753	1587.561	1525.557
560.613	18.799	1586.874	1525.119
561.627	18.851	1586.017	1524.583
562.642	18.924	1584.819	1523.893
563.656	19.047	1583.672	1523.706
564.671	19.025	1582.247	1521.957
565.686	19.036	1581.195	1520.860
566.700	18.707	1579.226	1515.868
567.715	18.735	1577.322	1514.106
568.729	18.556	1576.140	1511.202
569.744	18.488	1574.788	1509.127
570.759	18.543	1572.920	1507.639
571.773	18.674	1572.203	1507.924
572.788	18.764	1571.509	1507.875
573.802	18.921	1570.177	1507.800
574.817	19.017	1569.036	1507.367
575.832	19.074	1568.577	1507.251
576.846	18.989	1567.051	1504.862
577.861	18.931	1565.486	1502.661
578.875	19.126	1564.752	1503.496
579.890	19.185	1563.960	1503.073
580.905	18.968	1563.529	1500.575
581.919	19.064	1562.955	1500.682
582.934	19.342	1561.182	1501.237
583.948	19.134	1560.494	1498.572
584.963	19.072	1559.360	1496.767
585.978	19.012	1557.124	1493.916
586.992	19.066	1557.608	1494.667
588.007	19.218	1556.166	1494.434
589.021	18.965	1554.006	1489.977
590.036	18.713	1552.854	1486.505
591.051	18.843	1551.860	1486.499
592.065	18.883	1550.823	1485.677
593.080	19.093	1549.020	1485.599
594.094	19.088	1547.137	1483.572
595.109	18.949	1545.152	1480.285
596.123	18.785	1543.289	1476.906
597.138	18.949	1543.576	1478.424
598.153	18.994	1542.666	1477.758
599.167	19.068	1541.670	1477.272
600.182	19.062	1540.621	1476.033
601.196	19.174	1539.213	1475.475
602.211	19.129	1538.051	1473.794
603.226	19.270	1537.121	1473.938
604.240	19.328	1535.691	1472.889
605.255	19.346	1534.819	1472.030
606.269	19.294	1533.755	1470.388
607.284	19.226	1533.077	1468.985
608.299	19.303	1530.968	1467.442
609.313	19.289	1529.589	1465.825
610.328	19.270	1528.600	1464.546
611.342	19.389	1527.079	1463.924
612.357	19.426	1526.840	1463.840
613.372	19.340	1525.896	1462.024
614.386	19.222	1525.268	1460.240
615.401	19.243	1524.411	1459.419
616.415	19.407	1523.404	1459.681
617.430	19.493	1522.125	1459.012
618.445	19.486	1520.775	1457.485
619.459	19.388	1519.621	1455.369
620.474	19.113	1518.318	1451.622
621.488	18.790	1516.504	1446.975
622.503	18.653	1515.545	1444.728
623.518	18.911	1515.340	1446.542
624.532	19.163	1514.266	1447.475
625.547	19.326	1513.170	1447.624
626.561	19.361	1512.676	1447.278
627.576	19.572	1511.267	1447.537
628.591	19.199	1509.101	1442.148
629.605	18.938	1508.092	1438.816
630.620	18.892	1506.711	1436.939
631.634	18.726	1505.020	1433.763
632.649	18.761	1503.928	1432.843
633.663	18.980	1503.192	1433.809
634.678	19.124	1503.327	1434.968
635.693	19.516	1501.562	1436.390
636.707	19.531	1500.015	1434.870
637.722	19.615	1498.991	1434.417
638.736	19.676	1498.097	1433.901
639.751	19.629	1496.833	1432.125
640.766	19.690	1495.064	1430.765
641.780	19.593	1494.009	1428.781
642.795	19.569	1493.228	1427.661
643.809	19.576	1492.790	1427.132
644.824	19.507	1492.615	1426.220
645.839	19.463	1491.002	1424.143
646.853	19.593	1489.749	1423.852
647.868	19.703	1487.479	1422.421
648.882	19.589	1486.608	1420.478
649.897	19.479	1485.642	1418.479
650.912	19.653	1484.103	1418.277
651.926	19.567	1482.290	1415.664
652.941	19.231	1481.390	1411.870
653.955	19.072	1479.160	1408.262
654.970	18.988	1477.292	1405.630
655.985	18.911	1476.039	1403.630
656.999	19.135	1475.014	1404.328
658.014	19.195	1474.766	1404.414
659.028	19.305	1473.667	1404.103
660.043	19.523	1472.677	1404.770
661.058	19.501	1472.162	1403.933
662.072	19.563	1471.175	1403.332
663.087	19.534	1469.881	1401.694
664.101	19.519	1469.104	1400.663
665.116	19.483	1468.612	1399.732
666.131	19.652	1467.192	1399.584
667.145	19.614	1465.589	1397.582
668.160	19.799	1464.545	1397.924
669.174	19.911	1463.261	1397.442
670.189	19.810	1462.127	1395.367
671.204	19.647	1461.597	1393.372
672.218	19.695	1461.039	1393.061
673.233	19.833	1459.797	1392.834
674.247	20.008	1458.587	1392.924
675.262	19.962	1457.471	1391.319
676.276	20.010	1456.562	1390.675
677.291	19.765	1455.841	1387.843
678.306	19.529	1454.831	1384.810
679.320	19.604	1453.286	1383.778
680.335	19.842	1452.396	1384.681
681.349	19.714	1452.528	1383.607
682.364	19.794	1450.897	1382.535
683.379	19.851	1449.350	1381.352
684.393	19.689	1448.376	1378.959
685.408	19.692	1447.543	1378.024
686.422	19.814	1446.118	1377.482
687.437	19.784	1445.437	1376.429
688.452	19.836	1445.360	1376.606
689.466	19.884	1443.274	1374.837
690.481	19.838	1440.681	1371.836
691.495	19.453	1439.870	1367.831
692.510	19.159	1438.550	1364.069
693.525	18.876	1436.703	1359.911
694.539	19.085	1436.050	1360.784
695.554	19.454	1436.495	1363.978
696.568	19.775	1435.985	1365.881
697.583	19.917	1435.371	1366.261
698.598	19.867	1434.016	1364.412
699.612	19.972	1432.946	1364.061
700.627	19.882	1432.358	1362.627
701.641	19.809	1431.251	1360.830
702.656	19.800	1430.447	1359.831
703.671	20.066	1429.241	1360.626
704.685	20.094	1428.365	1359.844
705.700	20.050	1426.776	1357.826
706.714	19.931	1425.399	1355.419
707.729	19.820	1423.227	1352.320
708.744	19.794	1422.528	1351.288
709.758	19.512	1421.798	1348.218
710.773	19.435	1420.082	1345.822
711.787	19.473	1418.261	1344.239
712.802	19.557	1416.683	1343.240
713.816	19.636	1416.706	1343.712
714.831	19.867	1416.109	1344.792
715.846	19.918	1415.071	1344.043
716.860	19.938	1413.482	1342.534
717.875	20.020	1412.477	1342.055
718.889	20.039	1411.458	1341.076
719.904	19.896	1410.844	1339.216
720.919	19.913	1409.856	1338.252
721.933	19.958	1409.919	1338.499
722.948	20.031	1408.693	1337.739
723.962	20.110	1407.065	1336.651
724.977	20.328	1405.479	1336.671
725.992	20.281	1404.982	1335.674
727.006	20.020	1403.052	1331.662
728.021	20.336	1401.850	1332.798
729.035	20.137	1401.675	1330.936
730.050	20.089	1400.447	1329.241
731.065	20.096	1399.179	1327.936
732.079	20.119	1398.228	1327.048
733.094	20.113	1396.903	1325.591
734.108	19.985	1395.584	1323.195
735.123	20.142	1394.427	1323.145
736.138	20.049	1393.710	1321.594
737.152	20.012	1392.361	1319.872
738.167	20.232	1391.743	1320.811
739.181	20.284	1390.956	1320.306
740.196	20.115	1389.537	1317.507
741.211	20.101	1388.910	1316.646
742.225	20.216	1387.988	1316.497
743.240	20.194	1386.157	1314.429
744.254	20.232	1384.716	1313.199
745.269	20.103	1383.953	1311.333
746.284	20.167	1383.380	1311.127
747.298	19.996	1382.022	1308.378
748.313	19.746	1380.056	1304.470
749.327	19.369	1379.121	1300.573
750.342	19.199	1378.341	1298.392
751.356	19.109	1376.672	1295.979
752.371	19.212	1375.440	1295.448
753.386	19.634	1375.797	1298.816
754.400	20.055	1375.370	1301.438
755.415	20.253	1374.475	1301.929
756.429	20.188	1372.706	1299.603
757.444	20.158	1371.644	1298.218
758.459	20.211	1371.587	1298.409
759.473	20.411	1370.281	1298.520
760.488	20.445	1368.614	1297.041
761.502	20.296	1367.599	1294.809
762.517	20.160	1366.947	1293.016
763.532	20.113	1365.608	1291.238
764.546	19.789	1363.947	1287.090
765.561	19.681	1362.565	1284.829
766.575	19.493	1361.068	1281.858
767.590	19.484	1360.274	1280.891
768.605	19.853	1359.353	1282.621
769.619	19.943	1357.708	1281.586
770.634	20.073	1357.371	1282.082
771.648	20.173	1357.346	1282.643
772.663	20.491	1356.421	1283.981
773.678	20.467	1355.302	1282.588
774.692	20.372	1354.488	1280.963
775.707	20.527	1354.360	1281.835
776.721	20.425	1353.437	1280.053
777.736	20.335	1352.319	1278.176
778.751	20.474	1351.455	1278.232
779.765	20.342	1349.903	1275.637
780.780	20.268	1349.566	1274.619
781.794	20.240	1348.516	1273.270
782.809	20.183	1347.538	1271.772
783.824	20.097	1346.596	1270.099
784.838	19.819	1344.270	1265.710
785.853	19.472	1342.422	1261.272
786.867	19.586	1341.708	1261.284
787.882	19.793	1341.761	1262.705
788.897	19.955	1340.869	1262.897
789.911	20.038	1340.308	1262.831
790.926	20.128	1339.863	1262.920
791.940	20.200	1337.908	1261.451
792.955	20.337	1336.070	1260.563
793.969	20.365	1335.535	1260.115
794.984	20.349	1334.794	1259.148
795.999	20.463	1334.223	1259.291
797.013	20.493	1332.540	1257.772
798.028	20.423	1331.289	1255.926
799.042	20.594	1330.353	1256.135
800.057	20.616	1329.470	1255.309
801.072	20.533	1328.268	1253.423
802.086	20.402	1327.129	1251.252
803.101	20.716	1325.877	1252.195
804.115	20.741	1324.828	1251.236
805.130	20.578	1324.014	1249.136
806.145	20.745	1322.889	1249.133
807.159	20.541	1321.668	1246.361
808.174	20.536	1319.731	1244.348
809.188	20.360	1318.507	1241.778
810.203	20.078	1317.457	1238.614
811.218	19.884	1315.433	1235.172
812.232	19.805	1313.647	1232.781
813.247	19.751	1313.588	1232.190
814.261	19.859	1313.774	1232.991
815.276	20.203	1312.512	1234.123
816.291	20.397	1311.534	1234.443
817.305	20.554	1310.789	1234.711
818.320	20.510	1309.358	1232.903
819.334	20.480	1308.269	1231.517
820.349	20.516	1307.229	1230.649
821.364	20.705	1305.154	1229.885
822.378	20.642	1304.051	1228.252
823.393	20.591	1302.758	1226.532
824.407	20.425	1302.086	1224.570
825.422	20.489	1301.588	1224.414
826.437	20.402	1300.460	1222.591
827.451	20.345	1297.681	1219.425
828.466	19.841	1295.287	1213.478
829.480	19.528	1294.315	1210.217
830.495	19.741	1292.971	1210.317
831.509	20.095	1292.817	1212.513
832.524	20.246	1292.831	1213.446
833.539	20.255	1292.313	1212.881
834.553	20.590	1289.910	1212.829
835.568	20.618	1288.184	1211.256
836.582	20.674	1287.579	1210.932
837.597	20.531	1286.275	1208.561
838.612	20.484	1285.184	1207.062
839.626	20.360	1284.492	1205.404
840.641	20.256	1283.256	1203.376
841.655	19.979	1282.486	1200.576
842.670	19.678	1280.878	1196.832
843.685	19.619	1279.583	1195.072
844.699	19.924	1278.453	1195.994
845.714	20.192	1277.460	1196.780
846.728	20.301	1276.958	1196.921
847.743	20.588	1276.533	1198.366
848.758	20.597	1275.048	1196.890
849.772	20.682	1273.611	1195.987
850.787	20.741	1272.031	1194.767
851.801	20.632	1271.457	1193.331
852.816	20.487	1270.126	1190.943
853.831	20.506	1268.556	1189.460
854.845	20.448	1267.188	1187.635
855.860	20.337	1265.225	1184.892
856.874	20.167	1264.187	1182.615
857.889	20.054	1262.095	1179.738
858.904	19.693	1261.133	1176.230
859.918	19.414	1259.436	1172.601
860.933	19.320	1258.346	1170.807
861.947	19.734	1258.100	1173.258
862.962	19.889	1257.147	1173.287
863.977	19.920	1255.850	1172.148
864.991	20.215	1255.688	1173.861
866.006	20.265	1255.423	1173.812
867.020	20.345	1254.460	1173.314
868.035	20.501	1252.981	1172.853
869.049	20.554	1252.036	1172.186
870.064	20.740	1250.947	1172.289
871.079	20.591	1250.409	1170.632
872.093	20.604	1249.955	1170.153
873.108	20.573	1248.585	1168.522
874.122	20.413	1246.412	1165.273
875.137	20.206	1245.587	1162.962
876.152	20.137	1244.607	1161.446
877.166	20.260	1242.968	1160.606
878.181	20.464	1242.348	1161.255
879.195	20.490	1242.745	1161.665
880.210	20.460	1242.357	1160.960
881.225	20.397	1240.799	1158.945
882.239	20.673	1239.263	1159.219
883.254	20.671	1238.813	1158.646
884.268	20.671	1237.875	1157.628
885.283	20.801	1236.356	1156.937
886.298	20.562	1235.513	1154.419
887.312	20.595	1234.308	1153.374
888.327	20.703	1232.636	1152.394
889.341	20.615	1231.502	1150.610
890.356	20.535	1231.220	1149.673
891.371	20.417	1230.865	1148.422
892.385	20.486	1229.848	1147.792
893.400	20.464	1228.592	1146.339
894.414	20.413	1227.011	1144.391
895.429	20.129	1225.445	1140.914
896.444	19.589	1222.697	1134.654
897.458	19.316	1221.845	1131.927
898.473	19.648	1221.388	1133.553
899.487	19.951	1220.984	1135.042
900.502	20.373	1220.716	1137.438
901.517	20.225	1219.942	1135.603
902.531	20.562	1218.594	1136.430
903.546	20.643	1218.045	1136.314
904.560	20.764	1217.445	1136.414
905.575	20.641	1216.899	1134.955
906.589	20.715	1216.070	1134.531
907.604	20.682	1215.340	1133.504
