DTS Sentinel unit serial number:	SN409020Multiplexer serial number:	ORYXHardware model number:	OX4-SRSoftware version number:	ORYX F/W v3.00 Oryx Data Collector v3.7.2.0data status	okinstallation	HaddamTimeLapsedifferential loss correction	single-endedforward channel	channel 3reverse channel	N/Adate	2011/06/21time	20:26:16forward acquisition time	30.00reverse acquisition time	0.00gamma	498.7831k internal	0.1778k external	0.1778temperature offset calibration	1.0074default loss term (dB/km)	0.3790temperature slope calibration	1.3530multiplexer offset coefficient	1.0000multiplexer slope coefficient	1.0000fibre end	0.00T internal ref (°C)	30.34T ext. ref 1 (°C)	22.32T ext. ref 2 (°C)	0.03length (m)	temperature (°C)	Stokes	anti-Stokes-747.200	200.998	0.179	-0.362
-746.185	-110.326	-0.248	-0.067
-745.171	-30.248	-0.335	-0.249
-744.156	5.204	-0.585	0.563
-743.142	91.814	-0.085	-0.125
-742.127	-5.615	0.063	-0.056
-741.112	-72.398	-0.130	-0.063
-740.098	800.000	-0.121	0.527
-739.083	-79.369	0.316	-0.139
-738.069	73.634	-0.154	0.211
-737.054	417.586	-0.144	-0.404
-736.039	-147.885	-0.283	-0.031
-735.025	-45.663	0.270	-0.174
-734.010	-109.242	0.445	0.123
-732.996	-23.367	-0.300	0.235
-731.981	152.416	-0.063	-0.113
-730.966	-200.000	0.004	0.248
-729.952	144.643	0.112	-0.196
-728.937	-137.799	-0.095	0.014
-727.923	286.977	-0.122	-0.289
-726.908	-200.000	-0.047	-0.381
-725.894	800.000	-0.111	0.479
-724.879	-101.472	-0.368	-0.116
-723.864	-31.238	0.152	-0.112
-722.850	-38.428	-0.268	-0.185
-721.835	-200.000	0.033	-0.414
-720.821	800.000	-0.047	-0.265
-719.806	-91.661	-0.449	-0.166
-718.791	18.665	0.212	-0.221
-717.777	-142.362	0.286	0.037
-716.762	-96.049	-0.317	-0.109
-715.748	-99.539	-0.151	0.049
-714.733	82.614	0.095	-0.135
-713.718	-82.083	0.313	0.133
-712.704	3.462	0.521	-0.495
-711.689	148.124	0.098	0.173
-710.675	-137.247	0.291	0.043
-709.660	-133.110	-0.298	0.049
-708.645	-200.000	0.008	0.147
-707.631	456.004	0.125	-0.363
-706.616	800.000	-0.081	-0.389
-705.602	-200.000	-0.014	0.396
-704.587	-200.000	0.025	-0.382
-703.572	106.526	0.231	-0.358
-702.558	139.264	-0.026	-0.045
-701.543	30.285	0.248	0.276
-700.529	-18.696	-0.370	-0.301
-699.514	-144.835	0.247	-0.029
-698.499	658.277	-0.106	-0.357
-697.485	-200.000	-0.059	-0.698
-696.470	68.174	-0.175	0.234
-695.456	-148.023	0.087	-0.009
-694.441	525.840	-0.146	0.452
-693.426	-114.569	-0.470	0.117
-692.412	-30.055	0.338	0.251
-691.397	-108.730	0.462	0.128
-690.383	-120.783	-0.376	0.082
-689.368	-128.805	0.179	0.033
-688.354	-175.267	0.805	-0.028
-687.339	112.571	-0.197	-0.312
-686.324	-143.874	-0.113	0.014
-685.310	-200.000	-0.002	0.521
-684.295	-24.530	-0.550	-0.427
-683.281	-200.000	0.026	-0.253
-682.266	-49.877	-0.277	-0.171
-681.251	800.000	0.115	-0.478
-680.237	-72.914	0.281	-0.134
-679.222	-200.000	0.027	0.307
-678.208	740.899	-0.113	-0.398
-677.193	-121.474	0.061	0.013
-676.178	-200.000	0.026	-0.236
-675.164	-26.628	-0.298	-0.227
-674.149	-194.878	-0.461	-0.005
-673.135	-30.977	-0.184	-0.135
-672.120	109.352	-0.140	-0.219
-671.105	800.000	-0.079	-0.445
-670.091	-200.000	0.006	-0.259
-669.076	-200.000	-0.010	-0.386
-668.062	-69.336	0.275	-0.137
-667.047	-98.209	-0.117	-0.039
-666.032	196.349	-0.100	0.200
-665.018	-83.731	0.237	0.098
-664.003	-133.582	-0.336	-0.054
-662.989	-200.000	-0.475	-0.002
-661.974	-10.699	-0.470	-0.405
-660.959	-200.000	0.040	0.321
-659.945	-103.582	0.065	-0.020
-658.930	-200.000	0.006	0.686
-657.916	-123.762	-0.147	0.030
-656.901	-94.142	-0.443	0.157
-655.886	-43.123	0.021	-0.014
-654.872	-76.270	-0.404	0.185
-653.857	100.138	0.245	0.372
-652.843	173.084	-0.199	-0.374
-651.828	-76.552	0.121	0.055
-650.814	40.367	0.086	-0.101
-649.799	-93.319	0.575	0.207
-648.784	-200.000	0.003	0.504
-647.770	-119.075	0.272	0.062
-646.755	-47.130	-0.150	0.095
-645.741	146.754	-0.321	0.564
-644.726	-13.382	0.154	-0.130
-643.711	218.343	0.068	-0.142
-642.697	63.538	-0.263	-0.344
-641.682	800.000	0.039	0.149
-640.668	-151.314	0.129	-0.012
-639.653	25.051	-0.348	0.376
-638.638	-51.916	0.505	0.305
-637.624	-161.924	0.387	-0.025
-636.609	96.578	-0.319	0.476
-635.595	-177.293	-0.279	-0.009
-634.580	-114.956	-0.377	-0.093
-633.565	-11.843	-0.256	-0.219
-632.551	-5.959	-0.171	0.152
-631.536	-34.616	-0.288	-0.205
-630.522	-93.103	-0.237	-0.085
-629.507	-62.739	-0.228	0.122
-628.492	206.855	-0.141	-0.287
-627.478	175.610	-0.170	-0.322
-626.463	0.889	0.412	0.384
-625.449	231.563	-0.177	0.378
-624.434	-70.642	-0.387	0.190
-623.419	604.841	0.104	-0.338
-622.405	5.698	-0.209	-0.201
-621.390	-25.065	0.135	-0.104
-620.376	288.661	-0.131	0.311
-619.361	-87.760	0.443	0.173
-618.346	338.257	-0.187	-0.476
-617.332	800.000	0.075	-0.326
-616.317	203.718	-0.243	0.491
-615.303	-176.237	-0.263	-0.009
-614.288	-47.997	-0.149	0.093
-613.273	12.127	0.037	-0.037
-612.259	48.268	-0.221	-0.270
-611.244	-122.316	0.378	-0.080
-610.230	-91.094	0.376	-0.140
-609.215	-33.965	-0.113	-0.080
-608.201	800.000	0.060	0.283
-607.186	-93.979	0.086	-0.030
-606.171	-200.000	-0.056	-0.361
-605.157	123.712	0.034	-0.056
-604.142	-200.000	0.048	-0.346
-603.128	800.000	0.057	0.258
-602.113	-3.128	-0.316	0.286
-601.098	-80.843	0.039	-0.017
-600.084	-49.680	-0.188	-0.116
-599.069	120.512	0.332	0.538
-598.055	-67.322	-0.371	0.189
-597.040	651.544	0.229	-0.769
-596.025	-25.590	-0.128	-0.098
-595.011	-91.836	-0.216	0.079
-593.996	-91.462	-0.100	-0.037
-592.982	-200.000	0.010	0.301
-591.967	16.515	-0.107	-0.110
-590.952	-200.000	0.061	-0.467
-589.938	-24.394	0.164	-0.127
-588.923	-136.199	0.385	-0.058
-587.909	-78.109	0.260	-0.116
-586.894	-109.913	0.126	-0.034
-585.879	64.580	-0.219	0.287
-584.865	-51.815	0.349	-0.210
-583.850	-200.000	0.004	0.097
-582.836	-133.395	-0.017	0.003
-581.821	-200.000	0.011	-0.424
-580.806	-76.568	0.081	-0.037
-579.792	-151.214	0.335	-0.032
-578.777	-152.930	0.415	-0.038
-577.763	-58.152	0.380	-0.215
-576.748	-34.685	-0.459	-0.325
-575.733	-200.000	-0.023	0.308
-574.719	-200.000	0.001	0.168
-573.704	-13.199	0.123	0.104
-572.690	-91.743	0.256	0.094
-571.675	-3.732	-0.334	-0.301
-570.661	-58.624	-0.243	0.136
-569.646	800.000	0.032	-0.182
-568.631	-157.736	0.133	0.010
-567.617	-200.000	0.035	0.300
-566.602	-25.384	0.037	-0.029
-565.588	289.290	0.051	-0.120
-564.573	583.685	0.206	-0.659
-563.558	-135.866	-0.134	0.020
-562.544	-126.691	0.505	0.096
-561.529	-65.036	-0.121	-0.063
-560.515	-200.000	-0.015	-0.166
-559.500	151.778	-0.189	-0.336
-558.485	162.883	-0.112	0.205
-557.471	76.016	0.342	0.471
-556.456	218.836	-0.084	0.176
-555.442	-0.464	0.336	-0.310
-554.427	253.790	-0.050	0.112
-553.412	-200.000	0.043	-0.334
-552.398	-145.852	-0.509	0.058
-551.383	136.978	0.180	0.305
-550.369	-63.131	-0.184	-0.098
-549.354	52.877	-0.053	-0.065
-548.339	-12.015	0.536	0.455
-547.325	-87.223	0.528	0.207
-546.310	-109.189	0.359	0.098
-545.296	-122.165	-0.021	-0.005
-544.281	-186.193	-0.450	-0.008
-543.266	102.952	0.302	-0.460
-542.252	59.184	-0.265	0.339
-541.237	313.661	0.092	0.226
-540.223	-200.000	-0.008	-0.395
-539.208	-113.526	0.780	0.197
-538.193	794.252	-0.032	0.114
-537.179	27.648	-0.201	-0.219
-536.164	-200.000	0.004	0.210
-535.150	-144.938	0.567	0.066
-534.135	-110.393	0.280	0.075
-533.121	-200.000	0.001	0.480
-532.106	83.321	0.097	-0.137
-531.091	-135.754	-0.376	0.057
-530.077	-152.527	-0.044	0.004
-529.062	242.204	-0.056	0.123
-528.048	36.324	-0.364	0.416
-527.033	-116.590	-0.292	0.069
-526.018	-29.096	-0.180	-0.134
-525.004	-80.743	0.056	0.024
-523.989	57.327	-0.066	0.084
-522.975	126.247	0.235	-0.386
-521.960	800.000	0.095	0.454
-520.945	56.772	-0.276	-0.349
-519.931	46.460	0.149	0.179
-518.916	355.074	0.075	-0.194
-517.902	-109.071	0.412	0.113
-516.887	-38.747	-0.243	-0.166
-515.872	-160.083	-0.276	-0.019
-514.858	123.502	0.064	0.105
-513.843	-174.729	0.276	0.010
-512.829	-50.349	0.252	0.154
-511.814	487.543	-0.059	-0.176
-510.799	374.334	-0.046	0.123
-509.785	-11.737	-0.471	-0.400
-508.770	-92.273	0.405	-0.147
-507.756	-62.899	-0.256	-0.137
-506.741	26.667	-0.148	-0.161
-505.726	-112.389	-0.121	-0.031
-504.712	115.848	0.141	-0.225
-503.697	-85.110	-0.335	-0.135
-502.683	-200.000	0.069	0.583
-501.668	31.424	-0.268	0.299
-500.653	57.313	-0.139	0.176
-499.639	257.085	0.097	0.216
-498.624	-66.699	-0.221	-0.113
-497.610	-87.358	-0.540	0.211
-496.595	-40.296	-0.331	-0.223
-495.581	141.110	0.158	0.271
-494.566	-200.000	-0.004	0.386
-493.551	-34.197	0.385	-0.273
-492.537	-126.719	0.438	0.083
-491.522	-200.000	-0.024	0.224
-490.508	-200.000	0.043	0.300
-489.493	-200.000	0.026	-0.203
-488.478	-51.205	0.250	0.151
-487.464	-133.320	0.366	0.059
-486.449	-138.498	-0.436	0.061
-485.435	-7.770	-0.273	0.238
-484.420	160.420	0.094	0.170
-483.405	-200.000	-0.003	-0.099
-482.391	-14.343	0.185	-0.154
-481.376	-200.000	0.023	-0.283
-480.362	-114.658	-0.635	0.156
-479.347	-18.125	0.173	-0.140
-478.332	624.774	0.060	-0.197
-477.318	112.049	0.028	0.044
-476.303	533.417	0.309	0.952
-475.289	-200.000	-0.078	0.473
-474.274	239.938	-0.140	-0.304
-473.259	-103.954	-0.407	0.122
-472.245	-160.468	-0.471	-0.032
-471.230	309.509	-0.117	-0.283
-470.216	525.782	-0.228	-0.700
-469.201	-200.000	0.017	0.177
-468.186	34.464	0.238	-0.269
-467.172	-83.507	0.212	-0.087
-466.157	86.167	-0.225	-0.321
-465.143	-200.000	-0.003	-0.203
-464.128	-79.996	-0.088	0.038
-463.113	10.193	-0.545	0.536
-462.099	-81.866	-0.480	0.202
-461.084	-22.144	-0.114	-0.089
-460.070	307.644	-0.162	-0.393
-459.055	-49.924	-0.449	0.275
-458.040	-200.000	0.023	-0.287
-457.026	-48.169	-0.108	-0.067
-456.011	18.600	0.343	-0.355
-454.997	800.000	0.057	0.247
-453.982	89.099	0.107	0.155
-452.968	98.882	-0.127	-0.190
-451.953	-96.376	-0.300	0.102
-450.938	-147.026	0.151	0.017
-449.924	-200.000	-0.032	-0.257
-448.909	-27.109	-0.161	-0.121
-447.895	-3.662	0.065	0.059
-446.880	-44.176	-0.301	-0.194
-445.865	621.034	0.043	-0.139
-444.851	-200.000	-0.017	-0.113
-443.836	-200.000	0.001	0.236
-442.822	-161.779	0.176	0.011
-441.807	-14.564	0.321	-0.266
-440.792	137.368	-0.167	-0.284
-439.778	378.767	0.170	0.453
-438.763	-129.445	0.373	0.066
-437.749	-21.282	-0.454	0.358
-436.734	-200.000	0.733	-0.004
-435.719	-16.088	-0.100	-0.082
-434.705	596.936	-0.093	0.298
-433.690	20.781	0.157	-0.164
-432.676	-14.488	0.052	0.043
-431.661	-156.385	-0.300	-0.024
-430.646	77.751	-0.246	0.340
-429.632	-71.041	0.211	0.102
-428.617	81.888	-0.405	0.568
-427.603	280.603	0.044	-0.102
-426.588	-156.003	0.243	0.020
-425.573	0.091	0.499	0.459
-424.559	46.833	-0.106	-0.127
-423.544	-123.367	-0.337	0.069
-422.530	249.486	0.065	-0.142
-421.515	-4.574	0.205	0.183
-420.500	-200.000	0.007	-0.349
-419.486	-11.242	-0.264	0.224
-418.471	-73.524	-0.031	0.015
-417.457	43.164	0.141	0.166
-416.442	406.390	0.191	0.524
-415.428	-99.246	0.264	-0.086
-414.413	344.492	-0.175	0.446
-413.398	404.389	-0.058	0.158
-412.384	-25.660	0.441	-0.336
-411.369	42.902	-0.366	0.431
-410.355	229.281	0.167	0.353
-409.340	800.000	0.098	0.478
-408.325	-155.527	0.266	0.022
-407.311	-200.000	0.018	-0.534
-406.296	-157.249	0.283	0.022
-405.282	-200.000	-0.268	0.000
-404.267	98.808	0.244	0.364
-403.252	32.236	0.233	0.260
-402.238	-51.784	0.387	0.232
-401.223	113.638	-0.069	0.109
-400.209	47.027	-0.036	0.043
-399.194	-97.800	0.410	-0.136
-398.179	-198.712	0.177	-0.001
-397.165	800.000	0.083	-0.299
-396.150	800.000	0.076	-0.406
-395.136	81.665	-0.189	0.264
-394.121	416.118	0.181	-0.500
-393.106	-200.000	-0.011	-0.173
-392.092	205.615	0.140	-0.282
-391.077	102.217	-0.184	0.277
-390.063	-200.000	-0.007	0.314
-389.048	-136.976	0.297	0.043
-388.033	-120.714	-0.625	0.135
-387.019	337.626	-0.099	0.249
-386.004	-107.218	-0.586	-0.165
-384.990	702.063	-0.030	-0.103
-383.975	-69.918	0.229	0.112
-382.960	83.365	-0.251	0.354
-381.946	-136.438	0.230	0.034
-380.931	-80.002	-0.137	-0.059
-379.917	-109.223	-0.334	-0.091
-378.902	-99.238	-0.268	-0.087
-377.888	-104.781	0.162	-0.048
-376.873	-200.000	-0.000	-0.347
-375.858	-46.736	0.210	-0.132
-374.844	-86.097	-0.697	0.276
-373.829	5.152	-0.224	-0.213
-372.815	116.195	-0.278	0.439
-371.800	-18.865	0.192	-0.154
-370.785	409.197	0.125	-0.342
-369.771	-200.000	0.021	-0.412
-368.756	-129.941	0.579	0.101
-367.742	-97.457	0.598	0.199
-366.727	-100.367	0.029	0.009
-365.712	44.574	0.198	-0.234
-364.698	355.480	-0.063	-0.163
-363.683	-87.425	-0.050	-0.019
-362.669	-79.549	-0.099	-0.043
-361.654	106.939	-0.306	-0.469
-360.639	116.490	0.098	-0.156
-359.625	144.321	0.047	0.080
-358.610	-126.042	0.218	0.042
-357.596	22.988	-0.328	-0.347
-356.581	-28.426	0.243	-0.181
-355.566	-59.848	-0.359	0.197
-354.552	-72.528	0.031	0.015
-353.537	590.705	0.093	0.297
-352.523	629.358	-0.087	-0.285
-351.508	-200.000	-0.014	0.083
-350.493	-200.000	0.060	-0.452
-349.479	-157.521	-0.477	-0.036
-348.464	-123.556	-0.302	0.061
-347.450	800.000	-0.088	0.415
-346.435	-77.375	0.437	0.195
-345.420	193.159	0.032	0.063
-344.406	32.370	-0.221	-0.246
-343.391	93.411	0.122	-0.178
-342.377	-46.068	0.282	0.179
-341.362	-49.012	-0.223	-0.137
-340.348	-200.000	-0.046	-0.482
-339.333	-200.000	-0.049	-0.349
-338.318	-32.736	0.271	0.194
-337.304	-68.962	0.591	-0.292
-336.289	800.000	0.057	-0.207
-335.275	-148.152	0.240	-0.025
-334.260	-132.619	0.296	-0.048
-333.245	800.000	-0.011	0.043
-332.231	36.700	0.376	0.428
-331.216	-200.000	0.091	0.769
-330.202	-8.807	0.188	0.162
-329.187	244.380	-0.075	0.162
-328.172	-200.000	-0.024	0.193
-327.158	18.015	0.066	-0.068
-326.143	-68.183	-0.391	-0.195
-325.129	19.002	-0.483	-0.498
-324.114	48.794	0.190	-0.229
-323.099	-111.842	-0.173	-0.045
-322.085	-86.491	0.168	0.066
-321.070	-82.914	-0.210	0.087
-320.056	184.690	0.021	-0.039
-319.041	-200.000	0.000	-0.156
-318.026	-171.941	-0.535	0.022
-317.012	-145.744	-0.293	-0.033
-315.997	63.618	0.269	-0.348
-314.983	-153.074	0.067	-0.006
-313.968	-17.466	-0.271	-0.219
-312.953	-1.204	0.573	-0.520
-311.939	79.013	0.245	-0.338
-310.924	-200.000	-0.031	0.408
-309.910	-123.145	0.208	0.043
-308.895	800.000	-0.131	-0.578
-307.880	696.952	-0.156	-0.529
-306.866	-157.324	-0.405	-0.031
-305.851	800.000	0.064	-0.332
-304.837	-137.487	-0.151	-0.022
-303.822	54.945	-0.265	0.329
-302.807	-130.494	0.203	-0.035
-301.793	381.972	0.075	-0.199
-300.778	-200.000	0.009	0.327
-299.764	-25.179	-0.449	-0.341
-298.749	-200.000	-0.046	-0.455
-297.735	-171.418	0.306	-0.013
-296.720	-127.054	0.330	0.062
-295.705	71.353	-0.048	-0.065
-294.691	-200.000	0.039	0.304
-293.676	-113.414	-0.670	0.168
-292.662	-38.418	-0.408	0.277
-291.647	139.003	0.021	-0.036
-290.632	112.603	0.193	0.300
-289.618	-200.000	0.034	0.297
-288.603	513.186	0.109	0.329
-287.589	-100.867	0.431	-0.135
-286.574	-11.050	-0.192	-0.163
-285.559	188.082	-0.232	0.447
-284.545	175.137	0.204	-0.382
-283.530	800.000	0.035	0.172
-282.516	11.794	-0.061	-0.060
-281.501	-112.607	0.168	0.043
-280.486	800.000	0.088	-0.351
-279.472	-173.603	-0.264	0.010
-278.457	89.371	0.075	0.107
-277.443	14.088	-0.175	0.175
-276.428	-88.135	0.551	-0.211
-275.413	123.309	0.230	-0.371
-274.399	7.140	0.256	0.245
-273.384	-133.783	0.450	-0.071
-272.370	-91.768	-0.234	0.085
-271.355	20.593	0.283	0.294
-270.340	103.354	0.200	0.301
-269.326	51.352	-0.292	-0.357
-268.311	-200.000	0.036	0.249
-267.297	800.000	-0.035	-0.173
-266.282	69.166	-0.076	0.100
-265.267	90.397	0.020	0.029
-264.253	-175.528	-0.454	0.016
-263.238	-87.355	-0.305	-0.118
-262.224	183.550	-0.214	-0.407
-261.209	-111.245	-0.339	0.088
-260.195	800.000	0.046	-0.167
-259.180	102.264	-0.232	-0.349
-258.165	-12.466	0.115	-0.096
-257.151	-11.205	-0.085	0.072
-256.136	131.065	0.272	-0.450
-255.122	-11.508	0.322	-0.271
-254.107	50.909	0.082	-0.100
-253.092	-200.000	0.019	0.570
-252.078	-200.000	-0.036	0.325
-251.063	-200.000	-0.049	0.326
-250.049	21.269	0.107	-0.111
-249.034	-76.244	0.334	0.150
-248.019	-86.602	0.175	-0.068
-247.005	800.000	-0.070	0.329
-245.990	-22.450	-0.352	-0.273
-244.976	-56.432	0.239	-0.135
-243.961	-119.501	0.120	0.026
-242.946	-155.110	0.424	-0.035
-241.932	-200.000	-0.034	-0.285
-240.917	-68.212	-0.272	0.135
-239.903	-59.850	0.274	0.150
-238.888	-13.501	0.258	-0.214
-237.873	229.907	0.183	-0.384
-236.859	50.130	-0.141	-0.170
-235.844	-133.559	0.317	-0.050
-234.830	170.895	0.088	-0.162
-233.815	-176.539	-0.226	-0.007
-232.800	-44.264	-0.454	0.291
-231.786	-107.131	-0.151	0.042
-230.771	497.267	0.114	0.337
-229.757	110.688	0.108	0.167
-228.742	100.826	-0.322	0.481
-227.727	12.246	0.259	0.255
-226.713	-123.747	-0.567	-0.114
-225.698	-107.774	-0.292	-0.081
-224.684	-200.000	-0.051	0.477
-223.669	-19.534	-0.271	0.215
-222.655	227.135	-0.128	-0.267
-221.640	168.652	-0.063	-0.116
-220.625	-81.390	0.244	-0.103
-219.611	314.986	-0.102	0.247
-218.596	-167.413	-0.401	-0.020
-217.582	-81.614	0.136	-0.057
-216.567	-8.090	0.129	0.111
-215.552	324.989	0.056	-0.137
-214.538	-200.000	0.026	0.294
-213.523	15.710	0.099	-0.099
-212.509	-122.985	0.330	-0.067
-211.494	-200.000	0.007	-0.075
-210.479	800.000	0.090	0.382
-209.465	266.527	0.142	0.318
-208.450	-76.408	0.180	-0.081
-207.436	52.526	-0.368	0.450
-206.421	-200.000	0.019	-0.273
-205.406	-47.081	-0.082	-0.051
-204.392	-115.597	0.116	0.028
-203.377	161.353	-0.113	-0.203
-202.363	-122.042	0.272	-0.057
-201.348	-38.054	-0.263	-0.178
-200.333	-27.553	0.221	-0.164
-199.319	-36.265	-0.324	-0.223
-198.304	-68.443	-0.244	-0.121
-197.290	-26.093	0.313	0.235
-196.275	18.820	0.325	0.333
-195.260	145.452	0.145	0.249
-194.246	181.140	0.203	-0.383
-193.231	-84.327	-0.279	-0.113
-192.217	-200.000	-0.058	0.548
-191.202	-2.375	0.218	0.195
-190.187	47.541	-0.070	-0.084
-189.173	-73.618	-0.469	0.218
-188.158	58.286	-0.169	0.212
-187.144	-41.112	0.257	0.169
-186.129	166.302	0.156	-0.283
-185.114	800.000	0.134	0.511
-184.100	-184.700	-0.265	-0.005
-183.085	-71.633	0.275	0.131
-182.071	-80.817	0.135	0.057
-181.056	-200.000	0.345	0.001
-180.042	-200.000	-0.013	0.101
-179.027	-181.908	0.148	0.004
-178.012	21.135	0.286	-0.297
-176.998	-101.284	0.045	0.014
-175.983	-200.000	-0.033	0.190
-174.969	186.951	-0.138	-0.264
-173.954	-133.118	0.239	-0.038
-172.939	-139.085	0.038	-0.005
-171.925	-78.414	-0.093	-0.041
-170.910	105.628	-0.050	-0.076
-169.896	4.878	0.185	0.174
-168.881	800.000	-0.161	-0.591
-167.866	-37.201	0.107	-0.073
-166.852	-8.692	-0.106	0.091
-165.837	67.758	-0.067	0.088
-164.823	-28.717	-0.470	0.345
-163.808	19.462	0.246	-0.253
-162.793	-110.602	-0.267	-0.070
-161.779	773.020	0.125	-0.437
-160.764	-200.000	-0.031	-0.205
-159.750	51.269	0.053	0.065
-158.735	-9.307	0.547	-0.467
-157.720	251.607	-0.184	-0.402
-156.706	104.882	-0.156	-0.236
-155.691	-77.763	0.383	0.169
-154.677	-93.212	-0.435	-0.154
-153.662	-110.445	-0.525	0.138
-152.647	-106.604	-0.360	-0.102
-151.633	-200.000	-0.078	-0.608
-150.618	800.000	-0.047	0.196
-149.604	-200.000	0.041	0.522
-148.589	-200.000	0.016	-0.271
-147.574	-5.515	-0.136	0.119
-146.560	-27.691	0.070	-0.052
-145.545	-61.224	0.158	0.085
-144.531	102.778	0.137	0.206
-143.516	800.000	-0.103	-0.520
-142.502	-8.138	-0.223	-0.192
-141.487	-40.469	-0.442	-0.292
-140.472	-45.459	-0.238	-0.150
-139.458	-34.189	-0.173	-0.121
-138.443	323.069	0.120	-0.294
-137.429	-135.210	-0.415	-0.063
-136.414	-37.582	0.181	0.123
-135.399	-93.065	0.263	-0.093
-134.385	800.000	0.023	0.130
-133.370	-200.000	0.007	-0.249
-132.356	28.050	-0.104	-0.112
-131.341	-93.437	-0.388	0.136
-130.326	-200.000	-0.042	0.285
-129.312	-149.006	-0.448	-0.046
-128.297	-200.000	-0.728	0.004
-127.283	27.910	0.124	0.133
-126.268	-200.000	0.036	0.367
-125.253	-105.189	-0.158	-0.046
-124.239	-59.479	-0.117	-0.064
-123.224	-200.000	-0.005	0.445
-122.210	13.914	-0.095	0.094
-121.195	-200.000	-0.059	0.563
-120.180	-200.000	-0.015	0.327
-119.166	-14.183	-0.176	0.145
-118.151	-90.741	0.431	-0.158
-117.137	645.694	-0.109	-0.357
-116.122	-200.000	0.031	-0.267
-115.107	-200.000	-0.004	0.150
-114.093	127.929	0.103	-0.168
-113.078	-200.000	-0.059	-0.372
-112.064	-10.298	0.090	0.077
-111.049	230.169	-0.063	0.133
-110.034	2.932	-0.083	-0.077
-109.020	-200.000	-0.024	-0.495
-108.005	-43.458	0.097	-0.062
-106.991	21.407	0.131	0.136
-105.976	759.752	-0.011	0.039
-104.962	-17.922	-0.341	0.273
-103.947	385.338	-0.033	-0.086
-102.932	105.382	-0.528	0.797
-101.918	-200.000	-0.035	0.628
-100.903	25.778	-0.275	-0.292
-99.889	-200.000	0.021	-0.352
-98.874	-155.987	-0.385	0.031
-97.859	800.000	0.035	-0.152
-96.845	68.990	0.127	0.166
-95.830	-200.000	-0.070	-0.411
-94.816	210.781	-0.139	0.279
-93.801	-142.142	-0.213	-0.027
-92.786	-9.758	-0.327	-0.277
-91.772	107.550	-0.049	-0.075
-90.757	29.875	-0.146	-0.158
-89.743	-14.551	0.298	-0.244
-88.728	155.812	-0.262	-0.461
-87.713	-116.872	-0.169	-0.039
-86.699	-200.000	0.024	-0.502
-85.684	83.028	0.177	-0.246
-84.670	302.108	0.182	0.430
-83.655	-23.365	0.140	-0.107
-82.640	717.265	-0.075	0.254
-81.626	59.637	-0.125	0.158
-80.611	178.181	0.045	-0.084
-79.597	800.000	0.056	0.216
-78.582	123.543	-0.170	0.273
-77.567	-45.075	-0.156	-0.099
-76.553	-25.942	-0.662	-0.496
-75.538	-101.390	-0.325	-0.100
-74.524	128.340	0.157	0.255
-73.509	-74.791	0.158	0.072
-72.494	-156.763	-0.666	-0.052
-71.480	66.576	-0.154	-0.200
-70.465	75.361	-0.122	-0.164
-69.451	291.753	0.142	0.330
-68.436	-200.000	-0.006	0.098
-67.422	-98.270	-0.190	-0.062
-66.407	800.000	-0.110	0.509
-65.392	112.382	-0.077	-0.119
-64.378	-66.481	0.239	0.120
-63.363	362.645	0.148	0.380
-62.349	45.617	-0.036	0.042
-61.334	-4.612	-1.618	-1.422
-60.319	108.328	0.559	0.851
-59.305	159.865	-3.735	-6.643
-58.290	36.909	3.627	4.086
-57.276	360.020	4.059	10.391
-56.261	-200.000	19.551	271.380
-55.246	396.179	1247.241	3331.111
-54.232	54.914	2866.554	3526.333
-53.217	53.872	2726.778	3338.033
-52.203	39.312	2455.483	2799.599
-51.188	36.779	2113.573	2378.437
-50.173	32.468	1992.990	2192.320
-49.159	30.980	1982.646	2163.515
-48.144	30.746	1978.864	2156.575
-47.130	30.762	1976.750	2154.370
-46.115	30.717	1974.883	2151.730
-45.100	30.638	1973.122	2148.804
-44.086	30.682	1971.851	2147.846
-43.071	30.610	1969.645	2144.525
-42.057	30.519	1969.505	2143.230
-41.042	30.559	1966.303	2140.128
-40.027	30.598	1965.034	2139.109
-39.013	30.582	1964.407	2138.154
-37.998	30.590	1962.564	2136.154
-36.984	30.399	1962.289	2133.563
-35.969	30.500	1960.209	2132.383
-34.954	30.498	1959.513	2131.522
-33.940	30.430	1958.110	2129.129
-32.925	30.476	1956.687	2128.027
-31.911	30.463	1955.965	2127.003
-30.896	30.436	1954.212	2124.704
-29.881	30.499	1952.587	2123.579
-28.867	30.410	1951.377	2121.159
-27.852	30.442	1949.899	2119.834
-26.838	30.383	1947.810	2116.804
-25.823	30.473	1946.224	2116.022
-24.809	30.325	1946.094	2114.105
-23.794	30.260	1945.311	2112.423
-22.779	30.362	1943.392	2111.425
-21.765	30.274	1942.196	2109.030
-20.750	30.131	1941.029	2106.050
-19.736	30.325	1940.004	2107.066
-18.721	30.267	1937.921	2104.060
-17.706	30.386	1936.477	2103.771
-16.692	30.260	1936.135	2101.880
-15.677	30.460	1933.738	2101.466
-14.663	30.301	1932.815	2098.572
-13.648	30.290	1931.027	2096.420
-12.633	30.268	1929.597	2094.543
-11.619	30.333	1928.666	2094.178
-10.604	30.201	1927.905	2091.777
-9.590	30.135	1927.115	2090.088
-8.575	30.173	1925.192	2088.351
-7.560	30.054	1925.166	2086.889
-6.546	30.198	1922.891	2085.970
-5.531	30.327	1920.977	2085.262
-4.517	30.188	1920.456	2083.054
-3.502	30.190	1919.201	2081.630
-2.487	30.210	1918.699	2081.222
-1.473	30.286	1915.143	2078.143
-0.458	29.613	1894.723	2048.404
0.556	24.848	2035.310	2130.662
1.571	22.569	2247.859	2322.729
2.586	23.503	2291.310	2379.948
3.600	23.588	2294.681	2384.316
4.615	23.563	2293.626	2382.594
5.629	23.544	2291.704	2380.049
6.644	23.534	2290.624	2378.514
7.659	23.707	2287.821	2377.648
8.673	23.846	2286.214	2377.556
9.688	23.480	2292.599	2378.985
10.702	21.507	2369.556	2431.011
11.717	18.858	2434.608	2459.402
12.731	9.135	2410.838	2295.966
13.746	1.308	2389.436	2163.495
14.761	0.373	2385.118	2145.954
15.775	0.097	2384.566	2141.251
16.790	0.129	2382.097	2139.231
17.804	0.021	2382.188	2137.519
18.819	0.037	2380.773	2136.216
19.834	0.079	2378.439	2134.471
20.848	0.133	2376.416	2133.170
21.863	0.134	2374.503	2131.208
22.877	0.058	2373.671	2129.126
23.892	0.019	2371.036	2125.958
24.907	0.001	2368.503	2123.172
25.921	0.034	2366.731	2121.797
26.936	0.061	2364.004	2119.488
27.950	0.111	2361.133	2117.367
28.965	0.023	2360.060	2114.900
29.980	0.174	2357.729	2114.694
30.994	0.225	2355.843	2113.470
32.009	4.428	2370.641	2186.056
33.023	15.033	2401.985	2366.093
34.038	19.439	2408.272	2434.641
35.053	19.478	2404.820	2431.410
36.067	19.519	2402.177	2429.021
37.082	19.351	2401.741	2425.916
38.096	19.421	2400.391	2425.248
39.111	19.673	2396.362	2424.449
40.126	19.839	2394.904	2425.013
41.140	19.899	2393.812	2424.464
42.155	19.910	2392.517	2423.019
43.169	20.028	2390.354	2422.205
44.184	19.647	2387.491	2413.655
45.199	19.734	2385.110	2412.185
46.213	19.914	2383.934	2413.231
47.228	19.842	2384.198	2412.197
48.242	19.865	2382.120	2410.134
49.257	19.966	2380.178	2409.280
50.271	19.920	2378.149	2406.308
51.286	19.887	2374.085	2401.443
52.301	19.577	2372.169	2394.892
53.315	20.519	2376.110	2411.736
54.330	23.544	2384.816	2462.555
55.344	25.489	2385.712	2490.297
56.359	25.707	2383.309	2490.533
57.374	25.795	2382.849	2490.973
58.388	25.885	2379.464	2488.386
59.403	25.604	2374.969	2479.496
60.417	25.294	2371.358	2471.142
61.432	25.314	2370.097	2469.807
62.447	25.411	2368.826	2469.533
63.461	25.651	2366.682	2470.313
64.476	25.657	2364.611	2467.938
65.490	25.471	2363.369	2463.781
66.505	24.727	2359.282	2448.991
67.520	22.604	2350.001	2409.913
68.534	20.298	2340.807	2368.603
69.549	19.466	2336.147	2352.215
70.563	19.416	2332.321	2347.392
71.578	19.286	2331.971	2344.979
72.593	19.475	2330.177	2345.480
73.607	19.659	2329.370	2346.898
74.622	19.711	2326.978	2344.915
75.636	19.589	2323.620	2339.597
76.651	19.341	2321.931	2334.237
77.666	19.485	2320.198	2334.168
78.680	19.423	2317.610	2330.445
79.695	19.314	2314.568	2325.627
80.709	19.195	2313.759	2322.922
81.724	19.103	2312.163	2319.795
82.739	19.178	2309.147	2317.507
83.753	19.236	2306.569	2315.429
84.768	19.229	2304.845	2313.322
85.782	19.199	2303.990	2311.792
86.797	19.126	2302.508	2309.045
87.812	19.289	2300.363	2308.807
88.826	19.257	2298.640	2306.367
89.841	19.321	2296.248	2304.550
90.855	19.344	2293.461	2301.794
91.870	19.392	2291.776	2300.464
92.884	19.192	2290.281	2296.014
93.899	19.365	2288.929	2296.698
94.914	19.917	2292.218	2307.114
95.928	22.612	2299.716	2350.562
96.943	23.691	2298.704	2363.684
97.957	21.242	2287.980	2319.722
98.972	19.583	2281.552	2290.826
99.987	19.245	2278.157	2282.644
101.001	19.354	2275.147	2280.815
102.016	19.386	2273.412	2279.227
103.030	19.187	2271.155	2274.039
104.045	19.283	2268.071	2271.959
105.060	19.326	2266.462	2270.646
106.074	19.372	2265.444	2269.957
107.089	19.384	2264.197	2268.604
108.103	19.291	2263.109	2266.001
109.118	19.380	2260.995	2264.791
110.133	19.451	2258.626	2263.085
111.147	19.380	2256.135	2259.381
112.162	19.376	2255.976	2258.899
113.176	19.555	2252.531	2257.535
114.191	19.437	2251.319	2254.497
115.206	19.491	2250.122	2253.736
116.220	19.509	2247.737	2251.313
117.235	19.349	2246.464	2247.673
118.249	19.511	2244.669	2247.726
119.264	19.543	2242.029	2245.240
120.279	19.426	2240.730	2242.137
121.293	19.465	2238.167	2239.818
122.308	19.389	2236.806	2237.193
123.322	19.423	2235.595	2236.162
124.337	19.711	2236.195	2240.239
125.352	22.519	2245.470	2285.946
126.366	23.546	2244.526	2298.095
127.381	20.676	2233.025	2248.802
128.395	19.383	2226.891	2225.599
129.410	19.230	2224.672	2221.134
130.424	19.290	2222.571	2219.550
131.439	19.253	2221.368	2217.595
132.454	19.389	2219.983	2217.708
133.468	19.540	2217.731	2217.142
134.483	19.539	2217.011	2216.154
135.497	19.721	2214.806	2216.025
136.512	19.603	2211.998	2211.436
137.527	19.479	2210.993	2208.562
138.541	19.504	2208.270	2205.905
139.556	19.383	2207.913	2203.726
140.570	19.423	2205.756	2201.823
141.585	19.364	2203.751	2198.804
142.600	19.368	2202.171	2197.016
143.614	19.266	2201.836	2195.106
144.629	19.230	2199.530	2192.093
145.643	19.189	2197.717	2189.491
146.658	19.216	2195.524	2187.393
147.673	19.157	2193.623	2184.479
148.687	19.095	2192.954	2182.773
149.702	19.133	2191.862	2181.904
150.716	19.258	2190.480	2181.862
151.731	19.268	2188.886	2180.133
152.746	19.420	2187.919	2180.842
153.760	19.973	2191.339	2191.027
154.775	22.784	2199.020	2234.266
155.789	23.857	2199.091	2247.712
156.804	21.297	2186.340	2202.023
157.819	19.396	2178.930	2170.276
158.833	19.155	2175.857	2163.921
159.848	19.091	2173.598	2160.602
160.862	19.225	2171.914	2160.354
161.877	19.353	2171.465	2161.271
162.892	19.572	2170.083	2162.393
163.906	19.546	2168.864	2160.590
164.921	19.548	2166.268	2157.769
165.935	19.432	2164.767	2154.563
166.950	19.486	2163.850	2154.064
167.964	19.597	2160.734	2152.093
168.979	19.324	2158.794	2146.497
169.994	19.251	2157.265	2143.796
171.008	19.172	2154.890	2140.195
172.023	19.194	2154.578	2139.901
173.037	19.258	2153.214	2139.087
174.052	19.456	2151.702	2139.801
175.067	19.507	2149.450	2137.949
176.081	19.333	2149.287	2135.362
177.096	19.291	2148.365	2133.661
178.110	19.364	2146.256	2132.218
179.125	19.362	2144.638	2130.334
180.140	19.245	2143.421	2127.418
181.154	19.457	2141.325	2127.710
182.169	19.466	2140.856	2127.098
183.183	20.324	2143.621	2140.229
184.198	23.298	2151.751	2185.029
185.213	23.973	2148.343	2189.669
186.227	21.125	2137.775	2143.522
187.242	19.635	2133.661	2120.763
188.256	19.414	2131.614	2115.758
189.271	19.288	2129.346	2111.700
190.286	19.230	2127.471	2108.879
191.300	19.232	2125.408	2106.607
192.315	19.255	2123.747	2104.980
193.329	19.464	2122.932	2106.495
194.344	19.756	2122.139	2109.029
195.359	19.768	2121.451	2108.243
196.373	19.623	2118.838	2103.618
197.388	19.553	2115.398	2099.102
198.402	19.447	2113.233	2095.399
199.417	19.385	2110.435	2091.622
200.432	19.408	2109.443	2090.675
201.446	19.487	2108.485	2090.426
202.461	19.456	2106.433	2087.775
203.475	19.314	2105.151	2084.527
204.490	19.291	2102.565	2081.432
205.504	19.320	2100.198	2079.192
206.519	19.294	2098.258	2076.712
207.534	19.250	2096.616	2074.300
208.548	19.248	2095.148	2072.577
209.563	19.307	2094.091	2071.992
210.577	19.393	2093.133	2071.839
211.592	19.451	2092.871	2072.030
212.607	20.603	2098.157	2090.954
213.621	23.750	2105.487	2136.109
214.636	23.521	2099.284	2126.793
215.650	20.562	2089.716	2081.289
216.665	19.571	2085.802	2065.238
217.680	19.443	2082.999	2060.684
218.694	19.213	2081.403	2056.100
219.709	19.080	2080.044	2052.915
220.723	19.237	2078.374	2052.894
221.738	19.399	2076.798	2053.031
222.753	19.473	2075.090	2051.989
223.767	19.516	2073.619	2050.798
224.782	19.630	2071.772	2050.092
225.796	19.712	2069.564	2048.639
226.811	19.506	2068.738	2045.124
227.826	19.488	2067.406	2043.344
228.840	19.508	2065.960	2041.908
229.855	19.382	2064.117	2038.348
230.869	19.460	2062.307	2037.243
231.884	19.512	2060.894	2036.211
232.899	19.458	2060.474	2034.922
233.913	19.303	2059.424	2031.795
234.928	19.361	2057.645	2030.491
235.942	19.395	2054.789	2027.833
236.957	19.347	2054.205	2026.438
237.972	19.385	2053.014	2025.477
238.986	19.279	2051.948	2022.930
240.001	19.239	2049.648	2019.946
241.015	19.383	2047.876	2019.649
242.030	20.087	2051.385	2031.168
243.045	22.947	2057.874	2071.100
244.059	23.517	2055.561	2075.235
245.074	20.819	2044.254	2031.974
246.088	19.528	2040.217	2012.597
247.103	19.682	2038.577	2012.534
248.117	19.786	2036.443	2011.410
249.132	19.493	2035.275	2006.587
250.147	19.359	2033.932	2003.456
251.161	19.502	2031.843	2002.827
252.176	19.700	2030.444	2003.515
253.190	20.025	2029.219	2005.855
254.205	20.124	2027.943	2005.500
255.220	20.192	2026.431	2004.561
256.234	20.150	2025.232	2002.643
257.249	19.802	2023.619	1996.776
258.263	19.529	2022.074	1991.847
259.278	19.538	2020.437	1990.097
260.293	19.546	2018.557	1988.101
261.307	19.418	2017.020	1984.863
262.322	19.433	2014.787	1982.608
263.336	19.309	2013.446	1979.614
264.351	19.119	2011.637	1975.410
265.366	19.081	2010.167	1973.293
266.380	19.177	2009.137	1973.156
267.395	19.131	2007.468	1970.743
268.409	19.172	2005.480	1969.028
269.424	19.297	2004.761	1969.524
270.439	19.335	2003.394	1968.385
271.453	20.349	2006.919	1983.262
272.468	23.379	2013.283	2024.158
273.482	23.650	2008.263	2021.975
274.497	20.633	1998.977	1977.945
275.512	19.403	1994.117	1958.868
276.526	19.335	1991.681	1955.469
277.541	19.268	1989.677	1952.508
278.555	19.171	1987.922	1949.441
279.570	19.099	1987.028	1947.516
280.585	19.244	1985.358	1947.293
281.599	19.158	1984.540	1945.280
282.614	19.465	1983.667	1947.671
283.628	19.759	1983.063	1950.180
284.643	19.743	1982.120	1948.842
285.657	20.017	1981.453	1951.056
286.672	20.224	1979.604	1951.340
287.687	19.950	1977.444	1945.883
288.701	19.858	1975.612	1942.811
289.716	19.815	1974.678	1941.172
290.730	19.955	1973.275	1941.145
291.745	20.024	1971.810	1940.239
292.760	19.883	1970.787	1937.413
293.774	19.590	1970.303	1933.408
294.789	19.623	1968.932	1932.209
295.803	19.426	1966.047	1926.936
296.818	19.319	1964.578	1924.057
297.833	19.483	1962.841	1923.971
298.847	19.401	1961.115	1921.126
299.862	19.537	1959.356	1920.693
300.876	20.118	1962.312	1929.872
301.891	23.331	1969.421	1972.651
302.906	24.010	1967.018	1977.601
303.920	20.902	1957.355	1933.045
304.935	19.683	1952.865	1914.816
305.949	19.564	1949.717	1910.171
306.964	19.431	1948.772	1907.546
307.979	19.597	1946.705	1907.129
308.993	19.660	1946.247	1907.159
310.008	19.846	1945.027	1907.797
311.022	19.986	1944.066	1908.171
312.037	20.122	1942.513	1907.929
313.052	20.196	1941.142	1907.166
314.066	20.327	1939.404	1906.675
315.081	20.160	1938.371	1903.595
316.095	19.964	1937.280	1900.128
317.110	19.723	1934.266	1894.290
318.125	19.644	1932.600	1891.571
319.139	19.735	1931.330	1891.099
320.154	19.771	1929.659	1889.627
321.168	19.518	1928.375	1885.374
322.183	19.494	1926.578	1883.125
323.197	19.357	1924.776	1879.630
324.212	19.238	1922.904	1876.275
325.227	19.132	1921.688	1873.705
326.241	19.132	1920.096	1871.933
327.256	19.238	1918.167	1870.990
328.270	19.125	1917.734	1869.102
329.285	19.164	1916.933	1868.524
330.300	20.321	1920.793	1884.698
331.314	23.581	1926.987	1926.180
332.329	23.750	1922.802	1923.612
333.343	20.680	1912.858	1880.138
334.358	19.379	1908.925	1861.939
335.373	19.117	1908.036	1858.008
336.387	19.084	1905.628	1855.080
337.402	19.185	1903.558	1853.936
338.416	19.255	1902.636	1853.571
339.431	19.347	1901.321	1853.064
340.446	19.322	1899.978	1851.268
341.460	19.453	1898.426	1850.944
342.475	19.764	1897.029	1852.707
343.489	19.852	1896.085	1852.513
344.504	19.816	1895.986	1851.811
345.519	19.770	1893.748	1848.904
346.533	19.905	1892.601	1849.021
347.548	19.985	1892.165	1849.230
348.562	20.283	1892.216	1852.249
349.577	20.940	1892.339	1859.203
350.592	20.833	1889.558	1855.094
351.606	20.274	1887.244	1846.631
352.621	20.009	1884.407	1840.805
353.635	19.644	1882.921	1835.235
354.650	19.570	1880.834	1832.183
355.665	19.487	1879.115	1829.406
356.679	19.411	1877.861	1827.160
357.694	19.464	1875.866	1825.561
358.708	19.287	1875.567	1823.168
359.723	20.594	1879.483	1840.672
360.738	23.836	1885.198	1880.587
361.752	23.680	1880.575	1874.100
362.767	20.654	1871.687	1833.020
363.781	19.624	1867.937	1818.235
364.796	19.515	1865.990	1814.973
365.810	19.260	1864.916	1811.013
366.825	19.315	1863.935	1810.427
367.840	19.412	1863.041	1810.368
368.854	19.463	1862.433	1810.091
369.869	19.525	1860.667	1808.817
370.883	19.571	1859.998	1808.432
371.898	19.918	1858.721	1810.627
372.913	19.798	1857.402	1807.856
373.927	19.921	1856.515	1808.075
374.942	19.980	1854.931	1806.930
375.956	19.941	1853.687	1805.095
376.971	19.972	1850.605	1802.207
377.986	19.765	1848.983	1798.241
379.000	19.559	1847.198	1794.145
380.015	19.648	1846.021	1793.716
381.029	19.456	1844.667	1790.181
382.044	19.319	1842.937	1786.864
383.059	19.215	1840.953	1783.640
384.073	19.105	1839.883	1781.247
385.088	19.264	1839.131	1781.955
386.102	19.275	1837.590	1780.360
387.117	19.172	1835.902	1777.452
388.132	19.264	1835.161	1777.474
389.146	20.229	1839.725	1791.703
390.161	23.364	1845.168	1829.372
391.175	23.496	1837.869	1823.284
392.190	20.627	1828.790	1784.520
393.205	19.676	1825.232	1771.040
394.219	19.394	1823.741	1766.479
395.234	19.286	1822.063	1763.527
396.248	19.277	1820.624	1761.839
397.263	19.452	1817.813	1760.698
398.278	19.286	1817.447	1758.428
399.292	19.340	1816.493	1757.847
400.307	19.495	1815.339	1758.108
401.321	19.684	1814.030	1758.567
402.336	19.620	1813.033	1756.739
403.350	19.384	1812.367	1753.468
404.365	19.820	1809.728	1755.157
405.380	20.130	1809.844	1758.213
406.394	19.947	1809.327	1755.637
407.409	19.858	1806.673	1751.949
408.423	19.933	1805.881	1751.736
409.438	19.851	1803.959	1748.823
410.453	19.613	1803.441	1745.702
411.467	19.831	1802.303	1746.602
412.482	19.724	1800.183	1743.253
413.496	19.273	1799.141	1737.467
414.511	19.324	1796.916	1735.627
415.526	19.346	1793.814	1732.636
416.540	19.353	1792.048	1730.794
417.555	19.314	1792.241	1730.389
418.569	19.438	1792.685	1731.857
419.584	19.592	1792.260	1732.793
420.599	19.524	1791.381	1731.051
421.613	19.497	1789.958	1729.197
422.628	19.394	1788.032	1726.094
423.642	19.318	1785.968	1723.129
424.657	19.362	1784.275	1721.728
425.672	19.466	1783.226	1721.556
426.686	19.514	1782.215	1720.852
427.701	19.377	1781.055	1718.160
428.715	19.546	1779.874	1718.500
429.730	19.712	1778.865	1718.980
430.745	19.745	1777.340	1717.629
431.759	19.764	1777.064	1717.349
432.774	20.126	1777.902	1721.572
433.788	20.568	1777.040	1724.935
434.803	20.783	1776.634	1726.480
435.818	20.833	1775.908	1726.065
436.832	20.730	1775.354	1724.296
437.847	19.953	1768.706	1709.924
438.861	11.748	1745.583	1606.661
439.876	2.160	1727.862	1496.106
440.890	0.400	1723.235	1474.626
441.905	0.149	1721.993	1470.921
442.920	0.251	1719.908	1469.967
443.934	0.232	1719.236	1469.033
444.949	0.125	1718.258	1466.965
445.963	0.166	1717.554	1466.592
446.978	0.087	1717.335	1465.455
447.993	0.132	1715.757	1464.376
449.007	0.107	1713.044	1461.644
450.022	0.249	1710.790	1460.929
451.036	0.319	1709.388	1460.242
452.051	1.201	1714.119	1472.718
453.066	9.720	1734.633	1574.029
454.080	19.064	1749.630	1679.521
455.095	21.665	1755.078	1710.106
456.109	23.299	1757.470	1728.279
457.124	23.634	1757.232	1731.119
458.139	23.746	1756.327	1731.116
459.153	23.934	1754.835	1731.279
460.168	23.750	1753.665	1728.124
461.182	23.659	1751.721	1725.112
462.197	23.767	1749.207	1723.477
463.212	23.480	1747.249	1718.552
464.226	23.517	1746.448	1717.916
465.241	23.839	1745.920	1720.323
466.255	24.016	1745.603	1721.527
467.270	24.127	1744.495	1721.303
468.285	23.896	1741.758	1716.160
469.299	23.604	1740.839	1712.221
470.314	23.801	1739.519	1712.627
471.328	23.954	1737.209	1711.619
472.343	23.740	1737.678	1709.810
473.358	23.918	1735.566	1709.252
474.372	23.934	1734.733	1708.377
475.387	23.936	1732.738	1706.227
476.401	23.733	1731.083	1702.436
477.416	23.609	1730.249	1700.219
478.430	23.884	1729.771	1702.193
479.445	23.673	1727.639	1697.865
480.460	23.474	1725.293	1693.441
481.474	23.565	1724.993	1693.818
482.489	23.886	1725.297	1696.998
483.503	24.339	1723.681	1699.545
484.518	24.371	1721.929	1697.914
485.533	24.398	1720.537	1696.605
486.547	24.249	1719.762	1694.208
487.562	24.792	1719.463	1698.896
488.576	24.684	1718.172	1696.392
489.591	24.550	1715.799	1692.567
490.606	24.427	1713.705	1689.129
491.620	24.360	1712.774	1687.367
492.635	24.707	1712.522	1690.221
493.649	24.958	1710.299	1690.204
494.664	24.146	1708.395	1680.422
495.679	23.517	1705.659	1671.575
496.693	23.746	1704.535	1672.437
497.708	24.118	1705.117	1676.335
498.722	24.706	1704.303	1680.888
499.737	24.741	1702.893	1679.628
500.752	24.332	1700.271	1672.988
501.766	24.191	1698.999	1670.204
502.781	24.366	1697.278	1669.962
503.795	24.372	1695.767	1668.326
504.810	24.223	1695.565	1666.534
505.825	24.591	1695.144	1669.373
506.839	24.498	1693.798	1666.976
507.854	24.491	1692.081	1665.017
508.868	24.471	1690.298	1662.884
509.883	24.400	1689.162	1660.900
510.898	24.608	1688.426	1661.918
511.912	24.339	1686.652	1657.464
512.927	24.033	1684.007	1651.809
513.941	24.017	1682.594	1650.082
514.956	24.111	1681.427	1649.615
515.971	24.064	1681.206	1648.765
516.985	24.262	1679.615	1648.842
518.000	24.412	1678.188	1648.643
519.014	24.624	1677.922	1650.150
520.029	24.559	1677.361	1648.797
521.043	24.634	1675.114	1647.085
522.058	24.534	1673.553	1644.432
523.073	24.603	1673.967	1645.277
524.087	25.159	1672.654	1648.930
525.102	25.071	1671.362	1646.646
526.116	24.513	1668.493	1638.480
527.131	24.415	1668.323	1637.208
528.146	24.980	1668.143	1642.048
529.160	25.254	1667.110	1643.355
530.175	25.283	1665.722	1642.059
531.189	25.223	1665.557	1641.150
532.204	25.433	1663.583	1640.934
533.219	24.931	1661.637	1634.212
534.233	24.417	1659.438	1627.146
535.248	24.811	1659.375	1630.500
536.262	25.463	1660.022	1636.912
537.277	25.355	1659.034	1634.755
538.292	25.156	1655.827	1629.580
539.306	24.972	1654.958	1626.849
540.321	24.964	1653.213	1624.867
541.335	24.884	1650.875	1621.649
542.350	25.129	1650.171	1622.989
543.365	25.524	1649.088	1625.322
544.379	25.472	1649.035	1624.601
545.394	25.600	1647.528	1624.080
546.408	25.109	1644.226	1616.184
547.423	24.431	1641.524	1607.202
548.438	24.291	1640.829	1605.059
549.452	24.771	1640.797	1609.176
550.467	24.954	1639.643	1609.509
551.481	25.038	1638.507	1608.955
552.496	25.266	1639.300	1611.602
553.511	25.767	1637.970	1614.615
554.525	25.704	1636.271	1612.186
555.540	25.622	1636.727	1611.703
556.554	25.668	1635.580	1610.797
557.569	25.668	1632.209	1607.286
558.583	25.390	1630.620	1603.033
559.598	25.354	1629.758	1601.667
560.613	25.286	1629.001	1600.123
561.627	25.335	1627.966	1599.352
562.642	25.478	1626.939	1599.437
563.656	25.685	1625.742	1599.917
564.671	25.744	1624.204	1598.739
565.686	25.655	1622.731	1596.302
566.700	25.252	1621.042	1590.857
567.715	25.097	1619.447	1587.726
568.729	24.980	1617.071	1584.160
569.744	24.828	1615.998	1581.568
570.759	24.827	1615.059	1580.459
571.773	25.148	1614.308	1582.376
572.788	25.254	1614.161	1582.982
573.802	25.343	1612.218	1581.682
574.817	25.416	1610.838	1580.782
575.832	25.771	1609.691	1582.602
576.846	25.860	1608.609	1582.137
577.861	25.642	1607.338	1578.773
578.875	25.738	1607.363	1579.454
579.890	26.152	1606.639	1582.203
580.905	26.144	1605.650	1580.971
581.919	26.152	1605.577	1580.778
582.934	26.264	1604.804	1580.811
583.948	26.449	1602.720	1580.199
584.963	26.268	1600.616	1576.348
585.978	25.712	1598.912	1569.605
586.992	25.716	1599.855	1570.379
588.007	26.122	1599.148	1573.058
589.021	25.610	1595.389	1564.690
590.036	24.824	1592.917	1555.214
591.051	25.383	1593.110	1560.103
592.065	26.038	1592.530	1565.064
593.080	26.295	1591.364	1565.969
594.094	26.371	1588.767	1563.889
595.109	25.679	1586.033	1554.996
596.123	25.266	1584.423	1549.649
597.138	25.659	1585.160	1553.597
598.153	25.885	1584.559	1554.786
599.167	25.961	1582.708	1553.442
600.182	26.037	1581.770	1552.989
601.196	26.150	1581.152	1553.172
602.211	25.966	1580.071	1550.339
603.226	26.151	1579.435	1551.120
604.240	26.414	1577.804	1551.607
605.255	26.698	1576.503	1552.585
606.269	26.770	1575.701	1552.233
607.284	26.453	1575.145	1548.773
608.299	26.452	1573.021	1546.491
609.313	26.207	1571.028	1542.237
610.328	26.227	1569.777	1541.001
611.342	26.440	1568.252	1541.138
612.357	26.484	1568.147	1541.228
613.372	26.503	1567.244	1540.318
614.386	26.272	1565.626	1536.574
615.401	26.396	1565.003	1536.840
616.415	26.504	1565.000	1537.570
617.430	26.418	1563.373	1535.056
618.445	26.645	1561.741	1535.200
619.459	26.343	1560.671	1531.398
620.474	25.955	1559.195	1526.466
621.488	25.430	1557.403	1520.062
622.503	25.091	1555.876	1515.514
623.518	25.732	1555.462	1520.366
624.532	26.269	1554.918	1524.210
625.547	26.251	1554.580	1523.548
626.561	26.530	1554.194	1525.343
627.576	26.759	1552.604	1525.539
628.591	26.179	1550.227	1518.126
629.605	25.880	1548.456	1513.685
630.620	25.808	1547.144	1511.614
631.634	25.567	1545.393	1507.686
632.649	25.666	1545.157	1508.115
633.663	26.159	1544.177	1511.128
634.678	26.410	1544.035	1512.914
635.693	26.825	1542.524	1514.740
636.707	26.729	1541.147	1512.397
637.722	27.094	1540.542	1514.689
638.736	27.046	1539.624	1513.199
639.751	27.037	1537.979	1511.327
640.766	26.992	1536.548	1509.364
641.780	27.014	1535.430	1508.269
642.795	26.821	1535.240	1506.289
643.809	27.025	1534.545	1507.131
644.824	27.235	1533.005	1507.187
645.839	27.037	1532.017	1504.388
646.853	26.997	1530.983	1502.860
647.868	26.970	1529.087	1500.589
648.882	26.790	1527.752	1497.610
649.897	26.739	1526.752	1496.025
650.912	26.686	1525.860	1494.532
651.926	26.885	1524.394	1494.563
652.941	26.779	1522.236	1491.392
653.955	26.114	1519.128	1482.682
654.970	25.465	1516.936	1475.014
655.985	25.459	1515.369	1473.261
656.999	25.570	1513.940	1472.615
658.014	25.934	1514.134	1475.621
659.028	26.288	1514.840	1479.046
660.043	26.728	1514.379	1482.036
661.058	26.891	1513.190	1482.030
662.072	26.989	1511.869	1481.361
663.087	26.853	1510.730	1478.956
664.101	26.750	1509.795	1477.021
665.116	26.825	1508.866	1476.553
666.131	26.989	1508.272	1477.134
667.145	27.085	1506.183	1475.695
668.160	27.207	1505.538	1475.878
669.174	27.507	1504.157	1476.794
670.189	27.469	1502.918	1475.095
671.204	27.212	1502.325	1472.241
672.218	27.223	1501.356	1471.205
673.233	27.359	1501.016	1471.800
674.247	27.560	1499.918	1472.183
675.262	27.715	1498.821	1472.187
676.276	27.647	1498.109	1470.757
677.291	27.421	1496.089	1466.769
678.306	27.112	1494.633	1462.666
679.320	27.028	1492.892	1460.108
680.335	27.301	1492.830	1462.082
681.349	27.466	1492.639	1463.050
682.364	27.403	1491.067	1460.828
683.379	27.278	1489.619	1458.225
684.393	27.061	1488.513	1455.222
685.408	27.292	1487.513	1455.927
686.422	27.071	1485.876	1452.373
687.437	27.071	1486.167	1452.487
688.452	27.285	1485.115	1453.004
689.466	27.226	1482.875	1450.164
690.481	27.182	1481.236	1448.039
691.495	26.827	1479.475	1443.304
692.510	26.266	1477.985	1437.192
693.525	26.015	1475.602	1432.702
694.539	26.261	1475.546	1434.437
695.554	26.941	1476.256	1440.383
696.568	27.229	1475.994	1442.253
697.583	27.322	1474.888	1441.734
698.598	27.470	1473.383	1441.273
699.612	27.649	1472.793	1441.940
700.627	27.571	1471.815	1440.196
701.641	27.560	1470.753	1438.897
702.656	27.683	1469.554	1438.523
703.671	27.871	1469.799	1440.080
704.685	28.026	1469.075	1440.426
705.700	27.787	1466.963	1436.298
706.714	27.520	1464.357	1431.461
707.729	27.328	1463.138	1428.587
708.744	27.247	1461.623	1426.300
709.758	27.212	1459.670	1423.942
710.773	26.584	1458.361	1417.559
711.787	26.430	1456.458	1414.325
712.802	26.807	1456.196	1416.864
713.816	27.115	1456.202	1419.116
714.831	27.516	1455.744	1421.650
715.846	27.651	1454.663	1421.486
716.860	27.678	1453.342	1420.230
717.875	27.718	1451.585	1418.662
718.889	27.468	1450.946	1415.914
719.904	27.441	1450.790	1415.379
720.919	27.557	1449.839	1415.184
721.933	27.786	1448.251	1415.251
722.948	27.848	1447.232	1414.572
723.962	27.779	1446.835	1413.477
724.977	28.053	1445.368	1414.005
725.992	28.089	1444.359	1413.124
727.006	27.832	1443.366	1409.994
728.021	28.056	1441.457	1409.694
729.035	27.995	1440.723	1408.338
730.050	28.024	1440.007	1407.689
731.065	27.868	1438.882	1405.219
732.079	27.940	1437.364	1404.120
733.094	28.123	1435.730	1403.772
734.108	27.784	1434.216	1399.509
735.123	27.938	1433.017	1399.354
736.138	27.870	1432.124	1397.796
737.152	27.718	1431.752	1396.094
738.167	28.135	1430.595	1398.003
739.181	28.091	1429.754	1396.676
740.196	28.116	1428.669	1395.641
741.211	28.065	1427.865	1394.297
742.225	27.975	1426.891	1392.490
743.240	27.914	1424.985	1389.999
744.254	27.939	1423.127	1388.209
745.269	27.803	1422.542	1386.432
746.284	27.634	1421.268	1383.735
747.298	27.502	1420.756	1382.067
748.313	27.224	1418.664	1377.746
749.327	26.801	1417.420	1373.157
750.342	26.438	1416.063	1368.920
751.356	26.274	1414.018	1365.528
752.371	26.354	1413.898	1365.860
753.386	27.260	1413.560	1372.241
754.400	27.791	1413.537	1376.079
755.415	28.053	1413.003	1377.380
756.429	28.319	1411.769	1378.029
757.444	28.124	1410.664	1375.309
758.459	28.154	1410.046	1374.767
759.473	28.218	1408.955	1374.022
760.488	28.218	1406.831	1371.789
761.502	28.059	1405.785	1369.403
762.517	27.867	1405.213	1367.241
763.532	27.919	1403.533	1365.831
764.546	27.768	1401.506	1362.567
765.561	26.998	1399.923	1355.087
766.575	26.188	1397.814	1346.813
767.590	26.145	1396.854	1345.405
768.605	27.049	1396.783	1351.947
769.619	27.491	1396.402	1354.718
770.634	27.741	1395.678	1355.723
771.648	28.052	1395.222	1357.439
772.663	28.151	1394.465	1357.274
773.678	28.042	1394.174	1356.018
774.692	28.151	1393.970	1356.473
775.707	28.289	1392.513	1355.920
776.721	28.302	1392.062	1355.408
777.736	28.103	1390.359	1352.112
778.751	28.338	1389.702	1353.059
779.765	28.338	1388.343	1351.574
780.780	28.384	1387.175	1350.618
781.794	28.249	1386.534	1348.831
782.809	27.873	1385.019	1344.411
783.824	27.865	1382.683	1341.926
784.838	27.443	1380.920	1336.939
785.853	26.779	1379.627	1330.628
786.867	26.994	1379.418	1331.857
787.882	27.186	1379.708	1333.393
788.897	27.443	1378.702	1334.149
789.911	27.581	1377.398	1333.748
790.926	27.616	1376.207	1332.693
791.940	27.960	1374.863	1333.753
792.955	28.064	1373.500	1333.037
793.969	27.971	1372.887	1331.601
794.984	28.074	1372.532	1331.851
795.999	28.280	1371.702	1332.394
797.013	28.388	1370.085	1331.452
798.028	28.281	1369.234	1329.681
799.042	28.126	1368.839	1328.007
800.057	28.387	1367.359	1328.315
801.072	28.347	1366.498	1327.025
802.086	28.397	1365.032	1325.811
803.101	28.396	1363.965	1324.605
804.115	28.514	1362.644	1324.020
805.130	28.241	1362.196	1321.449
806.145	28.235	1360.589	1319.686
807.159	28.202	1359.340	1318.077
808.174	28.094	1357.815	1315.659
809.188	28.052	1356.479	1313.906
810.203	27.872	1354.808	1310.833
811.218	27.603	1352.002	1306.026
812.232	26.992	1349.733	1299.280
813.247	26.820	1348.691	1296.884
814.261	27.284	1349.975	1301.302
815.276	27.826	1349.801	1304.874
816.291	27.945	1348.541	1304.353
817.305	28.090	1347.533	1304.262
818.320	28.297	1346.625	1304.714
819.334	28.260	1345.944	1303.627
820.349	28.601	1344.349	1304.368
821.364	28.372	1343.395	1301.652
822.378	28.362	1342.602	1300.656
823.393	28.413	1340.593	1298.916
824.407	28.322	1339.168	1296.730
825.422	28.310	1338.780	1296.116
826.437	28.386	1337.001	1294.778
827.451	28.087	1334.775	1290.348
828.466	27.344	1332.571	1282.798
829.480	26.994	1330.773	1278.439
830.495	27.316	1329.853	1279.678
831.509	27.671	1329.770	1281.956
832.524	27.960	1329.643	1283.722
833.539	28.228	1328.727	1284.571
834.553	28.477	1326.721	1284.229
835.568	28.301	1326.578	1282.702
836.582	28.439	1325.409	1282.390
837.597	28.439	1323.815	1280.694
838.612	28.306	1321.997	1277.845
839.626	28.088	1320.378	1274.600
840.641	27.935	1319.170	1272.213
841.655	27.642	1318.248	1269.124
842.670	27.008	1315.857	1262.239
843.685	26.104	1314.953	1254.909
844.699	27.074	1314.510	1261.103
845.714	27.766	1313.551	1264.860
846.728	27.893	1312.807	1264.877
847.743	27.946	1312.545	1264.839
848.758	27.988	1312.478	1264.918
849.772	28.248	1310.844	1264.995
850.787	28.298	1309.814	1264.200
851.801	28.280	1308.259	1262.421
852.816	28.310	1307.255	1261.512
853.831	28.189	1305.443	1258.771
854.845	28.174	1303.348	1256.495
855.860	27.963	1301.783	1253.388
856.874	27.760	1300.451	1250.555
857.889	27.693	1298.711	1248.267
858.904	27.491	1297.019	1245.107
859.918	27.173	1295.519	1241.337
860.933	26.849	1294.139	1237.644
861.947	27.203	1294.420	1240.189
862.962	27.484	1293.213	1240.813
863.977	27.482	1292.066	1239.547
864.991	27.905	1291.021	1241.288
866.006	27.947	1291.508	1241.890
867.020	28.134	1290.071	1241.636
868.035	28.194	1289.435	1241.285
869.049	28.188	1289.076	1240.753
870.064	28.370	1287.976	1240.782
871.079	28.310	1286.555	1238.856
872.093	28.129	1285.690	1236.648
873.108	28.028	1284.473	1234.641
874.122	27.820	1282.316	1231.014
875.137	27.207	1281.560	1225.988
876.152	27.187	1280.341	1224.539
877.166	27.154	1279.175	1223.054
878.181	27.339	1278.330	1223.350
879.195	27.814	1277.560	1225.672
880.210	28.158	1276.852	1227.165
881.225	28.146	1276.900	1226.983
882.239	28.105	1275.611	1225.322
883.254	28.244	1274.570	1225.108
884.268	28.490	1273.538	1225.628
885.283	28.425	1271.914	1223.483
886.298	28.283	1270.399	1220.925
887.312	28.327	1269.453	1220.162
888.327	28.170	1268.894	1218.432
889.341	28.214	1267.625	1217.359
890.356	28.178	1266.597	1215.989
891.371	28.104	1266.462	1215.217
892.385	27.945	1265.849	1213.419
893.400	27.808	1264.609	1211.174
894.414	27.586	1263.215	1208.215
895.429	27.518	1260.388	1204.912
896.444	26.991	1257.767	1198.765
897.458	26.460	1256.934	1194.306
898.473	26.801	1256.939	1196.430
899.487	27.485	1256.180	1200.099
900.502	27.783	1255.533	1201.310
901.517	27.839	1255.125	1201.141
902.531	28.017	1254.461	1201.544
903.546	28.094	1253.828	1201.299
904.560	28.212	1252.828	1200.975
905.575	28.170	1252.185	1199.937
906.589	28.055	1251.013	1197.912
907.604	27.909	1250.004	1195.845
