DTS Sentinel unit serial number:	SN409020Multiplexer serial number:	ORYXHardware model number:	OX4-SRSoftware version number:	ORYX F/W v3.00 Oryx Data Collector v3.7.2.0data status	okinstallation	HaddamTimeLapsedifferential loss correction	single-endedforward channel	channel 3reverse channel	N/Adate	2011/06/22time	10:21:17forward acquisition time	30.00reverse acquisition time	0.00gamma	498.7831k internal	0.1812k external	0.1812temperature offset calibration	1.0074default loss term (dB/km)	0.3790temperature slope calibration	1.3530multiplexer offset coefficient	1.0000multiplexer slope coefficient	1.0000fibre end	0.00T internal ref (°C)	29.87T ext. ref 1 (°C)	26.23T ext. ref 2 (°C)	0.22length (m)	temperature (°C)	Stokes	anti-Stokes-747.200	669.150	-0.207	0.693
-746.185	70.764	-0.299	0.397
-745.171	604.265	-0.104	-0.335
-744.156	-200.000	0.077	0.590
-743.142	31.550	0.385	0.425
-742.127	-15.781	0.150	-0.122
-741.112	12.464	0.387	-0.383
-740.098	800.000	0.095	0.402
-739.083	-96.628	-0.405	0.136
-738.069	-200.000	0.010	0.354
-737.054	208.888	-0.114	-0.230
-736.039	-158.434	-0.550	-0.040
-735.025	552.391	0.167	-0.518
-734.010	489.743	-0.108	-0.320
-732.996	54.903	-0.332	-0.411
-731.981	-105.566	-0.183	-0.053
-730.966	-52.769	0.194	-0.115
-729.952	-200.000	0.070	-0.656
-728.937	67.912	-0.190	-0.249
-727.923	-129.617	0.539	-0.095
-726.908	-113.686	0.395	0.098
-725.894	-44.455	-0.180	0.115
-724.879	-12.346	-0.409	-0.343
-723.864	-200.000	-0.104	-0.615
-722.850	800.000	0.121	-0.457
-721.835	-123.209	-0.322	0.066
-720.821	-31.161	-0.302	0.218
-719.806	205.714	-0.267	-0.535
-718.791	-129.038	-0.818	0.145
-717.777	800.000	0.024	0.118
-716.762	-105.348	0.649	-0.188
-715.748	-95.559	-0.501	-0.171
-714.733	28.017	-0.154	-0.166
-713.718	700.715	0.075	0.255
-712.704	-90.662	-0.421	-0.155
-711.689	-86.812	-0.298	0.116
-710.675	42.888	-0.127	-0.148
-709.660	289.910	-0.051	-0.118
-708.645	57.563	0.133	0.167
-707.631	181.627	0.082	0.155
-706.616	-80.436	0.107	-0.045
-705.602	-90.014	-0.469	-0.174
-704.587	743.692	-0.045	0.155
-703.572	-200.000	-0.024	0.220
-702.558	47.677	-0.254	-0.304
-701.543	-101.489	0.186	-0.058
-700.529	-81.396	-0.229	0.096
-699.514	18.388	0.026	0.027
-698.499	-70.341	-0.037	-0.018
-697.485	407.241	0.062	-0.170
-696.470	3.556	0.126	-0.118
-695.456	-200.000	0.014	-0.180
-694.441	76.944	0.212	0.288
-693.426	52.498	0.328	0.402
-692.412	-155.125	0.364	-0.030
-691.397	46.309	0.274	-0.325
-690.383	-90.894	-0.231	-0.085
-689.368	84.037	-0.228	0.319
-688.354	52.871	-0.377	0.462
-687.339	73.774	-0.364	-0.490
-686.324	257.733	-0.202	-0.447
-685.310	191.847	0.183	-0.355
-684.295	16.512	0.074	-0.074
-683.281	-5.665	0.458	-0.402
-682.266	282.842	-0.111	0.257
-681.251	-200.000	-0.026	0.363
-680.237	-62.831	-0.355	-0.188
-679.222	296.808	0.071	0.167
-678.208	800.000	-0.036	-0.148
-677.193	-126.184	0.368	-0.070
-676.178	-108.560	-0.265	0.072
-675.164	25.091	0.097	0.103
-674.149	-121.258	0.514	0.109
-673.135	-176.052	0.599	-0.020
-672.120	-200.000	-0.038	0.218
-671.105	157.596	-0.085	-0.150
-670.091	-17.028	-0.267	0.216
-669.076	-151.561	-0.280	0.026
-668.062	-133.587	-0.150	0.024
-667.047	-170.512	0.330	-0.014
-666.032	-200.000	-0.024	0.163
-665.018	-126.817	0.083	0.015
-664.003	-200.000	-0.006	-0.222
-662.989	-151.033	0.152	-0.014
-661.974	-11.850	-0.213	-0.178
-660.959	96.379	0.159	-0.233
-659.945	154.961	-0.088	0.156
-658.930	144.922	0.356	-0.611
-657.916	90.712	0.226	-0.324
-656.901	-66.361	-0.425	-0.216
-655.886	-200.000	-0.109	-0.000
-654.872	-96.125	-0.137	-0.046
-653.857	800.000	0.025	0.124
-652.843	-174.480	0.251	-0.009
-651.828	-61.760	-0.179	0.096
-650.814	46.955	-0.387	-0.460
-649.799	7.782	0.096	-0.092
-648.784	-98.093	0.308	0.101
-647.770	-124.695	0.482	0.095
-646.755	-200.000	-0.008	0.436
-645.741	-174.129	0.132	0.005
-644.726	-53.435	-0.391	-0.228
-643.711	60.040	-0.270	-0.342
-642.697	-187.912	0.426	0.007
-641.682	364.421	-0.117	0.302
-640.668	-59.857	-0.267	0.145
-639.653	-44.274	-0.448	0.287
-638.638	256.144	-0.131	-0.288
-637.624	75.527	0.075	0.102
-636.609	-43.220	-0.136	-0.088
-635.595	-127.926	-0.151	0.028
-634.580	-57.877	0.723	-0.403
-633.565	-166.650	0.072	-0.004
-632.551	9.369	0.134	0.130
-631.536	256.870	0.293	-0.646
-630.522	606.820	0.081	0.261
-629.507	20.881	-0.161	0.167
-628.492	800.000	-0.031	-0.128
-627.478	-200.000	0.020	-0.387
-626.463	-128.638	-0.276	-0.049
-625.449	-60.123	0.589	0.320
-624.434	25.616	0.126	-0.134
-623.419	-102.761	-0.256	-0.077
-622.405	-71.206	-0.287	-0.137
-621.390	-43.204	-0.488	0.315
-620.376	-25.598	-0.168	-0.127
-619.361	-70.068	-0.445	0.215
-618.346	-150.802	-0.494	-0.047
-617.332	41.440	-0.322	-0.373
-616.317	175.089	0.173	-0.320
-615.303	-27.148	-0.212	-0.157
-614.288	65.625	0.241	-0.311
-613.273	-65.933	0.048	-0.024
-612.259	-82.183	0.229	-0.095
-611.244	-17.188	-0.403	0.324
-610.230	-200.000	0.006	0.121
-609.215	-200.000	0.015	-0.221
-608.201	-94.686	-0.294	0.101
-607.186	794.320	-0.105	-0.370
-606.171	124.067	0.162	-0.261
-605.157	-169.786	0.086	-0.004
-604.142	99.250	0.367	-0.542
-603.128	-54.098	-0.284	-0.164
-602.113	53.217	-0.434	0.532
-601.098	-56.492	0.297	0.167
-600.084	37.309	0.504	0.570
-599.069	91.147	0.174	0.250
-598.055	80.539	0.110	-0.152
-597.040	-48.183	0.326	0.200
-596.025	150.907	0.332	0.577
-595.011	38.533	0.266	0.303
-593.996	-139.672	0.494	0.066
-592.982	453.126	0.037	-0.106
-591.967	-100.978	0.212	0.066
-590.952	238.397	-0.167	-0.354
-589.938	-99.516	-0.231	0.074
-588.923	411.418	-0.125	-0.341
-587.909	42.369	0.302	-0.351
-586.894	-104.866	-0.325	-0.095
-585.879	-39.587	0.123	-0.082
-584.865	-41.786	0.181	0.118
-583.850	181.735	-0.084	0.158
-582.836	246.577	0.161	-0.347
-581.821	-137.528	0.024	-0.003
-580.806	-88.962	0.260	0.098
-579.792	-76.264	0.040	-0.018
-578.777	-101.446	0.313	0.097
-577.763	-157.153	0.383	0.029
-576.748	-100.776	-0.020	0.006
-575.733	-52.412	-0.341	0.201
-574.719	-172.046	0.687	0.028
-573.704	-200.000	-0.018	0.280
-572.690	-6.381	-0.154	-0.134
-571.675	-66.586	-0.114	-0.057
-570.661	800.000	0.161	0.611
-569.646	-117.033	-0.245	0.056
-568.631	-196.085	-0.278	-0.002
-567.617	63.866	0.113	0.145
-566.602	-125.315	-0.123	-0.024
-565.588	-200.000	-0.005	-0.138
-564.573	743.891	-0.150	-0.519
-563.558	8.639	-0.219	0.210
-562.544	59.380	-0.207	0.261
-561.529	-135.857	-0.509	0.076
-560.515	-85.084	0.201	0.080
-559.500	1.260	0.091	-0.084
-558.485	136.921	0.169	0.282
-557.471	-200.000	-0.010	0.235
-556.456	5.217	-0.147	-0.138
-555.442	-200.000	0.078	-0.441
-554.427	514.915	-0.068	-0.202
-553.412	-1.702	0.308	-0.276
-552.398	192.541	0.214	-0.412
-551.383	34.556	0.075	-0.084
-550.369	800.000	0.107	0.561
-549.354	-200.000	-0.008	-0.221
-548.339	-144.447	-0.208	-0.024
-547.325	-96.719	-0.388	0.129
-546.310	226.393	-0.110	-0.228
-545.296	21.156	0.188	0.195
-544.281	41.682	0.126	-0.145
-543.266	40.188	-0.267	-0.306
-542.252	-200.000	0.058	0.363
-541.237	-70.315	0.699	0.337
-540.223	-145.219	-0.076	0.009
-539.208	-2.646	0.224	0.200
-538.193	192.394	-0.152	0.294
-537.179	-200.000	-0.013	-0.332
-536.164	-200.000	-0.002	0.217
-535.150	70.023	-0.092	0.121
-534.135	-61.926	-0.356	0.189
-533.121	-12.789	0.298	0.247
-532.106	41.277	-0.079	-0.092
-531.091	-122.429	-0.589	-0.121
-530.077	-49.598	0.176	0.106
-529.062	34.679	-0.177	0.197
-528.048	13.935	-0.285	0.282
-527.033	-102.664	0.193	-0.058
-526.018	-200.000	0.041	-0.493
-525.004	-65.670	0.435	0.221
-523.989	-49.213	-0.320	0.194
-522.975	21.219	-0.090	0.093
-521.960	-62.095	-0.508	-0.269
-520.945	12.674	0.104	0.103
-519.931	-143.234	0.501	0.061
-518.916	94.548	-0.128	-0.186
-517.902	-148.240	0.220	0.023
-516.887	-10.795	-0.147	-0.124
-515.872	-82.468	-0.161	-0.066
-514.858	31.089	0.549	-0.599
-513.843	-58.794	0.187	-0.103
-512.829	-33.359	0.227	-0.159
-511.814	800.000	-0.126	-0.560
-510.799	-14.653	-0.167	-0.136
-509.785	-28.934	0.084	0.061
-508.770	-72.339	0.298	-0.140
-507.756	77.259	0.187	0.253
-506.741	-140.219	0.258	0.034
-505.726	-57.789	0.266	0.147
-504.712	-159.521	0.453	-0.032
-503.697	-142.719	0.209	-0.026
-502.683	800.000	-0.144	-0.683
-501.668	165.128	-0.238	-0.428
-500.653	-11.337	-0.106	0.089
-499.639	93.751	0.105	-0.151
-498.624	263.964	-0.207	0.459
-497.610	-16.530	-0.213	0.171
-496.595	-200.000	0.003	-0.301
-495.581	-64.065	0.081	-0.042
-494.566	-39.576	0.267	0.178
-493.551	48.959	-0.188	0.225
-492.537	-200.000	0.004	-0.072
-491.522	165.277	0.104	-0.187
-490.508	12.795	-0.223	0.219
-489.493	-200.000	-0.014	-0.119
-488.478	-164.536	-0.171	-0.010
-487.464	-35.656	-0.154	0.106
-486.449	190.913	-0.352	-0.674
-485.435	-53.542	-0.011	-0.007
-484.420	-50.714	-0.596	-0.355
-483.405	39.442	0.054	-0.061
-482.391	-78.049	0.606	0.264
-481.376	95.038	-0.247	-0.358
-480.362	242.559	-0.061	-0.129
-479.347	-192.009	-0.210	0.003
-478.332	-60.496	0.610	-0.328
-477.318	-85.017	0.118	-0.047
-476.303	-19.815	-0.245	-0.192
-475.289	-117.575	-0.487	0.111
-474.274	58.621	-0.228	0.285
-473.259	61.442	-0.127	-0.161
-472.245	-173.705	-0.137	0.005
-471.230	-25.244	0.292	0.219
-470.216	300.866	-0.095	0.223
-469.201	495.325	0.147	-0.432
-468.186	725.733	-0.203	0.691
-467.172	-60.936	0.129	0.069
-466.157	-95.648	-0.148	-0.050
-465.143	-83.507	0.482	-0.195
-464.128	285.282	-0.093	0.213
-463.113	363.500	-0.141	0.362
-462.099	40.069	0.239	-0.273
-461.084	-200.000	0.070	-0.488
-460.070	-83.039	-0.350	-0.142
-459.055	800.000	0.062	0.280
-458.040	-200.000	0.017	-0.123
-457.026	-75.988	0.541	0.242
-456.011	109.214	-0.074	0.112
-454.997	-175.834	-0.239	0.008
-453.982	189.142	0.083	-0.157
-452.968	123.661	-0.185	0.295
-451.953	-200.000	-0.004	0.430
-450.938	-63.926	0.386	0.200
-449.924	49.005	0.122	0.146
-448.909	-31.120	0.250	0.179
-447.895	162.339	0.134	0.239
-446.880	-200.000	0.087	0.581
-445.865	251.466	0.117	-0.253
-444.851	61.160	-0.326	0.411
-443.836	-161.141	0.177	0.012
-442.822	221.451	0.144	-0.294
-441.807	-96.392	0.359	0.120
-440.792	622.375	0.105	-0.337
-439.778	-66.429	0.259	0.130
-438.763	-200.000	0.036	0.357
-437.749	-166.659	-0.242	0.013
-436.734	-53.574	-0.527	-0.305
-435.719	-193.674	-0.515	-0.005
-434.705	-1.548	0.094	-0.084
-433.690	-62.358	0.345	-0.181
-432.676	-115.083	-0.160	0.038
-431.661	-200.000	0.031	0.195
-430.646	-51.892	-0.190	0.112
-429.632	106.860	-0.532	-0.803
-428.617	-59.978	-0.390	0.211
-427.603	550.214	0.006	0.019
-426.588	-190.995	-0.276	-0.004
-425.573	-200.000	0.113	0.664
-424.559	226.593	0.210	0.434
-423.544	-28.859	-0.252	-0.183
-422.530	70.004	0.322	-0.422
-421.515	139.913	0.313	-0.524
-420.500	-173.926	0.517	0.019
-419.486	-200.000	-0.028	0.217
-418.471	-104.205	-0.488	0.143
-417.457	25.546	0.249	-0.263
-416.442	-63.409	0.101	-0.053
-415.428	-109.652	-0.276	0.073
-414.413	800.000	0.091	0.383
-413.398	-6.552	-0.421	-0.363
-412.384	-113.182	-0.230	0.057
-411.369	-135.564	-0.327	-0.049
-410.355	-134.149	-0.182	0.028
-409.340	-0.580	0.433	-0.389
-408.325	190.265	-0.111	0.212
-407.311	21.294	0.304	0.313
-406.296	-63.474	0.512	0.266
-405.282	800.000	0.063	0.253
-404.267	-112.147	-0.365	-0.092
-403.252	800.000	0.062	0.267
-402.238	-147.402	0.422	-0.045
-401.223	18.464	-0.317	0.321
-400.209	247.126	-0.178	0.383
-399.194	-72.465	0.552	-0.257
-398.179	-59.130	0.141	0.077
-397.165	-78.678	-0.410	-0.177
-396.150	-197.473	-0.229	-0.002
-395.136	-200.000	-0.050	-0.308
-394.121	-200.000	0.022	-0.123
-393.106	0.528	0.159	-0.144
-392.092	-51.449	-0.416	-0.246
-391.077	-83.203	-0.201	-0.081
-390.063	1.954	0.140	0.128
-389.048	322.758	0.086	0.208
-388.033	8.631	-0.113	0.107
-387.019	60.114	-0.102	0.128
-386.004	-94.205	0.345	-0.119
-384.990	183.867	-0.014	0.027
-383.975	-19.241	-0.381	-0.299
-382.960	-200.000	-0.017	0.664
-381.946	200.797	-0.155	-0.302
-380.931	-81.579	-0.518	0.215
-379.917	-56.049	-0.174	0.098
-378.902	-154.408	0.295	-0.025
-377.888	-112.458	0.328	0.082
-376.873	295.416	0.046	-0.107
-375.858	800.000	0.065	0.231
-374.844	140.259	0.094	0.157
-373.829	800.000	-0.023	0.109
-372.815	387.670	0.038	0.100
-371.800	-96.241	0.138	0.046
-370.785	-200.000	0.021	-0.360
-369.771	-6.176	0.451	-0.390
-368.756	-136.971	0.438	-0.063
-367.742	-15.381	0.312	0.252
-366.727	-200.000	0.023	0.351
-365.712	-35.868	0.106	0.073
-364.698	-137.676	-0.142	0.020
-363.683	-104.863	-0.342	0.099
-362.669	-129.457	-0.580	0.101
-361.654	197.406	0.116	0.225
-360.639	-200.000	0.110	0.790
-359.625	77.345	0.179	0.241
-358.610	500.368	-0.027	0.080
-357.596	-117.718	0.396	0.089
-356.581	130.427	0.190	-0.309
-355.566	-53.598	0.417	-0.240
-354.552	166.785	-0.243	0.437
-353.537	-137.130	-0.466	0.067
-352.523	-137.302	-0.085	0.012
-351.508	-200.000	-0.006	-0.198
-350.493	432.611	0.098	0.269
-349.479	-200.000	-0.084	0.750
-348.464	-58.311	-0.178	-0.098
-347.450	-99.744	-0.574	0.181
-346.435	-130.465	0.607	0.103
-345.420	449.089	0.170	-0.475
-344.406	-200.000	-0.115	-0.746
-343.391	-133.005	0.148	-0.024
-342.377	-3.232	-0.114	-0.100
-341.362	139.464	0.180	0.299
-340.348	800.000	0.040	0.206
-339.333	800.000	0.096	-0.473
-338.318	-85.953	0.650	-0.253
-337.304	-50.821	-0.497	-0.294
-336.289	60.571	0.086	0.108
-335.275	-55.280	-0.150	0.085
-334.260	-49.311	-0.209	0.126
-333.245	220.997	0.136	-0.276
-332.231	2.567	0.282	0.258
-331.216	-177.969	-0.238	-0.007
-330.202	41.650	0.069	-0.079
-329.187	11.141	0.116	0.112
-328.172	20.753	-0.125	-0.128
-327.158	-84.703	-0.366	-0.145
-326.143	-110.066	0.366	-0.096
-325.129	-200.000	-0.028	-0.398
-324.114	-24.069	0.192	0.145
-323.099	320.773	-0.142	-0.342
-322.085	-200.000	-0.020	0.316
-321.070	-39.448	0.166	0.110
-320.056	-58.420	-0.338	-0.185
-319.041	221.099	-0.153	-0.311
-318.026	-52.361	0.178	0.104
-317.012	-200.000	-0.023	0.374
-315.997	-133.675	-0.281	0.044
-314.983	182.073	-0.095	0.177
-313.968	-200.000	0.513	-0.001
-312.953	-43.682	-0.254	-0.161
-311.939	-50.271	-0.537	-0.320
-310.924	-51.936	0.260	-0.152
-309.910	800.000	-0.076	-0.282
-308.895	-65.333	-0.194	0.098
-307.880	-200.000	0.058	0.547
-306.866	-200.000	-0.060	0.380
-305.851	-150.849	0.269	-0.025
-304.837	-200.000	0.004	-0.181
-303.822	27.553	0.199	0.212
-302.807	76.356	0.271	-0.363
-301.793	-68.082	-0.038	0.019
-300.778	138.280	-0.197	0.327
-299.764	134.794	-0.116	0.191
-298.749	-142.073	-0.226	0.028
-297.735	480.632	0.095	-0.273
-296.720	-103.729	0.454	0.133
-295.705	431.324	0.093	0.255
-294.691	-98.721	0.346	0.110
-293.676	-122.313	-0.306	0.063
-292.662	-200.000	-0.027	0.200
-291.647	28.154	-0.151	0.161
-290.632	-54.475	0.282	0.160
-289.618	-101.025	-0.310	-0.095
-288.603	-22.852	-0.279	-0.212
-287.589	-200.000	-0.018	0.312
-286.574	800.000	-0.064	0.344
-285.559	-200.000	0.002	-0.041
-284.545	-138.860	-0.283	-0.038
-283.530	800.000	0.025	0.107
-282.516	-93.137	0.440	-0.153
-281.501	-143.360	0.240	0.029
-280.486	74.871	-0.040	0.054
-279.472	187.653	0.143	0.270
-278.457	800.000	-0.059	0.206
-277.443	404.233	0.131	0.349
-276.428	800.000	-0.108	0.387
-275.413	800.000	-0.044	-0.172
-274.399	-200.000	-0.040	0.311
-273.384	-140.543	0.295	0.038
-272.370	-156.942	-0.466	0.035
-271.355	640.439	0.089	0.287
-270.340	-88.210	0.573	-0.215
-269.326	-39.771	-0.547	-0.359
-268.311	-57.669	0.067	0.037
-267.297	10.441	0.058	0.055
-266.282	393.947	0.096	-0.254
-265.267	-115.597	0.466	0.110
-264.253	-200.000	-0.003	-0.289
-263.238	-5.326	0.239	0.207
-262.224	-61.288	0.261	0.138
-261.209	-73.056	-0.450	-0.207
-260.195	-89.640	-0.213	-0.078
-259.180	81.158	-0.219	0.298
-258.165	66.283	0.063	-0.081
-257.151	-127.160	-0.224	0.041
-256.136	-200.000	0.017	-0.189
-255.122	-98.986	-0.465	0.148
-254.107	-104.015	-0.690	-0.201
-253.092	-85.132	-0.236	0.092
-252.078	-156.760	0.448	0.034
-251.063	252.281	0.193	-0.416
-250.049	-107.691	-0.164	0.045
-249.034	797.767	0.093	0.323
-248.019	230.949	0.186	-0.385
-247.005	-141.856	-0.252	-0.031
-245.990	350.743	0.103	-0.257
-244.976	-120.865	0.193	0.041
-243.961	90.528	0.166	-0.234
-242.946	-200.000	-0.025	-0.160
-241.932	-110.953	-0.551	0.142
-240.917	-19.636	-0.249	0.194
-239.903	-31.295	0.499	-0.353
-238.888	-121.849	-0.434	0.089
-237.873	-58.154	-0.268	-0.147
-236.859	-168.191	-0.539	0.026
-235.844	-200.000	-0.015	-0.277
-234.830	800.000	0.067	-0.248
-233.815	-17.788	-0.215	0.169
-232.800	-66.368	-0.303	-0.151
-231.786	-77.829	-0.234	-0.101
-230.771	-200.000	-0.027	-0.553
-229.757	66.701	0.150	0.192
-228.742	197.458	-0.008	0.015
-227.727	106.094	-0.133	-0.198
-226.713	-125.364	0.427	-0.081
-225.698	-200.000	0.029	0.310
-224.684	486.854	0.106	0.307
-223.669	175.542	0.107	-0.196
-222.655	-200.000	0.019	0.253
-221.640	-148.646	0.588	0.060
-220.625	-69.348	-0.388	-0.186
-219.611	800.000	-0.086	0.326
-218.596	-75.699	-0.372	-0.165
-217.582	9.101	-0.234	-0.222
-216.567	17.467	-0.263	0.263
-215.552	-200.000	-0.059	0.332
-214.538	-200.000	0.023	-0.374
-213.523	110.666	-0.075	-0.114
-212.509	-149.121	0.094	0.009
-211.494	-103.269	0.358	0.106
-210.479	83.024	-0.015	-0.021
-209.465	-102.875	0.231	0.069
-208.450	221.039	-0.201	0.407
-207.436	-1.048	-0.347	0.309
-206.421	-137.325	-0.457	-0.065
-205.406	-30.228	0.371	-0.264
-204.392	-125.764	0.496	-0.093
-203.377	-119.567	0.170	-0.037
-202.363	-107.023	-0.118	0.033
-201.348	800.000	0.045	-0.178
-200.333	-122.074	0.179	-0.037
-199.319	-90.749	0.309	0.111
-198.304	-200.000	-0.054	-0.383
-197.290	26.282	0.390	-0.410
-196.275	-200.000	0.010	-0.252
-195.260	-106.149	0.110	0.031
-194.246	800.000	0.128	-0.452
-193.231	-129.772	-0.562	0.096
-192.217	276.508	0.096	0.215
-191.202	117.079	0.011	0.017
-190.187	-200.000	0.021	-0.209
-189.173	315.352	0.103	-0.246
-188.158	480.657	-0.192	0.551
-187.144	-91.163	0.403	0.144
-186.129	-200.000	-0.048	-0.361
-185.114	-132.723	0.368	0.059
-184.100	-87.385	0.410	0.155
-183.085	-200.000	0.008	-0.055
-182.071	234.276	-0.297	-0.616
-181.056	-82.519	-0.231	-0.094
-180.042	-79.067	0.354	-0.150
-179.027	-124.540	0.283	0.055
-178.012	237.135	0.147	-0.306
-176.998	117.083	0.096	0.148
-175.983	67.927	-0.113	0.145
-174.969	-175.828	0.153	-0.005
-173.954	-132.282	0.205	-0.033
-172.939	67.888	-0.292	-0.376
-171.925	-48.201	-0.422	0.255
-170.910	800.000	0.033	-0.149
-169.896	-173.546	0.511	0.019
-168.881	54.556	-0.455	-0.551
-167.866	-78.050	-0.186	-0.080
-166.852	433.216	-0.072	0.196
-165.837	-42.578	-0.273	-0.174
-164.823	800.000	0.077	0.383
-163.808	-94.529	-0.188	-0.064
-162.793	49.732	-0.137	0.162
-161.779	-95.844	-0.315	-0.105
-160.764	73.226	0.155	-0.204
-159.750	-70.219	-0.172	0.082
-158.735	17.675	-0.329	0.328
-157.720	35.348	-0.098	0.108
-156.706	-200.000	0.046	-0.270
-155.691	-113.285	0.249	0.061
-154.677	-13.504	-0.182	-0.148
-153.662	-175.743	0.199	0.007
-152.647	454.169	-0.090	0.251
-151.633	-37.698	-0.143	-0.095
-150.618	183.193	0.225	0.418
-149.604	204.916	0.201	0.392
-148.589	-200.000	-0.011	-0.307
-147.574	-81.215	-0.616	0.254
-146.560	-120.953	0.133	0.028
-145.545	-99.576	0.107	-0.033
-144.531	9.584	-0.468	0.444
-143.516	548.628	0.178	-0.539
-142.502	-74.299	0.135	-0.061
-141.487	39.585	0.072	-0.081
-140.472	456.657	-0.036	-0.100
-139.458	99.229	0.172	0.250
-138.443	3.585	-0.172	0.157
-137.429	95.588	0.239	0.342
-136.414	-4.158	0.279	0.242
-135.399	64.070	0.290	0.366
-134.385	50.225	-0.250	0.297
-133.370	198.974	-0.181	0.350
-132.356	-113.635	-0.342	-0.083
-131.341	-99.911	0.298	0.093
-130.326	-200.000	-0.024	0.135
-129.312	-65.171	-0.569	-0.286
-128.297	-68.166	-0.124	-0.060
-127.283	45.558	0.066	0.077
-126.268	-200.000	0.128	-0.845
-125.253	116.293	-0.294	-0.452
-124.239	-115.915	0.264	-0.061
-123.224	518.585	-0.049	0.145
-122.210	-22.916	0.200	0.151
-121.195	12.384	-0.160	-0.154
-120.180	30.911	0.127	0.136
-119.166	-200.000	-0.022	-0.184
-118.151	-200.000	-0.048	-0.298
-117.137	-45.168	0.563	-0.350
-116.122	800.000	0.081	-0.418
-115.107	-73.216	0.248	-0.113
-114.093	-200.000	0.013	-0.151
-113.078	3.819	-0.502	-0.459
-112.064	90.207	-0.411	-0.576
-111.049	481.463	0.065	-0.185
-110.034	176.081	-0.101	-0.184
-109.020	-38.181	-0.426	-0.282
-108.005	-200.000	-0.051	-0.609
-106.991	82.475	0.126	-0.171
-105.976	-200.000	-0.003	0.140
-104.962	95.732	-0.218	-0.312
-103.947	-41.012	-0.246	0.159
-102.932	71.550	0.194	0.252
-101.918	518.170	0.051	-0.151
-100.903	-73.645	-0.333	-0.151
-99.889	-116.212	0.153	-0.035
-98.874	108.306	-0.071	-0.107
-97.859	-139.272	-0.220	0.029
-96.845	-120.815	0.400	0.084
-95.830	-200.000	0.041	-0.503
-94.816	176.761	-0.216	-0.393
-93.801	-107.404	-0.272	0.074
-92.786	83.067	0.295	0.403
-91.772	-200.000	-0.005	-0.356
-90.757	-200.000	0.016	0.373
-89.743	377.691	0.173	0.445
-88.728	10.587	0.259	0.247
-87.713	465.353	-0.106	0.298
-86.699	-141.021	-0.204	-0.026
-85.684	-129.129	0.365	0.063
-84.670	105.398	0.156	0.231
-83.655	-200.000	-0.074	-0.420
-82.640	40.929	0.260	0.294
-81.626	275.982	0.020	0.045
-80.611	324.916	-0.107	-0.257
-79.597	304.171	0.124	-0.289
-78.582	-200.000	-0.018	-0.113
-77.567	-27.371	0.375	-0.272
-76.553	-74.531	-0.144	-0.065
-75.538	800.000	-0.067	0.349
-74.524	-109.782	-0.253	-0.066
-73.509	157.501	-0.105	0.181
-72.494	283.696	-0.035	0.079
-71.480	0.490	-0.281	-0.251
-70.465	-54.737	0.223	0.125
-69.451	-167.460	-0.064	0.003
-68.436	110.174	-0.137	0.206
-67.422	-200.000	0.043	-0.617
-66.407	-200.000	0.031	-0.200
-65.392	-165.684	-0.327	-0.017
-64.378	-200.000	-0.005	-0.131
-63.363	-26.442	-0.485	-0.355
-62.349	-149.538	-0.464	-0.045
-61.334	7.331	-1.828	-1.706
-60.319	-11.655	1.183	0.970
-59.305	315.856	-2.877	-6.814
-58.290	44.869	3.448	3.969
-57.276	383.079	4.102	10.594
-56.261	-200.000	16.067	252.623
-55.246	446.180	1199.043	3310.257
-54.232	63.079	2818.694	3531.329
-53.217	72.263	2708.790	3530.031
-52.203	62.730	2441.802	3054.199
-51.188	35.986	2096.377	2305.918
-50.173	33.082	1974.089	2138.349
-49.159	30.772	1963.383	2100.509
-48.144	30.323	1959.113	2090.770
-47.130	30.199	1957.101	2087.144
-46.115	30.206	1954.797	2084.678
-45.100	30.180	1952.809	2082.184
-44.086	30.164	1951.203	2080.207
-43.071	30.156	1949.511	2078.235
-42.057	30.137	1948.031	2076.353
-41.042	30.025	1948.251	2075.251
-40.027	30.093	1945.870	2073.393
-39.013	30.143	1944.185	2072.080
-37.998	30.160	1942.462	2070.351
-36.984	30.154	1941.487	2069.165
-35.969	30.192	1939.909	2067.821
-34.954	29.978	1939.520	2064.931
-33.940	30.009	1938.430	2064.030
-32.925	29.999	1936.736	2062.038
-31.911	29.951	1935.914	2060.537
-30.896	30.015	1933.273	2058.359
-29.881	29.917	1933.259	2057.170
-28.867	29.941	1931.942	2055.956
-27.852	29.955	1930.775	2054.793
-26.838	30.006	1928.658	2053.018
-25.823	29.952	1927.877	2051.502
-24.809	29.747	1927.219	2048.440
-23.794	29.833	1924.695	2046.637
-22.779	29.867	1923.116	2045.255
-21.765	29.816	1922.207	2043.640
-20.750	29.878	1920.402	2042.328
-19.736	29.898	1919.659	2041.679
-18.721	29.752	1919.378	2039.674
-17.706	29.857	1917.418	2038.680
-16.692	29.854	1916.471	2037.559
-15.677	29.815	1915.524	2036.038
-14.663	29.747	1913.895	2033.476
-13.648	29.800	1912.418	2032.404
-12.633	29.666	1910.985	2029.328
-11.619	29.732	1908.706	2027.553
-10.604	29.767	1908.038	2027.154
-9.590	29.713	1907.633	2026.038
-8.575	29.730	1906.501	2024.953
-7.560	29.764	1905.244	2023.902
-6.546	29.672	1904.309	2021.827
-5.531	29.695	1903.346	2020.970
-4.517	29.741	1902.022	2019.986
-3.502	29.547	1901.870	2017.621
-2.487	29.726	1899.864	2017.368
-1.473	29.860	1896.912	2015.623
-0.458	29.968	1877.322	1995.903
0.556	26.909	2017.489	2096.913
1.571	26.287	2231.688	2311.274
2.586	27.624	2277.012	2375.446
3.600	27.586	2280.316	2378.121
4.615	27.784	2279.310	2379.371
5.629	27.655	2277.448	2375.452
6.644	27.624	2275.053	2372.264
7.659	27.701	2273.689	2371.573
8.673	27.804	2271.902	2370.762
9.688	27.171	2277.626	2368.174
10.702	24.805	2351.755	2412.916
11.717	22.429	2417.126	2446.541
12.731	11.666	2387.807	2267.298
13.746	1.947	2362.032	2108.011
14.761	0.464	2357.195	2082.867
15.775	0.273	2354.782	2077.833
16.790	0.301	2353.221	2076.597
17.804	0.295	2352.096	2075.270
18.819	0.271	2351.912	2074.536
19.834	0.233	2350.394	2072.422
20.848	0.238	2347.209	2069.437
21.863	0.300	2345.828	2068.829
22.877	0.310	2344.011	2067.107
23.892	0.295	2340.653	2063.693
24.907	0.229	2339.369	2061.412
25.921	0.134	2337.593	2058.288
26.936	0.245	2335.340	2057.580
27.950	0.220	2333.091	2055.012
28.965	0.261	2330.537	2053.079
29.980	0.220	2330.326	2052.086
30.994	0.333	2327.365	2050.775
32.009	5.569	2346.069	2139.058
33.023	19.559	2389.050	2372.479
34.038	26.988	2405.203	2491.111
35.053	28.327	2405.787	2509.873
36.067	28.606	2403.785	2511.331
37.082	28.416	2401.574	2506.100
38.096	28.376	2400.265	2503.897
39.111	28.717	2399.401	2507.365
40.126	28.955	2398.393	2509.274
41.140	29.412	2398.351	2515.198
42.155	28.865	2392.948	2501.754
43.169	28.558	2390.285	2494.473
44.184	28.895	2389.169	2497.619
45.199	28.747	2386.858	2492.887
46.213	28.614	2385.234	2489.067
47.228	28.483	2383.312	2484.980
48.242	28.405	2380.727	2480.932
49.257	28.526	2379.455	2480.956
50.271	28.747	2378.116	2482.268
51.286	28.876	2377.063	2482.616
52.301	28.684	2373.739	2476.246
53.315	27.734	2368.868	2458.012
54.330	25.724	2361.265	2422.667
55.344	24.435	2354.754	2398.303
56.359	24.441	2350.493	2393.752
57.374	24.042	2348.576	2386.132
58.388	23.928	2346.643	2382.354
59.403	24.230	2344.512	2383.965
60.417	24.709	2343.355	2388.945
61.432	24.940	2340.506	2388.845
62.447	24.761	2338.970	2384.599
63.461	24.666	2336.731	2380.751
64.476	24.586	2334.689	2377.320
65.490	25.138	2335.609	2385.356
66.505	26.009	2337.370	2398.509
67.520	27.083	2340.084	2415.370
68.534	27.460	2339.387	2419.405
69.549	27.738	2335.691	2418.995
70.563	27.991	2334.986	2421.348
71.578	27.986	2331.856	2417.750
72.593	28.255	2330.123	2419.231
73.607	28.558	2331.349	2424.237
74.622	28.776	2329.406	2424.824
75.636	28.383	2326.044	2415.829
76.651	28.365	2323.557	2412.717
77.666	28.408	2321.929	2411.304
78.680	28.554	2319.337	2410.256
79.695	28.692	2318.414	2410.830
80.709	28.853	2318.135	2412.374
81.724	29.166	2316.353	2414.357
82.739	29.130	2313.908	2411.045
83.753	28.906	2311.739	2405.544
84.768	28.854	2309.973	2402.736
85.782	28.657	2308.787	2398.632
86.797	28.747	2306.354	2396.994
87.812	28.512	2304.100	2391.292
88.826	28.377	2300.705	2385.717
89.841	28.664	2300.333	2388.793
90.855	29.152	2299.734	2394.267
91.870	28.674	2296.908	2384.799
92.884	28.450	2295.060	2379.672
93.899	28.769	2294.334	2382.799
94.914	28.007	2291.783	2369.934
95.928	26.013	2285.042	2336.734
96.943	25.253	2281.521	2322.972
97.957	26.693	2285.199	2345.188
98.972	28.064	2284.185	2361.688
99.987	28.025	2280.990	2357.598
101.001	27.929	2279.306	2354.329
102.016	28.095	2277.764	2354.598
103.030	28.386	2276.450	2356.717
104.045	28.546	2274.561	2356.557
105.060	29.006	2273.354	2360.955
106.074	28.883	2270.314	2355.933
107.089	28.277	2267.235	2344.652
108.103	28.509	2267.861	2348.010
109.118	28.798	2266.970	2350.522
110.133	28.728	2265.595	2347.917
111.147	28.986	2263.765	2349.044
112.162	29.001	2261.560	2346.673
113.176	28.625	2257.075	2336.925
114.191	28.278	2256.404	2331.515
115.206	28.294	2254.362	2329.332
116.220	28.204	2252.054	2325.507
117.235	28.030	2249.604	2320.491
118.249	28.042	2246.885	2317.559
119.264	28.313	2246.851	2320.701
120.279	28.733	2244.647	2323.480
121.293	28.434	2242.635	2317.328
122.308	28.230	2240.803	2312.560
123.322	28.240	2238.515	2310.056
124.337	27.267	2235.782	2294.627
125.352	25.825	2230.715	2270.887
126.366	25.813	2229.728	2269.466
127.381	27.052	2230.364	2285.525
128.395	27.716	2230.633	2293.912
129.410	28.422	2229.075	2300.959
130.424	28.637	2226.977	2301.223
131.439	28.256	2225.860	2294.996
132.454	28.225	2223.654	2292.057
133.468	28.423	2221.638	2292.192
134.483	28.280	2219.595	2288.013
135.497	28.009	2217.542	2282.225
136.512	28.331	2216.204	2284.609
137.527	28.510	2214.348	2284.664
138.541	28.468	2213.355	2282.838
139.556	28.200	2211.661	2277.470
140.570	28.156	2210.687	2275.648
141.585	28.392	2208.307	2275.872
142.600	28.621	2208.026	2278.164
143.614	28.499	2205.700	2273.971
144.629	28.800	2204.996	2276.724
145.643	28.414	2202.487	2269.054
146.658	28.289	2200.578	2265.268
147.673	28.360	2198.668	2263.906
148.687	28.642	2198.262	2266.715
149.702	28.615	2197.040	2264.855
150.716	28.451	2195.296	2260.754
151.731	28.769	2195.132	2264.256
152.746	28.947	2194.748	2265.796
153.760	27.913	2189.689	2247.511
154.775	25.830	2181.676	2213.324
155.789	24.777	2179.031	2197.386
156.804	26.167	2180.682	2215.951
157.819	27.419	2180.933	2231.370
158.833	28.056	2179.070	2237.034
159.848	28.528	2178.883	2242.380
160.862	29.004	2178.542	2247.600
161.877	29.227	2177.609	2249.105
162.892	29.215	2176.144	2247.178
163.906	29.271	2175.027	2246.440
164.921	29.251	2172.687	2243.516
165.935	29.058	2170.453	2238.581
166.950	28.841	2168.531	2233.676
167.964	28.502	2164.210	2224.833
168.979	28.115	2163.140	2218.747
169.994	28.539	2163.276	2223.789
171.008	28.864	2160.381	2224.503
172.023	28.558	2158.692	2218.777
173.037	28.626	2157.518	2218.129
174.052	28.416	2155.750	2213.496
175.067	28.091	2153.497	2206.970
176.081	28.083	2151.549	2204.614
177.096	28.096	2151.056	2204.001
178.110	28.014	2148.104	2199.719
179.125	27.922	2147.140	2197.360
180.140	28.356	2146.027	2201.199
181.154	28.223	2144.576	2197.841
182.169	27.893	2142.431	2191.411
183.183	27.105	2138.919	2178.061
184.198	25.359	2132.945	2150.721
185.213	24.863	2131.785	2143.325
186.227	26.994	2135.480	2172.446
187.242	27.784	2136.037	2182.242
188.256	28.119	2134.852	2184.801
189.271	28.839	2135.403	2193.743
190.286	28.993	2133.423	2193.288
191.300	28.478	2128.876	2182.198
192.315	28.126	2127.705	2176.519
193.329	28.487	2127.041	2179.898
194.344	28.908	2126.638	2184.248
195.359	28.954	2125.868	2183.753
196.373	29.147	2125.579	2185.497
197.388	29.237	2122.482	2183.115
198.402	28.773	2118.831	2173.589
199.417	28.567	2116.036	2168.016
200.432	28.708	2114.227	2167.576
201.446	28.852	2114.009	2168.795
202.461	28.817	2112.912	2167.001
203.475	28.476	2110.316	2160.042
204.490	28.416	2107.390	2156.071
205.504	28.598	2104.659	2155.177
206.519	28.273	2102.524	2148.893
207.534	28.444	2101.723	2149.839
208.548	28.482	2100.343	2148.613
209.563	28.200	2098.025	2142.664
210.577	27.795	2097.253	2136.862
211.592	28.354	2095.685	2141.572
212.607	27.293	2091.378	2124.471
213.621	24.686	2083.783	2085.963
214.636	24.710	2082.843	2085.062
215.650	26.945	2088.708	2116.910
216.665	27.953	2088.921	2128.692
217.680	28.394	2087.978	2132.636
218.694	28.661	2086.364	2133.856
219.709	28.632	2085.091	2131.958
220.723	28.739	2084.343	2132.178
221.738	28.905	2082.447	2131.929
222.753	28.712	2079.851	2126.769
223.767	28.658	2077.941	2123.932
224.782	28.222	2075.029	2115.632
225.796	28.187	2074.124	2114.047
226.811	28.530	2073.269	2116.904
227.826	28.994	2071.872	2120.609
228.840	29.112	2071.373	2121.202
229.855	28.913	2069.297	2116.521
230.869	28.820	2067.822	2113.681
231.884	28.677	2066.067	2109.985
232.899	28.455	2063.120	2104.170
233.913	28.372	2062.329	2102.152
234.928	28.515	2061.518	2102.714
235.942	28.570	2060.162	2101.716
236.957	28.621	2058.426	2100.282
237.972	28.631	2057.975	2099.683
238.986	28.769	2057.227	2100.260
240.001	28.537	2053.840	2093.885
241.015	28.015	2051.661	2085.425
242.030	27.714	2050.148	2080.196
243.045	26.102	2045.445	2056.724
244.059	25.565	2043.318	2048.192
245.074	27.658	2043.750	2072.321
246.088	28.101	2042.676	2076.039
247.103	28.145	2041.829	2075.427
248.117	28.500	2040.816	2078.190
249.132	28.605	2039.601	2077.899
250.147	28.476	2036.858	2073.396
251.161	28.109	2034.964	2067.051
252.176	28.382	2033.937	2068.853
253.190	28.065	2030.738	2061.765
254.205	27.413	2027.954	2051.313
255.220	27.529	2026.857	2051.264
256.234	27.758	2025.774	2052.514
257.249	27.764	2024.736	2051.283
258.263	27.765	2023.125	2049.415
259.278	27.351	2021.850	2043.214
260.293	27.369	2020.058	2041.354
261.307	27.975	2019.340	2047.209
262.322	28.329	2019.466	2051.086
263.336	28.001	2017.022	2044.671
264.351	28.051	2014.020	2041.940
265.366	28.217	2013.859	2043.394
266.380	28.163	2012.746	2041.413
267.395	27.857	2009.883	2034.842
268.409	27.920	2009.828	2035.247
269.424	28.539	2009.798	2041.902
270.439	28.742	2009.038	2043.152
271.453	28.066	2003.605	2029.847
272.468	25.613	1996.290	1994.888
273.482	25.057	1994.811	1986.978
274.497	26.891	1998.041	2010.403
275.512	28.029	1997.770	2022.554
276.526	28.398	1995.811	2024.426
277.541	28.300	1994.731	2022.005
278.555	28.240	1992.223	2018.550
279.570	27.824	1989.628	2011.077
280.585	27.751	1988.269	2008.650
281.599	28.134	1988.035	2012.410
282.614	28.297	1985.905	2011.818
283.628	27.847	1983.653	2004.332
284.643	27.691	1983.943	2002.664
285.657	27.834	1982.196	2002.236
286.672	27.825	1979.816	1999.490
287.687	27.254	1978.275	1991.407
288.701	27.092	1975.672	1986.774
289.716	27.056	1974.137	1984.596
290.730	27.006	1972.279	1981.940
291.745	27.259	1970.369	1982.557
292.760	27.224	1970.063	1981.624
293.774	27.398	1970.839	1984.079
294.789	28.078	1971.746	1992.209
295.803	28.598	1968.780	1994.652
296.818	28.334	1967.420	1990.157
297.833	28.504	1966.271	1990.608
298.847	28.510	1965.972	1990.132
299.862	28.643	1963.839	1989.179
300.876	27.911	1959.421	1976.517
301.891	25.809	1953.364	1947.355
302.906	25.402	1953.492	1942.816
303.920	27.791	1957.827	1972.889
304.935	28.600	1955.711	1979.295
305.949	28.472	1953.631	1975.568
306.964	28.855	1953.027	1978.872
307.979	28.772	1950.523	1975.195
308.993	27.762	1946.578	1960.065
310.008	27.106	1943.712	1949.876
311.022	27.293	1943.304	1951.243
312.037	27.732	1941.740	1954.175
313.052	27.266	1939.206	1946.371
314.066	26.330	1935.885	1932.756
315.081	25.978	1934.229	1927.087
316.095	25.806	1931.078	1921.878
317.110	25.704	1931.592	1921.066
318.125	26.326	1931.132	1927.045
319.139	27.101	1931.021	1934.999
320.154	27.780	1930.440	1941.448
321.168	27.571	1929.452	1937.991
322.183	28.021	1928.883	1941.990
323.197	28.438	1928.591	1945.918
324.212	28.288	1927.026	1942.511
325.227	28.225	1925.209	1939.774
326.241	28.387	1923.431	1939.477
327.256	28.479	1922.370	1939.146
328.270	28.343	1921.112	1936.207
329.285	28.347	1920.869	1935.767
330.300	27.900	1918.581	1928.489
331.314	25.468	1911.632	1895.522
332.329	25.076	1910.431	1889.953
333.343	27.309	1913.202	1916.139
334.358	28.542	1913.584	1929.337
335.373	28.787	1913.032	1931.131
336.387	28.926	1910.514	1929.832
337.402	28.810	1908.399	1926.236
338.416	28.472	1907.328	1921.369
339.431	28.462	1906.699	1920.394
340.446	28.988	1905.519	1924.515
341.460	28.888	1902.222	1919.901
342.475	28.477	1899.737	1912.856
343.489	27.791	1897.378	1903.062
344.504	27.367	1895.228	1896.238
345.519	27.108	1892.751	1890.829
346.533	26.771	1889.745	1884.083
347.548	26.784	1889.125	1883.372
348.562	27.092	1888.628	1885.865
349.577	27.227	1887.883	1886.301
350.592	27.070	1886.385	1882.944
351.606	27.240	1884.280	1882.384
352.621	27.032	1882.760	1878.475
353.635	27.163	1882.507	1879.361
354.650	27.452	1881.351	1880.984
355.665	27.703	1880.396	1882.411
356.679	27.883	1879.756	1883.408
357.694	28.195	1878.953	1885.611
358.708	28.346	1879.292	1887.288
359.723	27.955	1874.720	1878.429
360.738	25.690	1868.787	1848.907
361.752	25.840	1869.689	1851.129
362.767	27.908	1872.059	1874.605
363.781	28.581	1870.045	1879.303
364.796	28.599	1870.115	1879.335
365.810	28.588	1868.700	1877.574
366.825	28.537	1867.912	1876.026
367.840	28.597	1866.677	1875.179
368.854	28.661	1866.065	1874.999
369.869	28.486	1864.805	1871.714
370.883	28.359	1862.019	1867.390
371.898	27.687	1858.866	1857.129
372.913	27.428	1856.373	1851.772
373.927	27.372	1856.224	1850.826
374.942	27.573	1854.030	1850.472
375.956	27.729	1852.597	1850.405
376.971	27.353	1849.914	1843.682
377.986	26.887	1846.859	1835.673
379.000	27.123	1847.344	1838.339
380.015	28.124	1848.237	1849.188
381.029	28.819	1847.363	1855.147
382.044	28.969	1846.153	1855.232
383.059	28.846	1844.341	1851.939
384.073	28.425	1841.863	1844.968
385.088	27.966	1840.691	1838.935
386.102	28.053	1838.653	1837.554
387.117	27.938	1836.748	1834.268
388.132	28.023	1837.171	1835.333
389.146	27.533	1835.334	1828.337
390.161	25.292	1829.159	1799.409
391.175	25.377	1826.527	1797.464
392.190	27.350	1827.580	1818.116
393.205	27.866	1827.124	1822.628
394.219	28.122	1826.623	1824.472
395.234	28.087	1825.060	1822.347
396.248	27.982	1823.169	1819.191
397.263	27.967	1821.233	1816.888
398.278	27.769	1818.606	1812.074
399.292	27.706	1817.764	1810.397
400.307	28.256	1819.249	1817.144
401.321	28.420	1817.399	1816.707
402.336	27.401	1813.101	1802.064
403.350	26.469	1809.732	1789.245
404.365	27.013	1809.529	1794.234
405.380	27.091	1807.617	1792.890
406.394	26.349	1805.001	1782.728
407.409	26.141	1803.722	1779.195
408.423	25.999	1801.895	1775.773
409.438	26.049	1800.610	1774.789
410.453	26.112	1800.509	1775.104
411.467	27.226	1801.962	1787.339
412.482	28.061	1801.008	1794.414
413.496	28.218	1800.741	1795.478
414.511	28.244	1798.911	1793.697
415.526	28.064	1796.150	1788.965
416.540	28.421	1795.195	1791.303
417.555	28.234	1793.624	1787.687
418.569	27.792	1794.247	1783.752
419.584	28.009	1794.040	1785.462
420.599	27.833	1793.009	1782.494
421.613	27.746	1791.396	1779.831
422.628	27.906	1790.320	1780.113
423.642	28.370	1789.740	1783.866
424.657	28.251	1787.855	1780.608
425.672	27.600	1784.486	1770.690
426.686	28.044	1784.797	1775.117
427.701	28.212	1782.494	1774.252
428.715	27.787	1781.249	1768.660
429.730	28.080	1780.201	1770.259
430.745	28.411	1779.944	1773.017
431.759	28.198	1778.376	1769.171
432.774	27.413	1774.741	1757.726
433.788	25.826	1770.186	1737.633
434.803	24.817	1768.634	1726.122
435.818	24.909	1767.098	1725.309
436.832	24.756	1766.357	1722.899
437.847	23.746	1758.315	1705.106
438.861	14.106	1730.660	1586.096
439.876	2.695	1709.915	1458.294
440.890	0.505	1705.688	1433.617
441.905	0.166	1704.413	1429.143
442.920	0.437	1702.025	1429.545
443.934	0.301	1700.606	1426.896
444.949	0.193	1700.068	1425.238
445.963	0.216	1699.445	1424.767
446.978	0.174	1698.447	1423.360
447.993	0.196	1696.893	1422.100
449.007	0.261	1694.250	1420.333
450.022	0.320	1691.788	1418.650
451.036	0.334	1690.952	1417.917
452.051	0.759	1695.621	1425.687
453.066	9.710	1718.152	1530.142
454.080	21.316	1736.934	1657.999
455.095	24.591	1743.194	1695.063
456.109	25.824	1745.905	1709.264
457.124	26.083	1745.072	1710.718
458.139	25.992	1743.608	1708.205
459.153	25.931	1742.231	1706.071
460.168	25.867	1740.569	1703.637
461.182	25.891	1739.336	1702.456
462.197	26.017	1737.438	1701.586
463.212	26.261	1735.924	1702.207
464.226	26.361	1734.961	1702.012
465.241	26.210	1734.116	1699.550
466.255	26.285	1732.129	1698.104
467.270	26.174	1731.115	1695.858
468.285	26.304	1730.561	1696.339
469.299	26.562	1729.022	1697.064
470.314	26.483	1727.374	1694.497
471.328	26.339	1725.689	1691.284
472.343	26.317	1725.234	1690.432
473.358	26.321	1723.514	1688.580
474.372	26.164	1722.085	1685.509
475.387	26.290	1720.584	1685.017
476.401	26.132	1719.419	1682.195
477.416	25.898	1717.309	1677.738
478.430	25.911	1716.204	1676.584
479.445	26.070	1715.608	1677.284
480.460	26.272	1714.716	1678.097
481.474	26.263	1713.831	1676.944
482.489	26.185	1712.108	1674.333
483.503	26.023	1708.997	1669.581
484.518	25.848	1707.906	1666.690
485.533	25.851	1706.890	1665.522
486.547	25.756	1704.267	1661.885
487.562	25.374	1703.332	1657.236
488.576	25.659	1701.570	1657.961
489.591	25.802	1700.998	1658.524
490.606	25.950	1700.158	1658.877
491.620	26.135	1698.898	1659.165
492.635	25.964	1696.534	1655.073
493.649	25.632	1694.675	1650.005
494.664	25.810	1695.190	1651.950
495.679	26.179	1694.295	1654.282
496.693	26.331	1692.252	1653.480
497.708	26.323	1690.892	1651.885
498.722	26.000	1689.619	1647.472
499.737	26.063	1689.032	1647.284
500.752	26.077	1688.037	1646.248
501.766	26.398	1686.582	1647.573
502.781	26.394	1684.571	1645.375
503.795	26.448	1682.752	1643.890
504.810	26.387	1681.592	1642.001
505.825	26.137	1680.478	1638.440
506.839	26.102	1680.003	1637.458
507.854	26.079	1678.233	1635.334
508.868	26.113	1676.092	1633.361
509.883	25.826	1674.924	1629.418
510.898	25.577	1673.784	1625.850
511.912	25.588	1671.625	1623.660
512.927	25.705	1669.657	1622.615
513.941	25.677	1669.252	1621.769
514.956	25.957	1668.329	1623.216
515.971	26.078	1666.444	1622.283
516.985	25.854	1665.680	1619.313
518.000	25.757	1663.738	1616.361
519.014	25.447	1662.643	1612.310
520.029	25.316	1661.345	1609.671
521.043	25.402	1659.489	1608.459
522.058	25.576	1659.182	1609.537
523.073	25.493	1657.838	1607.292
524.087	25.404	1655.982	1604.498
525.102	25.498	1655.645	1604.825
526.116	25.868	1655.769	1608.072
527.131	26.090	1654.587	1608.724
528.146	25.987	1652.449	1605.532
529.160	25.774	1650.996	1602.023
530.175	25.818	1650.208	1601.455
531.189	25.774	1649.458	1600.149
532.204	25.722	1647.434	1597.525
533.219	25.820	1646.719	1597.518
534.233	25.953	1646.320	1598.124
535.248	25.811	1644.193	1594.600
536.262	25.302	1642.351	1588.098
537.277	25.439	1641.380	1588.187
538.292	25.643	1640.130	1588.598
539.306	25.557	1638.298	1585.878
540.321	25.302	1636.352	1581.545
541.335	25.060	1635.160	1578.055
542.350	25.310	1634.511	1579.451
543.365	25.525	1632.464	1579.184
544.379	25.485	1631.225	1577.445
545.394	25.352	1630.177	1575.071
546.408	25.463	1629.300	1575.014
547.423	26.038	1629.345	1579.931
548.438	26.136	1628.318	1579.607
549.452	25.939	1626.334	1575.766
550.467	25.631	1625.221	1571.792
551.481	25.891	1623.683	1572.398
552.496	25.716	1622.306	1569.346
553.511	25.453	1620.699	1565.298
554.525	25.412	1619.868	1563.953
555.540	25.394	1619.011	1562.775
556.554	25.389	1618.127	1561.690
557.569	25.341	1616.592	1559.607
558.583	25.604	1615.029	1560.205
559.598	25.589	1613.498	1558.406
560.613	25.444	1612.570	1556.059
561.627	25.340	1610.581	1553.052
562.642	25.104	1608.810	1549.108
563.656	24.857	1607.099	1545.135
564.671	24.596	1606.180	1541.802
565.686	24.879	1603.837	1541.822
566.700	25.163	1603.131	1543.416
567.715	25.165	1602.005	1542.160
568.729	25.071	1601.561	1540.739
569.744	25.461	1600.391	1542.790
570.759	25.365	1599.165	1540.599
571.773	25.317	1597.600	1538.495
572.788	24.968	1596.007	1533.769
573.802	25.194	1593.548	1533.164
574.817	24.765	1592.796	1528.574
575.832	24.540	1591.540	1525.255
576.846	24.750	1591.015	1526.371
577.861	25.158	1590.597	1529.285
578.875	25.159	1589.633	1528.182
579.890	25.082	1587.703	1525.492
580.905	25.154	1586.841	1525.089
581.919	25.056	1586.145	1523.401
582.934	25.111	1584.721	1522.319
583.948	24.830	1583.618	1518.685
584.963	24.952	1582.161	1518.141
585.978	25.095	1580.776	1517.852
586.992	24.946	1579.893	1515.557
588.007	24.589	1579.228	1511.701
589.021	24.691	1578.007	1511.217
590.036	24.754	1576.052	1509.698
591.051	24.709	1574.761	1507.901
592.065	24.577	1573.129	1505.042
593.080	24.648	1571.437	1503.843
594.094	24.838	1570.350	1504.224
595.109	25.120	1569.994	1506.089
596.123	25.635	1568.668	1508.977
597.138	25.433	1567.634	1506.096
598.153	24.999	1566.144	1500.832
599.167	25.079	1564.783	1500.019
600.182	25.088	1563.033	1498.244
601.196	24.884	1562.687	1496.015
602.211	24.947	1561.284	1495.023
603.226	24.843	1559.579	1492.338
604.240	24.725	1557.715	1489.391
605.255	24.709	1556.304	1487.726
606.269	24.729	1555.984	1487.410
607.284	25.035	1554.333	1488.208
608.299	24.845	1553.599	1485.742
609.313	24.996	1552.047	1485.337
610.328	24.845	1550.946	1482.850
611.342	24.817	1549.934	1481.473
612.357	24.454	1548.990	1477.379
613.372	24.551	1546.773	1475.889
614.386	24.656	1545.267	1475.149
615.401	24.460	1544.919	1473.011
616.415	24.263	1544.027	1470.351
617.430	24.109	1542.979	1467.901
618.445	24.000	1541.012	1464.950
619.459	24.159	1540.112	1465.235
620.474	24.433	1540.055	1467.268
621.488	24.818	1540.496	1470.702
622.503	24.966	1539.689	1470.972
623.518	24.522	1536.853	1464.431
624.532	24.137	1534.770	1459.095
625.547	24.012	1533.613	1456.796
626.561	23.853	1531.281	1453.102
627.576	23.609	1530.561	1450.237
628.591	24.084	1530.456	1453.867
629.605	24.500	1529.836	1456.516
630.620	24.692	1528.465	1456.611
631.634	24.968	1527.986	1458.240
632.649	24.945	1526.984	1456.918
633.663	24.639	1524.517	1451.893
634.678	23.827	1522.513	1443.183
635.693	23.578	1520.497	1439.074
636.707	23.724	1518.033	1437.754
637.722	23.489	1517.603	1435.262
638.736	23.723	1516.976	1436.401
639.751	24.063	1515.915	1437.986
640.766	24.132	1515.220	1437.717
641.780	24.015	1514.482	1435.889
642.795	24.161	1513.905	1436.359
643.809	24.323	1513.067	1436.706
644.824	24.231	1512.254	1435.013
645.839	24.478	1511.358	1435.987
646.853	24.416	1509.527	1433.578
647.868	24.424	1508.327	1432.329
648.882	24.427	1507.462	1431.358
649.897	24.456	1506.347	1430.365
650.912	24.353	1503.710	1426.861
651.926	24.186	1502.642	1424.335
652.941	24.216	1501.465	1423.289
653.955	24.239	1500.809	1422.683
654.970	24.309	1499.061	1421.417
655.985	24.160	1497.891	1418.947
656.999	23.974	1496.600	1416.062
658.014	23.866	1494.931	1413.452
659.028	23.814	1493.710	1411.709
660.043	24.036	1493.602	1413.214
661.058	24.282	1491.814	1413.311
662.072	24.069	1491.169	1410.833
663.087	24.046	1490.402	1409.757
664.101	24.208	1489.238	1409.782
665.116	24.377	1487.444	1409.252
666.131	24.147	1486.784	1406.633
667.145	24.310	1485.579	1406.616
668.160	24.072	1484.476	1403.522
669.174	23.754	1482.708	1399.166
670.189	23.691	1482.119	1397.943
671.204	24.207	1481.389	1401.160
672.218	24.170	1480.286	1399.665
673.233	24.075	1478.399	1396.957
674.247	23.867	1476.147	1393.025
675.262	23.724	1475.251	1390.888
676.276	23.536	1475.043	1389.050
677.291	23.840	1474.671	1390.922
678.306	24.148	1473.609	1392.173
679.320	24.203	1472.264	1391.164
680.335	23.783	1470.827	1386.352
681.349	23.718	1470.096	1384.989
682.364	23.804	1468.534	1384.023
683.379	23.666	1466.990	1381.324
684.393	23.675	1465.295	1379.629
685.408	23.476	1464.848	1377.495
686.422	23.555	1463.512	1376.684
687.437	23.434	1462.410	1374.541
688.452	23.055	1462.048	1371.081
689.466	23.117	1460.215	1369.685
690.481	23.252	1459.009	1369.435
691.495	23.485	1459.101	1371.171
692.510	24.100	1459.192	1375.871
693.525	24.598	1457.826	1378.280
694.539	24.168	1455.591	1372.672
695.554	23.481	1454.012	1365.706
696.568	23.039	1452.957	1361.131
697.583	23.060	1451.327	1359.600
698.598	23.128	1450.055	1358.772
699.612	22.994	1449.462	1357.022
700.627	23.098	1448.514	1356.769
701.641	23.448	1447.287	1358.157
702.656	23.533	1446.048	1357.488
703.671	23.405	1445.653	1355.966
704.685	23.291	1445.372	1354.666
705.700	23.485	1443.285	1354.035
706.714	23.692	1442.603	1354.821
707.729	23.680	1441.514	1353.543
708.744	23.596	1440.322	1351.621
709.758	23.591	1438.398	1349.611
710.773	23.464	1437.901	1348.013
711.787	23.494	1436.862	1347.107
712.802	23.624	1435.094	1346.281
713.816	23.569	1433.984	1344.659
714.831	23.607	1433.718	1344.542
715.846	23.441	1432.422	1341.900
716.860	23.320	1430.537	1339.053
717.875	23.526	1429.487	1339.476
718.889	23.646	1428.274	1339.091
719.904	23.518	1427.290	1337.038
720.919	23.437	1425.300	1334.397
721.933	23.452	1424.703	1333.790
722.948	23.325	1423.823	1331.850
723.962	23.188	1422.833	1329.729
724.977	23.319	1421.338	1329.165
725.992	23.023	1420.700	1326.172
727.006	23.236	1419.695	1326.686
728.021	23.115	1417.867	1323.905
729.035	23.102	1416.584	1322.452
730.050	23.236	1415.804	1322.574
731.065	23.252	1415.161	1321.929
732.079	23.136	1413.521	1319.374
733.094	23.269	1412.763	1319.506
734.108	23.476	1411.465	1319.684
735.123	23.374	1409.778	1317.183
736.138	23.296	1408.992	1315.713
737.152	23.262	1408.121	1314.482
738.167	22.962	1406.328	1310.421
739.181	22.960	1405.898	1309.845
740.196	22.986	1404.908	1308.964
741.211	22.958	1403.883	1307.643
742.225	22.934	1403.136	1306.607
743.240	22.931	1401.246	1304.671
744.254	22.920	1399.335	1302.656
745.269	22.597	1399.102	1299.888
746.284	22.661	1398.328	1299.489
747.298	22.805	1397.637	1299.752
748.313	23.019	1396.938	1300.531
749.327	23.457	1396.749	1303.434
750.342	23.889	1397.112	1306.810
751.356	24.375	1396.656	1309.819
752.371	24.099	1394.461	1305.567
753.386	23.261	1392.437	1297.351
754.400	22.980	1390.448	1293.272
755.415	23.100	1388.574	1292.256
756.429	23.005	1387.857	1290.738
757.444	23.070	1386.874	1290.147
758.459	23.109	1385.842	1289.312
759.473	22.668	1384.884	1285.041
760.488	22.880	1383.351	1285.015
761.502	22.831	1381.922	1283.178
762.517	22.811	1381.376	1282.370
763.532	23.036	1380.644	1283.182
764.546	23.021	1379.419	1281.776
765.561	23.134	1378.841	1281.907
766.575	23.414	1377.897	1282.915
767.590	23.408	1377.192	1282.063
768.605	23.302	1375.081	1279.172
769.619	23.231	1373.498	1277.032
770.634	22.996	1372.554	1274.297
771.648	22.970	1370.788	1272.322
772.663	22.702	1369.893	1269.401
773.678	22.721	1369.596	1269.109
774.692	22.712	1369.038	1268.374
775.707	22.807	1368.535	1268.444
776.721	22.861	1367.239	1267.477
777.736	22.748	1366.202	1265.552
778.751	22.730	1365.152	1264.302
779.765	22.799	1363.974	1263.554
780.780	22.819	1363.242	1262.866
781.794	22.778	1362.736	1261.955
782.809	22.655	1361.657	1259.915
783.824	22.472	1360.545	1257.428
784.838	22.907	1359.360	1259.302
785.853	23.452	1359.194	1262.900
786.867	23.251	1358.484	1260.646
787.882	22.864	1357.345	1256.669
788.897	22.727	1355.448	1253.788
789.911	22.608	1354.332	1251.752
790.926	22.612	1352.879	1250.292
791.940	22.584	1351.260	1248.447
792.955	22.573	1350.088	1247.137
793.969	22.311	1349.517	1244.599
794.984	22.526	1348.906	1245.410
795.999	22.577	1347.070	1243.931
797.013	22.627	1345.429	1242.619
798.028	22.573	1344.372	1241.110
799.042	22.609	1343.984	1240.858
800.057	22.441	1343.170	1238.772
801.072	22.387	1341.910	1237.083
802.086	22.492	1340.351	1236.236
803.101	22.449	1339.338	1234.853
804.115	22.374	1338.446	1233.353
805.130	22.545	1337.308	1233.359
806.145	22.537	1336.004	1231.951
807.159	22.429	1334.446	1229.607
808.174	22.700	1333.891	1230.851
809.188	22.653	1333.143	1229.688
810.203	22.813	1331.537	1229.178
811.218	22.852	1330.300	1228.162
812.232	22.739	1329.514	1226.501
813.247	22.847	1328.365	1226.043
814.261	22.892	1327.568	1225.477
815.276	22.683	1326.415	1222.811
816.291	22.562	1324.311	1219.885
817.305	22.449	1323.390	1218.101
818.320	22.283	1322.313	1215.812
819.334	22.373	1321.724	1215.746
820.349	22.467	1320.175	1214.828
821.364	22.329	1318.313	1212.016
822.378	22.287	1317.336	1210.680
823.393	22.270	1315.528	1208.760
824.407	22.341	1314.248	1207.929
825.422	22.398	1313.285	1207.294
826.437	22.252	1312.794	1205.692
827.451	22.316	1310.982	1204.321
828.466	22.835	1311.063	1207.819
829.480	23.352	1309.331	1209.632
830.495	22.807	1308.034	1204.551
831.509	22.424	1306.389	1200.270
832.524	22.355	1305.123	1198.490
833.539	22.267	1303.942	1196.660
834.553	22.254	1302.396	1195.006
835.568	22.253	1301.453	1193.993
836.582	22.161	1300.700	1192.529
837.597	22.502	1298.683	1192.864
838.612	22.356	1297.664	1190.788
839.626	22.429	1297.106	1190.632
840.641	22.441	1296.841	1190.325
841.655	22.556	1296.277	1190.447
842.670	22.987	1295.319	1192.346
843.685	23.122	1294.022	1191.929
844.699	22.913	1292.486	1188.954
845.714	22.469	1290.962	1184.408
846.728	22.494	1289.870	1183.438
847.743	22.451	1288.789	1182.009
848.758	22.228	1288.058	1179.693
849.772	22.274	1285.922	1177.909
850.787	22.217	1284.054	1175.671
851.801	22.255	1282.796	1174.633
852.816	22.279	1281.953	1173.886
853.831	22.199	1280.650	1172.013
854.845	22.169	1279.263	1170.405
855.860	22.279	1277.706	1169.573
856.874	22.379	1276.705	1169.190
857.889	22.617	1275.807	1169.814
858.904	22.771	1275.482	1170.402
859.918	23.247	1274.391	1172.430
860.933	23.561	1272.718	1172.836
861.947	23.139	1271.529	1168.797
862.962	22.712	1269.975	1164.397
863.977	22.410	1268.816	1161.194
864.991	22.175	1268.398	1159.113
866.006	22.158	1267.878	1158.390
867.020	22.131	1265.981	1156.337
868.035	22.180	1264.248	1154.937
869.049	22.146	1264.455	1154.764
870.064	22.239	1263.132	1154.034
871.079	22.334	1261.686	1153.202
872.093	22.260	1261.594	1152.489
873.108	22.328	1260.658	1151.947
874.122	22.459	1259.444	1151.556
875.137	22.612	1259.360	1152.350
876.152	22.691	1258.562	1152.003
877.166	22.603	1256.436	1149.337
878.181	22.458	1255.165	1147.092
879.195	22.269	1254.027	1144.675
880.210	22.297	1253.161	1143.929
881.225	22.298	1252.203	1142.929
882.239	22.306	1250.864	1141.620
883.254	22.223	1250.185	1140.324
884.268	22.232	1249.522	1139.642
885.283	22.218	1248.060	1138.076
886.298	22.167	1246.336	1136.039
887.312	22.192	1245.647	1135.440
888.327	22.261	1244.445	1134.650
889.341	22.268	1242.836	1133.098
890.356	22.119	1242.513	1131.700
891.371	22.268	1242.137	1132.189
892.385	22.387	1241.514	1132.252
893.400	22.286	1241.136	1131.121
894.414	22.191	1240.018	1129.353
895.429	22.714	1238.795	1131.478
896.444	23.401	1237.863	1134.914
897.458	24.043	1237.329	1138.414
898.473	23.398	1236.440	1133.319
899.487	22.739	1235.016	1127.644
900.502	22.427	1233.356	1123.994
901.517	22.301	1231.549	1121.403
902.531	22.404	1230.002	1120.520
903.546	22.313	1229.168	1119.047
904.560	22.304	1228.765	1118.489
905.575	22.267	1228.420	1117.804
906.589	22.168	1227.373	1116.084
907.604	22.301	1226.645	1116.139
