DTS Sentinel unit serial number:	SN409020Multiplexer serial number:	ORYXHardware model number:	OX4-SRSoftware version number:	ORYX F/W v3.00 Oryx Data Collector v3.7.2.0data status	okinstallation	HaddamTimeLapsedifferential loss correction	single-endedforward channel	channel 3reverse channel	N/Adate	2011/06/21time	17:01:16forward acquisition time	30.00reverse acquisition time	0.00gamma	498.7831k internal	0.1787k external	0.1787temperature offset calibration	1.0074default loss term (dB/km)	0.3790temperature slope calibration	1.3530multiplexer offset coefficient	1.0000multiplexer slope coefficient	1.0000fibre end	0.00T internal ref (°C)	32.37T ext. ref 1 (°C)	27.68T ext. ref 2 (°C)	0.24length (m)	temperature (°C)	Stokes	anti-Stokes-747.200	-200.000	0.018	-0.275
-746.185	50.213	0.228	0.280
-745.171	-170.051	-0.149	-0.007
-744.156	147.849	0.068	-0.120
-743.142	-157.856	-0.310	-0.024
-742.127	85.181	-0.107	-0.153
-741.112	-155.112	-0.483	0.041
-740.098	-200.000	0.002	0.296
-739.083	-85.469	-0.124	0.050
-738.069	-200.000	-0.002	0.451
-737.054	-87.387	-0.344	0.135
-736.039	-14.419	-0.061	-0.051
-735.025	-39.583	-0.172	0.117
-734.010	-200.000	0.011	0.168
-732.996	8.166	0.328	0.320
-731.981	-96.292	-0.316	0.108
-730.966	138.040	-0.196	-0.336
-729.952	-60.703	-0.074	-0.041
-728.937	-200.000	0.012	-0.287
-727.923	43.469	0.251	0.299
-726.908	-137.043	-0.457	0.067
-725.894	602.436	0.116	-0.378
-724.879	51.594	-0.245	-0.303
-723.864	-28.081	-0.203	0.152
-722.850	-63.909	0.157	-0.083
-721.835	-56.168	-0.134	0.077
-720.821	70.459	0.078	-0.106
-719.806	238.944	-0.152	-0.329
-718.791	-148.793	0.240	0.025
-717.777	-3.567	-0.167	0.151
-716.762	-155.479	-0.369	0.031
-715.748	800.000	0.076	0.374
-714.733	197.296	0.051	0.101
-713.718	548.446	0.081	0.255
-712.704	-145.885	0.471	-0.054
-711.689	129.893	-0.196	0.326
-710.675	-39.558	0.075	-0.051
-709.660	-119.675	0.477	0.106
-708.645	230.500	-0.099	0.211
-707.631	7.101	-0.101	0.097
-706.616	-31.979	0.198	0.144
-705.602	383.336	0.097	0.260
-704.587	-123.866	-0.312	-0.063
-703.572	284.448	0.064	0.151
-702.558	-200.000	0.018	0.219
-701.543	382.162	-0.093	-0.248
-700.529	-115.341	-0.118	0.029
-699.514	-66.293	-0.428	0.220
-698.499	-176.392	-0.439	-0.015
-697.485	387.711	0.042	0.113
-696.470	454.716	-0.007	-0.021
-695.456	54.685	0.219	0.274
-694.441	-190.253	-0.103	0.001
-693.426	-127.647	0.143	-0.027
-692.412	64.194	-0.192	0.251
-691.397	562.540	0.021	-0.066
-690.383	313.856	-0.147	-0.360
-689.368	-96.507	-0.085	0.029
-688.354	-75.381	0.063	-0.029
-687.339	-110.695	-0.273	-0.073
-686.324	-200.000	0.033	0.284
-685.310	-164.853	0.548	0.031
-684.295	-106.859	0.220	-0.063
-683.281	-109.897	0.431	-0.116
-682.266	109.478	-0.084	-0.130
-681.251	23.347	0.556	-0.593
-680.237	175.050	0.199	0.376
-679.222	-183.517	-0.478	0.011
-678.208	-200.000	0.009	0.093
-677.193	-200.000	0.001	0.134
-676.178	319.739	-0.034	0.085
-675.164	-185.555	0.095	-0.002
-674.149	189.852	-0.312	0.610
-673.135	274.533	0.167	0.384
-672.120	-4.185	-0.176	0.158
-671.105	-124.856	0.235	0.047
-670.091	-199.409	0.479	-0.003
-669.076	-50.699	-0.337	-0.205
-668.062	-195.229	-0.117	0.001
-667.047	59.368	0.296	0.379
-666.032	50.974	0.062	0.077
-665.018	-12.483	-0.245	-0.207
-664.003	-43.738	0.068	-0.044
-662.989	-71.868	-0.496	0.239
-661.974	1.538	0.195	-0.182
-660.959	56.493	-0.194	-0.246
-659.945	-62.470	-0.257	-0.138
-658.930	-3.426	-0.573	0.517
-657.916	-98.996	-0.271	-0.088
-656.901	-148.178	-0.409	0.043
-655.886	-17.261	-0.309	-0.252
-654.872	-66.110	-0.294	0.152
-653.857	800.000	-0.049	-0.244
-652.843	-118.121	-0.172	-0.040
-651.828	-81.162	-0.179	0.076
-650.814	-123.218	-0.057	-0.012
-649.799	51.189	0.124	0.153
-648.784	164.526	0.095	-0.173
-647.770	800.000	-0.096	-0.352
-646.755	371.397	-0.179	-0.473
-645.741	67.859	0.165	-0.219
-644.726	-164.912	-0.256	0.015
-643.711	-197.400	0.203	0.002
-642.697	-41.950	0.354	0.235
-641.682	-144.013	-0.229	-0.028
-640.668	-200.000	-0.015	0.150
-639.653	800.000	0.070	-0.287
-638.638	-34.550	-0.411	-0.291
-637.624	-112.839	-0.352	0.090
-636.609	-65.857	-0.212	-0.110
-635.595	382.808	0.074	0.198
-634.580	800.000	0.084	0.380
-633.565	-36.297	0.503	0.351
-632.551	-80.709	-0.065	-0.028
-631.536	-43.412	0.357	-0.233
-630.522	183.163	-0.108	0.208
-629.507	15.181	-0.134	-0.136
-628.492	800.000	0.082	-0.414
-627.478	-125.116	-0.365	-0.072
-626.463	479.958	-0.116	-0.343
-625.449	-200.000	-0.001	0.292
-624.434	-119.451	-0.125	0.028
-623.419	-123.934	0.186	0.038
-622.405	9.846	0.232	0.228
-621.390	159.637	-0.114	-0.205
-620.376	-54.019	0.526	0.309
-619.361	-200.000	-0.041	0.290
-618.346	378.770	-0.218	0.581
-617.332	-55.447	0.112	-0.065
-616.317	-85.572	0.299	-0.120
-615.303	371.033	0.083	0.218
-614.288	-124.813	-0.116	-0.023
-613.273	-28.172	-0.178	0.133
-612.259	-71.445	-0.289	-0.139
-611.244	-73.602	-0.275	-0.129
-610.230	60.126	-0.344	-0.441
-609.215	-167.423	-0.176	0.009
-608.201	21.852	-0.153	0.161
-607.186	-127.341	0.323	-0.060
-606.171	362.004	0.094	0.244
-605.157	170.851	0.281	0.524
-604.142	-45.997	-0.150	0.096
-603.128	176.045	-0.163	0.306
-602.113	-55.481	0.275	-0.159
-601.098	-103.208	-0.534	0.162
-600.084	-200.000	0.016	0.308
-599.069	-200.000	-0.028	0.187
-598.055	176.175	0.362	-0.682
-597.040	-78.994	-0.346	0.151
-596.025	177.527	-0.148	0.280
-595.011	509.882	0.024	0.074
-593.996	694.858	0.099	-0.339
-592.982	-56.440	0.315	-0.180
-591.967	1.473	-0.112	-0.104
-590.952	-141.283	-0.377	-0.049
-589.938	-118.618	-0.580	0.131
-588.923	-135.897	0.128	-0.019
-587.909	-200.000	-0.040	0.396
-586.894	-68.394	-0.383	0.192
-585.879	153.151	-0.057	0.102
-584.865	-108.997	0.237	-0.065
-583.850	473.141	-0.054	-0.160
-582.836	-29.986	0.047	0.035
-581.821	-200.000	-0.011	0.185
-580.806	13.461	0.417	-0.418
-579.792	-60.512	0.289	-0.158
-578.777	502.423	0.249	-0.749
-577.763	-81.690	0.480	-0.203
-576.748	252.084	0.152	-0.337
-575.733	38.656	-0.161	-0.185
-574.719	29.130	0.292	-0.320
-573.704	-117.999	0.130	-0.030
-572.690	-28.261	0.092	0.068
-571.675	-110.782	0.572	0.151
-570.661	-132.666	0.389	0.064
-569.646	-106.064	0.324	-0.093
-568.631	-82.851	-0.277	-0.115
-567.617	-192.870	-0.242	0.003
-566.602	-44.847	-0.393	-0.252
-565.588	-13.835	-0.405	0.338
-564.573	565.693	-0.138	0.435
-563.558	-28.868	-0.299	0.222
-562.544	-65.978	-0.304	-0.156
-561.529	-83.680	-0.349	-0.143
-560.515	-200.000	0.002	0.081
-559.500	156.604	0.092	0.165
-558.485	-4.102	-0.699	-0.626
-557.471	92.064	-0.298	0.434
-556.456	-200.000	-0.006	0.072
-555.442	-9.393	-0.219	-0.189
-554.427	800.000	0.076	-0.276
-553.412	-123.987	-0.072	0.014
-552.398	-167.391	-0.183	0.009
-551.383	6.044	-0.040	-0.038
-550.369	-96.079	-0.387	-0.132
-549.354	-200.000	0.064	0.508
-548.339	-151.214	0.338	0.032
-547.325	-23.537	-0.213	0.165
-546.310	185.347	-0.304	-0.585
-545.296	800.000	0.100	-0.384
-544.281	-200.000	0.001	0.613
-543.266	-28.159	0.124	-0.092
-542.252	-30.881	-0.480	0.350
-541.237	-138.700	-0.468	0.065
-540.223	-200.000	0.068	0.439
-539.208	-104.589	0.063	-0.019
-538.193	-200.000	0.021	0.346
-537.179	164.852	0.122	-0.222
-536.164	-129.645	0.117	-0.021
-535.150	339.716	0.037	-0.093
-534.135	27.424	0.100	-0.108
-533.121	-105.580	0.155	-0.045
-532.106	-57.012	-0.181	-0.103
-531.091	-133.871	0.462	-0.073
-530.077	-11.120	0.155	0.132
-529.062	-54.839	-0.232	-0.135
-528.048	5.134	0.173	-0.164
-527.033	355.276	0.099	0.255
-526.018	800.000	-0.124	0.543
-525.004	8.722	0.180	0.175
-523.989	3.443	-0.384	-0.361
-522.975	226.821	-0.232	-0.489
-521.960	-200.000	0.024	0.454
-520.945	237.710	0.073	-0.156
-519.931	-42.851	0.208	0.136
-518.916	108.196	0.249	-0.383
-517.902	-87.380	-0.470	-0.183
-516.887	729.963	-0.178	0.616
-515.872	168.661	-0.221	-0.407
-514.858	-1.480	0.243	-0.221
-513.843	578.779	0.106	-0.335
-512.829	-123.704	-0.481	-0.097
-511.814	800.000	-0.081	-0.334
-510.799	-70.476	0.274	0.133
-509.785	-49.988	0.388	0.237
-508.770	-66.761	-0.227	-0.115
-507.756	0.068	0.299	-0.275
-506.741	-81.154	0.321	-0.136
-505.726	-93.632	0.159	-0.056
-504.712	-40.523	0.279	0.187
-503.697	-54.733	0.312	0.181
-502.683	8.934	0.302	0.294
-501.668	-8.371	0.105	0.091
-500.653	195.708	0.103	0.203
-499.639	-97.592	0.077	0.026
-498.624	-200.000	0.049	-0.285
-497.610	4.818	0.289	0.274
-496.595	-200.000	-0.001	0.648
-495.581	270.462	0.246	0.561
-494.566	466.886	0.161	0.467
-493.551	188.893	0.180	-0.349
-492.537	123.538	-0.125	-0.203
-491.522	-200.000	-0.008	0.431
-490.508	-200.000	-0.061	0.372
-489.493	361.726	-0.070	-0.182
-488.478	800.000	-0.045	0.248
-487.464	709.683	-0.126	-0.434
-486.449	306.104	0.180	-0.434
-485.435	-70.536	-0.244	-0.118
-484.420	-161.512	0.320	0.021
-483.405	-54.191	-0.095	0.056
-482.391	-149.364	-0.192	-0.019
-481.376	-200.000	0.007	-0.165
-480.362	-62.728	0.406	-0.216
-479.347	669.042	-0.005	0.015
-478.332	474.301	-0.040	-0.116
-477.318	800.000	-0.115	-0.539
-476.303	-117.025	-0.552	-0.129
-475.289	-134.365	-0.371	-0.058
-474.274	773.737	0.130	0.460
-473.259	-200.000	-0.019	-0.297
-472.245	-200.000	-0.010	0.186
-471.230	36.672	-0.417	-0.475
-470.216	-64.381	-0.313	-0.163
-469.201	-57.004	-0.264	0.150
-468.186	51.639	0.077	0.095
-467.172	24.697	0.178	-0.190
-466.157	51.483	0.222	-0.271
-465.143	-124.186	0.548	-0.110
-464.128	-82.590	0.506	0.210
-463.113	-110.738	-0.298	-0.079
-462.099	-75.720	0.346	0.158
-461.084	-68.597	0.223	0.111
-460.070	616.014	-0.103	-0.336
-459.055	-163.220	0.597	0.036
-458.040	157.072	0.149	0.266
-457.026	-20.639	0.360	-0.284
-456.011	800.000	0.074	-0.422
-454.997	124.627	0.124	0.201
-453.982	-148.094	0.345	0.036
-452.968	-136.596	0.333	0.049
-451.953	44.785	-0.457	-0.541
-450.938	4.535	-0.111	0.105
-449.924	-28.090	0.424	-0.315
-448.909	-51.452	-0.371	0.223
-447.895	32.870	0.128	0.142
-446.880	-68.613	-0.139	0.069
-445.865	-142.531	-0.061	-0.008
-444.851	-167.189	-0.076	0.004
-443.836	-39.126	-0.397	-0.268
-442.822	-47.737	-0.385	-0.239
-441.807	-200.000	0.021	-0.171
-440.792	800.000	-0.088	0.389
-439.778	100.301	-0.094	0.141
-438.763	305.978	0.133	0.319
-437.749	800.000	-0.092	0.368
-436.734	-200.000	-0.275	0.002
-435.719	252.599	-0.225	0.494
-434.705	-200.000	0.045	0.373
-433.690	-158.159	-0.301	0.022
-432.676	-85.636	-0.211	0.084
-431.661	-47.613	-0.091	0.056
-430.646	-64.028	0.223	-0.117
-429.632	23.037	-0.067	-0.071
-428.617	46.475	-0.197	-0.235
-427.603	-54.116	-0.324	-0.189
-426.588	-138.307	0.191	0.027
-425.573	-67.802	0.224	-0.112
-424.559	129.900	0.257	-0.424
-423.544	9.360	0.249	-0.242
-422.530	486.390	-0.024	-0.070
-421.515	-169.437	-0.292	-0.014
-420.500	-129.626	-0.359	0.063
-419.486	10.530	-0.109	0.107
-418.471	-144.889	0.459	0.053
-417.457	8.290	0.283	0.273
-416.442	-200.000	0.078	-0.581
-415.428	0.459	-0.345	-0.316
-414.413	-187.170	-0.468	0.008
-413.398	-186.675	0.113	-0.002
-412.384	92.085	0.108	0.157
-411.369	39.270	0.174	-0.200
-410.355	-177.739	-0.307	0.009
-409.340	-200.000	0.022	0.308
-408.325	51.498	0.219	0.268
-407.311	21.229	-0.120	-0.125
-406.296	-109.211	0.251	-0.068
-405.282	-89.667	0.422	0.158
-404.267	19.409	0.174	-0.180
-403.252	99.572	-0.141	0.210
-402.238	800.000	0.092	-0.367
-401.223	17.562	0.052	0.053
-400.209	169.198	-0.190	-0.350
-399.194	90.316	-0.278	-0.400
-398.179	800.000	-0.034	0.179
-397.165	26.521	-0.267	-0.286
-396.150	-200.000	-0.079	-0.517
-395.136	-68.739	0.116	0.058
-394.121	62.892	-0.201	0.259
-393.106	-200.000	-0.073	0.548
-392.092	800.000	-0.067	-0.339
-391.077	-13.103	0.352	0.293
-390.063	614.550	0.067	-0.218
-389.048	-31.726	-0.328	-0.236
-388.033	-12.741	0.210	-0.175
-387.019	800.000	-0.101	0.431
-386.004	303.548	0.157	0.374
-384.990	124.638	-0.177	-0.286
-383.975	-43.543	-0.283	-0.183
-382.960	-3.140	0.194	0.174
-381.946	293.081	-0.169	0.398
-380.931	139.244	0.022	-0.037
-379.917	-138.827	-0.273	-0.038
-378.902	67.272	0.219	0.287
-377.888	-115.688	0.266	-0.063
-376.873	-117.225	-0.316	0.073
-375.858	71.094	-0.347	0.462
-374.844	-18.349	0.177	0.142
-373.829	133.028	-0.239	-0.398
-372.815	160.604	0.229	-0.411
-371.800	583.074	0.075	-0.239
-370.785	95.278	0.109	0.159
-369.771	-92.407	-0.194	0.070
-368.756	-153.473	0.107	0.009
-367.742	-129.849	-0.226	0.039
-366.727	165.818	0.092	-0.167
-365.712	-200.000	0.069	0.432
-364.698	239.812	-0.234	-0.503
-363.683	-200.000	-0.005	-0.073
-362.669	18.151	0.292	0.299
-361.654	-200.000	0.027	0.192
-360.639	-110.228	0.322	0.085
-359.625	386.417	0.137	0.366
-358.610	0.930	0.240	-0.221
-357.596	70.355	0.274	-0.364
-356.581	-174.578	0.642	-0.023
-355.566	-200.000	0.048	0.297
-354.552	209.329	-0.145	0.291
-353.537	-58.567	0.229	0.127
-352.523	17.600	0.151	0.154
-351.508	-119.219	0.497	0.110
-350.493	-36.537	-0.499	0.344
-349.479	-10.177	-0.183	0.156
-348.464	800.000	-0.148	0.622
-347.450	562.934	-0.111	0.347
-346.435	426.470	-0.009	-0.025
-345.420	-17.307	-0.119	-0.096
-344.406	336.134	0.213	-0.531
-343.391	-56.200	0.455	0.259
-342.377	-112.575	0.051	-0.013
-341.362	800.000	0.098	-0.408
-340.348	74.058	0.119	-0.161
-339.333	-3.849	-0.323	0.287
-338.318	-140.365	-0.274	-0.036
-337.304	-85.837	0.222	0.088
-336.289	-200.000	0.013	-0.176
-335.275	-43.303	0.041	-0.026
-334.260	-149.120	-0.231	-0.023
-333.245	-88.763	0.225	-0.085
-332.231	800.000	0.151	-0.543
-331.216	-146.913	0.247	-0.027
-330.202	155.735	0.152	0.269
-329.187	33.873	0.505	-0.563
-328.172	-109.060	-0.114	-0.031
-327.158	34.480	0.303	0.339
-326.143	246.494	-0.054	0.118
-325.129	-52.337	0.317	-0.187
-324.114	-200.000	-0.026	-0.443
-323.099	-200.000	-0.023	0.388
-322.085	39.115	-0.435	-0.498
-321.070	-47.389	-0.261	-0.162
-320.056	783.463	-0.047	0.164
-319.041	-135.235	-0.626	-0.095
-318.026	-174.385	-0.378	-0.014
-317.012	-155.865	-0.485	-0.039
-315.997	-69.255	-0.489	0.240
-314.983	56.513	-0.055	0.068
-313.968	423.256	0.124	-0.343
-312.953	436.912	0.042	0.117
-311.939	-200.000	-0.017	-0.130
-310.924	-107.894	0.626	0.173
-309.910	-46.072	-0.397	-0.250
-308.895	-171.040	0.342	0.015
-307.880	147.064	0.023	0.040
-306.866	-62.970	0.284	-0.149
-305.851	-183.506	0.214	-0.005
-304.837	101.244	-0.167	-0.249
-303.822	-143.317	0.135	-0.016
-302.807	-133.955	-0.216	0.034
-301.793	800.000	0.045	-0.192
-300.778	-130.454	0.204	0.035
-299.764	214.131	0.189	0.385
-298.749	-200.000	0.047	-0.350
-297.735	800.000	-0.029	0.107
-296.720	559.818	0.128	0.398
-295.705	-200.000	-0.062	0.435
-294.691	11.764	-0.310	-0.304
-293.676	-167.244	-0.394	0.020
-292.662	-26.486	-0.188	0.141
-291.647	-87.642	0.074	0.028
-290.632	-130.273	0.594	0.102
-289.618	-132.425	0.260	-0.043
-288.603	-199.889	-0.099	0.001
-287.589	27.486	-0.127	-0.137
-286.574	18.037	-0.078	0.080
-285.559	197.170	-0.163	0.318
-284.545	144.054	0.195	0.333
-283.530	-120.145	-0.325	-0.071
-282.516	-147.593	-0.636	0.068
-281.501	178.249	0.107	0.201
-280.486	-142.505	0.376	-0.047
-279.472	800.000	-0.041	-0.154
-278.457	183.323	0.218	0.413
-277.443	254.646	0.266	0.585
-276.428	-47.253	0.251	0.156
-275.413	-69.565	0.312	0.152
-274.399	137.654	-0.138	0.232
-273.384	800.000	0.097	0.465
-272.370	-177.701	-0.180	-0.005
-271.355	57.509	0.078	-0.097
-270.340	100.138	0.088	-0.130
-269.326	300.024	0.189	-0.446
-268.311	446.790	-0.109	-0.307
-267.297	-135.291	0.284	0.043
-266.282	-200.000	0.031	0.581
-265.267	-71.409	0.245	-0.117
-264.253	-130.776	0.321	0.054
-263.238	-77.843	0.391	0.172
-262.224	-33.420	-0.448	-0.316
-261.209	-65.635	-0.167	0.085
-260.195	-17.706	-0.107	-0.086
-259.180	-164.800	0.550	0.031
-258.165	-120.840	-0.298	0.064
-257.151	-200.000	-0.071	0.444
-256.136	-126.877	-0.365	-0.068
-255.122	44.934	-0.156	0.183
-254.107	9.058	-0.252	-0.243
-253.092	-200.000	-0.061	-0.357
-252.078	-200.000	-0.011	0.259
-251.063	-77.709	0.103	0.045
-250.049	146.337	-0.234	0.403
-249.034	-162.588	0.138	0.009
-248.019	-102.504	-0.256	0.078
-247.005	-200.000	-0.094	-0.641
-245.990	800.000	0.036	0.169
-244.976	-128.194	0.395	0.071
-243.961	258.801	-0.031	0.069
-242.946	-113.276	0.095	0.024
-241.932	-35.872	0.238	0.164
-240.917	147.352	-0.096	-0.165
-239.903	-200.000	-0.020	-0.466
-238.888	-97.929	-0.298	-0.098
-237.873	-199.136	-0.290	0.002
-236.859	44.172	-0.490	0.573
-235.844	-47.486	0.311	-0.193
-234.830	-200.000	0.010	-0.424
-233.815	-54.489	-0.212	-0.122
-232.800	-200.000	0.013	0.206
-231.786	134.748	0.181	0.301
-230.771	-70.483	-0.168	-0.081
-229.757	36.034	0.447	0.503
-228.742	-77.113	0.203	-0.090
-227.727	800.000	-0.101	0.472
-226.713	-67.868	0.155	0.077
-225.698	83.345	0.151	-0.211
-224.684	-51.125	-0.503	0.300
-223.669	36.225	0.188	-0.211
-222.655	-92.956	0.531	-0.188
-221.640	-74.417	-0.018	-0.008
-220.625	31.076	-0.145	-0.158
-219.611	-200.000	0.015	0.129
-218.596	-117.311	0.325	0.075
-217.582	-107.982	-0.119	-0.033
-216.567	-31.640	-0.218	0.156
-215.552	121.453	0.294	0.467
-214.538	-200.000	-0.005	0.442
-213.523	800.000	0.132	0.615
-212.509	218.808	-0.233	-0.476
-211.494	800.000	0.170	-0.642
-210.479	-38.853	0.059	0.039
-209.465	15.271	0.193	0.193
-208.450	-15.731	0.285	0.232
-207.436	-200.000	-0.006	-0.037
-206.421	-91.195	-0.229	-0.083
-205.406	-200.000	0.056	-0.425
-204.392	636.153	0.060	-0.196
-203.377	148.648	-0.096	-0.165
-202.363	-192.585	-0.474	-0.005
-201.348	-132.043	-0.163	-0.027
-200.333	-200.000	0.004	-0.263
-199.319	-17.091	-0.152	-0.122
-198.304	-136.525	-0.300	-0.044
-197.290	-80.600	0.110	-0.046
-196.275	-200.000	0.034	-0.199
-195.260	-123.292	0.155	-0.031
-194.246	-73.269	0.323	-0.150
-193.231	-200.000	-0.020	-0.255
-192.217	5.264	-0.222	0.209
-191.202	-82.861	0.313	-0.128
-190.187	21.368	-0.090	0.093
-189.173	-99.142	0.081	0.026
-188.158	-36.474	-0.156	-0.107
-187.144	-200.000	-0.030	0.247
-186.129	-96.157	-0.228	-0.077
-185.114	258.411	-0.048	0.105
-184.100	-40.983	-0.215	-0.141
-183.085	-64.913	-0.499	-0.256
-182.071	-200.000	-0.040	0.230
-181.056	-69.507	0.228	0.111
-180.042	-130.674	-0.274	-0.046
-179.027	-200.000	0.054	0.333
-178.012	800.000	-0.082	-0.293
-176.998	-188.408	0.371	-0.006
-175.983	-61.033	0.411	-0.220
-174.969	-106.466	-0.216	-0.061
-173.954	-78.480	0.178	0.077
-172.939	273.189	0.170	-0.383
-171.925	-124.390	-0.050	-0.010
-170.910	289.651	0.162	-0.377
-169.896	-171.049	0.507	0.022
-168.881	800.000	-0.073	0.303
-167.866	500.780	-0.036	0.106
-166.852	-32.547	-0.192	-0.136
-165.837	-109.991	-0.465	-0.123
-164.823	91.490	-0.200	-0.286
-163.808	187.135	-0.055	-0.104
-162.793	-200.000	-0.010	0.205
-161.779	-190.392	0.338	0.005
-160.764	192.597	0.015	-0.028
-159.750	757.654	0.062	-0.216
-158.735	77.788	0.122	-0.165
-157.720	775.957	-0.116	-0.405
-156.706	-84.418	-0.449	0.179
-155.691	-7.831	-0.355	0.304
-154.677	102.091	-0.238	0.354
-153.662	-127.251	0.312	0.057
-152.647	-62.902	-0.044	0.023
-151.633	-121.168	-0.114	0.024
-150.618	800.000	0.040	-0.143
-149.604	-200.000	-0.106	0.633
-148.589	-200.000	0.008	-0.429
-147.574	-200.000	-0.000	-0.454
-146.560	-200.000	0.007	-0.506
-145.545	-168.293	-0.195	-0.009
-144.531	-34.299	-0.265	0.184
-143.516	-127.667	-0.343	0.063
-142.502	-18.439	0.258	-0.204
-141.487	454.524	0.107	-0.303
-140.472	0.723	0.540	-0.491
-139.458	74.728	0.436	0.585
-138.443	-124.765	0.132	0.026
-137.429	-200.000	0.003	-0.146
-136.414	-19.659	-0.112	0.088
-135.399	196.414	-0.103	-0.200
-134.385	90.940	-0.172	0.246
-133.370	-47.852	0.243	0.149
-132.356	-108.092	-0.360	0.098
-131.341	-130.459	0.013	-0.002
-130.326	-200.000	0.026	-0.364
-129.312	42.735	0.063	-0.073
-128.297	-200.000	-0.017	0.381
-127.283	-73.182	-0.306	0.142
-126.268	-130.682	0.071	-0.012
-125.253	-45.886	-0.316	0.198
-124.239	-71.920	-0.416	0.196
-123.224	-80.360	0.234	0.099
-122.210	49.014	0.244	0.291
-121.195	-63.466	0.248	-0.129
-120.180	-97.726	-0.399	0.131
-119.166	34.279	0.209	0.232
-118.151	-133.153	0.305	0.049
-117.137	-63.104	0.155	-0.081
-116.122	-7.023	-0.237	0.204
-115.107	260.815	0.173	0.382
-114.093	-127.791	0.345	0.063
-113.078	60.817	0.336	-0.423
-112.064	800.000	-0.061	0.265
-111.049	-77.856	0.300	0.131
-110.034	519.753	0.148	0.442
-109.020	-102.898	-0.489	0.147
-108.005	-200.000	0.035	0.287
-106.991	124.061	0.097	0.155
-105.976	-158.180	0.588	0.043
-104.962	761.056	0.041	-0.141
-103.947	78.933	-0.087	0.119
-102.932	20.137	0.162	-0.166
-101.918	603.971	-0.050	-0.157
-100.903	646.371	0.100	0.325
-99.889	638.827	0.156	0.507
-98.874	800.000	0.074	0.281
-97.859	-101.784	-0.014	-0.004
-96.845	737.497	0.195	-0.666
-95.830	27.722	-0.252	-0.270
-94.816	-171.266	-0.342	-0.014
-93.801	800.000	-0.129	-0.525
-92.786	151.492	0.178	0.308
-91.772	-63.421	-0.168	0.088
-90.757	26.283	0.199	0.210
-89.743	800.000	0.088	-0.319
-88.728	120.760	-0.205	-0.324
-87.713	-127.083	-0.302	0.056
-86.699	132.488	-0.140	-0.229
-85.684	138.958	-0.200	-0.334
-84.670	64.012	0.248	-0.316
-83.655	-128.442	0.485	-0.087
-82.640	-129.030	0.382	0.067
-81.626	40.528	0.190	-0.217
-80.611	-17.745	0.120	-0.095
-79.597	-99.495	0.415	-0.132
-78.582	-58.931	0.297	-0.162
-77.567	35.521	0.260	0.289
-76.553	-107.430	0.047	0.013
-75.538	-200.000	0.019	-0.317
-74.524	-45.286	0.421	0.264
-73.509	-131.250	0.120	0.020
-72.494	-160.073	0.486	0.033
-71.480	160.799	0.270	-0.479
-70.465	-100.901	0.366	0.113
-69.451	130.732	-0.163	0.266
-68.436	117.775	0.405	-0.634
-67.422	7.189	-0.110	-0.104
-66.407	800.000	-0.162	-0.619
-65.392	800.000	-0.092	-0.459
-64.378	61.495	-0.287	0.363
-63.363	-41.431	-0.387	0.252
-62.349	173.804	0.043	-0.080
-61.334	-30.012	-2.119	-1.526
-60.319	498.765	0.235	0.689
-59.305	374.188	-2.482	-6.435
-58.290	-0.657	3.460	3.108
-57.276	653.773	3.249	10.623
-56.261	-200.000	16.201	241.621
-55.246	418.360	1212.120	3299.922
-54.232	57.539	2843.879	3524.151
-53.217	64.922	2723.020	3487.239
-52.203	38.262	2452.016	2767.472
-51.188	38.394	2105.659	2378.069
-50.173	34.750	1979.088	2193.081
-49.159	33.186	1968.197	2162.963
-48.144	32.795	1963.924	2153.702
-47.130	32.766	1961.027	2150.099
-46.115	32.704	1959.724	2147.880
-45.100	32.743	1957.564	2145.869
-44.086	32.574	1957.523	2143.812
-43.071	32.555	1955.777	2141.602
-42.057	32.637	1954.126	2140.644
-41.042	32.602	1952.461	2138.334
-40.027	32.611	1950.904	2136.646
-39.013	32.572	1949.695	2134.795
-37.998	32.533	1948.162	2132.581
-36.984	32.479	1947.577	2131.247
-35.969	32.521	1945.692	2129.579
-34.954	32.508	1944.918	2128.491
-33.940	32.483	1943.787	2126.894
-32.925	32.609	1941.489	2125.715
-31.911	32.365	1941.435	2122.813
-30.896	32.438	1940.094	2122.081
-29.881	32.503	1937.897	2120.336
-28.867	32.417	1936.738	2118.004
-27.852	32.416	1935.394	2116.441
-26.838	32.421	1934.289	2115.211
-25.823	32.444	1932.741	2113.693
-24.809	32.277	1931.763	2110.656
-23.794	32.375	1929.273	2108.948
-22.779	32.355	1928.695	2108.010
-21.765	32.359	1926.807	2105.910
-20.750	32.453	1925.937	2105.932
-19.736	32.296	1925.451	2103.557
-18.721	32.420	1923.140	2102.335
-17.706	32.333	1923.044	2101.172
-16.692	32.373	1920.962	2099.264
-15.677	32.455	1920.024	2099.071
-14.663	32.211	1919.343	2095.512
-13.648	32.330	1917.343	2094.579
-12.633	32.326	1915.581	2092.524
-11.619	32.174	1915.234	2090.366
-10.604	32.248	1913.505	2089.222
-9.590	32.251	1912.558	2088.130
-8.575	32.300	1911.086	2086.993
-7.560	32.238	1909.833	2084.847
-6.546	32.269	1908.560	2083.725
-5.531	32.231	1907.819	2082.402
-4.517	32.201	1906.758	2080.834
-3.502	32.175	1905.767	2079.382
-2.487	32.203	1904.546	2078.270
-1.473	32.203	1901.484	2074.853
-0.458	32.502	1881.473	2056.215
0.556	29.267	2021.710	2158.553
1.571	28.189	2237.935	2375.075
2.586	29.583	2282.840	2440.970
3.600	29.605	2285.460	2443.773
4.615	29.504	2285.334	2442.004
5.629	29.687	2282.257	2440.855
6.644	29.791	2280.801	2440.386
7.659	29.702	2279.751	2437.787
8.673	29.748	2277.259	2435.436
9.688	29.342	2283.819	2436.772
10.702	27.652	2360.944	2495.532
11.717	24.637	2424.827	2520.083
12.731	12.286	2390.985	2310.905
13.746	1.929	2363.565	2138.693
14.761	0.417	2358.604	2112.665
15.775	0.190	2356.864	2107.668
16.790	0.241	2354.596	2106.105
17.804	0.159	2353.318	2103.550
18.819	0.079	2353.263	2102.131
19.834	0.149	2351.067	2100.893
20.848	0.142	2348.459	2098.212
21.863	0.192	2347.110	2097.461
22.877	0.149	2344.847	2094.581
23.892	0.142	2343.153	2092.723
24.907	0.110	2340.218	2089.404
25.921	0.186	2338.477	2088.666
26.936	0.099	2336.606	2085.530
27.950	0.112	2334.971	2084.004
28.965	0.071	2332.296	2080.791
29.980	0.195	2330.865	2080.990
30.994	0.289	2329.236	2080.597
32.009	6.681	2351.424	2189.512
33.023	22.016	2398.805	2450.064
34.038	30.292	2417.189	2584.972
35.053	31.852	2418.087	2607.464
36.067	31.606	2414.769	2600.132
37.082	31.257	2410.988	2590.882
38.096	31.299	2409.600	2589.673
39.111	31.571	2407.295	2590.668
40.126	31.410	2405.698	2586.399
41.140	31.635	2405.082	2588.556
42.155	31.409	2402.683	2582.531
43.169	31.303	2399.873	2577.722
44.184	31.539	2397.685	2578.337
45.199	31.616	2395.665	2576.922
46.213	31.400	2394.961	2572.876
47.228	31.434	2393.118	2571.044
48.242	31.489	2391.348	2569.608
49.257	31.640	2390.607	2570.584
50.271	31.940	2388.881	2572.547
51.286	32.178	2386.262	2572.702
52.301	31.838	2383.125	2564.332
53.315	30.811	2380.418	2547.010
54.330	29.347	2373.816	2519.550
55.344	28.328	2368.992	2500.160
56.359	28.466	2364.096	2496.581
57.374	28.278	2363.306	2492.870
58.388	28.188	2359.854	2487.701
59.403	28.082	2356.117	2482.017
60.417	28.115	2352.792	2478.675
61.432	28.244	2351.651	2478.923
62.447	28.188	2349.723	2475.839
63.461	28.122	2346.671	2471.425
64.476	28.092	2344.723	2468.672
65.490	28.398	2344.925	2472.745
66.505	28.913	2345.745	2480.296
67.520	29.723	2346.857	2492.153
68.534	30.449	2346.105	2500.883
69.549	30.732	2344.463	2502.665
70.563	30.946	2341.507	2502.100
71.578	31.138	2341.340	2504.213
72.593	31.680	2342.078	2512.015
73.607	32.227	2340.606	2517.493
74.622	32.065	2338.298	2512.538
75.636	31.650	2334.770	2502.867
76.651	31.578	2332.226	2498.879
77.666	31.700	2331.261	2499.180
78.680	31.632	2328.698	2495.220
79.695	31.654	2325.636	2491.939
80.709	31.263	2324.183	2484.847
81.724	31.377	2323.392	2485.237
82.739	31.918	2321.272	2489.884
83.753	32.057	2320.387	2490.497
84.768	31.916	2317.584	2485.313
85.782	31.753	2316.076	2481.233
86.797	31.663	2314.004	2477.520
87.812	31.385	2310.158	2469.403
88.826	31.294	2308.811	2466.469
89.841	31.805	2307.601	2471.656
90.855	32.190	2306.829	2475.625
91.870	31.485	2304.084	2463.059
92.884	31.401	2302.948	2460.445
93.899	31.908	2301.673	2465.487
94.914	31.111	2298.072	2450.807
95.928	28.974	2291.461	2415.294
96.943	28.305	2288.539	2403.106
97.957	30.367	2292.372	2434.054
98.972	31.762	2293.412	2453.245
99.987	31.280	2289.792	2442.737
101.001	31.155	2286.012	2436.776
102.016	31.340	2284.117	2436.893
103.030	31.402	2281.840	2434.986
104.045	31.659	2280.465	2436.583
105.060	32.155	2279.269	2441.495
106.074	32.162	2277.313	2439.207
107.089	31.621	2274.050	2428.359
108.103	31.375	2274.256	2425.080
109.118	31.750	2272.774	2428.097
110.133	31.754	2270.780	2425.734
111.147	31.693	2267.976	2421.646
112.162	31.869	2266.678	2422.260
113.176	31.823	2264.561	2419.115
114.191	31.591	2262.755	2413.885
115.206	31.464	2260.823	2409.897
116.220	31.711	2258.873	2410.726
117.235	31.474	2256.299	2404.620
118.249	31.282	2254.556	2400.002
119.264	31.626	2252.953	2402.443
120.279	31.512	2251.534	2399.169
121.293	31.374	2248.608	2393.986
122.308	31.063	2246.796	2387.778
123.322	30.722	2245.012	2381.203
124.337	29.998	2240.731	2367.085
125.352	29.018	2237.274	2350.576
126.366	29.106	2237.308	2351.459
127.381	30.408	2237.994	2368.602
128.395	31.141	2237.742	2377.439
129.410	31.479	2235.267	2378.844
130.424	31.399	2233.228	2375.372
131.439	31.384	2231.315	2372.857
132.454	31.208	2230.537	2369.509
133.468	31.695	2228.270	2373.022
134.483	31.480	2226.200	2367.794
135.497	31.379	2224.564	2364.487
136.512	31.641	2223.957	2366.891
137.527	31.762	2221.977	2366.036
138.541	31.601	2220.508	2362.144
139.556	31.576	2218.939	2359.879
140.570	31.506	2216.745	2356.375
141.585	31.514	2214.680	2353.996
142.600	31.584	2214.096	2353.983
143.614	31.712	2212.722	2353.853
144.629	32.066	2211.647	2356.897
145.643	31.642	2209.150	2348.605
146.658	31.448	2206.707	2343.289
147.673	31.171	2204.005	2336.657
148.687	31.430	2203.311	2338.891
149.702	31.536	2201.978	2338.534
150.716	31.603	2202.370	2339.511
151.731	32.132	2203.272	2346.830
152.746	32.496	2201.495	2349.222
153.760	31.352	2196.034	2328.797
154.775	29.087	2189.116	2292.864
155.789	28.450	2185.939	2281.289
156.804	29.842	2189.033	2301.676
157.819	31.200	2188.334	2317.625
158.833	31.530	2187.055	2320.111
159.848	31.983	2185.373	2323.684
160.862	32.214	2183.902	2324.712
161.877	32.249	2183.786	2324.744
162.892	32.457	2182.865	2326.077
163.906	32.426	2183.019	2325.570
164.921	32.395	2180.269	2321.981
165.935	32.354	2177.753	2318.510
166.950	32.010	2174.614	2310.635
167.964	31.679	2171.012	2302.447
168.979	31.387	2169.028	2296.455
169.994	31.588	2168.512	2298.120
171.008	31.655	2165.725	2295.714
172.023	31.441	2165.599	2292.672
173.037	31.706	2164.782	2294.799
174.052	31.688	2161.596	2290.928
175.067	31.540	2160.630	2287.805
176.081	31.480	2159.553	2285.656
177.096	31.516	2158.258	2284.447
178.110	31.409	2156.191	2280.683
179.125	31.291	2154.342	2276.999
180.140	31.396	2153.588	2277.224
181.154	31.500	2151.494	2276.009
182.169	31.312	2148.926	2270.725
183.183	30.532	2146.182	2258.030
184.198	29.049	2140.957	2234.178
185.213	28.861	2139.296	2229.892
186.227	30.462	2142.236	2252.208
187.242	30.887	2141.461	2256.306
188.256	30.861	2139.067	2253.193
189.271	31.366	2139.021	2259.019
190.286	31.641	2138.800	2261.846
191.300	31.422	2134.530	2254.416
192.315	31.144	2133.692	2249.890
193.329	31.703	2132.915	2255.565
194.344	32.006	2131.828	2257.810
195.359	31.775	2130.532	2253.379
196.373	32.049	2128.935	2254.733
197.388	32.121	2125.812	2252.014
198.402	31.659	2123.475	2243.717
199.417	31.697	2121.895	2242.230
200.432	31.778	2120.548	2241.514
201.446	31.836	2119.683	2241.033
202.461	31.773	2116.207	2236.328
203.475	31.357	2114.081	2228.830
204.490	31.169	2112.134	2224.253
205.504	31.366	2109.035	2223.081
206.519	31.187	2106.904	2218.435
207.534	31.511	2107.651	2222.824
208.548	31.964	2107.082	2227.371
209.563	31.443	2103.522	2217.124
210.577	31.587	2103.344	2218.393
211.592	32.193	2104.187	2226.237
212.607	31.204	2098.967	2208.694
213.621	28.291	2091.856	2166.359
214.636	28.290	2092.277	2166.528
215.650	30.754	2095.878	2199.301
216.665	31.987	2095.880	2213.670
217.680	32.227	2094.289	2214.576
218.694	32.231	2092.420	2212.382
219.709	31.674	2090.722	2203.725
220.723	31.765	2090.517	2204.332
221.738	32.300	2088.587	2208.350
222.753	32.335	2086.174	2205.945
223.767	32.016	2083.708	2199.309
224.782	31.420	2081.504	2189.711
225.796	31.563	2080.102	2189.650
226.811	32.003	2079.361	2193.789
227.826	32.086	2077.914	2192.969
228.840	32.020	2077.031	2191.002
229.855	31.816	2075.033	2186.245
230.869	31.415	2070.336	2176.335
231.884	31.048	2069.193	2170.580
232.899	31.408	2068.552	2173.855
233.913	31.793	2069.402	2178.990
234.928	31.944	2069.490	2180.590
235.942	31.990	2066.040	2177.232
236.957	31.593	2063.837	2170.027
237.972	31.594	2062.831	2168.720
238.986	31.455	2061.161	2165.085
240.001	31.096	2059.355	2158.752
241.015	30.789	2057.678	2153.163
242.030	30.796	2054.979	2150.163
243.045	29.568	2049.769	2130.229
244.059	29.086	2048.682	2123.262
245.074	30.691	2050.077	2143.053
246.088	31.049	2048.063	2144.829
247.103	31.128	2046.512	2143.859
248.117	31.336	2046.650	2146.154
249.132	31.658	2044.858	2147.733
250.147	31.469	2042.791	2143.118
251.161	31.060	2041.363	2136.662
252.176	31.332	2039.531	2137.615
253.190	31.265	2036.685	2133.602
254.205	31.290	2034.016	2130.845
255.220	31.539	2034.112	2133.543
256.234	31.431	2032.896	2130.778
257.249	31.346	2032.011	2128.621
258.263	31.449	2030.913	2128.396
259.278	31.605	2030.399	2129.387
260.293	31.706	2029.383	2129.213
261.307	31.593	2027.588	2125.792
262.322	31.615	2025.482	2123.578
263.336	31.039	2021.990	2113.104
264.351	31.001	2019.909	2110.244
265.366	31.515	2020.030	2115.959
266.380	31.828	2019.833	2119.060
267.395	31.459	2017.060	2111.713
268.409	31.523	2016.877	2111.994
269.424	31.905	2016.943	2116.143
270.439	32.105	2015.773	2116.931
271.453	31.477	2010.925	2104.486
272.468	29.139	2003.374	2069.946
273.482	28.454	2001.820	2060.356
274.497	30.511	2004.245	2085.848
275.512	31.776	2003.916	2099.506
276.526	31.824	2001.738	2097.512
277.541	31.683	1999.722	2093.568
278.555	31.277	1997.640	2086.579
279.570	31.000	1995.204	2080.682
280.585	31.007	1992.976	2078.183
281.599	31.365	1993.390	2082.381
282.614	31.680	1992.285	2084.497
283.628	31.621	1990.591	2081.821
284.643	30.573	1985.855	2064.926
285.657	28.859	1981.453	2040.993
286.672	28.098	1976.774	2027.450
287.687	27.678	1975.622	2021.344
288.701	28.320	1976.120	2028.765
289.716	28.048	1972.941	2022.233
290.730	26.903	1968.636	2004.872
291.745	27.513	1970.307	2013.113
292.760	28.571	1971.416	2025.753
293.774	29.697	1973.988	2040.651
294.789	31.260	1976.118	2059.955
295.803	31.790	1975.207	2064.632
296.818	31.455	1973.711	2059.117
297.833	31.451	1971.972	2057.016
298.847	31.607	1969.911	2056.335
299.862	31.533	1968.782	2054.094
300.876	30.906	1965.474	2043.494
301.891	29.403	1960.627	2021.666
302.906	28.839	1959.924	2014.488
303.920	30.548	1961.864	2035.066
304.935	31.562	1961.290	2045.374
305.949	31.714	1959.663	2045.104
306.964	32.028	1958.310	2046.890
307.979	31.046	1952.845	2030.194
308.993	27.781	1943.762	1984.881
310.008	26.136	1937.859	1960.671
311.022	26.119	1937.894	1960.290
312.037	26.727	1937.441	1966.225
313.052	26.683	1934.425	1962.447
314.066	26.022	1932.087	1952.654
315.081	25.964	1931.909	1951.611
316.095	26.171	1930.512	1952.211
317.110	26.294	1929.326	1952.113
318.125	26.495	1927.534	1952.251
319.139	26.471	1927.065	1951.285
320.154	26.724	1925.589	1952.295
321.168	26.864	1925.670	1953.659
322.183	28.432	1928.462	1973.233
323.197	30.964	1933.035	2005.102
324.212	31.704	1933.405	2013.247
325.227	31.552	1931.467	2009.349
326.241	31.585	1929.083	2006.976
327.256	31.803	1928.936	2008.936
328.270	31.851	1927.387	2007.597
329.285	32.036	1927.041	2008.985
330.300	31.222	1924.463	1997.311
331.314	28.828	1917.152	1963.811
332.329	28.610	1917.171	1961.249
333.343	30.818	1919.903	1987.533
334.358	32.057	1919.968	2000.644
335.373	32.311	1919.136	2002.254
336.387	32.328	1916.535	1999.484
337.402	32.110	1913.783	1994.042
338.416	31.902	1912.216	1989.961
339.431	31.860	1910.973	1987.979
340.446	31.500	1907.857	1980.663
341.460	29.052	1900.341	1946.632
342.475	27.372	1895.292	1923.405
343.489	26.893	1891.478	1914.223
344.504	26.621	1890.678	1910.297
345.519	26.801	1888.619	1909.898
346.533	26.548	1886.572	1904.929
347.548	26.319	1885.440	1901.132
348.562	26.395	1884.505	1900.763
349.577	26.435	1882.971	1899.413
350.592	26.460	1882.206	1898.681
351.606	26.592	1879.965	1897.580
352.621	26.192	1878.308	1891.468
353.635	26.087	1877.686	1889.511
354.650	26.951	1878.542	1899.241
355.665	29.207	1883.434	1927.716
356.679	30.657	1884.748	1944.076
357.694	31.041	1884.534	1947.659
358.708	31.437	1883.865	1950.886
359.723	30.745	1880.907	1940.335
360.738	28.836	1874.822	1913.867
361.752	28.747	1874.579	1912.456
362.767	30.620	1876.016	1933.289
363.781	31.503	1875.481	1941.727
364.796	31.845	1874.882	1944.437
365.810	31.631	1873.292	1940.328
366.825	30.291	1867.193	1919.854
367.840	27.522	1859.387	1882.885
368.854	25.940	1856.840	1863.656
369.869	25.970	1853.712	1860.602
370.883	26.254	1852.459	1862.064
371.898	26.387	1852.842	1863.603
372.913	26.501	1851.541	1863.248
373.927	26.197	1849.043	1857.372
374.942	26.005	1848.264	1854.387
375.956	26.586	1847.818	1859.715
376.971	26.540	1846.463	1857.650
377.986	26.268	1844.198	1852.351
379.000	26.459	1843.071	1852.963
380.015	26.540	1842.934	1853.436
381.029	28.572	1846.731	1877.963
382.044	31.139	1850.371	1907.865
383.059	31.660	1849.705	1912.294
384.073	31.381	1847.894	1907.339
385.088	31.626	1847.630	1909.345
386.102	31.841	1847.315	1911.000
387.117	32.067	1844.746	1910.420
388.132	32.148	1843.989	1910.239
389.146	31.362	1841.028	1898.913
390.161	29.046	1834.791	1868.652
391.175	28.663	1831.981	1861.662
392.190	30.268	1832.622	1878.446
393.205	31.257	1833.134	1888.798
394.219	31.504	1832.183	1890.109
395.234	31.421	1831.037	1887.858
396.248	31.561	1828.543	1886.474
397.263	31.378	1826.207	1881.990
398.278	31.249	1823.625	1877.798
399.292	30.859	1822.482	1872.458
400.307	29.769	1818.052	1856.690
401.321	27.667	1811.612	1828.732
402.336	26.634	1808.045	1814.512
403.350	26.617	1807.758	1813.838
404.365	27.398	1807.362	1821.072
405.380	27.351	1804.825	1817.835
406.394	26.457	1802.680	1806.487
407.409	26.131	1801.587	1801.904
408.423	26.276	1800.377	1801.926
409.438	26.071	1797.939	1797.219
410.453	25.897	1796.437	1793.766
411.467	26.084	1796.268	1795.249
412.482	26.669	1797.783	1802.406
413.496	29.334	1802.310	1833.398
414.511	31.134	1803.081	1851.939
415.526	31.329	1801.821	1852.366
416.540	31.487	1800.915	1852.785
417.555	31.497	1799.067	1850.765
418.569	30.667	1798.640	1841.851
419.584	30.908	1797.616	1842.975
420.599	30.866	1796.862	1841.564
421.613	30.688	1795.416	1838.098
422.628	30.811	1794.276	1837.925
423.642	31.372	1792.800	1841.757
424.657	30.946	1790.126	1834.571
425.672	30.323	1788.224	1826.247
426.686	30.723	1787.821	1829.575
427.701	30.713	1787.134	1828.544
428.715	30.985	1785.540	1829.381
429.730	31.120	1784.680	1829.611
430.745	31.762	1784.132	1835.154
431.759	31.511	1784.089	1832.419
432.774	30.958	1781.753	1824.366
433.788	29.110	1775.131	1799.234
434.803	27.572	1771.367	1780.118
435.818	27.423	1770.339	1777.402
436.832	27.342	1770.985	1777.045
437.847	26.400	1762.283	1758.901
438.861	16.272	1733.308	1631.864
439.876	3.514	1708.957	1485.840
440.890	0.537	1702.738	1451.508
441.905	0.315	1701.342	1448.006
442.920	0.171	1700.316	1445.567
443.934	0.145	1699.208	1444.201
444.949	0.233	1698.284	1444.087
445.963	0.201	1697.024	1442.540
446.978	0.114	1697.017	1441.522
447.993	0.166	1695.158	1440.272
449.007	0.186	1692.494	1438.032
450.022	0.185	1690.633	1436.263
451.036	0.214	1689.676	1435.556
452.051	1.624	1696.984	1455.157
453.066	13.105	1723.903	1589.687
454.080	25.432	1744.764	1728.722
455.095	27.993	1748.684	1757.184
456.109	28.158	1747.753	1757.634
457.124	28.336	1746.574	1757.951
458.139	28.303	1745.980	1756.828
459.153	28.463	1745.620	1757.799
460.168	28.751	1743.799	1758.520
461.182	28.841	1742.723	1758.091
462.197	29.106	1740.988	1758.677
463.212	29.332	1740.549	1760.196
464.226	29.492	1739.812	1760.767
465.241	29.432	1738.332	1758.489
466.255	29.280	1737.497	1755.973
467.270	29.359	1735.830	1754.839
468.285	29.768	1736.407	1759.126
469.299	30.226	1735.103	1761.961
470.314	30.098	1733.450	1758.856
471.328	30.191	1731.318	1757.365
472.343	30.168	1730.356	1755.957
473.358	30.022	1728.938	1752.924
474.372	29.843	1728.477	1750.547
475.387	30.256	1727.654	1753.429
476.401	30.137	1725.055	1749.450
477.416	29.649	1722.286	1741.812
478.430	29.359	1721.238	1737.790
479.445	29.862	1721.335	1742.443
480.460	30.314	1720.050	1745.209
481.474	30.208	1719.542	1743.483
482.489	29.895	1717.419	1738.173
483.503	29.478	1714.413	1730.991
484.518	29.408	1712.714	1728.410
485.533	29.448	1712.325	1728.184
486.547	29.271	1709.815	1723.784
487.562	28.596	1707.283	1714.680
488.576	28.994	1707.475	1718.404
489.591	29.333	1707.619	1721.529
490.606	29.568	1707.001	1722.901
491.620	29.728	1704.123	1721.290
492.635	29.369	1701.518	1715.095
493.649	29.006	1699.915	1709.891
494.664	29.233	1700.411	1712.304
495.679	29.995	1700.110	1718.905
496.693	30.072	1698.624	1717.917
497.708	30.081	1696.535	1715.679
498.722	29.492	1695.066	1708.517
499.737	29.560	1693.858	1707.719
500.752	29.629	1692.714	1707.004
501.766	29.827	1691.186	1707.097
502.781	29.833	1689.454	1705.204
503.795	30.016	1688.127	1705.352
504.810	30.007	1687.103	1704.030
505.825	29.678	1685.941	1699.609
506.839	29.413	1684.442	1695.447
507.854	29.368	1682.730	1693.108
508.868	29.330	1680.858	1690.671
509.883	29.125	1679.615	1687.327
510.898	28.983	1677.580	1683.775
511.912	28.854	1675.795	1680.597
512.927	28.637	1673.692	1676.298
513.941	28.662	1672.208	1674.844
514.956	28.520	1670.820	1671.943
515.971	28.286	1669.689	1668.474
516.985	28.342	1668.509	1667.602
518.000	28.369	1667.618	1666.759
519.014	28.399	1667.492	1666.713
520.029	28.495	1666.441	1666.339
521.043	28.700	1664.604	1666.172
522.058	28.865	1663.505	1666.380
523.073	28.806	1662.422	1664.553
524.087	29.079	1660.687	1665.100
525.102	28.932	1660.062	1662.935
526.116	29.184	1659.750	1664.720
527.131	29.481	1659.011	1666.469
528.146	29.456	1658.002	1665.028
529.160	29.402	1656.228	1662.560
530.175	29.402	1655.002	1661.136
531.189	29.384	1653.526	1659.289
532.204	29.422	1652.267	1658.173
533.219	29.510	1651.305	1657.804
534.233	29.632	1651.310	1658.709
535.248	29.369	1649.532	1654.356
536.262	28.802	1647.237	1646.746
537.277	29.010	1646.532	1647.719
538.292	29.238	1645.091	1648.126
539.306	29.199	1642.932	1645.415
540.321	28.879	1640.860	1640.276
541.335	28.530	1640.259	1636.353
542.350	28.757	1639.268	1637.197
543.365	29.137	1637.556	1638.693
544.379	29.256	1636.715	1638.722
545.394	29.119	1634.502	1635.087
546.408	29.029	1633.791	1633.372
547.423	29.474	1634.286	1637.644
548.438	30.030	1633.982	1642.101
549.452	29.940	1631.669	1638.783
550.467	29.299	1629.869	1631.080
551.481	29.333	1628.527	1629.841
552.496	29.212	1628.059	1628.097
553.511	29.076	1626.647	1625.289
554.525	29.164	1625.938	1625.166
555.540	29.123	1625.186	1623.852
556.554	29.388	1624.008	1624.833
557.569	29.188	1622.074	1620.931
558.583	29.042	1619.731	1617.108
559.598	29.051	1618.827	1616.094
560.613	29.078	1617.760	1615.076
561.627	29.001	1616.316	1612.759
562.642	28.840	1614.327	1609.164
563.656	28.823	1612.591	1607.087
564.671	28.747	1610.987	1604.629
565.686	28.725	1609.984	1603.249
566.700	28.666	1609.266	1601.821
567.715	28.765	1607.436	1600.675
568.729	28.437	1605.696	1595.885
569.744	28.259	1603.321	1591.778
570.759	28.327	1601.997	1590.870
571.773	28.429	1601.526	1591.099
572.788	28.496	1601.262	1591.227
573.802	28.558	1600.159	1590.479
574.817	28.758	1598.666	1590.554
575.832	28.870	1596.763	1589.439
576.846	28.851	1596.107	1588.433
577.861	28.949	1595.411	1588.397
578.875	28.913	1595.493	1587.977
579.890	29.211	1594.109	1588.998
580.905	29.090	1592.956	1586.609
581.919	29.200	1592.294	1586.713
582.934	29.336	1591.425	1586.832
583.948	29.120	1590.178	1583.534
584.963	29.028	1588.699	1581.076
585.978	29.128	1586.780	1579.837
586.992	28.910	1585.683	1576.673
588.007	28.803	1584.790	1574.679
589.021	28.404	1583.157	1569.433
590.036	27.943	1581.042	1563.181
591.051	28.205	1580.187	1564.408
592.065	28.534	1578.645	1565.515
593.080	28.671	1577.502	1565.369
594.094	28.891	1576.630	1566.201
595.109	28.951	1575.445	1565.349
596.123	29.371	1574.698	1568.007
597.138	29.527	1573.279	1567.735
598.153	29.180	1571.729	1563.045
599.167	29.034	1570.072	1559.971
600.182	28.987	1568.909	1558.224
601.196	29.067	1568.444	1558.261
602.211	29.166	1567.893	1558.365
603.226	29.108	1566.131	1555.938
604.240	29.263	1565.099	1556.039
605.255	29.272	1563.310	1554.148
606.269	29.192	1562.783	1552.762
607.284	29.118	1561.481	1550.660
608.299	29.151	1559.841	1549.125
609.313	29.137	1557.999	1546.988
610.328	28.968	1557.267	1544.652
611.342	28.925	1555.765	1542.611
612.357	29.109	1554.690	1542.913
613.372	29.130	1553.632	1541.857
614.386	28.974	1552.620	1539.359
615.401	29.046	1551.590	1538.755
616.415	29.065	1550.589	1537.739
617.430	29.047	1549.300	1536.120
618.445	28.884	1548.154	1533.440
619.459	28.854	1547.222	1532.074
620.474	28.713	1546.739	1530.234
621.488	28.635	1544.858	1527.537
622.503	28.535	1542.800	1524.486
623.518	28.616	1542.139	1524.330
624.532	28.749	1541.270	1524.398
625.547	28.792	1540.551	1523.857
626.561	28.961	1539.852	1524.398
627.576	28.932	1538.447	1522.581
628.591	28.753	1536.561	1519.043
629.605	28.660	1535.255	1516.797
630.620	28.550	1534.243	1514.702
631.634	28.586	1533.185	1513.774
632.649	28.623	1531.711	1512.443
633.663	28.640	1530.693	1511.404
634.678	28.744	1530.336	1511.723
635.693	28.877	1528.197	1510.528
636.707	28.898	1527.262	1509.599
637.722	28.938	1526.100	1508.599
638.736	29.057	1524.971	1508.283
639.751	29.067	1524.325	1507.551
640.766	28.990	1523.301	1505.720
641.780	29.171	1521.410	1505.161
642.795	29.143	1520.535	1503.880
643.809	29.062	1520.467	1502.970
644.824	29.157	1519.587	1502.702
645.839	29.253	1518.455	1502.186
646.853	29.317	1517.063	1501.153
647.868	29.250	1515.247	1498.634
648.882	28.988	1514.179	1495.257
649.897	28.882	1512.932	1492.975
650.912	29.015	1510.766	1491.746
651.926	29.017	1509.055	1489.893
652.941	28.756	1508.014	1486.569
653.955	28.400	1506.058	1481.570
654.970	27.933	1503.810	1475.388
655.985	27.954	1501.988	1473.593
656.999	27.922	1500.595	1471.789
658.014	28.044	1499.505	1471.533
659.028	28.341	1499.784	1474.031
660.043	28.593	1499.802	1475.916
661.058	28.772	1498.908	1476.306
662.072	28.940	1497.593	1476.189
663.087	28.792	1497.233	1474.465
664.101	28.851	1495.789	1473.338
665.116	29.092	1494.132	1473.468
666.131	28.890	1493.998	1471.532
667.145	29.002	1493.372	1471.642
668.160	29.147	1491.631	1470.916
669.174	29.342	1489.869	1470.568
670.189	29.187	1489.301	1468.590
671.204	29.213	1488.506	1467.836
672.218	29.079	1487.915	1466.004
673.233	29.247	1486.367	1465.647
674.247	29.354	1485.138	1465.115
675.262	29.216	1484.438	1463.145
676.276	29.201	1483.627	1462.053
677.291	29.239	1482.120	1460.699
678.306	29.334	1480.650	1459.828
679.320	29.125	1479.612	1456.965
680.335	29.094	1479.217	1456.158
681.349	29.351	1478.275	1457.099
682.364	29.312	1477.201	1455.556
683.379	29.196	1474.920	1452.213
684.393	28.967	1474.075	1449.392
685.408	29.097	1472.661	1448.859
686.422	29.127	1471.914	1448.189
687.437	28.937	1472.273	1446.865
688.452	28.952	1471.526	1446.077
689.466	29.012	1468.782	1443.684
690.481	28.902	1467.613	1441.494
691.495	28.863	1466.401	1439.819
692.510	28.685	1465.081	1436.952
693.525	28.785	1463.329	1435.846
694.539	28.698	1462.258	1433.942
695.554	28.769	1463.115	1435.169
696.568	28.968	1461.569	1435.042
697.583	29.044	1460.413	1434.329
698.598	29.220	1459.658	1434.794
699.612	29.106	1458.093	1432.193
700.627	29.161	1457.149	1431.525
701.641	29.237	1456.074	1430.888
702.656	29.226	1454.969	1429.547
703.671	29.298	1454.761	1429.730
704.685	29.380	1454.528	1429.974
705.700	29.292	1452.496	1427.122
706.714	29.228	1450.375	1424.364
707.729	28.991	1449.659	1421.652
708.744	28.802	1448.480	1418.861
709.758	28.731	1446.267	1415.971
710.773	28.326	1444.630	1411.064
711.787	28.075	1442.895	1407.261
712.802	28.419	1442.221	1409.094
713.816	28.570	1442.238	1410.104
714.831	28.906	1441.234	1411.546
715.846	29.129	1440.108	1411.997
716.860	29.190	1438.391	1410.610
717.875	28.926	1437.978	1408.006
718.889	29.066	1436.361	1407.332
719.904	29.010	1435.698	1406.082
720.919	29.034	1434.179	1404.614
721.933	29.077	1433.860	1404.464
722.948	28.996	1433.291	1403.115
723.962	28.953	1431.311	1400.680
724.977	29.161	1430.155	1400.974
725.992	29.174	1429.612	1400.370
727.006	29.410	1427.997	1400.424
728.021	29.394	1426.782	1398.940
729.035	29.289	1426.032	1397.242
730.050	29.263	1425.097	1395.961
731.065	29.284	1423.613	1394.493
732.079	29.310	1422.690	1393.621
733.094	29.341	1421.854	1392.872
734.108	29.504	1419.792	1391.918
735.123	29.472	1418.170	1389.925
736.138	29.298	1417.424	1387.707
737.152	29.255	1417.280	1387.074
738.167	29.186	1415.951	1385.089
739.181	29.275	1415.018	1384.683
740.196	29.497	1413.878	1385.077
741.211	29.342	1413.564	1383.436
742.225	29.334	1412.470	1382.132
743.240	29.208	1410.885	1379.470
744.254	29.272	1408.990	1377.931
745.269	29.340	1407.725	1377.045
746.284	29.082	1407.534	1374.753
747.298	29.051	1406.837	1373.675
748.313	28.945	1405.292	1371.210
749.327	28.841	1403.780	1368.795
750.342	28.798	1403.066	1367.611
751.356	28.724	1401.400	1365.273
752.371	28.678	1400.625	1364.009
753.386	28.922	1399.939	1364.993
754.400	29.061	1399.128	1365.078
755.415	29.202	1398.640	1365.488
756.429	29.386	1397.555	1365.638
757.444	29.315	1396.162	1363.580
758.459	29.440	1395.061	1363.277
759.473	29.378	1394.047	1361.660
760.488	29.237	1392.656	1359.097
761.502	29.230	1390.780	1357.046
762.517	29.086	1390.296	1355.350
763.532	29.266	1389.237	1355.484
764.546	28.898	1387.248	1350.667
765.561	28.419	1386.084	1345.835
766.575	27.976	1384.320	1340.698
767.590	27.857	1383.399	1338.762
768.605	28.476	1382.304	1342.105
769.619	28.872	1381.721	1344.286
770.634	28.979	1381.197	1344.401
771.648	29.195	1380.193	1344.849
772.663	29.162	1379.698	1343.964
773.678	29.234	1378.990	1343.642
774.692	29.474	1378.332	1344.598
775.707	29.440	1377.782	1343.647
776.721	29.448	1376.970	1342.755
777.736	29.393	1376.010	1341.254
778.751	29.339	1375.252	1339.962
779.765	29.441	1374.239	1339.557
780.780	29.414	1373.552	1338.535
781.794	29.338	1373.041	1337.318
782.809	29.220	1370.912	1334.231
783.824	29.158	1369.195	1331.945
784.838	29.063	1367.479	1329.428
785.853	28.786	1366.838	1326.633
786.867	28.855	1366.288	1326.442
787.882	29.025	1365.140	1326.400
788.897	29.124	1364.480	1326.320
789.911	29.016	1364.056	1324.968
790.926	28.968	1362.732	1323.177
791.940	29.266	1360.571	1323.066
792.955	29.178	1360.195	1321.913
793.969	29.114	1359.126	1320.255
794.984	29.194	1358.557	1320.114
795.999	29.393	1357.379	1320.245
797.013	29.513	1355.415	1319.039
798.028	29.248	1354.441	1316.029
799.042	29.256	1354.325	1315.822
800.057	29.527	1352.637	1315.966
801.072	29.449	1351.016	1313.670
802.086	29.444	1349.674	1312.171
803.101	29.318	1349.171	1310.629
804.115	29.359	1348.749	1310.355
805.130	29.430	1347.099	1309.102
806.145	29.383	1345.919	1307.459
807.159	29.259	1344.616	1305.154
808.174	29.273	1343.043	1303.571
809.188	29.154	1341.984	1301.545
810.203	29.068	1340.770	1299.603
811.218	28.836	1338.381	1295.484
812.232	28.534	1336.009	1290.896
813.247	28.204	1335.310	1287.736
814.261	28.561	1335.945	1290.717
815.276	29.083	1335.746	1294.060
816.291	29.098	1334.744	1293.042
817.305	29.041	1333.589	1291.366
818.320	29.207	1332.388	1291.218
819.334	29.399	1331.777	1291.821
820.349	29.310	1330.068	1289.383
821.364	29.495	1328.690	1289.192
822.378	29.452	1327.385	1287.472
823.393	29.456	1325.346	1285.366
824.407	29.365	1324.857	1284.105
825.422	29.299	1324.496	1283.137
826.437	29.275	1323.225	1281.585
827.451	29.208	1321.421	1279.217
828.466	28.776	1320.480	1275.143
829.480	28.851	1318.432	1273.533
830.495	28.892	1316.267	1271.572
831.509	28.982	1316.256	1272.034
832.524	29.117	1315.934	1272.508
833.539	29.171	1314.798	1271.632
834.553	29.238	1313.280	1270.476
835.568	29.313	1312.092	1269.694
836.582	29.353	1310.815	1268.582
837.597	29.403	1309.788	1267.783
838.612	29.314	1308.246	1265.526
839.626	29.178	1307.105	1263.332
840.641	29.035	1306.317	1261.433
841.655	28.811	1304.964	1258.438
842.670	28.418	1302.856	1253.551
843.685	27.949	1301.256	1248.643
844.699	28.316	1301.499	1251.245
845.714	28.978	1300.559	1254.734
846.728	29.118	1298.933	1253.972
847.743	29.006	1298.716	1252.848
848.758	29.034	1298.072	1252.270
849.772	29.263	1296.725	1252.380
850.787	29.255	1295.140	1250.647
851.801	29.362	1293.686	1249.821
852.816	29.229	1293.391	1248.481
853.831	29.241	1291.765	1246.846
854.845	29.234	1290.643	1245.564
855.860	29.058	1289.024	1242.659
856.874	29.038	1287.288	1240.702
857.889	29.096	1285.707	1239.417
858.904	29.068	1283.896	1237.338
859.918	28.765	1282.832	1234.121
860.933	28.627	1282.231	1232.460
861.947	28.711	1281.638	1232.308
862.962	29.014	1280.156	1232.776
863.977	29.009	1278.698	1231.194
864.991	28.986	1278.684	1230.880
866.006	28.975	1278.928	1230.888
867.020	29.058	1277.104	1229.544
868.035	29.257	1275.747	1229.428
869.049	29.082	1275.251	1227.631
870.064	29.240	1274.040	1227.376
871.079	29.186	1273.085	1225.946
872.093	29.051	1272.623	1224.448
873.108	29.180	1271.137	1223.735
874.122	28.964	1269.493	1220.568
875.137	28.722	1268.697	1218.040
876.152	28.601	1267.228	1215.678
877.166	28.640	1265.679	1214.306
878.181	28.838	1264.731	1214.567
879.195	28.794	1264.632	1214.037
880.210	28.977	1263.492	1214.010
881.225	29.122	1263.097	1214.446
882.239	29.199	1262.070	1213.821
883.254	29.478	1260.668	1214.178
884.268	29.202	1260.353	1211.900
885.283	29.191	1259.394	1210.760
886.298	29.306	1257.590	1209.643
887.312	29.247	1256.188	1207.760
888.327	29.396	1255.171	1207.618
889.341	29.188	1253.905	1204.887
890.356	29.140	1253.472	1204.013
891.371	29.242	1252.458	1203.564
892.385	29.172	1251.851	1202.377
893.400	29.013	1251.656	1201.006
894.414	28.985	1250.062	1199.145
895.429	29.163	1247.863	1198.058
896.444	28.700	1246.360	1193.448
897.458	28.728	1244.716	1191.915
898.473	28.759	1244.177	1191.454
899.487	28.978	1243.917	1192.490
900.502	28.996	1242.773	1191.366
901.517	29.044	1241.423	1190.246
902.531	29.006	1240.509	1188.978
903.546	29.174	1239.909	1189.353
904.560	29.133	1239.321	1188.377
905.575	29.219	1238.163	1187.686
906.589	29.108	1237.441	1186.130
907.604	29.027	1236.323	1184.393
