DTS Sentinel unit serial number:	SN409020Multiplexer serial number:	ORYXHardware model number:	OX4-SRSoftware version number:	ORYX F/W v3.00 Oryx Data Collector v3.7.2.0data status	okinstallation	HaddamTimeLapsedifferential loss correction	single-endedforward channel	channel 3reverse channel	N/Adate	2011/06/21time	21:26:17forward acquisition time	30.00reverse acquisition time	0.00gamma	498.7831k internal	0.1763k external	0.1763temperature offset calibration	1.0074default loss term (dB/km)	0.3790temperature slope calibration	1.3530multiplexer offset coefficient	1.0000multiplexer slope coefficient	1.0000fibre end	0.00T internal ref (°C)	26.44T ext. ref 1 (°C)	19.73T ext. ref 2 (°C)	0.04length (m)	temperature (°C)	Stokes	anti-Stokes-747.200	548.451	-0.138	-0.439
-746.185	44.991	0.200	0.244
-745.171	-108.332	0.551	-0.156
-744.156	577.434	-0.149	0.483
-743.142	284.209	-0.070	0.167
-742.127	-125.487	0.099	0.020
-741.112	264.745	-0.054	-0.125
-740.098	163.423	0.082	-0.153
-739.083	-200.000	0.048	0.299
-738.069	-19.995	0.190	0.155
-737.054	281.971	-0.037	0.087
-736.039	447.923	-0.088	0.257
-735.025	-50.470	0.250	0.155
-734.010	-69.290	0.150	-0.076
-732.996	-17.998	-0.138	0.114
-731.981	-139.270	-0.654	0.092
-730.966	-36.749	-0.126	-0.089
-729.952	11.257	0.198	0.200
-728.937	-50.021	0.418	-0.260
-727.923	-150.395	0.141	0.014
-726.908	-200.000	0.020	0.473
-725.894	197.326	0.047	-0.095
-724.879	-100.963	-0.289	-0.093
-723.864	7.948	-0.392	0.387
-722.850	127.522	0.148	-0.249
-721.835	109.767	0.260	-0.412
-720.821	-40.647	-0.198	-0.135
-719.806	178.598	0.246	-0.475
-718.791	-27.665	-0.407	0.311
-717.777	798.011	-0.025	-0.093
-716.762	59.428	-0.217	0.282
-715.748	-118.875	0.322	0.074
-714.733	271.650	0.117	0.272
-713.718	-162.688	-0.894	0.057
-712.704	72.760	-0.086	-0.119
-711.689	-32.112	0.271	-0.199
-710.675	-73.048	0.150	-0.072
-709.660	-99.072	-0.371	0.123
-708.645	-75.952	-0.102	-0.047
-707.631	-99.897	-0.195	0.064
-706.616	704.080	-0.053	0.185
-705.602	-200.000	-0.030	0.429
-704.587	-19.101	-0.182	0.149
-703.572	134.800	0.049	-0.085
-702.558	0.957	0.039	-0.037
-701.543	-55.930	-0.429	-0.251
-700.529	-60.532	0.346	-0.193
-699.514	-200.000	-0.012	0.295
-698.499	-7.993	-0.451	-0.401
-697.485	-24.193	0.147	0.116
-696.470	800.000	-0.146	0.558
-695.456	493.609	0.046	-0.140
-694.441	-130.856	-1.006	-0.176
-693.426	141.661	0.173	-0.303
-692.412	-144.561	0.282	0.034
-691.397	-37.642	0.071	0.050
-690.383	658.959	0.058	-0.197
-689.368	-101.236	0.494	-0.158
-688.354	26.512	-0.101	0.112
-687.339	3.918	0.185	0.178
-686.324	285.890	0.235	0.559
-685.310	39.633	-0.178	0.210
-684.295	-32.485	0.445	0.326
-683.281	-10.430	-0.569	0.496
-682.266	297.406	-0.210	0.510
-681.251	-12.359	0.138	-0.118
-680.237	-200.000	-0.031	-0.341
-679.222	128.382	-0.178	-0.298
-678.208	214.118	-0.010	0.022
-677.193	-95.983	-0.265	0.092
-676.178	800.000	-0.107	-0.438
-675.164	-121.781	-0.390	0.084
-674.149	93.614	-0.066	0.099
-673.135	19.223	-0.309	-0.327
-672.120	81.226	0.064	-0.092
-671.105	-125.323	0.339	-0.068
-670.091	565.389	-0.119	0.381
-669.076	-11.057	0.032	0.028
-668.062	30.300	0.099	-0.112
-667.047	-200.000	0.037	0.278
-666.032	565.670	-0.026	-0.082
-665.018	-76.289	0.140	-0.064
-664.003	-132.124	-0.876	0.148
-662.989	-175.304	0.534	-0.019
-661.974	299.033	0.164	-0.399
-660.959	114.947	0.066	-0.106
-659.945	-200.000	0.027	-0.233
-658.930	800.000	0.079	0.328
-657.916	-49.607	-0.518	-0.323
-656.901	156.615	0.066	-0.120
-655.886	-123.580	0.085	0.017
-654.872	-200.000	0.030	0.226
-653.857	362.616	0.098	0.260
-652.843	193.815	0.087	-0.174
-651.828	388.562	-0.057	-0.155
-650.814	-66.120	0.217	0.113
-649.799	-63.703	0.253	-0.136
-648.784	-75.757	-0.646	-0.300
-647.770	-118.115	0.411	0.096
-646.755	679.398	0.062	0.213
-645.741	-107.319	-0.677	0.194
-644.726	-139.832	-0.141	-0.019
-643.711	-50.809	0.390	-0.241
-642.697	-15.325	-0.292	-0.245
-641.682	-150.256	-0.288	0.029
-640.668	42.269	0.259	0.309
-639.653	-143.855	0.279	-0.034
-638.638	-200.000	0.065	0.627
-637.624	-74.592	0.263	0.124
-636.609	-41.150	0.324	-0.219
-635.595	144.919	0.240	-0.423
-634.580	-200.000	-0.058	-0.405
-633.565	-108.999	-0.363	0.101
-632.551	-62.285	0.686	-0.374
-631.536	313.737	-0.200	-0.497
-630.522	379.193	-0.149	0.402
-629.507	-41.244	0.398	0.269
-628.492	-92.182	0.173	-0.064
-627.478	-200.000	0.031	-0.341
-626.463	-200.000	-0.021	0.336
-625.449	27.704	0.358	-0.396
-624.434	-77.555	0.177	0.080
-623.419	-156.667	0.241	0.019
-622.405	127.380	0.259	0.433
-621.390	-180.740	0.798	0.021
-620.376	-10.482	0.044	-0.038
-619.361	541.469	-0.102	-0.321
-618.346	-200.000	-0.054	0.319
-617.332	-200.000	0.050	0.418
-616.317	168.623	-0.127	0.238
-615.303	129.557	0.027	-0.046
-614.288	108.203	-0.057	-0.089
-613.273	-200.000	-0.005	0.345
-612.259	-200.000	0.021	0.309
-611.244	-26.819	-0.546	-0.418
-610.230	800.000	-0.044	0.207
-609.215	187.083	-0.166	-0.326
-608.201	5.290	0.442	0.427
-607.186	289.251	-0.165	-0.395
-606.171	-34.801	-0.163	0.117
-605.157	-147.943	-0.163	-0.018
-604.142	-200.000	0.074	-0.607
-603.128	-200.000	-0.005	-0.218
-602.113	800.000	-0.053	0.213
-601.098	88.161	0.081	0.118
-600.084	29.759	0.400	-0.447
-599.069	201.037	-0.076	0.154
-598.055	706.597	0.214	0.744
-597.040	-200.000	0.019	0.151
-596.025	-15.706	0.207	-0.173
-595.011	800.000	0.013	-0.065
-593.996	-3.774	0.249	-0.226
-592.982	-51.552	0.363	-0.221
-591.967	-124.948	0.263	0.053
-590.952	-35.381	0.142	0.101
-589.938	-14.523	-0.286	0.241
-588.923	-51.873	0.237	-0.144
-587.909	-165.888	-0.111	-0.006
-586.894	800.000	-0.036	0.131
-585.879	22.857	0.054	-0.058
-584.865	232.136	0.050	0.109
-583.850	-161.032	-0.095	-0.006
-582.836	-122.502	-0.200	0.042
-581.821	-126.883	-0.212	0.041
-580.806	353.508	-0.126	0.329
-579.792	-113.388	-0.441	0.113
-578.777	19.586	-0.074	0.078
-577.763	128.207	-0.277	-0.462
-576.748	-200.000	0.060	-0.548
-575.733	47.611	0.221	-0.271
-574.719	-18.526	0.206	0.168
-573.704	109.428	0.243	0.382
-572.690	26.565	0.211	0.232
-571.675	348.178	-0.065	-0.169
-570.661	800.000	-0.070	-0.271
-569.646	-155.543	-0.116	0.010
-568.631	-200.000	-0.043	0.481
-567.617	-200.000	0.037	0.328
-566.602	-200.000	0.080	0.508
-565.588	-58.355	-0.288	0.164
-564.573	-200.000	0.004	-0.109
-563.558	-41.107	0.205	0.138
-562.544	-113.155	-0.549	0.141
-561.529	-9.689	-0.232	0.202
-560.515	800.000	0.024	0.137
-559.500	-115.026	0.385	-0.095
-558.485	688.875	0.036	0.123
-557.471	137.524	0.142	0.243
-556.456	39.511	0.280	-0.329
-555.442	-200.000	0.023	0.544
-554.427	90.023	-0.284	0.416
-553.412	-200.000	-0.019	-0.188
-552.398	-76.944	-0.250	0.114
-551.383	25.440	-0.686	0.747
-550.369	800.000	-0.123	-0.460
-549.354	34.048	0.176	0.201
-548.339	-200.000	0.256	0.000
-547.325	-55.981	-0.110	-0.064
-546.310	61.754	0.150	-0.196
-545.296	58.174	-0.170	0.219
-544.281	-55.641	0.128	-0.075
-543.266	482.981	-0.216	0.645
-542.252	-200.000	-0.027	-0.375
-541.237	-200.000	0.009	0.165
-540.223	64.625	0.164	0.217
-539.208	-37.299	-0.125	0.087
-538.193	-2.325	-0.358	-0.328
-537.179	800.000	-0.017	-0.083
-536.164	-49.928	0.158	-0.098
-535.150	-61.967	-0.149	-0.081
-534.135	800.000	0.018	0.070
-533.121	45.156	0.084	-0.101
-532.106	-200.000	0.032	-0.298
-531.091	-16.826	-0.379	0.313
-530.077	10.378	-0.288	0.286
-529.062	-64.590	0.067	-0.035
-528.048	606.887	0.046	-0.152
-527.033	-159.177	0.293	-0.021
-526.018	158.602	-0.252	-0.459
-525.004	800.000	0.062	-0.267
-523.989	-58.928	0.212	0.119
-522.975	740.325	-0.066	-0.233
-521.960	-80.584	-0.456	0.198
-520.945	-137.362	0.285	-0.042
-519.931	-55.878	0.302	-0.176
-518.916	800.000	-0.104	-0.564
-517.902	112.245	-0.149	-0.235
-516.887	-32.710	0.191	0.138
-515.872	-38.965	-0.258	0.177
-514.858	397.435	0.049	-0.135
-513.843	-19.593	-0.407	-0.329
-512.829	-131.878	-0.252	0.043
-511.814	258.013	-0.139	0.314
-510.799	-116.226	-0.128	-0.031
-509.785	214.222	0.063	-0.131
-508.770	204.936	-0.110	0.224
-507.756	800.000	-0.024	0.089
-506.741	-132.523	-0.206	0.034
-505.726	-180.169	0.190	0.005
-504.712	254.178	-0.258	0.578
-503.697	-200.000	-0.183	-0.001
-502.683	17.094	0.263	-0.272
-501.668	-72.415	0.574	-0.277
-500.653	-22.353	-0.202	0.160
-499.639	-155.045	-0.451	-0.038
-498.624	26.276	-0.353	0.385
-497.610	800.000	0.034	-0.181
-496.595	-78.249	-0.456	-0.204
-495.581	462.434	0.123	0.361
-494.566	800.000	0.079	0.313
-493.551	-15.544	0.319	0.266
-492.537	-82.878	-0.591	0.248
-491.522	342.850	0.103	-0.264
-490.508	56.225	0.147	0.187
-489.493	139.132	0.102	0.176
-488.478	-107.523	-0.127	-0.036
-487.464	-20.840	0.358	0.286
-486.449	97.812	-0.113	0.170
-485.435	-56.685	-0.248	0.143
-484.420	-150.322	0.139	0.014
-483.405	-49.263	0.282	-0.175
-482.391	509.902	-0.138	-0.421
-481.376	-63.629	-0.150	0.080
-480.362	-39.763	0.567	-0.386
-479.347	27.302	0.441	0.483
-478.332	384.089	-0.123	-0.331
-477.318	619.572	-0.073	-0.241
-476.303	258.816	-0.164	0.371
-475.289	12.687	0.256	0.258
-474.274	800.000	-0.054	-0.216
-473.259	800.000	0.076	-0.358
-472.245	65.384	-0.131	0.174
-471.230	-105.816	0.067	0.020
-470.216	800.000	-0.136	0.593
-469.201	-143.119	-0.362	-0.045
-468.186	-200.000	0.007	-0.051
-467.172	-200.000	-0.020	0.405
-466.157	-200.000	-0.000	0.332
-465.143	485.103	-0.196	-0.587
-464.128	222.886	0.066	0.138
-463.113	-110.136	0.189	-0.051
-462.099	-60.518	-0.602	-0.332
-461.084	-40.290	0.325	0.220
-460.070	6.631	-0.152	-0.147
-459.055	-78.300	-0.487	-0.217
-458.040	800.000	0.112	-0.491
-457.026	783.357	0.130	-0.468
-456.011	98.988	0.050	0.075
-454.997	223.390	-0.087	0.183
-453.982	-200.000	-0.060	-0.377
-452.968	-200.000	0.104	-0.741
-451.953	-61.573	0.262	0.143
-450.938	-48.988	-0.068	-0.042
-449.924	250.622	0.166	-0.370
-448.909	54.465	-0.265	-0.334
-447.895	48.711	-0.181	0.221
-446.880	79.736	-0.175	0.245
-445.865	-200.000	-0.056	0.443
-444.851	75.789	-0.153	-0.211
-443.836	-84.701	0.422	0.173
-442.822	-45.252	-0.087	0.056
-441.807	-182.473	0.313	0.007
-440.792	-200.000	0.001	0.358
-439.778	-160.483	-0.930	0.064
-438.763	-6.283	0.277	0.246
-437.749	-37.207	0.126	-0.088
-436.734	-162.161	-0.141	0.009
-435.719	-200.000	0.025	-0.504
-434.705	-35.021	-0.205	0.145
-433.690	121.323	0.182	0.295
-432.676	-159.551	0.499	0.036
-431.661	34.058	0.177	0.201
-430.646	-156.931	-0.620	-0.049
-429.632	-140.811	-0.877	0.117
-428.617	-160.792	0.159	-0.011
-427.603	57.559	0.153	-0.194
-426.588	-87.347	0.352	-0.138
-425.573	125.285	-0.217	0.357
-424.559	-9.798	-0.245	0.212
-423.544	37.818	-0.117	-0.135
-422.530	15.433	0.322	0.329
-421.515	-97.114	0.452	-0.153
-420.500	241.667	-0.200	0.437
-419.486	-200.000	0.064	0.377
-418.471	73.450	0.248	0.339
-417.457	800.000	0.036	0.185
-416.442	-132.769	0.422	0.070
-415.428	10.322	0.266	-0.263
-414.413	45.922	-0.214	0.258
-413.398	-115.179	0.511	-0.125
-412.384	44.766	-0.055	-0.067
-411.369	-200.000	-0.037	-0.338
-410.355	-200.000	-0.011	-0.289
-409.340	800.000	-0.014	-0.073
-408.325	24.906	0.274	-0.296
-407.311	-115.644	-0.231	0.056
-406.296	-112.613	0.225	0.058
-405.282	97.922	-0.062	-0.093
-404.267	-106.114	-0.383	0.111
-403.252	-85.705	-0.467	0.188
-402.238	15.855	0.143	0.146
-401.223	361.831	0.117	-0.307
-400.209	67.519	-0.193	0.256
-399.194	188.992	0.169	0.331
-398.179	800.000	-0.094	0.346
-397.165	19.031	-0.378	0.394
-396.150	63.940	0.223	0.292
-395.136	284.663	0.201	0.473
-394.121	-51.677	-0.401	-0.242
-393.106	-200.000	-0.016	0.327
-392.092	-3.927	-0.208	-0.188
-391.077	-173.379	-0.201	-0.008
-390.063	-107.028	-0.209	0.060
-389.048	68.169	-0.077	-0.102
-388.033	-109.416	0.289	0.079
-387.019	-200.000	0.012	-0.198
-386.004	-106.671	0.166	-0.048
-384.990	-75.966	0.403	-0.185
-383.975	11.844	0.482	0.481
-382.960	-95.129	-0.118	-0.041
-381.946	-47.576	0.287	-0.181
-380.931	-93.900	0.317	0.113
-379.917	-200.000	-0.003	0.302
-378.902	-85.280	0.437	0.177
-377.888	-200.000	-0.008	-0.137
-376.873	104.855	-0.308	-0.472
-375.858	56.338	0.234	0.297
-374.844	-200.000	-0.022	0.283
-373.829	-112.246	-0.231	-0.060
-372.815	-66.727	0.169	0.087
-371.800	80.468	0.076	-0.107
-370.785	-200.000	-0.060	-0.552
-369.771	-46.112	0.096	-0.062
-368.756	-200.000	-0.008	-0.493
-367.742	-113.468	0.393	-0.099
-366.727	30.183	0.304	0.338
-365.712	240.814	0.148	-0.323
-364.698	-21.988	-0.399	0.315
-363.683	-141.508	-0.101	-0.013
-362.669	259.397	0.196	0.440
-361.654	-200.000	-0.055	0.560
-360.639	258.957	-0.049	0.109
-359.625	-200.000	0.006	1.066
-358.610	57.018	0.366	0.464
-357.596	-180.670	-0.361	0.009
-356.581	800.000	0.111	-0.516
-355.566	784.274	-0.167	-0.597
-354.552	130.367	-0.355	-0.592
-353.537	800.000	-0.095	-0.518
-352.523	-75.487	-0.193	-0.089
-351.508	197.001	-0.132	-0.262
-350.493	-4.405	-0.323	-0.290
-349.479	-93.373	-0.404	0.145
-348.464	207.279	-0.123	0.250
-347.450	203.480	0.257	-0.519
-346.435	-175.632	-0.123	0.004
-345.420	463.984	0.077	0.226
-344.406	15.545	0.142	-0.144
-343.391	7.718	-0.322	0.313
-342.377	-84.935	0.353	-0.143
-341.362	216.668	0.201	-0.416
-340.348	-61.673	-0.109	0.059
-339.333	312.822	-0.219	0.537
-338.318	47.764	-0.185	-0.224
-337.304	-140.896	-0.324	0.043
-336.289	151.398	0.113	-0.201
-335.275	-22.395	-0.339	0.266
-334.260	-200.000	-0.017	-0.292
-333.245	-97.201	0.277	0.093
-332.231	-131.976	-0.357	0.060
-331.216	800.000	-0.076	0.388
-330.202	111.768	-0.189	-0.297
-329.187	-39.262	0.192	-0.131
-328.172	-200.000	-0.007	-0.093
-327.158	-3.256	-0.335	0.303
-326.143	-149.912	-0.564	-0.057
-325.129	60.924	-0.128	0.165
-324.114	-65.878	0.428	0.221
-323.099	-97.674	-0.446	0.149
-322.085	-138.826	-0.342	-0.048
-321.070	-24.611	-0.484	0.373
-320.056	-200.000	0.040	0.518
-319.041	93.414	0.111	-0.163
-318.026	-10.216	-0.210	-0.180
-317.012	35.629	-0.156	0.177
-315.997	-118.669	0.478	0.109
-314.983	-5.948	0.096	0.085
-313.968	-87.826	0.284	-0.111
-312.953	-66.446	0.113	-0.058
-311.939	-200.000	-0.010	-0.340
-310.924	67.008	-0.096	-0.127
-309.910	-144.692	0.901	0.106
-308.895	-194.116	0.629	-0.007
-307.880	-15.034	0.147	-0.122
-306.866	377.235	0.075	0.200
-305.851	800.000	0.146	-0.697
-304.837	-102.102	-0.643	0.200
-303.822	113.603	-0.266	-0.419
-302.807	800.000	-0.055	-0.214
-301.793	117.005	0.112	-0.179
-300.778	8.155	0.141	0.137
-299.764	-146.011	0.345	-0.039
-298.749	-14.884	0.308	-0.256
-297.735	-84.857	0.126	-0.051
-296.720	-101.407	0.371	-0.116
-295.705	-200.000	0.038	-0.291
-294.691	1.973	-0.065	0.060
-293.676	248.588	-0.163	0.360
-292.662	-83.228	0.140	0.058
-291.647	-46.657	0.258	0.164
-290.632	210.862	-0.210	-0.429
-289.618	78.029	0.146	0.202
-288.603	73.826	0.250	0.340
-287.589	-15.350	-0.344	-0.285
-286.574	-20.507	0.297	0.236
-285.559	-135.456	0.202	0.031
-284.545	-133.074	0.137	-0.022
-283.530	294.367	0.153	-0.364
-282.516	334.936	0.093	-0.235
-281.501	-200.000	-0.047	-0.398
-280.486	-60.368	0.177	-0.097
-279.472	-200.000	-0.022	-0.193
-278.457	-200.000	-0.047	-0.295
-277.443	131.877	0.233	-0.389
-276.428	115.020	0.323	-0.512
-275.413	45.780	0.324	0.389
-274.399	64.090	-0.262	0.342
-273.384	-48.723	0.301	0.187
-272.370	-200.000	-0.049	-0.348
-271.355	6.469	-0.313	-0.301
-270.340	12.674	0.190	-0.190
-269.326	-53.289	-0.285	-0.169
-268.311	-200.000	0.024	0.142
-267.297	-174.380	0.428	-0.016
-266.282	-145.858	0.137	-0.016
-265.267	213.388	0.198	0.407
-264.253	-82.833	0.181	-0.075
-263.238	200.734	0.110	-0.220
-262.224	-200.000	0.023	-0.190
-261.209	161.310	0.090	0.164
-260.195	-76.406	-0.303	0.137
-259.180	41.610	-0.260	0.305
-258.165	-44.319	0.106	-0.069
-257.151	-128.709	0.475	0.086
-256.136	31.628	-0.170	0.190
-255.122	32.738	0.144	0.161
-254.107	251.331	-0.138	0.304
-253.092	-102.314	-0.258	-0.080
-252.078	800.000	0.037	-0.156
-251.063	306.833	0.044	0.106
-250.049	52.119	-0.191	-0.235
-249.034	358.082	-0.175	-0.454
-248.019	-146.642	0.329	-0.037
-247.005	-41.672	-0.379	-0.251
-245.990	-70.991	-0.453	-0.220
-244.976	-57.781	0.516	-0.291
-243.961	510.076	-0.089	-0.269
-242.946	-200.000	-0.016	-0.184
-241.932	-51.598	0.240	0.145
-240.917	-105.578	-0.353	-0.103
-239.903	-81.037	-0.280	-0.120
-238.888	-200.000	0.008	-0.546
-237.873	-113.852	-0.217	0.054
-236.859	7.301	0.206	0.199
-235.844	-127.366	-0.355	-0.066
-234.830	-105.795	-0.491	0.143
-233.815	83.731	0.172	-0.243
-232.800	65.834	0.080	0.105
-231.786	-95.480	0.367	-0.127
-230.771	148.957	-0.122	-0.214
-229.757	-118.782	0.119	-0.027
-228.742	800.000	0.049	-0.196
-227.727	-34.619	0.480	-0.339
-226.713	88.356	0.039	0.056
-225.698	-200.000	-0.079	-0.695
-224.684	430.074	0.163	-0.458
-223.669	-99.198	-0.310	0.101
-222.655	-151.390	0.216	0.021
-221.640	5.853	0.223	-0.213
-220.625	-200.000	-0.004	0.078
-219.611	-111.700	0.072	0.019
-218.596	-107.799	-0.327	0.091
-217.582	-65.570	-0.486	0.251
-216.567	-200.000	-0.007	-0.229
-215.552	-200.000	0.008	-0.065
-214.538	800.000	0.038	0.148
-213.523	800.000	-0.078	-0.297
-212.509	98.839	0.175	0.262
-211.494	-145.893	0.427	-0.048
-210.479	-68.312	0.171	-0.085
-209.465	-58.461	0.396	0.221
-208.450	-200.000	0.008	0.131
-207.436	-200.000	0.033	0.360
-206.421	-6.889	0.051	0.045
-205.406	800.000	-0.045	-0.257
-204.392	34.575	-0.294	-0.332
-203.377	-25.537	-0.423	0.322
-202.363	248.780	0.151	0.331
-201.348	25.066	-0.106	0.114
-200.333	149.855	-0.108	-0.190
-199.319	-129.921	0.267	-0.047
-198.304	15.668	-0.228	0.231
-197.290	414.181	0.091	-0.253
-196.275	-192.667	0.564	0.007
-195.260	75.397	0.226	0.308
-194.246	-75.394	-0.291	-0.133
-193.231	-117.957	0.256	-0.059
-192.217	244.677	-0.056	0.122
-191.202	-102.298	-0.230	0.071
-190.187	-200.000	-0.054	-0.384
-189.173	-181.685	-0.140	-0.003
-188.158	-200.000	0.056	0.433
-187.144	-92.158	0.327	0.119
-186.129	764.762	-0.062	-0.218
-185.114	-101.332	-0.486	0.152
-184.100	281.263	-0.195	-0.451
-183.085	86.066	-0.162	-0.231
-182.071	-200.000	0.064	-0.538
-181.056	-117.651	-0.220	0.051
-180.042	-123.283	-0.437	-0.089
-179.027	800.000	0.052	0.227
-178.012	114.542	0.199	-0.314
-176.998	-47.341	-0.347	0.217
-175.983	146.950	0.306	0.533
-174.969	82.647	-0.047	-0.066
-173.954	98.271	0.291	0.434
-172.939	-200.000	-0.003	0.252
-171.925	-119.136	0.028	-0.006
-170.910	-0.435	0.079	-0.072
-169.896	-139.764	-0.304	0.041
-168.881	-127.401	0.560	-0.104
-167.866	221.981	-0.049	-0.101
-166.852	-7.587	-0.133	0.116
-165.837	-40.100	-0.229	0.153
-164.823	-106.418	-0.502	0.144
-163.808	-86.544	0.552	0.217
-162.793	-200.000	0.007	0.442
-161.779	-21.912	-0.246	0.193
-160.764	-200.000	-0.054	0.309
-159.750	-200.000	0.045	-0.277
-158.735	340.806	0.196	-0.495
-157.720	-104.832	0.283	-0.083
-156.706	-61.073	-0.560	0.304
-155.691	291.442	0.057	-0.133
-154.677	-68.648	-0.211	-0.105
-153.662	4.909	-0.302	-0.286
-152.647	-54.872	-0.277	-0.161
-151.633	223.467	0.033	-0.068
-150.618	97.349	-0.141	-0.209
-149.604	90.764	-0.230	-0.333
-148.589	166.861	-0.041	0.075
-147.574	-190.444	0.069	0.001
-146.560	82.447	0.113	-0.159
-145.545	800.000	-0.028	0.128
-144.531	-8.883	0.232	-0.200
-143.516	-22.029	0.347	-0.271
-142.502	59.183	-0.146	-0.185
-141.487	-75.211	0.191	-0.087
-140.472	-172.666	-0.053	-0.002
-139.458	-200.000	-0.036	-0.402
-138.443	-101.724	-0.123	-0.038
-137.429	-40.819	0.158	0.105
-136.414	-182.547	0.699	0.016
-135.399	-200.000	-0.393	-0.001
-134.385	4.473	-0.567	0.536
-133.370	-200.000	0.220	0.000
-132.356	-91.943	0.157	-0.057
-131.341	-16.375	0.102	0.083
-130.326	800.000	0.057	0.223
-129.312	631.111	-0.101	0.332
-128.297	-46.619	0.216	-0.136
-127.283	-77.055	0.212	-0.095
-126.268	180.505	-0.071	-0.134
-125.253	313.748	-0.163	-0.397
-124.239	800.000	-0.095	-0.363
-123.224	-11.399	0.253	0.215
-122.210	101.291	0.157	0.236
-121.195	105.484	-0.049	-0.074
-120.180	-62.075	0.428	0.229
-119.166	64.223	0.151	0.195
-118.151	127.647	-0.108	-0.177
-117.137	17.039	0.183	-0.186
-116.122	-118.403	-0.399	0.090
-115.107	-200.000	-0.033	-0.409
-114.093	83.149	0.377	-0.530
-113.078	87.550	0.350	0.500
-112.064	-108.938	-0.464	-0.127
-111.049	-143.723	0.608	-0.073
-110.034	153.725	0.243	-0.431
-109.020	-94.214	0.316	0.111
-108.005	-46.767	-0.214	-0.135
-106.991	-65.602	0.043	0.022
-105.976	-152.240	-0.354	-0.033
-104.962	180.753	0.113	0.215
-103.947	37.240	0.145	-0.165
-102.932	-20.631	-0.172	-0.136
-101.918	-20.670	-0.152	-0.120
-100.903	-74.936	-0.263	-0.121
-99.889	800.000	-0.074	-0.325
-98.874	162.904	-0.244	-0.443
-97.859	3.932	-0.038	-0.036
-96.845	-158.521	0.268	-0.020
-95.830	98.538	0.266	-0.396
-94.816	-170.380	0.341	0.015
-93.801	-79.870	0.394	0.170
-92.786	-200.000	-0.089	-0.519
-91.772	-72.098	-0.416	0.198
-90.757	43.715	0.294	0.346
-89.743	800.000	-0.070	-0.320
-88.728	-77.729	0.557	-0.247
-87.713	614.666	0.137	-0.444
-86.699	-200.000	-0.007	0.079
-85.684	-200.000	-0.057	0.338
-84.670	292.004	-0.026	-0.062
-83.655	-200.000	0.070	0.597
-82.640	800.000	-0.044	0.200
-81.626	393.444	0.220	0.591
-80.611	-77.791	-0.343	0.152
-79.597	-82.755	0.159	-0.066
-78.582	-167.830	0.126	-0.006
-77.567	-172.806	-0.473	0.019
-76.553	103.245	-0.147	0.222
-75.538	-92.796	0.305	0.109
-74.524	-42.893	-0.388	-0.253
-73.509	85.756	-0.192	0.272
-72.494	-165.267	-0.407	0.023
-71.480	-91.155	-0.173	-0.063
-70.465	144.615	0.195	-0.335
-69.451	-83.371	-0.618	-0.254
-68.436	51.443	-0.070	0.085
-67.422	50.003	-0.107	-0.130
-66.407	105.727	-0.179	-0.272
-65.392	-68.771	0.120	0.059
-64.378	-193.863	-0.184	0.002
-63.363	-102.156	0.330	0.101
-62.349	-200.000	-0.028	-0.206
-61.334	-9.670	-2.542	-2.173
-60.319	2.166	1.224	1.135
-59.305	311.844	-3.060	-7.406
-58.290	71.921	3.546	4.744
-57.276	342.489	4.088	10.321
-56.261	-200.000	19.772	293.114
-55.246	369.366	1280.340	3343.784
-54.232	53.872	2853.855	3524.275
-53.217	53.996	2683.907	3316.201
-52.203	36.540	2412.192	2734.921
-51.188	31.984	2074.044	2295.563
-50.173	28.371	1957.106	2124.040
-49.159	27.225	1946.205	2098.829
-48.144	26.868	1942.388	2090.501
-47.130	26.872	1939.332	2087.175
-46.115	26.677	1938.345	2083.773
-45.100	26.660	1936.608	2081.634
-44.086	26.725	1935.539	2081.150
-43.071	26.785	1932.823	2078.839
-42.057	26.630	1931.917	2075.998
-41.042	26.562	1930.298	2073.388
-40.027	26.597	1929.392	2072.741
-39.013	26.676	1927.574	2071.608
-37.998	26.590	1927.210	2070.148
-36.984	26.653	1925.025	2068.436
-35.969	26.528	1923.811	2065.625
-34.954	26.614	1922.189	2064.780
-33.940	26.527	1921.474	2062.936
-32.925	26.521	1920.254	2061.475
-31.911	26.570	1918.588	2060.161
-30.896	26.506	1917.306	2057.970
-29.881	26.641	1915.345	2057.334
-28.867	26.535	1914.617	2055.262
-27.852	26.371	1913.544	2052.150
-26.838	26.407	1912.460	2051.317
-25.823	26.555	1910.702	2051.044
-24.809	26.466	1909.213	2048.341
-23.794	26.515	1907.758	2047.265
-22.779	26.507	1906.660	2045.912
-21.765	26.370	1905.863	2043.422
-20.750	26.461	1904.919	2043.360
-19.736	26.392	1903.713	2041.199
-18.721	26.315	1902.597	2039.049
-17.706	26.403	1901.393	2038.671
-16.692	26.454	1899.534	2037.182
-15.677	26.455	1898.371	2035.864
-14.663	26.432	1897.856	2034.968
-13.648	26.409	1896.243	2032.897
-12.633	26.420	1894.265	2030.823
-11.619	26.237	1894.158	2028.555
-10.604	26.202	1892.562	2026.374
-9.590	26.147	1891.544	2024.581
-8.575	26.256	1889.955	2024.029
-7.560	26.325	1888.585	2023.263
-6.546	26.351	1886.666	2021.417
-5.531	26.271	1886.198	2019.931
-4.517	26.183	1885.657	2018.286
-3.502	26.190	1883.894	2016.397
-2.487	26.275	1883.556	2016.912
-1.473	26.461	1878.733	2013.752
-0.458	25.844	1860.130	1986.893
0.556	21.473	2004.045	2076.083
1.571	19.362	2210.052	2261.419
2.586	20.182	2250.495	2313.519
3.600	20.139	2253.132	2315.380
4.615	20.235	2251.655	2314.867
5.629	20.066	2250.756	2311.404
6.644	20.068	2249.247	2309.611
7.659	20.254	2245.924	2308.411
8.673	20.252	2244.417	2306.548
9.688	19.964	2252.287	2310.509
10.702	18.803	2331.631	2375.482
11.717	16.853	2395.395	2412.282
12.731	7.786	2373.838	2261.213
13.746	1.053	2355.515	2147.784
14.761	0.263	2351.943	2133.043
15.775	0.140	2350.397	2129.625
16.790	0.124	2348.440	2127.375
17.804	0.173	2346.633	2126.185
18.819	0.056	2346.724	2124.345
19.834	0.062	2344.203	2121.898
20.848	-0.032	2343.940	2120.064
21.863	0.012	2341.675	2118.384
22.877	0.170	2338.946	2117.903
23.892	0.105	2336.991	2114.964
24.907	0.009	2335.064	2111.603
25.921	0.024	2333.367	2110.038
26.936	0.002	2331.136	2107.446
27.950	0.036	2328.977	2105.725
28.965	0.022	2326.848	2103.358
29.980	0.112	2323.681	2101.507
30.994	0.180	2322.376	2101.025
32.009	3.881	2334.267	2163.636
33.023	13.621	2362.572	2327.692
34.038	17.777	2369.571	2393.033
35.053	17.732	2365.861	2388.363
36.067	17.560	2362.765	2382.534
37.082	17.447	2361.037	2378.916
38.096	17.567	2359.846	2379.123
39.111	17.854	2357.631	2380.627
40.126	18.096	2356.583	2382.668
41.140	18.292	2354.823	2383.355
42.155	18.343	2353.332	2382.271
43.169	18.291	2350.504	2378.393
44.184	17.936	2347.437	2370.060
45.199	17.855	2345.075	2366.259
46.213	18.044	2344.468	2367.993
47.228	18.147	2344.624	2369.301
48.242	18.258	2341.709	2367.619
49.257	18.350	2341.165	2368.065
50.271	18.510	2337.477	2366.269
51.286	17.948	2335.564	2356.267
52.301	17.657	2332.065	2348.421
53.315	18.701	2335.760	2366.327
54.330	22.206	2345.369	2424.459
55.344	24.244	2348.156	2455.300
56.359	24.553	2345.306	2456.295
57.374	24.714	2344.891	2457.787
58.388	24.746	2341.394	2454.268
59.403	24.490	2336.650	2445.484
60.417	24.134	2333.922	2437.446
61.432	24.158	2331.731	2435.193
62.447	24.371	2330.788	2436.841
63.461	24.446	2329.326	2436.054
64.476	24.594	2327.506	2435.888
65.490	24.330	2325.058	2429.417
66.505	23.417	2321.052	2412.455
67.520	20.965	2310.722	2367.996
68.534	18.359	2300.870	2322.145
69.549	17.635	2296.012	2307.116
70.563	17.606	2294.396	2304.820
71.578	17.447	2293.851	2301.830
72.593	17.650	2292.312	2302.770
73.607	17.757	2290.443	2302.065
74.622	17.748	2288.595	2299.818
75.636	17.823	2283.668	2295.597
76.651	17.645	2281.935	2291.180
77.666	17.543	2280.602	2288.190
78.680	17.463	2277.966	2284.189
79.695	17.242	2276.200	2279.171
80.709	17.079	2273.669	2274.169
81.724	17.104	2271.147	2271.708
82.739	17.117	2268.934	2269.392
83.753	17.205	2267.449	2268.816
84.768	17.103	2266.621	2266.348
85.782	17.017	2264.252	2262.552
86.797	17.068	2261.760	2260.484
87.812	17.007	2259.817	2257.446
88.826	17.127	2258.556	2257.528
89.841	17.337	2255.547	2257.049
90.855	17.317	2254.386	2255.352
91.870	17.263	2253.863	2253.838
92.884	17.291	2251.998	2252.080
93.899	17.374	2250.884	2251.802
94.914	18.290	2253.999	2266.844
95.928	21.125	2262.734	2313.177
96.943	22.221	2260.567	2325.274
97.957	19.311	2247.747	2273.289
98.972	17.362	2242.264	2241.673
99.987	17.107	2238.939	2234.704
101.001	17.094	2236.179	2231.508
102.016	17.190	2233.656	2229.994
103.030	17.205	2230.398	2226.671
104.045	17.020	2229.976	2223.542
105.060	17.176	2226.913	2222.278
106.074	17.111	2225.881	2220.132
107.089	17.181	2224.504	2219.405
108.103	17.192	2223.300	2218.090
109.118	17.363	2221.050	2217.814
110.133	17.370	2220.522	2217.120
111.147	17.157	2218.240	2211.783
112.162	17.219	2216.216	2210.312
113.176	17.422	2214.334	2210.824
114.191	17.557	2213.614	2211.604
115.206	17.558	2211.340	2209.082
116.220	17.450	2208.745	2204.820
117.235	17.507	2206.730	2203.287
118.249	17.562	2205.573	2202.578
119.264	17.546	2203.909	2200.450
120.279	17.367	2202.897	2196.845
121.293	17.531	2200.699	2196.515
122.308	17.579	2199.033	2195.215
123.322	17.460	2197.703	2192.089
124.337	17.784	2199.225	2197.535
125.352	21.122	2207.984	2249.342
126.366	22.059	2206.010	2259.191
127.381	18.801	2194.670	2205.322
128.395	17.447	2188.886	2181.816
129.410	17.269	2186.426	2176.811
130.424	17.155	2184.584	2173.254
131.439	17.294	2183.334	2173.538
132.454	17.401	2181.498	2172.813
133.468	17.737	2178.887	2174.259
134.483	17.771	2179.085	2174.638
135.497	17.906	2177.596	2174.622
136.512	17.798	2175.028	2170.417
137.527	17.728	2171.687	2165.927
138.541	17.274	2170.922	2159.106
139.556	17.276	2170.378	2158.335
140.570	17.251	2168.710	2156.104
141.585	17.222	2164.761	2151.548
142.600	17.080	2165.316	2150.027
143.614	17.148	2162.888	2148.227
144.629	17.094	2160.782	2145.194
145.643	17.005	2158.626	2141.667
146.658	16.898	2157.010	2138.452
147.673	16.897	2154.281	2135.482
148.687	16.850	2154.519	2134.859
149.702	17.141	2153.771	2137.545
150.716	17.257	2152.278	2137.276
151.731	17.296	2150.976	2136.226
152.746	17.434	2150.986	2137.717
153.760	18.237	2155.400	2152.009
154.775	21.379	2163.052	2199.177
155.789	22.544	2161.550	2212.098
156.804	19.388	2149.180	2159.520
157.819	17.346	2141.294	2125.701
158.833	17.132	2137.175	2118.681
159.848	17.169	2134.700	2116.440
160.862	17.237	2134.080	2116.416
161.877	17.457	2133.849	2118.688
162.892	17.420	2133.623	2117.751
163.906	17.483	2131.843	2116.511
164.921	17.471	2129.110	2113.397
165.935	17.385	2127.493	2110.462
166.950	17.475	2126.706	2110.555
167.964	17.491	2122.803	2106.627
168.979	17.081	2120.894	2099.387
169.994	16.911	2119.548	2095.692
171.008	16.983	2117.361	2094.175
172.023	16.932	2116.194	2092.137
173.037	17.114	2116.570	2094.509
174.052	17.332	2115.400	2095.806
175.067	17.391	2112.561	2093.473
176.081	17.152	2110.798	2088.522
177.096	17.231	2110.639	2089.083
178.110	17.486	2108.579	2089.947
179.125	17.554	2108.172	2090.138
180.140	17.468	2107.253	2087.912
181.154	17.453	2105.691	2085.922
182.169	17.729	2104.853	2088.244
183.183	18.557	2108.449	2101.772
184.198	22.135	2116.324	2153.528
185.213	22.864	2112.736	2158.577
186.227	19.379	2102.079	2104.755
187.242	17.944	2097.061	2081.911
188.256	17.721	2094.633	2076.510
189.271	17.462	2092.553	2071.042
190.286	17.297	2091.009	2067.247
191.300	17.305	2089.523	2065.621
192.315	17.313	2087.282	2063.262
193.329	17.598	2086.447	2065.661
194.344	17.870	2085.958	2068.250
195.359	18.009	2084.716	2068.459
196.373	17.725	2081.722	2061.784
197.388	17.517	2078.424	2055.755
198.402	17.293	2076.128	2050.515
199.417	17.117	2074.306	2046.339
200.432	17.346	2072.457	2047.038
201.446	17.316	2071.548	2045.539
202.461	17.246	2070.131	2043.055
203.475	17.011	2068.308	2038.164
204.490	17.066	2066.014	2036.328
205.504	17.179	2063.810	2035.269
206.519	17.240	2062.439	2034.416
207.534	17.298	2060.082	2032.538
208.548	17.265	2060.062	2031.883
209.563	17.377	2059.161	2032.086
210.577	17.402	2058.096	2031.095
211.592	17.628	2056.908	2032.392
212.607	19.170	2062.252	2055.947
213.621	22.777	2071.053	2107.860
214.636	22.206	2064.977	2094.592
215.650	18.674	2053.572	2040.633
216.665	17.671	2049.773	2024.638
217.680	17.556	2048.464	2021.730
218.694	17.378	2045.469	2016.419
219.709	17.228	2044.106	2013.049
220.723	17.287	2043.646	2013.056
221.738	17.566	2041.567	2014.083
222.753	17.743	2039.577	2013.979
223.767	17.472	2037.882	2008.845
224.782	17.598	2036.191	2008.440
225.796	17.420	2034.469	2004.384
226.811	17.349	2033.049	2001.914
227.826	17.384	2031.305	2000.370
228.840	17.368	2029.113	1997.778
229.855	17.237	2028.748	1995.640
230.869	17.275	2027.312	1994.431
231.884	17.239	2025.425	1991.916
232.899	17.428	2023.994	1992.493
233.913	17.422	2023.629	1991.822
234.928	17.346	2022.989	1990.064
235.942	17.436	2020.701	1988.633
236.957	17.510	2018.129	1986.725
237.972	17.534	2018.302	1986.942
238.986	17.560	2016.625	1985.357
240.001	17.601	2015.331	1984.332
241.015	17.692	2014.735	1984.572
242.030	18.505	2017.662	1996.736
243.045	21.676	2024.704	2040.656
244.059	22.151	2021.485	2042.722
245.074	19.030	2010.059	1994.610
246.088	17.831	2005.994	1976.392
247.103	18.202	2004.503	1979.000
248.117	18.054	2002.740	1975.305
249.132	17.688	2000.122	1968.244
250.147	17.563	1998.263	1964.721
251.161	17.585	1997.314	1963.813
252.176	17.749	1996.359	1964.541
253.190	18.058	1994.715	1966.255
254.205	18.242	1993.647	1967.091
255.220	18.157	1992.771	1965.015
256.234	18.050	1990.988	1961.782
257.249	17.726	1988.839	1955.703
258.263	17.413	1987.051	1950.098
259.278	17.415	1985.082	1947.957
260.293	17.200	1982.825	1943.042
261.307	17.116	1981.685	1940.723
262.322	17.162	1980.214	1939.575
263.336	17.197	1977.702	1937.288
264.351	17.065	1976.161	1934.037
265.366	16.866	1975.355	1930.738
266.380	17.052	1974.098	1931.399
267.395	17.131	1972.652	1930.661
268.409	17.028	1971.644	1928.271
269.424	17.221	1969.757	1928.395
270.439	17.264	1969.826	1928.724
271.453	18.478	1973.079	1945.538
272.468	22.038	1979.918	1992.732
273.482	22.118	1976.646	1990.111
274.497	18.929	1964.150	1941.150
275.512	17.394	1959.756	1919.184
276.526	17.222	1957.732	1915.026
277.541	17.128	1955.514	1911.560
278.555	17.062	1953.870	1908.981
279.570	16.949	1951.723	1905.377
280.585	17.151	1950.966	1906.689
281.599	17.251	1950.386	1907.030
282.614	17.598	1949.905	1910.240
283.628	17.997	1949.607	1914.207
284.643	18.016	1948.476	1913.085
285.657	18.325	1947.320	1915.202
286.672	18.322	1946.750	1914.373
287.687	18.256	1944.667	1911.351
288.701	18.303	1943.326	1910.338
289.716	18.240	1942.222	1908.315
290.730	18.288	1940.406	1906.846
291.745	18.356	1938.922	1905.916
292.760	18.414	1938.232	1905.661
293.774	18.139	1937.470	1901.608
294.789	17.954	1935.287	1897.165
295.803	17.741	1932.105	1891.453
296.818	17.670	1930.724	1889.080
297.833	17.788	1929.992	1889.452
298.847	17.729	1928.632	1887.236
299.862	17.631	1927.034	1884.357
300.876	18.559	1929.598	1896.957
301.891	21.996	1937.380	1942.682
302.906	22.720	1934.015	1947.118
303.920	19.138	1924.089	1897.286
304.935	17.825	1920.006	1878.507
305.949	17.633	1917.381	1873.590
306.964	17.702	1915.632	1872.421
307.979	17.836	1914.044	1872.128
308.993	18.126	1914.376	1875.417
310.008	18.474	1913.648	1878.318
311.022	18.605	1911.461	1877.393
312.037	18.181	1909.889	1870.958
313.052	18.208	1907.654	1868.838
314.066	18.310	1906.675	1868.782
315.081	18.361	1905.522	1867.987
316.095	18.254	1904.477	1865.563
317.110	18.003	1901.568	1859.748
318.125	17.684	1899.658	1854.167
319.139	17.585	1898.720	1851.948
320.154	17.689	1897.270	1851.450
321.168	17.779	1895.404	1850.388
322.183	17.516	1893.705	1845.644
323.197	17.314	1892.450	1842.002
324.212	17.162	1890.073	1837.807
325.227	16.963	1888.566	1833.965
326.241	16.986	1886.207	1831.702
327.256	17.058	1885.533	1831.604
328.270	17.179	1884.165	1831.374
329.285	17.176	1884.224	1831.176
330.300	18.332	1890.183	1849.305
331.314	22.137	1896.674	1896.806
332.329	22.228	1891.524	1892.407
333.343	18.693	1880.680	1843.242
334.358	17.449	1875.495	1824.549
335.373	17.161	1874.329	1820.091
336.387	16.934	1872.330	1815.488
337.402	16.860	1870.843	1813.038
338.416	17.062	1870.117	1814.287
339.431	17.205	1868.689	1814.221
340.446	17.278	1866.857	1813.002
341.460	17.498	1865.776	1814.098
342.475	17.973	1865.496	1818.689
343.489	18.079	1864.493	1818.624
344.504	18.008	1863.165	1816.351
345.519	18.003	1861.974	1814.926
346.533	18.199	1860.106	1814.980
347.548	18.259	1859.561	1814.863
348.562	18.608	1860.356	1819.143
349.577	20.060	1863.019	1837.022
350.592	20.496	1861.193	1839.643
351.606	19.445	1856.933	1824.044
352.621	18.820	1854.011	1814.322
353.635	18.332	1851.429	1806.403
354.650	17.991	1850.126	1801.309
355.665	17.871	1847.166	1796.938
356.679	17.573	1846.870	1793.280
357.694	17.622	1845.377	1792.134
358.708	17.573	1843.199	1789.291
359.723	18.937	1848.813	1808.961
360.738	22.608	1855.299	1853.964
361.752	22.051	1850.501	1843.075
362.767	18.824	1841.136	1799.609
363.781	17.843	1836.518	1784.570
364.796	17.690	1834.714	1781.004
365.810	17.603	1833.016	1778.221
366.825	17.541	1832.651	1777.013
367.840	18.096	1832.187	1782.166
368.854	18.534	1833.186	1787.510
369.869	19.231	1832.842	1794.263
370.883	18.646	1830.007	1785.161
371.898	18.427	1829.415	1782.073
372.913	18.196	1826.410	1776.524
373.927	18.305	1825.299	1776.364
374.942	18.254	1823.606	1773.978
375.956	18.182	1821.845	1771.306
376.971	18.047	1819.634	1767.532
377.986	17.840	1817.015	1762.632
379.000	17.770	1815.603	1760.327
380.015	17.824	1813.950	1759.072
381.029	17.494	1812.214	1753.765
382.044	17.193	1810.605	1748.874
383.059	17.170	1809.068	1746.947
384.073	17.178	1808.790	1746.558
385.088	17.369	1806.949	1746.541
386.102	17.291	1805.436	1744.064
387.117	17.273	1803.421	1741.717
388.132	17.218	1804.207	1741.706
389.146	18.462	1809.033	1759.001
390.161	22.215	1814.980	1803.340
391.175	22.020	1808.009	1794.195
392.190	18.525	1797.500	1747.805
393.205	17.563	1793.999	1734.341
394.219	17.424	1792.158	1730.936
395.234	17.427	1791.328	1729.956
396.248	17.507	1789.685	1728.984
397.263	17.397	1786.748	1724.814
398.278	17.384	1784.964	1722.760
399.292	17.315	1785.350	1722.222
400.307	17.261	1785.346	1721.460
401.321	17.504	1784.354	1722.769
402.336	17.668	1781.779	1721.742
403.350	17.690	1781.043	1721.047
404.365	17.756	1779.690	1720.204
405.380	17.950	1779.470	1721.753
406.394	18.358	1778.759	1724.990
407.409	18.608	1777.338	1725.934
408.423	18.758	1776.295	1726.229
409.438	18.555	1774.486	1722.214
410.453	18.402	1773.519	1719.523
411.467	18.522	1771.623	1718.697
412.482	18.081	1769.854	1712.327
413.496	17.780	1767.142	1706.472
414.511	17.691	1765.549	1703.835
415.526	17.599	1763.014	1700.263
416.540	17.357	1762.300	1696.951
417.555	17.509	1761.903	1697.886
418.569	17.807	1761.794	1700.563
419.584	17.866	1761.293	1700.472
420.599	17.896	1761.436	1700.700
421.613	17.680	1760.038	1696.986
422.628	17.734	1757.915	1695.279
423.642	17.707	1755.928	1692.885
424.657	17.634	1754.113	1690.211
425.672	17.743	1753.453	1690.458
426.686	17.988	1752.248	1691.535
427.701	17.797	1751.585	1688.787
428.715	17.872	1750.230	1688.026
429.730	18.129	1749.283	1689.466
430.745	18.137	1747.274	1687.400
431.759	18.085	1747.119	1686.535
432.774	18.544	1747.567	1691.309
433.788	19.128	1747.555	1696.883
434.803	19.294	1748.245	1699.001
435.818	19.255	1747.374	1697.562
436.832	19.126	1746.301	1695.042
437.847	18.147	1739.722	1678.798
438.861	10.210	1717.625	1579.665
439.876	1.862	1701.488	1483.229
440.890	0.390	1698.052	1465.681
441.905	0.132	1697.205	1462.259
442.920	0.197	1695.776	1461.484
443.934	0.138	1694.541	1459.665
444.949	0.084	1693.453	1458.030
445.963	0.166	1692.144	1457.525
446.978	0.059	1691.636	1455.871
447.993	0.098	1689.889	1454.574
449.007	0.106	1687.973	1452.826
450.022	0.138	1685.652	1450.972
451.036	0.191	1683.958	1449.852
452.051	0.958	1688.774	1461.261
453.066	8.809	1706.150	1552.836
454.080	17.461	1719.983	1649.888
455.095	19.687	1725.495	1676.709
456.109	20.950	1726.099	1689.412
457.124	21.258	1725.417	1691.534
458.139	21.365	1726.038	1692.990
459.153	21.530	1724.972	1693.346
460.168	21.589	1722.751	1691.530
461.182	21.474	1720.704	1688.209
462.197	21.401	1718.402	1685.036
463.212	21.155	1717.139	1681.214
464.226	21.166	1716.140	1680.139
465.241	21.409	1715.702	1681.860
466.255	21.672	1714.334	1682.858
467.270	21.804	1712.542	1682.174
468.285	21.341	1711.366	1676.354
469.299	21.169	1710.221	1673.371
470.314	21.337	1707.709	1672.337
471.328	21.354	1706.696	1671.304
472.343	21.319	1705.760	1669.846
473.358	21.506	1704.480	1670.190
474.372	21.701	1702.959	1670.371
475.387	21.388	1701.843	1666.080
476.401	21.163	1699.781	1661.711
477.416	21.193	1698.457	1660.498
478.430	21.438	1697.779	1661.975
479.445	21.080	1697.177	1657.776
480.460	20.875	1695.545	1654.025
481.474	21.082	1694.379	1654.658
482.489	21.505	1693.853	1657.978
483.503	21.836	1692.709	1659.807
484.518	21.831	1691.393	1658.277
485.533	21.819	1689.445	1656.056
486.547	21.681	1688.640	1653.757
487.562	22.127	1688.124	1657.281
488.576	22.001	1686.949	1654.741
489.591	21.917	1684.684	1651.524
490.606	21.772	1683.223	1648.521
491.620	21.859	1681.455	1647.414
492.635	22.288	1680.093	1649.925
493.649	22.333	1679.568	1649.636
494.664	21.765	1677.933	1642.484
495.679	20.978	1675.291	1632.299
496.693	21.189	1675.196	1633.999
497.708	21.636	1674.370	1637.203
498.722	22.011	1673.426	1639.599
499.737	22.121	1672.019	1639.054
500.752	21.792	1670.363	1634.153
501.766	21.632	1668.689	1630.827
502.781	21.860	1666.983	1631.099
503.795	21.903	1665.503	1629.855
504.810	21.984	1664.137	1629.081
505.825	22.243	1664.433	1631.586
506.839	22.068	1663.217	1628.568
507.854	22.066	1661.049	1626.234
508.868	21.911	1660.477	1624.033
509.883	22.090	1659.510	1624.557
510.898	22.320	1658.934	1625.942
511.912	22.211	1656.725	1622.571
512.927	21.808	1654.476	1616.434
513.941	21.918	1653.024	1615.844
514.956	21.807	1651.492	1613.122
515.971	21.593	1650.575	1610.058
516.985	21.809	1649.520	1610.829
518.000	22.072	1649.178	1612.730
519.014	22.320	1648.213	1613.885
520.029	22.303	1647.868	1613.196
521.043	22.412	1645.496	1611.680
522.058	22.278	1643.844	1608.643
523.073	22.392	1643.862	1609.511
524.087	22.805	1643.209	1612.471
525.102	22.717	1641.552	1609.848
526.116	22.198	1638.437	1601.852
527.131	22.209	1637.370	1600.717
528.146	22.527	1637.957	1604.003
529.160	22.726	1636.389	1604.100
530.175	22.724	1636.165	1603.670
531.189	22.784	1635.386	1603.264
532.204	22.734	1634.260	1601.511
533.219	22.249	1632.158	1594.838
534.233	21.862	1630.536	1589.533
535.248	22.285	1630.186	1592.858
536.262	22.931	1629.971	1598.334
537.277	22.871	1628.069	1595.727
538.292	22.287	1626.471	1588.672
539.306	22.292	1624.518	1586.622
540.321	22.384	1623.226	1586.001
541.335	22.181	1621.370	1582.161
542.350	22.470	1620.721	1583.951
543.365	22.750	1618.906	1584.520
544.379	22.952	1618.042	1585.302
545.394	22.919	1617.120	1583.910
546.408	22.387	1615.129	1576.981
547.423	21.898	1612.853	1570.179
548.438	21.857	1612.163	1568.950
549.452	22.309	1611.319	1572.001
550.467	22.493	1610.737	1572.898
551.481	22.512	1609.437	1571.610
552.496	22.734	1609.265	1573.242
553.511	23.025	1608.833	1575.237
554.525	22.846	1608.060	1572.684
555.540	23.136	1607.268	1574.321
556.554	23.175	1606.200	1573.433
557.569	23.085	1603.297	1569.599
558.583	22.804	1602.018	1565.651
559.598	22.871	1600.942	1565.013
560.613	22.893	1600.212	1564.304
561.627	22.929	1598.666	1562.927
562.642	23.090	1597.704	1563.236
563.656	23.350	1597.230	1564.893
564.671	23.183	1596.610	1562.616
565.686	23.251	1594.552	1561.018
566.700	23.106	1592.422	1557.460
567.715	22.873	1590.466	1553.301
568.729	22.506	1588.798	1548.242
569.744	22.258	1586.898	1544.016
570.759	22.394	1586.279	1544.430
571.773	22.655	1585.351	1545.638
572.788	22.898	1584.764	1547.026
573.802	23.080	1583.924	1547.619
574.817	23.105	1582.963	1546.713
575.832	23.387	1581.772	1547.842
576.846	23.414	1580.049	1546.211
577.861	23.229	1578.128	1542.523
578.875	23.312	1578.147	1543.083
579.890	23.545	1577.916	1544.714
580.905	23.605	1576.261	1543.432
581.919	23.810	1576.119	1544.898
582.934	23.695	1575.854	1543.453
583.948	23.684	1573.951	1541.310
584.963	23.651	1572.101	1539.022
585.978	23.167	1570.029	1532.597
586.992	23.371	1569.886	1534.048
588.007	23.633	1569.564	1535.833
589.021	22.883	1566.832	1526.460
590.036	22.297	1565.311	1519.705
591.051	22.831	1564.592	1523.466
592.065	23.349	1563.490	1526.693
593.080	23.651	1561.674	1527.349
594.094	23.612	1560.286	1525.475
595.109	23.061	1557.537	1517.848
596.123	22.685	1555.949	1512.879
597.138	23.119	1556.775	1517.246
598.153	23.468	1555.282	1518.612
599.167	23.372	1554.062	1516.413
600.182	23.486	1553.756	1516.916
601.196	23.395	1552.602	1514.825
602.211	23.427	1551.493	1513.840
603.226	23.620	1550.661	1514.496
604.240	23.995	1548.978	1515.884
605.255	24.224	1548.022	1516.724
606.269	24.056	1546.880	1513.993
607.284	23.977	1545.560	1511.847
608.299	23.883	1544.678	1509.998
609.313	23.515	1543.041	1505.076
610.328	23.749	1542.121	1505.996
611.342	23.841	1540.838	1505.342
612.357	23.991	1540.689	1506.296
613.372	23.923	1539.670	1504.542
614.386	23.880	1537.851	1502.221
615.401	23.912	1537.288	1501.763
616.415	23.973	1536.604	1501.427
617.430	24.053	1536.195	1501.531
618.445	24.334	1534.610	1502.176
619.459	24.062	1532.953	1498.073
620.474	23.695	1531.211	1493.091
621.488	23.082	1528.713	1485.305
622.503	22.552	1527.531	1479.505
623.518	23.338	1528.404	1486.812
624.532	23.982	1527.830	1491.505
625.547	24.169	1526.294	1491.398
626.561	24.351	1526.657	1493.102
627.576	24.471	1525.790	1493.091
628.591	23.778	1522.940	1484.300
629.605	23.551	1520.500	1479.843
630.620	23.308	1518.435	1475.623
631.634	22.877	1517.099	1470.538
632.649	23.138	1516.635	1472.099
633.663	23.707	1515.951	1476.010
634.678	24.079	1516.725	1479.694
635.693	24.427	1514.982	1480.728
636.707	24.627	1514.528	1481.771
637.722	24.652	1513.963	1481.246
638.736	24.741	1512.286	1480.170
639.751	24.672	1510.624	1477.797
640.766	24.571	1509.736	1475.907
641.780	24.505	1508.440	1473.914
642.795	24.369	1508.151	1472.329
643.809	24.478	1506.760	1471.703
644.824	24.577	1505.558	1471.167
645.839	24.378	1504.425	1468.241
646.853	24.534	1502.619	1467.590
647.868	24.340	1501.623	1464.844
648.882	24.230	1500.778	1462.931
649.897	24.148	1499.005	1460.354
650.912	24.304	1497.460	1459.955
651.926	24.246	1496.896	1458.754
652.941	23.978	1494.694	1454.231
653.955	23.427	1492.094	1447.011
654.970	23.020	1489.583	1441.065
655.985	22.883	1488.281	1438.515
656.999	23.019	1487.870	1439.058
658.014	23.382	1487.556	1441.553
659.028	23.885	1487.285	1445.225
660.043	24.114	1487.317	1446.957
661.058	24.277	1486.157	1446.985
662.072	24.267	1485.281	1445.874
663.087	24.283	1483.791	1444.380
664.101	24.201	1482.407	1442.193
665.116	24.368	1481.721	1442.710
666.131	24.553	1480.766	1443.110
667.145	24.596	1479.280	1441.840
668.160	24.774	1479.080	1442.915
669.174	24.971	1478.267	1443.547
670.189	24.902	1476.240	1440.839
671.204	24.678	1475.297	1437.934
672.218	24.659	1474.426	1436.756
673.233	24.724	1473.985	1436.678
674.247	24.934	1473.465	1437.702
675.262	25.127	1472.156	1437.803
676.276	25.136	1470.556	1436.146
677.291	24.815	1469.506	1432.364
678.306	24.599	1467.812	1428.803
679.320	24.454	1466.613	1426.300
680.335	24.811	1466.970	1429.344
681.349	25.072	1466.222	1430.536
682.364	24.913	1464.895	1427.796
683.379	24.958	1463.375	1426.506
684.393	24.804	1461.824	1423.596
685.408	24.983	1461.187	1424.236
686.422	24.773	1459.873	1421.105
687.437	24.935	1459.432	1421.801
688.452	25.123	1459.083	1422.788
689.466	25.174	1456.496	1420.500
690.481	24.811	1455.301	1416.275
691.495	24.501	1453.744	1412.128
692.510	23.732	1450.891	1403.083
693.525	23.232	1448.804	1396.935
694.539	23.674	1449.227	1400.676
695.554	24.375	1450.733	1407.531
696.568	25.238	1449.747	1413.241
697.583	25.177	1449.386	1412.240
698.598	25.182	1448.623	1411.360
699.612	25.453	1446.807	1411.568
700.627	25.277	1445.853	1409.078
701.641	25.342	1444.358	1407.966
702.656	25.107	1443.628	1405.230
703.671	25.521	1443.083	1407.796
704.685	25.681	1441.879	1407.708
705.700	25.271	1440.777	1403.243
706.714	25.040	1438.719	1399.257
707.729	24.800	1436.770	1395.313
708.744	24.850	1435.100	1393.912
709.758	24.770	1434.172	1392.218
710.773	24.171	1432.375	1385.629
711.787	24.180	1430.253	1383.481
712.802	24.395	1429.811	1384.560
713.816	24.866	1429.340	1387.610
714.831	24.976	1429.257	1388.223
715.846	25.187	1428.536	1388.999
716.860	25.337	1427.395	1388.888
717.875	25.374	1425.814	1387.471
718.889	25.169	1424.834	1384.763
719.904	25.214	1424.273	1384.401
720.919	25.329	1423.766	1384.631
721.933	25.359	1423.174	1384.126
722.948	25.490	1421.671	1383.508
723.962	25.537	1420.919	1382.980
724.977	25.545	1420.430	1382.395
725.992	25.688	1419.327	1382.262
727.006	25.548	1417.456	1379.196
728.021	25.603	1415.910	1377.952
729.035	25.540	1415.296	1376.703
730.050	25.674	1414.312	1376.611
731.065	25.579	1413.447	1374.878
732.079	25.765	1412.335	1375.054
733.094	25.656	1410.552	1372.317
734.108	25.411	1409.192	1368.956
735.123	25.517	1407.409	1367.870
736.138	25.562	1406.293	1366.966
737.152	25.635	1405.867	1366.945
738.167	25.857	1405.531	1368.151
739.181	25.827	1404.740	1366.991
740.196	25.859	1403.954	1366.307
741.211	25.680	1402.819	1363.671
742.225	25.659	1401.812	1362.367
743.240	25.757	1400.154	1361.340
744.254	25.611	1399.118	1359.058
745.269	25.636	1397.589	1357.602
746.284	25.654	1397.018	1357.020
747.298	25.488	1395.430	1354.063
748.313	25.005	1393.860	1348.724
749.327	24.455	1392.038	1342.642
750.342	23.914	1390.397	1336.809
751.356	23.586	1388.589	1332.435
752.371	24.011	1388.150	1335.061
753.386	24.779	1389.061	1341.569
754.400	25.517	1389.166	1347.072
755.415	25.813	1388.527	1348.515
756.429	25.955	1387.375	1348.309
757.444	25.893	1385.765	1346.117
758.459	25.859	1385.180	1345.127
759.473	26.077	1383.850	1345.307
760.488	25.909	1382.731	1342.806
761.502	26.066	1381.303	1342.431
762.517	25.844	1380.391	1339.728
763.532	25.629	1378.917	1336.527
764.546	25.263	1376.989	1331.772
765.561	24.717	1375.031	1325.648
766.575	23.927	1372.722	1317.385
767.590	23.885	1371.882	1316.105
768.605	24.619	1372.131	1321.650
769.619	25.075	1371.276	1324.051
770.634	25.519	1370.349	1326.291
771.648	25.774	1370.606	1328.273
772.663	25.828	1370.445	1328.363
773.678	25.909	1370.049	1328.417
774.692	26.014	1369.322	1328.332
775.707	26.044	1368.577	1327.671
776.721	25.999	1367.491	1326.130
777.736	26.074	1366.079	1325.149
778.751	26.167	1365.315	1324.938
779.765	26.169	1363.726	1323.250
780.780	26.053	1362.933	1321.470
781.794	26.130	1362.272	1321.241
782.809	25.904	1361.123	1318.305
783.824	25.892	1359.360	1316.352
784.838	25.257	1357.130	1309.379
785.853	24.468	1355.302	1301.681
786.867	24.751	1355.002	1303.304
787.882	25.137	1355.540	1306.498
788.897	25.252	1354.641	1306.318
789.911	25.457	1353.982	1307.023
790.926	25.526	1353.482	1306.889
791.940	25.784	1351.789	1306.977
792.955	26.018	1349.897	1306.697
793.969	25.969	1349.296	1305.600
794.984	26.071	1348.796	1305.701
795.999	26.239	1347.481	1305.497
797.013	26.358	1345.595	1304.377
798.028	26.323	1345.178	1303.557
799.042	26.180	1344.791	1301.992
800.057	26.470	1343.509	1302.697
801.072	26.180	1342.765	1299.720
802.086	26.204	1340.729	1297.767
803.101	26.296	1339.879	1297.449
804.115	26.295	1339.507	1296.931
805.130	26.241	1339.098	1295.991
806.145	26.118	1337.411	1293.318
807.159	26.115	1335.013	1290.821
808.174	26.068	1333.574	1288.934
809.188	26.000	1332.699	1287.446
810.203	25.543	1330.940	1282.322
811.218	25.198	1328.541	1277.385
812.232	24.780	1326.886	1272.656
813.247	24.425	1326.098	1269.211
814.261	25.029	1326.401	1273.661
815.276	25.681	1326.020	1277.803
816.291	25.932	1325.884	1279.304
817.305	26.053	1325.455	1279.605
818.320	26.237	1323.727	1279.092
819.334	26.130	1322.661	1277.149
820.349	26.225	1321.670	1276.712
821.364	26.366	1319.793	1275.746
822.378	26.393	1318.379	1274.420
823.393	26.324	1316.810	1272.263
824.407	26.352	1315.804	1271.337
825.422	26.270	1315.430	1270.244
826.437	26.080	1314.225	1267.587
827.451	25.839	1312.209	1263.791
828.466	25.229	1309.217	1256.463
829.480	24.830	1306.870	1251.261
830.495	25.264	1305.573	1252.910
831.509	25.547	1306.862	1255.989
832.524	25.885	1306.815	1258.166
833.539	26.138	1305.309	1258.336
834.553	26.330	1304.302	1258.557
835.568	26.361	1303.420	1257.776
836.582	26.530	1301.768	1257.207
837.597	26.442	1300.617	1255.334
838.612	26.254	1299.853	1253.134
839.626	26.179	1297.795	1250.480
840.641	25.767	1296.623	1246.331
841.655	25.522	1294.878	1242.807
842.670	24.783	1292.553	1235.301
843.685	24.148	1291.766	1229.990
844.699	24.989	1291.347	1235.277
845.714	25.956	1290.395	1240.912
846.728	25.876	1290.428	1240.243
847.743	26.235	1289.328	1241.519
848.758	26.276	1289.054	1241.385
849.772	26.353	1287.936	1240.691
850.787	26.362	1286.793	1239.509
851.801	26.172	1285.833	1237.123
852.816	26.260	1284.647	1236.441
853.831	26.162	1282.405	1233.465
854.845	26.242	1280.576	1232.105
855.860	26.021	1279.252	1229.170
856.874	25.956	1277.730	1227.116
857.889	25.518	1276.219	1222.522
858.904	25.222	1273.834	1218.072
859.918	24.757	1271.705	1212.724
860.933	24.394	1270.308	1208.775
861.947	24.958	1270.742	1212.882
862.962	25.442	1269.955	1215.276
863.977	25.611	1269.174	1215.531
864.991	25.850	1268.515	1216.378
866.006	26.051	1268.779	1217.853
867.020	26.146	1267.650	1217.266
868.035	26.291	1266.500	1216.996
869.049	26.482	1265.791	1217.463
870.064	26.389	1265.014	1215.941
871.079	26.365	1264.068	1214.721
872.093	26.221	1263.523	1213.079
873.108	26.081	1262.517	1211.028
874.122	25.736	1260.914	1207.021
875.137	25.355	1259.219	1202.687
876.152	25.197	1257.655	1199.988
877.166	25.303	1256.510	1199.463
878.181	25.713	1255.416	1201.024
879.195	25.957	1256.047	1203.123
880.210	26.100	1255.452	1203.370
881.225	26.271	1254.852	1203.796
882.239	26.257	1253.269	1202.039
883.254	26.456	1251.949	1201.958
884.268	26.493	1251.122	1201.269
885.283	26.562	1250.093	1200.592
886.298	26.398	1248.346	1197.680
887.312	26.425	1247.451	1196.859
888.327	26.450	1246.213	1195.694
889.341	26.300	1244.489	1192.902
890.356	26.252	1244.131	1192.097
891.371	26.099	1244.417	1191.216
892.385	26.062	1243.551	1189.998
893.400	25.775	1242.508	1186.956
894.414	25.817	1240.492	1185.163
895.429	25.518	1237.974	1180.645
896.444	24.456	1235.552	1171.189
897.458	23.877	1234.134	1165.890
898.473	24.712	1233.901	1171.031
899.487	25.415	1234.310	1175.905
900.502	25.786	1234.396	1178.291
901.517	25.979	1232.972	1178.056
902.531	26.108	1232.031	1177.860
903.546	26.081	1231.605	1177.138
904.560	26.223	1231.188	1177.529
905.575	26.379	1230.196	1177.463
906.589	26.264	1229.150	1175.568
907.604	26.206	1228.183	1174.120
