DTS Sentinel unit serial number:	SN409020Multiplexer serial number:	ORYXHardware model number:	OX4-SRSoftware version number:	ORYX F/W v3.00 Oryx Data Collector v3.7.2.0data status	okinstallation	HaddamTimeLapsedifferential loss correction	single-endedforward channel	channel 3reverse channel	N/Adate	2011/06/22time	07:31:17forward acquisition time	30.00reverse acquisition time	0.00gamma	498.7831k internal	0.1757k external	0.1757temperature offset calibration	1.0074default loss term (dB/km)	0.3790temperature slope calibration	1.3530multiplexer offset coefficient	1.0000multiplexer slope coefficient	1.0000fibre end	0.00T internal ref (°C)	23.47T ext. ref 1 (°C)	20.85T ext. ref 2 (°C)	0.12length (m)	temperature (°C)	Stokes	anti-Stokes-747.200	30.307	0.355	0.402
-746.185	84.387	-0.158	0.229
-745.171	-40.064	0.103	-0.071
-744.156	67.004	-0.108	0.146
-743.142	405.952	0.149	0.418
-742.127	-115.524	0.342	0.085
-741.112	-120.356	-0.229	0.051
-740.098	-113.045	0.471	-0.122
-739.083	800.000	-0.044	0.258
-738.069	800.000	0.025	0.138
-737.054	32.347	-0.226	0.259
-736.039	-91.174	-0.236	0.089
-735.025	-65.523	-0.142	0.075
-734.010	-200.000	0.079	-0.541
-732.996	-104.367	-0.735	-0.224
-731.981	-88.045	0.424	0.167
-730.966	-33.956	-0.088	-0.064
-729.952	-124.550	-0.359	-0.073
-728.937	78.410	-0.218	0.308
-727.923	61.513	-0.132	-0.173
-726.908	-63.500	-0.283	-0.153
-725.894	-73.014	-0.135	-0.065
-724.879	158.439	0.138	-0.254
-723.864	-46.013	-0.246	-0.160
-722.850	800.000	-0.089	-0.370
-721.835	-124.092	0.174	-0.036
-720.821	44.566	-0.362	-0.441
-719.806	10.825	0.386	-0.389
-718.791	-61.867	-0.043	0.023
-717.777	-78.114	-0.302	0.137
-716.762	445.640	-0.267	0.779
-715.748	-12.187	-0.177	0.153
-714.733	1.943	0.331	-0.315
-713.718	-54.631	-0.196	0.117
-712.704	39.728	-0.196	0.233
-711.689	-168.945	0.545	0.027
-710.675	254.719	0.231	-0.525
-709.660	-99.924	0.764	-0.251
-708.645	-76.912	-0.079	0.036
-707.631	-102.173	-0.256	0.081
-706.616	-200.000	0.049	-0.575
-705.602	-80.691	-0.111	-0.048
-704.587	-96.904	-0.282	0.097
-703.572	423.581	0.069	-0.198
-702.558	116.140	0.377	-0.612
-701.543	-16.419	0.228	-0.191
-700.529	-130.079	0.351	-0.063
-699.514	-94.110	0.163	0.059
-698.499	-149.922	0.492	-0.050
-697.485	463.175	0.094	0.279
-696.470	-200.000	-0.040	-0.325
-695.456	-200.000	-0.041	-0.363
-694.441	-5.286	0.221	0.201
-693.426	11.045	0.330	0.333
-692.412	-87.971	-0.362	0.143
-691.397	-61.889	0.390	0.215
-690.383	69.141	0.314	-0.427
-689.368	85.340	-0.356	0.518
-688.354	66.302	-0.248	0.333
-687.339	83.924	0.223	0.322
-686.324	155.587	-0.188	-0.342
-685.310	93.180	-0.300	0.449
-684.295	-84.595	0.168	-0.069
-683.281	-80.672	-0.416	0.182
-682.266	-100.953	0.330	-0.106
-681.251	-60.520	0.619	0.346
-680.237	-155.138	-0.206	-0.018
-679.222	-55.710	-0.467	0.275
-678.208	-115.650	0.340	-0.084
-677.193	-123.637	0.457	0.095
-676.178	-45.758	-0.255	0.166
-675.164	60.046	-0.412	-0.539
-674.149	726.195	-0.108	-0.384
-673.135	132.203	0.168	0.286
-672.120	800.000	0.093	-0.417
-671.105	-50.550	-0.257	0.159
-670.091	26.250	-0.385	-0.424
-669.076	-129.543	0.222	0.040
-668.062	459.361	-0.054	0.159
-667.047	-81.051	0.306	0.133
-666.032	-200.000	0.066	-0.831
-665.018	800.000	0.045	0.174
-664.003	800.000	0.033	0.187
-662.989	186.521	-0.200	0.394
-661.974	363.400	-0.104	-0.278
-660.959	800.000	-0.021	-0.106
-659.945	-154.051	-0.323	0.029
-658.930	-110.202	0.197	0.054
-657.916	-80.149	-0.203	0.089
-656.901	184.444	0.049	0.096
-655.886	-66.007	0.429	-0.225
-654.872	99.298	-0.115	-0.175
-653.857	800.000	-0.134	-0.574
-652.843	-111.781	-0.290	-0.077
-651.828	160.797	-0.189	-0.349
-650.814	94.251	0.042	0.063
-649.799	-65.590	-0.291	0.153
-648.784	-38.341	-0.221	0.154
-647.770	-115.433	0.288	0.071
-646.755	20.703	-0.230	0.245
-645.741	-16.117	0.681	-0.570
-644.726	800.000	-0.090	-0.422
-643.711	-62.377	0.032	0.018
-642.697	-200.000	0.012	0.203
-641.682	-84.971	-0.291	0.120
-640.668	153.470	-0.124	-0.224
-639.653	800.000	-0.117	-0.458
-638.638	-98.887	-0.036	-0.012
-637.624	-150.375	-0.300	-0.030
-636.609	-14.193	0.245	0.208
-635.595	-157.790	-0.227	-0.018
-634.580	49.375	0.146	-0.181
-633.565	20.621	-0.214	0.228
-632.551	-82.586	0.265	-0.113
-631.536	485.085	0.127	-0.383
-630.522	-66.041	-0.399	-0.209
-629.507	232.022	0.058	0.125
-628.492	-3.937	-0.500	0.457
-627.478	-78.460	-0.509	0.229
-626.463	-43.604	-0.270	-0.179
-625.449	-92.277	0.490	0.181
-624.434	-70.932	-0.432	0.214
-623.419	220.050	-0.064	0.135
-622.405	-200.000	0.050	0.523
-621.390	162.862	0.104	-0.192
-620.376	25.682	-0.067	-0.073
-619.361	65.258	-0.327	0.436
-618.346	318.507	-0.108	0.272
-617.332	9.603	-0.306	0.305
-616.317	-157.338	0.052	-0.004
-615.303	-108.095	-0.452	-0.128
-614.288	-97.590	-0.379	0.129
-613.273	284.013	-0.046	0.109
-612.259	-200.000	0.079	-0.652
-611.244	165.830	-0.135	-0.252
-610.230	800.000	0.066	-0.320
-609.215	800.000	0.112	0.543
-608.201	-200.000	0.016	0.477
-607.186	-71.759	-0.808	0.395
-606.171	246.763	-0.088	0.197
-605.157	22.720	-0.262	-0.283
-604.142	161.764	0.144	0.266
-603.128	-68.334	-0.172	-0.088
-602.113	37.669	-0.220	-0.257
-601.098	85.995	0.170	0.246
-600.084	-200.000	0.012	-0.435
-599.069	-114.582	-0.288	0.072
-598.055	-37.188	-0.590	0.414
-597.040	800.000	0.106	0.424
-596.025	397.618	-0.164	0.452
-595.011	213.928	-0.070	-0.147
-593.996	690.508	0.098	-0.341
-592.982	21.127	0.148	-0.158
-591.967	-26.955	0.399	0.306
-590.952	-21.035	0.325	-0.262
-589.938	-117.632	0.070	-0.016
-588.923	-104.987	0.282	-0.084
-587.909	379.723	-0.081	0.220
-586.894	-80.184	-0.424	0.186
-585.879	800.000	0.152	0.557
-584.865	-200.000	0.013	0.155
-583.850	-112.644	-0.076	-0.020
-582.836	-32.675	0.205	-0.150
-581.821	-38.105	-0.188	0.131
-580.806	43.026	-0.392	0.470
-579.792	64.977	-0.317	0.421
-578.777	-139.411	0.206	0.029
-577.763	216.833	0.228	0.478
-576.748	-200.000	0.065	0.428
-575.733	-87.280	0.350	0.139
-574.719	-94.132	0.335	-0.120
-573.704	-200.000	0.007	0.502
-572.690	-140.087	0.589	0.081
-571.675	800.000	0.007	-0.038
-570.661	-59.366	-0.083	-0.047
-569.646	-160.805	-0.453	0.031
-568.631	-200.000	-0.028	-0.341
-567.617	-27.119	-0.241	-0.184
-566.602	800.000	0.044	-0.220
-565.588	471.525	0.129	-0.384
-564.573	15.769	0.054	-0.056
-563.558	-42.521	-0.381	-0.255
-562.544	738.443	-0.091	-0.324
-561.529	83.940	0.041	-0.059
-560.515	-200.000	0.038	0.224
-559.500	-200.000	0.002	0.318
-558.485	-33.038	-0.639	-0.465
-557.471	-138.286	-0.401	0.058
-556.456	-93.361	0.328	0.119
-555.442	-200.000	-0.006	0.371
-554.427	800.000	0.063	0.279
-553.412	-113.281	0.426	-0.109
-552.398	800.000	-0.054	-0.251
-551.383	94.404	0.123	0.184
-550.369	132.732	-0.092	-0.156
-549.354	691.333	-0.040	0.138
-548.339	390.619	-0.103	-0.283
-547.325	196.342	0.081	0.162
-546.310	119.935	0.204	-0.333
-545.296	-38.475	-0.382	-0.264
-544.281	259.508	0.111	0.254
-543.266	461.998	-0.117	-0.345
-542.252	-8.077	-0.220	-0.194
-541.237	-200.000	0.066	-0.435
-540.223	129.794	-0.147	0.248
-539.208	-111.207	0.140	0.037
-538.193	-12.853	-0.255	0.217
-537.179	564.431	0.042	0.134
-536.164	-200.000	-0.045	-0.428
-535.150	-33.815	0.194	-0.140
-534.135	-116.139	-0.117	0.028
-533.121	-152.345	-0.193	0.018
-532.106	18.545	0.160	0.168
-531.091	371.246	-0.271	-0.724
-530.077	296.587	-0.058	-0.141
-529.062	-123.815	-0.079	0.016
-528.048	28.689	0.066	0.074
-527.033	-34.487	-0.045	-0.032
-526.018	183.199	0.070	-0.136
-525.004	800.000	0.059	0.257
-523.989	-200.000	0.027	-0.332
-522.975	4.709	0.275	0.265
-521.960	-174.404	-0.220	-0.008
-520.945	65.760	-0.215	0.285
-519.931	352.997	0.039	-0.102
-518.916	53.203	0.224	0.282
-517.902	-137.406	0.183	0.027
-516.887	-32.917	0.266	0.194
-515.872	334.851	0.024	-0.060
-514.858	366.446	-0.142	-0.377
-513.843	-28.185	0.218	-0.165
-512.829	-200.000	0.084	0.512
-511.814	-33.367	0.528	-0.382
-510.799	345.928	0.184	-0.476
-509.785	-73.208	-0.658	-0.315
-508.770	16.988	0.345	-0.358
-507.756	800.000	-0.057	0.263
-506.741	-39.616	-0.272	0.186
-505.726	-137.628	-0.337	-0.049
-504.712	73.955	0.073	0.101
-503.697	-200.000	0.018	0.543
-502.683	111.756	-0.072	-0.115
-501.668	-200.000	-0.028	-0.352
-500.653	-66.691	0.217	-0.112
-499.639	257.556	-0.126	0.285
-498.624	232.529	-0.061	-0.131
-497.610	486.000	0.087	0.261
-496.595	-200.000	-0.056	0.000
-495.581	-65.602	0.077	0.040
-494.566	-155.132	-0.387	-0.033
-493.551	-46.631	-0.061	-0.039
-492.537	-117.308	-0.408	0.096
-491.522	304.813	0.042	0.104
-490.508	45.530	-0.292	-0.353
-489.493	-122.486	0.254	0.054
-488.478	-120.474	-0.149	0.033
-487.464	-200.000	-0.020	0.151
-486.449	-179.213	-0.125	-0.004
-485.435	-113.211	0.165	0.042
-484.420	-200.000	-0.012	0.233
-483.405	173.634	0.246	-0.467
-482.391	-154.957	0.454	0.039
-481.376	5.090	-0.151	-0.145
-480.362	-62.122	-0.487	-0.265
-479.347	-200.000	0.034	-0.264
-478.332	-182.686	-0.348	0.008
-477.318	-175.051	-0.209	0.007
-476.303	133.301	0.188	0.319
-475.289	-109.259	-0.414	-0.114
-474.274	126.142	-0.263	-0.437
-473.259	256.571	0.272	-0.615
-472.245	548.016	0.089	-0.281
-471.230	-79.596	0.353	-0.155
-470.216	800.000	0.095	-0.469
-469.201	398.348	-0.036	-0.099
-468.186	-91.195	-0.242	0.090
-467.172	-200.000	-0.025	-0.148
-466.157	-24.688	0.208	-0.162
-465.143	-55.779	0.302	-0.176
-464.128	-43.447	0.299	-0.197
-463.113	-71.635	-0.366	0.178
-462.099	-200.000	0.018	-0.555
-461.084	-200.000	0.011	-0.520
-460.070	-24.995	-0.085	-0.066
-459.055	-37.961	0.315	-0.218
-458.040	320.093	0.219	-0.547
-457.026	-59.725	-0.198	0.111
-456.011	736.723	-0.075	-0.265
-454.997	521.369	0.069	-0.214
-453.982	-93.442	-0.230	0.083
-452.968	349.016	-0.217	0.563
-451.953	-26.083	0.461	-0.354
-450.938	-169.148	0.384	0.018
-449.924	-106.974	0.231	0.066
-448.909	-95.667	-0.468	0.163
-447.895	-76.428	-0.271	-0.124
-446.880	-138.933	-0.601	-0.085
-445.865	8.324	0.338	0.332
-444.851	128.612	-0.149	0.249
-443.836	37.190	-0.103	0.119
-442.822	-117.167	0.225	-0.053
-441.807	271.297	-0.128	0.297
-440.792	-74.649	0.733	-0.343
-439.778	-200.000	0.047	-0.341
-438.763	-13.078	-0.418	-0.355
-437.749	63.643	0.117	-0.154
-436.734	-106.373	0.333	-0.097
-435.719	-200.000	-0.010	-0.110
-434.705	-57.917	0.209	0.119
-433.690	-121.683	0.258	-0.055
-432.676	48.835	0.154	-0.189
-431.661	313.282	0.073	-0.179
-430.646	-135.550	0.233	-0.036
-429.632	249.084	0.222	-0.495
-428.617	-111.112	-0.212	0.056
-427.603	-18.687	0.154	-0.125
-426.588	93.287	0.272	-0.403
-425.573	-60.257	0.351	-0.195
-424.559	-186.065	0.346	-0.007
-423.544	-200.000	0.026	-0.296
-422.530	303.273	-0.185	0.449
-421.515	361.238	-0.195	0.513
-420.500	-109.151	-0.358	0.099
-419.486	716.101	0.070	0.243
-418.471	-129.463	-0.445	0.080
-417.457	-104.249	-0.059	-0.018
-416.442	-163.031	0.147	-0.009
-415.428	-200.000	-0.009	-0.193
-414.413	45.601	-0.306	-0.369
-413.398	188.193	0.050	-0.098
-412.384	97.950	0.162	-0.244
-411.369	31.437	-0.059	0.066
-410.355	-115.238	-0.423	0.104
-409.340	-113.084	-0.312	0.080
-408.325	17.212	0.470	0.487
-407.311	-54.680	-0.307	-0.180
-406.296	-88.796	0.454	0.175
-405.282	-37.883	0.153	-0.106
-404.267	-59.282	-0.365	-0.205
-403.252	-200.000	0.006	-0.103
-402.238	500.128	-0.260	0.787
-401.223	15.447	0.348	0.357
-400.209	-64.795	0.521	0.275
-399.194	800.000	0.151	-0.723
-398.179	142.446	-0.260	0.451
-397.165	47.723	0.247	0.301
-396.150	800.000	0.065	-0.240
-395.136	-0.511	-0.019	-0.018
-394.121	-178.613	-0.159	-0.005
-393.106	94.364	-0.179	-0.266
-392.092	-151.863	-0.224	0.021
-391.077	208.077	0.080	-0.163
-390.063	-15.711	-0.186	0.155
-389.048	-106.853	0.168	0.048
-388.033	-43.570	0.202	0.132
-387.019	-163.725	0.284	0.017
-386.004	-87.214	0.472	-0.186
-384.990	-178.106	-0.009	-0.000
-383.975	-122.490	-0.058	-0.012
-382.960	137.433	-0.123	-0.210
-381.946	-200.000	-0.006	0.136
-380.931	-159.870	0.307	-0.022
-379.917	124.829	0.163	-0.269
-378.902	-200.000	0.056	0.332
-377.888	-144.916	0.125	0.015
-376.873	-200.000	0.022	0.287
-375.858	-10.229	-0.283	0.244
-374.844	-117.513	-0.269	0.063
-373.829	259.674	-0.093	0.209
-372.815	-3.616	-0.187	0.170
-371.800	-4.190	0.363	0.328
-370.785	-124.468	-0.204	-0.041
-369.771	-200.000	-0.029	-0.375
-368.756	-92.226	0.167	0.061
-367.742	24.182	-0.150	-0.162
-366.727	-200.000	-0.015	-0.218
-365.712	442.580	0.023	-0.067
-364.698	26.050	-0.200	0.218
-363.683	47.456	-0.214	0.260
-362.669	-9.669	-0.229	0.199
-361.654	52.704	-0.055	0.068
-360.639	90.256	-0.243	0.355
-359.625	101.156	0.149	-0.227
-358.610	-84.229	-0.332	-0.136
-357.596	-135.367	0.303	-0.047
-356.581	-140.810	-0.244	-0.032
-355.566	-158.228	-0.742	0.056
-354.552	-62.593	-0.177	-0.095
-353.537	163.956	0.160	-0.294
-352.523	453.217	-0.159	0.461
-351.508	-51.524	0.036	0.022
-350.493	241.805	0.092	0.201
-349.479	800.000	0.027	-0.116
-348.464	-82.024	0.228	0.096
-347.450	-74.161	0.487	-0.229
-346.435	169.828	-0.227	-0.424
-345.420	800.000	-0.028	-0.123
-344.406	-105.937	0.319	-0.093
-343.391	220.584	0.203	-0.426
-342.377	-139.546	-0.140	-0.019
-341.362	-140.628	-0.110	-0.015
-340.348	427.286	-0.131	0.371
-339.333	800.000	0.113	0.583
-338.318	-148.903	-0.050	0.005
-337.304	-10.090	0.162	-0.140
-336.289	-2.572	-0.289	-0.263
-335.275	-67.974	0.437	0.221
-334.260	-86.739	-0.291	0.115
-333.245	266.495	-0.008	-0.018
-332.231	76.277	-0.106	-0.146
-331.216	108.792	-0.057	0.088
-330.202	27.397	0.151	0.165
-329.187	47.320	0.319	0.387
-328.172	-23.280	-0.264	0.207
-327.158	-200.000	-0.034	0.338
-326.143	-78.271	0.265	0.118
-325.129	-155.660	-0.171	0.014
-324.114	-109.468	0.361	-0.099
-323.099	3.067	-0.130	0.123
-322.085	-89.597	0.619	-0.235
-321.070	37.092	-0.051	0.059
-320.056	-129.351	-0.172	-0.031
-319.041	114.124	-0.074	-0.117
-318.026	218.183	-0.153	0.320
-317.012	-200.000	0.004	0.557
-315.997	-200.000	-0.007	0.621
-314.983	-151.487	-0.103	-0.010
-313.968	251.767	-0.041	0.091
-312.953	-94.708	0.310	-0.109
-311.939	-142.277	0.202	-0.026
-310.924	22.507	0.210	0.223
-309.910	277.788	0.011	0.026
-308.895	147.841	-0.101	0.178
-307.880	60.362	-0.257	-0.331
-306.866	-107.167	0.147	-0.042
-305.851	800.000	0.023	-0.124
-304.837	-56.415	0.132	0.076
-303.822	-123.190	0.730	0.151
-302.807	13.572	0.327	0.330
-301.793	-32.688	-0.201	-0.146
-300.778	-74.644	0.695	0.324
-299.764	-200.000	-0.077	0.630
-298.749	800.000	-0.027	0.129
-297.735	466.956	-0.119	0.349
-296.720	-22.470	0.225	0.177
-295.705	-34.211	0.191	0.136
-294.691	17.092	-0.424	0.437
-293.676	-200.000	-0.056	0.523
-292.662	-200.000	0.034	0.266
-291.647	296.840	-0.169	0.404
-290.632	148.718	0.166	-0.292
-289.618	-123.140	0.446	-0.092
-288.603	-145.197	0.313	0.036
-287.589	451.380	-0.069	-0.198
-286.574	-200.000	-0.001	-0.414
-285.559	800.000	-0.143	-0.533
-284.545	477.907	0.024	-0.071
-283.530	156.366	-0.043	-0.078
-282.516	132.358	0.197	-0.331
-281.501	125.677	-0.145	-0.238
-280.486	66.559	0.095	-0.125
-279.472	11.107	0.185	0.184
-278.457	438.897	-0.053	-0.150
-277.443	-119.204	0.678	0.152
-276.428	-200.000	0.005	0.323
-275.413	285.430	-0.050	0.117
-274.399	210.262	0.242	-0.495
-273.384	377.286	0.072	0.191
-272.370	39.633	-0.162	-0.189
-271.355	-93.524	0.216	-0.077
-270.340	800.000	0.019	-0.079
-269.326	800.000	0.128	-0.507
-268.311	278.156	0.047	-0.109
-267.297	-200.000	-0.042	0.248
-266.282	-200.000	-0.008	0.257
-265.267	-155.318	0.562	0.047
-264.253	6.149	-0.157	-0.151
-263.238	-100.257	-0.482	-0.154
-262.224	-98.280	0.165	0.055
-261.209	237.470	0.105	-0.226
-260.195	800.000	0.113	-0.412
-259.180	800.000	-0.086	0.431
-258.165	-46.552	-0.070	0.045
-257.151	-142.962	0.367	0.046
-256.136	29.460	-0.108	0.119
-255.122	-51.969	-0.198	0.119
-254.107	188.509	-0.133	-0.260
-253.092	-13.941	-0.376	-0.315
-252.078	-200.000	-0.097	0.588
-251.063	762.174	0.049	0.173
-250.049	71.148	-0.128	-0.172
-249.034	-72.662	0.171	-0.081
-248.019	-9.682	0.387	-0.335
-247.005	-139.098	-0.674	0.094
-245.990	428.389	-0.131	0.370
-244.976	-200.000	0.006	0.103
-243.961	-167.301	0.177	-0.009
-242.946	-138.341	0.564	-0.080
-241.932	-24.549	0.153	-0.118
-240.917	86.611	-0.143	0.205
-239.903	-200.000	-0.188	0.000
-238.888	-136.731	0.845	-0.125
-237.873	-200.000	-0.014	-0.142
-236.859	-21.776	0.190	0.150
-235.844	105.290	-0.245	-0.377
-234.830	-129.075	-0.384	0.069
-233.815	59.828	-0.096	0.124
-232.800	-7.850	0.112	-0.098
-231.786	154.653	-0.180	-0.322
-230.771	-200.000	0.024	0.281
-229.757	800.000	0.042	-0.155
-228.742	-22.067	0.408	-0.321
-227.727	466.355	0.104	-0.303
-226.713	-66.694	-0.308	-0.157
-225.698	36.990	-0.025	0.028
-224.684	-167.882	0.091	-0.005
-223.669	800.000	-0.122	0.544
-222.655	-97.278	0.375	-0.126
-221.640	-68.387	0.122	0.061
-220.625	5.297	0.433	-0.414
-219.611	-14.983	0.261	-0.217
-218.596	-85.415	-0.153	-0.062
-217.582	-19.444	-0.111	0.089
-216.567	-176.975	0.752	0.024
-215.552	192.678	-0.047	0.092
-214.538	-185.070	0.337	-0.007
-213.523	386.663	-0.232	-0.624
-212.509	-126.271	0.095	0.018
-211.494	-51.862	-0.455	0.274
-210.479	-200.000	0.038	-0.225
-209.465	-33.191	0.291	-0.208
-208.450	800.000	-0.048	-0.177
-207.436	-166.048	0.077	-0.004
-206.421	513.700	-0.118	-0.359
-205.406	313.257	-0.199	0.486
-204.392	-200.000	-0.015	-0.204
-203.377	-83.640	-0.393	-0.162
-202.363	-97.414	-0.350	-0.117
-201.348	204.363	0.180	0.364
-200.333	-200.000	-0.002	-0.120
-199.319	-95.026	0.349	-0.121
-198.304	457.992	0.010	0.030
-197.290	-200.000	0.011	0.483
-196.275	-108.592	0.202	-0.056
-195.260	-55.362	-0.397	-0.230
-194.246	-107.658	-0.464	0.130
-193.231	-26.863	-0.050	0.038
-192.217	139.247	0.033	-0.056
-191.202	30.850	-0.142	-0.157
-190.187	0.427	-0.106	-0.098
-189.173	139.303	0.212	0.362
-188.158	-106.645	-0.216	0.062
-187.144	-51.404	0.314	0.190
-186.129	-6.927	-0.163	-0.143
-185.114	-107.269	-0.193	0.055
-184.100	-200.000	0.015	0.206
-183.085	-82.394	-0.191	-0.080
-182.071	-156.282	0.219	-0.018
-181.056	800.000	-0.109	-0.430
-180.042	48.211	-0.259	-0.314
-179.027	-125.744	-0.226	-0.044
-178.012	317.358	-0.145	0.356
-176.998	-43.346	0.135	0.088
-175.983	800.000	0.097	0.503
-174.969	-200.000	-0.012	0.072
-173.954	401.447	-0.062	0.168
-172.939	-137.661	-0.113	0.016
-171.925	-159.996	0.188	0.013
-170.910	70.923	-0.193	0.258
-169.896	-92.456	0.428	0.155
-168.881	-103.330	0.363	0.110
-167.866	-119.250	-0.673	-0.150
-166.852	322.470	-0.033	-0.081
-165.837	-143.393	-0.111	-0.014
-164.823	-123.424	-0.164	0.034
-163.808	120.311	0.243	-0.391
-162.793	-27.349	-0.152	0.115
-161.779	354.306	0.166	-0.428
-160.764	170.594	0.132	0.245
-159.750	-85.371	0.287	0.115
-158.735	-36.523	-0.334	-0.232
-157.720	16.734	-0.150	0.154
-156.706	29.606	0.218	0.239
-155.691	-98.181	0.256	-0.085
-154.677	800.000	-0.053	-0.262
-153.662	568.375	0.089	0.281
-152.647	-91.926	0.241	-0.088
-151.633	108.521	0.075	0.116
-150.618	-173.611	-0.210	0.008
-149.604	800.000	0.052	-0.296
-148.589	-200.000	0.036	0.258
-147.574	-82.335	-0.257	0.108
-146.560	-94.497	0.346	-0.121
-145.545	9.945	0.274	0.269
-144.531	-200.000	0.034	-0.258
-143.516	-61.428	0.130	-0.070
-142.502	60.561	0.130	-0.167
-141.487	-132.447	0.199	-0.033
-140.472	-162.059	-0.302	-0.019
-139.458	-197.418	0.390	-0.003
-138.443	118.765	0.050	-0.079
-137.429	-73.125	-0.334	-0.158
-136.414	-107.929	-0.246	0.069
-135.399	570.137	-0.125	0.394
-134.385	-184.288	0.297	-0.006
-133.370	-62.086	0.127	0.068
-132.356	-186.474	0.241	0.004
-131.341	-64.911	-0.166	0.086
-130.326	-200.000	0.028	0.443
-129.312	208.946	0.237	0.481
-128.297	800.000	0.089	0.413
-127.283	-71.599	0.146	-0.070
-126.268	-61.624	0.616	-0.333
-125.253	-62.191	0.152	-0.081
-124.239	156.269	0.253	-0.451
-123.224	-200.000	-0.012	0.311
-122.210	458.472	0.059	-0.170
-121.195	76.406	0.473	-0.648
-120.180	11.507	-0.272	0.269
-119.166	249.186	-0.115	-0.252
-118.151	-200.000	-0.057	-0.601
-117.137	800.000	0.058	-0.228
-116.122	260.807	-0.148	0.331
-115.107	-22.643	0.374	-0.291
-114.093	38.068	-0.072	0.083
-113.078	-79.894	0.810	0.350
-112.064	228.969	-0.210	0.445
-111.049	196.805	-0.263	-0.519
-110.034	-99.340	-0.294	0.095
-109.020	-19.466	-0.320	-0.255
-108.005	-11.284	-0.142	0.121
-106.991	56.234	-0.133	-0.166
-105.976	-200.000	0.056	-0.402
-104.962	-136.736	0.424	0.062
-103.947	-134.140	-0.183	0.029
-102.932	-82.784	0.273	0.113
-101.918	189.221	0.106	0.205
-100.903	-89.611	0.193	-0.073
-99.889	-200.000	0.003	-0.412
-98.874	-200.000	0.007	0.051
-97.859	61.859	0.254	0.327
-96.845	-44.278	0.248	-0.160
-95.830	101.316	0.284	0.427
-94.816	-200.000	-0.039	0.297
-93.801	800.000	0.115	0.471
-92.786	97.884	0.279	0.415
-91.772	-41.171	0.376	-0.249
-90.757	12.046	-0.196	-0.194
-89.743	51.536	0.269	-0.330
-88.728	-41.231	-0.394	-0.261
-87.713	-200.000	-0.007	0.123
-86.699	-102.203	-0.435	0.134
-85.684	800.000	-0.079	0.391
-84.670	-200.000	0.079	0.546
-83.655	32.274	0.209	-0.233
-82.640	-58.414	0.173	0.097
-81.626	37.685	-0.229	-0.262
-80.611	-55.279	0.062	-0.036
-79.597	172.969	0.193	0.360
-78.582	51.411	0.392	0.481
-77.567	-150.446	-0.339	-0.033
-76.553	-81.990	-0.437	-0.183
-75.538	160.648	-0.176	0.318
-74.524	22.754	-0.591	0.624
-73.509	800.000	-0.103	0.548
-72.494	74.238	-0.167	0.226
-71.480	68.973	0.089	0.118
-70.465	231.017	0.045	-0.095
-69.451	-101.421	-0.268	-0.084
-68.436	-67.703	-0.314	-0.158
-67.422	-146.599	-0.290	-0.032
-66.407	-114.522	-0.219	0.054
-65.392	334.848	-0.031	0.079
-64.378	257.118	-0.127	-0.282
-63.363	-88.431	-0.236	-0.090
-62.349	-59.074	0.386	0.214
-61.334	34.700	-2.198	-2.477
-60.319	60.354	0.933	1.190
-59.305	294.070	-3.213	-7.594
-58.290	72.656	3.768	5.072
-57.276	420.195	3.647	10.116
-56.261	-200.000	23.189	310.686
-55.246	367.187	1285.384	3358.457
-54.232	54.087	2842.062	3524.106
-53.217	52.619	2664.111	3280.710
-52.203	33.511	2395.301	2681.171
-51.188	29.063	2062.822	2254.306
-50.173	25.411	1948.497	2086.726
-49.159	24.235	1937.376	2061.072
-48.144	23.851	1932.516	2051.373
-47.130	23.692	1930.994	2047.832
-46.115	23.642	1929.744	2045.851
-45.100	23.756	1927.857	2045.082
-44.086	23.716	1926.363	2042.952
-43.071	23.698	1925.134	2041.359
-42.057	23.607	1923.571	2038.578
-41.042	23.575	1922.403	2036.888
-40.027	23.701	1919.652	2035.336
-39.013	23.657	1918.628	2033.668
-37.998	23.646	1917.013	2031.747
-36.984	23.648	1916.137	2030.760
-35.969	23.772	1914.809	2030.701
-34.954	23.677	1913.228	2027.854
-33.940	23.666	1911.909	2026.246
-32.925	23.610	1911.291	2024.875
-31.911	23.579	1910.570	2023.670
-30.896	23.451	1909.818	2021.324
-29.881	23.651	1906.819	2020.355
-28.867	23.551	1905.350	2017.579
-27.852	23.524	1904.048	2015.816
-26.838	23.520	1902.652	2014.209
-25.823	23.587	1901.334	2013.492
-24.809	23.523	1900.933	2012.264
-23.794	23.476	1899.779	2010.422
-22.779	23.501	1898.061	2008.813
-21.765	23.495	1896.747	2007.280
-20.750	23.435	1895.799	2005.505
-19.736	23.442	1893.844	2003.442
-18.721	23.365	1893.006	2001.601
-17.706	23.304	1892.564	2000.357
-16.692	23.367	1890.774	1999.105
-15.677	23.287	1890.045	1997.350
-14.663	23.364	1888.276	1996.272
-13.648	23.277	1886.876	1993.724
-12.633	23.397	1885.301	1993.344
-11.619	23.332	1884.472	1991.655
-10.604	23.394	1882.817	1990.517
-9.590	23.331	1881.341	1988.173
-8.575	23.346	1881.027	1987.933
-7.560	23.393	1878.716	1985.935
-6.546	23.345	1877.976	1984.532
-5.531	23.233	1877.132	1982.307
-4.517	23.208	1875.724	1980.462
-3.502	23.319	1874.632	1980.471
-2.487	23.365	1873.415	1979.631
-1.473	23.614	1869.742	1978.455
-0.458	23.576	1853.549	1960.829
0.556	20.805	2001.211	2071.573
1.571	19.742	2208.207	2271.535
2.586	20.570	2248.407	2323.739
3.600	20.757	2249.701	2327.317
4.615	20.706	2249.071	2325.696
5.629	20.755	2247.680	2324.640
6.644	20.697	2245.112	2320.924
7.659	20.698	2243.316	2318.804
8.673	20.664	2241.290	2315.979
9.688	20.555	2249.673	2322.905
10.702	19.407	2329.939	2389.508
11.717	17.781	2393.725	2431.362
12.731	8.767	2371.073	2279.616
13.746	1.403	2350.900	2155.207
14.761	0.325	2347.362	2136.355
15.775	0.155	2345.562	2132.039
16.790	0.144	2344.062	2130.257
17.804	0.108	2342.759	2128.311
18.819	0.131	2341.370	2127.120
19.834	0.120	2340.615	2126.025
20.848	0.026	2338.590	2122.599
21.863	0.108	2336.710	2121.798
22.877	0.120	2334.476	2119.686
23.892	0.129	2332.557	2117.822
24.907	0.060	2330.376	2114.602
25.921	0.044	2329.066	2112.945
26.936	0.147	2325.754	2111.131
27.950	0.158	2323.340	2108.851
28.965	0.193	2320.989	2106.950
29.980	0.207	2319.277	2105.341
30.994	0.191	2317.704	2103.433
32.009	4.406	2331.382	2175.038
33.023	15.200	2363.840	2358.493
34.038	20.120	2373.296	2437.365
35.053	20.762	2370.537	2443.294
36.067	20.743	2368.479	2440.625
37.082	20.614	2366.298	2436.261
38.096	20.708	2363.842	2434.761
39.111	20.787	2363.000	2434.714
40.126	20.971	2361.597	2435.566
41.140	21.307	2359.716	2438.037
42.155	20.949	2357.607	2430.562
43.169	20.788	2355.899	2426.256
44.184	20.960	2353.622	2426.026
45.199	21.011	2352.206	2424.979
46.213	20.973	2349.654	2421.526
47.228	20.891	2348.557	2418.971
48.242	20.971	2347.122	2418.310
49.257	21.048	2344.836	2416.744
50.271	20.889	2341.614	2410.922
51.286	20.775	2339.193	2406.551
52.301	20.738	2338.192	2404.727
53.315	20.594	2338.479	2402.730
54.330	21.166	2337.296	2409.166
55.344	21.453	2334.781	2410.267
56.359	21.428	2331.259	2405.989
57.374	21.398	2330.425	2404.426
58.388	21.482	2328.570	2403.386
59.403	21.486	2325.793	2400.282
60.417	21.635	2321.655	2397.776
61.432	21.585	2321.880	2397.038
62.447	21.765	2320.041	2397.327
63.461	21.820	2318.777	2396.491
64.476	21.923	2315.074	2393.795
65.490	21.800	2315.816	2392.579
66.505	21.944	2313.850	2392.241
67.520	21.511	2311.056	2383.134
68.534	20.820	2305.948	2368.139
69.549	20.649	2303.413	2362.917
70.563	20.856	2302.054	2364.069
71.578	20.935	2300.043	2362.793
72.593	21.072	2297.900	2362.175
73.607	21.291	2297.133	2364.092
74.622	21.270	2296.163	2362.525
75.636	21.177	2291.837	2356.524
76.651	21.129	2289.892	2353.585
77.666	21.254	2287.823	2352.870
78.680	21.117	2286.193	2349.065
79.695	21.000	2285.415	2346.402
80.709	21.111	2283.595	2345.744
81.724	21.264	2280.829	2344.687
82.739	21.168	2279.100	2341.342
83.753	21.229	2276.917	2339.637
84.768	21.183	2275.868	2337.669
85.782	21.217	2275.529	2337.492
86.797	21.167	2273.056	2334.006
87.812	21.081	2270.205	2329.635
88.826	20.971	2268.314	2325.952
89.841	21.360	2265.555	2328.050
90.855	21.339	2265.198	2327.117
91.870	21.201	2263.332	2323.077
92.884	21.248	2260.623	2320.649
93.899	21.196	2258.882	2317.893
94.914	21.127	2259.102	2316.917
95.928	21.348	2259.872	2320.382
96.943	21.387	2257.408	2318.091
97.957	21.119	2254.045	2310.791
98.972	20.968	2251.813	2306.224
99.987	20.756	2248.283	2299.515
101.001	20.852	2244.193	2296.324
102.016	20.901	2244.199	2296.709
103.030	20.949	2242.088	2294.904
104.045	21.092	2239.384	2293.758
105.060	21.303	2238.624	2295.493
106.074	21.345	2236.793	2293.892
107.089	20.890	2234.335	2285.106
108.103	21.038	2233.310	2285.723
109.118	21.187	2231.289	2285.348
110.133	21.321	2230.012	2285.524
111.147	21.422	2227.650	2284.156
112.162	21.437	2227.134	2283.551
113.176	21.219	2223.981	2277.184
114.191	20.992	2222.347	2272.272
115.206	20.941	2220.709	2269.660
116.220	20.951	2218.488	2267.246
117.235	20.999	2215.592	2264.645
118.249	20.704	2213.245	2258.119
119.264	20.914	2213.401	2260.751
120.279	21.183	2211.568	2262.115
121.293	21.102	2209.102	2258.261
122.308	20.980	2207.579	2254.850
123.322	20.890	2206.391	2252.197
124.337	20.812	2205.002	2249.495
125.352	21.315	2206.802	2257.606
126.366	21.519	2206.058	2259.221
127.381	20.937	2199.396	2244.598
128.395	20.546	2196.016	2235.824
129.410	20.767	2195.012	2237.392
130.424	20.819	2194.131	2236.896
131.439	20.664	2192.029	2232.480
132.454	20.548	2190.159	2228.818
133.468	20.809	2188.453	2230.171
134.483	20.729	2186.438	2226.823
135.497	20.639	2184.019	2222.938
136.512	20.841	2182.249	2223.468
137.527	20.782	2181.038	2221.211
138.541	20.818	2179.562	2219.894
139.556	20.684	2178.409	2216.737
140.570	20.616	2177.302	2214.484
141.585	20.831	2175.279	2214.910
142.600	20.952	2174.856	2215.752
143.614	20.869	2173.869	2213.423
144.629	21.099	2170.293	2212.445
145.643	20.921	2168.101	2207.683
146.658	20.772	2167.431	2204.836
147.673	21.016	2165.041	2205.246
148.687	21.226	2164.583	2207.188
149.702	21.282	2163.969	2207.002
150.716	21.142	2163.463	2204.455
151.731	21.452	2162.704	2207.344
152.746	21.420	2161.477	2205.422
153.760	21.201	2159.739	2200.614
154.775	21.350	2159.320	2201.806
155.789	21.235	2156.827	2197.542
156.804	20.840	2152.347	2187.728
157.819	20.828	2150.742	2185.693
158.833	21.028	2147.791	2184.946
159.848	21.218	2146.086	2185.338
160.862	21.387	2145.212	2186.320
161.877	21.547	2143.883	2186.713
162.892	21.354	2143.391	2183.519
163.906	21.327	2142.070	2181.580
164.921	21.323	2138.644	2177.778
165.935	21.178	2136.840	2173.864
166.950	21.115	2134.678	2170.621
167.964	20.918	2131.886	2165.063
168.979	20.739	2130.073	2160.722
169.994	20.866	2129.872	2161.848
171.008	21.098	2126.819	2161.371
172.023	20.917	2126.586	2158.625
173.037	21.054	2125.061	2158.521
174.052	20.972	2122.918	2155.076
175.067	20.789	2120.090	2149.672
176.081	20.821	2119.610	2149.331
177.096	20.898	2117.974	2148.363
178.110	20.625	2116.041	2142.763
179.125	20.568	2115.306	2141.058
180.140	20.872	2114.106	2143.345
181.154	20.774	2112.654	2140.414
182.169	20.480	2111.531	2135.382
183.183	20.559	2110.071	2134.625
184.198	21.224	2110.363	2142.870
185.213	21.287	2109.066	2142.072
186.227	20.993	2106.848	2135.949
187.242	20.875	2103.620	2130.970
188.256	20.812	2102.615	2128.919
189.271	21.243	2102.160	2133.502
190.286	21.226	2099.926	2130.763
191.300	20.854	2097.110	2123.093
192.315	20.674	2095.102	2118.606
193.329	20.998	2094.366	2121.577
194.344	21.096	2094.143	2122.291
195.359	21.014	2092.805	2119.684
196.373	21.048	2089.988	2116.987
197.388	21.092	2087.610	2114.866
198.402	20.964	2084.364	2109.762
199.417	20.890	2082.953	2107.180
200.432	20.847	2081.774	2105.209
201.446	21.230	2081.507	2109.337
202.461	21.208	2079.648	2106.943
203.475	20.980	2077.307	2101.549
204.490	20.997	2076.268	2100.456
205.504	21.019	2072.987	2097.150
206.519	20.879	2071.034	2093.231
207.534	20.988	2069.282	2092.531
208.548	20.960	2068.962	2091.614
209.563	21.101	2066.743	2090.822
210.577	20.891	2065.334	2086.616
211.592	21.157	2065.118	2089.356
212.607	21.335	2065.152	2091.272
213.621	21.538	2065.612	2093.928
214.636	21.280	2063.113	2088.046
215.650	20.986	2060.376	2081.508
216.665	20.975	2058.800	2079.524
217.680	21.351	2056.938	2081.906
218.694	21.508	2056.169	2082.756
219.709	21.461	2053.961	2079.710
220.723	21.423	2053.075	2078.109
221.738	21.287	2050.419	2073.552
222.753	21.218	2047.899	2069.934
223.767	21.159	2047.071	2068.135
224.782	21.015	2043.513	2062.584
225.796	20.882	2043.306	2060.554
226.811	21.107	2041.746	2061.407
227.826	21.057	2040.028	2058.826
228.840	21.114	2039.284	2058.508
229.855	20.909	2038.107	2054.640
230.869	20.865	2036.371	2052.125
231.884	21.062	2034.431	2052.253
232.899	20.915	2031.495	2047.314
233.913	20.931	2030.727	2046.481
234.928	20.928	2030.126	2045.592
235.942	21.049	2028.120	2044.751
236.957	21.155	2026.484	2044.115
237.972	20.970	2026.239	2041.439
238.986	21.239	2025.148	2043.257
240.001	20.929	2023.182	2037.384
241.015	20.790	2021.022	2033.336
242.030	20.898	2021.349	2034.687
243.045	21.437	2019.902	2039.309
244.059	21.262	2018.299	2035.396
245.074	20.985	2014.734	2028.322
246.088	20.703	2012.353	2022.386
247.103	20.680	2010.031	2019.542
248.117	20.936	2010.011	2022.271
249.132	21.014	2009.638	2022.567
250.147	20.952	2005.683	2017.623
251.161	20.728	2003.514	2012.594
252.176	20.841	2002.638	2012.783
253.190	21.293	2001.855	2017.006
254.205	21.123	1999.014	2011.929
255.220	20.892	2000.025	2010.023
256.234	21.064	1997.628	2009.370
257.249	21.047	1995.584	2006.874
258.263	20.968	1994.762	2004.891
259.278	20.963	1993.960	2003.790
260.293	20.838	1991.651	1999.793
261.307	20.818	1990.150	1997.806
262.322	20.915	1988.795	1997.327
263.336	20.905	1985.930	1994.094
264.351	20.829	1984.829	1991.884
265.366	20.974	1983.651	1992.130
266.380	21.038	1983.221	1992.188
267.395	20.783	1981.916	1987.718
268.409	20.902	1979.840	1986.754
269.424	21.082	1979.033	1987.774
270.439	21.231	1978.840	1989.050
271.453	21.444	1976.047	1988.431
272.468	21.303	1976.112	1986.647
273.482	21.263	1974.175	1984.014
274.497	20.962	1971.468	1977.625
275.512	21.126	1968.107	1975.875
276.526	21.106	1966.135	1973.433
277.541	21.103	1964.330	1971.347
278.555	21.027	1962.524	1968.438
279.570	20.755	1961.230	1963.825
280.585	20.670	1958.995	1960.392
281.599	20.977	1957.898	1962.528
282.614	21.156	1957.952	1964.376
283.628	21.308	1955.972	1963.866
284.643	21.276	1956.337	1963.640
285.657	21.440	1954.798	1963.707
286.672	21.363	1953.064	1960.867
287.687	21.035	1950.693	1954.562
288.701	21.025	1948.720	1952.229
289.716	20.932	1947.655	1949.890
290.730	20.734	1945.642	1945.411
291.745	20.877	1944.254	1945.403
292.760	20.893	1943.491	1944.579
293.774	20.834	1942.997	1943.196
294.789	21.097	1941.502	1944.409
295.803	20.933	1939.684	1940.527
296.818	20.829	1938.833	1938.270
297.833	20.914	1937.121	1937.278
298.847	20.807	1935.748	1934.484
299.862	20.809	1934.567	1933.089
300.876	20.813	1932.578	1930.919
301.891	21.267	1932.816	1935.984
302.906	21.733	1932.196	1940.315
303.920	21.281	1930.925	1933.784
304.935	21.039	1926.805	1926.744
305.949	20.900	1923.982	1922.148
306.964	20.888	1922.741	1920.544
307.979	21.089	1922.192	1921.991
308.993	20.896	1919.476	1916.914
310.008	20.865	1918.255	1915.117
311.022	21.118	1917.212	1916.645
312.037	21.108	1915.233	1914.319
313.052	21.018	1913.423	1911.292
314.066	20.888	1911.901	1908.119
315.081	20.877	1910.557	1906.425
316.095	20.850	1909.029	1904.378
317.110	20.743	1907.996	1901.941
318.125	20.967	1906.966	1903.141
319.139	21.170	1905.857	1904.039
320.154	21.263	1904.784	1903.750
321.168	21.256	1903.133	1901.800
322.183	21.218	1901.459	1899.480
323.197	21.134	1899.760	1896.636
324.212	20.907	1897.446	1891.623
325.227	20.843	1896.692	1889.948
326.241	21.185	1894.588	1891.351
327.256	21.322	1893.519	1891.551
328.270	21.135	1893.083	1888.851
329.285	21.146	1892.712	1888.374
330.300	21.271	1893.581	1890.376
331.314	21.522	1892.497	1891.791
332.329	21.379	1889.548	1887.068
333.343	21.209	1886.726	1882.189
334.358	21.393	1884.891	1882.120
335.373	21.302	1883.656	1879.682
336.387	21.334	1881.218	1877.366
337.402	21.319	1880.041	1875.805
338.416	21.225	1878.040	1872.571
339.431	21.136	1877.377	1870.731
340.446	21.535	1876.559	1873.989
341.460	21.577	1873.783	1871.442
342.475	21.455	1871.880	1868.002
343.489	21.331	1871.111	1865.686
344.504	21.266	1870.677	1864.326
345.519	21.183	1868.908	1861.455
346.533	21.188	1866.183	1858.573
347.548	21.309	1865.209	1858.668
348.562	21.301	1863.640	1856.804
349.577	21.189	1862.792	1854.532
350.592	20.958	1861.214	1850.283
351.606	21.028	1859.794	1849.398
352.621	20.741	1857.470	1843.801
353.635	20.561	1856.099	1840.304
354.650	20.699	1854.703	1840.167
355.665	20.730	1853.140	1838.727
356.679	20.755	1851.888	1837.535
357.694	20.777	1850.425	1836.096
358.708	20.890	1850.370	1837.013
359.723	21.239	1849.835	1839.958
360.738	21.544	1849.383	1842.515
361.752	21.379	1847.930	1839.112
362.767	20.863	1844.645	1830.174
363.781	20.838	1842.909	1827.961
364.796	20.838	1841.976	1826.826
365.810	20.894	1839.784	1825.021
366.825	20.974	1838.691	1824.554
367.840	20.973	1838.212	1823.849
368.854	20.800	1836.889	1820.500
369.869	20.602	1834.181	1815.520
370.883	20.560	1833.105	1813.804
371.898	20.814	1832.283	1815.438
372.913	20.918	1832.599	1816.623
373.927	21.215	1831.935	1818.856
374.942	21.297	1830.847	1818.412
375.956	21.341	1828.828	1816.649
376.971	21.091	1825.263	1810.282
377.986	20.716	1823.543	1804.458
379.000	20.651	1822.479	1802.506
380.015	21.141	1822.182	1807.096
381.029	21.445	1821.228	1809.094
382.044	21.338	1819.542	1806.098
383.059	21.238	1817.167	1802.488
384.073	20.999	1815.814	1798.454
385.088	20.936	1814.143	1795.922
386.102	21.042	1811.709	1794.397
387.117	20.731	1810.690	1789.962
388.132	20.730	1809.369	1788.431
389.146	20.962	1811.487	1792.709
390.161	21.499	1810.848	1797.412
391.175	21.517	1806.916	1793.477
392.190	21.024	1801.905	1783.226
393.205	20.651	1799.633	1776.930
394.219	20.853	1799.020	1778.187
395.234	20.937	1798.184	1778.010
396.248	20.994	1797.068	1777.278
397.263	20.812	1794.045	1772.211
398.278	20.682	1791.933	1768.584
399.292	20.662	1791.796	1768.028
400.307	21.198	1791.677	1773.174
401.321	21.374	1790.530	1773.620
402.336	21.117	1788.784	1769.067
403.350	21.042	1787.418	1766.741
404.365	21.438	1786.532	1769.676
405.380	21.712	1785.272	1771.008
406.394	21.487	1784.865	1768.106
407.409	21.353	1783.598	1765.277
408.423	21.176	1781.496	1761.193
409.438	21.027	1778.465	1756.474
410.453	21.106	1777.088	1755.701
411.467	21.017	1776.920	1754.424
412.482	21.028	1776.132	1753.553
413.496	21.111	1774.213	1752.278
414.511	20.894	1771.996	1747.695
415.526	20.806	1769.288	1743.930
416.540	20.691	1768.729	1742.015
417.555	20.718	1768.329	1741.686
418.569	20.653	1767.577	1740.075
419.584	20.694	1767.879	1740.581
420.599	20.913	1767.522	1742.224
421.613	21.036	1766.167	1741.908
422.628	21.104	1765.852	1742.076
423.642	21.215	1763.726	1740.882
424.657	21.195	1761.073	1737.851
425.672	20.977	1759.545	1733.957
426.686	20.785	1758.274	1730.584
427.701	20.569	1756.716	1726.687
428.715	20.355	1754.551	1722.216
429.730	20.461	1753.295	1721.832
430.745	20.540	1752.337	1721.474
431.759	20.468	1751.834	1720.058
432.774	20.448	1750.215	1718.059
433.788	20.325	1749.420	1715.856
434.803	20.364	1747.818	1714.464
435.818	20.264	1748.194	1713.631
436.832	20.158	1747.311	1711.509
437.847	18.998	1739.083	1691.790
438.861	10.414	1716.329	1585.365
439.876	1.841	1700.336	1486.601
440.890	0.429	1695.811	1468.658
441.905	0.315	1695.234	1466.866
442.920	0.290	1693.819	1465.226
443.934	0.206	1692.548	1463.130
444.949	0.164	1691.365	1461.517
445.963	0.210	1690.481	1461.031
446.978	0.108	1690.496	1459.872
447.993	0.220	1688.823	1459.342
449.007	0.031	1686.542	1455.362
450.022	0.094	1684.790	1454.284
451.036	0.184	1683.651	1454.004
452.051	0.629	1685.417	1459.674
453.066	7.998	1703.393	1547.209
454.080	17.299	1719.065	1652.528
455.095	19.430	1721.773	1675.758
456.109	19.802	1721.329	1678.755
457.124	19.824	1720.874	1678.324
458.139	19.818	1720.170	1677.381
459.153	19.768	1718.882	1675.440
460.168	19.800	1716.898	1673.618
461.182	19.749	1715.474	1671.534
462.197	19.917	1714.369	1671.887
463.212	19.962	1712.479	1670.278
464.226	20.126	1710.895	1670.123
465.241	19.927	1710.033	1667.158
466.255	19.956	1708.635	1665.869
467.270	19.979	1706.993	1664.295
468.285	20.069	1706.504	1664.487
469.299	19.986	1705.157	1662.177
470.314	19.896	1703.447	1659.442
471.328	19.981	1701.402	1658.065
472.343	19.919	1701.003	1656.879
473.358	19.973	1699.313	1655.554
474.372	19.890	1698.295	1653.570
475.387	19.922	1697.694	1653.090
476.401	19.810	1695.927	1650.099
477.416	19.859	1694.137	1648.629
478.430	19.691	1693.459	1646.164
479.445	19.838	1691.823	1645.786
480.460	19.922	1691.136	1645.724
481.474	19.919	1689.890	1644.284
482.489	19.899	1688.688	1642.725
483.503	19.854	1685.950	1639.442
484.518	19.836	1684.200	1637.366
485.533	19.825	1683.844	1636.723
486.547	19.645	1682.181	1633.202
487.562	19.563	1680.164	1630.269
488.576	19.601	1679.059	1629.358
489.591	19.749	1678.447	1629.976
490.606	19.824	1677.582	1629.651
491.620	19.903	1675.901	1628.574
492.635	19.783	1673.337	1624.750
493.649	19.675	1672.824	1623.040
494.664	19.817	1671.914	1623.297
495.679	19.996	1670.789	1623.699
496.693	20.047	1669.543	1622.778
497.708	19.925	1667.943	1619.880
498.722	19.894	1665.878	1617.384
499.737	19.847	1665.198	1616.094
500.752	19.818	1664.427	1614.879
501.766	19.842	1663.226	1613.748
502.781	19.699	1661.065	1610.121
503.795	19.780	1659.790	1609.444
504.810	19.936	1658.584	1609.540
505.825	19.880	1657.256	1607.539
506.839	19.792	1656.958	1606.233
507.854	19.808	1655.505	1604.783
508.868	19.702	1653.620	1601.777
509.883	19.784	1652.984	1601.735
510.898	19.614	1651.780	1598.795
511.912	19.576	1649.671	1596.204
512.927	19.666	1647.484	1594.736
513.941	19.624	1646.710	1593.403
514.956	19.778	1645.853	1593.814
515.971	19.776	1643.949	1591.761
516.985	19.631	1643.609	1589.900
518.000	19.599	1643.057	1588.874
519.014	19.440	1641.431	1585.647
520.029	19.560	1638.967	1584.185
521.043	19.331	1638.655	1581.580
522.058	19.589	1637.133	1582.299
523.073	19.633	1636.278	1581.686
524.087	19.600	1634.002	1578.997
525.102	19.597	1633.555	1578.344
526.116	19.614	1633.369	1578.137
527.131	19.930	1631.905	1579.432
528.146	19.645	1631.348	1576.085
529.160	19.643	1629.598	1574.186
530.175	19.657	1628.522	1573.089
531.189	19.435	1628.088	1570.453
532.204	19.673	1625.202	1569.653
533.219	19.753	1624.608	1569.622
534.233	19.655	1624.763	1568.689
535.248	19.714	1623.180	1567.510
536.262	19.383	1621.783	1562.955
537.277	19.466	1620.219	1562.023
538.292	19.577	1618.925	1561.595
539.306	19.552	1616.804	1559.131
540.321	19.326	1616.293	1556.401
541.335	19.437	1614.479	1555.483
542.350	19.595	1612.570	1554.883
543.365	19.382	1611.321	1551.563
544.379	19.481	1609.508	1550.532
545.394	19.460	1608.223	1548.916
546.408	19.509	1607.491	1548.470
547.423	19.697	1607.499	1549.980
548.438	19.757	1606.423	1549.303
549.452	19.720	1604.660	1547.080
550.467	19.690	1603.769	1545.771
551.481	19.574	1602.198	1543.029
552.496	19.548	1601.289	1541.738
553.511	19.369	1600.671	1539.348
554.525	19.503	1598.533	1538.314
555.540	19.455	1597.814	1537.003
556.554	19.518	1596.732	1536.342
557.569	19.521	1595.192	1534.702
558.583	19.560	1593.871	1533.597
559.598	19.573	1592.724	1532.425
560.613	19.503	1591.837	1530.766
561.627	19.465	1589.988	1528.461
562.642	19.392	1588.077	1525.801
563.656	19.263	1586.939	1523.374
564.671	19.190	1585.620	1521.275
565.686	19.149	1584.711	1519.859
566.700	19.297	1583.448	1519.778
567.715	19.312	1581.455	1517.819
568.729	19.350	1580.736	1517.280
569.744	19.382	1579.969	1516.644
570.759	19.448	1578.044	1515.201
571.773	19.458	1576.479	1513.600
572.788	19.475	1575.176	1512.324
573.802	19.270	1573.967	1509.173
574.817	19.266	1572.499	1507.550
575.832	19.105	1571.503	1504.996
576.846	19.150	1571.013	1504.746
577.861	19.330	1569.678	1504.864
578.875	19.345	1569.134	1504.294
579.890	19.387	1567.117	1502.556
580.905	19.409	1565.969	1501.459
581.919	19.282	1565.712	1499.922
582.934	19.368	1564.723	1499.553
583.948	19.308	1563.259	1497.449
584.963	19.340	1561.617	1495.969
585.978	19.558	1560.621	1496.738
586.992	19.339	1560.297	1494.339
588.007	19.200	1559.770	1492.443
589.021	19.352	1558.252	1492.141
590.036	19.329	1556.985	1490.549
591.051	19.304	1555.336	1488.575
592.065	19.288	1553.062	1486.077
593.080	19.260	1551.643	1484.303
594.094	19.326	1550.567	1483.662
595.109	19.397	1549.906	1483.467
596.123	19.509	1548.174	1482.595
597.138	19.436	1546.893	1480.568
598.153	19.393	1545.454	1478.637
599.167	19.462	1544.209	1477.869
600.182	19.442	1542.919	1476.285
601.196	19.424	1542.762	1475.798
602.211	19.279	1541.603	1473.266
603.226	19.242	1540.425	1471.651
604.240	19.254	1537.993	1469.257
605.255	19.257	1537.440	1468.578
606.269	19.209	1536.854	1467.427
607.284	19.268	1535.408	1466.374
608.299	19.340	1533.699	1465.181
609.313	19.312	1533.024	1464.123
610.328	19.300	1531.553	1462.440
611.342	19.314	1530.081	1460.979
612.357	19.250	1528.923	1459.157
613.372	19.270	1527.886	1458.165
614.386	19.088	1527.170	1455.756
615.401	19.113	1526.387	1455.047
616.415	19.086	1525.629	1453.927
617.430	18.957	1525.183	1452.226
618.445	18.945	1522.933	1449.814
619.459	19.128	1521.599	1449.919
620.474	19.148	1521.544	1449.856
621.488	19.226	1520.496	1449.350
622.503	19.478	1518.690	1449.582
623.518	19.110	1518.402	1446.027
624.532	18.956	1516.745	1442.973
625.547	19.051	1515.009	1441.951
626.561	19.039	1514.055	1440.768
627.576	18.941	1513.502	1439.247
628.591	18.984	1512.536	1438.517
629.605	19.092	1510.980	1437.772
630.620	19.066	1509.760	1436.223
631.634	19.268	1509.041	1437.057
632.649	19.031	1507.934	1433.848
633.663	19.107	1505.597	1432.085
634.678	18.866	1504.595	1428.948
635.693	18.911	1502.598	1427.260
636.707	18.892	1501.832	1426.197
637.722	18.925	1500.650	1425.186
638.736	19.030	1499.274	1424.576
639.751	19.087	1498.427	1424.077
640.766	19.072	1497.517	1422.918
641.780	18.991	1496.879	1421.472
642.795	19.022	1496.136	1420.848
643.809	19.140	1494.938	1420.523
644.824	19.279	1493.719	1420.342
645.839	19.119	1493.195	1418.348
646.853	19.125	1491.488	1416.612
647.868	19.184	1489.386	1414.934
648.882	19.251	1488.417	1414.392
649.897	19.221	1487.222	1412.841
650.912	19.233	1486.010	1411.621
651.926	19.038	1485.325	1409.197
652.941	19.168	1483.903	1408.746
653.955	19.204	1482.463	1407.502
654.970	19.226	1481.785	1406.877
655.985	19.250	1479.652	1404.875
656.999	19.134	1478.336	1402.513
658.014	19.234	1477.262	1402.143
659.028	19.031	1476.390	1399.487
660.043	19.111	1475.311	1398.953
661.058	19.060	1474.482	1397.580
662.072	19.002	1473.375	1395.887
663.087	19.188	1472.148	1396.073
664.101	19.161	1471.263	1394.853
665.116	19.095	1470.136	1393.081
666.131	19.056	1469.292	1391.792
667.145	19.229	1467.536	1391.371
668.160	19.017	1466.659	1388.653
669.174	18.976	1465.076	1386.653
670.189	19.039	1463.646	1385.643
671.204	19.161	1463.500	1386.324
672.218	19.148	1462.508	1385.118
673.233	19.187	1460.435	1383.300
674.247	19.115	1459.097	1381.286
675.262	18.981	1459.011	1379.963
676.276	18.992	1457.590	1378.544
677.291	19.063	1456.727	1378.131
678.306	19.128	1456.130	1377.923
679.320	19.047	1454.950	1375.988
680.335	18.913	1454.707	1374.522
681.349	18.946	1453.788	1373.752
682.364	19.109	1452.238	1373.430
683.379	18.913	1451.116	1370.631
684.393	18.890	1449.867	1369.111
685.408	18.843	1448.056	1366.856
686.422	18.913	1446.909	1366.169
687.437	18.757	1446.700	1364.559
688.452	18.817	1445.739	1363.972
689.466	19.057	1443.412	1363.529
690.481	18.770	1442.552	1360.262
691.495	18.819	1441.877	1359.854
692.510	19.107	1441.876	1361.983
693.525	19.131	1439.896	1360.136
694.539	18.957	1439.345	1358.078
695.554	18.703	1438.296	1354.906
696.568	18.813	1436.713	1354.129
697.583	18.829	1435.832	1353.263
698.598	18.723	1434.768	1351.255
699.612	18.900	1432.915	1350.745
700.627	18.883	1432.164	1349.742
701.641	18.936	1431.180	1349.076
702.656	19.012	1429.811	1348.218
703.671	18.872	1429.867	1347.008
704.685	18.877	1429.344	1346.392
705.700	18.915	1428.557	1345.790
706.714	19.009	1425.977	1343.935
707.729	19.200	1424.944	1344.302
708.744	19.011	1423.693	1341.478
709.758	19.050	1422.391	1340.400
710.773	18.997	1421.592	1339.069
711.787	19.206	1420.059	1339.099
712.802	19.112	1418.932	1337.144
713.816	18.954	1418.075	1334.940
714.831	19.028	1417.274	1334.601
715.846	19.077	1415.674	1333.319
716.860	18.870	1415.038	1330.947
717.875	19.007	1414.101	1330.975
718.889	19.034	1413.197	1330.177
719.904	18.953	1411.252	1327.552
720.919	18.915	1410.524	1326.414
721.933	18.928	1409.922	1325.790
722.948	19.072	1408.060	1325.002
723.962	18.986	1406.992	1323.167
724.977	18.970	1406.010	1321.967
725.992	19.005	1404.801	1320.942
727.006	18.961	1403.961	1319.655
728.021	19.025	1401.849	1317.999
729.035	18.998	1401.108	1316.942
730.050	18.932	1401.168	1316.334
731.065	18.828	1399.838	1314.126
732.079	18.854	1399.244	1313.611
733.094	18.847	1397.739	1311.985
734.108	19.010	1395.542	1311.018
735.123	18.960	1394.454	1309.451
736.138	18.813	1394.219	1307.953
737.152	18.875	1392.947	1307.071
738.167	18.902	1391.447	1305.715
739.181	18.811	1391.157	1304.592
740.196	18.874	1390.103	1303.927
741.211	18.865	1388.968	1302.637
742.225	18.964	1387.368	1301.734
743.240	18.972	1385.906	1300.269
744.254	18.712	1385.692	1297.941
745.269	18.829	1384.399	1297.458
746.284	18.726	1384.083	1296.225
747.298	18.920	1382.658	1296.205
748.313	18.838	1381.900	1294.718
749.327	18.744	1381.278	1293.275
750.342	18.961	1380.755	1294.265
751.356	19.044	1379.866	1293.904
752.371	19.019	1378.054	1291.864
753.386	18.793	1376.760	1288.794
754.400	18.814	1375.752	1287.856
755.415	18.919	1374.552	1287.369
756.429	18.944	1373.476	1286.390
757.444	19.023	1372.140	1285.581
758.459	18.764	1370.998	1282.415
759.473	18.856	1370.553	1282.531
760.488	18.884	1368.781	1280.931
761.502	18.960	1368.051	1280.665
762.517	19.003	1366.618	1279.488
763.532	19.051	1365.538	1278.688
764.546	18.885	1364.647	1276.461
765.561	18.903	1364.676	1276.471
766.575	19.050	1363.490	1276.301
767.590	19.095	1361.694	1274.799
768.605	19.161	1360.115	1273.663
769.619	18.967	1359.226	1271.238
770.634	19.027	1357.555	1269.969
771.648	18.899	1357.616	1268.921
772.663	19.006	1356.343	1268.373
773.678	18.881	1355.756	1266.743
774.692	18.867	1354.955	1265.739
775.707	18.912	1354.102	1265.124
776.721	18.984	1353.287	1264.742
777.736	18.949	1352.154	1263.279
778.751	18.915	1350.949	1261.752
779.765	18.930	1349.914	1260.741
780.780	18.840	1349.331	1259.383
781.794	18.823	1348.957	1258.762
782.809	18.793	1347.614	1257.138
783.824	18.632	1346.381	1254.648
784.838	18.735	1344.984	1253.957
785.853	18.976	1343.964	1254.618
786.867	18.842	1343.306	1252.874
787.882	18.620	1342.831	1250.655
788.897	18.802	1341.683	1250.765
789.911	18.712	1340.863	1249.196
790.926	18.681	1339.062	1247.143
791.940	18.693	1337.736	1245.848
792.955	18.787	1336.810	1245.519
793.969	18.713	1335.836	1243.927
794.984	18.772	1335.129	1243.544
795.999	18.807	1334.337	1242.917
797.013	18.883	1332.173	1241.300
798.028	18.972	1330.480	1240.224
799.042	18.829	1330.371	1238.930
800.057	18.814	1329.336	1237.712
801.072	18.922	1327.249	1236.400
802.086	18.801	1327.296	1235.422
803.101	18.816	1326.219	1234.383
804.115	18.829	1325.302	1233.475
805.130	18.898	1324.174	1232.777
806.145	18.827	1323.353	1231.352
807.159	18.922	1321.400	1230.072
808.174	19.066	1320.488	1230.108
809.188	18.798	1319.236	1226.870
810.203	18.900	1317.862	1226.176
811.218	18.864	1316.224	1224.247
812.232	19.066	1314.746	1224.174
813.247	19.001	1313.815	1222.693
814.261	18.944	1313.816	1222.142
815.276	18.867	1312.700	1220.406
816.291	18.749	1312.203	1218.959
817.305	18.905	1310.597	1218.430
818.320	18.975	1308.826	1217.139
819.334	18.829	1307.715	1214.919
820.349	18.845	1306.221	1213.498
821.364	18.711	1305.233	1211.485
822.378	18.921	1303.709	1211.414
823.393	18.856	1302.063	1209.279
824.407	18.763	1301.385	1207.847
825.422	18.796	1300.856	1207.445
826.437	18.738	1299.495	1205.626
827.451	18.644	1298.104	1203.530
828.466	18.609	1297.525	1202.608
829.480	19.084	1295.104	1203.554
830.495	18.794	1293.173	1199.586
831.509	18.744	1292.566	1198.528
832.524	18.770	1291.638	1197.700
833.539	18.742	1290.873	1196.653
834.553	18.776	1290.107	1196.037
835.568	18.706	1288.855	1194.247
836.582	18.866	1287.212	1193.701
837.597	18.968	1285.417	1192.599
838.612	18.941	1284.266	1191.203
839.626	18.970	1283.479	1190.529
840.641	18.921	1283.371	1189.946
841.655	18.873	1283.137	1189.258
842.670	19.021	1281.948	1189.038
843.685	19.046	1280.787	1187.995
844.699	19.095	1279.415	1186.917
845.714	18.984	1277.708	1184.423
846.728	18.844	1277.143	1182.787
847.743	18.966	1275.599	1182.065
848.758	18.863	1274.412	1180.112
849.772	18.915	1273.133	1179.141
850.787	18.767	1271.428	1176.404
851.801	18.755	1270.771	1175.569
852.816	18.828	1269.134	1174.420
853.831	18.892	1267.722	1173.412
854.845	18.703	1266.220	1170.586
855.860	18.648	1264.649	1168.617
856.874	18.575	1263.789	1167.184
857.889	18.731	1262.527	1166.944
858.904	18.761	1261.926	1166.450
859.918	18.905	1260.004	1165.518
860.933	18.853	1258.759	1163.872
861.947	18.847	1257.850	1162.853
862.962	18.888	1256.556	1161.796
863.977	18.766	1255.575	1159.919
864.991	18.684	1255.337	1159.004
866.006	18.785	1254.450	1158.734
867.020	18.934	1252.871	1158.141
868.035	18.910	1251.605	1156.671
869.049	18.858	1250.919	1155.546
870.064	18.816	1250.244	1154.500
871.079	18.869	1249.657	1154.178
872.093	18.896	1248.989	1153.608
873.108	19.035	1247.546	1153.076
874.122	18.999	1246.660	1151.871
875.137	19.082	1246.494	1152.144
876.152	18.975	1245.330	1150.206
877.166	19.069	1243.054	1148.603
878.181	19.178	1241.975	1148.195
879.195	18.915	1241.978	1146.299
880.210	19.036	1240.819	1145.899
881.225	18.956	1239.509	1144.016
882.239	18.985	1238.522	1143.163
883.254	19.070	1237.676	1142.813
884.268	18.976	1236.782	1141.227
885.283	18.895	1235.647	1139.499
886.298	18.929	1234.141	1138.200
887.312	18.952	1233.065	1137.226
888.327	19.194	1232.065	1137.777
889.341	18.918	1231.033	1134.853
890.356	18.901	1230.551	1134.160
891.371	18.911	1230.335	1133.895
892.385	18.825	1229.468	1132.393
893.400	18.975	1228.144	1132.025
894.414	18.919	1227.142	1130.597
895.429	18.980	1225.017	1128.907
896.444	19.209	1223.397	1128.788
897.458	19.242	1222.399	1127.947
898.473	18.949	1222.359	1125.851
899.487	19.006	1221.171	1124.996
900.502	18.991	1220.375	1124.026
901.517	19.086	1219.060	1123.306
902.531	19.071	1217.754	1121.870
903.546	19.073	1217.916	1121.900
904.560	18.917	1217.306	1120.183
905.575	19.113	1215.763	1119.908
906.589	19.215	1214.771	1119.526
907.604	19.056	1214.401	1118.016
