DTS Sentinel unit serial number:	SN409020Multiplexer serial number:	ORYXHardware model number:	OX4-SRSoftware version number:	ORYX F/W v3.00 Oryx Data Collector v3.7.2.0data status	okinstallation	HaddamTimeLapsedifferential loss correction	single-endedforward channel	channel 3reverse channel	N/Adate	2011/06/22time	10:26:17forward acquisition time	30.00reverse acquisition time	0.00gamma	498.7831k internal	0.1813k external	0.1813temperature offset calibration	1.0074default loss term (dB/km)	0.3790temperature slope calibration	1.3530multiplexer offset coefficient	1.0000multiplexer slope coefficient	1.0000fibre end	0.00T internal ref (°C)	30.03T ext. ref 1 (°C)	25.85T ext. ref 2 (°C)	0.23length (m)	temperature (°C)	Stokes	anti-Stokes-747.200	431.681	-0.120	-0.335
-746.185	-30.297	-0.092	0.067
-745.171	-80.774	0.242	0.103
-744.156	29.043	0.625	0.680
-743.142	537.290	-0.091	-0.280
-742.127	278.303	0.284	0.652
-741.112	-28.131	0.314	0.233
-740.098	300.487	-0.084	0.199
-739.083	-64.507	0.236	0.123
-738.069	-35.990	0.554	0.384
-737.054	12.716	0.111	-0.110
-736.039	-200.000	-0.016	0.330
-735.025	-92.007	0.476	0.172
-734.010	292.376	-0.032	0.076
-732.996	-123.428	-0.211	0.043
-731.981	-2.063	0.119	-0.107
-730.966	-69.725	-0.284	0.139
-729.952	-200.000	0.010	0.102
-728.937	-38.751	-0.151	-0.102
-727.923	-13.444	-0.181	-0.150
-726.908	-113.504	-0.238	0.059
-725.894	360.831	0.063	-0.163
-724.879	-196.728	0.249	0.002
-723.864	-165.660	-0.365	0.020
-722.850	-90.208	-0.677	-0.251
-721.835	-83.310	0.395	0.162
-720.821	334.153	-0.018	0.046
-719.806	68.732	0.144	0.189
-718.791	-105.954	0.370	-0.106
-717.777	-200.000	-0.100	-0.623
-716.762	180.222	0.282	-0.532
-715.748	-1.681	0.147	-0.132
-714.733	-73.458	-0.356	-0.166
-713.718	17.928	0.067	0.069
-712.704	135.093	0.165	-0.275
-711.689	365.564	0.149	0.385
-710.675	-25.158	0.084	0.064
-709.660	-47.245	-0.145	-0.090
-708.645	-134.687	0.317	-0.049
-707.631	-200.000	0.002	0.234
-706.616	-200.000	-0.012	0.312
-705.602	680.747	0.116	0.389
-704.587	183.618	-0.134	-0.254
-703.572	-200.000	-0.003	0.665
-702.558	-200.000	0.024	0.245
-701.543	-200.000	0.038	0.245
-700.529	-25.845	-0.077	0.058
-699.514	-59.189	-0.567	-0.312
-698.499	602.218	-0.167	-0.535
-697.485	543.789	0.015	-0.047
-696.470	-200.000	0.031	-0.190
-695.456	-67.707	0.269	0.134
-694.441	24.910	0.121	-0.129
-693.426	339.226	-0.287	-0.720
-692.412	66.104	-0.273	-0.355
-691.397	-57.175	-0.621	0.349
-690.383	-86.708	-0.263	0.103
-689.368	-109.215	0.459	-0.124
-688.354	-200.000	-0.047	0.290
-687.339	-200.000	-0.001	-0.248
-686.324	-200.000	-0.003	-0.241
-685.310	-200.000	-0.028	0.291
-684.295	-116.297	-0.548	0.129
-683.281	800.000	-0.150	0.561
-682.266	65.394	-0.272	0.353
-681.251	89.433	-0.275	-0.393
-680.237	-42.150	-0.315	-0.206
-679.222	-59.933	0.190	-0.104
-678.208	-61.898	0.435	-0.232
-677.193	91.752	0.167	0.240
-676.178	-152.709	0.303	-0.027
-675.164	-135.226	0.372	0.057
-674.149	-200.000	0.003	0.270
-673.135	-59.460	0.120	0.066
-672.120	359.692	-0.043	0.111
-671.105	-200.000	0.046	-0.291
-670.091	800.000	0.099	-0.409
-669.076	3.764	0.266	-0.248
-668.062	-30.506	-0.285	0.206
-667.047	-81.189	-0.171	-0.072
-666.032	5.695	0.092	-0.087
-665.018	65.519	0.238	-0.308
-664.003	-200.000	-0.004	-0.142
-662.989	-101.862	-0.119	-0.036
-661.974	321.730	0.053	-0.130
-660.959	-105.728	0.708	-0.203
-659.945	-46.296	-0.182	0.114
-658.930	-85.072	-0.398	-0.159
-657.916	-9.495	-0.044	0.037
-656.901	246.469	-0.088	0.190
-655.886	-187.083	-0.484	-0.008
-654.872	-5.749	-0.371	-0.325
-653.857	89.791	-0.180	-0.258
-652.843	364.621	0.148	0.382
-651.828	83.533	-0.039	-0.055
-650.814	221.683	0.233	-0.481
-649.799	443.556	-0.113	0.318
-648.784	-83.309	0.391	0.160
-647.770	-83.375	-0.195	0.079
-646.755	-200.000	0.130	0.001
-645.741	-55.037	-0.201	0.115
-644.726	17.828	-0.410	0.418
-643.711	321.561	0.158	-0.386
-642.697	-200.000	-0.033	-0.294
-641.682	800.000	-0.045	-0.256
-640.668	-113.189	-0.394	0.099
-639.653	800.000	-0.059	-0.272
-638.638	66.295	0.212	0.275
-637.624	28.661	-0.120	-0.130
-636.609	-183.710	-0.242	0.005
-635.595	779.845	0.147	-0.515
-634.580	800.000	0.064	0.229
-633.565	289.863	0.081	0.188
-632.551	118.276	-0.116	0.183
-631.536	442.965	-0.227	-0.639
-630.522	62.108	0.382	-0.487
-629.507	120.547	0.387	0.615
-628.492	-147.739	0.060	-0.006
-627.478	-200.000	-0.004	-0.110
-626.463	-75.623	-0.088	0.040
-625.449	800.000	0.043	-0.152
-624.434	-95.235	0.153	0.052
-623.419	-119.342	0.198	-0.044
-622.405	199.025	-0.099	-0.194
-621.390	18.690	-0.149	-0.152
-620.376	-21.061	0.126	0.099
-619.361	-33.199	0.446	-0.315
-618.346	121.787	-0.164	0.261
-617.332	-35.358	0.149	-0.103
-616.317	-200.000	0.042	-0.264
-615.303	463.256	0.177	-0.506
-614.288	-200.000	-0.030	-0.186
-613.273	70.574	0.329	0.435
-612.259	-200.000	0.011	0.363
-611.244	-18.400	0.094	-0.075
-610.230	4.712	-0.142	-0.134
-609.215	-86.700	-0.586	-0.228
-608.201	176.869	-0.110	-0.205
-607.186	-200.000	0.051	0.290
-606.171	-12.910	0.449	-0.373
-605.157	-130.988	-0.327	0.055
-604.142	-120.962	-0.113	-0.024
-603.128	188.002	0.216	-0.414
-602.113	409.752	-0.049	0.134
-601.098	-21.969	-0.504	-0.390
-600.084	-200.000	-0.014	0.163
-599.069	-67.819	0.388	-0.193
-598.055	119.975	-0.235	0.373
-597.040	-118.208	0.502	0.113
-596.025	-51.222	-0.193	0.115
-595.011	3.709	-0.366	-0.340
-593.996	800.000	-0.016	-0.074
-592.982	-113.616	-0.046	-0.011
-591.967	-200.000	0.019	-0.356
-590.952	29.782	-0.100	0.109
-589.938	-79.180	-0.258	-0.111
-588.923	-51.650	0.359	-0.213
-587.909	118.495	0.177	-0.278
-586.894	15.693	0.177	0.178
-585.879	-55.867	-0.133	-0.076
-584.865	-140.830	0.260	-0.034
-583.850	-131.169	0.411	0.069
-582.836	-200.000	0.003	0.170
-581.821	-72.458	-0.430	-0.202
-580.806	137.829	-0.198	-0.331
-579.792	-22.344	0.111	0.085
-578.777	-80.645	-0.121	-0.051
-577.763	-58.791	0.142	0.078
-576.748	-200.000	-0.005	0.186
-575.733	40.203	-0.191	-0.219
-574.719	-32.071	-0.277	0.197
-573.704	447.692	0.176	0.496
-572.690	235.613	0.088	0.186
-571.675	800.000	-0.046	0.253
-570.661	484.212	0.073	0.213
-569.646	-46.919	0.155	0.096
-568.631	-189.806	-0.552	0.008
-567.617	286.861	-0.158	0.366
-566.602	-94.540	0.473	0.163
-565.588	-158.182	0.317	-0.023
-564.573	-167.233	-0.446	0.023
-563.558	52.989	-0.042	0.051
-562.544	-83.802	-0.429	0.173
-561.529	215.276	-0.102	0.208
-560.515	-91.055	0.157	-0.057
-559.500	-160.353	-0.184	-0.012
-558.485	243.941	-0.214	0.460
-557.471	-154.865	-0.162	-0.013
-556.456	800.000	0.113	-0.559
-555.442	-58.185	-0.127	0.070
-554.427	-34.632	-0.497	0.345
-553.412	3.344	0.399	0.370
-552.398	-142.448	0.590	0.073
-551.383	-139.911	0.181	0.024
-550.369	-8.909	0.181	-0.154
-549.354	544.847	-0.085	0.260
-548.339	-0.216	-0.110	-0.100
-547.325	-7.182	-0.029	-0.025
-546.310	-39.550	0.435	0.289
-545.296	-200.000	-0.064	-0.526
-544.281	-117.215	0.281	-0.065
-543.266	-59.977	-0.428	0.232
-542.252	79.927	0.161	0.221
-541.237	-39.389	-0.172	0.115
-540.223	8.234	0.050	-0.048
-539.208	-65.062	-0.591	-0.303
-538.193	-98.642	-0.302	0.097
-537.179	448.619	0.036	0.101
-536.164	-88.618	0.324	-0.122
-535.150	-200.000	-0.019	-0.318
-534.135	-124.134	-0.254	0.050
-533.121	-102.383	0.264	0.080
-532.106	-0.531	0.249	-0.225
-531.091	-120.374	-0.346	0.074
-530.077	-28.141	0.548	0.402
-529.062	31.968	-0.202	-0.222
-528.048	-200.000	-0.010	0.102
-527.033	51.279	-0.204	0.247
-526.018	-105.924	-0.451	0.128
-525.004	800.000	-0.023	-0.106
-523.989	-96.480	0.356	-0.119
-522.975	-50.962	0.244	-0.145
-521.960	-15.365	-0.239	0.194
-520.945	-64.420	-0.200	-0.103
-519.931	-48.892	0.291	0.177
-518.916	-143.603	0.474	0.057
-517.902	109.919	-0.162	0.247
-516.887	-200.000	0.013	0.271
-515.872	116.280	-0.177	0.277
-514.858	-54.624	-0.632	-0.362
-513.843	16.561	0.265	-0.266
-512.829	17.423	-0.395	0.399
-511.814	-200.000	-0.028	0.237
-510.799	-68.224	0.031	-0.015
-509.785	-93.058	-0.324	0.114
-508.770	-150.737	0.396	-0.038
-507.756	-118.794	-0.685	-0.152
-506.741	-85.595	0.320	-0.126
-505.726	16.981	0.180	-0.181
-504.712	-7.790	-0.157	0.134
-503.697	148.801	-0.257	0.443
-502.683	-83.148	0.563	0.229
-501.668	-82.757	-0.305	0.125
-500.653	57.418	0.101	0.125
-499.639	-6.413	0.166	0.144
-498.624	728.050	0.068	0.231
-497.610	-13.429	0.279	0.229
-496.595	-46.484	0.554	0.345
-495.581	800.000	-0.105	0.504
-494.566	-90.267	-0.114	0.042
-493.551	-138.116	-0.309	-0.043
-492.537	-59.525	0.378	-0.205
-491.522	-99.150	0.062	-0.020
-490.508	-182.528	0.163	-0.004
-489.493	14.380	-0.448	0.444
-488.478	-122.612	0.488	0.100
-487.464	-113.812	-0.043	0.011
-486.449	-200.000	0.035	-0.255
-485.435	-110.696	0.318	0.083
-484.420	-63.519	0.145	0.075
-483.405	-35.626	0.211	0.145
-482.391	-111.838	-0.113	-0.029
-481.376	34.692	0.081	-0.090
-480.362	-88.465	-0.320	-0.121
-479.347	130.947	-0.201	-0.329
-478.332	800.000	-0.079	-0.310
-477.318	-25.023	0.442	-0.332
-476.303	-34.852	0.243	-0.168
-475.289	1.614	-0.707	-0.646
-474.274	70.948	-0.270	-0.356
-473.259	-156.514	-0.170	0.013
-472.245	-56.638	-0.222	-0.125
-471.230	32.191	0.222	-0.243
-470.216	-75.448	0.162	0.073
-469.201	13.513	-0.145	-0.143
-468.186	9.959	-0.070	-0.067
-467.172	-57.910	0.340	0.188
-466.157	91.059	0.361	0.515
-465.143	76.450	0.195	-0.262
-464.128	-200.000	0.050	0.350
-463.113	482.193	0.059	0.171
-462.099	-71.390	0.185	-0.087
-461.084	5.983	0.500	-0.470
-460.070	-31.899	0.181	-0.128
-459.055	-8.764	0.344	0.293
-458.040	-95.797	-0.520	-0.175
-457.026	-25.336	-0.210	0.158
-456.011	-200.000	0.051	-0.324
-454.997	129.064	-0.347	-0.564
-453.982	119.090	-0.099	0.156
-452.968	402.706	-0.084	-0.226
-451.953	190.063	-0.164	0.313
-450.938	-200.000	0.036	0.217
-449.924	800.000	0.035	-0.135
-448.909	-172.183	0.133	-0.005
-447.895	-200.000	-0.001	-0.554
-446.880	498.488	-0.123	-0.362
-445.865	-83.203	0.176	-0.071
-444.851	457.793	0.064	-0.180
-443.836	-146.417	-0.416	0.046
-442.822	-143.005	-0.626	0.076
-441.807	-145.834	-0.029	0.003
-440.792	-150.287	-0.309	-0.030
-439.778	-45.097	0.292	0.184
-438.763	-0.303	0.112	0.101
-437.749	-200.000	-0.001	-0.323
-436.734	63.291	0.050	0.063
-435.719	-200.000	-0.020	-0.183
-434.705	-107.316	-0.206	0.057
-433.690	-115.441	0.326	-0.077
-432.676	-138.344	0.651	-0.090
-431.661	53.060	-0.195	0.237
-430.646	-147.954	-0.129	0.013
-429.632	800.000	0.106	0.550
-428.617	-45.225	-0.576	0.362
-427.603	-200.000	0.042	-0.303
-426.588	-136.306	0.584	0.085
-425.573	-11.705	0.200	-0.166
-424.559	82.480	-0.146	0.202
-423.544	-150.305	1.094	0.106
-422.530	8.546	0.311	0.297
-421.515	-166.503	0.261	-0.014
-420.500	-200.000	-0.010	-0.436
-419.486	662.147	-0.138	0.454
-418.471	-37.547	0.243	0.164
-417.457	469.897	-0.215	-0.616
-416.442	-107.125	0.338	0.094
-415.428	-124.959	0.261	-0.050
-414.413	-4.017	-0.234	-0.205
-413.398	138.394	0.036	0.060
-412.384	-200.000	-0.082	0.578
-411.369	47.681	0.078	-0.092
-410.355	737.246	0.101	0.344
-409.340	-88.684	0.179	-0.067
-408.325	-56.929	0.224	-0.125
-407.311	28.336	-0.205	0.220
-406.296	-15.490	0.355	-0.287
-405.282	-15.302	0.168	0.136
-404.267	-138.697	0.424	0.058
-403.252	-200.000	-0.008	-0.064
-402.238	203.306	0.053	-0.105
-401.223	10.678	-0.281	-0.271
-400.209	-79.668	-0.171	0.073
-399.194	-41.581	-0.325	0.211
-398.179	-91.048	-0.273	-0.099
-397.165	-49.163	-0.469	-0.283
-396.150	-151.621	0.088	-0.008
-395.136	-105.631	-0.089	0.025
-394.121	-1.642	0.342	-0.305
-393.106	112.819	-0.235	-0.361
-392.092	21.718	0.344	-0.354
-391.077	-76.389	-0.366	-0.162
-390.063	-155.012	0.129	-0.011
-389.048	-79.424	0.107	-0.045
-388.033	169.533	-0.181	0.328
-387.019	-1.748	-0.304	0.270
-386.004	-93.659	0.360	-0.125
-384.990	-14.388	0.530	-0.431
-383.975	-200.000	0.010	0.347
-382.960	-85.800	0.258	-0.101
-381.946	800.000	-0.140	0.662
-380.931	14.097	0.069	-0.067
-379.917	79.250	-0.129	0.175
-378.902	4.476	0.159	-0.148
-377.888	-38.682	0.341	-0.227
-376.873	-71.556	0.654	-0.308
-375.858	-140.452	-0.202	-0.026
-374.844	451.052	0.070	0.197
-373.829	-31.157	0.523	0.372
-372.815	-3.454	-0.181	-0.159
-371.800	800.000	-0.034	0.124
-370.785	78.855	-0.277	-0.375
-369.771	24.938	0.134	0.141
-368.756	-116.595	0.116	-0.027
-367.742	-178.197	-0.482	-0.014
-366.727	432.029	0.171	0.470
-365.712	-105.113	-0.344	0.099
-364.698	-105.978	-0.335	0.095
-363.683	-117.714	-0.397	-0.090
-362.669	-126.501	-0.165	-0.031
-361.654	220.312	-0.177	0.361
-360.639	-185.350	0.479	0.009
-359.625	177.781	0.168	0.310
-358.610	69.459	0.284	-0.370
-357.596	-200.000	-0.026	0.564
-356.581	-65.095	-0.532	0.270
-355.566	-28.618	0.288	-0.209
-354.552	-87.315	0.207	-0.079
-353.537	499.942	0.069	-0.203
-352.523	-200.000	-0.048	-0.543
-351.508	-16.609	-0.498	-0.398
-350.493	41.507	-0.282	0.323
-349.479	75.097	-0.116	0.155
-348.464	-200.000	0.083	-0.602
-347.450	760.376	-0.047	-0.161
-346.435	-157.367	-0.181	-0.014
-345.420	-82.030	-0.260	0.107
-344.406	-65.769	0.070	-0.035
-343.391	-200.000	-0.030	0.203
-342.377	-21.791	-0.051	0.039
-341.362	104.024	-0.217	-0.323
-340.348	40.120	0.231	0.262
-339.333	75.732	-0.151	0.201
-338.318	-200.000	-0.016	0.162
-337.304	-89.823	-0.262	-0.096
-336.289	-110.029	0.233	-0.061
-335.275	-25.507	0.194	-0.144
-334.260	558.105	0.099	0.304
-333.245	25.815	-0.207	0.218
-332.231	479.890	0.087	-0.252
-331.216	-60.375	0.159	0.085
-330.202	-78.196	0.272	-0.118
-329.187	800.000	0.103	-0.499
-328.172	391.625	0.193	-0.507
-327.158	126.855	0.115	0.184
-326.143	-200.000	-0.035	-0.286
-325.129	-59.903	0.476	0.256
-324.114	-200.000	0.005	-0.036
-323.099	300.522	-0.077	-0.179
-322.085	-18.467	0.233	-0.183
-321.070	800.000	0.088	-0.434
-320.056	21.275	-0.348	-0.356
-319.041	-135.015	-0.482	0.073
-318.026	800.000	-0.161	0.739
-317.012	38.340	0.313	-0.352
-315.997	-200.000	0.112	-0.671
-314.983	800.000	0.098	0.547
-313.968	577.831	-0.058	-0.181
-312.953	294.750	-0.211	-0.490
-311.939	-6.355	0.216	-0.186
-310.924	183.072	0.055	-0.102
-309.910	-53.678	0.254	-0.146
-308.895	-200.000	-0.015	0.148
-307.880	-10.950	0.211	0.176
-306.866	310.475	0.039	0.093
-305.851	800.000	0.067	-0.243
-304.837	73.698	0.074	0.097
-303.822	-200.000	0.014	-0.148
-302.807	-14.904	0.128	0.104
-301.793	267.722	0.162	-0.359
-300.778	36.008	0.105	-0.117
-299.764	-21.852	-0.436	0.334
-298.749	733.346	-0.103	0.351
-297.735	-170.636	-0.098	-0.004
-296.720	220.783	0.124	-0.251
-295.705	192.686	-0.069	-0.131
-294.691	-148.500	-0.132	0.013
-293.676	94.864	0.371	0.532
-292.662	-31.462	0.301	-0.213
-291.647	77.831	0.313	-0.421
-290.632	-157.696	-0.212	-0.016
-289.618	-4.905	-0.186	0.162
-288.603	394.377	0.049	-0.128
-287.589	103.800	-0.309	-0.458
-286.574	-32.811	-0.436	0.305
-285.559	-200.000	-0.007	0.060
-284.545	14.544	0.379	0.373
-283.530	-161.528	-0.499	0.032
-282.516	-28.734	0.400	0.289
-281.501	-3.943	-0.253	0.221
-280.486	283.041	-0.121	0.274
-279.472	226.702	-0.294	0.603
-278.457	-161.187	-0.518	0.034
-277.443	135.600	-0.067	-0.110
-276.428	-200.000	0.098	-0.813
-275.413	-200.000	0.023	-0.378
-274.399	-118.216	0.361	-0.080
-273.384	-20.929	0.073	-0.057
-272.370	29.951	0.193	-0.207
-271.355	-163.234	0.402	0.024
-270.340	-115.479	0.315	0.074
-269.326	113.062	0.080	0.122
-268.311	111.847	-0.087	-0.133
-267.297	-143.761	-0.305	0.036
-266.282	70.602	-0.097	0.126
-265.267	40.262	0.116	-0.131
-264.253	800.000	-0.050	0.257
-263.238	-200.000	-0.019	0.349
-262.224	-101.115	0.399	-0.122
-261.209	800.000	-0.144	-0.635
-260.195	-200.000	0.033	-0.310
-259.180	106.140	0.152	-0.227
-258.165	30.199	0.122	0.132
-257.151	150.130	0.168	-0.289
-256.136	71.000	0.141	-0.185
-255.122	419.060	0.106	0.287
-254.107	800.000	-0.035	-0.150
-253.092	-10.015	-0.243	0.203
-252.078	-102.750	-0.369	0.110
-251.063	49.870	-0.302	-0.358
-250.049	89.369	0.197	-0.277
-249.034	46.819	0.178	-0.208
-248.019	-56.279	-0.410	0.229
-247.005	-134.723	-0.577	-0.087
-245.990	165.497	-0.231	-0.412
-244.976	-22.947	0.214	0.162
-243.961	33.003	-0.136	0.148
-242.946	-200.000	0.079	0.450
-241.932	-200.000	0.013	-0.239
-240.917	-82.516	-0.116	-0.047
-239.903	-49.180	-0.477	-0.286
-238.888	-30.259	0.032	-0.023
-237.873	-84.027	-0.153	0.061
-236.859	486.386	0.121	0.350
-235.844	-129.375	-0.413	0.072
-234.830	13.269	0.195	0.190
-233.815	-70.586	-0.223	0.105
-232.800	-47.068	-0.418	-0.256
-231.786	-200.000	0.039	0.516
-230.771	-200.000	-0.007	0.721
-229.757	800.000	0.048	0.237
-228.742	-53.555	0.263	-0.151
-227.727	342.381	-0.091	-0.226
-226.713	-200.000	-0.013	-0.535
-225.698	-200.000	-0.053	-0.416
-224.684	115.041	-0.414	0.636
-223.669	-25.957	-0.466	-0.344
-222.655	-77.050	0.444	-0.194
-221.640	-9.077	0.353	0.297
-220.625	-200.000	0.004	0.938
-219.611	-113.745	0.233	-0.057
-218.596	501.429	0.097	0.283
-217.582	-125.086	-0.285	-0.055
-216.567	5.551	0.325	0.301
-215.552	223.623	-0.082	-0.168
-214.538	-71.622	-0.202	-0.094
-213.523	-10.404	0.046	0.038
-212.509	-135.916	0.234	-0.034
-211.494	-166.642	-0.736	-0.038
-210.479	-200.000	-0.005	-0.226
-209.465	800.000	-0.016	0.072
-208.450	361.673	0.145	-0.366
-207.436	-38.035	-0.267	-0.177
-206.421	-200.000	-0.037	0.567
-205.406	-78.195	0.293	-0.126
-204.392	-137.245	-0.302	0.043
-203.377	-141.671	-0.255	-0.032
-202.363	-129.092	0.188	-0.033
-201.348	-104.105	0.587	0.171
-200.333	101.720	0.055	-0.080
-199.319	-60.516	-0.440	-0.234
-198.304	-94.830	-0.298	0.101
-197.290	-67.789	0.314	-0.154
-196.275	-108.869	-0.460	-0.122
-195.260	-200.000	0.016	-0.261
-194.246	16.051	0.251	0.248
-193.231	-92.638	0.247	0.086
-192.217	-159.569	-0.519	-0.036
-191.202	-200.000	-0.033	-0.312
-190.187	-135.002	-0.199	0.030
-189.173	-48.819	-0.209	0.125
-188.158	-200.000	-0.111	0.621
-187.144	125.080	0.158	0.250
-186.129	-46.249	-0.364	0.224
-185.114	56.185	0.040	0.049
-184.100	-40.053	-0.021	-0.014
-183.085	-128.399	-0.178	0.032
-182.071	-138.706	0.390	0.053
-181.056	-171.537	-0.625	-0.026
-180.042	-200.000	0.013	0.404
-179.027	-15.216	0.392	-0.314
-178.012	800.000	-0.010	0.039
-176.998	30.700	0.192	0.206
-175.983	-50.808	0.242	0.142
-174.969	-101.164	-0.308	0.094
-173.954	-23.246	-0.083	-0.063
-172.939	437.356	0.076	-0.210
-171.925	145.316	-0.281	0.473
-170.910	295.176	0.215	0.496
-169.896	103.539	0.231	0.341
-168.881	5.027	-0.255	-0.235
-167.866	-72.833	-0.275	-0.127
-166.852	141.376	0.157	0.261
-165.837	231.620	-0.022	-0.045
-164.823	-115.764	0.219	-0.051
-163.808	-198.734	0.252	0.002
-162.793	-16.651	0.430	0.341
-161.779	-200.000	0.015	-0.111
-160.764	800.000	-0.055	0.218
-159.750	-135.423	-0.190	-0.028
-158.735	44.136	0.350	0.403
-157.720	-58.888	0.235	0.127
-156.706	105.530	-0.154	-0.229
-155.691	-55.983	-0.534	-0.298
-154.677	324.260	-0.052	0.126
-153.662	727.057	0.083	-0.280
-152.647	-200.000	0.044	-0.331
-151.633	-55.174	-0.144	0.081
-150.618	-143.888	0.023	-0.003
-149.604	-71.646	0.340	-0.158
-148.589	-14.633	0.253	-0.204
-147.574	-200.000	0.064	0.645
-146.560	-200.000	-0.039	0.286
-145.545	-170.215	0.395	0.017
-144.531	269.916	-0.070	0.155
-143.516	74.700	-0.204	-0.270
-142.502	-40.923	0.373	-0.241
-141.487	-200.000	0.040	-0.484
-140.472	192.051	0.069	-0.130
-139.458	-149.055	-0.418	0.042
-138.443	62.548	-0.041	0.051
-137.429	-37.280	0.032	-0.022
-136.414	-179.968	0.600	0.016
-135.399	115.836	0.161	-0.247
-134.385	300.053	-0.036	0.083
-133.370	770.575	0.077	0.266
-132.356	-200.000	0.394	0.001
-131.341	146.846	0.105	0.178
-130.326	-200.000	-0.022	-0.180
-129.312	75.388	0.091	0.120
-128.297	-118.007	0.395	-0.088
-127.283	-140.039	-0.285	-0.037
-126.268	-71.210	-0.179	0.084
-125.253	-200.000	-0.009	0.251
-124.239	-146.957	0.325	0.035
-123.224	-99.555	0.176	0.055
-122.210	29.499	-0.303	0.323
-121.195	-125.186	0.137	-0.026
-120.180	-155.838	0.482	-0.038
-119.166	-97.969	0.276	-0.089
-118.151	33.362	0.232	-0.252
-117.137	418.912	0.076	-0.206
-116.122	283.544	0.046	-0.104
-115.107	-105.255	-0.453	0.128
-114.093	-51.507	0.446	-0.260
-113.078	-200.000	0.068	0.458
-112.064	-200.000	-0.056	-0.317
-111.049	171.069	0.074	-0.134
-110.034	298.847	-0.199	-0.460
-109.020	-48.916	0.243	-0.145
-108.005	-152.906	0.014	0.001
-106.991	-108.549	-0.416	0.111
-105.976	-75.721	0.319	-0.141
-104.962	-47.051	0.229	0.139
-103.947	-51.203	-0.446	0.260
-102.932	-13.645	-0.257	0.208
-101.918	106.072	-0.177	-0.262
-100.903	-89.748	0.287	0.104
-99.889	-47.845	0.211	-0.127
-98.874	-2.091	-0.306	0.269
-97.859	-9.651	0.386	0.321
-96.845	-145.302	0.273	0.031
-95.830	-77.172	0.060	-0.026
-94.816	-63.151	-0.372	0.191
-93.801	19.273	0.217	0.218
-92.786	-93.045	0.393	-0.136
-91.772	-12.982	-0.199	0.162
-90.757	800.000	0.064	0.308
-89.743	-61.133	-0.029	0.015
-88.728	75.564	0.079	-0.104
-87.713	180.777	-0.175	0.323
-86.699	55.936	-0.209	-0.254
-85.684	-86.307	-0.180	-0.069
-84.670	625.037	0.121	0.383
-83.655	216.279	0.133	0.265
-82.640	800.000	0.054	0.242
-81.626	-4.330	0.113	0.098
-80.611	-200.000	-0.082	-0.542
-79.597	432.860	0.149	-0.407
-78.582	-200.000	-0.006	0.123
-77.567	145.121	0.075	0.125
-76.553	616.517	0.103	-0.324
-75.538	-163.368	-0.181	0.011
-74.524	19.285	-0.263	-0.264
-73.509	-34.945	0.279	-0.190
-72.494	-116.737	-0.650	-0.148
-71.480	108.520	-0.163	-0.244
-70.465	-16.069	-0.093	-0.074
-69.451	-11.638	0.277	-0.227
-68.436	73.278	0.207	-0.271
-67.422	-79.813	-0.487	0.204
-66.407	-65.526	0.443	0.221
-65.392	-52.943	0.229	-0.131
-64.378	165.691	0.068	0.120
-63.363	190.490	0.265	0.500
-62.349	-182.460	-0.528	0.012
-61.334	2.131	-1.875	-1.691
-60.319	63.849	0.879	1.104
-59.305	266.690	-3.096	-6.785
-58.290	18.376	3.804	3.794
-57.276	521.500	3.573	10.529
-56.261	-200.000	16.295	252.527
-55.246	445.949	1199.633	3309.237
-54.232	62.949	2820.629	3529.676
-53.217	72.224	2709.537	3528.380
-52.203	63.801	2442.251	3067.427
-51.188	35.589	2097.659	2301.215
-50.173	33.297	1974.177	2139.656
-49.159	31.043	1962.727	2101.657
-48.144	30.551	1959.043	2092.064
-47.130	30.433	1956.947	2088.418
-46.115	30.480	1954.301	2086.034
-45.100	30.376	1953.450	2083.872
-44.086	30.306	1951.812	2081.250
-43.071	30.307	1950.388	2079.667
-42.057	30.316	1948.496	2077.662
-41.042	30.214	1947.338	2075.198
-40.027	30.236	1946.556	2074.536
-39.013	30.191	1944.790	2072.066
-37.998	30.227	1943.264	2070.762
-36.984	30.189	1942.521	2069.455
-35.969	30.229	1940.676	2067.858
-34.954	30.128	1939.530	2065.429
-33.940	30.230	1937.876	2064.721
-32.925	30.117	1936.463	2061.874
-31.911	30.154	1935.061	2060.706
-30.896	30.072	1934.121	2058.712
-29.881	30.038	1933.692	2057.798
-28.867	30.041	1931.933	2055.868
-27.852	30.179	1930.557	2055.869
-26.838	30.181	1928.622	2053.749
-25.823	30.098	1927.716	2051.775
-24.809	30.060	1927.618	2051.167
-23.794	30.102	1925.294	2049.083
-22.779	30.038	1922.913	2045.754
-21.765	30.071	1921.923	2044.981
-20.750	30.065	1921.326	2044.198
-19.736	29.922	1920.210	2041.346
-18.721	29.822	1919.428	2039.330
-17.706	30.099	1917.265	2040.020
-16.692	29.954	1916.759	2037.797
-15.677	29.950	1915.827	2036.678
-14.663	29.886	1913.910	2033.845
-13.648	30.033	1912.393	2033.775
-12.633	29.976	1910.872	2031.456
-11.619	29.955	1909.799	2029.996
-10.604	29.897	1908.844	2028.264
-9.590	29.977	1907.489	2027.626
-8.575	29.783	1906.977	2024.869
-7.560	29.907	1905.306	2024.376
-6.546	29.785	1904.404	2021.994
-5.531	29.927	1903.211	2022.210
-4.517	29.909	1901.743	2020.373
-3.502	29.779	1901.508	2018.613
-2.487	29.969	1899.712	2018.710
-1.473	30.107	1895.766	2015.947
-0.458	29.956	1876.851	1994.117
0.556	26.640	2017.576	2092.661
1.571	25.965	2231.984	2306.103
2.586	27.397	2276.498	2370.573
3.600	27.350	2279.040	2372.314
4.615	27.492	2278.177	2372.993
5.629	27.463	2276.850	2370.950
6.644	27.484	2274.904	2368.918
7.659	27.537	2273.113	2367.453
8.673	27.598	2271.681	2366.484
9.688	26.899	2276.717	2362.294
10.702	24.374	2350.742	2404.654
11.717	22.028	2415.353	2437.742
12.731	11.368	2387.844	2261.870
13.746	1.975	2362.417	2107.522
14.761	0.526	2357.734	2082.997
15.775	0.285	2355.781	2077.686
16.790	0.341	2353.227	2075.959
17.804	0.271	2352.187	2073.830
18.819	0.337	2350.754	2073.232
19.834	0.295	2349.717	2071.487
20.848	0.151	2348.576	2068.245
21.863	0.278	2346.521	2067.932
22.877	0.236	2344.789	2065.579
23.892	0.243	2341.583	2062.606
24.907	0.194	2339.713	2060.034
25.921	0.172	2337.860	2057.862
26.936	0.209	2336.321	2056.763
27.950	0.217	2333.130	2053.822
28.965	0.143	2332.093	2051.649
29.980	0.169	2330.358	2050.234
30.994	0.332	2327.867	2050.024
32.009	5.438	2346.045	2136.008
33.023	19.219	2387.763	2365.141
34.038	26.395	2403.025	2479.251
35.053	27.807	2404.600	2500.034
36.067	27.921	2402.594	2499.214
37.082	27.565	2399.741	2491.064
38.096	27.437	2398.385	2487.594
39.111	27.865	2396.861	2491.595
40.126	28.365	2396.266	2497.521
41.140	28.859	2396.007	2503.715
42.155	28.440	2392.833	2494.371
43.169	28.144	2390.659	2487.770
44.184	28.643	2388.346	2491.871
45.199	28.411	2385.873	2485.828
46.213	28.165	2383.839	2480.061
47.228	28.110	2383.145	2478.294
48.242	28.160	2381.123	2476.578
49.257	28.129	2380.293	2474.997
50.271	28.524	2377.203	2476.842
51.286	28.443	2375.624	2473.814
52.301	28.179	2372.149	2466.319
53.315	27.361	2370.071	2452.784
54.330	25.620	2362.776	2421.415
55.344	24.385	2355.869	2397.368
56.359	24.271	2352.192	2391.806
57.374	24.031	2350.258	2386.319
58.388	24.022	2346.983	2382.587
59.403	24.339	2345.225	2384.774
60.417	24.671	2343.874	2387.573
61.432	24.947	2342.228	2389.322
62.447	24.790	2339.913	2384.569
63.461	24.758	2337.250	2381.136
64.476	24.590	2335.236	2376.559
65.490	25.040	2336.397	2383.464
66.505	26.016	2337.257	2397.113
67.520	26.942	2339.647	2411.652
68.534	27.381	2338.840	2416.389
69.549	27.875	2336.729	2420.496
70.563	28.098	2334.634	2421.001
71.578	28.045	2333.556	2418.891
72.593	28.258	2332.363	2420.193
73.607	28.424	2332.407	2422.165
74.622	28.605	2329.907	2421.679
75.636	28.373	2326.339	2414.602
76.651	28.192	2323.647	2409.121
77.666	28.145	2321.818	2406.326
78.680	28.296	2319.183	2405.292
79.695	28.388	2318.601	2405.622
80.709	28.425	2318.807	2406.033
81.724	28.678	2316.918	2407.120
82.739	28.555	2314.139	2402.330
83.753	28.333	2311.477	2396.354
84.768	28.313	2309.231	2393.476
85.782	28.144	2307.658	2389.341
86.797	28.089	2305.747	2386.360
87.812	27.936	2303.025	2381.248
88.826	27.740	2301.198	2376.505
89.841	27.923	2299.827	2377.196
90.855	28.461	2297.343	2381.380
91.870	28.060	2294.975	2373.401
92.884	27.826	2293.473	2368.521
93.899	27.939	2292.094	2368.276
94.914	27.429	2289.155	2358.318
95.928	25.963	2283.964	2333.636
96.943	25.265	2281.022	2321.281
97.957	26.355	2284.145	2338.362
98.972	27.333	2283.898	2350.536
99.987	27.239	2279.767	2344.785
101.001	27.379	2277.325	2343.802
102.016	27.509	2276.715	2344.577
103.030	27.681	2274.573	2344.313
104.045	27.976	2272.929	2346.145
105.060	28.377	2272.659	2350.758
106.074	28.081	2269.753	2343.656
107.089	27.777	2266.923	2336.549
108.103	28.077	2266.656	2339.844
109.118	28.221	2266.404	2341.165
110.133	28.374	2263.906	2340.261
111.147	28.575	2261.740	2340.320
112.162	28.465	2260.250	2337.097
113.176	28.141	2257.326	2329.636
114.191	28.046	2255.422	2326.177
115.206	27.907	2254.274	2322.948
116.220	27.990	2251.542	2320.910
117.235	27.864	2248.969	2316.379
118.249	27.822	2247.266	2313.812
119.264	28.343	2246.481	2319.355
120.279	28.471	2245.193	2319.376
121.293	28.152	2242.713	2312.479
122.308	28.201	2241.716	2311.804
123.322	28.242	2240.289	2310.566
124.337	27.393	2236.896	2296.041
125.352	25.901	2232.080	2271.929
126.366	25.672	2231.647	2268.313
127.381	27.063	2231.815	2285.830
128.395	27.899	2230.875	2295.148
129.410	28.229	2230.422	2298.574
130.424	28.326	2228.316	2297.357
131.439	28.200	2226.176	2293.291
132.454	28.009	2223.559	2287.912
133.468	28.146	2221.124	2286.856
134.483	28.074	2219.656	2284.165
135.497	27.965	2218.025	2280.845
136.512	28.302	2215.827	2282.544
137.527	28.336	2214.344	2281.156
138.541	28.186	2212.482	2277.091
139.556	27.852	2211.888	2272.035
140.570	27.986	2210.503	2272.018
141.585	28.146	2208.148	2271.321
142.600	28.039	2207.856	2269.416
143.614	27.956	2206.301	2266.507
144.629	28.182	2204.026	2266.708
145.643	27.783	2202.249	2259.648
146.658	27.740	2199.392	2255.912
147.673	27.682	2197.470	2252.954
148.687	27.975	2196.432	2255.252
149.702	27.832	2195.717	2252.479
150.716	27.718	2195.007	2250.061
151.731	28.138	2194.082	2254.048
152.746	28.507	2192.634	2256.864
153.760	27.641	2188.633	2241.778
154.775	25.591	2182.964	2210.407
155.789	24.682	2178.810	2194.714
156.804	25.882	2178.964	2209.408
157.819	27.106	2178.639	2223.883
158.833	27.586	2177.842	2228.713
159.848	28.028	2178.090	2234.126
160.862	28.239	2177.606	2235.950
161.877	28.585	2176.124	2238.406
162.892	28.420	2175.110	2235.079
163.906	28.676	2173.226	2236.002
164.921	28.599	2171.410	2232.927
165.935	28.490	2168.673	2228.515
166.950	28.301	2166.845	2224.065
167.964	28.045	2163.558	2217.301
168.979	27.801	2162.822	2213.303
169.994	28.147	2161.988	2216.402
171.008	28.249	2160.405	2215.760
172.023	28.139	2158.744	2212.449
173.037	28.221	2157.991	2212.410
174.052	28.285	2154.917	2209.773
175.067	28.191	2152.485	2205.879
176.081	28.106	2152.293	2204.380
177.096	28.207	2150.483	2203.487
178.110	27.952	2147.431	2197.018
179.125	27.907	2147.454	2196.227
180.140	28.154	2146.843	2198.322
181.154	28.115	2146.066	2196.795
182.169	28.084	2143.350	2193.376
183.183	27.357	2139.775	2180.707
184.198	25.541	2133.450	2152.177
185.213	25.078	2132.460	2145.348
186.227	27.082	2135.826	2172.592
187.242	27.938	2136.263	2183.069
188.256	28.015	2134.548	2181.971
189.271	28.485	2134.205	2186.998
190.286	28.552	2132.792	2186.098
191.300	28.079	2129.755	2177.055
192.315	27.952	2128.601	2174.105
193.329	28.437	2126.990	2177.985
194.344	28.600	2126.296	2178.967
195.359	28.597	2124.891	2177.230
196.373	28.682	2122.851	2175.889
197.388	28.666	2120.302	2172.826
198.402	28.375	2117.235	2165.967
199.417	28.191	2114.758	2160.993
200.432	28.259	2113.208	2159.956
201.446	28.293	2112.808	2159.686
202.461	28.304	2110.813	2157.520
203.475	27.815	2109.636	2150.266
204.490	27.841	2106.989	2147.628
205.504	27.869	2104.676	2145.343
206.519	27.704	2101.222	2139.618
207.534	27.837	2099.640	2139.315
208.548	27.956	2099.370	2140.191
209.563	27.623	2097.796	2134.409
210.577	27.676	2095.747	2132.695
211.592	27.931	2095.715	2135.394
212.607	26.985	2091.627	2119.881
213.621	24.649	2084.469	2085.011
214.636	24.549	2084.018	2083.138
215.650	26.611	2088.425	2111.487
216.665	27.701	2087.971	2123.545
217.680	28.149	2086.878	2127.417
218.694	28.344	2085.971	2128.510
219.709	28.029	2084.237	2122.809
220.723	28.068	2083.381	2122.144
221.738	28.263	2082.169	2122.931
222.753	28.242	2079.008	2119.205
223.767	28.014	2077.904	2115.172
224.782	27.678	2074.176	2107.223
225.796	27.580	2072.465	2104.095
226.811	28.126	2071.057	2108.741
227.826	28.276	2071.313	2110.491
228.840	28.471	2069.668	2110.816
229.855	28.278	2068.512	2107.153
230.869	28.198	2067.058	2104.496
231.884	28.141	2065.414	2101.910
232.899	28.064	2064.558	2099.906
233.913	28.216	2063.089	2099.915
234.928	28.436	2061.183	2100.251
235.942	28.366	2059.471	2097.451
236.957	28.180	2058.589	2094.163
237.972	28.335	2056.310	2093.369
238.986	28.359	2055.460	2092.534
240.001	28.228	2054.152	2089.449
241.015	27.932	2051.475	2083.088
242.030	27.576	2048.993	2076.242
243.045	26.151	2044.016	2054.662
244.059	25.663	2043.099	2047.906
245.074	27.428	2044.756	2069.512
246.088	27.919	2043.673	2073.769
247.103	27.956	2042.175	2072.428
248.117	28.275	2041.056	2074.669
249.132	28.442	2040.412	2075.674
250.147	28.257	2037.451	2070.305
251.161	27.964	2034.710	2063.952
252.176	28.072	2034.278	2064.495
253.190	27.809	2030.892	2057.829
254.205	27.279	2027.826	2048.478
255.220	27.194	2026.189	2045.616
256.234	27.069	2026.247	2044.016
257.249	27.195	2024.534	2043.467
258.263	27.253	2022.899	2042.229
259.278	26.993	2021.091	2037.222
260.293	26.900	2019.955	2034.786
261.307	27.179	2020.308	2038.048
262.322	27.597	2018.951	2041.135
263.336	27.562	2015.870	2037.385
264.351	27.576	2014.142	2035.550
265.366	27.715	2013.147	2035.861
266.380	27.656	2012.708	2034.510
267.395	27.394	2009.481	2028.076
268.409	27.498	2009.322	2028.830
269.424	27.968	2008.945	2033.468
270.439	28.140	2007.900	2034.087
271.453	27.568	2003.624	2023.135
272.468	25.417	1996.941	1992.203
273.482	24.911	1995.710	1985.090
274.497	26.644	1997.182	2005.628
275.512	27.735	1997.495	2017.836
276.526	27.957	1995.246	2017.789
277.541	27.895	1993.622	2015.215
278.555	27.868	1991.472	2012.499
279.570	27.386	1989.388	2004.824
280.585	27.355	1987.380	2002.219
281.599	27.724	1987.757	2006.442
282.614	27.853	1986.339	2006.186
283.628	27.453	1983.624	1998.794
284.643	27.210	1983.462	1995.711
285.657	27.442	1981.448	1996.007
286.672	27.366	1979.244	1992.704
287.687	26.926	1976.408	1984.781
288.701	26.664	1975.379	1980.625
289.716	26.580	1974.329	1978.420
290.730	26.803	1972.123	1978.411
291.745	26.955	1971.370	1979.088
292.760	27.062	1971.051	1979.699
293.774	27.054	1971.299	1979.629
294.789	27.842	1970.658	1987.375
295.803	28.165	1968.502	1988.488
296.818	28.148	1967.785	1987.338
297.833	28.214	1967.962	1988.004
298.847	28.270	1966.467	1986.865
299.862	28.231	1963.376	1983.080
300.876	27.686	1960.090	1973.603
301.891	25.700	1953.474	1945.149
302.906	25.381	1953.433	1941.406
303.920	27.456	1956.752	1967.036
304.935	28.174	1955.395	1973.221
305.949	28.182	1952.990	1970.643
306.964	28.431	1952.432	1972.537
307.979	28.344	1950.579	1969.493
308.993	27.413	1946.922	1955.519
310.008	26.862	1943.480	1945.881
311.022	27.015	1943.782	1947.608
312.037	27.290	1942.474	1949.017
313.052	26.896	1939.502	1941.569
314.066	26.130	1935.743	1929.349
315.081	25.829	1933.572	1923.724
316.095	25.475	1931.977	1918.104
317.110	25.359	1930.443	1915.116
318.125	25.927	1930.418	1920.946
319.139	26.628	1930.487	1928.290
320.154	27.189	1930.044	1933.616
321.168	27.330	1928.414	1933.259
322.183	27.553	1929.043	1936.034
323.197	27.881	1927.536	1937.792
324.212	27.907	1925.477	1935.762
325.227	27.734	1924.164	1932.368
326.241	27.804	1923.068	1931.784
327.256	28.120	1922.785	1934.633
328.270	27.903	1921.319	1930.616
329.285	27.902	1920.866	1929.917
330.300	27.524	1918.227	1923.033
331.314	25.418	1911.228	1893.493
332.329	25.041	1909.894	1887.960
333.343	26.983	1912.768	1911.145
334.358	28.195	1913.132	1924.093
335.373	28.428	1912.479	1925.671
336.387	28.446	1910.254	1923.388
337.402	28.251	1908.330	1919.168
338.416	28.224	1906.313	1916.628
339.431	28.213	1905.739	1915.702
340.446	28.609	1904.041	1917.929
341.460	28.379	1901.988	1913.221
342.475	28.035	1899.160	1906.543
343.489	27.308	1896.378	1895.908
344.504	26.890	1894.421	1889.353
345.519	26.734	1891.049	1884.129
346.533	26.300	1888.824	1877.153
347.548	26.305	1889.209	1877.368
348.562	26.680	1888.557	1880.409
349.577	26.721	1887.799	1879.857
350.592	26.695	1885.806	1877.376
351.606	26.702	1883.889	1875.317
352.621	26.639	1882.337	1872.892
353.635	27.016	1882.452	1876.696
354.650	27.356	1881.108	1878.659
355.665	27.603	1880.915	1880.800
356.679	27.789	1880.354	1881.943
357.694	27.907	1879.222	1881.815
358.708	28.059	1878.031	1881.965
359.723	27.445	1875.686	1873.043
360.738	25.454	1869.823	1846.425
361.752	25.706	1870.139	1849.119
362.767	27.587	1871.000	1869.161
363.781	28.027	1870.508	1872.978
364.796	28.196	1869.619	1873.603
365.810	28.087	1867.438	1870.072
366.825	28.093	1867.146	1869.610
367.840	28.212	1865.878	1869.344
368.854	28.024	1864.678	1865.987
369.869	27.893	1863.078	1862.822
370.883	27.697	1861.136	1858.648
371.898	27.244	1858.351	1851.010
372.913	26.950	1856.588	1846.029
373.927	27.073	1855.129	1845.609
374.942	27.111	1854.605	1845.258
375.956	27.109	1853.126	1843.542
376.971	27.009	1849.804	1839.008
377.986	26.522	1847.184	1831.227
379.000	26.769	1847.522	1833.858
380.015	27.636	1848.352	1843.277
381.029	28.304	1847.620	1849.102
382.044	28.489	1846.693	1849.836
383.059	28.518	1844.333	1847.535
384.073	28.069	1841.869	1840.307
385.088	27.625	1840.937	1834.673
386.102	27.661	1838.160	1832.042
387.117	27.675	1836.358	1830.171
388.132	27.623	1836.311	1829.375
389.146	27.288	1834.546	1824.027
390.161	25.214	1829.423	1797.844
391.175	25.153	1826.961	1794.601
392.190	26.995	1827.775	1813.697
393.205	27.535	1826.882	1818.010
394.219	27.699	1826.318	1818.883
395.234	27.827	1824.912	1818.541
396.248	27.772	1822.866	1815.735
397.263	27.742	1820.616	1812.977
398.278	27.786	1817.820	1810.413
399.292	27.537	1818.520	1808.413
400.307	27.827	1818.950	1811.520
401.321	27.974	1816.323	1810.146
402.336	27.072	1812.454	1797.108
403.350	26.134	1809.532	1784.679
404.365	26.596	1809.357	1788.880
405.380	26.737	1808.520	1789.237
406.394	26.075	1805.730	1779.704
407.409	25.806	1803.265	1774.398
408.423	25.738	1801.622	1771.895
409.438	25.716	1800.186	1770.058
410.453	26.044	1799.988	1772.886
411.467	26.916	1801.434	1782.717
412.482	27.534	1801.011	1788.182
413.496	27.831	1800.679	1790.571
414.511	27.948	1798.732	1789.570
415.526	27.699	1796.818	1785.005
416.540	28.060	1795.526	1787.056
417.555	27.951	1793.944	1784.194
418.569	27.807	1793.854	1782.477
419.584	27.883	1794.707	1783.862
420.599	27.877	1792.850	1781.737
421.613	27.695	1791.206	1778.109
422.628	27.917	1790.995	1779.867
423.642	28.208	1790.402	1781.910
424.657	28.115	1787.608	1778.002
425.672	27.485	1784.912	1768.963
426.686	27.651	1783.546	1769.013
427.701	27.758	1782.753	1769.066
428.715	27.926	1781.056	1768.801
429.730	28.150	1780.113	1769.829
430.745	28.361	1779.325	1770.884
431.759	28.159	1778.253	1767.646
432.774	27.110	1774.274	1753.310
433.788	25.340	1770.712	1732.429
434.803	24.615	1769.292	1723.802
435.818	24.612	1768.688	1722.987
436.832	24.741	1767.417	1722.791
437.847	23.628	1758.043	1702.718
438.861	13.890	1730.565	1583.018
439.876	2.718	1710.563	1458.221
440.890	0.545	1705.266	1432.816
441.905	0.346	1704.621	1430.210
442.920	0.323	1703.191	1428.613
443.934	0.248	1701.479	1426.295
444.949	0.244	1700.592	1425.343
445.963	0.237	1699.424	1424.129
446.978	0.169	1699.061	1423.005
447.993	0.228	1697.998	1422.506
449.007	0.181	1695.288	1419.616
450.022	0.354	1693.150	1419.299
451.036	0.339	1691.678	1417.747
452.051	0.815	1695.467	1425.263
453.066	9.584	1717.780	1527.728
454.080	21.069	1737.647	1655.370
455.095	24.274	1743.746	1691.602
456.109	25.634	1745.778	1706.344
457.124	26.028	1744.674	1708.813
458.139	25.863	1742.271	1704.688
459.153	25.618	1741.708	1701.597
460.168	25.594	1740.195	1699.689
461.182	25.602	1738.754	1698.154
462.197	25.843	1736.787	1698.316
463.212	25.982	1735.610	1698.282
464.226	26.014	1734.611	1697.397
465.241	26.018	1733.057	1695.719
466.255	25.920	1732.315	1693.859
467.270	25.965	1730.658	1692.459
468.285	26.021	1729.998	1692.139
469.299	26.125	1728.764	1691.707
470.314	26.232	1726.939	1690.729
471.328	26.131	1725.716	1688.378
472.343	26.195	1724.853	1687.940
473.358	26.133	1723.588	1685.916
474.372	25.995	1722.666	1683.516
475.387	26.306	1721.295	1684.888
476.401	26.185	1719.090	1681.400
477.416	25.851	1717.569	1676.586
478.430	25.739	1716.040	1673.846
479.445	26.002	1715.120	1675.206
480.460	26.071	1714.829	1675.361
481.474	26.196	1713.876	1675.394
482.489	26.169	1712.516	1673.614
483.503	25.862	1710.117	1668.216
484.518	25.731	1708.989	1665.699
485.533	25.980	1706.631	1665.509
486.547	25.749	1704.065	1660.668
487.562	25.234	1703.931	1655.561
488.576	25.554	1702.294	1656.739
489.591	25.710	1701.425	1657.131
490.606	26.020	1700.908	1659.301
491.620	26.216	1698.832	1658.882
492.635	25.726	1697.006	1652.389
493.649	25.527	1695.259	1648.648
494.664	25.697	1694.918	1649.686
495.679	26.087	1694.178	1652.358
496.693	25.999	1692.914	1650.125
497.708	25.910	1691.555	1647.783
498.722	25.963	1689.882	1646.438
499.737	25.943	1688.648	1644.856
500.752	25.957	1687.311	1643.484
501.766	26.112	1686.278	1643.707
502.781	26.076	1684.519	1641.464
503.795	26.151	1682.417	1639.902
504.810	26.121	1681.228	1638.274
505.825	26.065	1680.532	1636.889
506.839	25.869	1679.824	1634.215
507.854	25.961	1678.459	1633.534
508.868	25.714	1676.094	1628.786
509.883	25.611	1675.610	1627.187
510.898	25.489	1673.244	1623.588
511.912	25.374	1672.383	1621.512
512.927	25.417	1670.692	1620.069
513.941	25.342	1669.580	1618.116
514.956	25.717	1668.727	1620.495
515.971	25.963	1667.269	1621.108
516.985	25.866	1665.219	1618.039
518.000	25.622	1664.307	1614.764
519.014	25.263	1663.356	1610.404
520.029	25.195	1661.607	1607.905
521.043	25.425	1659.853	1608.090
522.058	25.485	1658.701	1607.323
523.073	25.440	1658.616	1606.643
524.087	25.167	1657.096	1602.527
525.102	25.395	1655.663	1602.991
526.116	25.788	1655.892	1606.549
527.131	25.996	1654.778	1607.140
528.146	25.929	1653.010	1604.628
529.160	25.633	1652.235	1601.039
530.175	25.775	1650.707	1600.632
531.189	25.647	1649.740	1598.363
532.204	25.613	1647.710	1595.897
533.219	25.597	1647.585	1595.441
534.233	25.910	1646.900	1597.377
535.248	25.675	1644.453	1592.727
536.262	25.397	1642.535	1588.208
537.277	25.482	1641.895	1588.148
538.292	25.656	1640.120	1587.790
539.306	25.612	1638.172	1585.324
540.321	25.315	1636.836	1581.208
541.335	25.244	1635.648	1579.244
542.350	25.397	1634.201	1579.012
543.365	25.516	1632.759	1578.479
544.379	25.428	1631.171	1575.977
545.394	25.267	1630.207	1573.443
546.408	25.586	1629.208	1575.093
547.423	25.882	1628.307	1576.643
548.438	25.938	1628.352	1576.984
549.452	25.869	1626.878	1574.765
550.467	25.783	1625.258	1572.258
551.481	25.819	1623.460	1570.642
552.496	25.503	1623.421	1567.649
553.511	25.308	1621.771	1564.160
554.525	25.454	1620.463	1563.983
555.540	25.381	1619.199	1561.940
556.554	25.277	1618.159	1559.847
557.569	25.335	1616.371	1558.436
558.583	25.503	1614.411	1557.826
559.598	25.678	1613.506	1558.293
560.613	25.381	1613.615	1555.626
561.627	25.244	1611.929	1552.616
562.642	25.169	1609.570	1549.514
563.656	24.793	1606.974	1543.567
564.671	24.658	1606.353	1541.610
565.686	24.844	1604.867	1541.613
566.700	24.839	1604.539	1541.069
567.715	25.075	1602.945	1541.400
568.729	25.168	1601.860	1540.970
569.744	25.479	1600.617	1542.277
570.759	25.474	1599.406	1540.876
571.773	25.210	1598.080	1537.141
572.788	24.964	1596.983	1533.785
573.802	24.937	1594.733	1531.208
574.817	24.859	1593.416	1529.092
575.832	24.612	1591.982	1525.412
576.846	24.874	1590.530	1526.089
577.861	25.158	1590.806	1528.601
578.875	25.151	1590.064	1527.645
579.890	25.003	1588.783	1524.963
580.905	25.181	1587.645	1525.218
581.919	25.051	1586.757	1523.064
582.934	24.827	1585.812	1520.067
583.948	24.840	1583.989	1518.250
584.963	24.928	1582.633	1517.513
585.978	25.150	1581.934	1518.553
586.992	24.930	1580.515	1515.142
588.007	24.622	1579.521	1511.390
589.021	24.822	1578.945	1512.353
590.036	24.776	1576.401	1509.342
591.051	24.791	1575.535	1508.461
592.065	24.702	1573.347	1505.434
593.080	24.631	1572.338	1503.690
594.094	24.916	1571.143	1504.773
595.109	25.042	1570.430	1504.977
596.123	25.685	1569.024	1508.868
597.138	25.446	1567.711	1505.410
598.153	25.221	1566.294	1501.980
599.167	25.059	1565.188	1499.373
600.182	25.152	1563.492	1498.350
601.196	25.094	1562.916	1497.137
602.211	25.197	1561.537	1496.494
603.226	24.802	1559.878	1491.421
604.240	24.752	1559.118	1490.098
605.255	24.707	1557.413	1487.911
606.269	24.703	1556.924	1487.231
607.284	24.839	1555.500	1486.829
608.299	24.797	1554.342	1485.199
609.313	24.882	1553.162	1484.599
610.328	24.850	1551.655	1482.712
611.342	24.780	1550.341	1480.697
612.357	24.686	1549.023	1478.477
613.372	24.646	1547.812	1476.816
614.386	24.566	1546.814	1475.026
615.401	24.368	1546.078	1472.503
616.415	24.271	1544.428	1469.947
617.430	24.329	1543.562	1469.428
618.445	24.051	1542.052	1465.517
619.459	24.225	1541.175	1465.945
620.474	24.521	1540.971	1468.024
621.488	24.976	1540.526	1471.183
622.503	25.101	1539.638	1471.186
623.518	24.619	1537.216	1464.727
624.532	24.292	1535.489	1460.213
625.547	24.195	1533.487	1457.336
626.561	23.835	1532.782	1453.533
627.576	23.606	1531.817	1450.563
628.591	24.150	1531.390	1454.456
629.605	24.683	1530.513	1457.819
630.620	24.825	1529.539	1457.874
631.634	25.302	1528.526	1460.637
632.649	25.062	1527.239	1457.274
633.663	24.754	1524.647	1452.113
634.678	24.138	1523.034	1445.377
635.693	23.840	1520.812	1440.669
636.707	23.803	1519.508	1438.965
637.722	23.650	1518.673	1436.758
638.736	23.989	1516.893	1437.654
639.751	24.121	1516.618	1438.295
640.766	24.261	1515.825	1438.500
641.780	24.226	1514.030	1436.347
642.795	24.302	1514.196	1436.946
643.809	24.346	1513.424	1436.394
644.824	24.375	1512.962	1436.022
645.839	24.501	1512.425	1436.355
646.853	24.398	1510.470	1433.500
647.868	24.409	1508.860	1431.885
648.882	24.592	1507.259	1431.671
649.897	24.515	1506.093	1429.770
650.912	24.461	1504.261	1427.429
651.926	24.307	1503.223	1425.031
652.941	24.288	1502.549	1424.074
653.955	24.308	1501.684	1423.244
654.970	24.455	1499.805	1422.467
655.985	24.371	1497.834	1419.760
656.999	24.185	1496.272	1416.620
658.014	24.171	1494.599	1414.755
659.028	24.066	1494.327	1413.494
660.043	24.245	1493.989	1414.432
661.058	24.279	1491.940	1412.591
662.072	24.143	1491.658	1411.075
663.087	24.196	1490.666	1410.388
664.101	24.511	1489.758	1411.866
665.116	24.313	1488.828	1409.241
666.131	24.237	1488.028	1407.710
667.145	24.316	1486.373	1406.603
668.160	24.150	1484.636	1403.476
669.174	23.905	1482.586	1399.431
670.189	24.003	1482.230	1399.702
671.204	24.148	1481.918	1400.386
672.218	24.170	1480.669	1399.218
673.233	24.179	1479.028	1397.564
674.247	23.833	1477.678	1393.399
675.262	23.801	1476.154	1391.545
676.276	23.924	1474.588	1390.864
677.291	23.984	1474.959	1391.525
678.306	24.363	1474.009	1393.435
679.320	24.305	1472.177	1391.078
680.335	24.003	1471.414	1387.824
681.349	23.828	1470.823	1385.732
682.364	23.880	1469.812	1385.021
683.379	23.837	1468.190	1382.987
684.393	23.677	1466.589	1380.070
685.408	23.635	1465.352	1378.409
686.422	23.650	1464.651	1377.703
687.437	23.406	1463.313	1374.380
688.452	23.339	1461.804	1372.275
689.466	23.475	1460.189	1371.648
690.481	23.537	1459.526	1371.348
691.495	23.590	1460.152	1372.184
692.510	24.354	1459.518	1377.354
693.525	24.675	1458.260	1378.495
694.539	24.343	1456.266	1373.871
695.554	23.742	1453.879	1366.810
696.568	23.386	1452.733	1362.813
697.583	23.064	1452.754	1360.181
698.598	23.189	1451.499	1359.813
699.612	23.199	1450.024	1358.341
700.627	23.132	1449.045	1356.746
701.641	23.736	1447.480	1359.770
702.656	23.738	1446.813	1358.995
703.671	23.393	1446.854	1356.219
704.685	23.510	1446.026	1356.177
705.700	23.751	1444.423	1356.358
706.714	23.817	1443.200	1355.554
707.729	23.951	1442.225	1355.507
708.744	23.773	1440.466	1352.328
709.758	23.610	1439.747	1350.242
710.773	23.497	1438.579	1348.126
711.787	23.497	1438.053	1347.470
712.802	23.724	1436.073	1347.183
713.816	23.730	1435.091	1346.151
714.831	23.760	1433.776	1344.980
715.846	23.648	1432.602	1342.870
716.860	23.444	1430.897	1339.562
717.875	23.705	1430.225	1340.750
718.889	23.631	1430.044	1339.857
719.904	23.747	1428.137	1338.788
720.919	23.425	1426.706	1334.852
721.933	23.382	1425.562	1333.296
722.948	23.375	1424.760	1332.333
723.962	23.409	1423.176	1330.951
724.977	23.417	1421.712	1329.479
725.992	23.178	1420.961	1326.824
727.006	23.497	1420.245	1328.397
728.021	23.345	1418.529	1325.489
729.035	23.350	1417.674	1324.570
730.050	23.257	1417.042	1323.121
731.065	23.378	1415.918	1322.821
732.079	23.156	1414.574	1319.743
733.094	23.332	1414.043	1320.408
734.108	23.509	1412.115	1319.771
735.123	23.522	1409.990	1317.728
736.138	23.545	1409.708	1317.480
737.152	23.436	1408.577	1315.450
738.167	23.176	1406.956	1311.842
739.181	23.120	1405.762	1310.155
740.196	23.017	1405.691	1309.161
741.211	23.075	1405.200	1308.979
742.225	23.191	1403.977	1308.545
743.240	23.054	1402.334	1305.841
744.254	22.993	1400.928	1303.926
745.269	22.894	1399.526	1301.731
746.284	22.852	1399.428	1301.170
747.298	22.914	1398.452	1300.564
748.313	23.071	1398.595	1301.703
749.327	23.622	1398.066	1305.130
750.342	24.065	1397.766	1307.967
751.356	24.457	1396.829	1309.830
752.371	24.298	1394.613	1306.423
753.386	23.462	1392.453	1298.093
754.400	22.974	1391.261	1293.240
755.415	23.381	1389.629	1294.554
756.429	23.239	1388.678	1292.472
757.444	23.353	1387.445	1292.008
758.459	23.213	1386.338	1289.795
759.473	22.950	1385.074	1286.543
760.488	22.936	1383.744	1285.048
761.502	22.957	1382.307	1283.715
762.517	23.065	1381.048	1283.176
763.532	23.107	1380.724	1283.032
764.546	23.137	1379.929	1282.353
765.561	23.162	1379.649	1282.124
766.575	23.447	1378.857	1283.307
767.590	23.703	1377.184	1283.455
768.605	23.506	1376.110	1280.876
769.619	23.301	1374.629	1277.857
770.634	23.218	1373.286	1275.854
771.648	23.021	1372.131	1273.201
772.663	22.903	1371.447	1271.559
773.678	22.881	1371.055	1270.881
774.692	23.144	1369.881	1271.546
775.707	22.934	1369.155	1269.201
776.721	22.974	1367.959	1268.227
777.736	22.782	1366.623	1265.457
778.751	22.906	1365.830	1265.467
779.765	22.884	1365.070	1264.451
780.780	22.956	1363.921	1263.753
781.794	23.027	1363.134	1263.382
782.809	22.781	1361.764	1260.192
783.824	22.666	1360.725	1258.258
784.838	22.747	1360.698	1258.661
785.853	23.561	1360.569	1264.229
786.867	23.511	1359.024	1262.283
787.882	22.988	1358.218	1257.640
788.897	22.790	1356.778	1254.743
789.911	22.723	1355.371	1252.815
790.926	22.719	1353.611	1251.005
791.940	22.661	1352.354	1249.280
792.955	22.711	1350.029	1247.343
793.969	22.431	1350.198	1245.359
794.984	22.475	1349.402	1244.791
795.999	22.536	1348.590	1244.319
797.013	22.751	1346.435	1243.705
798.028	22.684	1345.692	1242.402
799.042	22.646	1344.991	1241.336
800.057	22.617	1343.404	1239.518
801.072	22.833	1341.780	1239.390
802.086	22.601	1341.033	1236.917
803.101	22.521	1339.845	1235.111
804.115	22.401	1339.514	1233.809
805.130	22.514	1338.564	1233.584
806.145	22.603	1337.361	1232.952
807.159	22.715	1335.763	1232.120
808.174	22.869	1334.894	1232.251
809.188	22.897	1333.276	1230.810
810.203	22.873	1332.012	1229.326
811.218	23.056	1330.713	1229.261
812.232	23.068	1329.659	1228.220
813.247	23.071	1329.024	1227.506
814.261	22.999	1328.491	1226.365
815.276	22.850	1327.064	1223.864
816.291	22.767	1325.100	1221.327
817.305	22.487	1323.931	1218.157
818.320	22.624	1322.490	1217.640
819.334	22.626	1321.416	1216.520
820.349	22.372	1321.000	1214.229
821.364	22.527	1319.042	1213.360
822.378	22.463	1317.605	1211.448
823.393	22.159	1316.145	1207.861
824.407	22.549	1315.003	1209.362
825.422	22.411	1314.489	1207.791
826.437	22.316	1314.388	1206.895
827.451	22.357	1312.540	1205.341
828.466	23.036	1311.847	1209.229
829.480	23.417	1310.505	1210.463
830.495	23.054	1307.501	1205.056
831.509	22.547	1306.132	1200.180
832.524	22.417	1306.249	1199.251
833.539	22.451	1304.344	1197.594
834.553	22.575	1302.875	1196.948
835.568	22.431	1301.301	1194.374
836.582	22.255	1300.933	1192.693
837.597	22.474	1300.107	1193.290
838.612	22.510	1298.350	1191.778
839.626	22.495	1297.512	1190.765
840.641	22.711	1297.059	1191.670
841.655	22.807	1296.028	1191.236
842.670	23.059	1296.046	1192.817
843.685	23.146	1295.064	1192.360
844.699	23.116	1292.957	1190.073
845.714	22.640	1292.020	1185.853
846.728	22.810	1289.922	1184.930
847.743	22.498	1288.662	1181.532
848.758	22.533	1287.834	1180.866
849.772	22.451	1286.479	1178.929
850.787	22.345	1284.755	1176.494
851.801	22.335	1283.621	1175.246
852.816	22.271	1283.228	1174.319
853.831	22.439	1280.987	1173.256
854.845	22.504	1279.410	1172.106
855.860	22.301	1278.380	1169.660
856.874	22.479	1277.312	1169.736
857.889	22.719	1276.986	1170.894
858.904	22.964	1275.938	1171.431
859.918	23.297	1275.316	1172.933
860.933	23.477	1274.163	1172.931
861.947	23.241	1272.679	1169.855
862.962	22.729	1271.033	1164.803
863.977	22.695	1269.433	1162.977
864.991	22.397	1268.505	1160.011
866.006	22.296	1267.880	1158.635
867.020	22.357	1266.682	1157.805
868.035	22.100	1265.868	1155.223
869.049	22.265	1264.873	1155.269
870.064	22.225	1263.525	1153.630
871.079	22.339	1262.896	1153.674
872.093	22.424	1261.709	1153.009
873.108	22.444	1260.974	1152.328
874.122	22.489	1260.461	1152.019
875.137	22.813	1259.656	1153.274
876.152	22.950	1258.816	1153.269
877.166	23.045	1256.676	1151.786
878.181	22.662	1255.184	1147.782
879.195	22.564	1254.578	1146.449
880.210	22.374	1254.232	1144.753
881.225	22.265	1253.518	1143.247
882.239	22.296	1252.158	1142.074
883.254	22.304	1251.039	1140.969
884.268	22.453	1249.563	1140.456
885.283	22.378	1248.743	1139.084
886.298	22.276	1247.106	1136.793
887.312	22.450	1245.651	1136.460
888.327	22.312	1245.226	1135.038
889.341	22.438	1243.242	1133.912
890.356	22.352	1243.415	1133.379
891.371	22.228	1243.274	1132.309
892.385	22.487	1242.273	1132.940
893.400	22.391	1241.215	1131.218
894.414	22.384	1240.651	1130.521
895.429	22.728	1238.890	1131.001
896.444	23.623	1238.763	1136.514
897.458	24.181	1237.670	1138.962
898.473	23.539	1236.480	1133.605
899.487	22.880	1234.799	1127.698
900.502	22.643	1232.938	1124.344
901.517	22.431	1232.047	1122.043
902.531	22.374	1230.763	1120.371
903.546	22.387	1230.697	1120.263
904.560	22.247	1229.729	1118.352
905.575	22.233	1228.957	1117.425
906.589	22.469	1227.732	1117.683
907.604	22.390	1227.222	1116.585
