DTS Sentinel unit serial number:	SN409020Multiplexer serial number:	ORYXHardware model number:	OX4-SRSoftware version number:	ORYX F/W v3.00 Oryx Data Collector v3.7.2.0data status	okinstallation	HaddamTimeLapsedifferential loss correction	single-endedforward channel	channel 3reverse channel	N/Adate	2011/06/21time	20:01:17forward acquisition time	30.00reverse acquisition time	0.00gamma	498.7831k internal	0.1787k external	0.1787temperature offset calibration	1.0074default loss term (dB/km)	0.3790temperature slope calibration	1.3530multiplexer offset coefficient	1.0000multiplexer slope coefficient	1.0000fibre end	0.00T internal ref (°C)	32.34T ext. ref 1 (°C)	23.88T ext. ref 2 (°C)	0.03length (m)	temperature (°C)	Stokes	anti-Stokes-747.200	32.974	-0.356	-0.401
-746.185	800.000	0.032	0.162
-745.171	800.000	-0.047	-0.247
-744.156	800.000	0.037	0.159
-743.142	-183.447	-0.278	-0.006
-742.127	50.987	0.084	0.104
-741.112	-18.657	0.352	-0.285
-740.098	20.611	-0.076	0.080
-739.083	85.263	-0.189	-0.271
-738.069	165.005	0.084	0.155
-737.054	-6.841	0.062	-0.055
-736.039	-48.502	0.212	-0.132
-735.025	-200.000	-0.003	-0.208
-734.010	278.607	0.140	-0.325
-732.996	800.000	-0.101	-0.554
-731.981	-12.828	0.350	-0.296
-730.966	-30.758	0.343	0.252
-729.952	19.314	-0.087	-0.091
-728.937	-113.049	-0.290	-0.074
-727.923	117.773	-0.189	0.303
-726.908	-153.619	-0.362	0.032
-725.894	-86.184	-0.231	-0.092
-724.879	-200.000	-0.019	0.176
-723.864	-40.762	-0.288	0.194
-722.850	-106.183	0.283	0.082
-721.835	113.575	-0.025	-0.040
-720.821	67.894	-0.315	-0.419
-719.806	121.537	-0.222	0.361
-718.791	4.914	0.028	-0.027
-717.777	-143.317	-0.331	-0.041
-716.762	71.888	-0.104	-0.141
-715.748	-6.238	-0.181	-0.161
-714.733	-37.643	-0.323	-0.223
-713.718	244.660	-0.039	-0.085
-712.704	169.636	-0.233	-0.435
-711.689	-200.000	-0.007	-0.141
-710.675	1.374	0.150	0.140
-709.660	-110.415	0.308	0.082
-708.645	261.311	-0.090	-0.203
-707.631	111.245	-0.019	0.029
-706.616	800.000	0.063	-0.326
-705.602	800.000	0.103	-0.409
-704.587	42.972	-0.166	-0.197
-703.572	-98.313	-0.248	-0.082
-702.558	329.131	0.109	-0.274
-701.543	-200.000	-0.046	0.558
-700.529	-61.802	0.420	0.228
-699.514	397.046	-0.074	0.201
-698.499	788.904	-0.057	0.203
-697.485	-18.543	0.264	-0.214
-696.470	-86.400	0.511	0.203
-695.456	32.456	-0.131	0.147
-694.441	132.730	0.198	-0.333
-693.426	800.000	0.102	0.442
-692.412	-53.973	-0.155	-0.091
-691.397	262.274	0.085	-0.192
-690.383	304.449	-0.178	0.432
-689.368	441.904	-0.026	-0.074
-688.354	-67.797	-0.387	-0.196
-687.339	272.836	-0.174	-0.401
-686.324	800.000	0.022	0.106
-685.310	-148.731	-0.369	0.038
-684.295	-7.731	-0.169	0.148
-683.281	-66.459	-0.186	-0.095
-682.266	-78.665	-0.196	0.086
-681.251	-200.000	-0.019	-0.201
-680.237	-23.659	-0.088	0.069
-679.222	800.000	0.027	-0.116
-678.208	-133.383	-0.582	-0.094
-677.193	-200.000	0.013	0.292
-676.178	-125.268	0.071	-0.014
-675.164	-138.702	0.276	0.039
-674.149	800.000	-0.134	-0.507
-673.135	-42.710	0.411	-0.271
-672.120	110.849	0.183	0.286
-671.105	136.211	0.074	-0.126
-670.091	-118.400	-0.259	-0.059
-669.076	-117.840	0.221	0.051
-668.062	128.185	0.213	-0.352
-667.047	-200.000	-0.013	-0.273
-666.032	500.710	-0.087	0.262
-665.018	77.239	-0.248	-0.342
-664.003	-200.000	-0.042	0.327
-662.989	102.484	-0.119	0.180
-661.974	-174.993	0.216	0.008
-660.959	85.714	-0.066	0.094
-659.945	-126.857	-0.246	-0.047
-658.930	-200.000	0.004	0.524
-657.916	-85.579	0.432	-0.173
-656.901	-146.576	0.673	0.075
-655.886	-200.000	0.027	-0.228
-654.872	731.842	0.114	0.397
-653.857	32.722	0.107	-0.120
-652.843	-16.339	-0.490	0.403
-651.828	-129.324	-0.135	-0.024
-650.814	-43.542	-0.487	0.318
-649.799	-185.361	0.106	0.002
-648.784	-147.571	-0.049	0.005
-647.770	-117.971	-0.603	0.139
-646.755	214.730	-0.097	0.200
-645.741	-15.872	0.174	-0.144
-644.726	-140.466	0.446	-0.060
-643.711	48.856	0.108	-0.131
-642.697	-13.340	-0.124	0.104
-641.682	-180.111	-0.406	-0.011
-640.668	-149.228	-0.273	0.028
-639.653	-34.461	0.202	0.143
-638.638	244.348	0.202	-0.441
-637.624	800.000	-0.030	0.109
-636.609	-92.624	0.123	0.045
-635.595	89.953	-0.273	0.396
-634.580	-99.253	-0.184	0.060
-633.565	-194.942	0.226	-0.002
-632.551	281.240	-0.196	0.457
-631.536	-26.250	-0.203	-0.154
-630.522	47.957	-0.048	-0.058
-629.507	-101.096	0.638	0.201
-628.492	-28.968	0.192	0.143
-627.478	-200.000	0.043	0.273
-626.463	800.000	-0.087	-0.492
-625.449	-82.878	-0.380	-0.158
-624.434	-16.100	-0.318	-0.261
-623.419	18.008	0.232	0.240
-622.405	-114.619	-0.326	-0.080
-621.390	-200.000	-0.035	0.216
-620.376	39.139	0.110	0.128
-619.361	-200.000	-0.007	-0.251
-618.346	-200.000	-0.065	-0.492
-617.332	-28.037	0.182	-0.136
-616.317	89.024	0.102	0.147
-615.303	-126.130	0.205	-0.039
-614.288	14.414	-0.204	-0.206
-613.273	163.807	-0.101	0.184
-612.259	-26.359	0.282	-0.214
-611.244	-171.746	-0.341	0.014
-610.230	81.718	0.266	-0.373
-609.215	-98.543	0.132	-0.043
-608.201	271.715	-0.056	0.128
-607.186	-200.000	-0.045	0.458
-606.171	140.635	0.273	0.468
-605.157	-200.000	-0.056	0.426
-604.142	224.438	-0.092	-0.193
-603.128	-144.464	-0.233	0.028
-602.113	107.577	0.121	0.187
-601.098	-92.597	-0.298	0.107
-600.084	-200.000	0.012	-0.140
-599.069	-48.608	-0.303	0.188
-598.055	-86.161	0.390	0.155
-597.040	800.000	-0.068	0.270
-596.025	171.481	0.020	-0.037
-595.011	-36.915	0.442	-0.306
-593.996	15.084	-0.299	0.303
-592.982	-200.000	0.032	0.321
-591.967	331.163	0.038	-0.096
-590.952	-96.765	0.521	-0.176
-589.938	23.418	-0.167	-0.177
-588.923	57.975	-0.193	0.245
-587.909	-200.000	0.015	-0.176
-586.894	-165.100	-0.177	0.010
-585.879	-86.232	-0.172	-0.068
-584.865	-107.949	-0.089	0.025
-583.850	2.475	-0.340	-0.318
-582.836	5.327	0.394	-0.376
-581.821	-200.000	-0.022	0.149
-580.806	80.530	-0.076	0.106
-579.792	-141.439	-0.259	0.034
-578.777	174.410	-0.039	-0.074
-577.763	-17.346	-0.233	-0.190
-576.748	-186.427	0.332	0.006
-575.733	-163.367	0.617	-0.037
-574.719	-124.536	-0.094	-0.019
-573.704	144.416	-0.189	0.327
-572.690	-169.905	-0.189	-0.009
-571.675	-73.355	-0.130	0.061
-570.661	29.970	0.235	0.259
-569.646	-64.821	0.082	-0.043
-568.631	-73.235	0.139	-0.065
-567.617	-165.250	0.389	-0.022
-566.602	81.779	-0.095	0.133
-565.588	-14.920	0.153	-0.126
-564.573	-146.712	-0.480	-0.053
-563.558	-37.109	-0.454	0.314
-562.544	280.684	-0.089	-0.206
-561.529	-94.674	-0.520	0.182
-560.515	-6.378	0.160	0.141
-559.500	139.739	-0.142	-0.242
-558.485	152.295	-0.039	0.068
-557.471	800.000	-0.094	-0.513
-556.456	36.006	-0.180	0.205
-555.442	635.011	-0.071	-0.233
-554.427	-70.435	-0.274	-0.134
-553.412	-200.000	0.027	-0.680
-552.398	665.326	-0.148	0.496
-551.383	-151.348	-0.745	0.071
-550.369	800.000	-0.043	-0.210
-549.354	48.443	-0.315	0.381
-548.339	56.485	-0.237	0.298
-547.325	-176.584	-0.468	-0.015
-546.310	317.865	-0.111	0.272
-545.296	-88.239	-0.105	0.040
-544.281	-0.883	0.136	0.125
-543.266	53.970	0.077	0.096
-542.252	84.676	0.142	-0.202
-541.237	-108.178	0.240	0.067
-540.223	-93.154	-0.494	0.176
-539.208	233.046	0.140	-0.298
-538.193	-60.165	-0.321	-0.176
-537.179	-15.589	-0.467	-0.384
-536.164	97.757	0.121	-0.180
-535.150	800.000	0.209	-0.768
-534.135	133.886	-0.050	-0.084
-533.121	-156.452	0.202	0.016
-532.106	638.005	0.059	0.195
-531.091	-200.000	-0.022	0.313
-530.077	-200.000	0.002	-0.269
-529.062	-114.070	-0.118	-0.029
-528.048	1.385	0.159	0.148
-527.033	234.253	-0.236	-0.504
-526.018	120.697	0.045	0.073
-525.004	-196.433	0.315	0.003
-523.989	33.954	0.308	0.346
-522.975	2.261	-0.186	-0.174
-521.960	189.091	-0.119	0.231
-520.945	-74.041	-0.205	0.095
-519.931	257.991	0.043	-0.095
-518.916	-136.314	0.185	0.028
-517.902	-136.794	0.301	0.044
-516.887	-113.838	0.017	0.004
-515.872	-85.748	-0.255	0.101
-514.858	529.597	0.041	-0.126
-513.843	-200.000	0.053	-0.402
-512.829	-160.384	0.350	0.024
-511.814	-24.701	-0.101	-0.077
-510.799	-35.952	-0.524	-0.365
-509.785	244.731	-0.039	-0.084
-508.770	-0.894	-0.022	0.020
-507.756	-91.154	-0.175	0.064
-506.741	-200.000	-0.021	0.289
-505.726	800.000	0.048	0.241
-504.712	-106.172	0.191	0.055
-503.697	40.508	-0.158	0.184
-502.683	-200.000	0.009	0.416
-501.668	55.092	-0.193	0.240
-500.653	-191.641	0.386	0.005
-499.639	-200.000	-0.016	-0.431
-498.624	-200.000	0.032	0.471
-497.610	-42.364	-0.096	0.063
-496.595	-175.212	0.177	-0.006
-495.581	-165.971	-0.250	-0.014
-494.566	27.210	-0.388	-0.420
-493.551	-76.058	-0.344	-0.156
-492.537	-76.638	-0.476	-0.214
-491.522	-200.000	0.044	-0.449
-490.508	316.657	0.069	0.169
-489.493	86.982	0.178	0.254
-488.478	361.813	-0.124	-0.322
-487.464	162.628	-0.253	-0.458
-486.449	-109.715	0.235	-0.063
-485.435	-30.737	-0.122	0.089
-484.420	64.422	-0.133	-0.173
-483.405	118.655	-0.238	0.379
-482.391	393.060	0.102	0.275
-481.376	453.388	0.124	0.356
-480.362	-35.525	0.264	0.184
-479.347	3.937	-0.258	0.243
-478.332	134.609	0.166	0.278
-477.318	246.042	0.063	-0.138
-476.303	-52.466	-0.430	-0.255
-475.289	800.000	-0.073	0.349
-474.274	-200.000	0.006	-0.199
-473.259	37.137	-0.271	-0.309
-472.245	-120.646	-0.163	-0.035
-471.230	-81.380	0.646	-0.273
-470.216	-65.666	0.132	0.068
-469.201	-200.000	0.018	-0.239
-468.186	-200.000	0.025	-0.291
-467.172	70.857	0.244	-0.326
-466.157	-157.367	0.151	0.012
-465.143	-13.395	0.262	0.219
-464.128	80.582	0.090	0.125
-463.113	-88.458	0.672	-0.257
-462.099	166.453	-0.170	0.310
-461.084	262.071	-0.155	0.346
-460.070	-16.484	-0.115	-0.094
-459.055	-73.990	-0.059	-0.028
-458.040	277.740	-0.057	-0.132
-457.026	-52.734	-0.425	0.252
-456.011	-121.051	0.042	0.009
-454.997	-8.121	-0.146	0.126
-453.982	800.000	0.073	0.370
-452.968	-61.460	-0.413	-0.222
-451.953	380.438	0.194	-0.514
-450.938	-200.000	-0.019	-0.350
-449.924	113.935	0.316	-0.495
-448.909	18.159	-0.230	0.236
-447.895	-200.000	0.021	0.124
-446.880	549.792	-0.115	-0.358
-445.865	-91.236	-0.384	-0.141
-444.851	418.599	0.124	-0.342
-443.836	99.797	-0.092	0.138
-442.822	800.000	0.117	0.527
-441.807	-5.181	-0.486	0.429
-440.792	230.865	-0.071	0.149
-439.778	324.915	-0.186	0.460
-438.763	165.363	0.165	-0.300
-437.749	103.489	-0.074	0.112
-436.734	800.000	-0.133	-0.667
-435.719	-200.000	0.002	0.108
-434.705	17.573	0.109	0.111
-433.690	800.000	0.115	0.585
-432.676	43.454	0.268	-0.315
-431.661	-140.059	-0.229	-0.031
-430.646	-91.765	-0.596	0.217
-429.632	32.588	0.387	0.430
-428.617	-167.990	-0.308	0.015
-427.603	-200.000	-0.024	0.367
-426.588	-120.672	0.155	-0.033
-425.573	633.382	-0.130	0.427
-424.559	-200.000	-0.001	-0.198
-423.544	56.632	0.078	-0.098
-422.530	102.554	-0.377	-0.567
-421.515	92.755	-0.154	-0.223
-420.500	723.166	-0.049	0.170
-419.486	-28.571	0.291	0.215
-418.471	9.393	-0.138	0.134
-417.457	-97.558	0.480	0.159
-416.442	-31.130	-0.125	-0.091
-415.428	-31.670	-0.163	0.118
-414.413	800.000	-0.095	0.404
-413.398	-47.899	0.290	0.180
-412.384	221.611	0.168	-0.348
-411.369	168.575	0.087	0.159
-410.355	-200.000	-0.019	-0.158
-409.340	141.900	0.197	0.337
-408.325	240.895	-0.040	0.085
-407.311	-13.536	0.182	0.151
-406.296	-122.409	0.372	0.077
-405.282	-9.172	0.331	0.284
-404.267	-100.057	0.376	-0.119
-403.252	187.897	-0.118	-0.228
-402.238	84.675	-0.378	0.532
-401.223	-113.464	-0.418	0.104
-400.209	7.985	-0.273	-0.262
-399.194	111.082	0.074	0.115
-398.179	-200.000	0.009	0.185
-397.165	-148.580	0.870	-0.090
-396.150	161.709	-0.257	0.463
-395.136	103.334	-0.112	0.169
-394.121	13.826	-0.367	-0.366
-393.106	-139.210	-0.311	-0.043
-392.092	-30.211	-0.233	-0.170
-391.077	130.820	0.214	0.354
-390.063	269.983	-0.104	0.235
-389.048	27.025	-0.313	0.337
-388.033	-2.147	-0.172	-0.155
-387.019	-41.551	0.516	0.340
-386.004	-29.306	-0.259	-0.190
-384.990	-11.931	-0.292	-0.245
-383.975	4.354	-0.321	-0.301
-382.960	260.875	-0.062	0.138
-381.946	31.244	-0.279	-0.307
-380.931	-200.000	-0.007	-0.055
-379.917	-62.772	0.065	0.034
-378.902	-32.078	-0.245	-0.176
-377.888	-200.000	-0.002	-0.049
-376.873	-58.543	0.315	-0.175
-375.858	-29.613	0.494	-0.361
-374.844	80.111	-0.131	-0.182
-373.829	-36.007	-0.108	-0.075
-372.815	-69.853	-0.293	0.143
-371.800	90.910	-0.071	0.102
-370.785	42.422	0.112	0.131
-369.771	-159.707	0.357	-0.025
-368.756	642.759	0.067	0.219
-367.742	-154.705	-0.270	0.023
-366.727	-70.109	-0.116	-0.056
-365.712	-27.251	0.370	0.276
-364.698	39.596	-0.139	0.159
-363.683	40.021	-0.269	-0.310
-362.669	-200.000	-0.015	0.119
-361.654	800.000	0.075	0.350
-360.639	-200.000	-0.005	-0.200
-359.625	6.475	0.174	-0.165
-358.610	-59.489	0.634	-0.348
-357.596	-137.540	0.233	0.033
-356.581	-173.954	-0.500	-0.019
-355.566	-124.582	-0.223	0.044
-354.552	-130.809	0.227	-0.039
-353.537	85.604	0.244	-0.345
-352.523	17.060	0.391	0.397
-351.508	50.945	-0.243	-0.296
-350.493	-7.376	0.050	-0.043
-349.479	-102.430	0.207	-0.063
-348.464	-26.783	-0.236	0.177
-347.450	800.000	0.101	-0.406
-346.435	-177.649	0.590	0.018
-345.420	170.554	0.070	-0.128
-344.406	83.768	0.082	-0.115
-343.391	800.000	0.027	0.140
-342.377	-192.097	-0.375	0.005
-341.362	-47.046	-0.306	0.191
-340.348	5.529	0.243	-0.230
-339.333	-174.962	0.338	-0.012
-338.318	-69.563	0.218	0.107
-337.304	-25.821	-0.074	-0.056
-336.289	-102.625	0.207	-0.063
-335.275	-75.394	0.232	-0.105
-334.260	375.971	-0.020	0.053
-333.245	84.063	0.246	0.345
-332.231	-121.192	0.720	-0.153
-331.216	-75.653	0.154	-0.070
-330.202	-200.000	0.008	0.319
-329.187	242.552	-0.312	0.672
-328.172	-37.072	-0.567	-0.388
-327.158	-8.957	-0.278	-0.238
-326.143	-82.656	0.114	0.047
-325.129	-75.026	0.364	-0.166
-324.114	-200.000	-0.045	-0.424
-323.099	31.999	0.163	-0.180
-322.085	-32.084	0.236	0.169
-321.070	38.086	0.304	0.347
-320.056	-106.748	0.407	0.115
-319.041	-38.021	-0.319	-0.216
-318.026	-104.803	0.079	-0.023
-317.012	-82.261	0.454	-0.188
-315.997	-166.681	-0.257	0.013
-314.983	601.296	0.069	-0.220
-313.968	-13.090	-0.431	-0.358
-312.953	-200.000	-0.030	-0.733
-311.939	-159.849	-0.436	-0.030
-310.924	68.302	-0.285	-0.374
-309.910	153.508	-0.048	-0.084
-308.895	24.823	0.271	0.288
-307.880	800.000	0.070	-0.306
-306.866	800.000	-0.098	0.401
-305.851	-115.886	-0.286	0.068
-304.837	-141.993	-0.053	0.007
-303.822	-55.355	0.452	0.259
-302.807	54.166	0.201	-0.247
-301.793	-200.000	-0.044	0.318
-300.778	180.970	0.177	0.333
-299.764	-30.128	0.159	-0.115
-298.749	-44.059	-0.062	0.040
-297.735	9.674	-0.162	-0.157
-296.720	-54.989	-0.267	-0.153
-295.705	-18.116	0.244	0.195
-294.691	-80.455	0.123	-0.052
-293.676	643.772	0.153	0.501
-292.662	125.813	-0.173	0.280
-291.647	31.187	-0.148	-0.162
-290.632	-124.117	-0.034	-0.007
-289.618	60.478	0.348	0.441
-288.603	-111.491	-0.324	-0.084
-287.589	-147.639	-0.212	-0.022
-286.574	151.371	0.154	-0.269
-285.559	-35.671	0.597	0.413
-284.545	-200.000	-0.041	0.363
-283.530	66.813	0.182	0.238
-282.516	-99.835	0.308	0.098
-281.501	62.979	-0.141	-0.181
-280.486	764.559	-0.050	0.174
-279.472	23.078	0.073	-0.077
-278.457	-144.940	0.310	0.036
-277.443	37.887	-0.094	-0.107
-276.428	-29.141	-0.396	-0.290
-275.413	181.107	-0.113	-0.212
-274.399	-73.282	0.126	0.059
-273.384	-62.826	-0.310	-0.163
-272.370	-200.000	0.103	-0.811
-271.355	157.201	-0.196	-0.348
-270.340	82.322	-0.170	0.236
-269.326	4.971	-0.231	0.217
-268.311	-89.489	-0.284	0.106
-267.297	-61.950	0.197	-0.105
-266.282	25.084	0.130	-0.137
-265.267	-73.611	0.260	-0.120
-264.253	339.621	0.157	-0.393
-263.238	358.103	0.154	-0.394
-262.224	800.000	0.079	-0.381
-261.209	289.488	-0.205	-0.477
-260.195	8.488	0.243	0.234
-259.180	214.316	0.088	0.179
-258.165	283.531	0.138	-0.318
-257.151	800.000	-0.162	0.587
-256.136	35.026	0.166	-0.186
-255.122	-57.394	-0.455	0.254
-254.107	800.000	-0.026	0.137
-253.092	339.535	0.195	-0.488
-252.078	800.000	-0.033	0.171
-251.063	-99.159	-0.419	-0.135
-250.049	-77.017	0.165	0.073
-249.034	-72.417	-0.349	0.164
-248.019	-25.939	-0.253	0.190
-247.005	-99.123	-0.613	-0.197
-245.990	800.000	-0.044	0.193
-244.976	-14.711	-0.320	-0.262
-243.961	128.508	0.148	0.241
-242.946	-43.445	-0.315	0.203
-241.932	-8.614	-0.299	-0.256
-240.917	-117.093	0.460	0.106
-239.903	350.587	-0.237	0.600
-238.888	-200.000	0.046	-0.315
-237.873	437.510	0.229	-0.640
-236.859	61.030	0.176	0.223
-235.844	-100.682	0.048	-0.015
-234.830	57.898	0.094	0.117
-233.815	-1.084	0.089	0.080
-232.800	150.651	0.103	0.180
-231.786	510.050	0.134	0.401
-230.771	-39.585	-0.152	0.101
-229.757	-82.005	0.284	-0.118
-228.742	37.929	-0.200	-0.227
-227.727	83.544	0.100	-0.140
-226.713	-200.000	-0.051	0.616
-225.698	-200.000	-0.022	0.212
-224.684	490.224	0.126	0.370
-223.669	800.000	0.066	0.243
-222.655	-75.219	0.467	-0.212
-221.640	166.792	0.096	0.174
-220.625	-119.581	0.437	-0.096
-219.611	729.910	-0.031	-0.107
-218.596	-63.106	0.366	-0.192
-217.582	-106.891	-0.651	0.183
-216.567	-48.990	0.500	-0.304
-215.552	71.772	0.179	-0.238
-214.538	-44.416	-0.031	-0.020
-213.523	-200.000	0.055	0.409
-212.509	6.520	-0.172	0.163
-211.494	800.000	-0.038	-0.142
-210.479	-131.184	-0.267	-0.045
-209.465	-82.844	0.376	0.154
-208.450	204.092	-0.092	0.183
-207.436	-145.222	0.450	0.051
-206.421	333.332	0.100	-0.249
-205.406	65.503	0.157	-0.202
-204.392	-147.092	0.062	-0.007
-203.377	-134.092	0.384	0.060
-202.363	800.000	0.110	-0.585
-201.348	-44.408	-0.184	-0.117
-200.333	800.000	-0.140	0.587
-199.319	-4.761	0.308	0.271
-198.304	-121.383	0.320	-0.067
-197.290	-130.154	-0.308	0.053
-196.275	18.006	-0.233	-0.237
-195.260	-200.000	-0.036	-0.334
-194.246	9.524	0.136	0.132
-193.231	365.946	0.274	0.708
-192.217	-200.000	0.017	-0.103
-191.202	300.529	-0.128	-0.303
-190.187	53.137	-0.076	0.093
-189.173	63.532	-0.200	-0.256
-188.158	-79.169	0.138	0.060
-187.144	-159.307	-0.158	-0.011
-186.129	64.512	0.237	-0.304
-185.114	158.911	0.154	-0.274
-184.100	208.045	0.141	-0.281
-183.085	-92.927	0.428	-0.151
-182.071	-32.010	-0.019	0.013
-181.056	-40.881	0.450	-0.296
-180.042	198.799	0.046	-0.090
-179.027	-32.779	0.187	-0.132
-178.012	-200.000	0.009	-0.265
-176.998	201.453	0.251	0.494
-175.983	-108.851	-0.233	-0.063
-174.969	589.822	-0.033	-0.104
-173.954	22.082	0.211	0.219
-172.939	-14.452	0.229	0.188
-171.925	-44.045	0.396	0.253
-170.910	-45.938	0.398	-0.249
-169.896	-121.556	-0.114	-0.024
-168.881	-91.171	0.303	-0.110
-167.866	152.140	-0.185	0.323
-166.852	-27.772	0.264	0.194
-165.837	98.129	0.104	0.153
-164.823	-16.747	0.342	0.275
-163.808	303.164	-0.145	0.343
-162.793	58.544	-0.318	0.397
-161.779	-142.023	-0.271	0.034
-160.764	-200.000	-0.037	-0.257
-159.750	-66.699	0.218	-0.109
-158.735	-23.047	-0.231	-0.176
-157.720	800.000	-0.032	-0.140
-156.706	-155.191	-0.470	0.038
-155.691	129.300	0.246	-0.401
-154.677	800.000	0.106	0.486
-153.662	-40.450	0.182	-0.120
-152.647	64.074	0.274	-0.351
-151.633	-137.836	-0.445	-0.063
-150.618	654.921	-0.076	-0.248
-149.604	214.121	0.142	-0.287
-148.589	-186.143	0.503	0.009
-147.574	-200.000	0.012	0.332
-146.560	-6.717	-0.168	-0.145
-145.545	-200.000	0.025	0.511
-144.531	-122.812	-0.165	0.034
-143.516	104.320	0.134	-0.201
-142.502	-188.318	-0.352	0.006
-141.487	800.000	0.086	0.479
-140.472	22.725	0.247	0.257
-139.458	-189.906	0.207	-0.003
-138.443	-137.759	-0.214	0.030
-137.429	-103.646	-0.139	-0.041
-136.414	-135.534	0.096	0.014
-135.399	-154.249	0.153	0.013
-134.385	800.000	-0.058	-0.271
-133.370	-123.185	0.481	0.097
-132.356	73.609	0.444	0.592
-131.341	248.328	-0.055	0.118
-130.326	-112.816	-0.708	-0.177
-129.312	-172.599	0.392	-0.015
-128.297	498.127	0.074	0.217
-127.283	69.545	-0.219	0.287
-126.268	-59.607	-0.469	0.255
-125.253	556.932	0.043	0.132
-124.239	-71.836	-0.163	0.077
-123.224	-70.611	0.110	-0.052
-122.210	-101.160	0.337	-0.104
-121.195	-200.000	-0.078	-0.471
-120.180	800.000	-0.113	0.605
-119.166	217.932	-0.116	0.236
-118.151	-70.295	-0.252	0.121
-117.137	-177.734	0.254	0.008
-116.122	-152.413	-0.280	-0.025
-115.107	-119.442	-0.306	0.067
-114.093	-200.000	0.030	0.337
-113.078	-150.561	-0.180	-0.017
-112.064	-200.000	-0.042	0.373
-111.049	544.283	0.093	0.284
-110.034	446.872	-0.172	0.483
-109.020	-17.766	0.144	-0.115
-108.005	-44.508	-0.554	0.351
-106.991	17.238	-0.170	0.172
-105.976	-7.016	-0.513	-0.442
-104.962	-200.000	-0.004	-0.145
-103.947	39.832	-0.133	-0.152
-102.932	40.081	-0.139	-0.159
-101.918	-111.142	0.351	0.091
-100.903	-139.128	0.658	-0.089
-99.889	225.708	-0.143	0.295
-98.874	81.305	-0.302	-0.414
-97.859	-54.414	-0.258	0.148
-96.845	-31.093	0.307	0.219
-95.830	239.959	0.165	0.349
-94.816	-20.733	0.010	0.008
-93.801	-152.997	-0.363	0.032
-92.786	-176.600	0.162	0.005
-91.772	48.610	-0.050	0.059
-90.757	229.319	-0.169	0.352
-89.743	-69.708	0.258	-0.125
-88.728	-105.114	-0.278	0.080
-87.713	-118.614	-0.441	-0.098
-86.699	91.166	-0.091	-0.130
-85.684	-100.883	-0.223	0.069
-84.670	-18.434	0.358	-0.283
-83.655	267.779	0.018	-0.041
-82.640	-56.409	-0.489	0.274
-81.626	-112.433	-0.086	0.022
-80.611	-151.049	0.127	-0.012
-79.597	-18.464	0.170	0.135
-78.582	-115.548	-0.224	-0.053
-77.567	-200.000	0.022	0.499
-76.553	-90.347	0.140	0.051
-75.538	147.974	0.159	-0.272
-74.524	-43.833	0.186	-0.119
-73.509	112.270	-0.009	0.014
-72.494	-119.323	-0.439	0.096
-71.480	9.409	0.242	0.232
-70.465	240.823	0.151	0.320
-69.451	-20.130	0.192	-0.150
-68.436	800.000	0.018	-0.103
-67.422	415.039	0.070	0.190
-66.407	800.000	-0.027	0.128
-65.392	-114.373	-0.447	-0.108
-64.378	-64.549	-0.147	0.076
-63.363	4.210	0.276	0.256
-62.349	-27.701	0.288	-0.212
-61.334	22.132	-1.431	-1.480
-60.319	170.215	0.558	1.015
-59.305	268.607	-2.920	-6.513
-58.290	40.733	2.866	3.276
-57.276	437.267	3.717	10.315
-56.261	-200.000	17.788	260.000
-55.246	416.438	1224.909	3327.653
-54.232	57.135	2852.417	3527.800
-53.217	64.425	2729.986	3488.172
-52.203	38.009	2458.963	2771.367
-51.188	38.368	2112.476	2385.171
-50.173	34.543	1988.147	2200.465
-49.159	33.069	1976.177	2170.137
-48.144	32.871	1971.353	2162.465
-47.130	32.751	1969.257	2158.708
-46.115	32.791	1968.097	2157.804
-45.100	32.656	1967.705	2155.744
-44.086	32.695	1966.187	2154.443
-43.071	32.740	1963.507	2151.929
-42.057	32.641	1962.761	2149.895
-41.042	32.631	1961.055	2147.827
-40.027	32.517	1959.306	2144.523
-39.013	32.598	1957.086	2142.931
-37.998	32.609	1955.718	2141.470
-36.984	32.585	1954.631	2139.924
-35.969	32.415	1953.678	2136.854
-34.954	32.472	1952.987	2136.670
-33.940	32.388	1952.114	2134.671
-32.925	32.551	1950.565	2134.748
-31.911	32.510	1948.933	2132.408
-30.896	32.468	1948.181	2131.020
-29.881	32.510	1945.872	2128.894
-28.867	32.420	1944.553	2126.337
-27.852	32.378	1943.599	2124.732
-26.838	32.342	1942.406	2122.940
-25.823	32.415	1940.201	2121.272
-24.809	32.303	1939.941	2119.634
-23.794	32.358	1938.527	2118.625
-22.779	32.454	1936.373	2117.276
-21.765	32.348	1936.142	2115.737
-20.750	32.307	1934.681	2113.596
-19.736	32.312	1932.786	2111.497
-18.721	32.326	1931.146	2109.787
-17.706	32.413	1930.007	2109.439
-16.692	32.260	1928.911	2106.428
-15.677	32.177	1929.197	2105.719
-14.663	32.118	1927.722	2103.368
-13.648	32.227	1925.257	2101.814
-12.633	32.170	1924.104	2099.838
-11.619	32.199	1922.977	2098.845
-10.604	32.283	1921.051	2097.600
-9.590	32.219	1919.555	2095.171
-8.575	32.150	1919.662	2094.427
-7.560	32.261	1917.936	2093.708
-6.546	32.077	1917.356	2090.932
-5.531	32.291	1915.615	2091.343
-4.517	32.194	1914.584	2089.046
-3.502	32.144	1914.113	2087.900
-2.487	32.265	1911.572	2086.392
-1.473	32.217	1908.670	2082.601
-0.458	31.664	1887.673	2053.522
0.556	26.708	2023.758	2130.287
1.571	24.486	2236.299	2324.684
2.586	25.556	2280.096	2384.202
3.600	25.559	2282.961	2386.950
4.615	25.656	2282.037	2386.989
5.629	25.356	2281.407	2382.057
6.644	25.423	2279.261	2380.416
7.659	25.530	2277.406	2379.613
8.673	25.706	2275.515	2379.696
9.688	25.309	2281.775	2380.671
10.702	22.957	2356.842	2426.274
11.717	20.124	2422.246	2453.055
12.731	9.861	2397.153	2282.177
13.746	1.565	2373.332	2142.124
14.761	0.323	2369.626	2120.965
15.775	0.218	2367.594	2117.403
16.790	0.098	2366.094	2114.121
17.804	0.032	2365.013	2111.969
18.819	0.176	2363.373	2112.284
19.834	0.168	2361.752	2110.466
20.848	0.066	2360.207	2107.393
21.863	0.105	2358.296	2105.990
22.877	0.103	2356.542	2104.142
23.892	0.069	2354.540	2101.619
24.907	0.084	2351.595	2098.954
25.921	0.114	2349.738	2097.467
26.936	0.139	2347.528	2095.590
27.950	0.071	2345.580	2092.651
28.965	0.084	2343.050	2090.318
29.980	0.098	2340.844	2088.300
30.994	0.109	2339.973	2087.432
32.009	4.696	2354.761	2164.625
33.023	16.181	2387.639	2356.680
34.038	20.871	2396.624	2431.209
35.053	21.045	2394.331	2431.032
36.067	21.011	2391.186	2427.065
37.082	21.040	2389.077	2425.039
38.096	21.029	2386.965	2422.449
39.111	21.164	2384.587	2421.631
40.126	21.388	2382.799	2422.649
41.140	21.479	2381.291	2422.094
42.155	21.341	2380.459	2419.029
43.169	21.421	2378.469	2417.834
44.184	21.358	2375.103	2413.245
45.199	21.263	2373.503	2410.019
46.213	21.204	2372.497	2407.892
47.228	21.273	2371.058	2407.099
48.242	21.372	2368.978	2406.061
49.257	21.424	2367.495	2404.999
50.271	21.483	2365.295	2403.289
51.286	21.356	2363.056	2398.977
52.301	21.168	2360.727	2393.734
53.315	21.979	2363.238	2407.168
54.330	24.507	2369.945	2448.606
55.344	26.113	2369.684	2470.156
56.359	26.200	2367.719	2469.011
57.374	26.245	2366.757	2468.336
58.388	26.322	2363.770	2465.971
59.403	26.132	2359.685	2458.819
60.417	25.745	2355.898	2449.291
61.432	25.781	2355.232	2448.791
62.447	25.975	2353.958	2449.821
63.461	26.192	2351.315	2449.741
64.476	26.190	2349.920	2447.966
65.490	26.073	2348.178	2444.266
66.505	25.399	2344.879	2431.374
67.520	23.679	2335.839	2398.373
68.534	21.744	2328.684	2364.533
69.549	21.104	2323.653	2350.475
70.563	20.951	2320.853	2345.287
71.578	20.780	2319.651	2341.481
72.593	20.935	2318.240	2341.870
73.607	21.110	2315.683	2341.379
74.622	21.068	2314.393	2339.221
75.636	21.081	2310.576	2335.258
76.651	20.960	2308.948	2331.703
77.666	20.886	2308.048	2329.528
78.680	20.889	2304.746	2325.955
79.695	20.743	2301.948	2320.895
80.709	20.626	2300.835	2317.931
81.724	20.568	2299.965	2316.001
82.739	20.705	2295.914	2313.470
83.753	20.676	2294.302	2311.177
84.768	20.603	2293.424	2309.041
85.782	20.718	2291.672	2308.536
86.797	20.848	2288.915	2307.222
87.812	20.663	2287.325	2302.872
88.826	20.865	2286.355	2304.314
89.841	20.857	2284.773	2302.329
90.855	20.852	2282.155	2299.349
91.870	20.769	2280.529	2296.335
92.884	20.863	2278.540	2295.312
93.899	20.834	2277.411	2293.510
94.914	21.412	2278.948	2302.436
95.928	23.374	2285.929	2335.228
96.943	24.360	2284.310	2346.342
97.957	22.394	2274.923	2310.503
98.972	21.100	2270.015	2288.199
99.987	20.900	2266.575	2281.832
101.001	20.880	2263.980	2278.684
102.016	20.937	2262.519	2277.679
103.030	20.884	2259.128	2273.309
104.045	20.687	2256.387	2267.690
105.060	20.705	2254.698	2265.957
106.074	20.856	2252.330	2265.280
107.089	20.842	2251.017	2263.514
108.103	20.710	2250.401	2260.890
109.118	20.762	2248.790	2259.678
110.133	20.889	2246.527	2258.795
111.147	20.900	2244.453	2256.584
112.162	20.920	2243.119	2255.233
113.176	21.020	2241.170	2254.297
114.191	20.983	2239.115	2251.479
115.206	20.898	2237.805	2248.800
116.220	20.876	2235.957	2246.387
117.235	20.840	2234.724	2244.415
118.249	20.912	2232.398	2242.741
119.264	20.996	2229.942	2241.091
120.279	20.933	2228.130	2238.180
121.293	21.017	2226.655	2237.522
122.308	21.014	2225.408	2235.958
123.322	20.814	2224.761	2232.463
124.337	21.120	2224.812	2236.188
125.352	23.401	2231.094	2271.664
126.366	24.423	2230.164	2283.593
127.381	22.145	2220.926	2244.652
128.395	21.050	2215.464	2224.827
129.410	20.914	2212.934	2220.285
130.424	20.762	2211.956	2217.090
131.439	20.910	2210.248	2216.998
132.454	21.119	2208.169	2217.326
133.468	21.179	2206.353	2215.997
134.483	21.250	2204.981	2215.264
135.497	21.139	2203.010	2211.606
136.512	21.145	2199.862	2208.256
137.527	21.039	2198.740	2205.520
138.541	20.840	2198.211	2202.197
139.556	20.898	2196.633	2201.079
140.570	20.941	2194.981	2199.709
141.585	20.770	2192.635	2194.924
142.600	20.749	2190.660	2192.420
143.614	20.725	2189.031	2190.225
144.629	20.604	2188.155	2187.557
145.643	20.545	2186.161	2184.562
146.658	20.702	2183.933	2184.054
147.673	20.746	2181.313	2181.725
148.687	20.631	2180.209	2178.916
149.702	20.709	2179.266	2178.685
150.716	20.775	2178.773	2178.761
151.731	20.836	2177.864	2178.356
152.746	20.921	2176.199	2177.502
153.760	21.426	2178.841	2186.232
154.775	23.560	2185.489	2219.503
155.789	24.577	2183.740	2230.234
156.804	22.556	2173.830	2194.577
157.819	21.073	2165.803	2167.708
158.833	20.608	2164.044	2159.876
159.848	20.726	2161.952	2158.999
160.862	20.843	2160.681	2158.929
161.877	20.894	2159.461	2158.085
162.892	20.918	2158.916	2157.588
163.906	20.948	2157.554	2156.340
164.921	20.987	2154.704	2153.715
165.935	20.824	2153.212	2149.942
166.950	20.990	2150.972	2149.513
167.964	20.956	2149.055	2146.913
168.979	20.804	2147.391	2143.116
169.994	20.778	2145.304	2140.450
171.008	20.581	2143.596	2136.058
172.023	20.544	2142.400	2134.152
173.037	20.727	2141.682	2135.451
174.052	21.050	2139.257	2136.752
175.067	20.929	2138.048	2133.801
176.081	20.913	2136.357	2131.659
177.096	20.965	2136.256	2131.939
178.110	21.025	2134.685	2130.856
179.125	20.826	2134.936	2128.408
180.140	20.979	2132.047	2127.145
181.154	20.944	2131.821	2126.240
182.169	21.109	2130.080	2126.274
183.183	21.802	2132.089	2136.516
184.198	24.318	2136.885	2171.902
185.213	24.747	2134.910	2174.882
186.227	22.312	2127.319	2137.198
187.242	21.020	2122.370	2116.223
188.256	21.000	2120.103	2113.460
189.271	20.882	2118.663	2110.337
190.286	20.805	2116.665	2107.152
191.300	20.910	2114.308	2105.835
192.315	20.929	2111.955	2103.462
193.329	21.034	2111.605	2104.146
194.344	21.333	2110.644	2106.552
195.359	21.282	2109.984	2105.025
196.373	21.179	2107.879	2101.423
197.388	20.950	2104.403	2094.948
198.402	20.816	2102.583	2091.271
199.417	20.901	2099.853	2089.324
200.432	20.901	2098.905	2088.125
201.446	20.832	2097.101	2085.250
202.461	20.880	2095.273	2083.763
203.475	20.742	2093.368	2079.963
204.490	20.775	2090.879	2077.638
205.504	20.757	2089.292	2075.591
206.519	20.849	2087.884	2075.055
207.534	20.668	2085.984	2070.745
208.548	20.796	2084.233	2070.291
209.563	20.818	2083.078	2069.158
210.577	20.876	2082.413	2068.944
211.592	20.919	2081.463	2068.268
212.607	21.999	2085.802	2085.233
213.621	24.455	2091.783	2120.327
214.636	24.354	2086.399	2113.410
215.650	22.068	2078.932	2078.437
216.665	21.109	2074.538	2062.409
217.680	20.913	2072.292	2057.608
218.694	21.014	2069.201	2055.482
219.709	20.807	2068.359	2051.949
220.723	20.750	2067.786	2050.459
221.738	20.951	2065.541	2050.365
222.753	21.124	2063.329	2049.967
223.767	20.924	2062.923	2046.955
224.782	20.969	2061.011	2045.346
225.796	20.899	2059.151	2042.437
226.811	20.984	2057.007	2041.064
227.826	20.970	2056.143	2039.796
228.840	20.812	2054.475	2036.044
229.855	20.792	2052.958	2034.059
230.869	20.939	2051.708	2034.297
231.884	20.803	2050.694	2031.454
232.899	20.885	2049.915	2031.407
233.913	20.967	2047.586	2029.813
234.928	20.811	2046.772	2026.935
235.942	20.862	2044.593	2025.128
236.957	20.798	2043.575	2023.129
237.972	20.869	2041.955	2022.113
238.986	20.835	2041.090	2020.622
240.001	20.786	2039.147	2017.889
241.015	20.771	2038.278	2016.603
242.030	21.578	2040.099	2027.569
243.045	23.848	2045.014	2058.664
244.059	24.483	2043.209	2063.980
245.074	22.221	2034.027	2028.267
246.088	21.181	2029.242	2011.212
247.103	21.178	2028.603	2010.308
248.117	21.316	2026.853	2009.929
249.132	21.309	2024.198	2006.972
250.147	21.132	2022.155	2002.661
251.161	20.931	2020.756	1998.719
252.176	21.117	2019.761	1999.643
253.190	21.081	2016.960	1996.211
254.205	21.072	2015.054	1993.985
255.220	20.881	2013.427	1989.940
256.234	20.807	2013.160	1988.598
257.249	20.881	2011.146	1987.214
258.263	20.780	2010.765	1985.448
259.278	20.799	2009.417	1984.092
260.293	20.761	2007.905	1981.929
261.307	20.872	2005.893	1980.977
262.322	20.723	2004.210	1977.373
263.336	20.696	2002.828	1975.462
264.351	20.645	2000.460	1972.308
265.366	20.755	1999.139	1972.025
266.380	20.653	1999.372	1970.853
267.395	20.685	1997.141	1968.785
268.409	20.806	1995.514	1968.316
269.424	20.909	1993.776	1967.544
270.439	20.921	1992.610	1966.288
271.453	21.821	1994.767	1978.390
272.468	24.201	2000.389	2010.769
273.482	24.555	1996.703	2010.823
274.497	22.103	1987.846	1974.011
275.512	20.936	1983.343	1956.140
276.526	20.843	1981.136	1952.686
277.541	20.697	1979.636	1949.329
278.555	20.588	1978.014	1946.273
279.570	20.528	1976.395	1943.771
280.585	20.708	1975.013	1944.206
281.599	20.754	1973.964	1943.456
282.614	20.882	1973.205	1943.901
283.628	21.110	1972.427	1945.459
284.643	21.240	1970.352	1944.638
285.657	21.158	1969.491	1942.639
286.672	21.212	1967.668	1941.211
287.687	21.042	1966.654	1938.083
288.701	20.908	1965.215	1934.938
289.716	20.853	1963.521	1932.422
290.730	20.857	1961.801	1930.540
291.745	21.072	1960.916	1931.835
292.760	21.208	1959.295	1931.521
293.774	20.843	1959.001	1926.944
294.789	20.800	1957.569	1924.822
295.803	20.812	1955.475	1922.662
296.818	20.921	1954.240	1922.434
297.833	21.055	1953.842	1923.291
298.847	20.900	1952.513	1920.043
299.862	21.076	1949.620	1918.914
300.876	21.607	1951.638	1926.539
301.891	24.204	1957.343	1960.710
302.906	24.824	1954.695	1964.663
303.920	22.237	1946.814	1928.035
304.935	21.231	1942.738	1912.700
305.949	21.016	1940.207	1907.610
306.964	21.028	1938.650	1905.984
307.979	20.899	1936.913	1902.633
308.993	20.916	1935.118	1900.831
310.008	20.823	1932.879	1897.387
311.022	20.849	1931.353	1895.939
312.037	20.821	1930.508	1894.580
313.052	20.828	1928.205	1892.167
314.066	20.729	1926.229	1888.920
315.081	20.704	1926.189	1888.385
316.095	20.616	1924.970	1886.012
317.110	20.440	1922.077	1881.032
318.125	20.313	1920.824	1878.194
319.139	20.218	1919.957	1876.096
320.154	20.569	1918.544	1878.304
321.168	20.547	1917.367	1876.686
322.183	20.584	1916.417	1875.935
323.197	20.730	1914.911	1875.818
324.212	20.738	1913.014	1873.821
325.227	20.678	1910.986	1870.955
326.241	20.794	1909.601	1870.635
327.256	20.878	1908.453	1870.190
328.270	20.720	1907.621	1867.446
329.285	20.735	1906.561	1866.350
330.300	21.513	1911.869	1879.719
331.314	24.077	1915.832	1911.095
332.329	24.387	1912.250	1910.636
333.343	21.817	1904.078	1874.653
334.358	20.840	1899.567	1859.511
335.373	20.650	1897.582	1855.316
336.387	20.572	1896.039	1852.743
337.402	20.610	1894.296	1851.224
338.416	20.816	1892.570	1851.519
339.431	20.859	1891.310	1850.519
340.446	20.925	1888.893	1848.639
341.460	20.885	1888.403	1847.512
342.475	20.882	1886.885	1845.777
343.489	20.746	1884.484	1841.759
344.504	20.645	1883.642	1839.646
345.519	20.694	1882.279	1838.611
346.533	20.743	1879.775	1836.470
347.548	20.710	1879.221	1835.356
348.562	20.802	1877.508	1834.441
349.577	20.918	1877.057	1835.007
350.592	20.864	1877.622	1834.764
351.606	20.930	1875.641	1833.310
352.621	20.865	1873.956	1830.757
353.635	20.639	1872.261	1826.492
354.650	20.790	1870.765	1826.413
355.665	20.842	1869.973	1825.966
356.679	20.905	1868.982	1825.438
357.694	21.107	1867.605	1826.005
358.708	20.937	1866.363	1822.786
359.723	21.936	1869.486	1836.130
360.738	24.396	1873.995	1866.237
361.752	24.460	1869.583	1862.292
362.767	22.170	1862.856	1831.412
363.781	21.205	1858.301	1816.630
364.796	20.974	1856.792	1812.516
365.810	20.937	1856.379	1811.518
366.825	20.939	1854.049	1809.045
367.840	20.674	1852.072	1804.131
368.854	20.492	1850.594	1800.585
369.869	20.536	1848.582	1798.866
370.883	20.651	1847.795	1799.087
371.898	20.768	1846.962	1799.274
372.913	20.678	1844.932	1796.152
373.927	20.634	1843.606	1794.185
374.942	20.607	1842.402	1792.520
375.956	20.694	1842.202	1793.010
376.971	20.857	1839.785	1792.125
377.986	20.753	1838.197	1789.296
379.000	20.656	1837.568	1787.462
380.015	20.693	1836.115	1786.214
381.029	20.874	1834.224	1786.034
382.044	20.663	1833.644	1783.081
383.059	20.814	1830.717	1781.571
384.073	20.738	1830.571	1780.436
385.088	20.822	1829.140	1779.697
386.102	20.686	1828.445	1777.405
387.117	20.827	1825.994	1776.263
388.132	20.759	1826.064	1775.412
389.146	21.573	1829.327	1786.730
390.161	24.143	1833.465	1816.950
391.175	24.268	1826.936	1811.539
392.190	21.989	1818.680	1779.931
393.205	21.021	1815.897	1767.146
394.219	20.835	1814.106	1763.298
395.234	20.870	1812.813	1762.188
396.248	20.838	1811.279	1760.155
397.263	20.824	1808.856	1757.453
398.278	20.852	1808.154	1756.840
399.292	20.829	1807.208	1755.484
400.307	20.731	1805.739	1752.852
401.321	20.838	1804.846	1752.852
402.336	21.029	1802.919	1752.703
403.350	20.984	1800.594	1749.780
404.365	21.129	1799.796	1750.253
405.380	20.939	1798.248	1746.624
406.394	20.697	1797.214	1742.979
407.409	20.660	1795.752	1740.978
408.423	20.798	1794.021	1740.483
409.438	20.678	1793.029	1738.103
410.453	20.674	1791.966	1736.828
411.467	20.855	1791.242	1737.736
412.482	20.758	1789.744	1735.101
413.496	20.725	1789.233	1734.066
414.511	20.884	1787.436	1733.708
415.526	20.952	1785.386	1732.192
416.540	20.783	1783.559	1728.523
417.555	20.930	1782.299	1728.562
418.569	21.092	1783.251	1730.887
419.584	21.243	1782.627	1731.581
420.599	21.142	1782.234	1729.991
421.613	21.150	1780.563	1728.239
422.628	21.070	1779.441	1726.145
423.642	21.111	1777.187	1724.161
424.657	20.900	1775.083	1719.826
425.672	20.975	1773.760	1719.073
426.686	20.907	1773.568	1718.009
427.701	20.912	1772.262	1716.592
428.715	21.193	1770.564	1717.521
429.730	21.391	1768.538	1717.305
430.745	21.278	1768.104	1715.559
431.759	21.317	1767.497	1715.155
432.774	21.661	1768.109	1718.929
433.788	21.976	1766.858	1720.616
434.803	21.725	1766.941	1718.017
435.818	21.821	1765.343	1717.204
436.832	21.833	1764.829	1716.618
437.847	21.203	1758.204	1703.791
438.861	12.730	1734.001	1597.833
439.876	2.512	1715.228	1481.384
440.890	0.332	1711.011	1456.406
441.905	0.129	1710.223	1453.590
442.920	0.215	1707.683	1452.087
443.934	0.087	1706.702	1449.837
444.949	0.179	1705.386	1449.440
445.963	0.074	1704.664	1447.640
446.978	0.062	1704.251	1446.992
447.993	0.040	1703.089	1445.625
449.007	0.145	1700.500	1444.269
450.022	0.223	1697.767	1442.519
451.036	0.304	1695.796	1441.454
452.051	1.262	1701.809	1455.632
453.066	10.395	1724.394	1563.693
454.080	20.142	1739.544	1672.198
455.095	22.864	1745.572	1704.233
456.109	24.529	1748.507	1723.062
457.124	25.277	1746.943	1728.552
458.139	25.111	1746.046	1725.852
459.153	24.943	1745.652	1723.636
460.168	25.053	1742.985	1721.855
461.182	25.060	1741.232	1719.982
462.197	25.082	1740.063	1718.837
463.212	24.812	1737.520	1713.523
464.226	24.902	1737.568	1714.231
465.241	25.166	1736.887	1715.890
466.255	25.502	1736.211	1718.252
467.270	25.501	1735.135	1716.964
468.285	25.157	1733.171	1711.515
469.299	25.205	1731.468	1710.096
470.314	25.263	1730.296	1709.284
471.328	25.404	1728.915	1709.069
472.343	25.540	1727.546	1708.809
473.358	25.496	1726.549	1707.200
474.372	25.477	1724.898	1705.181
475.387	25.388	1723.856	1703.098
476.401	25.343	1721.819	1700.447
477.416	25.121	1719.836	1696.175
478.430	25.450	1719.298	1698.570
479.445	25.202	1718.444	1695.170
480.460	24.972	1716.839	1691.201
481.474	25.121	1716.037	1691.623
482.489	25.662	1715.518	1696.030
483.503	25.974	1714.146	1697.428
484.518	25.919	1712.805	1695.373
485.533	25.776	1711.840	1692.865
486.547	25.841	1710.051	1691.512
487.562	26.196	1709.829	1694.433
488.576	26.311	1708.480	1693.983
489.591	26.082	1706.771	1689.923
490.606	25.818	1705.802	1686.285
491.620	25.917	1704.060	1685.291
492.635	26.302	1702.287	1686.945
493.649	26.373	1701.349	1686.483
494.664	25.662	1699.318	1677.605
495.679	24.962	1696.793	1668.356
496.693	25.300	1695.881	1670.423
497.708	25.653	1695.672	1673.317
498.722	26.255	1695.850	1678.919
499.737	26.205	1694.299	1676.716
500.752	25.876	1691.674	1670.848
501.766	25.674	1689.803	1666.923
502.781	25.908	1687.938	1667.062
503.795	25.975	1686.398	1665.963
504.810	25.802	1686.111	1663.869
505.825	26.175	1685.889	1666.913
506.839	25.882	1684.888	1663.006
507.854	25.941	1683.429	1661.918
508.868	25.875	1681.223	1658.929
509.883	25.546	1680.588	1655.060
510.898	25.781	1679.214	1655.682
511.912	25.653	1676.619	1651.741
512.927	25.351	1674.465	1646.639
513.941	25.257	1673.244	1644.377
514.956	25.373	1671.676	1643.712
515.971	25.636	1670.610	1644.882
516.985	25.710	1669.902	1644.668
518.000	25.540	1669.181	1642.200
519.014	25.770	1669.020	1643.951
520.029	25.887	1666.977	1642.820
521.043	25.802	1665.766	1640.650
522.058	25.623	1665.106	1638.166
523.073	25.808	1664.373	1638.941
524.087	26.214	1664.421	1642.503
525.102	26.290	1662.094	1640.703
526.116	25.949	1659.885	1635.220
527.131	25.812	1659.473	1633.369
528.146	26.393	1659.079	1638.078
529.160	26.666	1658.107	1639.408
530.175	26.647	1657.248	1638.188
531.189	26.692	1656.640	1637.797
532.204	26.724	1655.576	1636.837
533.219	26.370	1653.307	1631.193
534.233	25.919	1651.127	1624.765
535.248	26.155	1650.921	1626.504
536.262	26.957	1650.871	1633.513
537.277	27.043	1648.909	1632.158
538.292	26.741	1647.260	1627.605
539.306	26.627	1645.825	1624.959
540.321	26.502	1643.640	1621.488
541.335	26.209	1642.563	1617.585
542.350	26.467	1642.200	1619.364
543.365	26.884	1640.741	1621.472
544.379	27.183	1639.268	1622.510
545.394	27.118	1638.343	1620.811
546.408	26.516	1635.491	1612.415
547.423	25.893	1634.164	1605.335
548.438	25.751	1632.759	1602.495
549.452	26.144	1632.352	1605.410
550.467	26.463	1631.097	1606.832
551.481	26.398	1630.536	1605.512
552.496	26.610	1630.716	1607.384
553.511	26.977	1630.655	1610.404
554.525	27.026	1629.003	1609.022
555.540	26.990	1627.883	1607.398
556.554	27.052	1626.142	1606.044
557.569	27.002	1623.995	1603.284
558.583	26.578	1622.438	1597.797
559.598	26.605	1621.614	1597.032
560.613	26.612	1620.361	1595.666
561.627	26.609	1619.056	1594.164
562.642	26.666	1617.701	1593.144
563.656	26.923	1615.889	1593.439
564.671	26.806	1614.948	1591.284
565.686	26.839	1612.918	1589.388
566.700	26.349	1611.719	1583.702
567.715	26.149	1610.010	1580.073
568.729	26.135	1608.408	1578.187
569.744	26.096	1606.110	1575.400
570.759	26.240	1605.357	1575.739
571.773	26.340	1605.017	1576.093
572.788	26.473	1604.264	1576.332
573.802	26.383	1602.874	1573.985
574.817	26.516	1601.286	1573.406
575.832	26.681	1601.426	1574.790
576.846	26.855	1600.551	1575.262
577.861	26.936	1598.145	1573.410
578.875	27.124	1597.636	1574.357
579.890	27.344	1597.809	1576.254
580.905	27.442	1597.119	1576.245
581.919	27.593	1596.787	1577.037
582.934	27.883	1595.554	1578.156
583.948	27.755	1593.935	1575.248
584.963	27.593	1591.928	1571.678
585.978	27.182	1589.946	1565.970
586.992	27.255	1589.834	1566.306
588.007	27.545	1589.538	1568.333
589.021	26.949	1586.498	1560.002
590.036	25.949	1585.201	1549.905
591.051	26.777	1584.588	1556.265
592.065	27.472	1583.221	1560.723
593.080	27.654	1582.076	1560.977
594.094	27.794	1580.588	1560.521
595.109	27.136	1577.571	1551.717
596.123	26.607	1576.165	1545.607
597.138	27.062	1575.840	1549.006
598.153	27.312	1575.163	1550.300
599.167	27.350	1573.512	1548.811
600.182	27.382	1572.956	1548.349
601.196	27.465	1572.153	1548.088
602.211	27.361	1571.985	1546.848
603.226	27.597	1570.914	1547.617
604.240	27.702	1569.157	1546.602
605.255	27.976	1567.761	1547.369
606.269	27.870	1567.691	1546.219
607.284	27.794	1566.143	1543.856
608.299	27.714	1564.738	1541.604
609.313	27.481	1562.297	1537.044
610.328	27.541	1560.677	1535.774
611.342	27.595	1559.385	1534.778
612.357	27.573	1559.514	1534.536
613.372	27.752	1558.239	1534.604
614.386	27.517	1556.919	1531.141
615.401	27.479	1556.751	1530.473
616.415	27.339	1556.236	1528.600
617.430	27.462	1554.632	1527.873
618.445	27.471	1552.977	1526.142
619.459	27.234	1551.021	1522.044
620.474	26.876	1549.736	1517.594
621.488	26.788	1547.666	1514.648
622.503	26.434	1547.072	1510.909
623.518	26.856	1545.829	1513.054
624.532	27.277	1545.221	1515.801
625.547	27.217	1544.998	1514.899
626.561	27.448	1544.617	1516.282
627.576	27.500	1544.106	1516.030
628.591	27.261	1541.055	1510.864
629.605	27.072	1539.878	1507.950
630.620	27.072	1538.376	1506.299
631.634	26.959	1537.068	1503.893
632.649	27.132	1535.452	1503.571
633.663	27.312	1535.028	1504.473
634.678	27.505	1534.802	1505.677
635.693	27.653	1532.464	1504.427
636.707	27.620	1531.950	1503.472
637.722	27.749	1531.192	1503.616
638.736	28.050	1529.768	1504.527
639.751	28.079	1529.912	1504.732
640.766	28.170	1527.972	1503.389
641.780	28.147	1526.854	1501.921
642.795	28.004	1526.222	1499.944
643.809	28.138	1525.789	1500.444
644.824	28.215	1524.533	1499.660
645.839	28.215	1523.847	1498.806
646.853	28.360	1522.333	1498.329
647.868	28.197	1520.083	1494.602
648.882	27.988	1519.457	1492.092
649.897	27.815	1517.912	1488.975
650.912	27.940	1516.632	1488.566
651.926	28.208	1514.881	1488.865
652.941	27.869	1513.415	1484.475
653.955	27.304	1510.900	1477.215
654.970	26.547	1508.728	1468.748
655.985	26.556	1506.390	1466.371
656.999	26.637	1505.605	1466.086
658.014	27.075	1504.898	1468.781
659.028	27.494	1505.565	1472.662
660.043	27.983	1506.008	1476.892
661.058	27.973	1504.855	1475.508
662.072	28.045	1504.080	1475.155
663.087	28.115	1501.847	1473.352
664.101	27.901	1500.895	1470.509
665.116	28.102	1500.408	1471.483
666.131	28.244	1499.480	1471.549
667.145	28.257	1497.807	1469.836
668.160	28.398	1497.192	1470.187
669.174	28.599	1495.803	1470.269
670.189	28.584	1494.876	1469.059
671.204	28.366	1493.356	1465.640
672.218	28.403	1492.342	1464.767
673.233	28.494	1492.026	1465.008
674.247	28.741	1491.577	1466.376
675.262	28.846	1489.903	1465.401
676.276	28.804	1488.679	1463.683
677.291	28.440	1487.682	1459.610
678.306	28.277	1485.723	1456.214
679.320	28.222	1484.736	1454.632
680.335	28.061	1484.332	1452.780
681.349	28.446	1483.660	1455.019
682.364	28.427	1482.039	1453.099
683.379	28.425	1480.547	1451.452
684.393	28.202	1479.003	1447.992
685.408	28.268	1478.136	1447.493
686.422	28.180	1477.054	1445.557
687.437	27.882	1476.877	1442.851
688.452	28.029	1475.697	1442.690
689.466	28.032	1472.843	1439.748
690.481	27.892	1471.798	1437.444
691.495	27.841	1470.918	1436.016
692.510	27.454	1469.194	1431.101
693.525	27.208	1467.837	1427.668
694.539	27.308	1467.098	1427.567
695.554	27.818	1466.774	1431.102
696.568	27.950	1466.238	1431.448
697.583	28.070	1465.421	1431.425
698.598	28.218	1464.631	1431.645
699.612	28.371	1463.125	1431.204
700.627	28.416	1462.415	1430.683
701.641	28.605	1461.174	1430.784
702.656	28.554	1461.626	1430.658
703.671	28.749	1461.215	1431.611
704.685	28.870	1460.164	1431.355
705.700	28.873	1458.047	1429.133
706.714	28.579	1456.089	1424.749
707.729	28.364	1454.642	1421.482
708.744	28.338	1453.366	1419.864
709.758	28.147	1451.767	1416.647
710.773	27.507	1450.041	1409.817
711.787	27.401	1447.765	1406.611
712.802	27.929	1447.451	1410.239
713.816	28.252	1447.440	1412.560
714.831	28.560	1446.673	1414.030
715.846	28.620	1445.302	1412.984
716.860	28.630	1444.369	1411.980
717.875	28.551	1443.041	1409.901
718.889	28.402	1442.444	1408.001
719.904	28.359	1441.946	1407.016
720.919	28.636	1440.233	1407.310
721.933	28.544	1439.404	1405.624
722.948	28.600	1438.728	1405.225
723.962	28.568	1437.663	1403.769
724.977	28.598	1436.670	1402.862
725.992	28.875	1435.821	1403.996
727.006	28.845	1434.187	1401.999
728.021	28.871	1433.246	1401.110
729.035	28.900	1431.888	1399.833
730.050	28.924	1431.050	1399.032
731.065	28.805	1429.669	1396.607
732.079	28.900	1428.406	1395.928
733.094	28.787	1427.344	1393.861
734.108	28.890	1425.514	1392.697
735.123	28.839	1424.088	1390.743
736.138	28.592	1423.101	1387.739
737.152	28.711	1422.997	1388.375
738.167	28.834	1421.885	1388.059
739.181	28.999	1420.798	1388.082
740.196	29.018	1419.953	1387.235
741.211	28.785	1419.391	1384.758
742.225	28.888	1418.110	1384.116
743.240	28.662	1416.330	1380.510
744.254	28.541	1414.761	1377.903
745.269	28.476	1413.590	1376.103
746.284	28.330	1412.463	1373.743
747.298	28.141	1411.171	1370.894
748.313	28.051	1409.907	1368.826
749.327	27.804	1408.523	1365.461
750.342	27.630	1407.445	1362.945
751.356	27.410	1406.186	1359.910
752.371	27.515	1405.432	1359.810
753.386	27.838	1405.166	1361.812
754.400	28.481	1404.997	1366.301
755.415	28.885	1404.120	1368.307
756.429	29.128	1402.951	1368.823
757.444	29.070	1402.013	1367.310
758.459	29.154	1400.712	1366.506
759.473	29.150	1399.866	1365.486
760.488	28.759	1398.880	1361.451
761.502	28.694	1397.027	1359.000
762.517	28.688	1396.128	1357.915
763.532	28.813	1394.940	1357.528
764.546	28.484	1392.968	1353.003
765.561	27.935	1390.993	1346.857
766.575	27.204	1389.101	1339.456
767.590	26.947	1388.547	1336.859
768.605	27.961	1388.312	1343.968
769.619	28.389	1387.807	1346.483
770.634	28.498	1387.417	1346.752
771.648	28.710	1386.403	1347.163
772.663	28.735	1385.573	1346.383
773.678	28.823	1384.978	1346.290
774.692	28.975	1384.890	1347.166
775.707	29.076	1384.561	1347.426
776.721	29.148	1383.263	1346.530
777.736	28.922	1381.612	1343.103
778.751	29.012	1380.254	1342.283
779.765	29.023	1379.876	1341.838
780.780	28.879	1378.809	1339.581
781.794	29.122	1377.560	1339.984
782.809	28.663	1376.191	1335.141
783.824	28.206	1374.502	1330.000
784.838	28.029	1372.169	1326.298
785.853	27.840	1370.630	1323.271
786.867	27.968	1370.165	1323.596
787.882	28.134	1369.895	1324.386
788.897	28.159	1369.230	1323.765
789.911	28.041	1368.738	1322.276
790.926	28.135	1368.047	1322.131
791.940	28.456	1366.323	1322.636
792.955	28.618	1364.894	1322.268
793.969	28.687	1364.378	1322.106
794.984	28.738	1364.150	1322.101
795.999	28.899	1362.915	1321.907
797.013	28.947	1361.618	1320.838
798.028	28.840	1360.219	1318.549
799.042	29.050	1359.446	1319.160
800.057	29.157	1357.914	1318.283
801.072	28.991	1357.008	1316.051
802.086	29.051	1356.109	1315.450
803.101	29.062	1354.686	1313.997
804.115	29.101	1353.706	1313.167
805.130	28.925	1352.776	1310.845
806.145	28.985	1351.271	1309.661
807.159	28.714	1349.587	1305.937
808.174	28.651	1349.523	1305.264
809.188	28.721	1348.165	1304.295
810.203	28.399	1346.457	1300.193
811.218	28.275	1343.613	1296.407
812.232	27.750	1342.122	1291.080
813.247	27.395	1341.017	1287.339
814.261	27.909	1341.909	1291.696
815.276	28.579	1341.251	1295.665
816.291	28.618	1340.223	1294.798
817.305	28.654	1339.137	1293.844
818.320	28.798	1338.375	1293.978
819.334	28.832	1337.300	1293.020
820.349	29.084	1335.408	1292.817
821.364	28.981	1334.555	1291.107
822.378	29.123	1332.850	1290.308
823.393	29.146	1330.792	1288.318
824.407	29.046	1330.297	1286.983
825.422	28.842	1329.887	1284.996
826.437	28.637	1329.133	1282.675
827.451	28.381	1326.310	1278.006
828.466	27.912	1324.316	1272.649
829.480	28.033	1322.330	1271.429
830.495	28.111	1320.867	1270.418
831.509	28.276	1320.504	1271.070
832.524	28.451	1320.254	1271.894
833.539	28.727	1319.385	1272.832
834.553	28.949	1317.652	1272.553
835.568	28.875	1316.867	1271.126
836.582	28.983	1316.896	1271.752
837.597	28.986	1315.740	1270.501
838.612	28.979	1313.341	1267.986
839.626	28.710	1312.118	1264.791
840.641	28.692	1310.642	1263.091
841.655	28.413	1309.578	1259.992
842.670	27.660	1307.713	1252.847
843.685	26.903	1306.355	1246.173
844.699	27.722	1306.151	1251.480
845.714	28.297	1305.442	1254.611
846.728	28.460	1304.665	1254.835
847.743	28.333	1304.372	1253.525
848.758	28.684	1302.956	1254.428
849.772	28.734	1302.212	1253.907
850.787	28.968	1300.788	1253.986
851.801	28.914	1299.797	1252.513
852.816	28.870	1297.909	1250.243
853.831	28.771	1296.450	1248.012
854.845	28.684	1294.696	1245.580
855.860	28.483	1293.233	1242.658
856.874	28.230	1292.058	1239.658
857.889	28.260	1290.605	1238.314
858.904	28.091	1289.288	1235.756
859.918	28.116	1287.261	1233.836
860.933	27.649	1285.854	1229.177
861.947	27.776	1285.873	1229.905
862.962	27.998	1284.778	1230.217
863.977	27.938	1283.758	1228.685
864.991	28.093	1283.308	1229.158
866.006	28.344	1282.787	1230.201
867.020	28.649	1282.147	1231.499
868.035	28.698	1280.916	1230.500
869.049	28.939	1280.385	1231.466
870.064	28.850	1279.411	1229.779
871.079	28.839	1278.067	1228.270
872.093	28.666	1277.273	1226.198
873.108	28.642	1276.184	1224.846
874.122	28.318	1274.336	1220.754
875.137	27.835	1273.155	1216.241
876.152	27.878	1271.704	1214.997
877.166	27.769	1270.465	1212.938
878.181	28.179	1269.316	1214.437
879.195	28.389	1269.127	1215.507
880.210	28.555	1269.131	1216.475
881.225	28.778	1267.649	1216.390
882.239	28.770	1266.931	1215.507
883.254	28.922	1266.393	1215.851
884.268	28.924	1265.413	1214.782
885.283	28.747	1263.394	1211.524
886.298	28.867	1262.101	1210.934
887.312	28.752	1261.692	1209.634
888.327	28.708	1261.044	1208.576
889.341	28.633	1259.114	1206.085
890.356	28.638	1258.025	1204.934
891.371	28.506	1257.784	1203.685
892.385	28.345	1256.954	1201.690
893.400	28.328	1255.603	1200.138
894.414	28.074	1254.578	1197.346
895.429	28.127	1252.840	1195.889
896.444	27.866	1250.400	1191.709
897.458	27.531	1248.909	1187.951
898.473	27.669	1248.656	1188.471
899.487	27.979	1248.260	1189.982
900.502	28.105	1246.927	1189.390
901.517	28.350	1246.242	1190.193
902.531	28.429	1245.860	1190.203
903.546	28.693	1245.159	1191.114
904.560	28.781	1243.811	1190.252
905.575	28.656	1243.458	1188.960
906.589	28.644	1242.463	1187.790
907.604	28.492	1241.403	1185.647
