DTS Sentinel unit serial number:	SN409020Multiplexer serial number:	ORYXHardware model number:	OX4-SRSoftware version number:	ORYX F/W v3.00 Oryx Data Collector v3.7.2.0data status	okinstallation	HaddamTimeLapsedifferential loss correction	single-endedforward channel	channel 3reverse channel	N/Adate	2011/06/22time	06:21:16forward acquisition time	30.00reverse acquisition time	0.00gamma	498.7831k internal	0.1752k external	0.1752temperature offset calibration	1.0074default loss term (dB/km)	0.3790temperature slope calibration	1.3530multiplexer offset coefficient	1.0000multiplexer slope coefficient	1.0000fibre end	0.00T internal ref (°C)	22.62T ext. ref 1 (°C)	18.40T ext. ref 2 (°C)	0.19length (m)	temperature (°C)	Stokes	anti-Stokes-747.200	-200.000	0.007	-0.225
-746.185	113.647	-0.275	0.444
-745.171	-184.965	-0.756	-0.016
-744.156	39.247	0.257	-0.305
-743.142	29.922	-0.138	-0.156
-742.127	-73.651	-0.077	0.037
-741.112	92.478	0.205	-0.307
-740.098	34.223	0.298	0.345
-739.083	-152.994	0.555	-0.051
-738.069	-156.495	-0.443	0.036
-737.054	63.919	-0.260	-0.348
-736.039	-69.170	-0.433	-0.220
-735.025	-105.913	0.130	-0.039
-734.010	-200.000	-0.007	-0.182
-732.996	-86.324	-0.034	0.014
-731.981	800.000	-0.085	-0.327
-730.966	67.407	-0.259	0.351
-729.952	-128.472	-0.371	0.069
-728.937	-200.000	-0.024	-0.235
-727.923	-75.957	0.070	0.033
-726.908	1.660	0.136	-0.130
-725.894	167.103	0.195	-0.369
-724.879	-99.648	0.089	0.030
-723.864	25.317	-0.137	0.151
-722.850	-140.211	-0.523	0.072
-721.835	-113.549	0.359	0.092
-720.821	32.255	-0.189	0.216
-719.806	-151.956	-0.682	0.065
-718.791	33.421	-0.150	0.172
-717.777	-134.051	-0.312	-0.051
-716.762	-138.407	-0.410	0.059
-715.748	-55.565	-0.114	-0.067
-714.733	-28.505	0.176	0.135
-713.718	-111.839	-0.248	0.066
-712.704	23.261	0.107	-0.116
-711.689	-80.230	0.128	0.057
-710.675	34.648	-0.082	0.095
-709.660	108.690	-0.151	0.240
-708.645	-90.795	-0.309	0.117
-707.631	161.105	0.180	-0.334
-706.616	445.740	0.051	0.149
-705.602	-21.264	0.143	-0.115
-704.587	13.053	-0.158	-0.162
-703.572	-49.294	-0.470	-0.297
-702.558	800.000	-0.218	0.809
-701.543	194.076	0.077	0.156
-700.529	-200.000	0.008	-0.390
-699.514	210.984	0.103	0.215
-698.499	35.403	-0.252	-0.293
-697.485	-46.462	0.199	-0.129
-696.470	-200.000	-0.008	0.203
-695.456	-52.975	-0.400	0.243
-694.441	31.733	-0.277	0.317
-693.426	-91.367	0.200	0.075
-692.412	69.266	-0.264	0.360
-691.397	-21.135	-0.080	-0.064
-690.383	-127.885	-1.171	-0.221
-689.368	-200.000	0.442	0.002
-688.354	-65.209	-0.330	-0.175
-687.339	800.000	-0.019	-0.108
-686.324	-200.000	-0.009	-0.560
-685.310	-200.000	0.009	-0.115
-684.295	-200.000	-0.026	-0.231
-683.281	34.290	-0.321	-0.371
-682.266	647.840	-0.172	-0.584
-681.251	-59.516	0.138	0.078
-680.237	-51.023	-0.241	0.150
-679.222	22.081	0.170	-0.184
-678.208	-91.553	0.350	-0.131
-677.193	111.029	0.271	-0.434
-676.178	143.552	-0.216	0.381
-675.164	-117.386	-0.419	0.100
-674.149	-10.032	-0.332	-0.292
-673.135	-200.000	-0.003	-0.041
-672.120	-156.790	0.408	-0.033
-671.105	76.978	0.127	0.179
-670.091	223.415	-0.251	0.539
-669.076	16.581	-0.078	-0.082
-668.062	661.130	-0.093	0.319
-667.047	-200.000	-0.007	0.314
-666.032	-50.271	-0.293	0.183
-665.018	-105.475	-0.188	-0.056
-664.003	-89.638	-0.488	-0.189
-662.989	-77.272	-0.230	0.105
-661.974	41.603	-0.224	-0.269
-660.959	-98.335	-0.183	0.062
-659.945	211.304	-0.139	0.291
-658.930	-149.847	-0.591	-0.061
-657.916	-106.704	0.338	-0.099
-656.901	26.891	0.183	-0.203
-655.886	-2.284	0.165	0.153
-654.872	-55.966	0.108	0.063
-653.857	-36.614	0.350	-0.249
-652.843	-42.763	-0.095	-0.064
-651.828	-200.000	0.030	0.296
-650.814	-150.299	-0.143	0.014
-649.799	-51.280	0.194	0.120
-648.784	343.968	0.099	0.257
-647.770	436.001	-0.080	-0.232
-646.755	-36.093	-0.123	0.087
-645.741	-20.952	0.146	-0.118
-644.726	-200.000	0.003	-0.440
-643.711	-180.320	0.132	0.004
-642.697	17.167	0.546	-0.572
-641.682	-6.356	-0.104	-0.094
-640.668	177.770	-0.067	-0.129
-639.653	-48.997	0.197	-0.124
-638.638	-110.392	-0.363	-0.099
-637.624	294.347	-0.148	0.359
-636.609	143.672	-0.281	0.496
-635.595	56.984	-0.157	0.202
-634.580	117.299	0.212	0.346
-633.565	-64.401	0.217	-0.116
-632.551	-200.000	0.076	0.482
-631.536	-3.427	-0.232	-0.213
-630.522	-169.120	0.318	0.015
-629.507	-90.825	0.355	-0.134
-628.492	-137.847	-0.301	0.044
-627.478	-62.189	0.573	-0.314
-626.463	96.915	0.036	-0.054
-625.449	-200.000	0.060	0.688
-624.434	134.423	0.201	0.345
-623.419	-130.465	-0.599	-0.106
-622.405	-200.000	0.031	0.574
-621.390	-110.894	0.434	0.117
-620.376	341.984	-0.179	-0.465
-619.361	-74.629	-0.499	0.236
-618.346	-35.235	0.239	0.171
-617.332	116.189	-0.229	0.371
-616.317	-194.258	-0.429	0.004
-615.303	-133.523	0.449	-0.074
-614.288	9.717	0.282	0.282
-613.273	733.920	-0.101	0.358
-612.259	73.629	-0.094	-0.130
-611.244	171.425	0.067	-0.128
-610.230	-31.696	0.278	-0.206
-609.215	-88.751	0.469	-0.183
-608.201	-10.469	0.145	0.127
-607.186	-69.247	-0.420	-0.212
-606.171	-77.984	-0.092	0.042
-605.157	800.000	-0.018	0.069
-604.142	-152.636	-0.244	-0.023
-603.128	71.674	0.175	-0.241
-602.113	101.541	-0.069	-0.107
-601.098	14.278	-0.388	-0.399
-600.084	193.584	0.085	-0.170
-599.069	-103.965	0.253	0.077
-598.055	116.809	0.215	0.349
-597.040	-200.000	0.004	0.226
-596.025	-200.000	0.022	-0.207
-595.011	-200.000	0.007	-0.672
-593.996	-177.547	-0.217	-0.007
-592.982	-35.166	-0.299	-0.215
-591.967	-54.157	0.162	-0.097
-590.952	95.171	0.298	-0.449
-589.938	-200.000	-0.070	-0.581
-588.923	463.773	-0.122	0.360
-587.909	-200.000	0.012	0.149
-586.894	-200.000	-0.053	0.389
-585.879	-32.955	-0.161	-0.117
-584.865	30.441	-0.101	-0.114
-583.850	38.735	-0.049	-0.058
-582.836	-122.168	-0.399	0.085
-581.821	-200.000	0.063	0.379
-580.806	-84.352	-0.070	-0.029
-579.792	-10.236	0.285	0.249
-578.777	-127.475	-0.486	-0.092
-577.763	36.514	0.235	0.274
-576.748	109.071	-0.122	-0.193
-575.733	-78.040	0.118	0.054
-574.719	629.942	0.072	-0.241
-573.704	-12.851	-0.170	0.146
-572.690	-112.246	0.296	0.078
-571.675	-54.946	0.155	0.092
-570.661	-99.872	-0.098	-0.032
-569.646	-120.296	0.348	-0.078
-568.631	-44.382	-0.178	0.117
-567.617	-10.398	-0.295	-0.258
-566.602	12.742	0.022	0.023
-565.588	214.316	-0.178	-0.372
-564.573	65.102	0.139	0.185
-563.558	-44.420	0.246	0.162
-562.544	-106.295	-0.376	-0.110
-561.529	800.000	0.010	0.053
-560.515	1.488	0.323	0.306
-559.500	-200.000	-0.004	-0.039
-558.485	-200.000	-0.012	0.366
-557.471	52.453	-0.340	0.428
-556.456	28.282	-0.114	-0.127
-555.442	-45.291	0.283	-0.185
-554.427	-101.820	-0.158	0.050
-553.412	-200.000	-0.001	-0.124
-552.398	-112.324	0.467	-0.122
-551.383	204.561	0.076	-0.156
-550.369	-200.000	0.017	-0.179
-549.354	45.222	0.363	-0.441
-548.339	200.441	-0.224	-0.456
-547.325	800.000	0.082	-0.462
-546.310	-112.958	0.134	-0.035
-545.296	-95.488	-0.261	-0.092
-544.281	-64.827	-0.331	-0.176
-543.266	634.404	-0.021	0.069
-542.252	-72.166	0.515	0.250
-541.237	-62.010	0.155	0.085
-540.223	38.575	-0.291	0.342
-539.208	78.348	-0.197	0.277
-538.193	-41.593	0.240	-0.162
-537.179	-90.275	-0.758	0.289
-536.164	800.000	-0.094	0.487
-535.150	-57.616	0.593	0.341
-534.135	-29.368	0.524	0.394
-533.121	289.978	0.061	-0.146
-532.106	45.507	-0.192	0.234
-531.091	-200.000	-0.009	-0.308
-530.077	-121.360	0.191	0.042
-529.062	338.471	-0.045	-0.115
-528.048	800.000	0.046	0.208
-527.033	240.754	0.237	0.523
-526.018	-141.169	-0.081	-0.011
-525.004	-159.926	0.506	0.036
-523.989	537.274	-0.125	-0.392
-522.975	-150.509	-0.756	-0.075
-521.960	231.627	0.208	0.450
-520.945	-107.674	0.229	-0.065
-519.931	114.133	0.122	-0.196
-518.916	-50.491	0.475	-0.294
-517.902	568.066	0.085	-0.274
-516.887	-91.661	0.451	-0.168
-515.872	196.231	-0.132	-0.266
-514.858	-200.000	-0.003	-0.434
-513.843	-47.627	0.517	-0.329
-512.829	51.554	0.066	-0.082
-511.814	51.694	-0.322	0.404
-510.799	77.120	-0.128	-0.180
-509.785	229.407	-0.195	-0.420
-508.770	-107.501	-0.327	-0.094
-507.756	1.606	-0.157	0.148
-506.741	13.083	0.212	0.216
-505.726	-160.884	-0.122	0.008
-504.712	-161.481	0.303	-0.020
-503.697	800.000	-0.123	-0.608
-502.683	800.000	-0.049	0.223
-501.668	35.963	0.121	-0.140
-500.653	219.419	0.027	-0.057
-499.639	316.732	0.110	0.276
-498.624	291.838	-0.179	0.430
-497.610	-15.275	-0.262	0.220
-496.595	436.499	0.072	0.207
-495.581	-200.000	0.024	0.487
-494.566	-87.194	0.405	-0.161
-493.551	-137.719	0.330	0.048
-492.537	96.670	0.323	0.487
-491.522	-136.423	0.178	0.027
-490.508	-176.233	-0.484	0.016
-489.493	503.651	0.103	0.314
-488.478	-84.771	-0.251	0.103
-487.464	-82.661	-0.609	-0.258
-486.449	47.451	-0.215	0.264
-485.435	800.000	0.060	0.230
-484.420	184.640	-0.151	0.296
-483.405	-44.651	0.306	0.200
-482.391	260.332	-0.116	-0.264
-481.376	-165.357	0.119	-0.007
-480.362	745.009	-0.258	-0.918
-479.347	-200.000	0.019	-0.404
-478.332	-70.437	-0.250	-0.124
-477.318	-77.167	-0.525	0.239
-476.303	704.350	-0.023	0.079
-475.289	-200.000	-0.002	0.126
-474.274	88.141	-0.136	-0.199
-473.259	55.389	-0.176	-0.224
-472.245	163.506	-0.085	0.158
-471.230	211.642	-0.160	-0.331
-470.216	-200.000	-0.004	0.165
-469.201	-0.750	0.320	0.298
-468.186	228.428	-0.155	0.332
-467.172	-99.553	-0.294	-0.096
-466.157	-51.391	-0.441	-0.270
-465.143	185.270	-0.219	-0.428
-464.128	-29.718	-0.137	-0.103
-463.113	-133.539	0.184	0.030
-462.099	-138.002	0.149	-0.022
-461.084	700.399	0.100	0.347
-460.070	85.583	0.097	0.141
-459.055	103.963	0.072	-0.111
-458.040	-200.000	0.007	-0.121
-457.026	-109.599	0.216	-0.059
-456.011	-200.000	-0.015	0.164
-454.997	5.497	-0.100	0.096
-453.982	-126.146	0.526	-0.103
-452.968	210.382	-0.125	-0.259
-451.953	800.000	-0.037	0.188
-450.938	280.335	0.029	0.069
-449.924	-143.658	-0.455	0.056
-448.909	623.016	-0.135	0.448
-447.895	60.574	-0.107	-0.139
-446.880	129.579	-0.038	0.064
-445.865	-71.829	-0.469	-0.228
-444.851	-200.000	-0.425	0.002
-443.836	-95.950	0.599	-0.208
-442.822	23.544	-0.321	-0.347
-441.807	558.659	-0.127	-0.406
-440.792	-200.000	-0.027	-0.158
-439.778	-95.682	0.115	-0.040
-438.763	-123.960	-0.221	-0.045
-437.749	280.030	0.020	-0.047
-436.734	-80.257	0.304	-0.133
-435.719	-34.524	0.397	-0.284
-434.705	-118.356	0.333	-0.077
-433.690	126.108	-0.136	0.226
-432.676	-1.486	0.232	0.215
-431.661	-80.776	-0.218	-0.094
-430.646	33.914	-0.218	0.249
-429.632	221.068	0.035	0.074
-428.617	-129.933	0.230	-0.041
-427.603	-200.000	-0.012	0.360
-426.588	102.837	-0.279	-0.430
-425.573	80.109	-0.236	-0.334
-424.559	-52.514	0.076	-0.046
-423.544	222.871	0.194	-0.410
-422.530	-24.225	-0.190	-0.149
-421.515	-81.950	0.256	0.109
-420.500	50.548	0.240	0.298
-419.486	-112.812	0.408	-0.105
-418.471	-53.030	0.030	0.018
-417.457	164.699	0.094	-0.174
-416.442	470.012	0.094	0.280
-415.428	800.000	-0.105	0.407
-414.413	-112.313	-0.568	-0.148
-413.398	-40.338	0.296	0.201
-412.384	16.931	0.185	0.192
-411.369	43.448	-0.210	0.252
-410.355	576.624	0.146	0.471
-409.340	-200.000	0.044	0.303
-408.325	-119.907	-0.282	-0.063
-407.311	-200.000	0.003	0.052
-406.296	-72.402	0.324	0.156
-405.282	166.734	0.173	-0.323
-404.267	117.609	-0.086	0.140
-403.252	78.239	0.128	-0.179
-402.238	-169.443	-0.419	-0.020
-401.223	-151.551	-0.374	-0.036
-400.209	800.000	-0.142	0.555
-399.194	7.260	-0.246	0.241
-398.179	-77.671	-0.158	0.071
-397.165	-200.000	-0.033	0.414
-396.150	-73.792	-0.087	0.041
-395.136	203.911	0.067	-0.137
-394.121	191.425	-0.138	-0.273
-393.106	-136.609	-0.571	0.086
-392.092	-200.000	0.035	-0.244
-391.077	540.300	0.156	-0.490
-390.063	-164.844	0.304	0.018
-389.048	388.318	0.048	-0.131
-388.033	320.292	-0.053	0.132
-387.019	-200.000	0.009	-0.170
-386.004	-93.056	-0.283	-0.103
-384.990	-148.691	-0.372	-0.039
-383.975	-10.945	0.357	0.308
-382.960	-13.644	0.361	0.305
-381.946	-60.650	0.294	0.163
-380.931	-133.254	-0.298	-0.049
-379.917	-185.091	0.524	0.011
-378.902	800.000	0.073	-0.284
-377.888	-40.183	-0.592	-0.403
-376.873	-52.237	-0.354	0.214
-375.858	-111.944	-0.063	0.016
-374.844	-200.000	0.038	0.275
-373.829	-99.594	-0.481	0.157
-372.815	-200.000	-0.025	0.384
-371.800	-84.616	-0.075	0.031
-370.785	-112.159	-0.556	0.145
-369.771	266.538	0.069	0.158
-368.756	84.762	-0.135	-0.193
-367.742	-97.725	0.310	-0.104
-366.727	288.962	-0.086	-0.205
-365.712	-46.990	0.042	0.026
-364.698	-181.855	-0.305	0.007
-363.683	26.837	0.154	-0.168
-362.669	-165.629	0.172	0.010
-361.654	-88.657	-0.186	-0.072
-360.639	-115.390	0.212	-0.052
-359.625	602.242	0.082	0.269
-358.610	-85.815	0.415	-0.167
-357.596	31.047	-0.393	0.441
-356.581	26.058	0.091	-0.099
-355.566	-66.521	0.371	-0.192
-354.552	-73.798	0.043	-0.020
-353.537	-171.567	0.225	-0.010
-352.523	169.534	0.219	0.411
-351.508	800.000	-0.092	0.371
-350.493	673.795	-0.025	-0.084
-349.479	-64.709	0.275	0.145
-348.464	800.000	0.018	0.102
-347.450	-79.101	0.287	-0.127
-346.435	-127.271	0.422	0.080
-345.420	501.475	-0.056	0.170
-344.406	-193.502	-0.438	0.005
-343.391	68.796	-0.270	-0.363
-342.377	359.925	0.073	0.191
-341.362	-174.408	0.348	-0.013
-340.348	64.713	-0.053	-0.070
-339.333	-200.000	-0.014	-0.241
-338.318	18.023	0.323	-0.336
-337.304	-200.000	0.021	-0.399
-336.289	-40.641	-0.285	0.193
-335.275	321.561	-0.070	-0.175
-334.260	89.828	0.210	-0.307
-333.245	-200.000	-0.025	0.207
-332.231	46.411	0.079	-0.096
-331.216	-68.378	0.201	0.102
-330.202	-29.839	-0.307	-0.229
-329.187	-135.280	0.212	-0.033
-328.172	-14.972	-0.303	-0.254
-327.158	218.447	-0.166	-0.347
-326.143	-95.024	-0.258	0.091
-325.129	-200.000	-0.028	0.207
-324.114	-153.942	-0.441	-0.039
-323.099	-82.905	0.313	0.131
-322.085	-200.000	-0.015	-0.305
-321.070	800.000	0.012	0.058
-320.056	-143.266	-0.048	0.006
-319.041	36.896	0.115	-0.132
-318.026	-137.438	-0.529	0.077
-317.012	-49.425	-0.394	0.244
-315.997	104.709	0.130	0.201
-314.983	-200.000	0.007	0.044
-313.968	-62.133	0.143	-0.077
-312.953	-156.423	-0.502	-0.040
-311.939	180.455	0.141	0.271
-310.924	185.773	0.067	0.130
-309.910	-71.545	0.411	0.200
-308.895	70.617	0.170	0.230
-307.880	-152.206	-0.128	-0.012
-306.866	0.030	0.161	-0.150
-305.851	411.693	-0.050	-0.140
-304.837	-102.483	0.479	-0.149
-303.822	-126.390	0.327	0.063
-302.807	-125.443	0.411	-0.081
-301.793	-46.850	-0.234	0.149
-300.778	-200.000	-0.094	0.631
-299.764	147.296	0.198	-0.349
-298.749	-72.913	0.528	-0.252
-297.735	477.079	-0.039	0.116
-296.720	-120.744	0.335	-0.073
-295.705	-69.353	0.265	0.132
-294.691	17.430	0.141	-0.146
-293.676	343.024	0.118	-0.303
-292.662	-200.000	0.024	-0.551
-291.647	-12.286	0.327	0.279
-290.632	680.678	0.151	-0.515
-289.618	-200.000	-0.017	-0.253
-288.603	61.264	0.359	0.466
-287.589	800.000	-0.094	-0.349
-286.574	430.354	0.164	0.465
-285.559	800.000	-0.043	-0.245
-284.545	-124.419	-0.270	0.054
-283.530	106.110	0.127	-0.196
-282.516	3.595	0.117	-0.111
-281.501	-152.530	-0.168	0.016
-280.486	800.000	-0.071	-0.356
-279.472	486.044	-0.105	0.314
-278.457	800.000	-0.106	-0.464
-277.443	152.035	-0.149	-0.266
-276.428	117.864	-0.118	-0.190
-275.413	194.400	0.192	0.381
-274.399	-40.892	-0.164	-0.110
-273.384	-171.006	0.120	-0.005
-272.370	-106.055	0.328	-0.095
-271.355	-200.000	-0.032	-0.196
-270.340	-107.925	0.150	0.042
-269.326	-22.469	-0.175	0.138
-268.311	-200.000	0.020	0.303
-267.297	-35.513	-0.175	0.123
-266.282	800.000	-0.076	0.416
-265.267	-58.747	0.370	0.208
-264.253	-56.002	0.125	0.072
-263.238	800.000	0.020	-0.115
-262.224	239.836	-0.139	-0.302
-261.209	-153.683	-0.178	-0.016
-260.195	18.107	-0.394	0.410
-259.180	50.164	-0.024	-0.030
-258.165	-115.282	0.576	0.141
-257.151	-87.889	0.059	-0.023
-256.136	-16.232	0.202	-0.167
-255.122	-200.000	-0.013	-0.642
-254.107	-146.400	-0.278	-0.031
-253.092	-200.000	0.008	0.327
-252.078	-192.055	-0.051	0.001
-251.063	32.757	-0.213	0.240
-250.049	95.537	0.105	0.157
-249.034	14.359	-0.484	0.491
-248.019	72.065	-0.159	0.215
-247.005	-140.568	-0.115	0.015
-245.990	-59.576	0.162	-0.090
-244.976	-11.982	-0.511	-0.436
-243.961	-185.240	-0.357	0.007
-242.946	-64.837	-0.121	-0.063
-241.932	534.386	0.113	-0.349
-240.917	-109.959	0.503	-0.136
-239.903	800.000	0.028	-0.121
-238.888	53.337	-0.274	0.342
-237.873	28.854	-0.106	0.116
-236.859	-200.000	0.012	0.446
-235.844	-86.407	-0.273	0.109
-234.830	116.098	0.124	-0.198
-233.815	-200.000	0.016	-0.115
-232.800	800.000	-0.082	-0.323
-231.786	210.989	0.185	-0.380
-230.771	-122.759	-0.162	-0.034
-229.757	-24.646	-0.192	-0.149
-228.742	143.236	-0.062	0.107
-227.727	-150.906	0.198	0.019
-226.713	-200.000	0.008	0.060
-225.698	-124.502	-0.514	0.103
-224.684	-70.643	0.096	-0.047
-223.669	565.358	0.202	-0.641
-222.655	105.860	0.193	-0.297
-221.640	271.505	0.190	-0.438
-220.625	-52.982	0.282	-0.168
-219.611	93.207	-0.303	-0.446
-218.596	124.903	0.188	0.309
-217.582	-157.468	-0.150	-0.012
-216.567	-28.333	-0.117	-0.088
-215.552	-200.000	-0.009	-0.494
-214.538	23.465	0.156	0.167
-213.523	-155.441	0.304	-0.025
-212.509	2.365	0.197	-0.186
-211.494	-200.000	-0.005	-0.508
-210.479	-200.000	-0.024	-0.520
-209.465	-115.103	-0.187	0.046
-208.450	26.200	0.145	-0.157
-207.436	140.271	-0.256	0.440
-206.421	-86.909	0.105	0.042
-205.406	-103.408	0.136	0.041
-204.392	118.191	-0.101	-0.162
-203.377	800.000	-0.075	-0.331
-202.363	267.048	0.311	0.710
-201.348	800.000	0.174	0.771
-200.333	-35.271	0.175	-0.123
-199.319	298.045	-0.171	0.410
-198.304	454.157	-0.083	0.242
-197.290	-75.252	0.325	-0.150
-196.275	77.475	0.227	-0.314
-195.260	97.277	-0.121	0.180
-194.246	151.737	-0.202	0.359
-193.231	-200.000	-0.040	0.468
-192.217	-200.000	0.004	-0.534
-191.202	-17.119	-0.374	-0.307
-190.187	358.323	-0.197	0.513
-189.173	120.001	-0.320	0.516
-188.158	48.798	-0.363	0.443
-187.144	-200.000	0.003	0.203
-186.129	-32.541	-0.246	0.178
-185.114	-90.679	-0.149	-0.056
-184.100	-181.680	0.210	0.005
-183.085	-102.906	0.655	-0.201
-182.071	-35.627	-0.236	0.166
-181.056	269.167	-0.112	-0.257
-180.042	-86.768	0.276	-0.109
-179.027	-170.739	-0.289	-0.013
-178.012	-95.770	-0.248	-0.086
-176.998	-119.699	0.174	-0.039
-175.983	361.875	0.172	-0.451
-174.969	-103.545	-0.173	-0.052
-173.954	-63.683	0.189	-0.100
-172.939	165.737	0.092	-0.170
-171.925	-76.173	0.078	0.036
-170.910	591.732	0.079	0.256
-169.896	-68.602	0.036	0.018
-168.881	800.000	0.032	0.134
-167.866	213.260	-0.211	-0.435
-166.852	-110.227	-0.367	-0.099
-165.837	-115.984	0.250	0.060
-164.823	-161.277	0.166	0.011
-163.808	511.415	0.138	0.418
-162.793	238.900	0.196	0.424
-161.779	-59.410	0.416	0.231
-160.764	21.789	-0.298	-0.315
-159.750	-35.363	-0.261	-0.183
-158.735	-200.000	0.040	0.392
-157.720	800.000	-0.018	0.080
-156.706	-37.999	-0.231	-0.159
-155.691	-5.098	-0.141	0.126
-154.677	4.250	-0.280	-0.266
-153.662	800.000	-0.026	0.124
-152.647	132.217	0.106	0.178
-151.633	365.750	0.117	0.306
-150.618	458.167	-0.087	0.251
-149.604	800.000	-0.072	-0.385
-148.589	-7.742	0.107	-0.094
-147.574	-200.000	-0.017	-0.178
-146.560	-200.000	-0.005	0.505
-145.545	-89.663	-0.431	-0.163
-144.531	82.407	-0.121	0.170
-143.516	-103.361	0.177	-0.054
-142.502	211.508	0.086	0.176
-141.487	603.610	-0.073	0.236
-140.472	-64.257	-0.059	-0.031
-139.458	800.000	-0.013	-0.049
-138.443	-128.236	-0.238	0.044
-137.429	-14.177	-0.558	0.466
-136.414	-7.502	-0.211	0.185
-135.399	-113.832	-0.304	0.076
-134.385	-176.737	-0.179	-0.006
-133.370	62.404	-0.381	-0.493
-132.356	-131.390	-0.393	-0.067
-131.341	483.278	0.140	0.415
-130.326	-103.765	0.248	-0.075
-129.312	-139.470	-0.296	-0.041
-128.297	15.764	0.149	0.152
-127.283	205.378	0.076	-0.153
-126.268	175.410	-0.082	0.154
-125.253	295.528	0.095	-0.226
-124.239	-53.718	-0.213	0.126
-123.224	-39.199	-0.050	0.034
-122.210	-108.313	-0.212	0.059
-121.195	-200.000	-0.011	-0.074
-120.180	116.629	0.183	0.292
-119.166	83.188	-0.039	-0.056
-118.151	-145.006	-0.640	-0.075
-117.137	84.272	-0.243	0.345
-116.122	-77.331	0.209	0.094
-115.107	133.612	-0.286	0.480
-114.093	500.841	0.052	0.156
-113.078	-8.525	0.144	0.125
-112.064	438.829	0.102	0.290
-111.049	-85.805	0.518	0.207
-110.034	196.597	-0.127	0.251
-109.020	55.604	0.369	-0.463
-108.005	-200.000	0.041	-0.530
-106.991	82.501	0.098	0.138
-105.976	34.244	-0.100	0.113
-104.962	-171.128	0.213	-0.009
-103.947	249.170	-0.228	-0.503
-102.932	426.823	0.057	0.161
-101.918	533.529	0.103	-0.317
-100.903	-102.347	-0.501	-0.154
-99.889	800.000	0.085	-0.305
-98.874	-124.922	0.395	0.078
-97.859	52.535	0.153	-0.190
-96.845	-200.000	0.012	0.722
-95.830	289.974	0.077	0.183
-94.816	-12.286	0.160	0.135
-93.801	-154.567	-0.391	-0.033
-92.786	8.109	-0.254	0.246
-91.772	427.412	0.082	0.230
-90.757	-151.724	-0.297	-0.028
-89.743	118.334	-0.071	-0.114
-88.728	545.257	-0.115	-0.357
-87.713	224.017	-0.123	-0.259
-86.699	175.372	-0.109	-0.205
-85.684	420.765	-0.148	0.413
-84.670	-200.000	0.017	0.197
-83.655	-191.391	-0.183	-0.002
-82.640	474.435	-0.024	-0.071
-81.626	-100.949	0.165	0.052
-80.611	-62.408	0.284	-0.152
-79.597	96.050	-0.053	0.079
-78.582	-200.000	-0.002	-0.057
-77.567	34.580	-0.330	0.373
-76.553	-28.956	0.104	0.077
-75.538	-76.889	-0.146	-0.066
-74.524	-182.382	-0.187	-0.004
-73.509	319.779	-0.016	-0.040
-72.494	-200.000	0.004	0.087
-71.480	522.773	-0.014	0.044
-70.465	22.282	-0.252	0.267
-69.451	-63.047	0.282	0.150
-68.436	36.576	-0.196	-0.224
-67.422	23.828	-0.434	0.463
-66.407	800.000	0.148	0.640
-65.392	-137.058	-0.401	0.059
-64.378	-88.832	0.401	0.153
-63.363	122.078	0.184	0.297
-62.349	-136.216	0.044	-0.007
-61.334	8.324	-2.313	-2.247
-60.319	-9.316	1.659	1.431
-59.305	260.970	-3.469	-7.791
-58.290	40.396	4.093	4.765
-57.276	407.336	3.648	10.012
-56.261	-200.000	24.274	317.235
-55.246	357.260	1299.360	3364.619
-54.232	53.326	2840.646	3521.404
-53.217	51.732	2658.137	3270.425
-52.203	31.957	2388.856	2660.620
-51.188	27.906	2054.685	2238.554
-50.173	24.451	1941.019	2074.345
-49.159	23.410	1929.139	2049.477
-48.144	23.055	1924.477	2040.329
-47.130	22.950	1922.280	2036.703
-46.115	22.919	1920.569	2034.456
-45.100	22.917	1918.600	2032.263
-44.086	22.785	1917.743	2029.751
-43.071	22.807	1915.713	2027.775
-42.057	22.857	1914.507	2026.990
-41.042	22.817	1913.374	2025.249
-40.027	22.845	1911.786	2023.807
-39.013	22.946	1909.212	2022.167
-37.998	22.693	1909.442	2019.419
-36.984	22.772	1908.268	2019.009
-35.969	22.788	1906.653	2017.403
-34.954	22.728	1905.389	2015.294
-33.940	22.784	1904.165	2014.562
-32.925	22.721	1902.847	2012.368
-31.911	22.616	1901.940	2010.123
-30.896	22.790	1899.809	2009.780
-29.881	22.732	1899.316	2008.520
-28.867	22.646	1897.509	2005.540
-27.852	22.660	1895.239	2003.231
-26.838	22.731	1894.304	2002.967
-25.823	22.639	1893.169	2000.635
-24.809	22.645	1891.746	1999.119
-23.794	22.600	1891.302	1998.060
-22.779	22.624	1889.104	1995.931
-21.765	22.613	1888.248	1994.827
-20.750	22.695	1886.381	1993.702
-19.736	22.529	1886.273	1991.633
-18.721	22.599	1884.685	1990.671
-17.706	22.513	1883.691	1988.563
-16.692	22.625	1882.545	1988.542
-15.677	22.448	1881.873	1985.753
-14.663	22.606	1879.493	1984.944
-13.648	22.594	1878.529	1983.714
-12.633	22.472	1876.924	1980.563
-11.619	22.452	1876.189	1979.485
-10.604	22.506	1874.517	1978.248
-9.590	22.640	1872.807	1977.881
-8.575	22.604	1872.448	1977.016
-7.560	22.466	1871.149	1974.008
-6.546	22.460	1870.311	1972.977
-5.531	22.532	1868.612	1971.922
-4.517	22.530	1867.287	1970.416
-3.502	22.469	1866.993	1969.348
-2.487	22.588	1865.044	1968.545
-1.473	22.575	1862.334	1965.457
-0.458	22.517	1843.743	1945.116
0.556	19.225	1990.474	2048.366
1.571	18.014	2193.365	2240.930
2.586	18.707	2233.271	2290.724
3.600	18.712	2236.209	2293.528
4.615	18.741	2235.084	2292.498
5.629	18.824	2232.337	2290.508
6.644	18.830	2230.638	2288.582
7.659	18.771	2228.890	2285.713
8.673	18.706	2226.769	2282.404
9.688	18.607	2234.899	2289.132
10.702	17.624	2315.871	2358.122
11.717	16.075	2379.920	2400.883
12.731	7.817	2360.324	2263.156
13.746	1.192	2341.548	2150.689
14.761	0.165	2339.111	2133.569
15.775	0.008	2337.407	2129.517
16.790	0.173	2334.851	2129.281
17.804	0.031	2333.127	2125.444
18.819	0.065	2332.798	2125.361
19.834	0.024	2331.400	2123.253
20.848	-0.019	2329.962	2121.086
21.863	0.001	2328.291	2119.592
22.877	0.079	2326.242	2118.572
23.892	0.070	2322.948	2115.196
24.907	0.070	2320.986	2113.155
25.921	0.037	2319.601	2111.177
26.936	-0.016	2317.374	2108.149
27.950	0.042	2315.346	2106.867
28.965	0.022	2312.483	2103.733
29.980	0.100	2311.086	2103.304
30.994	0.084	2309.511	2101.396
32.009	4.181	2322.320	2170.548
33.023	13.891	2349.573	2333.494
34.038	17.964	2357.078	2398.277
35.053	18.336	2355.287	2401.412
36.067	18.467	2351.950	2399.562
37.082	18.416	2350.853	2397.434
38.096	18.407	2349.089	2395.223
39.111	18.638	2346.691	2395.732
40.126	18.706	2344.715	2394.386
41.140	18.778	2343.238	2393.599
42.155	18.618	2341.048	2388.840
43.169	18.555	2339.719	2386.317
44.184	18.648	2335.931	2383.469
45.199	18.462	2334.047	2378.663
46.213	18.612	2332.664	2379.056
47.228	18.622	2331.672	2377.895
48.242	18.571	2330.302	2375.505
49.257	18.564	2328.071	2372.858
50.271	18.660	2324.990	2370.759
51.286	18.585	2323.000	2367.403
52.301	18.470	2321.891	2364.396
53.315	18.624	2323.201	2367.588
54.330	20.087	2325.494	2389.939
55.344	20.996	2323.866	2400.568
56.359	21.047	2320.971	2397.983
57.374	21.231	2319.151	2398.367
58.388	21.243	2317.840	2396.882
59.403	21.233	2313.710	2392.193
60.417	21.245	2310.576	2388.825
61.432	21.275	2310.025	2388.386
62.447	21.385	2309.601	2389.169
63.461	21.499	2307.830	2388.624
64.476	21.613	2305.308	2387.288
65.490	21.539	2303.883	2384.510
66.505	21.091	2300.946	2375.050
67.520	19.833	2298.187	2354.718
68.534	18.795	2291.326	2333.252
69.549	18.572	2287.370	2325.897
70.563	18.608	2284.492	2323.188
71.578	18.681	2282.836	2322.221
72.593	18.854	2281.132	2322.552
73.607	18.919	2280.405	2322.416
74.622	18.783	2278.532	2318.382
75.636	18.694	2274.974	2313.283
76.651	18.639	2274.515	2311.800
77.666	18.690	2272.449	2310.116
78.680	18.758	2269.778	2308.039
79.695	18.563	2267.816	2303.127
80.709	18.630	2267.300	2303.243
81.724	18.694	2265.315	2301.811
82.739	18.668	2261.725	2297.529
83.753	18.659	2260.291	2295.687
84.768	18.715	2258.445	2294.291
85.782	18.638	2257.638	2292.160
86.797	18.591	2255.323	2288.904
87.812	18.563	2253.207	2286.107
88.826	18.425	2251.099	2281.840
89.841	18.688	2248.755	2282.708
90.855	18.759	2247.076	2281.689
91.870	18.583	2245.235	2277.198
92.884	18.526	2243.198	2274.089
93.899	18.633	2242.519	2274.561
94.914	18.845	2243.072	2277.675
95.928	19.990	2246.264	2295.907
96.943	20.460	2244.231	2299.814
97.957	19.259	2237.924	2277.123
98.972	18.619	2234.168	2264.543
99.987	18.466	2230.447	2258.479
101.001	18.491	2228.555	2256.616
102.016	18.468	2226.739	2254.206
103.030	18.522	2225.127	2253.021
104.045	18.509	2222.638	2250.063
105.060	18.632	2221.850	2250.621
106.074	18.731	2219.091	2248.858
107.089	18.670	2216.717	2245.376
108.103	18.597	2216.097	2243.518
109.118	18.664	2214.778	2242.791
110.133	18.691	2213.231	2241.319
111.147	18.688	2212.066	2239.825
112.162	18.756	2210.077	2238.433
113.176	18.697	2206.839	2234.115
114.191	18.604	2205.444	2231.223
115.206	18.645	2203.123	2229.140
116.220	18.610	2201.218	2226.487
117.235	18.514	2198.881	2222.608
118.249	18.497	2197.744	2220.973
119.264	18.590	2196.693	2220.861
120.279	18.645	2194.722	2219.312
121.293	18.596	2193.368	2217.046
122.308	18.572	2191.704	2214.781
123.322	18.669	2190.332	2214.390
124.337	18.789	2189.840	2215.188
125.352	20.257	2193.691	2237.866
126.366	20.597	2191.109	2239.357
127.381	19.084	2185.217	2213.525
128.395	18.500	2180.464	2200.916
129.410	18.528	2179.777	2200.313
130.424	18.586	2177.548	2198.547
131.439	18.502	2176.191	2195.831
132.454	18.450	2174.302	2192.996
133.468	18.581	2171.323	2191.417
134.483	18.513	2169.864	2188.810
135.497	18.476	2168.401	2186.588
136.512	18.552	2165.947	2184.833
137.527	18.581	2165.367	2184.349
138.541	18.479	2164.061	2181.477
139.556	18.349	2163.345	2178.828
140.570	18.470	2160.925	2177.671
141.585	18.513	2158.817	2175.834
142.600	18.538	2158.137	2175.205
143.614	18.518	2155.913	2172.453
144.629	18.507	2153.527	2169.650
145.643	18.399	2153.786	2168.280
146.658	18.529	2150.684	2166.549
147.673	18.483	2148.615	2163.614
148.687	18.581	2148.200	2164.183
149.702	18.584	2147.449	2163.210
150.716	18.474	2146.185	2160.285
151.731	18.614	2145.383	2160.982
152.746	18.741	2143.679	2160.616
153.760	18.902	2145.471	2164.203
154.775	20.080	2147.786	2181.195
155.789	20.441	2144.242	2181.895
156.804	19.173	2137.484	2158.790
157.819	18.506	2133.527	2146.140
158.833	18.625	2130.682	2144.519
159.848	18.783	2129.495	2145.051
160.862	18.814	2128.465	2144.145
161.877	18.945	2126.905	2143.965
162.892	18.824	2125.955	2141.227
163.906	18.740	2124.638	2138.601
164.921	18.693	2122.494	2135.587
165.935	18.629	2121.030	2133.069
166.950	18.554	2119.458	2130.292
167.964	18.635	2116.396	2127.968
168.979	18.559	2114.282	2124.645
169.994	18.525	2113.345	2123.029
171.008	18.700	2111.859	2123.453
172.023	18.593	2109.834	2119.832
173.037	18.659	2108.426	2118.980
174.052	18.715	2106.704	2117.697
175.067	18.509	2105.248	2113.425
176.081	18.487	2104.422	2112.069
177.096	18.518	2103.156	2110.930
178.110	18.583	2099.585	2107.896
179.125	18.522	2099.851	2107.160
180.140	18.676	2098.217	2107.164
181.154	18.536	2097.399	2104.368
182.169	18.494	2095.405	2101.595
183.183	18.693	2096.010	2104.398
184.198	20.265	2099.248	2126.787
185.213	20.540	2098.030	2128.686
186.227	19.240	2092.203	2106.554
187.242	18.697	2088.909	2096.315
188.256	18.588	2087.737	2093.556
189.271	18.764	2085.988	2093.703
190.286	18.663	2084.804	2091.027
191.300	18.545	2081.100	2085.628
192.315	18.630	2079.168	2084.471
193.329	18.764	2078.544	2085.229
194.344	18.983	2077.590	2086.695
195.359	18.842	2075.432	2082.566
196.373	18.727	2074.384	2079.869
197.388	18.698	2072.214	2077.091
198.402	18.651	2069.935	2073.987
199.417	18.482	2068.102	2069.850
200.432	18.611	2066.081	2069.139
201.446	18.635	2065.278	2068.374
202.461	18.609	2064.324	2066.858
203.475	18.558	2062.027	2063.703
204.490	18.629	2059.474	2061.757
205.504	18.598	2057.033	2058.691
206.519	18.424	2055.495	2054.808
207.534	18.510	2053.707	2053.808
208.548	18.493	2053.346	2052.994
209.563	18.547	2051.375	2051.434
210.577	18.490	2050.924	2050.046
211.592	18.586	2049.949	2049.980
212.607	19.336	2051.021	2059.813
213.621	20.809	2054.928	2081.197
214.636	20.495	2050.636	2072.848
215.650	18.984	2044.826	2048.645
216.665	18.778	2041.891	2043.001
217.680	18.808	2040.689	2041.911
218.694	18.807	2038.879	2039.834
219.709	18.733	2036.637	2036.467
220.723	18.744	2035.863	2035.582
221.738	18.716	2035.096	2034.234
222.753	18.643	2032.594	2030.621
223.767	18.628	2031.286	2028.895
224.782	18.455	2029.110	2024.430
225.796	18.588	2028.066	2024.721
226.811	18.790	2026.522	2025.332
227.826	18.888	2024.598	2024.324
228.840	18.692	2024.443	2021.614
229.855	18.650	2022.488	2018.922
230.869	18.599	2021.392	2016.976
231.884	18.662	2018.948	2015.046
232.899	18.693	2017.808	2014.034
233.913	18.554	2016.373	2010.715
234.928	18.585	2015.543	2010.015
235.942	18.748	2014.037	2010.189
236.957	18.676	2012.966	2008.037
237.972	18.794	2010.053	2006.280
238.986	18.753	2009.780	2005.277
240.001	18.596	2008.622	2002.040
241.015	18.554	2006.133	1998.829
242.030	18.858	2007.095	2003.108
243.045	20.113	2009.194	2019.673
244.059	20.294	2006.164	2018.501
245.074	19.106	2001.185	1999.390
246.088	18.598	1998.011	1990.065
247.103	18.631	1996.867	1989.071
248.117	18.575	1995.606	1986.921
249.132	18.824	1993.496	1987.472
250.147	18.674	1991.245	1983.249
251.161	18.519	1989.988	1979.961
252.176	18.529	1989.329	1979.193
253.190	18.942	1986.909	1981.328
254.205	18.816	1985.065	1977.794
255.220	18.860	1983.746	1976.754
256.234	18.775	1983.006	1974.799
257.249	18.704	1981.117	1971.856
258.263	18.649	1981.094	1970.959
259.278	18.695	1979.880	1970.048
260.293	18.744	1977.234	1967.744
261.307	18.764	1975.134	1965.655
262.322	18.603	1974.096	1962.534
263.336	18.483	1972.085	1958.924
264.351	18.402	1970.181	1955.866
265.366	18.592	1968.859	1956.502
266.380	18.441	1969.146	1954.812
267.395	18.640	1966.605	1954.341
268.409	18.513	1965.164	1951.216
269.424	18.640	1963.934	1951.217
270.439	18.663	1962.974	1950.297
271.453	19.049	1963.166	1954.658
272.468	20.298	1964.598	1970.110
273.482	20.345	1962.096	1967.897
274.497	19.011	1957.261	1947.642
275.512	18.669	1952.947	1939.241
276.526	18.786	1950.524	1937.925
277.541	18.632	1949.505	1934.933
278.555	18.531	1948.483	1932.546
279.570	18.541	1945.975	1929.935
280.585	18.314	1944.884	1926.055
281.599	18.620	1943.564	1927.979
282.614	18.682	1943.011	1927.894
283.628	18.753	1941.832	1927.299
284.643	18.665	1941.729	1925.976
285.657	18.930	1939.528	1926.547
286.672	18.941	1937.948	1924.869
287.687	18.766	1936.858	1921.585
288.701	18.953	1934.639	1921.258
289.716	18.743	1933.862	1917.898
290.730	18.769	1932.116	1916.227
291.745	18.731	1930.611	1914.086
292.760	18.663	1929.632	1912.115
293.774	18.614	1928.682	1910.395
294.789	18.622	1927.188	1908.776
295.803	18.686	1924.435	1906.544
296.818	18.438	1923.863	1902.977
297.833	18.543	1923.437	1903.498
298.847	18.533	1921.277	1901.018
299.862	18.518	1920.195	1899.559
300.876	18.851	1919.844	1902.687
301.891	20.349	1921.624	1920.898
302.906	20.673	1920.621	1923.265
303.920	19.388	1915.510	1903.677
304.935	18.687	1912.803	1892.989
305.949	18.677	1909.819	1889.698
306.964	18.670	1908.300	1887.884
307.979	18.593	1907.543	1886.060
308.993	18.611	1905.990	1884.499
310.008	18.693	1904.090	1883.296
311.022	18.891	1902.984	1884.162
312.037	19.009	1901.509	1883.776
313.052	18.915	1899.916	1880.941
314.066	18.806	1898.437	1878.054
315.081	18.776	1897.558	1876.629
316.095	18.712	1896.909	1875.057
317.110	18.796	1894.016	1872.893
318.125	18.652	1893.051	1870.142
319.139	18.714	1892.676	1870.220
320.154	18.793	1891.024	1869.236
321.168	18.964	1888.723	1868.601
322.183	18.834	1887.541	1865.792
323.197	18.688	1886.178	1862.629
324.212	18.568	1884.161	1859.102
325.227	18.452	1883.382	1856.845
326.241	18.563	1881.017	1855.506
327.256	18.739	1880.035	1856.224
328.270	18.516	1879.318	1852.874
329.285	18.606	1878.200	1852.529
330.300	19.156	1880.543	1860.593
331.314	20.594	1882.234	1877.659
332.329	20.406	1879.033	1872.201
333.343	19.017	1873.633	1851.580
334.358	18.701	1870.888	1845.239
335.373	18.700	1868.510	1842.658
336.387	18.569	1867.159	1839.690
337.402	18.630	1866.852	1839.828
338.416	18.601	1864.486	1836.961
339.431	18.767	1862.833	1836.902
340.446	18.891	1861.589	1836.789
341.460	18.953	1859.889	1835.552
342.475	18.883	1859.047	1833.753
343.489	19.010	1856.968	1832.846
344.504	18.885	1856.108	1830.433
345.519	18.962	1854.278	1829.239
346.533	18.876	1853.633	1827.464
347.548	19.049	1851.838	1827.316
348.562	19.025	1850.388	1825.410
349.577	18.864	1850.029	1823.126
350.592	18.805	1848.922	1821.183
351.606	18.862	1846.615	1819.305
352.621	18.790	1844.786	1816.519
353.635	18.512	1843.498	1812.084
354.650	18.529	1841.886	1810.458
355.665	18.520	1840.125	1808.414
356.679	18.561	1838.906	1807.438
357.694	18.653	1837.872	1807.175
358.708	18.576	1836.832	1805.129
359.723	19.286	1838.361	1813.922
360.738	20.708	1840.155	1830.525
361.752	20.232	1836.790	1821.937
362.767	18.862	1832.488	1803.009
363.781	18.468	1830.166	1796.362
364.796	18.509	1828.392	1794.834
365.810	18.559	1827.277	1794.046
366.825	18.524	1825.720	1791.941
367.840	18.633	1824.888	1792.053
368.854	18.726	1823.568	1791.520
369.869	18.486	1821.537	1786.792
370.883	18.394	1820.323	1784.420
371.898	18.525	1819.200	1784.477
372.913	18.603	1818.048	1783.952
373.927	18.613	1816.926	1782.743
374.942	18.684	1816.067	1782.428
375.956	18.673	1814.367	1780.432
376.971	18.686	1811.418	1777.454
377.986	18.604	1809.920	1774.927
379.000	18.557	1809.335	1773.649
380.015	18.641	1808.899	1773.880
381.029	18.936	1806.417	1774.296
382.044	18.782	1805.195	1771.292
383.059	18.756	1803.526	1769.172
384.073	18.602	1802.490	1766.347
385.088	18.515	1801.123	1763.890
386.102	18.457	1799.900	1761.888
387.117	18.530	1797.049	1759.641
388.132	18.346	1797.394	1757.862
389.146	18.988	1799.425	1766.272
390.161	20.479	1800.886	1782.880
391.175	20.518	1794.878	1777.122
392.190	19.003	1789.621	1756.173
393.205	18.387	1787.782	1747.844
394.219	18.607	1786.151	1748.286
395.234	18.631	1785.100	1747.298
396.248	18.712	1783.311	1746.163
397.263	18.675	1780.591	1742.921
398.278	18.525	1779.509	1740.121
399.292	18.606	1778.345	1739.594
400.307	18.855	1778.742	1742.312
401.321	18.867	1776.580	1740.106
402.336	18.806	1775.194	1737.926
403.350	18.762	1773.848	1735.956
404.365	18.879	1773.647	1736.737
405.380	19.130	1772.374	1737.828
406.394	18.953	1771.183	1734.660
407.409	19.052	1769.197	1733.507
408.423	19.023	1768.064	1731.894
409.438	18.904	1766.293	1728.751
410.453	18.913	1765.627	1727.980
411.467	18.865	1764.906	1726.585
412.482	18.817	1762.924	1723.953
413.496	18.822	1761.276	1722.188
414.511	18.718	1759.508	1719.213
415.526	18.658	1756.305	1715.266
416.540	18.592	1755.542	1713.656
417.555	18.583	1754.952	1712.784
418.569	18.429	1755.113	1711.195
419.584	18.565	1755.027	1712.271
420.599	18.578	1754.948	1712.114
421.613	18.547	1753.227	1709.921
422.628	18.605	1752.299	1709.391
423.642	18.667	1750.437	1707.990
424.657	18.585	1748.739	1705.311
425.672	18.610	1746.827	1703.490
426.686	18.642	1745.969	1702.769
427.701	18.636	1743.354	1699.957
428.715	18.542	1741.830	1697.336
429.730	18.688	1740.996	1697.763
430.745	18.629	1739.764	1695.775
431.759	18.808	1739.066	1696.671
432.774	18.689	1738.918	1695.142
433.788	18.518	1738.279	1692.624
434.803	18.513	1736.887	1691.014
435.818	18.542	1736.249	1690.472
436.832	18.448	1734.485	1687.622
437.847	17.566	1727.795	1672.215
438.861	9.967	1708.159	1578.618
439.876	1.835	1692.960	1484.963
440.890	0.237	1689.365	1466.005
441.905	0.215	1688.666	1465.010
442.920	0.257	1687.273	1464.041
443.934	0.171	1685.912	1461.839
444.949	0.114	1684.434	1459.830
445.963	0.173	1682.983	1458.970
446.978	0.185	1682.830	1458.780
447.993	0.112	1681.453	1456.706
449.007	0.011	1679.791	1454.105
450.022	0.177	1677.314	1453.406
451.036	0.240	1675.605	1452.357
452.051	1.124	1680.866	1465.335
453.066	9.035	1698.724	1558.171
454.080	16.786	1709.614	1643.845
455.095	18.093	1711.857	1658.562
456.109	18.162	1711.353	1658.545
457.124	18.169	1710.231	1657.324
458.139	18.151	1709.563	1656.307
459.153	18.178	1708.033	1654.887
460.168	18.186	1706.303	1653.087
461.182	18.142	1704.638	1650.855
462.197	18.367	1702.445	1650.716
463.212	18.304	1700.924	1648.431
464.226	18.193	1700.846	1647.080
465.241	18.343	1698.092	1645.673
466.255	18.235	1697.716	1644.065
467.270	18.291	1696.744	1643.464
468.285	18.133	1695.282	1640.329
469.299	18.174	1693.951	1639.236
470.314	18.351	1691.733	1638.596
471.328	18.179	1691.559	1636.578
472.343	18.217	1690.131	1635.368
473.358	18.233	1688.599	1633.850
474.372	18.346	1687.460	1633.629
475.387	18.228	1686.416	1631.296
476.401	18.214	1685.466	1630.044
477.416	18.278	1683.781	1628.835
478.430	18.305	1682.683	1627.839
479.445	18.354	1681.130	1626.604
480.460	18.218	1680.960	1624.952
481.474	18.267	1679.466	1623.774
482.489	18.338	1677.738	1622.587
483.503	18.268	1675.728	1619.779
484.518	18.174	1675.023	1618.014
485.533	18.247	1673.936	1617.466
486.547	18.238	1672.185	1615.491
487.562	18.349	1670.821	1615.037
488.576	18.234	1669.806	1612.772
489.591	18.164	1668.405	1610.563
490.606	18.393	1666.527	1610.721
491.620	18.290	1665.592	1608.655
492.635	18.316	1664.222	1607.385
493.649	18.336	1662.602	1605.813
494.664	18.216	1662.154	1604.058
495.679	18.158	1660.012	1601.251
496.693	18.293	1659.007	1601.357
497.708	18.263	1657.899	1599.820
498.722	18.265	1656.643	1598.437
499.737	18.322	1655.436	1597.611
500.752	18.299	1653.383	1595.226
501.766	18.127	1652.730	1592.789
502.781	18.265	1650.515	1591.759
503.795	18.220	1649.865	1590.515
504.810	18.262	1648.558	1589.461
505.825	18.291	1647.703	1588.714
506.839	18.155	1646.851	1586.433
507.854	18.231	1645.474	1585.626
508.868	18.257	1642.969	1583.268
509.883	18.276	1642.152	1582.468
510.898	18.242	1640.804	1580.659
511.912	18.351	1639.568	1580.297
512.927	18.177	1637.795	1576.782
513.941	18.164	1636.940	1575.652
514.956	18.121	1636.385	1574.527
515.971	18.216	1634.763	1573.656
516.985	18.145	1633.815	1571.902
518.000	18.168	1633.140	1571.274
519.014	18.316	1630.883	1570.284
520.029	18.268	1629.857	1568.664
521.043	18.162	1628.161	1565.866
522.058	18.158	1627.490	1564.995
523.073	18.312	1626.678	1565.450
524.087	18.343	1625.329	1564.243
525.102	18.296	1623.991	1562.339
526.116	18.489	1622.058	1562.063
527.131	18.307	1621.568	1559.734
528.146	18.202	1620.716	1557.772
529.160	18.464	1619.438	1558.746
530.175	18.324	1618.420	1556.300
531.189	18.220	1617.213	1554.009
532.204	18.279	1616.017	1553.211
533.219	18.254	1614.984	1551.802
534.233	18.256	1614.449	1551.122
535.248	18.391	1613.042	1550.809
536.262	18.295	1612.730	1549.452
537.277	18.326	1611.314	1548.194
538.292	18.183	1609.465	1544.925
539.306	18.309	1607.521	1544.021
540.321	18.343	1605.636	1542.334
541.335	18.379	1604.553	1541.439
542.350	18.336	1602.496	1538.884
543.365	18.324	1601.726	1537.850
544.379	18.267	1601.016	1536.475
545.394	18.351	1599.107	1535.211
546.408	18.377	1597.602	1533.821
547.423	18.380	1597.540	1533.607
548.438	18.223	1596.402	1530.916
549.452	18.254	1595.186	1529.845
550.467	18.353	1593.565	1528.992
551.481	18.189	1593.146	1526.936
552.496	18.282	1591.756	1526.258
553.511	18.396	1590.431	1525.822
554.525	18.071	1590.306	1522.609
555.540	18.282	1589.165	1523.228
556.554	18.225	1587.626	1521.060
557.569	18.269	1585.724	1519.445
558.583	18.265	1584.955	1518.496
559.598	18.309	1583.386	1517.200
560.613	18.320	1582.255	1516.030
561.627	18.306	1581.359	1514.865
562.642	18.252	1579.445	1512.375
563.656	18.256	1578.505	1511.324
564.671	18.242	1577.621	1510.173
565.686	18.343	1576.562	1509.878
566.700	18.077	1575.058	1505.904
567.715	18.188	1573.066	1504.798
568.729	18.189	1571.906	1503.517
569.744	18.191	1570.396	1501.910
570.759	18.236	1569.438	1501.211
571.773	18.271	1567.944	1499.911
572.788	18.227	1567.762	1499.165
573.802	18.356	1565.462	1497.927
574.817	18.218	1563.942	1495.075
575.832	18.266	1562.593	1494.034
576.846	18.314	1561.577	1493.302
577.861	18.218	1560.960	1491.692
578.875	18.327	1559.975	1491.524
579.890	18.395	1559.007	1491.014
580.905	18.380	1557.237	1489.013
581.919	18.258	1556.936	1487.487
582.934	18.280	1556.725	1487.297
583.948	18.324	1554.391	1485.276
584.963	18.254	1553.158	1483.307
585.978	18.263	1552.749	1482.817
586.992	18.393	1552.134	1483.180
588.007	18.300	1551.264	1481.366
589.021	18.286	1549.868	1479.737
590.036	18.264	1549.227	1478.752
591.051	18.433	1547.092	1478.007
592.065	18.486	1545.048	1476.330
593.080	18.451	1543.922	1474.781
594.094	18.399	1542.291	1472.590
595.109	18.223	1541.039	1469.706
596.123	18.148	1539.400	1467.319
597.138	18.293	1538.440	1467.480
598.153	18.446	1537.179	1467.415
599.167	18.346	1535.830	1465.093
600.182	18.343	1535.613	1464.681
601.196	18.323	1534.717	1463.481
602.211	18.414	1532.680	1462.148
603.226	18.433	1531.762	1461.260
604.240	18.331	1530.717	1459.210
605.255	18.173	1529.654	1456.668
606.269	18.343	1528.480	1456.828
607.284	18.296	1527.161	1454.999
608.299	18.373	1525.515	1453.917
609.313	18.338	1524.881	1452.838
610.328	18.296	1523.440	1450.928
611.342	18.401	1521.965	1450.245
612.357	18.281	1521.524	1448.630
613.372	18.344	1520.021	1447.566
614.386	18.308	1518.689	1445.812
615.401	18.354	1518.235	1445.599
616.415	18.338	1517.927	1444.997
617.430	18.392	1516.492	1443.913
618.445	18.343	1515.254	1442.148
619.459	18.293	1513.876	1440.246
620.474	18.289	1513.149	1439.347
621.488	18.418	1511.979	1439.151
622.503	18.325	1510.626	1436.905
623.518	18.451	1509.212	1436.447
624.532	18.167	1508.542	1433.245
625.547	18.266	1506.887	1432.338
626.561	18.343	1506.158	1432.123
627.576	18.228	1505.011	1429.889
628.591	18.312	1503.895	1429.366
629.605	18.315	1502.931	1428.300
630.620	18.283	1501.601	1426.597
631.634	18.292	1500.733	1425.681
632.649	18.360	1499.657	1425.060
633.663	18.247	1498.445	1422.787
634.678	18.442	1497.277	1423.138
635.693	18.351	1495.501	1420.520
636.707	18.232	1494.468	1418.378
637.722	18.299	1493.009	1417.382
638.736	18.241	1492.398	1416.152
639.751	18.427	1491.501	1416.677
640.766	18.354	1489.722	1414.214
641.780	18.316	1488.286	1412.362
642.795	18.364	1487.770	1412.105
643.809	18.293	1487.456	1411.042
644.824	18.362	1486.578	1410.614
645.839	18.627	1484.372	1410.544
646.853	18.565	1483.312	1408.857
647.868	18.300	1482.364	1405.597
648.882	18.279	1481.442	1404.381
649.897	18.362	1479.908	1403.442
650.912	18.355	1478.487	1401.875
651.926	18.275	1477.295	1399.916
652.941	18.337	1476.619	1399.620
653.955	18.261	1475.068	1397.357
654.970	18.272	1473.445	1395.740
655.985	18.346	1472.219	1395.021
656.999	18.459	1471.303	1394.913
658.014	18.387	1469.706	1392.639
659.028	18.401	1469.059	1391.975
660.043	18.445	1468.494	1391.635
661.058	18.483	1466.772	1390.147
662.072	18.437	1466.113	1388.978
663.087	18.411	1464.284	1386.865
664.101	18.330	1463.791	1385.577
665.116	18.310	1462.716	1384.231
666.131	18.441	1461.646	1384.115
667.145	18.375	1460.303	1382.139
668.160	18.470	1458.878	1381.394
669.174	18.554	1457.801	1380.890
670.189	18.333	1457.544	1378.697
671.204	18.409	1456.195	1377.872
672.218	18.358	1455.329	1376.474
673.233	18.543	1453.042	1375.638
674.247	18.278	1453.088	1373.379
675.262	18.366	1452.272	1373.153
676.276	18.414	1450.559	1371.754
677.291	18.436	1450.248	1371.471
678.306	18.500	1449.078	1370.720
679.320	18.441	1447.122	1368.229
680.335	18.454	1446.520	1367.599
681.349	18.456	1445.916	1366.884
682.364	18.345	1445.241	1365.189
683.379	18.345	1443.684	1363.558
684.393	18.354	1441.807	1361.696
685.408	18.365	1440.870	1360.728
686.422	18.301	1440.162	1359.386
687.437	18.278	1439.045	1357.991
688.452	18.352	1438.601	1357.997
689.466	18.445	1437.199	1357.249
690.481	18.178	1435.858	1353.699
691.495	18.185	1435.910	1353.643
692.510	18.369	1434.131	1353.267
693.525	18.300	1433.383	1351.848
694.539	18.307	1431.592	1350.056
695.554	18.410	1431.049	1350.195
696.568	18.244	1430.138	1347.860
697.583	18.261	1429.732	1347.449
698.598	18.355	1428.257	1346.645
699.612	18.455	1426.106	1345.244
700.627	18.458	1424.953	1344.017
701.641	18.476	1424.271	1343.356
702.656	18.366	1423.571	1341.670
703.671	18.457	1423.166	1341.839
704.685	18.418	1422.286	1340.548
705.700	18.549	1420.560	1339.782
706.714	18.567	1419.071	1338.361
707.729	18.548	1417.925	1336.977
708.744	18.567	1416.953	1336.049
709.758	18.441	1415.590	1333.617
710.773	18.310	1415.182	1332.046
711.787	18.439	1413.005	1330.847
712.802	18.440	1412.020	1329.766
713.816	18.538	1410.633	1329.060
714.831	18.446	1410.330	1327.899
715.846	18.527	1408.573	1326.721
716.860	18.534	1407.401	1325.508
717.875	18.462	1407.344	1324.741
718.889	18.447	1405.816	1323.022
719.904	18.546	1404.943	1322.814
720.919	18.566	1403.933	1321.859
721.933	18.582	1403.140	1321.079
722.948	18.484	1401.779	1318.880
723.962	18.587	1400.195	1318.031
724.977	18.534	1399.428	1316.742
725.992	18.390	1399.452	1315.493
727.006	18.528	1397.598	1314.658
728.021	18.486	1396.061	1312.729
729.035	18.641	1394.020	1311.843
730.050	18.587	1393.340	1310.633
731.065	18.549	1392.684	1309.570
732.079	18.482	1391.360	1307.653
733.094	18.597	1390.288	1307.366
734.108	18.360	1388.920	1304.108
735.123	18.339	1388.163	1303.085
736.138	18.396	1387.742	1302.968
737.152	18.217	1386.726	1300.490
738.167	18.512	1385.253	1301.205
739.181	18.558	1384.410	1300.610
740.196	18.614	1383.422	1299.951
741.211	18.381	1382.942	1297.573
742.225	18.379	1382.376	1296.871
743.240	18.482	1380.208	1295.461
744.254	18.599	1378.334	1294.435
745.269	18.486	1377.781	1292.908
746.284	18.339	1377.804	1291.661
747.298	18.266	1376.637	1289.852
748.313	18.420	1374.813	1289.159
749.327	18.256	1374.163	1287.154
750.342	18.390	1373.227	1287.134
751.356	18.315	1372.420	1285.662
752.371	18.253	1370.778	1283.497
753.386	18.467	1369.810	1284.051
754.400	18.495	1369.163	1283.502
755.415	18.575	1368.054	1282.913
756.429	18.469	1366.953	1280.928
757.444	18.533	1366.086	1280.440
758.459	18.544	1365.208	1279.545
759.473	18.621	1364.336	1279.155
760.488	18.671	1362.566	1277.714
761.502	18.598	1361.758	1276.260
762.517	18.585	1360.758	1275.077
763.532	18.455	1360.141	1273.372
764.546	18.420	1358.538	1271.459
765.561	18.376	1358.102	1270.566
766.575	18.487	1357.008	1270.217
767.590	18.555	1355.475	1269.142
768.605	18.613	1354.071	1268.105
769.619	18.632	1352.802	1266.902
770.634	18.513	1352.061	1265.177
771.648	18.614	1351.123	1264.891
772.663	18.660	1350.182	1264.200
773.678	18.578	1349.865	1263.152
774.692	18.600	1348.471	1261.856
775.707	18.548	1347.703	1260.605
776.721	18.734	1346.631	1260.822
777.736	18.620	1345.975	1259.215
778.751	18.482	1344.761	1256.912
779.765	18.525	1344.239	1256.591
780.780	18.598	1343.612	1256.391
781.794	18.563	1342.293	1254.747
782.809	18.493	1341.291	1253.152
783.824	18.391	1339.934	1250.985
784.838	18.355	1338.403	1249.139
785.853	18.302	1337.785	1248.021
786.867	18.239	1337.237	1246.902
787.882	18.402	1336.692	1247.437
788.897	18.260	1336.467	1246.037
789.911	18.265	1335.546	1245.067
790.926	18.251	1333.818	1243.208
791.940	18.521	1331.901	1243.238
792.955	18.339	1330.703	1240.643
793.969	18.382	1329.910	1240.074
794.984	18.195	1329.898	1238.551
795.999	18.503	1328.704	1239.531
797.013	18.436	1327.211	1237.502
798.028	18.498	1325.276	1235.997
799.042	18.453	1324.487	1234.792
800.057	18.440	1324.125	1234.209
801.072	18.595	1322.020	1233.217
802.086	18.448	1321.101	1231.156
803.101	18.493	1320.000	1230.305
804.115	18.467	1319.140	1229.166
805.130	18.484	1317.860	1227.949
806.145	18.684	1316.681	1228.147
807.159	18.705	1315.004	1226.585
808.174	18.674	1313.570	1224.876
809.188	18.732	1312.412	1224.070
810.203	18.834	1311.016	1223.346
811.218	18.671	1309.799	1220.903
812.232	18.569	1308.337	1218.665
813.247	18.520	1307.869	1217.733
814.261	18.610	1307.378	1217.772
815.276	18.587	1306.662	1216.794
816.291	18.596	1305.806	1215.913
817.305	18.714	1304.892	1215.757
818.320	18.643	1303.698	1213.995
819.334	18.633	1301.832	1212.043
820.349	18.638	1300.366	1210.571
821.364	18.657	1299.454	1209.707
822.378	18.460	1298.252	1207.053
823.393	18.750	1295.875	1206.748
824.407	18.619	1294.766	1204.644
825.422	18.469	1294.702	1203.379
826.437	18.499	1293.704	1202.522
827.451	18.370	1291.900	1199.793
828.466	18.370	1290.547	1198.388
829.480	18.509	1288.196	1197.042
830.495	18.319	1287.181	1194.622
831.509	18.422	1286.665	1194.718
832.524	18.509	1285.850	1194.428
833.539	18.560	1285.081	1193.930
834.553	18.551	1283.585	1192.335
835.568	18.646	1282.751	1192.078
836.582	18.682	1281.601	1191.121
837.597	18.616	1280.191	1189.208
838.612	18.785	1278.842	1188.991
839.626	18.878	1277.687	1188.419
840.641	18.747	1276.774	1186.521
841.655	18.722	1276.317	1185.780
842.670	18.554	1274.816	1183.076
843.685	18.677	1273.660	1182.714
844.699	18.715	1272.678	1181.927
845.714	18.747	1271.198	1180.630
846.728	18.688	1270.643	1179.565
847.743	18.807	1270.063	1179.709
848.758	18.618	1268.861	1177.146
849.772	18.734	1267.116	1176.181
850.787	18.606	1265.464	1173.629
851.801	18.716	1264.525	1173.372
852.816	18.478	1263.516	1170.662
853.831	18.480	1262.076	1169.201
854.845	18.470	1260.529	1167.561
855.860	18.393	1259.026	1165.505
856.874	18.362	1258.330	1164.509
857.889	18.589	1256.694	1164.402
858.904	18.355	1255.381	1161.450
859.918	18.410	1253.556	1159.999
860.933	18.333	1252.338	1158.207
861.947	18.568	1252.196	1159.539
862.962	18.384	1251.418	1157.426
863.977	18.393	1250.000	1156.039
864.991	18.394	1249.288	1155.246
866.006	18.418	1248.662	1154.696
867.020	18.514	1247.278	1153.929
868.035	18.626	1246.115	1153.471
869.049	18.725	1245.576	1153.498
870.064	18.690	1244.198	1151.848
871.079	18.535	1243.648	1150.155
872.093	18.688	1243.050	1150.498
873.108	18.838	1241.608	1150.033
874.122	18.680	1240.993	1148.267
875.137	18.487	1241.275	1147.088
876.152	18.494	1239.981	1145.802
877.166	18.659	1237.821	1144.781
878.181	18.620	1236.599	1143.252
879.195	18.656	1236.493	1143.255
880.210	18.623	1235.357	1141.851
881.225	18.758	1233.764	1141.141
882.239	18.850	1232.603	1140.546
883.254	18.728	1232.216	1139.234
884.268	18.748	1231.242	1138.332
885.283	18.770	1229.971	1137.165
886.298	18.651	1228.667	1135.038
887.312	18.799	1227.553	1134.856
888.327	18.870	1226.835	1134.527
889.341	18.758	1225.184	1132.116
890.356	18.743	1224.538	1131.290
891.371	18.620	1224.324	1130.138
892.385	18.636	1223.871	1129.695
893.400	18.642	1222.747	1128.558
894.414	18.631	1221.005	1126.744
895.429	18.700	1219.628	1125.792
896.444	18.660	1217.717	1123.631
897.458	18.452	1216.946	1121.417
898.473	18.558	1216.005	1121.115
899.487	18.668	1215.383	1121.129
900.502	18.757	1214.268	1120.547
901.517	18.872	1213.427	1120.395
902.531	18.742	1212.671	1118.711
903.546	18.680	1212.527	1118.035
904.560	18.865	1211.056	1117.756
905.575	18.768	1210.457	1116.432
906.589	18.914	1209.712	1116.570
907.604	18.729	1208.840	1114.423
