DTS Sentinel unit serial number:	SN409020Multiplexer serial number:	ORYXHardware model number:	OX4-SRSoftware version number:	ORYX F/W v3.00 Oryx Data Collector v3.7.2.0data status	okinstallation	HaddamTimeLapsedifferential loss correction	single-endedforward channel	channel 3reverse channel	N/Adate	2011/06/22time	07:11:17forward acquisition time	30.00reverse acquisition time	0.00gamma	498.7831k internal	0.1753k external	0.1753temperature offset calibration	1.0074default loss term (dB/km)	0.3790temperature slope calibration	1.3530multiplexer offset coefficient	1.0000multiplexer slope coefficient	1.0000fibre end	0.00T internal ref (°C)	22.91T ext. ref 1 (°C)	19.64T ext. ref 2 (°C)	0.13length (m)	temperature (°C)	Stokes	anti-Stokes-747.200	24.053	0.354	-0.388
-746.185	-40.970	0.469	0.321
-745.171	-96.553	0.314	-0.109
-744.156	453.881	0.215	0.636
-743.142	-18.052	-0.395	-0.328
-742.127	-119.291	-0.148	0.034
-741.112	-15.289	0.373	0.316
-740.098	40.453	-0.280	0.335
-739.083	-37.826	-0.275	-0.194
-738.069	51.965	-0.230	0.291
-737.054	-122.674	-0.282	0.060
-736.039	800.000	-0.047	0.221
-735.025	-200.000	-0.588	0.003
-734.010	0.665	0.247	-0.234
-732.996	154.071	0.171	0.313
-731.981	-80.653	-0.405	-0.178
-730.966	-59.979	-0.149	-0.084
-729.952	-200.000	0.053	0.859
-728.937	109.913	0.148	0.235
-727.923	800.000	0.123	-0.708
-726.908	65.537	0.163	0.219
-725.894	-126.410	0.079	0.016
-724.879	260.431	0.077	0.177
-723.864	-115.665	0.451	0.111
-722.850	-15.406	0.108	0.092
-721.835	-172.511	-0.217	-0.009
-720.821	25.829	0.237	-0.261
-719.806	-50.467	-0.236	0.147
-718.791	-26.031	-0.400	-0.311
-717.777	541.355	-0.061	0.195
-716.762	-50.080	0.145	-0.091
-715.748	471.125	-0.090	-0.269
-714.733	32.296	-0.157	0.180
-713.718	800.000	-0.041	-0.204
-712.704	9.024	-0.233	0.233
-711.689	89.280	-0.103	-0.152
-710.675	-107.220	-0.328	-0.095
-709.660	800.000	-0.069	0.352
-708.645	-200.000	0.039	0.295
-707.631	-200.000	0.001	-0.010
-706.616	338.434	-0.027	-0.070
-705.602	73.044	0.059	-0.082
-704.587	39.107	0.147	0.174
-703.572	-93.926	0.434	-0.157
-702.558	-100.672	-0.002	0.001
-701.543	6.373	-0.362	0.356
-700.529	-200.000	-0.044	0.334
-699.514	-200.000	-0.014	0.174
-698.499	-103.717	-0.600	-0.185
-697.485	-200.000	-0.021	-0.193
-696.470	242.181	0.056	-0.124
-695.456	-10.462	0.206	-0.180
-694.441	32.407	-0.217	-0.249
-693.426	-85.457	-0.208	-0.086
-692.412	-75.552	-0.180	0.084
-691.397	-142.957	-0.586	-0.074
-690.383	-34.177	0.205	0.149
-689.368	31.970	0.100	0.114
-688.354	150.537	-0.323	-0.583
-687.339	-88.643	0.350	-0.137
-686.324	800.000	0.033	0.139
-685.310	128.121	0.057	-0.097
-684.295	-101.076	-0.126	0.041
-683.281	-137.677	-0.268	0.040
-682.266	224.338	-0.072	0.155
-681.251	-110.908	-0.739	-0.200
-680.237	-29.799	0.251	0.189
-679.222	115.480	-0.027	-0.044
-678.208	308.216	-0.088	0.218
-677.193	-64.917	-0.449	0.240
-676.178	-95.474	-0.204	0.072
-675.164	-123.650	0.503	0.105
-674.149	191.886	0.117	-0.234
-673.135	51.079	0.105	-0.132
-672.120	315.357	0.106	0.265
-671.105	-40.149	-0.027	-0.019
-670.091	-125.185	0.321	0.064
-669.076	684.491	0.068	0.235
-668.062	218.140	-0.154	0.327
-667.047	800.000	-0.035	-0.138
-666.032	-160.747	-0.228	0.016
-665.018	164.697	0.063	-0.118
-664.003	-146.904	-0.174	-0.020
-662.989	-11.890	-0.380	0.329
-661.974	5.025	-0.272	-0.264
-660.959	47.120	0.317	-0.390
-659.945	493.630	0.113	-0.345
-658.930	-161.327	0.177	0.012
-657.916	163.411	0.239	0.445
-656.901	-50.908	0.275	-0.170
-655.886	34.141	0.074	0.085
-654.872	-52.918	-0.415	-0.252
-653.857	-153.110	0.257	-0.024
-652.843	-48.437	0.346	0.219
-651.828	-105.637	0.342	0.102
-650.814	18.593	0.068	0.072
-649.799	-31.517	-0.375	0.278
-648.784	-120.891	0.225	0.050
-647.770	239.753	0.075	0.165
-646.755	-152.835	0.187	-0.017
-645.741	-85.936	0.659	-0.268
-644.726	-200.000	-0.079	0.566
-643.711	-200.000	0.058	0.621
-642.697	-144.869	-0.289	-0.035
-641.682	-200.000	0.054	-0.464
-640.668	-76.750	-0.319	-0.147
-639.653	-75.061	-0.368	-0.173
-638.638	-179.409	-0.648	0.018
-637.624	27.639	-0.085	0.094
-636.609	12.080	0.117	-0.119
-635.595	-8.375	0.058	0.051
-634.580	-200.000	-0.049	0.330
-633.565	69.237	0.159	-0.216
-632.551	-56.869	0.202	-0.117
-631.536	-82.566	-0.123	-0.052
-630.522	-169.235	-0.333	-0.016
-629.507	66.793	-0.140	-0.189
-628.492	189.318	-0.119	0.236
-627.478	-184.651	-0.601	-0.013
-626.463	-116.941	0.467	-0.112
-625.449	-34.331	-0.095	-0.069
-624.434	-112.346	-0.494	0.130
-623.419	-100.940	-0.156	0.050
-622.405	-200.000	-0.010	-0.201
-621.390	800.000	-0.125	0.462
-620.376	-119.065	-0.497	-0.114
-619.361	800.000	-0.081	-0.334
-618.346	-68.330	-0.244	-0.125
-617.332	800.000	-0.075	0.374
-616.317	78.609	-0.114	-0.161
-615.303	-141.539	-0.167	0.022
-614.288	415.505	0.084	0.239
-613.273	-64.076	-0.253	0.136
-612.259	348.708	-0.192	-0.504
-611.244	800.000	0.084	0.396
-610.230	-200.000	-0.012	0.519
-609.215	-200.000	-0.097	-0.574
-608.201	76.231	0.226	-0.316
-607.186	-62.448	-0.465	-0.254
-606.171	-87.825	-0.291	-0.115
-605.157	-46.353	-0.314	0.203
-604.142	800.000	-0.043	0.160
-603.128	129.068	0.079	0.133
-602.113	-75.686	-0.152	0.071
-601.098	126.397	0.256	-0.429
-600.084	161.842	-0.137	-0.253
-599.069	-86.962	0.749	0.300
-598.055	757.834	0.082	-0.294
-597.040	-119.106	-0.083	-0.019
-596.025	800.000	-0.066	0.368
-595.011	664.605	-0.039	-0.135
-593.996	26.621	0.292	-0.323
-592.982	-200.000	-0.046	-0.278
-591.967	800.000	-0.074	-0.410
-590.952	-69.784	-0.221	-0.111
-589.938	119.059	0.124	0.202
-588.923	-200.000	0.004	0.280
-587.909	-59.465	-0.565	-0.319
-586.894	-200.000	0.004	-0.141
-585.879	-190.431	0.556	-0.008
-584.865	-119.599	-0.269	0.061
-583.850	-121.810	-0.259	0.056
-582.836	-151.312	0.176	0.017
-581.821	-30.898	-0.293	-0.218
-580.806	-58.552	-0.110	-0.062
-579.792	-76.244	0.394	0.183
-578.777	-120.253	0.212	-0.047
-577.763	113.289	-0.227	0.363
-576.748	-200.000	0.027	0.718
-575.733	274.897	-0.079	0.185
-574.719	-12.821	-0.343	-0.294
-573.704	73.480	0.115	0.159
-572.690	-6.704	0.366	0.328
-571.675	518.967	-0.050	-0.155
-570.661	800.000	-0.115	-0.438
-569.646	60.216	-0.184	0.240
-568.631	243.062	0.091	0.203
-567.617	489.978	-0.130	-0.395
-566.602	396.103	-0.115	0.317
-565.588	-200.000	-0.028	-0.193
-564.573	-66.473	-0.177	0.092
-563.558	-200.000	-0.292	0.001
-562.544	95.626	0.285	0.428
-561.529	-12.760	-0.189	0.162
-560.515	-82.228	-0.199	0.085
-559.500	-194.250	0.353	-0.004
-558.485	-53.319	0.265	-0.159
-557.471	664.010	-0.046	0.156
-556.456	172.082	-0.191	-0.362
-555.442	-200.000	0.003	-0.235
-554.427	-89.712	-0.161	0.062
-553.412	-130.139	-0.251	0.045
-552.398	95.402	-0.088	-0.132
-551.383	3.433	0.094	0.090
-550.369	208.621	-0.166	-0.344
-549.354	-98.123	0.075	0.025
-548.339	-43.056	-0.328	0.218
-547.325	-200.000	0.011	-0.126
-546.310	-69.987	0.137	0.068
-545.296	-125.604	0.535	0.106
-544.281	-200.000	-0.005	-0.052
-543.266	-3.642	0.415	0.379
-542.252	-110.448	0.297	0.081
-541.237	200.415	0.322	-0.652
-540.223	-56.618	0.235	-0.136
-539.208	-55.520	-0.203	-0.119
-538.193	-17.195	-0.667	0.553
-537.179	-83.631	-0.135	-0.057
-536.164	70.169	-0.155	0.212
-535.150	-200.000	0.026	0.584
-534.135	-200.000	0.027	0.547
-533.121	800.000	-0.036	-0.148
-532.106	-101.456	0.410	0.131
-531.091	800.000	-0.015	0.055
-530.077	479.086	0.125	-0.375
-529.062	405.861	0.079	-0.219
-528.048	473.447	-0.074	0.221
-527.033	4.996	0.155	0.150
-526.018	331.636	-0.070	0.180
-525.004	-34.295	-0.119	-0.085
-523.989	-5.031	0.111	0.101
-522.975	-137.897	-0.205	-0.030
-521.960	-138.957	0.408	0.058
-520.945	-200.000	0.024	0.608
-519.931	181.929	0.160	0.311
-518.916	154.968	0.100	0.181
-517.902	-200.000	0.003	0.069
-516.887	800.000	0.018	-0.091
-515.872	574.600	-0.106	-0.343
-514.858	-29.603	-0.274	0.206
-513.843	-130.820	-0.391	0.068
-512.829	10.837	0.442	-0.444
-511.814	-151.987	0.191	-0.018
-510.799	-69.770	-0.311	-0.156
-509.785	430.832	0.032	0.091
-508.770	-80.347	0.119	0.052
-507.756	702.148	0.111	0.386
-506.741	256.988	-0.051	0.116
-505.726	800.000	-0.092	-0.514
-504.712	275.393	-0.068	0.159
-503.697	130.157	0.208	-0.352
-502.683	-133.317	-0.333	0.055
-501.668	-200.000	-0.022	-0.628
-500.653	-84.908	0.792	0.325
-499.639	-111.907	-0.654	0.172
-498.624	800.000	0.027	-0.105
-497.610	132.470	-0.081	-0.138
-496.595	625.226	0.126	-0.420
-495.581	-91.178	0.299	-0.112
-494.566	-146.390	0.166	0.019
-493.551	30.402	0.079	-0.088
-492.537	-117.869	-0.509	0.119
-491.522	33.270	0.242	-0.277
-490.508	-101.049	0.548	-0.175
-489.493	-200.000	-0.027	-0.499
-488.478	84.404	-0.241	0.347
-487.464	195.260	-0.216	0.433
-486.449	-88.654	-0.389	0.151
-485.435	-5.321	0.154	-0.139
-484.420	-48.817	-0.138	-0.087
-483.405	55.456	0.026	0.033
-482.391	-60.248	0.374	0.209
-481.376	167.561	-0.105	0.196
-480.362	6.131	0.210	-0.205
-479.347	22.095	-0.276	-0.296
-478.332	64.776	-0.101	-0.134
-477.318	-67.204	0.088	-0.045
-476.303	591.980	0.046	-0.151
-475.289	-97.507	-0.593	-0.201
-474.274	249.904	-0.089	0.198
-473.259	-105.600	-0.624	-0.184
-472.245	-138.465	-0.414	-0.059
-471.230	196.367	0.139	-0.278
-470.216	-68.096	-0.645	-0.329
-469.201	-24.969	-0.245	0.190
-468.186	-200.000	-0.018	-0.134
-467.172	-114.860	-0.518	-0.129
-466.157	-200.000	0.069	-0.647
-465.143	94.081	0.236	-0.352
-464.128	-38.454	0.393	-0.272
-463.113	-96.754	0.063	-0.022
-462.099	-37.583	-0.289	0.202
-461.084	10.244	0.184	0.184
-460.070	79.256	-0.087	-0.123
-459.055	-87.845	-0.384	-0.151
-458.040	-200.000	0.011	0.385
-457.026	-93.353	-0.466	-0.169
-456.011	419.759	-0.052	-0.146
-454.997	68.754	0.149	0.201
-453.982	477.735	-0.141	-0.419
-452.968	-7.971	-0.181	-0.160
-451.953	-12.236	0.074	0.064
-450.938	-111.402	0.222	-0.059
-449.924	107.801	-0.147	0.231
-448.909	-154.528	-0.213	-0.018
-447.895	-17.092	0.262	0.216
-446.880	-107.549	0.595	0.170
-445.865	-79.151	0.242	-0.107
-444.851	193.579	-0.201	-0.401
-443.836	687.853	0.162	0.557
-442.822	-81.582	-0.154	-0.066
-441.807	-200.000	0.022	0.159
-440.792	-43.869	0.288	-0.190
-439.778	-78.471	0.098	0.044
-438.763	-200.000	-0.026	0.305
-437.749	11.425	0.174	-0.175
-436.734	59.296	-0.135	-0.174
-435.719	69.674	-0.260	0.351
-434.705	-137.193	-0.069	-0.010
-433.690	-102.998	-0.683	0.211
-432.676	-80.912	0.130	-0.056
-431.661	116.566	0.173	0.279
-430.646	-139.017	-0.187	0.026
-429.632	-88.704	0.150	0.058
-428.617	-60.127	0.305	0.170
-427.603	47.997	0.082	0.101
-426.588	-92.001	0.100	-0.037
-425.573	243.430	0.100	-0.220
-424.559	403.103	0.133	-0.369
-423.544	-3.906	-0.254	-0.231
-422.530	-200.000	0.028	0.449
-421.515	-173.242	0.512	0.020
-420.500	214.216	-0.108	0.225
-419.486	-200.000	-0.000	-0.406
-418.471	9.429	-0.084	-0.083
-417.457	-88.949	-0.317	0.123
-416.442	-192.820	0.209	0.002
-415.428	800.000	-0.091	-0.456
-414.413	318.869	-0.072	0.179
-413.398	-23.951	-0.200	-0.156
-412.384	-97.062	0.409	-0.139
-411.369	800.000	0.092	0.378
-410.355	-200.000	-0.123	-0.751
-409.340	-172.773	0.460	0.018
-408.325	323.703	0.055	0.137
-407.311	192.615	-0.195	-0.386
-406.296	9.480	0.201	-0.199
-405.282	-33.542	0.235	-0.170
-404.267	452.446	0.148	0.431
-403.252	-92.196	0.486	0.179
-402.238	-17.796	0.329	0.270
-401.223	-123.240	0.553	-0.115
-400.209	-200.000	-0.004	-0.156
-399.194	-10.166	0.223	0.193
-398.179	123.691	0.136	0.225
-397.165	510.569	-0.122	0.372
-396.150	-165.256	0.537	0.031
-395.136	800.000	0.010	0.047
-394.121	-112.301	-0.355	0.093
-393.106	-167.626	-0.188	0.010
-392.092	81.548	0.154	-0.218
-391.077	800.000	-0.097	0.380
-390.063	27.804	0.206	0.227
-389.048	-92.022	-0.285	-0.105
-388.033	-6.976	-0.302	0.268
-387.019	-14.844	0.082	-0.069
-386.004	-95.123	0.156	-0.055
-384.990	12.574	0.364	-0.368
-383.975	-91.784	0.188	-0.069
-382.960	-112.713	0.247	0.064
-381.946	-81.528	0.149	-0.064
-380.931	-116.084	0.503	-0.122
-379.917	557.325	0.095	-0.300
-378.902	-141.059	-0.048	0.006
-377.888	-123.097	-0.166	-0.035
-376.873	39.267	-0.080	0.094
-375.858	-107.212	0.449	-0.128
-374.844	-2.763	0.397	-0.363
-373.829	-171.134	0.113	0.005
-372.815	-22.658	-0.367	0.289
-371.800	-61.900	0.423	0.231
-370.785	-103.751	0.324	0.099
-369.771	-200.000	0.001	-0.088
-368.756	284.040	0.126	-0.297
-367.742	-106.688	0.048	0.014
-366.727	-200.000	0.041	0.267
-365.712	161.596	0.044	0.081
-364.698	-17.525	0.167	0.137
-363.683	-103.053	-0.194	0.060
-362.669	-200.000	0.056	-0.370
-361.654	-95.656	0.206	0.071
-360.639	-36.316	-0.534	0.375
-359.625	412.381	0.048	-0.135
-358.610	800.000	-0.073	0.285
-357.596	800.000	0.153	0.606
-356.581	689.772	0.078	-0.269
-355.566	-88.908	-0.192	-0.074
-354.552	-151.903	0.184	0.017
-353.537	162.431	0.170	-0.312
-352.523	-23.667	-0.079	-0.062
-351.508	-164.243	-0.320	-0.019
-350.493	-117.797	-0.248	-0.058
-349.479	486.522	-0.065	-0.195
-348.464	-30.915	-0.073	0.054
-347.450	-116.185	0.589	-0.142
-346.435	65.610	-0.103	-0.136
-345.420	335.033	-0.167	-0.425
-344.406	111.854	0.312	0.494
-343.391	49.296	0.376	-0.463
-342.377	107.831	-0.201	-0.313
-341.362	-200.000	0.028	-0.519
-340.348	156.501	0.246	0.445
-339.333	-12.579	-0.465	0.396
-338.318	276.512	0.046	0.106
-337.304	135.260	0.263	0.448
-336.289	-90.954	0.339	0.126
-335.275	538.154	-0.126	0.393
-334.260	-200.000	-0.036	0.225
-333.245	315.691	-0.129	0.320
-332.231	-41.390	0.237	0.159
-331.216	298.500	-0.046	0.112
-330.202	-117.643	0.450	-0.105
-329.187	125.899	0.350	-0.579
-328.172	-134.657	-0.337	0.053
-327.158	47.787	-0.334	-0.408
-326.143	-100.559	-0.585	0.187
-325.129	84.859	-0.344	0.493
-324.114	-107.933	0.585	-0.165
-323.099	521.306	-0.072	0.222
-322.085	-34.448	-0.376	-0.268
-321.070	241.396	0.175	0.383
-320.056	-40.208	-0.264	0.179
-319.041	-54.968	-0.271	-0.159
-318.026	-123.457	0.277	0.057
-317.012	175.862	0.176	-0.335
-315.997	-69.785	-0.110	0.055
-314.983	-200.000	0.063	0.413
-313.968	-92.530	-0.619	-0.226
-312.953	73.209	0.110	-0.150
-311.939	-132.747	0.497	-0.082
-310.924	8.097	-0.278	0.272
-309.910	-62.210	0.477	0.258
-308.895	286.439	0.096	-0.228
-307.880	-43.452	-0.253	0.167
-306.866	80.921	0.167	0.235
-305.851	-44.121	-0.245	-0.160
-304.837	-200.000	-0.037	0.256
-303.822	-84.536	0.390	0.160
-302.807	174.396	-0.198	-0.375
-301.793	98.532	-0.208	-0.313
-300.778	-115.700	-0.228	-0.055
-299.764	-16.130	0.327	-0.270
-298.749	-21.342	0.148	-0.117
-297.735	-147.133	-0.526	-0.058
-296.720	-120.592	0.319	-0.070
-295.705	-200.000	-0.043	0.588
-294.691	80.913	0.422	0.594
-293.676	-138.994	-0.864	-0.121
-292.662	-149.784	0.070	-0.007
-291.647	75.995	-0.184	-0.254
-290.632	-54.119	0.594	-0.351
-289.618	392.026	-0.166	-0.453
-288.603	-39.044	-0.388	-0.265
-287.589	-72.904	-0.195	-0.093
-286.574	-200.000	0.001	-0.035
-285.559	-152.606	0.367	-0.034
-284.545	-200.000	0.027	-0.304
-283.530	-67.614	0.301	-0.153
-282.516	38.947	-0.242	-0.281
-281.501	-200.000	0.010	-0.152
-280.486	-159.669	-0.525	0.037
-279.472	289.875	-0.137	-0.326
-278.457	688.012	0.034	-0.118
-277.443	-75.590	-0.385	-0.178
-276.428	-0.726	-0.299	-0.276
-275.413	223.046	-0.290	-0.612
-274.399	-200.000	-0.033	0.309
-273.384	-200.000	-0.052	0.330
-272.370	5.521	0.266	0.255
-271.355	253.402	-0.203	0.452
-270.340	800.000	0.118	0.470
-269.326	542.075	-0.182	0.570
-268.311	134.458	-0.076	0.129
-267.297	-200.000	0.066	0.399
-266.282	-13.685	-0.306	0.257
-265.267	-89.776	-0.136	0.052
-264.253	-53.674	0.563	-0.334
-263.238	-40.102	-0.249	0.168
-262.224	10.734	-0.355	0.353
-261.209	-128.139	0.194	-0.036
-260.195	-20.772	-0.347	-0.277
-259.180	-82.991	0.306	0.128
-258.165	-102.837	-0.308	-0.095
-257.151	37.195	-0.083	-0.096
-256.136	194.611	-0.100	0.198
-255.122	-123.252	-0.455	-0.094
-254.107	-122.052	-0.753	-0.160
-253.092	-135.047	0.473	-0.074
-252.078	-155.979	0.238	-0.019
-251.063	-24.447	0.420	0.325
-250.049	800.000	0.083	0.318
-249.034	-100.088	0.510	-0.164
-248.019	-200.000	0.004	-0.607
-247.005	-109.059	0.325	0.089
-245.990	-147.434	0.434	-0.047
-244.976	-147.616	0.369	0.040
-243.961	-42.511	0.232	-0.154
-242.946	-129.378	0.218	-0.039
-241.932	307.754	-0.122	0.297
-240.917	-100.250	-0.473	0.152
-239.903	-53.188	-0.685	-0.408
-238.888	-40.322	0.181	-0.122
-237.873	-162.006	-0.358	0.023
-236.859	800.000	-0.087	-0.327
-235.844	174.245	-0.203	0.383
-234.830	-200.000	-0.016	0.286
-233.815	-19.354	0.295	0.238
-232.800	-200.000	-0.050	-0.332
-231.786	-100.492	0.388	-0.124
-230.771	-51.216	0.322	-0.196
-229.757	-113.585	-0.499	-0.126
-228.742	-91.575	0.504	0.186
-227.727	-116.173	0.425	-0.102
-226.713	-64.699	0.183	-0.096
-225.698	-109.555	0.096	-0.026
-224.684	-63.064	0.478	0.256
-223.669	191.379	0.020	-0.038
-222.655	-106.594	0.263	-0.076
-221.640	-39.653	0.434	0.295
-220.625	-38.416	0.060	0.042
-219.611	-53.816	-0.109	-0.064
-218.596	-200.000	0.016	-0.429
-217.582	61.646	0.284	-0.367
-216.567	-97.608	0.288	0.096
-215.552	-25.929	0.098	-0.074
-214.538	-7.564	0.087	-0.077
-213.523	-6.796	-0.290	-0.256
-212.509	-1.102	0.297	-0.272
-211.494	529.267	-0.076	-0.233
-210.479	-123.064	0.103	0.021
-209.465	46.187	0.245	0.295
-208.450	158.066	-0.250	0.451
-207.436	67.274	0.255	0.338
-206.421	28.143	0.218	0.239
-205.406	800.000	0.025	0.126
-204.392	121.280	-0.136	-0.221
-203.377	-89.393	0.286	-0.109
-202.363	-79.510	-0.528	0.231
-201.348	90.303	-0.068	-0.099
-200.333	-122.486	0.151	0.032
-199.319	-124.345	0.090	0.018
-198.304	-14.427	-0.541	0.452
-197.290	800.000	0.071	-0.270
-196.275	-93.685	-0.132	-0.047
-195.260	52.724	-0.311	0.386
-194.246	-200.000	-0.061	-0.369
-193.231	-171.685	0.499	0.021
-192.217	159.801	0.259	-0.469
-191.202	-186.366	0.169	0.003
-190.187	4.916	0.371	-0.354
-189.173	277.136	-0.115	-0.265
-188.158	131.641	-0.169	-0.283
-187.144	-116.517	0.141	-0.033
-186.129	800.000	-0.104	-0.397
-185.114	800.000	-0.041	0.213
-184.100	-63.586	-0.027	0.014
-183.085	-42.815	0.305	0.201
-182.071	-145.309	-0.333	0.039
-181.056	-200.000	0.075	0.455
-180.042	-89.884	-0.114	-0.043
-179.027	30.524	-0.111	0.123
-178.012	94.679	-0.228	0.338
-176.998	800.000	-0.061	0.289
-175.983	800.000	-0.202	-0.748
-174.969	172.457	0.172	0.323
-173.954	800.000	0.096	0.381
-172.939	135.714	0.023	-0.039
-171.925	800.000	0.106	-0.521
-170.910	604.714	0.132	-0.430
-169.896	406.028	0.207	0.570
-168.881	528.034	-0.161	-0.494
-167.866	-165.201	0.462	0.026
-166.852	145.790	-0.103	0.179
-165.837	188.677	0.215	0.419
-164.823	-171.223	0.070	-0.003
-163.808	-77.431	0.288	0.129
-162.793	68.928	0.042	0.056
-161.779	633.793	0.024	0.079
-160.764	100.438	0.046	-0.069
-159.750	-163.681	-0.558	-0.034
-158.735	800.000	0.045	0.170
-157.720	-30.374	-0.470	0.345
-156.706	-44.183	-0.392	0.254
-155.691	-23.821	-0.164	-0.127
-154.677	-38.652	0.157	0.107
-153.662	-154.926	-0.147	0.012
-152.647	-69.419	0.188	0.093
-151.633	-97.571	0.030	0.010
-150.618	96.597	-0.167	0.249
-149.604	-64.672	0.569	-0.298
-148.589	-108.674	-0.079	-0.022
-147.574	-200.000	0.029	-0.227
-146.560	114.389	0.146	-0.230
-145.545	-200.000	-0.017	0.108
-144.531	364.222	0.247	-0.646
-143.516	-52.408	0.251	0.150
-142.502	65.132	0.310	0.407
-141.487	-91.681	-0.147	-0.054
-140.472	-54.821	0.097	0.057
-139.458	-3.235	0.302	-0.273
-138.443	-8.379	0.103	0.090
-137.429	129.722	-0.101	0.168
-136.414	-200.000	-0.030	0.783
-135.399	-200.000	0.019	0.395
-134.385	800.000	0.037	0.141
-133.370	141.448	0.106	0.182
-132.356	-200.000	-0.032	0.409
-131.341	373.652	-0.134	-0.354
-130.326	-9.835	0.078	-0.067
-129.312	79.095	0.160	-0.222
-128.297	-75.548	0.463	0.212
-127.283	-74.411	-0.315	0.147
-126.268	-22.572	-0.261	-0.204
-125.253	121.171	0.198	0.320
-124.239	-23.445	0.225	0.175
-123.224	-8.703	0.394	0.342
-122.210	-25.994	-0.077	0.058
-121.195	37.819	0.370	-0.425
-120.180	-26.221	0.220	0.167
-119.166	-76.571	0.119	0.054
-118.151	151.578	0.038	-0.067
-117.137	-200.000	-0.023	-0.328
-116.122	-59.129	-0.247	-0.137
-115.107	-24.124	0.225	0.174
-114.093	-0.065	-0.210	0.194
-113.078	-76.762	-0.335	-0.151
-112.064	220.830	0.064	-0.133
-111.049	43.421	0.360	-0.426
-110.034	-200.000	0.006	-0.447
-109.020	47.341	0.183	-0.220
-108.005	-114.306	0.237	0.059
-106.991	800.000	0.113	-0.569
-105.976	464.745	-0.116	-0.338
-104.962	65.308	-0.068	-0.089
-103.947	289.127	0.113	-0.265
-102.932	-200.000	-0.058	0.515
-101.918	736.522	0.051	-0.177
-100.903	-53.338	-0.232	0.137
-99.889	16.044	0.197	-0.201
-98.874	-126.891	0.239	-0.045
-97.859	800.000	0.080	-0.447
-96.845	-200.000	0.002	0.106
-95.830	140.928	-0.197	0.337
-94.816	661.723	0.086	-0.288
-93.801	385.676	-0.046	0.124
-92.786	20.110	0.228	-0.238
-91.772	-163.172	-0.152	0.009
-90.757	800.000	0.051	0.261
-89.743	187.208	0.177	0.343
-88.728	-42.730	0.274	-0.180
-87.713	278.755	0.055	0.128
-86.699	68.595	0.068	-0.090
-85.684	-200.000	0.022	0.235
-84.670	-200.000	-0.003	0.067
-83.655	-110.992	0.245	0.065
-82.640	129.077	0.224	0.371
-81.626	-39.107	0.132	0.089
-80.611	135.669	0.034	0.058
-79.597	142.659	-0.286	-0.493
-78.582	55.251	-0.136	-0.171
-77.567	-124.540	-0.479	-0.095
-76.553	37.618	-0.357	-0.409
-75.538	800.000	0.044	-0.208
-74.524	-75.574	-0.285	-0.130
-73.509	47.642	-0.504	-0.608
-72.494	-124.335	-0.107	-0.021
-71.480	-200.000	0.039	0.232
-70.465	-132.731	0.305	0.050
-69.451	-112.708	0.220	0.056
-68.436	54.624	0.030	-0.037
-67.422	-104.650	-0.265	0.079
-66.407	78.951	-0.137	-0.189
-65.392	-142.010	0.064	0.008
-64.378	-14.004	0.273	0.227
-63.363	416.885	-0.015	0.043
-62.349	34.121	0.226	-0.254
-61.334	-17.611	-2.779	-2.254
-60.319	85.480	1.038	1.475
-59.305	213.452	-3.687	-7.552
-58.290	38.014	4.297	4.938
-57.276	394.303	3.847	10.401
-56.261	-200.000	23.005	313.670
-55.246	363.397	1287.465	3357.033
-54.232	53.809	2833.975	3518.651
-53.217	52.298	2658.656	3277.552
-52.203	32.808	2390.755	2673.039
-51.188	28.091	2058.025	2242.934
-50.173	24.805	1944.509	2080.787
-49.159	23.842	1932.573	2056.744
-48.144	23.333	1928.226	2046.131
-47.130	23.126	1926.185	2041.479
-46.115	23.163	1924.120	2039.641
-45.100	23.166	1923.081	2038.491
-44.086	23.107	1921.596	2036.153
-43.071	23.043	1920.444	2034.108
-42.057	23.058	1918.837	2032.495
-41.042	23.177	1916.991	2031.832
-40.027	23.119	1915.447	2029.447
-39.013	23.210	1913.934	2028.821
-37.998	23.027	1912.667	2025.291
-36.984	22.986	1911.892	2023.914
-35.969	23.164	1909.686	2023.543
-34.954	23.065	1909.282	2021.900
-33.940	23.037	1908.309	2020.469
-32.925	23.051	1906.774	2018.925
-31.911	23.106	1905.205	2017.814
-30.896	23.065	1903.886	2015.864
-29.881	23.022	1902.794	2014.135
-28.867	23.002	1901.131	2012.069
-27.852	22.864	1900.352	2009.579
-26.838	22.945	1898.245	2008.203
-25.823	22.788	1896.679	2004.668
-24.809	22.883	1896.845	2005.857
-23.794	22.959	1894.712	2004.382
-22.779	22.839	1893.466	2001.615
-21.765	22.854	1893.157	2001.383
-20.750	22.947	1890.956	2000.030
-19.736	22.924	1888.994	1997.620
-18.721	22.899	1888.466	1996.701
-17.706	22.878	1887.779	1995.658
-16.692	22.831	1885.843	1992.990
-15.677	22.903	1884.890	1992.725
-14.663	22.826	1883.205	1989.987
-13.648	22.747	1881.966	1987.704
-12.633	22.726	1881.335	1986.731
-11.619	22.799	1880.193	1986.269
-10.604	22.681	1878.597	1983.167
-9.590	22.831	1876.745	1982.827
-8.575	22.805	1875.706	1981.359
-7.560	22.749	1874.540	1979.419
-6.546	22.850	1873.107	1978.960
-5.531	22.756	1872.342	1977.016
-4.517	22.774	1870.965	1975.689
-3.502	22.755	1870.616	1975.025
-2.487	22.812	1869.097	1973.989
-1.473	22.825	1865.895	1970.668
-0.458	22.732	1848.525	1951.215
0.556	19.969	1995.139	2060.658
1.571	18.866	2200.679	2258.116
2.586	19.767	2239.198	2309.468
3.600	19.808	2242.317	2312.949
4.615	19.663	2242.792	2311.223
5.629	19.794	2240.439	2310.273
6.644	19.666	2238.451	2306.229
7.659	19.732	2236.309	2304.637
8.673	19.717	2234.101	2301.882
9.688	19.514	2242.878	2307.921
10.702	18.381	2322.330	2373.621
11.717	16.651	2385.479	2413.094
12.731	7.821	2364.830	2265.978
13.746	1.057	2346.967	2152.256
14.761	0.239	2342.786	2136.502
15.775	0.149	2340.347	2132.743
16.790	0.058	2338.999	2129.963
17.804	0.021	2338.298	2128.538
18.819	0.098	2337.235	2128.413
19.834	-0.005	2335.959	2125.533
20.848	-0.004	2333.959	2123.479
21.863	0.129	2331.970	2123.301
22.877	0.122	2330.030	2121.178
23.892	-0.021	2327.940	2116.989
24.907	0.044	2324.958	2114.954
25.921	0.016	2324.290	2113.698
26.936	0.090	2320.977	2111.470
27.950	0.095	2318.812	2109.315
28.965	0.067	2317.162	2107.167
29.980	0.105	2315.929	2106.331
30.994	0.174	2312.651	2104.072
32.009	4.146	2324.992	2171.052
33.023	14.119	2355.545	2341.048
34.038	19.041	2365.491	2420.419
35.053	19.634	2363.770	2426.738
36.067	19.537	2360.995	2422.238
37.082	19.498	2358.262	2418.594
38.096	19.442	2354.929	2414.095
39.111	19.614	2354.380	2415.661
40.126	19.935	2352.281	2417.724
41.140	20.099	2351.317	2418.743
42.155	19.920	2349.240	2413.804
43.169	19.897	2348.142	2412.073
44.184	19.869	2345.045	2408.212
45.199	19.872	2342.503	2405.352
46.213	19.819	2341.630	2403.433
47.228	19.829	2341.322	2402.963
48.242	19.926	2339.736	2402.407
49.257	19.895	2338.054	2399.954
50.271	19.874	2334.858	2396.089
51.286	19.879	2331.844	2392.785
52.301	19.655	2331.105	2388.627
53.315	19.884	2330.302	2390.703
54.330	20.655	2331.414	2402.264
55.344	21.148	2329.945	2407.300
56.359	21.208	2326.054	2403.812
57.374	21.241	2324.454	2402.332
58.388	21.410	2322.882	2402.757
59.403	21.339	2319.945	2398.444
60.417	21.483	2316.581	2396.661
61.432	21.473	2315.614	2395.243
62.447	21.660	2314.094	2395.961
63.461	21.624	2312.599	2393.625
64.476	21.752	2310.161	2392.566
65.490	21.699	2309.970	2391.367
66.505	21.577	2306.789	2386.116
67.520	20.715	2304.080	2371.225
68.534	19.868	2299.536	2354.676
69.549	19.749	2296.093	2349.246
70.563	19.939	2293.686	2349.093
71.578	19.971	2291.993	2347.512
72.593	19.804	2289.800	2342.714
73.607	19.928	2289.026	2343.335
74.622	20.046	2287.419	2343.007
75.636	19.804	2283.331	2335.264
76.651	19.869	2281.729	2334.225
77.666	19.910	2280.127	2332.865
78.680	20.001	2279.233	2332.903
79.695	20.154	2276.419	2331.807
80.709	20.175	2276.044	2331.434
81.724	20.172	2274.300	2329.322
82.739	20.074	2271.227	2324.568
83.753	20.002	2267.865	2319.885
84.768	19.928	2266.575	2317.295
85.782	19.941	2265.592	2316.183
86.797	19.915	2263.184	2313.094
87.812	19.936	2261.196	2311.075
88.826	19.904	2259.310	2308.440
89.841	19.949	2257.444	2306.863
90.855	20.051	2254.932	2305.373
91.870	19.906	2253.764	2301.969
92.884	19.773	2252.497	2298.629
93.899	19.883	2250.321	2297.592
94.914	19.874	2250.936	2297.830
95.928	20.612	2252.287	2308.784
96.943	20.964	2249.851	2310.701
97.957	20.184	2245.677	2295.760
98.972	19.899	2242.029	2287.977
99.987	19.865	2238.555	2283.698
101.001	19.718	2237.107	2280.002
102.016	19.879	2235.174	2279.888
103.030	19.948	2233.867	2279.194
104.045	20.087	2231.068	2277.910
105.060	19.993	2228.967	2274.244
106.074	19.801	2228.255	2270.714
107.089	19.926	2225.423	2269.199
108.103	20.044	2225.793	2270.863
109.118	20.104	2222.449	2267.965
110.133	20.189	2221.074	2267.410
111.147	20.181	2219.599	2265.527
112.162	20.160	2218.441	2263.806
113.176	20.073	2215.315	2259.200
114.191	19.919	2214.036	2255.616
115.206	19.991	2211.443	2253.636
116.220	19.939	2210.092	2251.311
117.235	19.787	2207.741	2246.667
118.249	19.709	2204.994	2242.578
119.264	19.890	2203.750	2243.415
120.279	20.005	2202.967	2243.846
121.293	19.901	2200.805	2240.013
122.308	19.863	2199.437	2237.863
123.322	19.909	2198.379	2237.110
124.337	20.079	2198.550	2239.233
125.352	20.903	2200.109	2251.258
126.366	21.085	2198.221	2251.417
127.381	20.139	2192.073	2232.607
128.395	19.662	2188.615	2222.650
129.410	19.868	2187.158	2223.562
130.424	19.813	2185.908	2221.320
131.439	19.646	2183.431	2216.380
132.454	19.598	2181.924	2213.971
133.468	19.686	2179.685	2212.570
134.483	19.649	2178.337	2210.464
135.497	19.756	2177.749	2210.971
136.512	19.903	2174.734	2209.531
137.527	19.889	2172.784	2207.107
138.541	19.932	2170.931	2205.508
139.556	19.704	2170.773	2202.173
140.570	19.752	2169.044	2200.767
141.585	19.935	2166.941	2200.706
142.600	19.880	2166.308	2199.094
143.614	19.809	2164.099	2195.683
144.629	19.924	2161.484	2194.233
145.643	19.722	2161.089	2191.002
146.658	19.762	2159.634	2189.767
147.673	19.943	2157.976	2190.127
148.687	20.163	2156.363	2191.023
149.702	20.135	2155.547	2189.574
150.716	20.021	2153.987	2186.287
151.731	19.813	2153.200	2182.582
152.746	19.920	2152.108	2182.574
153.760	19.981	2151.394	2182.362
154.775	20.635	2153.234	2192.256
155.789	20.775	2150.105	2190.580
156.804	19.944	2144.710	2174.330
157.819	19.760	2141.822	2168.828
158.833	19.892	2139.946	2168.330
159.848	19.948	2137.885	2166.690
160.862	20.174	2135.679	2167.028
161.877	20.172	2134.842	2165.896
162.892	20.009	2134.236	2162.972
163.906	20.012	2132.629	2161.126
164.921	19.960	2130.689	2158.244
165.935	20.125	2127.682	2157.010
166.950	20.144	2125.826	2155.101
167.964	19.970	2124.641	2151.478
168.979	19.920	2123.084	2149.011
169.994	20.009	2122.201	2148.973
171.008	20.187	2119.814	2148.518
172.023	20.049	2118.259	2144.972
173.037	19.941	2117.106	2142.196
174.052	20.099	2114.853	2141.621
175.067	19.887	2113.341	2137.203
176.081	19.853	2111.905	2135.075
177.096	19.852	2110.226	2133.112
178.110	19.698	2108.522	2129.224
179.125	19.757	2107.430	2128.598
180.140	19.841	2106.902	2128.852
181.154	19.819	2104.417	2125.811
182.169	19.625	2102.279	2121.006
183.183	19.633	2101.959	2120.523
184.198	20.650	2103.773	2134.656
185.213	20.853	2103.486	2136.605
186.227	20.116	2098.768	2122.495
187.242	19.696	2096.875	2115.166
188.256	19.729	2094.672	2113.091
189.271	19.643	2093.447	2110.549
190.286	19.825	2091.585	2110.646
191.300	19.802	2090.325	2108.838
192.315	19.741	2087.542	2105.039
193.329	19.726	2085.627	2102.667
194.344	20.000	2084.408	2104.534
195.359	20.014	2083.836	2103.880
196.373	19.999	2081.554	2101.136
197.388	19.945	2079.286	2097.943
198.402	19.802	2077.997	2094.648
199.417	19.758	2075.710	2091.554
200.432	19.864	2073.901	2090.776
201.446	20.149	2072.868	2092.937
202.461	19.943	2072.163	2089.479
203.475	19.867	2069.687	2085.805
204.490	19.886	2067.054	2083.132
205.504	19.858	2065.556	2081.044
206.519	19.840	2062.938	2077.932
207.534	19.866	2061.041	2076.090
208.548	19.834	2060.331	2074.740
209.563	19.805	2058.856	2072.660
210.577	19.658	2057.838	2069.610
211.592	19.723	2058.215	2070.523
212.607	20.248	2058.211	2076.595
213.621	21.181	2059.229	2088.599
214.636	20.794	2055.657	2080.079
215.650	19.821	2051.934	2064.391
216.665	19.771	2049.796	2061.398
217.680	19.909	2048.569	2061.568
218.694	20.029	2047.503	2061.691
219.709	20.000	2046.354	2059.934
220.723	20.114	2044.997	2059.691
221.738	20.014	2043.426	2056.664
222.753	19.937	2040.334	2052.386
223.767	19.802	2039.308	2049.496
224.782	19.860	2036.470	2047.095
225.796	19.961	2035.482	2047.060
226.811	19.974	2034.569	2046.043
227.826	19.998	2032.595	2044.103
228.840	20.042	2031.595	2043.378
229.855	20.100	2029.582	2041.786
230.869	20.123	2028.526	2040.757
231.884	19.917	2026.936	2036.476
232.899	19.849	2024.091	2032.577
233.913	19.666	2023.338	2029.413
234.928	19.754	2022.523	2029.385
235.942	20.043	2020.229	2030.256
236.957	19.928	2018.917	2027.338
237.972	19.775	2018.352	2024.718
238.986	20.006	2017.031	2025.874
240.001	20.063	2015.131	2024.392
241.015	19.984	2013.603	2021.683
242.030	19.826	2013.778	2019.767
243.045	20.627	2014.502	2029.654
244.059	20.664	2011.618	2026.937
245.074	19.927	2006.966	2013.394
246.088	19.719	2004.750	2008.498
247.103	19.732	2003.490	2007.149
248.117	19.806	2001.398	2005.679
249.132	19.797	2001.166	2005.095
250.147	19.838	1998.593	2002.752
251.161	19.739	1997.730	2000.505
252.176	19.889	1997.060	2001.337
253.190	20.090	1994.254	2000.614
254.205	20.103	1992.557	1998.827
255.220	20.271	1991.664	1999.640
256.234	20.185	1991.477	1998.211
257.249	20.215	1989.157	1995.994
258.263	20.137	1988.289	1993.981
259.278	20.068	1987.540	1992.191
260.293	20.081	1985.188	1989.749
261.307	19.918	1983.029	1985.459
262.322	19.879	1981.083	1982.826
263.336	19.730	1979.956	1979.747
264.351	19.955	1977.042	1979.188
265.366	19.942	1976.757	1978.513
266.380	19.995	1976.260	1978.387
267.395	19.816	1973.630	1973.465
268.409	19.630	1972.202	1969.669
269.424	19.836	1971.892	1971.484
270.439	19.912	1971.211	1971.439
271.453	20.184	1969.481	1972.587
272.468	20.778	1969.906	1979.559
273.482	20.726	1967.942	1976.754
274.497	20.248	1963.337	1966.451
275.512	20.065	1960.723	1961.520
276.526	20.039	1959.404	1959.663
277.541	19.948	1957.617	1956.613
278.555	20.069	1955.776	1955.903
279.570	19.792	1953.812	1950.575
280.585	19.754	1951.816	1947.911
281.599	19.996	1951.303	1949.910
282.614	19.911	1950.518	1947.928
283.628	20.076	1948.673	1947.717
284.643	19.944	1948.887	1946.207
285.657	20.162	1947.622	1947.175
286.672	20.267	1945.028	1945.529
287.687	20.078	1944.101	1942.242
288.701	19.961	1942.585	1939.171
289.716	19.997	1940.725	1937.488
290.730	19.902	1939.581	1935.050
291.745	19.851	1937.513	1932.182
292.760	19.823	1936.591	1930.711
293.774	19.750	1936.789	1929.868
294.789	19.899	1934.581	1929.106
295.803	19.847	1932.103	1925.815
296.818	19.886	1930.904	1924.834
297.833	19.932	1928.580	1922.796
298.847	20.017	1928.896	1923.832
299.862	19.990	1926.809	1921.215
300.876	20.052	1925.585	1920.458
301.891	20.849	1927.158	1930.683
302.906	21.063	1925.854	1931.528
303.920	20.374	1923.137	1920.908
304.935	19.904	1919.694	1912.024
305.949	19.796	1917.765	1908.673
306.964	19.923	1915.563	1907.658
307.979	19.988	1914.835	1907.426
308.993	20.097	1913.041	1906.615
310.008	20.135	1911.204	1904.979
311.022	20.243	1909.748	1904.491
312.037	20.136	1909.012	1902.348
313.052	20.086	1906.119	1898.689
314.066	20.113	1905.126	1897.772
315.081	20.043	1904.067	1895.718
316.095	19.934	1903.318	1893.544
317.110	20.085	1901.652	1893.315
318.125	20.210	1900.134	1892.954
319.139	20.208	1898.957	1891.529
320.154	20.143	1897.741	1889.382
321.168	20.193	1895.712	1887.679
322.183	20.097	1895.116	1885.808
323.197	20.050	1892.347	1882.314
324.212	19.897	1890.417	1878.502
325.227	19.764	1889.614	1876.030
326.241	19.883	1887.723	1875.224
327.256	20.043	1886.826	1875.853
328.270	20.035	1886.054	1874.770
329.285	20.020	1885.822	1874.149
330.300	20.302	1887.071	1878.243
331.314	21.064	1887.277	1886.503
332.329	20.907	1884.235	1881.540
333.343	20.205	1879.685	1869.166
334.358	20.248	1877.535	1867.265
335.373	19.923	1876.297	1862.297
336.387	19.975	1873.835	1860.198
337.402	20.068	1872.441	1859.589
338.416	19.937	1871.319	1856.841
339.431	19.743	1871.064	1854.271
340.446	19.966	1869.330	1854.737
341.460	20.182	1867.410	1854.934
342.475	20.154	1865.816	1852.825
343.489	20.243	1863.462	1851.226
344.504	20.268	1862.993	1850.805
345.519	20.258	1861.193	1848.680
346.533	20.283	1859.767	1847.320
347.548	20.279	1859.380	1846.668
348.562	20.371	1857.974	1846.031
349.577	20.319	1856.759	1844.049
350.592	20.145	1855.022	1840.249
351.606	20.027	1853.988	1837.743
352.621	20.176	1851.300	1836.444
353.635	19.895	1850.553	1832.492
354.650	19.801	1849.113	1829.851
355.665	19.989	1846.877	1829.409
356.679	20.073	1845.898	1829.121
357.694	19.844	1845.114	1825.689
358.708	19.949	1843.566	1825.050
359.723	20.269	1844.202	1828.854
360.738	21.115	1844.337	1837.731
361.752	20.856	1842.110	1832.550
362.767	19.942	1838.882	1819.471
363.781	19.459	1836.375	1811.679
364.796	19.872	1834.225	1813.686
365.810	19.930	1833.702	1813.566
366.825	19.870	1832.795	1811.822
367.840	19.882	1831.752	1810.700
368.854	19.783	1830.420	1808.129
369.869	19.617	1828.408	1804.177
370.883	19.799	1826.206	1803.696
371.898	19.638	1826.107	1801.694
372.913	19.939	1825.396	1803.929
373.927	20.078	1824.484	1804.270
374.942	20.200	1823.292	1804.147
375.956	20.260	1822.131	1803.411
376.971	20.126	1818.692	1798.397
377.986	19.768	1817.302	1793.077
379.000	19.910	1816.450	1793.500
380.015	20.079	1815.776	1794.375
381.029	20.215	1812.837	1792.678
382.044	20.185	1812.208	1791.522
383.059	20.349	1810.083	1790.909
384.073	20.145	1809.369	1787.877
385.088	19.863	1808.074	1783.462
386.102	19.770	1806.037	1780.280
387.117	19.737	1804.160	1777.870
388.132	19.780	1803.998	1777.946
389.146	20.007	1805.787	1781.845
390.161	21.028	1805.341	1791.735
391.175	20.893	1800.414	1785.239
392.190	19.940	1796.047	1770.899
393.205	19.756	1793.856	1766.637
394.219	19.930	1792.922	1767.301
395.234	19.942	1791.907	1766.211
396.248	19.964	1790.196	1764.530
397.263	19.959	1788.019	1762.127
398.278	19.856	1785.983	1758.861
399.292	19.883	1785.382	1758.335
400.307	20.083	1785.141	1759.928
401.321	20.187	1783.851	1759.499
402.336	20.032	1782.080	1755.970
403.350	20.080	1781.026	1755.203
404.365	20.334	1779.859	1756.430
405.380	20.467	1779.107	1756.831
406.394	20.625	1778.366	1757.493
407.409	20.591	1776.855	1755.447
408.423	20.509	1773.889	1751.474
409.438	20.226	1772.993	1747.512
410.453	20.282	1771.722	1746.614
411.467	20.289	1770.480	1745.258
412.482	20.274	1769.378	1743.809
413.496	20.152	1768.495	1741.497
414.511	19.913	1766.213	1736.630
415.526	19.837	1764.083	1733.567
416.540	20.053	1762.344	1733.821
417.555	19.963	1761.667	1732.040
418.569	19.843	1761.441	1730.406
419.584	19.976	1761.080	1731.182
420.599	20.196	1760.658	1732.767
421.613	20.002	1760.863	1730.813
422.628	20.007	1759.207	1729.028
423.642	20.247	1756.775	1728.838
424.657	20.192	1755.175	1726.505
425.672	20.037	1752.900	1722.514
426.686	19.954	1752.178	1720.761
427.701	20.067	1750.864	1720.394
428.715	19.966	1749.339	1717.685
429.730	20.030	1747.373	1716.183
430.745	19.776	1746.032	1712.135
431.759	19.946	1745.620	1713.222
432.774	19.651	1745.210	1709.674
433.788	19.456	1743.656	1706.016
434.803	19.489	1742.496	1705.000
435.818	19.332	1741.359	1702.128
436.832	19.247	1741.184	1700.907
437.847	17.922	1732.865	1679.484
438.861	9.416	1710.428	1574.205
439.876	1.553	1696.372	1484.166
440.890	0.271	1692.318	1467.890
441.905	0.197	1690.955	1465.808
442.920	0.165	1690.624	1465.032
443.934	0.184	1688.366	1463.091
444.949	0.115	1687.077	1461.128
445.963	0.193	1686.667	1461.353
446.978	0.035	1686.417	1459.427
447.993	0.093	1685.182	1458.747
449.007	0.231	1682.063	1457.209
450.022	0.139	1680.967	1455.196
451.036	0.127	1679.551	1453.681
452.051	0.683	1681.603	1460.686
453.066	7.803	1698.849	1545.191
454.080	16.387	1713.844	1642.879
455.095	18.481	1716.434	1665.641
456.109	18.982	1715.975	1669.888
457.124	19.025	1714.703	1668.864
458.139	18.956	1713.743	1667.064
459.153	18.858	1713.063	1665.245
460.168	18.947	1710.141	1663.069
461.182	18.975	1708.890	1661.929
462.197	19.042	1707.467	1660.998
463.212	19.035	1706.643	1659.926
464.226	19.039	1705.905	1659.050
465.241	18.983	1704.833	1657.269
466.255	19.022	1703.670	1656.310
467.270	18.936	1702.483	1654.130
468.285	19.021	1700.932	1653.243
469.299	19.102	1699.102	1652.053
470.314	19.063	1697.422	1649.846
471.328	19.155	1696.153	1649.300
472.343	19.153	1694.906	1647.866
473.358	19.044	1694.229	1645.969
474.372	19.123	1692.882	1645.222
475.387	19.109	1692.117	1644.150
476.401	19.135	1691.045	1643.154
477.416	19.065	1689.679	1640.958
478.430	19.049	1687.875	1638.855
479.445	19.077	1687.367	1638.435
480.460	19.077	1685.974	1636.892
481.474	19.133	1684.425	1635.725
482.489	19.010	1683.538	1633.497
483.503	18.944	1681.739	1630.921
484.518	18.972	1680.050	1629.355
485.533	19.082	1679.141	1629.328
486.547	19.060	1676.930	1626.777
487.562	18.889	1675.467	1623.536
488.576	18.982	1674.010	1622.820
489.591	19.056	1672.930	1622.275
490.606	19.086	1672.114	1621.577
491.620	19.118	1670.988	1620.588
492.635	19.029	1668.956	1617.585
493.649	18.872	1667.638	1614.627
494.664	18.982	1666.648	1614.520
495.679	19.022	1665.783	1613.866
496.693	19.068	1664.246	1612.618
497.708	18.978	1663.290	1610.651
498.722	18.978	1661.726	1608.941
499.737	19.072	1660.154	1608.108
500.752	19.061	1658.250	1605.967
501.766	19.022	1656.883	1604.084
502.781	18.958	1655.611	1602.067
503.795	19.032	1654.301	1601.298
504.810	19.089	1653.376	1600.744
505.825	19.009	1653.083	1599.519
506.839	18.925	1651.190	1596.712
507.854	18.990	1650.064	1596.040
508.868	19.135	1647.651	1594.870
509.883	18.855	1646.657	1591.104
510.898	18.867	1646.012	1590.405
511.912	18.939	1643.381	1588.340
512.927	18.751	1642.673	1585.721
513.941	18.935	1641.683	1586.278
514.956	18.916	1640.328	1584.608
515.971	18.967	1639.041	1583.651
516.985	18.890	1637.727	1581.472
518.000	18.852	1637.162	1580.393
519.014	18.886	1636.200	1579.588
520.029	18.836	1634.362	1577.158
521.043	18.925	1632.129	1575.638
522.058	18.976	1631.711	1575.517
523.073	18.908	1631.046	1574.053
524.087	18.828	1630.323	1572.432
525.102	18.813	1629.097	1570.923
526.116	18.984	1627.872	1571.125
527.131	19.092	1625.924	1570.053
528.146	19.013	1625.413	1568.645
529.160	18.984	1624.487	1567.301
530.175	18.900	1623.378	1565.266
531.189	18.938	1621.924	1564.026
532.204	18.729	1621.199	1561.233
533.219	18.890	1619.694	1561.068
534.233	18.948	1618.630	1560.384
535.248	19.084	1617.230	1560.083
536.262	18.854	1616.643	1557.240
537.277	18.832	1615.022	1555.287
538.292	18.876	1613.982	1554.502
539.306	18.844	1612.232	1552.337
540.321	18.961	1610.329	1551.382
541.335	18.949	1608.745	1549.563
542.350	19.031	1607.522	1548.943
543.365	18.953	1606.174	1546.754
544.379	18.872	1604.629	1544.345
545.394	18.964	1603.834	1544.225
546.408	19.075	1602.230	1543.497
547.423	19.153	1601.371	1543.189
548.438	19.012	1600.761	1541.151
549.452	18.911	1599.358	1538.701
550.467	18.968	1597.714	1537.448
551.481	19.085	1596.559	1537.209
552.496	18.849	1596.221	1534.576
553.511	18.792	1594.968	1532.676
554.525	18.784	1593.602	1531.108
555.540	18.909	1592.857	1531.329
556.554	18.911	1592.111	1530.452
557.569	18.849	1590.346	1528.009
558.583	18.884	1588.278	1526.152
559.598	18.899	1587.589	1525.449
560.613	18.838	1587.240	1524.380
561.627	18.771	1585.339	1521.777
562.642	18.514	1584.063	1518.081
563.656	18.664	1581.765	1517.036
564.671	18.654	1580.779	1515.816
565.686	18.765	1580.193	1516.056
566.700	18.641	1578.606	1513.255
567.715	18.691	1576.969	1511.952
568.729	18.710	1575.781	1510.796
569.744	18.764	1574.348	1509.715
570.759	18.698	1572.965	1507.628
571.773	18.681	1571.978	1506.355
572.788	18.726	1571.430	1506.046
573.802	18.684	1569.422	1503.566
574.817	18.668	1567.458	1501.366
575.832	18.488	1567.370	1499.517
576.846	18.604	1566.189	1499.230
577.861	18.845	1564.627	1499.675
578.875	18.808	1564.065	1498.629
579.890	18.859	1563.085	1497.955
580.905	18.755	1562.148	1495.972
581.919	18.824	1561.003	1495.299
582.934	18.742	1560.329	1493.754
583.948	18.685	1558.924	1491.733
584.963	18.707	1558.008	1490.866
585.978	18.820	1556.700	1490.425
586.992	18.813	1555.614	1489.145
588.007	18.753	1554.550	1487.427
589.021	18.846	1553.492	1487.044
590.036	18.902	1552.462	1486.364
591.051	18.939	1550.328	1484.470
592.065	18.786	1549.318	1481.997
593.080	18.898	1547.355	1480.909
594.094	18.830	1545.789	1478.652
595.109	18.917	1544.863	1478.333
596.123	18.915	1543.210	1476.556
597.138	18.810	1542.691	1474.983
598.153	18.836	1541.257	1473.662
599.167	18.658	1540.092	1470.831
600.182	18.791	1539.079	1470.839
601.196	18.794	1538.612	1470.239
602.211	18.808	1537.527	1469.146
603.226	18.680	1535.796	1466.214
604.240	18.693	1534.204	1464.631
605.255	18.748	1532.957	1463.737
606.269	18.848	1531.990	1463.497
607.284	18.807	1530.661	1461.703
608.299	18.719	1529.443	1459.611
609.313	18.766	1528.324	1458.769
610.328	18.681	1527.458	1457.039
611.342	18.646	1526.010	1455.188
612.357	18.541	1525.208	1453.353
613.372	18.678	1524.322	1453.508
614.386	18.704	1523.063	1452.349
615.401	18.705	1522.688	1451.825
616.415	18.626	1521.786	1450.122
617.430	18.569	1520.741	1448.467
618.445	18.689	1519.146	1447.791
619.459	18.721	1517.354	1446.188
620.474	18.576	1517.034	1444.477
621.488	18.673	1516.103	1444.238
622.503	18.747	1514.696	1443.354
623.518	18.655	1513.806	1441.553
624.532	18.648	1512.328	1439.918
625.547	18.537	1510.653	1437.215
626.561	18.772	1509.349	1437.777
627.576	18.685	1508.755	1436.308
628.591	18.743	1507.810	1435.728
629.605	18.732	1506.517	1434.233
630.620	18.683	1506.134	1433.281
631.634	18.833	1504.234	1432.557
632.649	18.937	1502.963	1432.043
633.663	18.715	1501.598	1428.719
634.678	18.608	1501.582	1427.637
635.693	18.490	1499.763	1424.748
636.707	18.512	1497.817	1422.917
637.722	18.651	1496.234	1422.398
638.736	18.638	1495.840	1421.750
639.751	18.723	1494.821	1421.318
640.766	18.688	1493.702	1419.792
641.780	18.641	1492.646	1418.227
642.795	18.798	1491.361	1418.139
643.809	18.602	1490.950	1415.955
644.824	18.673	1490.026	1415.491
645.839	18.669	1489.508	1414.796
646.853	18.713	1487.282	1412.877
647.868	18.849	1485.076	1411.734
648.882	18.900	1484.274	1411.230
649.897	18.758	1483.653	1409.294
650.912	18.818	1482.149	1408.191
651.926	18.890	1480.472	1407.021
652.941	18.821	1479.804	1405.655
653.955	18.751	1478.866	1404.017
654.970	18.773	1477.099	1402.358
655.985	18.730	1475.742	1400.547
656.999	18.790	1474.323	1399.526
658.014	18.840	1472.874	1398.389
659.028	18.618	1472.694	1396.234
660.043	18.797	1472.066	1396.937
661.058	18.763	1470.419	1394.931
662.072	18.701	1469.824	1393.693
663.087	18.851	1468.288	1393.292
664.101	18.839	1466.833	1391.641
665.116	18.640	1466.585	1389.622
666.131	18.672	1465.958	1389.120
667.145	18.769	1464.146	1388.028
668.160	18.662	1462.865	1385.779
669.174	18.688	1461.467	1384.496
670.189	18.668	1459.994	1382.777
671.204	18.815	1459.455	1383.290
672.218	18.651	1458.952	1381.317
673.233	18.581	1457.720	1379.422
674.247	18.634	1456.322	1378.362
675.262	18.668	1455.076	1377.296
676.276	18.624	1453.829	1375.591
677.291	18.662	1452.851	1374.810
678.306	18.868	1451.793	1375.302
679.320	18.740	1450.592	1372.968
680.335	18.652	1450.673	1372.174
681.349	18.727	1449.541	1371.538
682.364	18.685	1448.557	1370.108
683.379	18.566	1447.137	1367.644
684.393	18.534	1446.003	1366.155
685.408	18.637	1444.372	1365.277
686.422	18.594	1443.410	1363.862
687.437	18.478	1442.881	1362.271
688.452	18.544	1442.525	1362.297
689.466	18.593	1440.771	1360.872
690.481	18.597	1439.181	1359.235
691.495	18.571	1438.761	1358.467
692.510	18.653	1437.852	1358.104
693.525	18.760	1436.527	1357.534
694.539	18.648	1434.961	1355.007
695.554	18.508	1434.236	1353.046
696.568	18.415	1433.313	1351.282
697.583	18.316	1432.567	1349.629
698.598	18.545	1431.105	1349.899
699.612	18.648	1429.761	1349.286
700.627	18.541	1429.282	1347.831
701.641	18.637	1427.546	1346.787
702.656	18.662	1426.427	1345.769
703.671	18.693	1426.067	1345.514
704.685	18.601	1425.378	1343.972
705.700	18.625	1423.880	1342.590
706.714	18.731	1422.582	1342.041
707.729	18.699	1421.645	1340.745
708.744	18.680	1420.257	1339.125
709.758	18.589	1419.238	1337.288
710.773	18.680	1418.373	1337.025
711.787	18.798	1416.694	1336.210
712.802	18.644	1415.758	1333.966
713.816	18.653	1414.611	1332.796
714.831	18.775	1413.886	1332.902
715.846	18.660	1412.049	1330.112
716.860	18.825	1410.572	1329.848
717.875	18.805	1409.791	1328.795
718.889	18.675	1409.459	1327.311
719.904	18.615	1408.268	1325.566
720.919	18.724	1406.936	1325.004
721.933	18.831	1405.434	1324.254
722.948	18.753	1404.751	1322.851
723.962	18.756	1403.574	1321.610
724.977	18.745	1402.405	1320.262
725.992	18.560	1402.385	1318.654
727.006	18.633	1400.534	1317.324
728.021	18.746	1398.895	1316.496
729.035	18.727	1397.684	1315.051
730.050	18.789	1396.365	1314.132
731.065	18.925	1395.148	1313.872
732.079	18.882	1394.411	1312.688
733.094	18.775	1393.672	1311.017
734.108	18.670	1392.360	1308.817
735.123	18.612	1391.156	1307.090
736.138	18.682	1389.913	1306.297
737.152	18.852	1389.100	1306.676
738.167	18.673	1388.363	1304.456
739.181	18.748	1387.363	1303.937
740.196	18.678	1386.194	1302.146
741.211	18.465	1385.677	1299.879
742.225	18.638	1384.836	1300.257
743.240	18.540	1383.188	1297.810
744.254	18.713	1382.014	1297.865
745.269	18.632	1381.058	1296.196
746.284	18.663	1379.967	1295.253
747.298	18.610	1379.570	1294.325
748.313	18.693	1378.039	1293.364
749.327	18.591	1377.733	1292.143
750.342	18.659	1377.180	1291.988
751.356	18.785	1375.934	1291.615
752.371	18.744	1374.524	1289.832
753.386	18.668	1372.539	1287.238
754.400	18.801	1371.405	1287.021
755.415	18.714	1370.768	1285.619
756.429	18.608	1370.262	1284.194
757.444	18.595	1368.484	1282.269
758.459	18.657	1367.592	1281.746
759.473	18.732	1367.043	1281.640
760.488	18.834	1365.408	1280.724
761.502	18.825	1364.337	1279.498
762.517	18.678	1363.099	1277.086
763.532	18.628	1362.204	1275.720
764.546	18.652	1362.062	1275.611
765.561	18.681	1361.281	1274.948
766.575	18.839	1359.589	1274.383
767.590	18.904	1358.525	1273.721
768.605	18.781	1356.577	1270.823
769.619	18.678	1356.160	1269.515
770.634	18.724	1354.842	1268.476
771.648	18.670	1354.642	1267.733
772.663	18.702	1353.822	1267.051
773.678	18.730	1352.511	1265.884
774.692	18.727	1351.959	1265.190
775.707	18.641	1351.315	1263.801
776.721	18.643	1350.461	1262.864
777.736	18.744	1348.626	1261.740
778.751	18.639	1347.907	1260.144
779.765	18.617	1347.172	1259.146
780.780	18.700	1346.239	1258.733
781.794	18.639	1345.301	1257.258
782.809	18.598	1344.356	1255.920
783.824	18.490	1343.140	1253.840
784.838	18.444	1341.576	1251.894
785.853	18.566	1340.470	1251.607
786.867	18.576	1340.278	1251.351
787.882	18.549	1339.404	1250.185
788.897	18.516	1338.823	1249.249
789.911	18.481	1337.725	1247.824
790.926	18.628	1335.831	1246.983
791.940	18.482	1334.779	1244.780
792.955	18.502	1334.011	1244.064
793.969	18.593	1333.039	1243.670
794.984	18.584	1331.846	1242.344
795.999	18.670	1330.706	1241.758
797.013	18.815	1328.636	1240.730
798.028	18.639	1327.605	1238.345
799.042	18.815	1326.998	1238.904
800.057	18.672	1326.012	1236.798
801.072	18.691	1325.001	1235.845
802.086	18.726	1323.881	1234.905
803.101	18.684	1323.282	1233.895
804.115	18.700	1321.674	1232.362
805.130	18.737	1320.409	1231.301
806.145	18.866	1319.055	1230.825
807.159	18.822	1318.102	1229.466
808.174	18.937	1316.922	1229.045
809.188	18.685	1315.839	1226.081
810.203	18.874	1314.462	1226.006
811.218	18.702	1313.325	1223.565
812.232	18.700	1311.800	1221.984
813.247	18.656	1311.132	1220.901
814.261	18.730	1310.796	1220.974
815.276	18.785	1309.415	1219.935
816.291	18.811	1308.012	1218.665
817.305	18.711	1307.458	1217.289
818.320	18.744	1306.139	1216.152
819.334	18.564	1304.546	1213.243
820.349	18.734	1302.748	1212.635
821.364	18.687	1301.680	1211.157
822.378	18.817	1300.210	1210.568
823.393	18.813	1298.694	1208.986
824.407	18.722	1297.973	1207.525
825.422	18.729	1296.905	1206.439
826.437	18.619	1296.282	1204.935
827.451	18.616	1294.787	1203.383
828.466	18.628	1293.492	1202.114
829.480	18.584	1292.291	1200.545
830.495	18.420	1291.152	1198.190
831.509	18.476	1289.719	1197.116
832.524	18.500	1289.395	1196.839
833.539	18.642	1287.759	1196.168
834.553	18.724	1286.293	1195.240
835.568	18.651	1285.609	1193.947
836.582	18.631	1284.717	1192.837
837.597	18.762	1282.569	1191.616
838.612	18.840	1281.152	1190.697
839.626	18.684	1280.985	1189.315
840.641	18.784	1279.761	1188.735
841.655	18.728	1279.334	1187.802
842.670	18.858	1278.310	1187.613
843.685	18.752	1277.821	1186.284
844.699	18.829	1275.870	1184.860
845.714	18.710	1274.798	1182.899
846.728	18.801	1273.460	1182.146
847.743	18.809	1272.723	1181.378
848.758	18.847	1271.533	1180.392
849.772	18.612	1270.010	1177.221
850.787	18.604	1268.645	1175.754
851.801	18.809	1267.007	1175.509
852.816	18.686	1266.080	1173.664
853.831	18.592	1264.322	1171.246
854.845	18.671	1263.245	1170.650
855.860	18.677	1261.632	1169.055
856.874	18.641	1260.493	1167.618
857.889	18.671	1259.350	1166.623
858.904	18.703	1257.890	1165.348
859.918	18.717	1256.037	1163.588
860.933	18.674	1255.217	1162.394
861.947	18.743	1254.667	1162.216
862.962	18.584	1253.383	1159.810
863.977	18.561	1252.193	1158.412
864.991	18.586	1251.733	1158.015
866.006	18.765	1251.314	1158.707
867.020	18.815	1249.747	1157.451
868.035	18.625	1248.839	1155.189
869.049	18.667	1247.665	1154.245
870.064	18.936	1246.527	1154.874
871.079	18.777	1246.334	1153.486
872.093	18.786	1246.150	1153.236
873.108	18.756	1245.175	1151.992
874.122	18.802	1243.833	1150.925
875.137	18.887	1243.228	1150.800
876.152	19.088	1241.596	1150.502
877.166	18.976	1240.298	1148.410
878.181	18.800	1239.356	1146.220
879.195	18.802	1238.473	1145.280
880.210	18.832	1237.794	1144.714
881.225	18.792	1236.877	1143.459
882.239	18.799	1235.476	1142.077
883.254	18.819	1234.879	1141.518
884.268	18.779	1234.005	1140.312
885.283	18.790	1232.408	1138.770
886.298	18.718	1230.914	1136.772
887.312	18.803	1230.380	1136.709
888.327	19.134	1228.709	1137.230
889.341	19.129	1227.179	1135.645
890.356	18.811	1226.995	1133.232
891.371	18.905	1226.856	1133.591
892.385	18.833	1226.215	1132.381
893.400	18.840	1224.344	1130.562
894.414	18.774	1223.638	1129.345
895.429	18.776	1222.231	1127.922
896.444	18.814	1220.731	1126.653
897.458	18.825	1219.700	1125.638
898.473	18.665	1219.512	1124.278
899.487	18.771	1218.529	1123.931
900.502	18.822	1216.835	1122.573
901.517	18.926	1215.681	1122.057
902.531	18.851	1215.276	1121.056
903.546	18.862	1214.200	1120.001
904.560	18.860	1213.930	1119.606
905.575	18.888	1212.988	1118.787
906.589	19.000	1212.016	1118.483
907.604	19.053	1210.660	1117.448
