DTS Sentinel unit serial number:	SN409020Multiplexer serial number:	ORYXHardware model number:	OX4-SRSoftware version number:	ORYX F/W v3.00 Oryx Data Collector v3.7.2.0data status	okinstallation	HaddamTimeLapsedifferential loss correction	single-endedforward channel	channel 3reverse channel	N/Adate	2011/06/22time	09:56:17forward acquisition time	30.00reverse acquisition time	0.00gamma	498.7831k internal	0.1807k external	0.1807temperature offset calibration	1.0074default loss term (dB/km)	0.3790temperature slope calibration	1.3530multiplexer offset coefficient	1.0000multiplexer slope coefficient	1.0000fibre end	0.00T internal ref (°C)	28.56T ext. ref 1 (°C)	25.75T ext. ref 2 (°C)	0.20length (m)	temperature (°C)	Stokes	anti-Stokes-747.200	59.205	0.179	-0.227
-746.185	11.670	0.615	0.608
-745.171	-42.780	0.360	-0.235
-744.156	-3.954	0.342	0.305
-743.142	-200.000	0.074	-0.665
-742.127	-2.912	-0.158	0.142
-741.112	13.000	0.201	-0.200
-740.098	-200.000	-0.060	0.563
-739.083	-200.000	-0.007	0.195
-738.069	726.630	0.109	0.378
-737.054	50.239	-0.421	-0.512
-736.039	11.406	-0.157	0.155
-735.025	-200.000	-0.266	-0.001
-734.010	-145.610	-0.267	0.030
-732.996	-64.343	-0.186	-0.097
-731.981	-117.954	-0.354	-0.081
-730.966	800.000	-0.149	-0.547
-729.952	-94.541	-0.460	-0.160
-728.937	-82.628	-0.335	-0.139
-727.923	-81.363	-0.482	-0.203
-726.908	-117.558	0.240	0.055
-725.894	36.529	-0.106	0.120
-724.879	-38.301	-0.348	-0.237
-723.864	-128.415	-0.496	-0.090
-722.850	118.574	0.032	-0.051
-721.835	-114.135	0.150	0.037
-720.821	-82.468	0.159	0.066
-719.806	-16.381	0.190	-0.155
-718.791	31.434	-0.132	0.145
-717.777	-63.057	-0.259	0.137
-716.762	-139.655	0.535	0.073
-715.748	-157.729	-0.208	0.016
-714.733	800.000	-0.063	-0.294
-713.718	-67.829	0.285	0.143
-712.704	-105.583	-0.360	0.104
-711.689	326.220	0.134	-0.332
-710.675	100.570	-0.084	0.126
-709.660	528.855	-0.039	-0.120
-708.645	-88.260	0.255	0.097
-707.631	-17.495	-0.349	0.282
-706.616	-78.537	-0.235	0.103
-705.602	246.349	0.211	0.460
-704.587	-80.515	0.697	0.297
-703.572	-31.352	-0.186	0.135
-702.558	-32.023	0.046	0.033
-701.543	-113.206	-0.099	0.025
-700.529	-81.631	-0.481	0.202
-699.514	-147.986	-0.234	0.025
-698.499	-200.000	0.013	0.090
-697.485	-200.000	0.017	0.569
-696.470	-200.000	-0.015	0.566
-695.456	-142.894	-0.102	-0.013
-694.441	226.929	0.136	-0.285
-693.426	294.164	-0.047	0.111
-692.412	-23.189	0.636	0.491
-691.397	-200.000	0.002	-0.066
-690.383	-200.000	-0.028	-0.419
-689.368	123.987	0.018	-0.029
-688.354	166.836	0.230	-0.419
-687.339	-100.494	-0.374	0.118
-686.324	-90.347	-0.476	-0.176
-685.310	800.000	0.089	0.341
-684.295	-99.855	-0.287	-0.092
-683.281	-20.996	-0.244	-0.192
-682.266	35.688	0.190	-0.214
-681.251	-117.800	-0.039	-0.009
-680.237	568.384	-0.084	-0.262
-679.222	463.006	0.208	0.600
-678.208	661.041	-0.050	0.168
-677.193	-23.270	-0.315	0.243
-676.178	-7.064	-0.181	0.157
-675.164	519.972	0.091	-0.275
-674.149	-168.893	0.519	0.025
-673.135	-162.289	0.533	0.034
-672.120	-109.074	-0.650	0.176
-671.105	32.634	-0.508	0.564
-670.091	-66.012	-0.152	0.077
-669.076	178.516	-0.105	-0.198
-668.062	-200.000	0.006	0.282
-667.047	60.658	0.230	-0.292
-666.032	-200.000	0.056	0.340
-665.018	-130.628	0.730	0.125
-664.003	-39.462	-0.446	-0.299
-662.989	-84.758	-0.638	-0.256
-661.974	-147.688	-0.606	0.064
-660.959	-96.503	-0.422	-0.142
-659.945	-26.868	0.175	-0.131
-658.930	264.348	0.106	0.238
-657.916	800.000	-0.068	-0.291
-656.901	-117.760	-0.129	-0.029
-655.886	-171.976	0.544	0.022
-654.872	-116.372	-0.271	0.064
-653.857	242.056	-0.103	-0.222
-652.843	7.500	0.164	0.158
-651.828	-0.401	-0.297	-0.270
-650.814	-87.046	-0.203	-0.079
-649.799	-149.023	-0.387	0.039
-648.784	22.366	-0.172	0.180
-647.770	14.136	-0.387	-0.386
-646.755	-168.949	0.365	-0.017
-645.741	100.929	0.204	0.304
-644.726	-6.361	-0.133	0.116
-643.711	-32.773	-0.096	0.068
-642.697	-69.146	-0.417	0.205
-641.682	14.877	0.111	0.112
-640.668	31.973	0.148	-0.163
-639.653	38.348	-0.092	0.106
-638.638	111.376	-0.107	-0.166
-637.624	461.083	-0.100	0.287
-636.609	245.612	0.141	-0.305
-635.595	-117.275	-0.234	-0.054
-634.580	476.633	-0.028	-0.082
-633.565	-200.000	0.026	0.318
-632.551	800.000	0.069	0.277
-631.536	78.194	-0.197	-0.270
-630.522	93.660	-0.129	-0.187
-629.507	-40.299	0.153	-0.102
-628.492	-70.180	0.270	0.131
-627.478	-79.529	0.466	0.201
-626.463	28.613	0.088	-0.095
-625.449	-200.000	-0.019	0.160
-624.434	-130.451	-0.427	-0.073
-623.419	71.376	0.190	0.252
-622.405	-173.022	0.190	-0.007
-621.390	800.000	0.062	0.331
-620.376	-41.074	-0.225	0.148
-619.361	-17.192	0.125	-0.101
-618.346	-173.673	0.371	-0.014
-617.332	-121.593	-0.125	0.026
-616.317	-58.860	0.130	0.072
-615.303	-88.897	-0.596	0.225
-614.288	800.000	-0.085	0.327
-613.273	800.000	0.102	-0.423
-612.259	53.314	0.042	0.052
-611.244	-57.997	-0.343	0.191
-610.230	-75.645	-0.237	0.107
-609.215	11.466	0.173	0.170
-608.201	185.170	-0.102	-0.195
-607.186	-200.000	-0.016	0.477
-606.171	-93.799	0.081	-0.028
-605.157	-86.078	0.340	-0.134
-604.142	77.456	0.108	0.147
-603.128	-113.679	-0.310	0.077
-602.113	-110.113	0.252	0.067
-601.098	-87.679	-0.326	0.125
-600.084	93.538	-0.298	-0.433
-599.069	-89.370	0.354	-0.133
-598.055	800.000	0.131	-0.557
-597.040	152.491	-0.156	-0.273
-596.025	339.458	0.125	-0.314
-595.011	81.048	-0.465	-0.643
-593.996	101.382	0.112	-0.168
-592.982	189.140	-0.137	0.263
-591.967	-68.870	-0.276	0.136
-590.952	-166.784	-0.255	0.013
-589.938	-13.640	0.229	0.190
-588.923	-152.211	-0.414	-0.038
-587.909	800.000	-0.071	-0.306
-586.894	-82.565	0.300	-0.124
-585.879	400.953	0.175	-0.472
-584.865	-50.322	-0.279	-0.168
-583.850	-48.565	0.445	0.273
-582.836	-33.982	0.244	0.171
-581.821	800.000	-0.141	0.632
-580.806	-76.639	-0.648	0.289
-579.792	-155.435	0.382	0.031
-578.777	-100.018	-0.380	-0.120
-577.763	66.336	-0.097	0.126
-576.748	150.034	0.101	0.175
-575.733	-59.171	0.301	-0.165
-574.719	123.418	-0.221	-0.356
-573.704	-200.000	-0.012	-0.083
-572.690	800.000	0.039	0.198
-571.675	102.175	0.072	-0.108
-570.661	99.901	-0.236	0.350
-569.646	40.771	0.232	0.267
-568.631	-200.000	-0.005	-0.159
-567.617	51.815	0.158	-0.192
-566.602	25.319	0.084	0.089
-565.588	105.580	-0.139	-0.210
-564.573	-89.209	0.184	-0.069
-563.558	-200.000	0.056	-0.505
-562.544	800.000	-0.068	0.272
-561.529	-40.366	0.360	-0.238
-560.515	54.082	-0.127	0.156
-559.500	55.713	-0.066	0.082
-558.485	153.473	-0.143	0.251
-557.471	-101.933	-0.166	0.051
-556.456	170.498	0.173	0.317
-555.442	-49.807	-0.349	0.211
-554.427	-200.000	-0.063	-0.362
-553.412	-6.310	0.467	0.407
-552.398	-200.000	-0.021	0.255
-551.383	-91.640	-0.274	-0.099
-550.369	-75.472	0.597	0.271
-549.354	103.920	-0.170	-0.255
-548.339	203.498	-0.117	0.232
-547.325	-200.000	-0.002	0.564
-546.310	42.839	0.162	-0.188
-545.296	-169.291	-0.301	-0.014
-544.281	-54.864	-0.307	0.176
-543.266	-108.237	0.334	-0.092
-542.252	-102.148	0.225	0.069
-541.237	85.774	0.262	-0.368
-540.223	39.919	0.222	-0.255
-539.208	10.734	-0.291	-0.284
-538.193	280.771	0.166	-0.380
-537.179	397.965	-0.078	0.209
-536.164	-136.921	-0.054	0.008
-535.150	7.383	-0.263	-0.251
-534.135	-200.000	0.036	0.355
-533.121	16.611	-0.168	0.170
-532.106	-107.696	-0.419	-0.116
-531.091	-34.709	-0.317	-0.221
-530.077	405.341	0.153	-0.413
-529.062	347.286	0.108	-0.271
-528.048	55.778	0.313	-0.387
-527.033	-97.385	0.399	-0.132
-526.018	-200.000	0.018	0.271
-525.004	-72.160	0.327	0.154
-523.989	-33.321	-0.234	-0.165
-522.975	164.630	-0.084	0.151
-521.960	-4.725	0.172	0.152
-520.945	-45.263	-0.206	0.130
-519.931	-55.828	-0.268	0.152
-518.916	-29.352	-0.093	0.068
-517.902	-135.251	0.272	-0.041
-516.887	-19.529	-0.039	-0.031
-515.872	-31.271	-0.283	-0.203
-514.858	-132.272	0.457	0.075
-513.843	-71.986	0.108	-0.051
-512.829	-200.000	0.017	-0.615
-511.814	-10.930	-0.420	-0.353
-510.799	-20.403	-0.247	-0.194
-509.785	24.973	0.448	-0.474
-508.770	117.130	0.248	0.390
-507.756	20.699	0.164	-0.170
-506.741	-174.703	0.182	0.006
-505.726	311.418	0.046	0.110
-504.712	-75.549	0.479	0.216
-503.697	-70.628	0.298	-0.143
-502.683	-75.478	0.264	-0.119
-501.668	615.155	0.038	-0.122
-500.653	168.853	-0.095	0.173
-499.639	-122.327	-0.281	-0.058
-498.624	10.720	0.298	0.289
-497.610	52.383	0.335	0.408
-496.595	-129.436	-0.288	0.050
-495.581	800.000	-0.225	-0.798
-494.566	95.717	-0.194	-0.283
-493.551	-200.000	-0.007	-0.659
-492.537	-6.307	-0.303	-0.263
-491.522	396.717	-0.132	-0.352
-490.508	129.787	-0.164	0.267
-489.493	-18.130	-0.202	0.161
-488.478	42.926	0.156	-0.182
-487.464	-152.976	0.370	0.033
-486.449	-126.183	-0.196	0.037
-485.435	800.000	-0.048	0.187
-484.420	40.356	0.184	0.211
-483.405	122.748	0.033	0.053
-482.391	-44.706	0.034	-0.022
-481.376	-78.041	-0.438	-0.191
-480.362	-104.366	-0.529	-0.155
-479.347	47.052	-0.172	0.204
-478.332	-200.000	-0.023	0.465
-477.318	398.844	0.070	-0.189
-476.303	800.000	0.065	0.274
-475.289	800.000	-0.066	-0.279
-474.274	-99.896	0.227	-0.072
-473.259	715.684	0.134	-0.454
-472.245	405.891	0.153	-0.414
-471.230	-118.850	-0.393	-0.087
-470.216	43.442	0.231	0.269
-469.201	-200.000	-0.001	0.095
-468.186	-28.352	-0.186	-0.137
-467.172	316.308	-0.087	0.210
-466.157	-134.114	0.680	-0.106
-465.143	260.050	0.151	0.333
-464.128	800.000	-0.024	-0.096
-463.113	-101.039	0.106	-0.033
-462.099	63.964	0.397	-0.509
-461.084	456.897	-0.065	-0.184
-460.070	27.229	0.123	0.131
-459.055	-200.000	-0.034	0.422
-458.040	-77.109	-0.559	0.247
-457.026	-200.000	0.044	0.251
-456.011	-105.175	0.386	0.112
-454.997	-200.000	0.084	-0.494
-453.982	101.957	0.207	0.308
-452.968	-77.985	-0.434	0.189
-451.953	-8.205	0.173	0.148
-450.938	256.830	-0.103	-0.225
-449.924	-200.000	-0.003	-0.131
-448.909	-77.527	-0.407	0.179
-447.895	636.449	-0.081	0.263
-446.880	9.589	-0.023	0.022
-445.865	8.196	0.186	-0.178
-444.851	-154.673	0.249	0.021
-443.836	692.600	-0.144	0.483
-442.822	-130.164	-0.452	0.078
-441.807	-114.611	-0.449	0.109
-440.792	-83.175	0.602	-0.245
-439.778	-39.965	0.200	-0.133
-438.763	232.960	-0.131	-0.275
-437.749	34.825	0.262	0.292
-436.734	-61.773	0.449	0.239
-435.719	-98.414	0.271	0.088
-434.705	-72.462	-0.124	-0.058
-433.690	233.328	-0.063	0.132
-432.676	-0.746	-0.010	0.009
-431.661	-194.630	0.400	-0.004
-430.646	-200.000	-0.001	-0.062
-429.632	-71.807	-0.110	-0.052
-428.617	-22.446	0.097	-0.074
-427.603	-94.525	0.506	-0.174
-426.588	-124.655	0.219	0.043
-425.573	16.034	-0.072	-0.072
-424.559	800.000	-0.066	0.317
-423.544	276.642	0.108	0.246
-422.530	-129.070	-0.332	-0.059
-421.515	-157.187	-0.385	-0.029
-420.500	-102.599	-0.096	0.029
-419.486	-15.344	-0.050	0.040
-418.471	402.083	0.153	0.412
-417.457	-143.389	-0.261	0.031
-416.442	265.612	-0.128	0.284
-415.428	301.001	-0.163	0.384
-414.413	-65.525	0.520	-0.264
-413.398	175.467	-0.037	0.068
-412.384	-93.198	0.256	-0.090
-411.369	-61.591	0.375	-0.199
-410.355	135.425	-0.247	0.409
-409.340	54.260	0.373	-0.456
-408.325	15.980	0.215	-0.215
-407.311	-32.646	0.143	0.101
-406.296	-145.448	-0.104	0.012
-405.282	-161.663	0.125	-0.008
-404.267	-56.508	-0.184	-0.103
-403.252	-42.754	0.403	0.260
-402.238	66.722	0.064	0.083
-401.223	-12.842	0.127	0.105
-400.209	-69.589	0.172	-0.083
-399.194	-47.808	-0.283	-0.174
-398.179	-37.968	0.346	-0.233
-397.165	171.252	-0.336	-0.613
-396.150	-200.000	0.015	-0.163
-395.136	177.511	0.092	-0.170
-394.121	100.680	0.118	0.174
-393.106	-144.410	-0.306	-0.036
-392.092	-150.343	-0.262	-0.025
-391.077	-200.000	-0.001	-0.256
-390.063	-75.988	-0.689	0.308
-389.048	492.888	-0.054	0.158
-388.033	-200.000	0.011	-0.160
-387.019	32.807	-0.390	-0.428
-386.004	82.836	0.222	0.306
-384.990	-200.000	0.005	0.219
-383.975	800.000	-0.117	-0.518
-382.960	670.242	0.084	-0.277
-381.946	-200.000	0.010	-0.237
-380.931	-156.284	0.189	0.015
-379.917	130.704	-0.143	0.232
-378.902	372.623	0.197	-0.511
-377.888	122.119	0.294	-0.467
-376.873	-200.000	0.010	-0.276
-375.858	-200.000	-0.074	0.559
-374.844	-200.000	-0.021	0.339
-373.829	-58.671	0.181	0.099
-372.815	39.378	0.415	0.471
-371.800	195.141	-0.166	-0.320
-370.785	-105.888	-0.281	0.080
-369.771	93.934	0.164	0.237
-368.756	227.834	-0.141	0.291
-367.742	332.691	0.169	-0.417
-366.727	791.569	0.164	0.575
-365.712	4.303	-0.387	0.360
-364.698	-159.986	-0.578	-0.039
-363.683	-68.209	-0.514	-0.252
-362.669	-102.514	0.361	-0.109
-361.654	-34.343	0.050	-0.035
-360.639	-110.587	0.204	0.053
-359.625	-69.935	-0.370	0.178
-358.610	57.559	-0.259	0.321
-357.596	93.645	0.211	-0.303
-356.581	203.250	0.043	-0.084
-355.566	522.179	-0.127	0.379
-354.552	-39.406	0.135	0.090
-353.537	127.659	-0.133	0.215
-352.523	130.978	-0.224	-0.365
-351.508	-200.000	-0.027	0.397
-350.493	800.000	0.030	0.164
-349.479	343.923	-0.076	-0.190
-348.464	-98.277	-0.269	0.087
-347.450	79.982	-0.135	-0.184
-346.435	-9.037	0.293	-0.249
-345.420	79.399	0.178	0.243
-344.406	-57.441	-0.103	-0.057
-343.391	-18.461	0.108	-0.085
-342.377	-41.888	-0.209	0.135
-341.362	-200.000	-0.003	0.484
-340.348	-200.000	-0.029	0.240
-339.333	-14.101	-0.068	0.056
-338.318	-99.121	-0.163	0.052
-337.304	-74.487	0.336	0.153
-336.289	-134.063	0.150	0.023
-335.275	287.335	0.167	-0.385
-334.260	-13.806	-0.461	0.377
-333.245	-111.471	0.478	-0.122
-332.231	-41.146	-0.196	-0.128
-331.216	800.000	0.129	-0.453
-330.202	-107.769	0.402	-0.110
-329.187	-83.195	-0.167	0.068
-328.172	-52.299	-0.289	-0.169
-327.158	21.874	0.026	-0.027
-326.143	9.912	0.398	-0.382
-325.129	187.664	0.205	0.388
-324.114	684.347	0.243	-0.808
-323.099	48.250	-0.133	-0.157
-322.085	-94.431	-0.376	0.129
-321.070	-200.000	0.007	0.175
-320.056	-200.000	-0.083	-0.574
-319.041	608.923	-0.091	-0.289
-318.026	40.586	-0.295	-0.337
-317.012	57.853	0.337	0.417
-315.997	-16.278	0.543	0.436
-314.983	-107.805	0.312	0.085
-313.968	-1.223	-0.167	0.149
-312.953	-85.181	0.204	-0.080
-311.939	800.000	0.147	-0.537
-310.924	-200.000	-0.035	0.340
-309.910	-182.938	-0.414	-0.009
-308.895	-177.397	0.287	0.009
-307.880	-103.077	-0.282	0.084
-306.866	2.606	0.032	0.029
-305.851	-0.355	-0.088	-0.079
-304.837	-26.013	0.316	-0.235
-303.822	-71.417	0.103	-0.048
-302.807	-117.298	0.134	0.031
-301.793	54.351	-0.256	0.312
-300.778	800.000	-0.067	-0.307
-299.764	-42.355	0.111	-0.072
-298.749	-200.000	-0.029	-0.286
-297.735	-8.090	0.135	-0.115
-296.720	-200.000	0.027	-0.171
-295.705	-33.745	-0.192	0.134
-294.691	800.000	0.019	0.080
-293.676	-200.000	-0.002	0.192
-292.662	106.255	0.192	0.288
-291.647	-200.000	-0.049	-0.485
-290.632	-200.000	-0.262	0.002
-289.618	12.077	0.299	0.291
-288.603	283.082	-0.045	-0.102
-287.589	370.699	-0.163	0.420
-286.574	39.283	0.127	-0.144
-285.559	-42.160	-0.371	-0.239
-284.545	-103.887	-0.257	0.075
-283.530	-115.827	0.215	0.050
-282.516	169.027	-0.343	-0.621
-281.501	-114.160	-0.187	0.045
-280.486	-106.144	-0.326	0.092
-279.472	-50.799	-0.483	-0.287
-278.457	460.498	0.085	0.239
-277.443	-20.160	-0.183	-0.143
-276.428	-17.941	0.065	0.051
-275.413	134.396	-0.117	0.192
-274.399	-70.844	0.155	0.073
-273.384	280.118	0.084	-0.191
-272.370	-24.432	0.204	-0.153
-271.355	-200.000	-0.001	-0.556
-270.340	-14.833	-0.240	-0.194
-269.326	-68.387	0.147	-0.072
-268.311	-25.182	0.405	-0.303
-267.297	-39.126	0.384	0.254
-266.282	-200.000	0.037	-0.328
-265.267	-104.291	0.180	-0.052
-264.253	147.558	0.225	-0.384
-263.238	-129.082	-0.266	0.046
-262.224	-141.069	-0.547	-0.070
-261.209	34.242	0.154	-0.170
-260.195	170.419	-0.157	0.285
-259.180	-42.976	-0.152	-0.097
-258.165	-152.965	0.342	-0.030
-257.151	121.400	0.276	0.436
-256.136	13.874	-0.429	-0.421
-255.122	-37.848	-0.320	0.215
-254.107	41.224	-0.245	0.280
-253.092	-112.038	-0.218	0.055
-252.078	17.312	-0.251	0.252
-251.063	-115.822	0.303	-0.071
-250.049	21.046	0.405	0.415
-249.034	-107.815	-0.486	0.133
-248.019	-29.274	0.627	0.452
-247.005	328.445	0.177	0.430
-245.990	-89.761	0.128	-0.047
-244.976	-200.000	-0.026	-0.411
-243.961	-62.460	-0.097	-0.051
-242.946	84.063	-0.252	0.348
-241.932	-50.122	0.130	-0.078
-240.917	-107.114	0.377	-0.104
-239.903	-78.371	-0.609	-0.262
-238.888	-1.943	0.138	0.123
-237.873	255.638	-0.134	0.291
-236.859	239.138	-0.144	0.303
-235.844	-8.054	0.442	0.376
-234.830	-200.000	-0.043	0.312
-233.815	-48.087	-0.076	-0.046
-232.800	-153.316	-0.558	0.048
-231.786	-138.490	0.111	0.015
-230.771	348.477	-0.150	0.375
-229.757	107.481	0.250	-0.376
-228.742	-105.294	-0.270	0.077
-227.727	-44.994	-0.270	0.169
-226.713	274.503	-0.288	-0.646
-225.698	308.012	0.125	0.296
-224.684	294.276	0.189	0.437
-223.669	-97.331	-0.069	0.023
-222.655	311.479	0.150	-0.355
-221.640	800.000	0.027	0.137
-220.625	-119.282	0.442	-0.096
-219.611	-157.753	0.182	-0.013
-218.596	129.949	-0.218	0.353
-217.582	-45.934	0.535	-0.332
-216.567	335.527	0.083	0.204
-215.552	-28.325	0.240	0.174
-214.538	-2.822	-0.078	-0.068
-213.523	200.154	0.209	-0.405
-212.509	76.208	0.304	0.406
-211.494	-133.626	0.341	0.053
-210.479	-125.833	-0.408	-0.077
-209.465	459.329	-0.104	-0.295
-208.450	16.285	-0.168	0.167
-207.436	18.901	-0.050	0.050
-206.421	800.000	0.084	-0.392
-205.406	703.390	0.075	0.249
-204.392	-125.396	-0.375	0.071
-203.377	107.562	0.058	-0.087
-202.363	-163.055	0.395	-0.024
-201.348	-200.000	0.027	-0.409
-200.333	-200.000	-0.013	0.103
-199.319	-94.527	-0.207	0.071
-198.304	-133.454	-0.219	-0.034
-197.290	-11.470	-0.050	0.041
-196.275	-116.341	-0.248	-0.057
-195.260	-200.000	0.044	0.421
-194.246	-67.715	-0.081	0.040
-193.231	-2.969	0.333	0.293
-192.217	-48.165	0.273	0.166
-191.202	-137.676	0.416	-0.058
-190.187	-135.956	0.148	-0.022
-189.173	-168.573	-0.406	0.019
-188.158	-133.337	-0.395	-0.062
-187.144	-68.956	-0.315	-0.152
-186.129	-94.958	-0.112	-0.038
-185.114	88.242	-0.203	0.285
-184.100	-162.673	0.128	0.008
-183.085	800.000	0.038	-0.185
-182.071	-21.856	-0.250	-0.191
-181.056	-28.583	-0.300	0.217
-180.042	347.502	0.199	-0.497
-179.027	82.464	-0.126	0.172
-178.012	800.000	-0.057	0.250
-176.998	23.361	-0.076	0.078
-175.983	-94.183	0.152	0.052
-174.969	20.656	-0.029	-0.029
-173.954	-14.695	-0.229	0.185
-172.939	-53.141	0.123	-0.071
-171.925	111.324	0.175	-0.266
-170.910	216.908	0.274	-0.551
-169.896	206.880	0.029	-0.057
-168.881	30.753	-0.151	0.162
-167.866	-200.000	-0.042	0.342
-166.852	250.023	0.231	0.495
-165.837	-27.665	-0.311	0.227
-164.823	109.382	0.249	-0.375
-163.808	-200.000	-0.003	-0.147
-162.793	-41.919	0.431	-0.277
-161.779	-53.551	0.212	0.122
-160.764	105.092	-0.062	0.092
-159.750	-39.129	-0.229	0.151
-158.735	483.309	-0.116	0.334
-157.720	161.745	-0.187	-0.331
-156.706	-200.000	0.006	0.122
-155.691	-200.000	0.034	0.444
-154.677	15.795	0.155	0.153
-153.662	800.000	0.030	-0.149
-152.647	-200.000	-0.032	-0.180
-151.633	96.373	0.103	0.148
-150.618	368.806	-0.196	0.501
-149.604	111.326	-0.034	0.052
-148.589	800.000	0.072	0.295
-147.574	406.111	0.168	0.449
-146.560	-112.751	-0.457	0.113
-145.545	274.436	0.076	-0.170
-144.531	78.127	0.320	0.429
-143.516	206.080	0.118	0.232
-142.502	-110.052	0.241	-0.063
-141.487	800.000	-0.122	-0.545
-140.472	256.738	0.045	-0.097
-139.458	-21.049	0.193	0.148
-138.443	34.620	0.459	0.504
-137.429	-20.763	0.487	0.375
-136.414	-49.767	0.236	0.141
-135.399	403.667	-0.114	-0.302
-134.385	800.000	-0.063	0.340
-133.370	-37.749	-0.330	0.220
-132.356	-75.925	0.239	0.106
-131.341	-168.433	-0.329	-0.016
-130.326	221.503	-0.124	0.251
-129.312	-107.283	-0.080	-0.022
-128.297	-119.136	0.107	-0.023
-127.283	69.156	-0.219	0.283
-126.268	269.465	0.139	0.308
-125.253	-174.553	0.263	0.009
-124.239	-145.682	-0.727	0.081
-123.224	-7.342	-0.246	0.209
-122.210	-139.655	0.112	-0.015
-121.195	-141.612	0.252	0.032
-120.180	121.280	0.033	0.052
-119.166	233.585	-0.078	-0.162
-118.151	-65.254	0.416	-0.210
-117.137	-200.000	-0.016	-0.284
-116.122	426.754	0.157	-0.428
-115.107	32.490	-0.212	-0.230
-114.093	-101.156	-0.089	0.027
-113.078	-8.299	0.198	0.167
-112.064	-26.429	0.055	0.041
-111.049	170.701	0.120	-0.216
-110.034	-200.000	0.008	0.335
-109.020	-129.023	-0.420	-0.073
-108.005	195.188	-0.125	-0.239
-106.991	124.866	0.138	-0.218
-105.976	786.539	-0.121	0.419
-104.962	-162.068	-0.317	-0.020
-103.947	-76.160	-0.174	0.077
-102.932	800.000	0.072	0.385
-101.918	-92.506	0.331	0.116
-100.903	-200.000	-0.020	0.200
-99.889	7.247	0.122	0.115
-98.874	-161.316	-0.328	-0.021
-97.859	-200.000	0.013	0.093
-96.845	-66.502	-0.523	0.260
-95.830	-13.977	0.189	0.153
-94.816	-86.601	0.208	0.080
-93.801	96.930	0.231	0.332
-92.786	-146.009	-0.428	-0.047
-91.772	-200.000	-0.027	0.325
-90.757	198.793	0.042	-0.081
-89.743	23.558	0.144	-0.149
-88.728	113.772	0.202	-0.309
-87.713	-131.646	-0.533	0.087
-86.699	-200.000	0.022	-0.414
-85.684	-160.630	0.264	-0.017
-84.670	130.111	-0.111	-0.178
-83.655	800.000	-0.125	0.636
-82.640	-156.492	0.816	-0.063
-81.626	355.964	0.208	0.523
-80.611	1.192	0.204	0.184
-79.597	-141.363	0.189	0.024
-78.582	490.082	-0.179	0.517
-77.567	-124.199	-0.414	0.081
-76.553	445.140	-0.074	-0.206
-75.538	-58.919	0.272	0.147
-74.524	-48.872	0.416	-0.249
-73.509	800.000	0.057	0.217
-72.494	-16.765	-0.212	-0.168
-71.480	81.631	0.079	-0.108
-70.465	-165.723	0.580	-0.031
-69.451	188.819	0.079	0.149
-68.436	116.119	0.286	0.439
-67.422	-200.000	0.016	-0.177
-66.407	775.872	-0.147	0.505
-65.392	-147.687	-0.446	-0.046
-64.378	-104.673	0.441	0.126
-63.363	-200.000	0.011	-0.366
-62.349	29.239	-0.119	-0.127
-61.334	17.067	-1.971	-1.957
-60.319	88.001	1.062	1.477
-59.305	246.856	-3.182	-6.752
-58.290	47.339	3.466	4.048
-57.276	373.733	4.017	10.286
-56.261	-200.000	16.669	253.167
-55.246	441.638	1198.361	3302.036
-54.232	62.824	2813.459	3529.566
-53.217	71.542	2708.431	3527.673
-52.203	51.331	2442.786	2907.331
-51.188	38.228	2099.942	2342.646
-50.173	31.273	1979.331	2128.663
-49.159	29.425	1969.537	2096.963
-48.144	29.097	1964.535	2087.816
-47.130	28.911	1962.646	2083.601
-46.115	28.793	1961.730	2081.211
-45.100	28.798	1959.573	2078.888
-44.086	28.840	1958.065	2077.692
-43.071	28.962	1955.961	2076.761
-42.057	28.785	1954.392	2073.003
-41.042	28.733	1953.359	2071.233
-40.027	28.633	1952.584	2069.198
-39.013	28.840	1949.728	2068.431
-37.998	28.730	1948.725	2066.041
-36.984	28.715	1947.265	2064.239
-35.969	28.844	1946.486	2064.795
-34.954	28.620	1945.793	2061.440
-33.940	28.687	1944.569	2060.818
-32.925	28.684	1942.768	2058.798
-31.911	28.676	1941.192	2056.958
-30.896	28.501	1941.272	2054.984
-29.881	28.651	1938.617	2053.778
-28.867	28.579	1937.970	2052.203
-27.852	28.556	1936.261	2050.053
-26.838	28.633	1934.215	2048.670
-25.823	28.526	1933.783	2046.931
-24.809	28.661	1931.615	2046.068
-23.794	28.569	1931.154	2044.468
-22.779	28.533	1929.157	2041.876
-21.765	28.530	1928.137	2040.676
-20.750	28.703	1926.324	2040.610
-19.736	28.624	1925.211	2038.471
-18.721	28.542	1923.639	2035.803
-17.706	28.529	1922.194	2034.054
-16.692	28.465	1921.723	2032.765
-15.677	28.429	1921.536	2032.085
-14.663	28.503	1919.441	2030.603
-13.648	28.457	1918.505	2029.030
-12.633	28.369	1917.114	2026.492
-11.619	28.387	1915.686	2025.106
-10.604	28.487	1913.847	2024.189
-9.590	28.486	1912.504	2022.675
-8.575	28.479	1911.621	2021.589
-7.560	28.419	1911.139	2020.332
-6.546	28.498	1909.709	2019.619
-5.531	28.423	1908.262	2017.181
-4.517	28.493	1906.675	2016.189
-3.502	28.422	1906.747	2015.401
-2.487	28.532	1905.142	2014.842
-1.473	28.524	1901.972	2011.324
-0.458	28.717	1884.323	1994.689
0.556	25.834	2028.669	2101.187
1.571	25.392	2242.108	2316.246
2.586	26.657	2287.152	2379.214
3.600	26.705	2290.463	2383.000
4.615	26.687	2289.860	2381.860
5.629	26.823	2287.621	2381.039
6.644	26.814	2285.204	2378.117
7.659	26.857	2283.688	2376.821
8.673	26.930	2281.841	2375.573
9.688	26.323	2288.064	2373.755
10.702	24.405	2363.947	2425.997
11.717	22.689	2430.955	2470.331
12.731	11.809	2401.667	2288.139
13.746	1.845	2374.889	2123.334
14.761	0.451	2369.260	2098.562
15.775	0.166	2368.384	2093.548
16.790	0.285	2366.232	2093.061
17.804	0.173	2365.245	2090.365
18.819	0.240	2363.443	2089.468
19.834	0.217	2361.912	2087.540
20.848	0.190	2360.497	2085.662
21.863	0.198	2358.754	2083.981
22.877	0.141	2357.127	2081.508
23.892	0.180	2354.238	2079.252
24.907	0.089	2351.631	2075.429
25.921	0.150	2350.087	2074.669
26.936	0.128	2348.330	2072.564
27.950	0.198	2345.233	2070.553
28.965	0.229	2343.435	2069.148
29.980	0.119	2342.670	2066.701
30.994	0.324	2339.906	2066.843
32.009	5.792	2360.054	2160.264
33.023	20.432	2405.240	2406.662
34.038	28.492	2423.211	2536.944
35.053	30.479	2426.092	2567.292
36.067	30.491	2421.083	2561.856
37.082	29.381	2417.505	2542.391
38.096	28.989	2414.407	2533.401
39.111	29.465	2413.641	2538.879
40.126	30.662	2416.134	2557.756
41.140	31.876	2417.236	2575.384
42.155	31.253	2413.248	2562.240
43.169	30.655	2411.064	2551.372
44.184	31.009	2410.023	2554.844
45.199	30.773	2406.440	2547.488
46.213	30.172	2402.843	2535.122
47.228	30.109	2402.136	2533.203
48.242	30.490	2402.052	2538.042
49.257	31.104	2401.004	2545.065
50.271	31.514	2400.169	2549.495
51.286	31.493	2398.048	2546.637
52.301	30.952	2394.692	2535.386
53.315	29.372	2387.309	2505.708
54.330	25.900	2375.540	2445.778
55.344	23.862	2366.824	2408.786
56.359	23.624	2362.542	2400.911
57.374	23.329	2360.200	2394.233
58.388	23.429	2356.740	2391.793
59.403	23.691	2355.073	2393.373
60.417	24.029	2354.548	2397.123
61.432	24.302	2352.557	2398.509
62.447	24.254	2349.416	2394.372
63.461	23.989	2347.165	2388.216
64.476	23.821	2345.385	2383.843
65.490	24.550	2345.680	2393.694
66.505	25.705	2350.580	2413.980
67.520	28.038	2357.062	2451.842
68.534	29.669	2360.086	2476.682
69.549	30.680	2359.747	2489.647
70.563	31.184	2357.792	2494.051
71.578	31.108	2355.582	2490.395
72.593	31.244	2353.561	2489.788
73.607	31.364	2352.774	2490.261
74.622	31.565	2351.360	2491.160
75.636	31.304	2347.635	2483.419
76.651	31.360	2345.154	2481.253
77.666	31.499	2343.259	2480.802
78.680	31.752	2341.860	2482.399
79.695	32.073	2343.163	2487.754
80.709	32.505	2343.014	2493.048
81.724	32.631	2341.318	2492.622
82.739	32.542	2337.186	2486.746
83.753	32.273	2335.515	2481.099
84.768	31.983	2332.206	2473.448
85.782	31.607	2330.422	2466.276
86.797	31.712	2328.788	2465.644
87.812	31.577	2326.524	2461.164
88.826	31.345	2323.439	2454.547
89.841	31.405	2321.916	2453.435
90.855	31.604	2320.244	2453.994
91.870	31.233	2317.390	2445.796
92.884	31.391	2315.396	2445.485
93.899	31.575	2315.951	2448.193
94.914	30.280	2310.509	2425.151
95.928	26.784	2298.631	2366.616
96.943	25.434	2294.020	2343.890
97.957	28.210	2301.824	2388.047
98.972	30.504	2305.340	2421.496
99.987	30.587	2302.409	2419.211
101.001	30.758	2300.289	2418.939
102.016	30.871	2298.668	2418.410
103.030	31.032	2296.297	2417.735
104.045	31.294	2294.720	2419.185
105.060	31.768	2293.792	2424.093
106.074	31.755	2293.158	2422.964
107.089	31.511	2290.457	2416.653
108.103	31.639	2289.905	2417.430
109.118	31.979	2287.176	2418.668
110.133	31.982	2287.437	2418.695
111.147	32.385	2285.744	2421.837
112.162	32.233	2284.446	2418.200
113.176	31.593	2280.271	2405.223
114.191	31.456	2277.297	2400.044
115.206	31.612	2275.936	2400.332
116.220	31.589	2273.538	2397.217
117.235	31.366	2271.766	2392.190
118.249	31.175	2269.886	2387.468
119.264	31.556	2268.850	2390.992
120.279	31.847	2266.881	2392.363
121.293	31.469	2265.178	2385.434
122.308	31.550	2264.252	2385.205
123.322	31.430	2262.082	2381.102
124.337	30.258	2255.864	2359.293
125.352	27.159	2244.745	2307.906
126.366	26.476	2244.142	2298.288
127.381	29.495	2250.115	2342.709
128.395	30.895	2251.482	2361.715
129.410	31.364	2250.364	2366.226
130.424	31.677	2249.480	2368.993
131.439	31.580	2247.351	2365.231
132.454	31.296	2246.142	2360.069
133.468	31.442	2243.550	2358.922
134.483	31.424	2241.182	2355.921
135.497	31.354	2239.099	2352.557
136.512	31.446	2237.478	2351.737
137.527	31.547	2235.274	2350.417
138.541	31.397	2235.524	2348.503
139.556	31.369	2233.560	2345.801
140.570	31.485	2232.225	2345.581
141.585	31.589	2232.427	2346.827
142.600	31.684	2229.220	2344.373
143.614	31.408	2226.699	2337.972
144.629	31.460	2226.044	2337.658
145.643	31.225	2222.925	2331.151
146.658	30.972	2221.360	2326.057
147.673	31.188	2220.507	2327.596
148.687	31.475	2218.489	2328.799
149.702	31.201	2216.304	2322.798
150.716	30.923	2214.518	2317.173
151.731	31.037	2214.164	2317.946
152.746	31.312	2212.957	2319.844
153.760	29.930	2206.554	2295.636
154.775	26.264	2195.365	2238.172
155.789	24.822	2192.048	2216.574
156.804	27.731	2197.741	2258.316
157.819	30.355	2199.857	2292.851
158.833	31.064	2199.666	2301.178
159.848	31.490	2198.557	2305.024
160.862	31.555	2197.256	2304.186
161.877	31.601	2196.766	2303.964
162.892	31.628	2196.226	2303.450
163.906	31.765	2194.987	2303.569
164.921	31.697	2193.223	2300.601
165.935	31.695	2189.328	2296.218
166.950	31.436	2187.565	2290.905
167.964	31.437	2184.911	2287.868
168.979	31.512	2184.338	2287.920
169.994	31.825	2183.434	2290.532
171.008	31.955	2182.265	2290.631
172.023	31.853	2180.332	2287.080
173.037	31.867	2180.068	2286.701
174.052	31.753	2177.519	2282.358
175.067	31.637	2175.202	2278.233
176.081	31.438	2173.926	2274.189
177.096	31.331	2171.949	2270.544
178.110	31.209	2168.515	2265.193
179.125	31.353	2166.599	2264.678
180.140	31.615	2167.853	2268.910
181.154	31.469	2165.561	2264.460
182.169	30.841	2163.015	2253.897
183.183	29.643	2156.812	2232.623
184.198	25.982	2144.657	2175.474
185.213	25.289	2145.190	2167.338
186.227	29.272	2153.895	2224.303
187.242	31.109	2156.516	2249.020
188.256	31.316	2155.522	2250.230
189.271	31.628	2154.657	2252.826
190.286	31.860	2153.665	2254.321
191.300	31.667	2149.863	2247.742
192.315	31.518	2148.417	2244.170
193.329	31.697	2148.498	2246.140
194.344	31.980	2147.113	2247.830
195.359	32.160	2146.391	2248.973
196.373	32.263	2143.813	2247.243
197.388	32.071	2141.229	2241.961
198.402	31.965	2138.289	2237.344
199.417	31.605	2135.753	2230.118
200.432	31.580	2133.579	2227.283
201.446	31.521	2132.996	2225.701
202.461	31.465	2131.403	2223.103
203.475	31.282	2128.015	2217.121
204.490	31.205	2125.649	2213.463
205.504	31.300	2123.175	2211.752
206.519	31.010	2121.055	2205.836
207.534	30.835	2119.420	2201.795
208.548	30.931	2118.301	2201.503
209.563	30.726	2117.276	2197.750
210.577	30.509	2114.603	2192.129
211.592	30.719	2114.631	2194.391
212.607	29.261	2107.338	2169.323
213.621	25.031	2096.204	2107.709
214.636	24.972	2097.443	2108.008
215.650	28.900	2105.127	2161.999
216.665	30.426	2106.501	2181.187
217.680	30.832	2105.172	2184.337
218.694	31.083	2104.837	2186.681
219.709	31.292	2102.949	2186.917
220.723	31.250	2102.457	2185.653
221.738	31.313	2100.858	2184.475
222.753	31.260	2099.221	2181.881
223.767	31.163	2096.464	2177.619
224.782	30.794	2093.451	2169.905
225.796	30.797	2092.664	2168.869
226.811	31.161	2092.345	2172.538
227.826	31.583	2091.291	2176.120
228.840	31.817	2089.977	2177.217
229.855	31.548	2088.579	2172.365
230.869	31.541	2087.926	2171.343
231.884	31.340	2085.490	2166.208
232.899	31.356	2083.123	2163.678
233.913	31.484	2081.497	2163.214
234.928	31.462	2080.857	2162.035
235.942	31.617	2079.678	2162.353
236.957	31.814	2077.809	2162.433
237.972	31.741	2076.465	2159.935
238.986	31.832	2075.551	2159.774
240.001	31.784	2073.237	2156.554
241.015	31.299	2071.276	2148.648
242.030	30.301	2066.594	2132.025
243.045	27.009	2055.486	2082.422
244.059	26.153	2055.207	2072.019
245.074	29.677	2061.485	2118.800
246.088	31.304	2062.425	2138.249
247.103	31.486	2061.118	2138.732
248.117	31.355	2060.968	2136.816
249.132	31.848	2058.626	2139.783
250.147	31.658	2055.656	2134.269
251.161	31.210	2053.637	2126.788
252.176	31.167	2051.605	2123.940
253.190	29.995	2045.574	2104.067
254.205	28.563	2041.009	2082.790
255.220	28.497	2040.489	2081.257
256.234	29.165	2041.242	2089.394
257.249	29.359	2040.977	2091.089
258.263	29.262	2038.159	2086.841
259.278	28.559	2034.936	2075.300
260.293	28.185	2033.881	2069.726
261.307	29.886	2036.291	2091.276
262.322	31.110	2036.475	2105.102
263.336	31.141	2034.565	2103.225
264.351	31.003	2033.872	2100.695
265.366	31.210	2032.742	2101.623
266.380	31.265	2032.248	2101.478
267.395	30.883	2029.589	2094.157
268.409	30.889	2027.379	2091.703
269.424	31.247	2027.516	2095.627
270.439	31.276	2026.132	2094.269
271.453	29.853	2018.663	2070.314
272.468	26.118	2006.957	2016.212
273.482	25.360	2007.845	2008.349
274.497	28.801	2013.171	2052.135
275.512	30.605	2013.322	2072.276
276.526	30.817	2012.553	2073.609
277.541	30.784	2010.609	2070.984
278.555	30.944	2009.750	2071.645
279.570	30.767	2007.820	2067.435
280.585	30.718	2006.132	2064.899
281.599	30.850	2005.855	2065.833
282.614	30.421	2002.432	2057.292
283.628	28.958	1996.877	2035.079
284.643	28.420	1995.775	2027.725
285.657	28.753	1994.769	2030.172
286.672	28.512	1991.661	2024.088
287.687	28.024	1989.169	2015.902
288.701	27.753	1987.611	2011.087
289.716	27.657	1986.125	2008.272
290.730	27.999	1985.373	2011.059
291.745	28.605	1985.744	2017.894
292.760	28.816	1983.840	2018.047
293.774	28.937	1984.770	2020.088
294.789	30.436	1987.373	2039.046
295.803	31.342	1986.456	2047.857
296.818	31.377	1986.213	2047.739
297.833	31.431	1985.666	2047.525
298.847	31.620	1984.864	2048.529
299.862	31.756	1982.397	2047.241
300.876	30.578	1976.746	2028.251
301.891	26.852	1964.612	1974.865
302.906	25.800	1965.309	1963.800
303.920	29.993	1974.342	2018.640
304.935	31.585	1973.714	2035.184
305.949	31.533	1972.517	2033.138
306.964	31.929	1971.832	2036.510
307.979	31.867	1969.188	2032.862
308.993	30.647	1964.075	2014.067
310.008	29.389	1958.495	1994.439
311.022	28.870	1956.799	1986.836
312.037	28.969	1955.239	1986.092
313.052	28.271	1951.599	1974.590
314.066	27.357	1948.376	1961.199
315.081	27.194	1946.155	1956.967
316.095	26.699	1945.285	1950.506
317.110	26.886	1944.183	1951.187
318.125	27.703	1943.630	1959.225
319.139	28.319	1945.412	1967.436
320.154	28.918	1945.002	1973.254
321.168	28.988	1943.575	1972.319
322.183	29.662	1944.924	1980.717
323.197	30.873	1946.212	1994.837
324.212	30.917	1945.020	1993.854
325.227	31.083	1943.236	1993.568
326.241	31.083	1940.601	1990.624
327.256	31.162	1939.500	1990.108
328.270	31.098	1938.545	1988.199
329.285	30.933	1938.272	1985.912
330.300	29.845	1933.058	1968.706
331.314	25.850	1921.827	1914.460
332.329	25.448	1921.977	1910.085
333.343	29.386	1929.235	1959.203
334.358	31.228	1930.827	1980.247
335.373	31.617	1929.871	1983.172
336.387	31.672	1927.958	1981.555
337.402	31.500	1926.768	1978.268
338.416	31.349	1924.935	1974.550
339.431	31.304	1923.201	1972.049
340.446	31.550	1920.798	1971.958
341.460	30.250	1915.964	1953.010
342.475	28.662	1909.867	1929.797
343.489	28.178	1907.727	1922.295
344.504	27.990	1906.378	1918.722
345.519	27.736	1904.925	1914.357
346.533	27.765	1901.553	1911.038
347.548	27.809	1901.997	1911.718
348.562	28.144	1901.202	1914.218
349.577	28.245	1900.004	1913.846
350.592	27.868	1897.800	1907.443
351.606	27.806	1896.873	1905.627
352.621	27.957	1895.676	1905.776
353.635	29.222	1898.662	1921.828
354.650	30.341	1900.020	1934.695
355.665	30.835	1899.278	1938.886
356.679	31.396	1898.564	1943.790
357.694	31.575	1897.715	1944.553
358.708	31.873	1897.415	1947.134
359.723	30.610	1890.615	1926.775
360.738	26.179	1879.870	1869.595
361.752	26.424	1882.206	1874.246
362.767	30.370	1889.134	1922.075
363.781	31.538	1888.942	1933.793
364.796	31.778	1887.791	1934.881
365.810	31.710	1886.672	1932.790
366.825	31.811	1885.280	1932.179
367.840	32.017	1884.355	1933.139
368.854	31.236	1882.312	1922.725
369.869	29.737	1877.318	1901.906
370.883	28.714	1872.487	1886.230
371.898	27.984	1868.624	1874.588
372.913	27.819	1868.195	1872.234
373.927	28.366	1867.339	1876.790
374.942	28.227	1866.212	1873.995
375.956	28.182	1863.867	1870.957
376.971	27.718	1860.043	1862.138
377.986	27.035	1858.292	1853.163
379.000	27.949	1860.819	1864.837
380.015	30.094	1864.042	1889.863
381.029	31.055	1864.034	1899.469
382.044	31.329	1862.723	1900.704
383.059	31.645	1861.555	1902.519
384.073	31.383	1859.522	1897.540
385.088	30.948	1857.127	1890.431
386.102	30.717	1855.791	1886.489
387.117	30.884	1854.410	1886.559
388.132	30.884	1854.213	1886.138
389.146	30.013	1849.446	1872.213
390.161	25.989	1839.299	1820.968
391.175	25.545	1838.308	1815.262
392.190	29.395	1842.460	1858.217
393.205	30.601	1843.479	1871.228
394.219	30.813	1842.290	1871.948
395.234	30.682	1841.845	1869.949
396.248	30.796	1839.562	1868.552
397.263	30.778	1836.380	1864.915
398.278	30.651	1834.780	1861.786
399.292	30.689	1832.856	1859.999
400.307	31.020	1833.690	1863.947
401.321	30.643	1831.568	1857.786
402.336	28.723	1824.946	1831.615
403.350	27.419	1821.184	1814.565
404.365	27.633	1821.271	1816.585
405.380	27.870	1818.885	1816.353
406.394	27.027	1816.318	1805.153
407.409	26.652	1814.294	1799.187
408.423	26.603	1812.500	1796.697
409.438	27.039	1812.641	1800.973
410.453	28.490	1815.512	1818.079
411.467	29.815	1816.888	1832.448
412.482	30.722	1817.048	1841.418
413.496	31.323	1817.998	1848.137
414.511	31.328	1816.477	1846.418
415.526	31.393	1814.269	1844.597
416.540	31.915	1814.084	1849.358
417.555	31.858	1812.352	1846.811
418.569	31.212	1811.567	1839.395
419.584	31.274	1812.144	1840.379
420.599	31.185	1810.114	1837.212
421.613	30.856	1808.484	1832.085
422.628	31.111	1808.293	1834.190
423.642	31.647	1808.560	1839.535
424.657	31.592	1806.531	1836.715
425.672	31.028	1803.065	1827.417
426.686	31.503	1802.614	1831.416
427.701	32.031	1802.047	1835.811
428.715	32.054	1800.852	1834.600
429.730	32.278	1799.716	1835.421
430.745	32.327	1796.545	1832.450
431.759	31.076	1793.465	1816.851
432.774	29.115	1787.526	1791.458
433.788	26.657	1781.058	1760.780
434.803	25.862	1779.890	1751.646
435.818	25.816	1779.714	1750.819
436.832	25.932	1778.415	1750.463
437.847	24.763	1770.256	1730.859
438.861	14.539	1740.950	1603.686
439.876	2.786	1719.012	1470.575
440.890	0.406	1713.973	1443.218
441.905	0.314	1712.208	1440.672
442.920	0.262	1711.500	1439.408
443.934	0.193	1710.029	1437.331
444.949	0.176	1708.644	1435.839
445.963	0.277	1707.989	1436.078
446.978	0.143	1707.384	1434.120
447.993	0.276	1705.675	1433.782
449.007	0.136	1703.839	1430.732
450.022	0.152	1702.131	1429.273
451.036	0.261	1700.706	1428.945
452.051	0.689	1703.584	1435.280
453.066	9.472	1726.220	1538.865
454.080	21.342	1746.784	1671.802
455.095	24.479	1751.486	1706.290
456.109	25.224	1752.595	1714.327
457.124	25.395	1751.315	1714.513
458.139	25.331	1750.807	1713.191
459.153	25.271	1749.705	1711.342
460.168	25.284	1748.068	1709.659
461.182	25.407	1746.264	1708.860
462.197	25.568	1745.465	1709.413
463.212	25.747	1744.065	1709.546
464.226	25.958	1742.941	1710.256
465.241	25.791	1741.898	1707.438
466.255	25.771	1739.276	1704.472
467.270	25.781	1738.680	1703.774
468.285	25.937	1738.213	1704.599
469.299	26.134	1737.711	1705.770
470.314	26.163	1734.967	1703.152
471.328	26.167	1733.621	1701.659
472.343	26.206	1733.544	1701.748
473.358	26.134	1732.174	1699.520
474.372	26.163	1730.162	1697.617
475.387	26.237	1730.259	1698.211
476.401	26.044	1728.215	1694.183
477.416	25.710	1725.116	1687.794
478.430	25.411	1724.046	1683.725
479.445	25.992	1723.960	1688.914
480.460	26.350	1722.898	1691.033
481.474	26.242	1722.166	1689.102
482.489	26.115	1720.380	1685.952
483.503	25.808	1717.943	1680.485
484.518	25.687	1716.457	1677.694
485.533	25.598	1714.755	1675.001
486.547	25.326	1711.693	1669.271
487.562	24.674	1710.086	1661.413
488.576	24.908	1709.027	1662.363
489.591	25.136	1708.884	1664.156
490.606	25.591	1708.528	1667.847
491.620	25.858	1707.315	1668.956
492.635	25.404	1703.934	1661.226
493.649	24.996	1702.590	1655.935
494.664	25.608	1703.340	1662.150
495.679	26.074	1703.460	1666.391
496.693	26.141	1701.286	1664.693
497.708	25.920	1698.952	1660.158
498.722	25.542	1697.445	1654.991
499.737	25.485	1696.047	1652.902
500.752	25.791	1695.285	1654.793
501.766	25.951	1694.004	1654.823
502.781	25.774	1692.127	1651.155
503.795	25.760	1691.149	1649.876
504.810	25.678	1689.998	1647.797
505.825	25.477	1688.250	1644.048
506.839	25.396	1686.778	1641.673
507.854	25.432	1685.451	1640.521
508.868	25.305	1683.288	1637.051
509.883	25.171	1681.720	1634.103
510.898	25.000	1680.037	1630.706
511.912	25.029	1679.001	1629.773
512.927	25.159	1677.252	1629.072
513.941	24.981	1675.815	1625.854
514.956	25.002	1675.214	1625.268
515.971	25.038	1674.503	1624.711
516.985	24.866	1672.180	1620.699
518.000	24.808	1671.098	1618.922
519.014	24.550	1669.800	1615.127
520.029	24.469	1668.296	1612.749
521.043	24.622	1666.847	1612.545
522.058	24.985	1665.884	1614.702
523.073	24.809	1665.465	1612.508
524.087	24.475	1663.586	1607.479
525.102	24.583	1663.135	1607.827
526.116	25.404	1662.609	1614.544
527.131	25.666	1661.714	1615.849
528.146	25.250	1660.284	1610.514
529.160	24.913	1658.958	1605.995
530.175	25.066	1656.917	1605.208
531.189	25.047	1655.309	1603.285
532.204	24.891	1653.722	1600.151
533.219	25.316	1653.569	1603.633
534.233	25.710	1653.997	1607.391
535.248	25.372	1651.983	1602.214
536.262	24.542	1649.622	1592.297
537.277	24.627	1648.296	1591.584
538.292	24.802	1647.388	1592.083
539.306	24.819	1645.139	1589.873
540.321	24.571	1642.930	1585.337
541.335	24.341	1641.679	1581.886
542.350	24.568	1640.361	1582.448
543.365	24.586	1639.345	1581.438
544.379	24.585	1637.281	1579.254
545.394	24.434	1635.981	1576.470
546.408	24.938	1636.416	1581.174
547.423	25.543	1636.940	1586.855
548.438	25.767	1636.086	1587.823
549.452	25.482	1633.507	1582.616
550.467	25.464	1631.667	1580.480
551.481	25.392	1630.739	1578.757
552.496	24.939	1629.446	1573.312
553.511	24.461	1627.442	1566.978
554.525	24.587	1626.321	1566.824
555.540	24.446	1625.357	1564.463
556.554	24.375	1624.907	1563.219
557.569	24.465	1622.670	1561.665
558.583	24.643	1621.131	1561.559
559.598	24.787	1620.352	1561.886
560.613	24.651	1619.093	1559.294
561.627	24.446	1617.242	1555.534
562.642	24.057	1615.045	1549.833
563.656	23.725	1613.717	1545.462
564.671	23.668	1612.252	1543.383
565.686	23.815	1610.706	1542.999
566.700	24.050	1609.815	1544.012
567.715	24.163	1608.660	1543.699
568.729	24.188	1608.036	1543.132
569.744	24.334	1606.595	1542.837
570.759	24.349	1604.749	1541.007
571.773	24.113	1603.675	1537.749
572.788	23.906	1602.589	1534.727
573.802	24.136	1599.601	1533.670
574.817	23.888	1598.240	1530.036
575.832	23.531	1597.750	1526.297
576.846	23.640	1597.018	1526.361
577.861	24.271	1595.626	1530.290
578.875	24.241	1595.380	1529.611
579.890	24.118	1593.928	1526.982
580.905	24.101	1592.446	1525.229
581.919	24.032	1591.713	1523.752
582.934	23.838	1590.967	1521.187
583.948	23.825	1589.539	1519.523
584.963	23.815	1588.934	1518.678
585.978	24.352	1587.661	1521.889
586.992	24.125	1586.358	1518.510
588.007	23.639	1584.455	1512.349
589.021	23.803	1583.768	1512.917
590.036	23.895	1582.392	1512.203
591.051	23.810	1580.957	1509.926
592.065	23.556	1578.661	1505.385
593.080	23.645	1576.672	1504.068
594.094	23.624	1576.242	1503.298
595.109	24.319	1576.415	1509.199
596.123	25.026	1575.893	1514.529
597.138	24.682	1573.879	1509.495
598.153	24.333	1571.592	1504.160
599.167	24.190	1570.781	1501.995
600.182	24.030	1569.259	1499.002
601.196	24.179	1568.091	1498.970
602.211	24.222	1567.423	1498.512
603.226	23.741	1565.683	1492.613
604.240	23.688	1563.679	1490.075
605.255	23.621	1562.477	1488.187
606.269	23.500	1562.299	1486.816
607.284	23.635	1561.374	1486.897
608.299	23.555	1560.573	1485.280
609.313	23.777	1558.942	1485.414
610.328	23.734	1557.305	1483.320
611.342	23.636	1555.680	1480.772
612.357	23.509	1554.331	1478.250
613.372	23.600	1552.777	1477.354
614.386	23.511	1551.554	1475.266
615.401	23.326	1551.039	1473.057
616.415	23.344	1549.868	1471.919
617.430	23.201	1548.716	1469.456
618.445	22.988	1547.032	1465.909
619.459	23.118	1546.284	1466.107
620.474	23.562	1546.430	1469.765
621.488	23.783	1545.361	1470.411
622.503	24.141	1544.221	1472.127
623.518	23.537	1542.276	1465.086
624.532	23.080	1540.693	1459.614
625.547	22.939	1538.946	1456.615
626.561	22.819	1537.249	1453.842
627.576	22.764	1536.334	1452.348
628.591	23.109	1536.110	1454.811
629.605	23.421	1535.146	1456.305
630.620	23.490	1534.245	1455.845
631.634	23.711	1534.074	1457.328
632.649	23.520	1532.999	1454.560
633.663	23.083	1531.098	1448.982
634.678	22.888	1528.223	1444.485
635.693	22.667	1526.378	1440.755
636.707	22.703	1524.878	1439.463
637.722	22.664	1522.809	1437.019
638.736	22.740	1522.497	1437.175
639.751	22.748	1522.405	1436.983
640.766	23.196	1520.757	1438.915
641.780	23.054	1519.725	1436.610
642.795	23.064	1519.079	1435.908
643.809	23.199	1518.672	1436.453
644.824	23.140	1517.834	1435.006
645.839	23.316	1517.051	1435.525
646.853	23.344	1514.749	1433.407
647.868	23.243	1514.206	1431.902
648.882	23.202	1513.856	1431.061
649.897	23.281	1511.690	1429.483
650.912	23.251	1509.431	1426.936
651.926	23.064	1508.650	1424.513
652.941	23.188	1507.878	1424.618
653.955	23.076	1506.836	1422.555
654.970	23.329	1504.825	1422.525
655.985	23.151	1503.420	1419.599
656.999	23.082	1501.684	1417.233
658.014	22.972	1499.982	1414.570
659.028	22.869	1499.068	1412.711
660.043	23.076	1498.379	1413.555
661.058	23.033	1497.203	1411.933
662.072	22.738	1497.001	1409.203
663.087	23.156	1495.870	1411.322
664.101	23.164	1495.562	1410.928
665.116	23.176	1493.463	1408.876
666.131	22.933	1492.666	1406.007
667.145	23.108	1491.139	1405.803
668.160	22.965	1489.372	1402.830
669.174	22.913	1486.929	1399.941
670.189	22.772	1487.220	1398.927
671.204	22.948	1486.663	1399.634
672.218	23.037	1486.251	1399.788
673.233	22.940	1484.262	1396.979
674.247	22.694	1481.452	1392.216
675.262	22.621	1480.584	1390.655
676.276	22.706	1480.026	1390.636
677.291	22.848	1479.996	1391.568
678.306	23.120	1479.103	1392.711
679.320	23.086	1477.742	1390.992
680.335	22.714	1476.817	1387.018
681.349	22.727	1476.168	1386.346
682.364	22.758	1474.308	1384.679
683.379	22.575	1472.940	1381.785
684.393	22.574	1471.236	1380.010
685.408	22.445	1470.369	1378.020
686.422	22.585	1469.759	1378.385
687.437	22.332	1468.837	1375.367
688.452	22.143	1467.773	1372.720
689.466	22.320	1466.056	1372.340
690.481	22.330	1464.651	1370.939
691.495	22.533	1464.217	1371.958
692.510	22.974	1464.503	1375.514
693.525	23.292	1463.308	1376.712
694.539	22.873	1461.665	1371.732
695.554	22.384	1460.149	1366.330
696.568	22.160	1458.959	1363.304
697.583	22.094	1457.122	1360.908
698.598	22.068	1456.714	1360.161
699.612	22.052	1455.130	1358.396
700.627	22.212	1454.337	1358.740
701.641	22.450	1452.733	1358.925
702.656	22.494	1451.216	1357.685
703.671	22.407	1451.109	1356.744
704.685	22.330	1450.475	1355.395
705.700	22.576	1449.108	1355.856
706.714	22.541	1448.296	1354.662
707.729	22.746	1446.732	1354.623
708.744	22.659	1445.443	1352.580
709.758	22.634	1443.993	1350.872
710.773	22.529	1443.320	1349.273
711.787	22.622	1442.014	1348.603
712.802	22.496	1440.862	1346.396
713.816	22.698	1439.508	1346.521
714.831	22.553	1439.074	1344.844
715.846	22.382	1437.431	1341.837
716.860	22.392	1436.392	1340.784
717.875	22.318	1435.317	1339.052
718.889	22.507	1434.544	1339.614
719.904	22.437	1432.698	1337.196
720.919	22.394	1431.642	1335.725
721.933	22.188	1430.385	1332.818
722.948	22.273	1429.608	1332.586
723.962	22.131	1428.820	1330.611
724.977	22.084	1427.197	1328.578
725.992	22.075	1426.126	1327.359
727.006	22.266	1424.731	1327.352
728.021	22.384	1423.299	1326.747
729.035	22.192	1421.880	1323.815
730.050	22.142	1422.200	1323.580
731.065	22.175	1420.683	1322.252
732.079	22.077	1419.509	1320.262
733.094	22.251	1418.498	1320.478
734.108	22.396	1417.164	1320.175
735.123	22.271	1415.534	1317.556
736.138	22.267	1414.242	1316.161
737.152	22.287	1413.256	1315.243
738.167	22.020	1412.211	1312.101
739.181	22.161	1410.961	1311.847
740.196	22.199	1410.131	1311.196
741.211	22.049	1409.440	1309.273
742.225	22.053	1408.743	1308.504
743.240	22.101	1406.755	1306.860
744.254	21.997	1404.814	1304.123
745.269	22.001	1403.376	1302.660
746.284	21.895	1404.002	1302.297
747.298	21.923	1403.543	1301.921
748.313	22.141	1402.455	1302.383
749.327	22.407	1402.179	1303.954
750.342	22.786	1402.233	1306.666
751.356	23.232	1401.478	1309.121
752.371	23.031	1399.682	1305.792
753.386	22.247	1397.583	1297.870
754.400	22.036	1396.197	1294.858
755.415	21.971	1395.508	1293.583
756.429	22.142	1393.667	1292.992
757.444	22.170	1392.162	1291.642
758.459	22.146	1391.318	1290.532
759.473	21.910	1390.498	1287.874
760.488	22.022	1389.205	1287.348
761.502	21.966	1387.833	1285.507
762.517	21.984	1387.320	1285.010
763.532	22.272	1385.815	1285.582
764.546	22.197	1384.771	1283.908
765.561	22.304	1384.306	1284.110
766.575	22.451	1384.083	1284.822
767.590	22.708	1382.458	1285.049
768.605	22.334	1380.907	1280.713
769.619	22.351	1379.667	1279.536
770.634	22.331	1378.008	1277.701
771.648	21.924	1376.895	1273.542
772.663	21.766	1376.446	1271.821
773.678	21.921	1375.216	1271.664
774.692	21.959	1374.425	1271.059
775.707	21.939	1374.762	1271.071
776.721	21.996	1373.399	1270.074
777.736	21.878	1371.517	1267.322
778.751	22.010	1370.660	1267.340
779.765	21.974	1369.855	1266.180
780.780	21.960	1369.182	1265.306
781.794	21.962	1368.513	1264.553
782.809	21.940	1366.865	1262.721
783.824	21.775	1365.415	1260.032
784.838	21.942	1364.825	1260.544
785.853	22.386	1365.019	1263.783
786.867	22.311	1363.887	1262.042
787.882	21.977	1363.083	1258.735
788.897	21.889	1361.973	1256.930
789.911	21.838	1360.003	1254.592
790.926	21.659	1358.238	1251.526
791.940	21.804	1356.878	1251.165
792.955	21.691	1356.212	1249.592
793.969	21.688	1355.053	1248.356
794.984	21.632	1354.539	1247.332
795.999	21.788	1353.518	1247.356
797.013	21.832	1351.566	1245.720
798.028	21.749	1350.348	1243.860
799.042	21.813	1349.510	1243.390
800.057	21.660	1348.714	1241.421
801.072	21.742	1346.599	1239.906
802.086	21.806	1345.551	1239.252
803.101	21.599	1344.808	1236.945
804.115	21.839	1343.842	1237.611
805.130	21.807	1342.800	1236.280
806.145	21.829	1341.208	1234.824
807.159	21.880	1340.431	1234.318
808.174	21.842	1339.891	1233.407
809.188	21.749	1338.995	1231.775
810.203	21.926	1337.159	1231.189
811.218	22.119	1335.863	1231.207
812.232	21.959	1335.355	1229.466
813.247	22.143	1334.489	1229.818
814.261	22.068	1333.307	1228.054
815.276	21.970	1332.222	1226.215
816.291	21.820	1330.586	1223.512
817.305	21.904	1329.007	1222.504
818.320	21.606	1328.310	1219.629
819.334	21.621	1327.016	1218.400
820.349	21.552	1326.059	1216.891
821.364	21.588	1323.913	1215.027
822.378	21.635	1322.481	1213.896
823.393	21.850	1320.369	1213.311
824.407	21.656	1319.668	1211.168
825.422	21.721	1319.152	1211.003
826.437	21.564	1318.949	1209.583
827.451	21.657	1317.641	1208.880
828.466	22.026	1316.295	1210.059
829.480	22.306	1314.521	1210.221
830.495	21.948	1312.806	1206.021
831.509	21.621	1311.859	1202.750
832.524	21.574	1310.780	1201.298
833.539	21.410	1309.424	1198.777
834.553	21.488	1308.444	1198.274
835.568	21.507	1306.957	1196.901
836.582	21.617	1305.720	1196.382
837.597	21.675	1304.324	1195.358
838.612	21.710	1303.061	1194.295
839.626	21.762	1302.701	1194.176
840.641	21.880	1302.232	1194.413
841.655	21.899	1302.083	1194.266
842.670	22.110	1301.291	1194.834
843.685	22.293	1299.582	1194.371
844.699	22.174	1298.028	1191.992
845.714	21.842	1296.259	1187.962
846.728	21.783	1295.756	1186.958
847.743	21.607	1294.947	1184.880
848.758	21.578	1293.175	1182.916
849.772	21.405	1291.914	1180.451
850.787	21.498	1290.178	1179.353
851.801	21.599	1289.010	1178.829
852.816	21.614	1288.068	1177.924
853.831	21.635	1286.873	1176.831
854.845	21.365	1285.637	1173.742
855.860	21.395	1283.769	1172.096
856.874	21.508	1282.382	1171.453
857.889	21.581	1281.762	1171.236
858.904	22.019	1280.959	1173.303
859.918	22.352	1279.617	1174.166
860.933	22.502	1277.980	1173.530
861.947	22.220	1276.888	1170.499
862.962	21.886	1275.902	1167.219
863.977	21.777	1274.245	1164.837
864.991	21.647	1273.279	1162.949
866.006	21.622	1272.761	1162.168
867.020	21.496	1271.421	1159.967
868.035	21.564	1269.814	1158.813
869.049	21.669	1268.529	1158.202
870.064	21.644	1268.100	1157.505
871.079	21.588	1268.005	1156.908
872.093	21.690	1267.275	1156.784
873.108	21.715	1266.254	1155.878
874.122	21.822	1265.043	1155.341
875.137	21.941	1264.964	1155.915
876.152	22.137	1263.953	1156.151
877.166	22.003	1261.825	1153.180
878.181	21.978	1260.154	1151.356
879.195	21.872	1259.149	1149.598
880.210	21.858	1258.327	1148.615
881.225	21.758	1257.280	1146.870
882.239	21.529	1256.670	1144.668
883.254	21.530	1255.527	1143.495
884.268	21.757	1254.736	1144.129
885.283	21.654	1253.578	1142.259
886.298	21.547	1251.852	1139.848
887.312	21.537	1250.806	1138.694
888.327	21.578	1250.268	1138.335
889.341	21.575	1248.649	1136.707
890.356	21.649	1247.904	1136.375
891.371	21.738	1247.705	1136.641
892.385	21.656	1247.227	1135.536
893.400	21.622	1246.165	1134.210
894.414	21.739	1244.906	1133.688
895.429	22.016	1243.642	1134.198
896.444	22.628	1242.922	1137.380
897.458	23.038	1242.236	1139.274
898.473	22.527	1240.801	1134.513
899.487	22.090	1239.501	1130.362
900.502	21.855	1238.362	1127.671
901.517	21.689	1236.599	1124.860
902.531	21.598	1236.153	1123.732
903.546	21.641	1235.270	1123.071
904.560	21.812	1234.047	1122.923
905.575	21.784	1233.488	1122.103
906.589	21.780	1232.340	1120.896
907.604	21.818	1231.739	1120.458
