DTS Sentinel unit serial number:	SN409020Multiplexer serial number:	ORYXHardware model number:	OX4-SRSoftware version number:	ORYX F/W v3.00 Oryx Data Collector v3.7.2.0data status	okinstallation	HaddamTimeLapsedifferential loss correction	single-endedforward channel	channel 3reverse channel	N/Adate	2011/06/22time	10:01:17forward acquisition time	30.00reverse acquisition time	0.00gamma	498.7831k internal	0.1810k external	0.1810temperature offset calibration	1.0074default loss term (dB/km)	0.3790temperature slope calibration	1.3530multiplexer offset coefficient	1.0000multiplexer slope coefficient	1.0000fibre end	0.00T internal ref (°C)	28.87T ext. ref 1 (°C)	25.92T ext. ref 2 (°C)	0.20length (m)	temperature (°C)	Stokes	anti-Stokes-747.200	565.575	0.088	0.277
-746.185	40.383	0.279	0.323
-745.171	-200.000	-0.007	-0.222
-744.156	-4.479	-0.170	0.151
-743.142	55.078	-0.314	-0.390
-742.127	298.876	-0.194	0.460
-741.112	800.000	0.077	0.292
-740.098	-26.005	0.378	0.286
-739.083	800.000	-0.057	-0.261
-738.069	242.691	-0.308	0.664
-737.054	364.603	0.040	0.104
-736.039	47.393	-0.115	-0.138
-735.025	-171.204	0.338	0.014
-734.010	-200.000	0.155	0.925
-732.996	-137.269	0.377	-0.054
-731.981	233.908	0.290	0.616
-730.966	-32.955	0.208	-0.148
-729.952	-136.329	-0.316	-0.047
-728.937	-61.152	-0.288	0.156
-727.923	91.256	-0.217	0.314
-726.908	-200.000	-0.039	-0.254
-725.894	217.512	0.164	-0.337
-724.879	56.905	0.240	-0.301
-723.864	-99.736	-0.164	0.052
-722.850	-55.378	0.081	0.047
-721.835	92.048	0.225	-0.327
-720.821	11.770	0.376	-0.371
-719.806	800.000	-0.049	-0.263
-718.791	117.194	-0.097	0.153
-717.777	-10.083	-0.367	-0.313
-716.762	413.234	-0.103	-0.284
-715.748	53.921	-0.123	-0.152
-714.733	116.229	-0.126	0.199
-713.718	-5.991	-0.164	0.144
-712.704	-122.531	-0.535	-0.111
-711.689	247.623	-0.251	-0.546
-710.675	-21.452	-0.403	-0.315
-709.660	-50.734	0.460	-0.277
-708.645	547.838	-0.136	0.421
-707.631	-12.725	-0.448	-0.374
-706.616	43.727	-0.311	0.366
-705.602	-200.000	-0.230	-0.001
-704.587	-1.019	-0.364	-0.330
-703.572	-129.863	0.190	0.033
-702.558	185.721	0.078	0.149
-701.543	21.356	0.393	-0.410
-700.529	800.000	-0.037	-0.180
-699.514	435.135	0.087	-0.243
-698.499	29.137	0.246	-0.268
-697.485	-200.000	-0.073	-0.468
-696.470	-200.000	-0.014	0.432
-695.456	-56.026	-0.279	-0.159
-694.441	-94.642	0.184	-0.064
-693.426	18.993	-0.120	-0.123
-692.412	-113.099	-0.015	-0.004
-691.397	-75.214	-0.282	-0.129
-690.383	-111.663	0.382	-0.099
-689.368	-72.132	0.437	0.207
-688.354	-110.708	-0.250	0.066
-687.339	-46.465	0.118	-0.074
-686.324	-200.000	0.059	-0.381
-685.310	-62.464	-0.148	0.079
-684.295	558.506	0.031	-0.097
-683.281	-69.105	0.216	0.106
-682.266	-129.074	-0.348	-0.062
-681.251	110.514	-0.216	-0.333
-680.237	194.323	0.128	-0.250
-679.222	-19.473	0.308	-0.245
-678.208	-129.729	-0.344	0.060
-677.193	800.000	-0.104	0.375
-676.178	-36.057	0.288	-0.199
-675.164	800.000	-0.155	-0.722
-674.149	-112.311	0.206	-0.052
-673.135	74.101	-0.184	0.248
-672.120	338.712	-0.179	-0.449
-671.105	-67.284	0.083	0.042
-670.091	263.171	-0.071	0.158
-669.076	-200.000	-0.045	0.321
-668.062	-200.000	-0.001	-0.021
-667.047	-43.996	-0.164	-0.105
-666.032	800.000	-0.069	-0.339
-665.018	315.373	-0.103	-0.251
-664.003	154.251	-0.178	0.314
-662.989	107.227	-0.155	-0.237
-661.974	-40.851	0.109	-0.072
-660.959	-139.264	-0.342	0.047
-659.945	-69.521	0.305	0.149
-658.930	-29.875	-0.192	0.140
-657.916	-102.695	-0.252	-0.076
-656.901	-54.323	-0.189	-0.109
-655.886	321.878	-0.211	-0.517
-654.872	24.924	0.217	0.231
-653.857	-126.341	0.267	-0.050
-652.843	-200.000	-0.028	0.466
-651.828	-200.000	0.036	0.376
-650.814	7.139	-0.159	-0.152
-649.799	64.900	-0.240	0.310
-648.784	112.022	-0.221	0.342
-647.770	-35.844	-0.390	-0.270
-646.755	-200.000	-0.026	0.320
-645.741	6.172	0.122	0.116
-644.726	-135.790	0.438	-0.066
-643.711	-200.000	0.021	-0.140
-642.697	-169.149	-0.316	0.015
-641.682	-65.104	0.202	0.104
-640.668	-55.361	-0.173	-0.099
-639.653	19.649	-0.387	-0.398
-638.638	-108.884	-0.286	-0.078
-637.624	45.703	0.265	-0.313
-636.609	-72.340	0.134	0.063
-635.595	-126.328	-0.295	-0.056
-634.580	-200.000	-0.037	-0.298
-633.565	-200.000	-0.001	0.177
-632.551	-24.946	-0.205	0.155
-631.536	-60.294	-0.128	0.069
-630.522	-18.318	0.289	-0.231
-629.507	538.126	0.137	0.419
-628.492	-103.234	0.115	0.035
-627.478	-144.823	0.388	0.045
-626.463	363.736	-0.225	0.582
-625.449	-127.882	-0.225	0.041
-624.434	-82.218	0.212	0.088
-623.419	-115.600	0.393	0.094
-622.405	-200.000	-0.083	-0.723
-621.390	102.684	0.064	-0.095
-620.376	-31.515	-0.373	0.267
-619.361	135.382	-0.196	-0.327
-618.346	84.114	0.225	-0.314
-617.332	35.077	-0.134	0.150
-616.317	3.407	-0.776	0.722
-615.303	252.249	0.206	0.452
-614.288	313.236	-0.087	0.211
-613.273	656.837	-0.157	0.519
-612.259	-32.242	0.330	0.235
-611.244	137.068	-0.242	0.405
-610.230	-200.000	-0.028	-0.180
-609.215	-200.000	-0.023	-0.389
-608.201	-74.091	0.187	-0.086
-607.186	289.532	0.219	0.511
-606.171	-141.654	-0.406	-0.052
-605.157	-6.426	-0.088	-0.077
-604.142	-131.436	0.069	0.012
-603.128	-34.367	-0.272	-0.190
-602.113	581.014	0.057	0.179
-601.098	-116.641	0.417	0.097
-600.084	66.615	0.194	-0.252
-599.069	-110.392	0.274	0.072
-598.055	-135.484	-0.967	0.146
-597.040	245.798	-0.213	-0.459
-596.025	800.000	0.053	0.215
-595.011	-64.733	-0.316	-0.163
-593.996	-141.349	-0.438	0.056
-592.982	-76.710	-0.469	0.209
-591.967	800.000	-0.081	-0.422
-590.952	800.000	0.029	-0.151
-589.938	-200.000	0.019	-0.261
-588.923	99.815	0.234	0.346
-587.909	68.176	-0.270	-0.354
-586.894	-106.807	-0.508	-0.143
-585.879	-122.791	-0.396	0.081
-584.865	-52.537	-0.453	-0.266
-583.850	-5.238	-0.191	0.168
-582.836	46.160	-0.299	-0.354
-581.821	-134.647	-0.453	-0.070
-580.806	573.459	0.031	-0.098
-579.792	-107.918	0.201	-0.055
-578.777	-38.977	-0.283	0.189
-577.763	33.538	0.212	-0.236
-576.748	-200.000	-0.002	-0.135
-575.733	-100.014	0.206	0.065
-574.719	-125.241	-0.536	-0.104
-573.704	770.726	-0.029	0.101
-572.690	-72.727	-0.460	0.216
-571.675	252.897	0.041	0.089
-570.661	6.755	-0.189	0.180
-569.646	-200.000	0.038	0.224
-568.631	68.829	0.156	0.204
-567.617	-177.089	-0.270	-0.008
-566.602	-200.000	-0.022	0.323
-565.588	-10.582	0.514	0.434
-564.573	-100.949	0.303	-0.094
-563.558	-200.000	0.498	-0.001
-562.544	-200.000	0.028	-0.297
-561.529	30.967	-0.376	-0.412
-560.515	-25.012	0.152	-0.115
-559.500	559.697	0.174	-0.538
-558.485	-85.264	-0.308	-0.122
-557.471	-13.691	0.140	0.116
-556.456	-137.981	-0.389	-0.055
-555.442	800.000	-0.107	-0.412
-554.427	360.028	0.057	-0.146
-553.412	37.638	-0.235	-0.266
-552.398	192.525	-0.247	0.477
-551.383	800.000	0.056	0.306
-550.369	-9.074	0.191	-0.163
-549.354	-62.029	-0.618	-0.328
-548.339	35.305	0.204	0.228
-547.325	251.753	-0.146	0.319
-546.310	4.792	0.086	0.080
-545.296	-42.609	-0.501	0.325
-544.281	-129.112	0.448	0.079
-543.266	-122.837	0.435	0.089
-542.252	48.237	-0.166	-0.198
-541.237	-121.636	-0.419	-0.088
-540.223	-53.306	0.094	0.055
-539.208	-200.000	0.055	0.324
-538.193	-200.000	-0.014	0.204
-537.179	-66.076	-0.268	-0.136
-536.164	-200.000	0.012	0.264
-535.150	33.585	0.056	0.062
-534.135	5.729	-0.505	0.476
-533.121	-108.155	0.518	-0.142
-532.106	-200.000	-0.020	0.382
-531.091	-129.515	0.325	0.057
-530.077	341.508	0.063	0.156
-529.062	-106.217	0.223	-0.063
-528.048	-200.000	0.044	0.695
-527.033	-27.544	0.062	0.046
-526.018	-96.392	0.822	-0.275
-525.004	25.562	0.353	-0.375
-523.989	6.278	-0.155	0.147
-522.975	-103.461	-0.220	0.066
-521.960	352.192	-0.382	-0.968
-520.945	108.639	0.185	0.282
-519.931	204.806	-0.218	0.432
-518.916	800.000	-0.036	-0.175
-517.902	-99.528	-0.442	0.141
-516.887	375.726	0.193	0.503
-515.872	800.000	0.084	0.377
-514.858	462.913	-0.166	-0.476
-513.843	-155.784	-0.337	0.027
-512.829	-19.164	-0.117	-0.093
-511.814	-200.000	0.001	-0.510
-510.799	-122.473	-0.494	-0.102
-509.785	-132.787	-0.511	-0.082
-508.770	-200.000	0.037	-0.237
-507.756	800.000	0.024	-0.087
-506.741	-4.019	0.083	-0.073
-505.726	167.697	0.195	-0.354
-504.712	-139.607	0.116	-0.016
-503.697	-23.923	0.096	0.073
-502.683	120.848	-0.106	-0.169
-501.668	230.935	-0.035	-0.073
-500.653	21.176	-0.086	-0.089
-499.639	62.803	-0.079	-0.101
-498.624	-91.007	0.076	-0.028
-497.610	192.428	0.182	-0.350
-496.595	62.568	0.238	-0.303
-495.581	133.593	-0.315	-0.520
-494.566	800.000	-0.063	-0.283
-493.551	-35.097	-0.334	-0.231
-492.537	116.064	-0.272	0.425
-491.522	201.884	-0.297	0.584
-490.508	-126.790	-0.067	-0.012
-489.493	-200.000	-0.025	-0.537
-488.478	337.027	-0.006	0.015
-487.464	-77.173	-0.190	0.084
-486.449	107.647	-0.173	-0.262
-485.435	800.000	-0.124	0.527
-484.420	-4.550	-0.562	0.493
-483.405	-135.389	-0.361	-0.054
-482.391	-124.513	-0.036	0.007
-481.376	-149.185	-0.330	-0.033
-480.362	64.700	0.309	-0.397
-479.347	-18.117	0.593	0.471
-478.332	-122.034	-0.100	0.021
-477.318	279.474	-0.227	0.518
-476.303	53.827	-0.043	-0.053
-475.289	-148.703	-0.057	-0.006
-474.274	-200.000	0.004	0.133
-473.259	-114.223	0.385	-0.094
-472.245	182.433	0.196	-0.369
-471.230	139.496	0.162	0.272
-470.216	800.000	0.060	0.320
-469.201	-200.000	-0.046	0.259
-468.186	299.480	-0.191	-0.450
-467.172	-98.108	-0.216	-0.070
-466.157	61.009	0.112	-0.141
-465.143	-58.693	-0.157	0.086
-464.128	-200.000	-0.033	0.197
-463.113	100.213	-0.156	-0.231
-462.099	-200.000	-0.026	0.491
-461.084	1.599	0.146	-0.134
-460.070	800.000	-0.085	0.426
-459.055	38.742	-0.269	0.305
-458.040	-66.081	-0.050	0.025
-457.026	-168.413	-0.170	0.008
-456.011	-21.296	-0.112	0.087
-454.997	-35.960	-0.332	-0.228
-453.982	-74.340	-0.491	0.224
-452.968	-54.143	-0.146	-0.084
-451.953	-13.547	0.133	-0.109
-450.938	800.000	-0.051	0.242
-449.924	427.686	0.140	0.387
-448.909	-191.167	0.560	-0.007
-447.895	-200.000	0.016	0.166
-446.880	-11.264	-0.284	-0.237
-445.865	290.980	-0.018	0.042
-444.851	-39.015	0.117	0.078
-443.836	-71.457	0.111	0.052
-442.822	-200.000	0.013	0.451
-441.807	-200.000	-0.123	0.766
-440.792	632.696	-0.056	0.180
-439.778	387.497	-0.080	0.212
-438.763	59.022	-0.054	-0.067
-437.749	-27.137	0.213	-0.157
-436.734	360.962	0.095	-0.244
-435.719	-52.753	-0.226	0.132
-434.705	47.150	0.020	-0.023
-433.690	-52.474	0.123	-0.072
-432.676	-149.085	0.202	0.020
-431.661	-38.987	-0.392	0.261
-430.646	163.293	0.148	0.265
-429.632	-156.286	0.489	-0.038
-428.617	25.997	0.263	0.278
-427.603	115.475	-0.133	-0.206
-426.588	-30.044	0.272	-0.196
-425.573	800.000	0.113	-0.440
-424.559	61.239	-0.080	0.101
-423.544	30.793	0.118	-0.129
-422.530	121.403	-0.035	0.055
-421.515	116.829	-0.130	-0.204
-420.500	-44.369	-0.091	-0.058
-419.486	-47.851	0.090	0.055
-418.471	-8.427	0.196	0.167
-417.457	-25.324	-0.455	-0.341
-416.442	-83.278	-0.319	0.129
-415.428	800.000	-0.073	0.284
-414.413	800.000	-0.121	0.450
-413.398	-82.457	0.102	0.042
-412.384	-61.207	0.221	-0.118
-411.369	-22.107	0.230	-0.177
-410.355	-107.273	0.145	0.040
-409.340	157.092	-0.206	-0.362
-408.325	-15.666	-0.591	-0.477
-407.311	-68.317	0.046	-0.023
-406.296	-46.948	0.218	0.135
-405.282	432.044	0.044	0.121
-404.267	82.313	0.347	-0.478
-403.252	-103.290	-0.184	0.055
-402.238	85.029	-0.424	-0.591
-401.223	37.322	0.232	-0.260
-400.209	-102.022	0.566	0.172
-399.194	-23.664	0.390	-0.296
-398.179	800.000	0.130	0.474
-397.165	800.000	0.115	0.563
-396.150	748.399	-0.085	-0.293
-395.136	800.000	0.060	-0.260
-394.121	182.080	0.154	0.288
-393.106	800.000	-0.068	-0.273
-392.092	-121.625	0.237	-0.049
-391.077	610.318	-0.084	0.267
-390.063	-200.000	-0.030	-0.179
-389.048	119.961	0.078	-0.123
-388.033	31.122	0.166	0.180
-387.019	-200.000	0.027	-0.175
-386.004	36.200	-0.203	-0.227
-384.990	-17.814	0.456	-0.362
-383.975	69.972	-0.019	-0.025
-382.960	-200.000	-0.027	-0.334
-381.946	800.000	-0.061	0.266
-380.931	-95.970	-0.243	-0.081
-379.917	662.372	0.165	-0.542
-378.902	-200.000	-0.011	-0.123
-377.888	210.648	0.083	-0.166
-376.873	800.000	0.119	-0.537
-375.858	-135.557	-0.282	-0.042
-374.844	113.360	-0.100	0.154
-373.829	-200.000	0.012	0.191
-372.815	208.260	0.246	0.488
-371.800	800.000	-0.023	0.112
-370.785	-26.762	0.140	0.104
-369.771	-200.000	-0.056	-0.432
-368.756	-200.000	-0.023	-0.192
-367.742	64.574	-0.187	-0.239
-366.727	-84.716	-0.245	0.097
-365.712	104.315	0.239	-0.357
-364.698	-159.054	0.316	0.022
-363.683	800.000	-0.037	0.186
-362.669	-200.000	0.055	0.526
-361.654	-92.727	0.528	-0.186
-360.639	543.071	0.034	-0.104
-359.625	11.259	0.436	0.422
-358.610	-147.721	0.304	-0.032
-357.596	-22.101	0.207	-0.159
-356.581	-200.000	0.116	0.000
-355.566	-64.876	0.248	-0.126
-354.552	-59.020	-0.039	0.021
-353.537	-148.866	-0.545	0.055
-352.523	-56.998	-0.245	0.136
-351.508	800.000	0.085	-0.341
-350.493	800.000	-0.164	-0.695
-349.479	-29.647	-0.385	-0.278
-348.464	-61.136	0.409	-0.218
-347.450	-122.096	-0.169	0.035
-346.435	299.045	0.027	-0.064
-345.420	-183.633	0.205	-0.004
-344.406	-142.353	0.332	0.041
-343.391	-29.906	-0.215	0.155
-342.377	94.199	0.012	0.017
-341.362	193.650	0.190	-0.365
-340.348	-85.489	-0.110	-0.043
-339.333	-0.348	0.285	-0.256
-338.318	-110.632	-0.556	-0.144
-337.304	-129.480	-0.470	0.082
-336.289	-200.000	-0.065	0.389
-335.275	-75.004	0.421	0.190
-334.260	177.268	-0.251	0.464
-333.245	56.927	-0.227	0.279
-332.231	-90.371	0.505	0.184
-331.216	336.522	0.050	-0.123
-330.202	-200.000	-0.029	0.257
-329.187	-26.768	0.164	-0.121
-328.172	-116.808	-0.261	0.060
-327.158	138.440	-0.211	-0.351
-326.143	-200.000	-0.006	0.410
-325.129	307.349	-0.098	-0.232
-324.114	360.495	-0.076	-0.192
-323.099	36.698	0.136	-0.152
-322.085	-121.207	0.648	0.136
-321.070	-39.020	-0.045	0.030
-320.056	129.293	0.169	-0.274
-319.041	-200.000	0.021	0.182
-318.026	-12.097	-0.122	-0.101
-317.012	266.341	-0.254	-0.562
-315.997	271.247	-0.012	0.026
-314.983	-200.000	-0.064	-0.570
-313.968	-143.163	-0.588	-0.071
-312.953	-165.374	-0.174	0.009
-311.939	-143.055	0.196	0.024
-310.924	-136.876	-0.396	-0.057
-309.910	-43.364	-0.166	-0.105
-308.895	-72.463	-0.261	0.121
-307.880	800.000	-0.138	-0.501
-306.866	-90.085	0.486	0.178
-305.851	-74.687	-0.064	-0.029
-304.837	-43.029	0.282	0.180
-303.822	-3.365	0.054	0.047
-302.807	-200.000	0.048	-0.309
-301.793	-9.972	-0.259	-0.218
-300.778	35.132	-0.211	0.233
-299.764	-77.427	-0.404	0.176
-298.749	-47.139	-0.250	-0.153
-297.735	260.352	0.167	0.365
-296.720	-4.384	-0.160	0.140
-295.705	249.524	-0.210	-0.451
-294.691	-34.602	-0.149	-0.103
-293.676	-143.236	0.337	0.040
-292.662	-55.699	0.152	-0.086
-291.647	775.599	0.143	0.498
-290.632	260.704	0.059	0.129
-289.618	20.236	-0.285	-0.291
-288.603	-115.469	0.303	0.072
-287.589	-67.636	0.166	0.082
-286.574	-31.345	0.343	-0.243
-285.559	-59.454	0.231	-0.125
-284.545	800.000	-0.078	-0.329
-283.530	-22.249	0.306	-0.234
-282.516	-147.908	0.310	0.032
-281.501	406.656	-0.094	-0.252
-280.486	-11.844	0.101	0.083
-279.472	387.117	-0.130	0.342
-278.457	-112.413	-0.296	-0.074
-277.443	-101.418	0.368	-0.113
-276.428	223.529	-0.082	0.168
-275.413	378.494	-0.064	-0.167
-274.399	-200.000	0.028	0.170
-273.384	-90.822	0.498	0.180
-272.370	-200.000	-0.030	0.191
-271.355	92.648	-0.062	0.089
-270.340	83.128	0.208	0.286
-269.326	-2.675	0.469	0.414
-268.311	241.671	0.096	0.203
-267.297	-38.451	0.633	0.422
-266.282	77.556	0.185	0.248
-265.267	-110.323	0.077	-0.020
-264.253	-178.177	0.364	0.011
-263.238	16.033	-0.062	0.062
-262.224	97.756	0.117	-0.170
-261.209	154.158	0.108	0.187
-260.195	332.199	0.147	0.361
-259.180	218.725	0.088	-0.178
-258.165	-123.768	0.399	0.079
-257.151	-129.655	-0.593	0.102
-256.136	-66.711	0.210	-0.105
-255.122	-138.421	0.367	-0.050
-254.107	-40.414	-0.161	-0.105
-253.092	-105.395	-0.448	0.128
-252.078	568.916	0.128	-0.393
-251.063	-113.093	0.196	0.049
-250.049	-9.482	-0.190	0.159
-249.034	800.000	-0.005	-0.024
-248.019	434.183	-0.011	0.029
-247.005	-74.147	0.095	0.043
-245.990	-163.283	0.528	-0.031
-244.976	-97.421	0.497	-0.162
-243.961	-102.458	0.469	-0.141
-242.946	-46.065	-0.257	0.159
-241.932	-43.159	0.571	-0.364
-240.917	128.627	-0.366	-0.589
-239.903	-200.000	0.001	0.086
-238.888	-87.957	0.744	0.280
-237.873	6.406	-0.130	-0.121
-236.859	109.207	0.072	0.108
-235.844	-116.653	0.585	-0.134
-234.830	-95.820	0.532	-0.178
-233.815	-9.028	0.298	0.251
-232.800	74.616	-0.170	0.226
-231.786	284.719	0.111	-0.253
-230.771	-23.216	0.188	0.142
-229.757	-184.707	-0.171	-0.003
-228.742	1.583	0.157	-0.142
-227.727	199.669	0.108	0.210
-226.713	-124.690	-0.214	-0.041
-225.698	407.610	0.062	-0.165
-224.684	-119.035	-0.323	-0.071
-223.669	-146.799	-0.188	0.020
-222.655	-53.962	-0.126	0.072
-221.640	119.428	-0.090	0.140
-220.625	-83.001	-0.306	-0.124
-219.611	-200.000	-0.047	-0.672
-218.596	7.313	-0.254	-0.238
-217.582	-89.198	0.462	-0.171
-216.567	800.000	0.156	0.710
-215.552	-77.514	0.413	0.179
-214.538	-8.769	0.219	-0.185
-213.523	-159.153	0.448	0.031
-212.509	651.938	-0.133	0.431
-211.494	94.237	0.096	-0.138
-210.479	-63.995	-0.473	0.242
-209.465	-8.752	0.383	0.323
-208.450	-138.601	0.272	-0.037
-207.436	-20.884	0.200	-0.154
-206.421	-43.808	-0.323	0.204
-205.406	800.000	-0.079	-0.307
-204.392	-60.093	0.338	0.181
-203.377	-200.000	-0.038	0.286
-202.363	154.874	0.203	-0.352
-201.348	-19.226	0.061	0.048
-200.333	800.000	-0.032	0.137
-199.319	-103.475	-0.586	-0.172
-198.304	301.931	-0.092	-0.215
-197.290	36.575	-0.104	0.116
-196.275	-200.000	-0.018	0.268
-195.260	-200.000	-0.007	0.503
-194.246	-137.803	-0.147	0.021
-193.231	-104.465	-0.257	-0.074
-192.217	745.841	-0.064	-0.219
-191.202	23.687	-0.532	0.551
-190.187	-200.000	-0.004	0.187
-189.173	800.000	0.151	-0.763
-188.158	-116.695	0.808	0.185
-187.144	41.951	0.211	0.241
-186.129	312.480	0.115	0.272
-185.114	80.624	-0.228	0.309
-184.100	221.274	0.085	-0.172
-183.085	-158.315	0.455	-0.033
-182.071	-136.608	0.251	0.036
-181.056	800.000	0.055	0.255
-180.042	-79.601	0.223	-0.094
-179.027	-200.000	-0.045	-0.282
-178.012	-200.000	0.005	-0.060
-176.998	-200.000	-0.064	0.481
-175.983	800.000	-0.094	0.338
-174.969	-121.446	-0.139	0.029
-173.954	-200.000	0.009	0.109
-172.939	-198.416	0.388	0.003
-171.925	46.044	0.084	-0.098
-170.910	145.439	-0.111	-0.187
-169.896	166.355	-0.300	-0.535
-168.881	639.515	-0.061	-0.197
-167.866	-42.002	-0.618	-0.397
-166.852	65.440	-0.208	-0.265
-165.837	-200.000	-0.027	-0.172
-164.823	-36.418	-0.201	-0.136
-163.808	-91.828	0.440	0.156
-162.793	141.914	-0.040	0.067
-161.779	-1.655	-0.062	-0.055
-160.764	-200.000	0.076	0.487
-159.750	-169.038	0.581	0.027
-158.735	82.825	-0.122	0.167
-157.720	339.890	0.091	0.223
-156.706	-126.143	0.572	-0.107
-155.691	800.000	-0.092	-0.401
-154.677	800.000	0.121	-0.479
-153.662	2.140	0.089	-0.081
-152.647	358.218	-0.112	0.281
-151.633	338.114	-0.084	-0.205
-150.618	-200.000	0.024	-0.198
-149.604	157.966	-0.121	-0.210
-148.589	70.215	-0.350	0.454
-147.574	0.993	-0.134	-0.120
-146.560	-128.267	0.361	0.064
-145.545	-77.202	-0.198	0.086
-144.531	-0.705	-0.189	0.168
-143.516	-119.752	-0.704	-0.151
-142.502	-98.566	0.427	-0.136
-141.487	-100.480	-0.295	0.091
-140.472	56.214	-0.209	-0.255
-139.458	113.412	0.196	-0.299
-138.443	-85.220	-0.365	-0.143
-137.429	9.479	-0.369	-0.350
-136.414	59.590	-0.190	-0.235
-135.399	-159.107	-0.109	-0.008
-134.385	-200.000	0.013	-0.170
-133.370	322.294	0.310	-0.745
-132.356	617.981	0.120	-0.381
-131.341	-70.295	-0.256	0.122
-130.326	451.394	0.105	-0.293
-129.312	-59.658	0.210	-0.112
-128.297	-169.400	0.169	-0.008
-127.283	-200.000	-0.060	0.585
-126.268	4.128	0.156	0.143
-125.253	634.699	-0.122	-0.390
-124.239	-67.392	0.186	0.091
-123.224	800.000	-0.099	0.519
-122.210	14.206	-0.252	0.246
-121.195	-117.408	-0.747	0.168
-120.180	-160.225	0.262	-0.018
-119.166	-200.000	-0.284	0.001
-118.151	-144.758	0.695	0.079
-117.137	-139.711	-0.435	-0.057
-116.122	-13.051	0.198	0.161
-115.107	-48.018	-0.286	-0.173
-114.093	63.453	0.235	0.296
-113.078	72.052	-0.453	0.592
-112.064	23.966	0.286	-0.295
-111.049	-95.743	-0.404	-0.134
-110.034	44.079	0.269	-0.309
-109.020	800.000	0.159	0.729
-108.005	-63.294	-0.231	-0.119
-106.991	167.921	0.184	0.330
-105.976	-43.904	0.129	-0.081
-104.962	771.662	-0.078	-0.267
-103.947	-153.542	0.632	0.054
-102.932	170.467	0.141	-0.253
-101.918	-86.366	-0.337	-0.129
-100.903	-131.111	0.336	-0.056
-99.889	136.194	-0.147	-0.242
-98.874	-200.000	-0.041	-0.229
-97.859	713.419	-0.098	0.327
-96.845	56.314	-0.366	0.446
-95.830	-19.696	0.565	-0.437
-94.816	361.563	-0.082	-0.207
-93.801	-67.426	-0.422	0.207
-92.786	-63.182	-0.207	0.106
-91.772	-21.053	-0.168	0.129
-90.757	167.775	-0.100	-0.179
-89.743	88.799	-0.037	-0.052
-88.728	-200.000	-0.011	0.069
-87.713	-115.579	0.365	0.085
-86.699	-200.000	0.018	-0.154
-85.684	-81.849	0.156	-0.063
-84.670	-160.305	0.280	-0.019
-83.655	-30.850	0.405	0.286
-82.640	51.496	0.291	0.346
-81.626	-144.060	0.581	0.067
-80.611	-143.299	-0.458	-0.054
-79.597	-119.658	-0.321	0.069
-78.582	-144.910	0.640	0.072
-77.567	-200.000	0.008	-0.167
-76.553	-184.395	0.291	-0.006
-75.538	-40.068	-0.279	0.182
-74.524	220.566	0.197	-0.396
-73.509	26.140	0.077	0.080
-72.494	241.879	0.153	0.322
-71.480	800.000	0.090	0.366
-70.465	-94.840	0.465	0.157
-69.451	-66.320	0.346	0.172
-68.436	800.000	0.047	-0.216
-67.422	-62.700	0.394	-0.203
-66.407	441.116	-0.014	0.039
-65.392	-44.521	-0.416	-0.260
-64.378	-37.106	-0.307	-0.205
-63.363	-131.865	-0.222	-0.036
-62.349	-47.070	0.119	-0.072
-61.334	0.565	-1.963	-1.755
-60.319	800.000	0.220	0.934
-59.305	245.439	-3.257	-6.885
-58.290	13.484	3.459	3.357
-57.276	339.787	4.277	10.480
-56.261	-200.000	16.753	251.282
-55.246	443.562	1196.161	3297.528
-54.232	63.291	2810.140	3527.740
-53.217	71.768	2708.384	3526.020
-52.203	53.813	2444.162	2938.998
-51.188	37.949	2099.597	2335.630
-50.173	31.601	1978.899	2128.974
-49.159	29.896	1968.278	2098.059
-48.144	29.394	1963.771	2087.462
-47.130	29.295	1961.803	2084.158
-46.115	29.153	1960.224	2080.788
-45.100	29.186	1959.461	2080.264
-44.086	29.175	1958.283	2078.807
-43.071	29.125	1956.710	2076.488
-42.057	29.004	1954.352	2072.538
-41.042	29.122	1952.983	2072.332
-40.027	29.055	1951.791	2070.229
-39.013	29.095	1950.213	2068.933
-37.998	29.031	1948.884	2066.714
-36.984	28.948	1948.214	2064.979
-35.969	28.889	1947.227	2063.196
-34.954	29.049	1945.077	2062.638
-33.940	29.061	1944.136	2061.687
-32.925	29.034	1942.143	2059.194
-31.911	28.993	1940.770	2057.197
-30.896	28.917	1939.759	2055.183
-29.881	28.950	1938.901	2054.570
-28.867	29.001	1937.482	2053.549
-27.852	28.982	1935.753	2051.429
-26.838	28.775	1934.856	2048.079
-25.823	28.836	1933.686	2047.434
-24.809	28.861	1931.878	2045.724
-23.794	28.915	1930.360	2044.640
-22.779	28.968	1928.519	2043.201
-21.765	28.883	1927.264	2040.835
-20.750	28.750	1927.626	2039.655
-19.736	28.760	1925.085	2036.999
-18.721	28.829	1923.781	2036.303
-17.706	28.813	1922.582	2034.772
-16.692	28.926	1921.220	2034.511
-15.677	28.806	1920.884	2032.738
-14.663	28.888	1919.323	2031.916
-13.648	28.900	1917.112	2029.626
-12.633	28.810	1916.532	2027.932
-11.619	28.843	1915.820	2027.468
-10.604	28.806	1913.867	2024.908
-9.590	28.742	1912.526	2022.710
-8.575	28.740	1912.120	2022.175
-7.560	28.768	1911.252	2021.489
-6.546	28.680	1909.072	2018.130
-5.531	28.727	1907.800	2017.226
-4.517	28.664	1907.211	2015.826
-3.502	28.811	1905.955	2016.041
-2.487	28.727	1905.819	2014.880
-1.473	28.932	1901.043	2012.014
-0.458	29.222	1882.642	1995.612
0.556	26.299	2026.989	2101.949
1.571	25.607	2242.510	2316.209
2.586	26.816	2287.967	2378.826
3.600	26.881	2289.992	2381.504
4.615	26.908	2289.794	2381.362
5.629	27.027	2288.399	2381.198
6.644	27.075	2286.336	2379.395
7.659	27.048	2284.372	2376.719
8.673	27.171	2282.025	2375.607
9.688	26.509	2287.792	2372.603
10.702	24.446	2363.228	2422.422
11.717	22.544	2429.365	2463.223
12.731	11.469	2400.487	2279.044
13.746	1.874	2373.671	2119.676
14.761	0.524	2368.174	2095.678
15.775	0.280	2367.081	2091.060
16.790	0.268	2364.972	2088.783
17.804	0.250	2363.181	2086.691
18.819	0.259	2362.308	2085.802
19.834	0.103	2361.347	2082.529
20.848	0.162	2360.016	2081.924
21.863	0.156	2357.971	2079.789
22.877	0.220	2355.324	2078.099
23.892	0.269	2352.613	2076.128
24.907	0.235	2350.865	2073.870
25.921	0.146	2349.609	2071.290
26.936	0.212	2346.955	2069.612
27.950	0.258	2344.601	2067.919
28.965	0.203	2341.924	2064.558
29.980	0.264	2340.433	2063.828
30.994	0.287	2339.157	2062.778
32.009	5.722	2357.522	2153.947
33.023	20.076	2401.451	2394.558
34.038	27.955	2420.526	2523.141
35.053	29.937	2423.054	2552.977
36.067	29.864	2419.671	2548.092
37.082	29.113	2416.116	2533.665
38.096	29.026	2413.143	2529.046
39.111	29.359	2411.253	2531.350
40.126	30.077	2412.163	2541.908
41.140	30.958	2413.033	2554.666
42.155	30.278	2410.061	2541.850
43.169	29.957	2406.795	2533.693
44.184	30.567	2406.084	2541.022
45.199	30.559	2403.115	2537.470
46.213	29.966	2401.435	2527.267
47.228	29.811	2399.603	2522.904
48.242	29.952	2398.520	2523.406
49.257	30.111	2396.906	2523.582
50.271	30.343	2394.879	2524.315
51.286	30.400	2392.486	2522.273
52.301	29.975	2388.946	2512.439
53.315	28.757	2384.597	2490.975
54.330	25.829	2373.636	2439.438
55.344	23.960	2364.627	2404.523
56.359	23.862	2361.167	2399.381
57.374	23.613	2359.290	2393.814
58.388	23.500	2357.026	2389.704
59.403	23.771	2354.586	2390.609
60.417	24.279	2353.507	2396.093
61.432	24.517	2350.529	2395.978
62.447	24.295	2349.368	2391.523
63.461	24.181	2346.971	2387.252
64.476	24.146	2344.347	2383.823
65.490	24.830	2344.972	2393.385
66.505	25.726	2348.363	2408.615
67.520	27.736	2353.132	2440.264
68.534	29.362	2356.980	2465.831
69.549	30.316	2356.052	2477.377
70.563	30.609	2354.303	2479.177
71.578	30.624	2352.440	2477.114
72.593	30.562	2350.499	2473.947
73.607	30.619	2349.234	2473.080
74.622	30.638	2347.194	2470.891
75.636	30.323	2342.775	2461.740
76.651	30.096	2340.620	2456.161
77.666	30.374	2340.025	2458.944
78.680	30.627	2338.883	2460.810
79.695	30.976	2337.419	2463.613
80.709	31.087	2336.653	2463.993
81.724	31.193	2333.581	2461.861
82.739	30.933	2331.302	2455.721
83.753	30.818	2328.082	2450.514
84.768	30.583	2326.954	2445.915
85.782	30.379	2325.292	2441.186
86.797	30.225	2322.543	2435.979
87.812	30.080	2319.206	2430.269
88.826	29.915	2316.988	2425.479
89.841	30.012	2315.587	2425.004
90.855	30.339	2314.247	2427.610
91.870	30.074	2311.172	2420.610
92.884	29.909	2310.902	2417.874
93.899	30.238	2309.860	2420.810
94.914	29.159	2305.398	2401.707
95.928	26.453	2295.313	2355.560
96.943	25.274	2291.468	2335.919
97.957	27.501	2297.035	2370.478
98.972	29.490	2299.464	2398.708
99.987	29.618	2296.388	2396.877
101.001	29.694	2294.785	2395.907
102.016	29.887	2292.304	2395.539
103.030	29.780	2290.742	2392.237
104.045	29.984	2289.850	2393.662
105.060	30.498	2287.625	2397.729
106.074	30.358	2286.073	2394.001
107.089	29.964	2283.499	2385.911
108.103	30.159	2283.691	2388.347
109.118	30.455	2282.258	2390.400
110.133	30.466	2281.078	2389.014
111.147	30.820	2279.571	2391.726
112.162	30.681	2278.225	2388.232
113.176	30.430	2274.569	2380.876
114.191	30.334	2273.356	2378.086
115.206	30.454	2271.389	2377.293
116.220	30.288	2269.036	2372.414
117.235	30.178	2265.181	2366.687
118.249	30.185	2263.863	2365.113
119.264	30.624	2264.048	2370.646
120.279	30.835	2262.569	2371.525
121.293	30.652	2260.166	2366.372
122.308	30.743	2259.353	2366.403
123.322	30.754	2258.226	2365.086
124.337	29.645	2252.243	2344.402
125.352	26.789	2243.707	2298.892
126.366	26.358	2242.785	2292.181
127.381	29.094	2247.780	2331.899
128.395	30.369	2247.725	2347.777
129.410	30.696	2246.489	2350.367
130.424	30.923	2246.090	2352.548
131.439	30.778	2243.021	2347.213
132.454	30.415	2240.686	2339.888
133.468	30.572	2238.631	2339.457
134.483	30.383	2236.543	2334.596
135.497	30.128	2234.523	2328.988
136.512	30.288	2232.688	2328.821
137.527	30.396	2230.802	2327.940
138.541	30.213	2228.934	2323.410
139.556	29.867	2227.895	2317.692
140.570	29.923	2226.509	2316.668
141.585	30.219	2225.643	2319.219
142.600	30.256	2223.597	2317.274
143.614	30.005	2222.380	2312.573
144.629	30.182	2219.646	2311.677
145.643	29.779	2217.159	2303.764
146.658	29.689	2214.866	2299.973
147.673	29.765	2213.491	2299.221
148.687	29.977	2212.653	2300.729
149.702	29.773	2211.000	2296.182
150.716	29.807	2208.889	2294.137
151.731	29.988	2207.969	2295.162
152.746	30.076	2207.160	2295.142
153.760	28.758	2201.895	2273.012
154.775	25.955	2192.807	2228.585
155.789	24.723	2189.139	2209.305
156.804	26.917	2193.549	2240.755
157.819	29.049	2194.558	2267.962
158.833	29.591	2193.575	2273.380
159.848	30.009	2192.839	2277.510
160.862	30.109	2192.101	2277.715
161.877	30.336	2191.658	2279.778
162.892	30.590	2189.678	2280.575
163.906	30.524	2189.631	2279.443
164.921	30.645	2187.952	2278.915
165.935	30.676	2184.385	2275.304
166.950	30.436	2182.493	2270.112
167.964	30.021	2179.944	2262.094
168.979	30.119	2178.192	2261.211
169.994	30.594	2177.502	2266.045
171.008	30.584	2176.204	2264.306
172.023	30.271	2175.045	2258.995
173.037	30.517	2173.844	2260.485
174.052	30.412	2171.117	2256.096
175.067	30.353	2169.406	2253.326
176.081	30.325	2167.975	2251.236
177.096	30.257	2166.644	2248.757
178.110	30.049	2164.923	2244.166
179.125	30.268	2164.635	2246.258
180.140	30.757	2164.178	2251.463
181.154	30.729	2161.554	2248.126
182.169	30.405	2159.739	2242.043
183.183	29.344	2154.352	2223.327
184.198	26.025	2143.236	2171.509
185.213	25.293	2142.649	2161.796
186.227	28.956	2150.535	2213.901
187.242	30.317	2152.641	2232.268
188.256	30.555	2151.165	2233.349
189.271	30.974	2151.007	2237.973
190.286	30.896	2149.486	2235.182
191.300	30.472	2145.540	2225.711
192.315	30.278	2143.453	2220.939
193.329	30.579	2141.748	2222.530
194.344	30.619	2141.567	2222.558
195.359	30.806	2140.917	2223.852
196.373	31.062	2138.442	2224.087
197.388	30.888	2135.467	2218.642
198.402	30.648	2131.808	2211.717
199.417	30.252	2129.994	2204.833
200.432	30.104	2128.821	2201.595
201.446	30.316	2128.058	2203.067
202.461	30.338	2126.250	2201.197
203.475	30.109	2123.887	2195.759
204.490	29.896	2121.128	2190.105
205.504	29.980	2119.225	2188.879
206.519	29.790	2116.332	2183.381
207.534	29.606	2114.736	2179.282
208.548	29.794	2113.312	2179.785
209.563	29.614	2111.368	2175.388
210.577	29.449	2109.227	2170.973
211.592	29.639	2109.848	2173.601
212.607	28.379	2103.374	2151.809
213.621	24.823	2094.743	2100.837
214.636	24.873	2095.024	2101.451
215.650	28.105	2101.158	2145.540
216.665	29.502	2101.600	2162.189
217.680	29.841	2100.934	2165.233
218.694	29.992	2100.914	2166.735
219.709	30.159	2099.057	2166.520
220.723	30.117	2098.636	2165.337
221.738	30.083	2096.104	2162.066
222.753	30.047	2092.892	2158.073
223.767	29.970	2091.762	2155.747
224.782	29.816	2089.126	2150.965
225.796	29.810	2088.988	2150.505
226.811	30.210	2088.172	2154.070
227.826	30.498	2086.591	2155.549
228.840	30.635	2084.384	2154.603
229.855	30.369	2083.420	2150.255
230.869	30.399	2081.948	2148.827
231.884	30.348	2079.883	2145.843
232.899	30.184	2077.910	2141.651
233.913	30.211	2078.043	2141.834
234.928	30.469	2076.917	2143.420
235.942	30.639	2074.929	2143.079
236.957	30.645	2074.991	2142.951
237.972	30.745	2072.826	2141.615
238.986	30.719	2072.101	2140.311
240.001	30.800	2069.117	2137.910
241.015	30.375	2067.071	2130.633
242.030	29.663	2062.917	2117.898
243.045	26.802	2053.152	2074.770
244.059	26.026	2053.436	2065.883
245.074	29.130	2058.519	2106.499
246.088	30.318	2058.474	2119.849
247.103	30.367	2056.354	2117.971
248.117	30.541	2056.524	2119.895
249.132	30.885	2055.484	2122.504
250.147	30.558	2053.017	2115.967
251.161	30.090	2050.158	2107.419
252.176	30.099	2047.825	2104.865
253.190	29.195	2042.587	2088.934
254.205	28.064	2038.601	2071.740
255.220	28.139	2037.968	2071.693
256.234	28.492	2038.447	2075.951
257.249	28.712	2037.220	2076.957
258.263	28.592	2035.322	2073.406
259.278	27.951	2032.440	2062.953
260.293	27.840	2031.422	2060.417
261.307	29.260	2032.494	2077.359
262.322	30.169	2033.060	2087.983
263.336	30.172	2030.810	2085.456
264.351	29.970	2028.718	2080.781
265.366	29.847	2028.476	2078.889
266.380	30.196	2026.833	2080.890
267.395	29.945	2024.893	2075.824
268.409	29.721	2023.400	2071.521
269.424	30.240	2023.655	2077.379
270.439	30.332	2022.720	2077.212
271.453	29.203	2015.779	2057.172
272.468	25.718	2006.670	2008.609
273.482	25.269	2006.016	2002.687
274.497	28.306	2010.511	2041.016
275.512	29.742	2011.059	2057.396
276.526	30.090	2009.360	2059.300
277.541	29.877	2007.779	2055.062
278.555	29.945	2005.671	2053.410
279.570	29.656	2003.986	2048.218
280.585	29.483	2001.742	2043.761
281.599	29.776	2001.009	2046.020
282.614	29.566	1998.379	2040.758
283.628	28.406	1993.857	2023.035
284.643	27.907	1992.836	2016.214
285.657	28.170	1991.003	2017.037
286.672	27.599	1988.353	2007.792
287.687	27.259	1985.945	2001.363
288.701	27.209	1984.691	1999.310
289.716	27.313	1983.950	1999.464
290.730	27.756	1982.709	2002.872
291.745	28.029	1982.385	2005.308
292.760	28.265	1982.105	2007.384
293.774	28.294	1981.687	2007.044
294.789	29.540	1984.036	2022.911
295.803	30.342	1983.379	2030.821
296.818	30.416	1982.852	2030.860
297.833	30.707	1981.610	2032.538
298.847	30.673	1980.656	2030.947
299.862	30.598	1978.893	2028.070
300.876	29.761	1972.923	2012.558
301.891	26.395	1962.643	1965.130
302.906	25.708	1963.472	1958.218
303.920	29.135	1969.726	2001.733
304.935	30.372	1969.354	2014.625
305.949	30.449	1968.506	2014.346
306.964	30.753	1967.072	2015.957
307.979	30.609	1964.646	2011.663
308.993	29.475	1960.189	1994.543
310.008	28.159	1956.590	1976.371
311.022	27.975	1954.789	1972.313
312.037	28.161	1952.293	1971.578
313.052	27.604	1949.664	1962.658
314.066	26.932	1945.829	1951.307
315.081	26.424	1944.003	1943.755
316.095	26.176	1942.136	1938.970
317.110	26.291	1941.188	1939.038
318.125	27.045	1941.574	1947.318
319.139	27.743	1942.571	1955.608
320.154	28.559	1940.929	1962.502
321.168	28.535	1940.278	1961.355
322.183	29.226	1941.539	1969.817
323.197	29.875	1941.780	1976.801
324.212	29.950	1940.460	1976.024
325.227	30.002	1939.051	1974.912
326.241	29.904	1937.815	1972.364
327.256	30.308	1936.252	1974.863
328.270	30.259	1934.497	1972.310
329.285	30.151	1934.474	1970.894
330.300	29.228	1929.652	1955.903
331.314	25.722	1920.045	1908.638
332.329	25.213	1919.820	1902.763
333.343	28.496	1926.300	1944.012
334.358	30.180	1927.314	1962.732
335.373	30.473	1925.579	1963.848
336.387	30.588	1924.164	1963.385
337.402	30.580	1921.980	1960.845
338.416	30.322	1920.082	1955.937
339.431	30.368	1919.007	1955.094
340.446	30.711	1917.407	1956.855
341.460	29.884	1913.513	1943.921
342.475	28.794	1909.501	1928.123
343.489	28.249	1906.536	1919.159
344.504	27.941	1904.824	1913.958
345.519	27.487	1902.753	1906.870
346.533	27.263	1900.592	1902.124
347.548	27.390	1899.152	1901.793
348.562	27.635	1898.268	1903.252
349.577	27.727	1897.434	1903.148
350.592	27.516	1895.916	1899.188
351.606	27.602	1894.071	1898.018
352.621	27.568	1893.178	1896.539
353.635	28.417	1894.715	1906.729
354.650	29.356	1894.334	1915.934
355.665	29.681	1894.166	1918.925
356.679	29.965	1893.882	1921.370
357.694	30.266	1891.922	1922.283
358.708	30.467	1892.490	1924.730
359.723	29.321	1887.264	1907.277
360.738	25.948	1877.352	1862.075
361.752	26.254	1879.343	1867.009
362.767	29.294	1883.967	1902.976
363.781	30.041	1883.699	1910.223
364.796	30.060	1883.062	1909.546
365.810	30.002	1881.484	1907.121
366.825	30.130	1880.650	1907.366
367.840	30.354	1879.790	1908.586
368.854	30.119	1876.957	1903.050
369.869	29.176	1873.493	1889.589
370.883	28.281	1870.872	1877.508
371.898	27.625	1867.285	1866.930
372.913	27.579	1866.290	1865.239
373.927	28.086	1865.169	1869.104
374.942	28.246	1863.460	1868.812
375.956	28.288	1862.600	1868.153
376.971	27.864	1859.362	1860.340
377.986	27.271	1856.597	1851.289
379.000	27.685	1858.177	1856.881
380.015	29.350	1860.331	1875.849
381.029	30.406	1859.900	1885.981
382.044	30.585	1858.649	1886.310
383.059	30.701	1856.862	1885.455
384.073	30.180	1855.164	1878.200
385.088	29.827	1853.021	1872.218
386.102	29.793	1851.975	1870.592
387.117	29.711	1849.433	1866.969
388.132	29.575	1849.850	1865.782
389.146	28.935	1846.198	1855.388
390.161	25.694	1837.790	1813.937
391.175	25.373	1836.656	1809.357
392.190	28.539	1839.695	1844.185
393.205	29.657	1839.301	1854.860
394.219	29.919	1838.760	1856.737
395.234	29.622	1837.462	1852.211
396.248	29.622	1835.595	1850.106
397.263	29.748	1834.019	1849.560
398.278	29.678	1832.271	1846.871
399.292	29.651	1831.067	1845.171
400.307	29.996	1830.993	1848.330
401.321	29.788	1828.265	1843.276
402.336	28.243	1823.060	1822.361
403.350	27.162	1819.118	1807.408
404.365	27.482	1819.199	1810.468
405.380	27.510	1817.614	1808.954
406.394	26.740	1814.584	1798.047
407.409	26.426	1812.482	1792.618
408.423	26.418	1811.262	1791.114
409.438	27.172	1811.615	1798.751
410.453	28.202	1813.642	1810.801
411.467	29.266	1815.759	1823.290
412.482	29.903	1815.988	1829.625
413.496	30.413	1814.966	1833.440
414.511	30.090	1812.749	1827.784
415.526	30.137	1811.144	1826.409
416.540	30.735	1808.826	1829.769
417.555	30.517	1808.012	1826.574
418.569	29.994	1807.054	1820.216
419.584	29.979	1807.200	1819.996
420.599	29.962	1805.781	1818.184
421.613	29.868	1805.224	1816.477
422.628	30.266	1804.245	1819.199
423.642	30.829	1804.057	1824.340
424.657	30.632	1801.669	1819.767
425.672	30.049	1799.513	1811.647
426.686	30.489	1798.914	1815.144
427.701	30.963	1798.017	1818.676
428.715	30.973	1797.012	1817.537
429.730	31.177	1796.822	1819.123
430.745	31.249	1793.512	1816.267
431.759	30.478	1791.037	1806.006
432.774	28.863	1786.195	1785.163
433.788	26.561	1781.207	1757.524
434.803	25.890	1778.896	1748.495
435.818	25.983	1777.958	1748.265
436.832	25.939	1777.297	1746.981
437.847	24.678	1768.461	1725.856
438.861	14.213	1739.426	1596.897
439.876	2.777	1718.017	1467.589
440.890	0.451	1712.831	1440.668
441.905	0.231	1711.419	1437.195
442.920	0.334	1709.921	1436.759
443.934	0.349	1708.457	1435.495
444.949	0.136	1707.603	1432.571
445.963	0.200	1706.774	1432.312
446.978	0.148	1706.234	1431.188
447.993	0.222	1704.283	1430.087
449.007	0.262	1702.142	1428.508
450.022	0.298	1700.694	1427.457
451.036	0.174	1699.235	1424.887
452.051	0.760	1702.203	1432.792
453.066	9.365	1725.203	1534.776
454.080	21.208	1746.088	1667.512
455.095	24.519	1751.163	1703.976
456.109	25.553	1751.320	1713.840
457.124	25.574	1750.499	1713.027
458.139	25.489	1749.191	1710.730
459.153	25.351	1748.795	1708.822
460.168	25.358	1746.557	1706.498
461.182	25.705	1745.273	1708.345
462.197	25.615	1744.602	1706.626
463.212	25.879	1743.288	1707.648
464.226	26.171	1742.250	1709.211
465.241	26.141	1740.177	1706.690
466.255	25.850	1738.881	1702.447
467.270	25.843	1738.410	1701.717
468.285	25.976	1738.760	1703.114
469.299	26.279	1736.411	1703.484
470.314	26.352	1734.006	1701.608
471.328	26.272	1733.728	1700.378
472.343	26.378	1732.765	1700.233
473.358	26.353	1731.701	1698.749
474.372	26.386	1729.885	1697.080
475.387	26.634	1728.829	1698.171
476.401	26.291	1727.594	1693.529
477.416	25.972	1725.444	1688.215
478.430	25.822	1723.861	1685.056
479.445	26.124	1724.148	1687.970
480.460	26.631	1723.061	1691.462
481.474	26.564	1721.879	1689.477
482.489	26.432	1719.689	1685.890
483.503	25.971	1717.080	1678.819
484.518	25.817	1716.519	1676.624
485.533	25.782	1714.740	1674.359
486.547	25.549	1712.075	1669.382
487.562	24.957	1709.522	1661.178
488.576	25.286	1708.862	1663.400
489.591	25.465	1708.898	1664.902
490.606	25.844	1708.521	1667.867
491.620	26.134	1706.240	1668.131
492.635	25.713	1704.083	1661.920
493.649	25.221	1702.399	1655.519
494.664	25.726	1702.429	1660.029
495.679	26.422	1701.664	1665.533
496.693	26.251	1700.258	1662.368
497.708	26.095	1698.609	1659.117
498.722	25.670	1696.941	1653.368
499.737	25.600	1696.279	1651.879
500.752	25.904	1694.884	1653.127
501.766	26.136	1693.038	1653.266
502.781	26.106	1690.959	1650.759
503.795	25.979	1690.132	1648.588
504.810	25.965	1689.031	1647.189
505.825	25.769	1687.688	1643.882
506.839	25.675	1686.425	1641.597
507.854	25.618	1684.888	1639.374
508.868	25.463	1683.240	1636.158
509.883	25.205	1681.336	1631.750
510.898	25.110	1680.036	1629.427
511.912	25.140	1678.100	1627.633
512.927	25.055	1677.127	1625.719
513.941	25.237	1675.559	1625.658
514.956	25.282	1674.739	1625.077
515.971	25.332	1672.796	1623.458
516.985	25.256	1671.131	1620.951
518.000	24.903	1670.941	1617.373
519.014	24.787	1669.054	1614.295
520.029	24.665	1666.749	1610.774
521.043	24.798	1666.373	1611.422
522.058	25.060	1665.444	1612.696
523.073	25.056	1664.717	1611.762
524.087	24.662	1662.613	1605.981
525.102	24.818	1661.832	1606.436
526.116	25.372	1662.421	1611.817
527.131	25.817	1660.691	1613.955
528.146	25.394	1660.011	1609.290
529.160	25.165	1658.451	1605.529
530.175	25.216	1657.573	1604.938
531.189	25.202	1655.708	1602.822
532.204	25.120	1653.861	1600.106
533.219	25.599	1652.888	1603.267
534.233	26.028	1652.922	1606.945
535.248	25.652	1651.615	1602.115
536.262	24.985	1648.671	1593.109
537.277	24.886	1647.521	1590.922
538.292	25.220	1646.302	1592.534
539.306	25.185	1644.376	1590.176
540.321	24.946	1642.018	1585.578
541.335	24.663	1641.581	1582.447
542.350	24.914	1639.846	1582.815
543.365	24.936	1638.818	1581.831
544.379	24.808	1637.091	1578.837
545.394	24.637	1636.129	1576.202
546.408	25.177	1636.041	1580.718
547.423	25.907	1636.396	1587.333
548.438	25.933	1635.335	1586.343
549.452	25.778	1633.388	1582.899
550.467	25.540	1632.008	1579.271
551.481	25.557	1630.268	1577.550
552.496	25.130	1629.059	1572.424
553.511	24.757	1627.077	1567.038
554.525	24.788	1625.896	1565.985
555.540	24.627	1625.096	1563.615
556.554	24.671	1623.670	1562.438
557.569	24.741	1621.791	1561.063
558.583	24.920	1620.803	1561.492
559.598	25.061	1619.743	1561.513
560.613	24.850	1619.067	1558.827
561.627	24.719	1617.245	1555.742
562.642	24.309	1614.989	1549.810
563.656	23.892	1612.662	1543.751
564.671	23.898	1611.407	1542.419
565.686	24.025	1610.504	1542.472
566.700	24.157	1609.980	1542.939
567.715	24.392	1608.392	1543.270
568.729	24.307	1607.827	1541.807
569.744	24.627	1605.659	1542.325
570.759	24.520	1604.455	1540.055
571.773	24.428	1602.796	1537.478
572.788	24.273	1601.659	1534.863
573.802	24.093	1600.225	1531.746
574.817	24.112	1598.404	1529.987
575.832	23.841	1596.622	1525.757
576.846	24.041	1596.052	1526.761
577.861	24.478	1595.863	1530.163
578.875	24.482	1595.510	1529.671
579.890	24.343	1593.898	1526.746
580.905	24.251	1592.434	1524.369
581.919	24.172	1592.335	1523.414
582.934	24.230	1590.523	1521.998
583.948	24.286	1587.876	1519.767
584.963	24.285	1587.598	1519.307
585.978	24.531	1587.605	1521.234
586.992	24.468	1585.702	1518.696
588.007	23.828	1584.718	1512.099
589.021	24.108	1583.548	1513.194
590.036	24.191	1582.198	1512.428
591.051	24.070	1580.722	1509.807
592.065	23.842	1578.553	1505.609
593.080	23.713	1576.812	1502.672
594.094	23.975	1576.007	1503.953
595.109	24.549	1576.383	1509.008
596.123	25.191	1575.233	1513.170
597.138	24.961	1573.598	1509.472
598.153	24.552	1571.645	1503.962
599.167	24.431	1570.677	1501.825
600.182	24.452	1568.914	1500.140
601.196	24.357	1568.090	1498.368
602.211	24.511	1567.122	1498.567
603.226	24.066	1565.580	1493.163
604.240	23.980	1563.845	1490.602
605.255	23.917	1562.146	1488.279
606.269	23.996	1561.724	1488.361
607.284	24.101	1560.444	1487.848
608.299	23.975	1559.263	1485.481
609.313	24.138	1558.421	1485.871
610.328	23.938	1557.175	1482.824
611.342	23.894	1555.342	1480.536
612.357	23.848	1553.806	1478.511
613.372	23.736	1552.596	1476.250
614.386	23.735	1551.381	1474.906
615.401	23.542	1550.931	1472.698
616.415	23.495	1549.192	1470.478
617.430	23.434	1548.503	1469.133
618.445	23.248	1546.580	1465.586
619.459	23.236	1546.221	1464.972
620.474	23.588	1545.966	1467.479
621.488	24.178	1545.092	1471.378
622.503	24.423	1544.142	1472.331
623.518	23.919	1541.449	1465.415
624.532	23.289	1540.178	1458.811
625.547	23.224	1538.894	1456.883
626.561	22.983	1537.053	1452.974
627.576	22.727	1536.426	1450.091
628.591	23.203	1536.224	1453.657
629.605	23.513	1535.133	1455.009
630.620	23.709	1534.020	1455.396
631.634	24.096	1533.274	1457.702
632.649	24.093	1531.510	1455.821
633.663	23.616	1529.501	1449.827
634.678	23.296	1527.660	1445.282
635.693	22.904	1525.615	1439.961
636.707	22.825	1524.311	1437.916
637.722	22.657	1523.458	1435.558
638.736	22.896	1522.489	1436.434
639.751	23.170	1521.475	1437.543
640.766	23.316	1520.427	1437.565
641.780	23.378	1519.058	1436.608
642.795	23.545	1518.470	1437.243
643.809	23.505	1517.600	1435.919
644.824	23.453	1517.695	1435.409
645.839	23.634	1516.145	1435.244
646.853	23.482	1515.243	1432.988
647.868	23.592	1513.420	1431.986
648.882	23.728	1512.370	1431.921
649.897	23.663	1511.020	1429.942
650.912	23.552	1508.756	1426.732
651.926	23.481	1508.142	1425.409
652.941	23.393	1507.189	1423.628
653.955	23.463	1505.927	1422.827
654.970	23.527	1504.859	1422.163
655.985	23.449	1503.028	1419.637
656.999	23.164	1501.396	1415.632
658.014	23.212	1500.063	1414.592
659.028	23.094	1499.013	1412.484
660.043	23.142	1498.671	1412.376
661.058	23.348	1496.705	1412.012
662.072	23.297	1495.286	1410.092
663.087	23.402	1495.326	1410.799
664.101	23.619	1494.173	1411.284
665.116	23.449	1492.889	1408.538
666.131	23.331	1491.728	1406.336
667.145	23.278	1491.220	1405.268
668.160	23.229	1489.108	1402.716
669.174	23.060	1486.805	1399.037
670.189	23.077	1486.449	1398.670
671.204	23.335	1486.431	1400.531
672.218	23.239	1486.229	1399.417
673.233	23.108	1484.371	1396.456
674.247	23.007	1481.886	1393.156
675.262	22.808	1480.957	1390.537
676.276	22.829	1479.813	1389.461
677.291	23.047	1479.625	1390.839
678.306	23.487	1479.324	1393.868
679.320	23.317	1477.493	1390.640
680.335	22.955	1476.046	1386.251
681.349	22.949	1475.716	1385.730
682.364	22.912	1473.796	1383.473
683.379	23.039	1472.098	1382.710
684.393	22.808	1470.566	1379.288
685.408	22.770	1470.345	1378.624
686.422	22.812	1469.062	1377.579
687.437	22.643	1467.841	1374.947
688.452	22.345	1466.787	1371.464
689.466	22.546	1465.206	1371.391
690.481	22.571	1464.318	1370.594
691.495	22.760	1463.555	1371.191
692.510	23.299	1463.638	1375.315
693.525	23.618	1462.553	1376.613
694.539	23.178	1461.211	1371.759
695.554	22.637	1458.966	1365.278
696.568	22.387	1457.942	1362.215
697.583	22.269	1456.549	1359.831
698.598	22.311	1455.820	1359.312
699.612	22.256	1454.502	1357.496
700.627	22.460	1453.515	1357.992
701.641	22.635	1452.462	1358.205
702.656	22.821	1450.968	1358.076
703.671	22.564	1450.811	1355.781
704.685	22.693	1450.043	1355.897
705.700	22.800	1448.708	1355.312
706.714	22.780	1448.113	1354.442
707.729	23.115	1446.433	1355.291
708.744	22.979	1444.650	1352.410
709.758	22.690	1444.142	1349.547
710.773	22.764	1443.215	1349.089
711.787	22.786	1441.623	1347.610
712.802	22.905	1439.550	1346.423
713.816	22.889	1438.550	1345.200
714.831	23.049	1437.661	1345.432
715.846	22.635	1436.946	1341.442
716.860	22.426	1435.268	1338.116
717.875	22.565	1434.670	1338.458
718.889	22.662	1433.771	1338.198
719.904	22.617	1432.962	1336.946
720.919	22.699	1430.863	1335.448
721.933	22.484	1430.069	1332.909
722.948	22.376	1429.191	1331.110
723.962	22.377	1427.912	1329.769
724.977	22.365	1426.345	1328.063
725.992	22.344	1426.181	1327.592
727.006	22.536	1424.294	1327.128
728.021	22.513	1422.869	1325.470
729.035	22.365	1421.676	1323.082
730.050	22.494	1420.792	1323.075
731.065	22.492	1419.920	1322.086
732.079	22.405	1418.904	1320.329
733.094	22.567	1418.027	1320.575
734.108	22.679	1416.033	1319.404
735.123	22.649	1414.845	1317.911
736.138	22.495	1413.856	1315.677
737.152	22.552	1412.850	1315.010
738.167	22.292	1411.594	1311.733
739.181	22.340	1411.029	1311.411
740.196	22.305	1410.233	1310.252
741.211	22.205	1409.218	1308.401
742.225	22.388	1408.301	1308.764
743.240	22.109	1406.981	1305.297
744.254	22.155	1405.270	1303.897
745.269	22.061	1404.127	1301.982
746.284	21.979	1404.496	1301.559
747.298	22.169	1403.250	1301.657
748.313	22.247	1402.823	1301.687
749.327	22.521	1402.088	1302.891
750.342	23.001	1402.529	1306.707
751.356	23.426	1401.356	1308.612
752.371	23.384	1398.866	1305.821
753.386	22.550	1396.928	1297.682
754.400	22.162	1395.318	1293.163
755.415	22.232	1394.405	1292.683
756.429	22.301	1393.281	1291.998
757.444	22.395	1391.367	1290.760
758.459	22.172	1390.815	1288.450
759.473	22.145	1389.364	1286.753
760.488	22.155	1388.440	1285.814
761.502	22.068	1387.269	1283.939
762.517	22.066	1386.700	1283.239
763.532	22.344	1385.348	1283.879
764.546	22.342	1384.577	1282.991
765.561	22.431	1383.984	1282.940
766.575	22.798	1384.027	1285.516
767.590	22.829	1382.600	1284.260
768.605	22.521	1380.987	1280.358
769.619	22.415	1379.188	1277.767
770.634	22.267	1378.103	1275.533
771.648	22.232	1376.480	1273.622
772.663	22.099	1375.489	1271.586
773.678	22.130	1374.625	1270.860
774.692	22.077	1374.101	1269.837
775.707	22.178	1373.557	1269.911
776.721	22.162	1372.131	1268.327
777.736	22.167	1371.159	1267.315
778.751	22.019	1370.458	1265.444
779.765	22.196	1369.159	1265.372
780.780	22.068	1368.356	1263.551
781.794	22.201	1367.889	1263.929
782.809	21.941	1366.889	1260.981
783.824	21.899	1365.504	1259.247
784.838	22.190	1364.094	1259.892
785.853	22.854	1363.687	1264.148
786.867	22.656	1363.004	1261.938
787.882	22.206	1362.427	1258.018
788.897	21.998	1361.659	1255.663
789.911	21.936	1360.241	1253.756
790.926	22.015	1357.663	1251.798
791.940	21.914	1356.273	1249.641
792.955	21.812	1355.006	1247.600
793.969	21.828	1354.417	1247.020
794.984	21.944	1354.517	1247.793
795.999	21.943	1352.622	1245.893
797.013	21.923	1350.788	1243.911
798.028	21.870	1349.510	1242.208
799.042	21.786	1349.337	1241.303
800.057	21.900	1347.676	1240.435
801.072	21.912	1346.643	1239.420
802.086	21.834	1345.244	1237.434
803.101	21.848	1344.582	1236.770
804.115	21.790	1343.648	1235.352
805.130	21.770	1342.896	1234.378
806.145	21.908	1341.101	1233.555
807.159	21.977	1339.455	1232.374
808.174	22.022	1338.755	1231.900
809.188	22.114	1337.516	1231.262
810.203	22.216	1336.120	1230.547
811.218	22.287	1334.954	1229.829
812.232	22.356	1333.750	1229.057
813.247	22.273	1333.340	1227.951
814.261	22.229	1332.943	1227.123
815.276	22.072	1331.646	1224.682
816.291	21.946	1329.903	1222.056
817.305	21.808	1328.205	1219.381
818.320	21.955	1326.646	1218.831
819.334	21.786	1325.833	1216.761
820.349	21.930	1324.817	1216.688
821.364	21.766	1323.384	1214.080
822.378	21.822	1322.040	1213.096
823.393	21.686	1320.216	1210.329
824.407	21.693	1319.642	1209.707
825.422	21.632	1319.128	1208.669
826.437	21.705	1317.867	1207.873
827.451	21.778	1316.371	1206.863
828.466	22.202	1315.705	1209.040
829.480	22.548	1314.073	1209.786
830.495	22.168	1312.006	1205.116
831.509	21.946	1310.655	1202.205
832.524	21.842	1309.127	1199.945
833.539	21.875	1308.122	1199.108
834.553	21.874	1307.012	1197.938
835.568	21.683	1305.953	1195.511
836.582	21.685	1305.229	1194.722
837.597	21.793	1303.141	1193.409
838.612	21.812	1302.341	1192.660
839.626	22.001	1301.562	1193.097
840.641	22.083	1300.755	1192.775
841.655	22.087	1300.079	1192.039
842.670	22.313	1300.059	1193.420
843.685	22.586	1299.111	1194.265
844.699	22.347	1297.745	1191.242
845.714	21.988	1296.070	1187.117
846.728	21.776	1295.322	1184.855
847.743	21.657	1294.227	1182.899
848.758	21.645	1292.895	1181.463
849.772	21.743	1291.049	1180.299
850.787	21.748	1289.113	1178.416
851.801	21.702	1288.204	1177.134
852.816	21.742	1286.415	1175.628
853.831	21.958	1285.468	1176.077
854.845	21.659	1284.152	1172.725
855.860	21.626	1282.767	1171.095
856.874	21.648	1281.854	1170.271
857.889	21.903	1281.138	1171.185
858.904	22.154	1280.509	1172.155
859.918	22.471	1279.095	1172.841
860.933	22.639	1277.612	1172.466
861.947	22.500	1276.091	1170.003
862.962	22.138	1274.682	1166.154
863.977	21.837	1273.353	1162.797
864.991	21.828	1272.604	1161.914
866.006	21.720	1271.978	1160.484
867.020	21.764	1270.736	1159.504
868.035	21.703	1270.068	1158.349
869.049	21.610	1268.691	1156.340
870.064	21.751	1267.210	1155.780
871.079	21.793	1267.187	1155.899
872.093	21.732	1266.610	1154.833
873.108	21.916	1265.265	1154.684
874.122	21.959	1264.539	1154.169
875.137	22.203	1263.871	1155.031
876.152	22.266	1263.531	1155.000
877.166	22.258	1261.365	1152.826
878.181	22.096	1259.241	1149.681
879.195	21.855	1258.726	1147.491
880.210	21.732	1258.263	1146.124
881.225	21.749	1256.930	1144.883
882.239	21.845	1255.457	1144.037
883.254	21.775	1255.035	1143.055
884.268	21.661	1253.991	1141.219
885.283	21.851	1252.586	1141.049
886.298	21.768	1251.199	1139.102
887.312	21.873	1249.865	1138.442
888.327	21.862	1249.044	1137.480
889.341	21.608	1248.574	1135.263
890.356	21.690	1247.623	1134.796
891.371	21.748	1247.316	1134.761
892.385	21.623	1246.947	1133.474
893.400	21.639	1246.281	1132.837
894.414	21.810	1244.494	1132.190
895.429	21.923	1243.460	1131.846
896.444	22.586	1243.177	1135.749
897.458	23.314	1242.228	1139.455
898.473	22.686	1240.654	1133.815
899.487	22.156	1239.317	1129.041
900.502	21.907	1237.886	1125.995
901.517	21.936	1236.287	1124.589
902.531	21.772	1234.996	1122.224
903.546	21.801	1234.424	1121.762
904.560	21.789	1233.887	1121.060
905.575	21.796	1232.753	1119.941
906.589	21.948	1231.981	1120.079
907.604	21.846	1231.226	1118.608
