DTS Sentinel unit serial number:	SN409020Multiplexer serial number:	ORYXHardware model number:	OX4-SRSoftware version number:	ORYX F/W v3.00 Oryx Data Collector v3.7.2.0data status	okinstallation	HaddamTimeLapsedifferential loss correction	single-endedforward channel	channel 3reverse channel	N/Adate	2011/06/21time	15:56:17forward acquisition time	30.00reverse acquisition time	0.00gamma	498.7831k internal	0.1800k external	0.1800temperature offset calibration	1.0074default loss term (dB/km)	0.3790temperature slope calibration	1.3530multiplexer offset coefficient	1.0000multiplexer slope coefficient	1.0000fibre end	0.00T internal ref (°C)	35.75T ext. ref 1 (°C)	26.90T ext. ref 2 (°C)	0.23length (m)	temperature (°C)	Stokes	anti-Stokes-747.200	-37.698	-0.143	0.098
-746.185	226.450	0.199	0.418
-745.171	800.000	-0.090	-0.350
-744.156	449.361	0.273	0.783
-743.142	600.685	-0.180	-0.580
-742.127	-200.000	0.017	0.211
-741.112	-200.000	0.039	-0.612
-740.098	-200.000	-0.016	0.188
-739.083	-125.231	-0.122	-0.024
-738.069	-159.676	0.386	0.027
-737.054	-181.434	0.667	-0.017
-736.039	-102.775	-0.411	0.126
-735.025	800.000	-0.189	-0.684
-734.010	800.000	-0.078	-0.372
-732.996	-105.479	-0.085	-0.025
-731.981	-22.126	-0.349	0.273
-730.966	189.419	0.186	-0.360
-729.952	272.075	0.233	0.534
-728.937	-200.000	0.001	0.248
-727.923	800.000	-0.084	0.308
-726.908	-138.245	-0.555	-0.078
-725.894	-2.617	-0.171	-0.155
-724.879	-94.119	0.049	0.017
-723.864	172.532	-0.109	0.203
-722.850	112.851	-0.224	-0.351
-721.835	280.283	-0.017	-0.040
-720.821	-102.334	-0.437	0.134
-719.806	-61.569	0.152	0.082
-718.791	-200.000	0.015	-0.397
-717.777	-200.000	0.070	-0.511
-716.762	-139.775	0.358	-0.048
-715.748	71.154	0.342	-0.459
-714.733	-193.219	-0.438	0.005
-713.718	-50.008	0.173	0.106
-712.704	-25.754	0.238	-0.181
-711.689	268.190	-0.203	-0.460
-710.675	-24.898	-0.259	0.198
-709.660	299.432	0.028	-0.066
-708.645	-81.076	-0.173	0.074
-707.631	138.555	-0.240	-0.408
-706.616	31.017	-0.223	0.247
-705.602	-157.617	-0.290	-0.022
-704.587	155.710	0.146	0.261
-703.572	231.263	-0.014	-0.030
-702.558	388.787	-0.155	-0.417
-701.543	-61.572	-0.118	-0.064
-700.529	-9.365	0.370	0.319
-699.514	-13.671	0.242	0.202
-698.499	-84.874	0.293	0.118
-697.485	754.937	0.152	0.532
-696.470	22.874	0.183	0.193
-695.456	-84.424	0.131	-0.053
-694.441	107.474	-0.191	0.293
-693.426	-74.693	-0.194	-0.089
-692.412	468.114	-0.120	-0.350
-691.397	-139.130	-0.398	-0.055
-690.383	107.944	-0.109	-0.168
-689.368	-99.410	0.456	-0.147
-688.354	107.105	0.342	-0.526
-687.339	128.059	0.172	-0.283
-686.324	-120.571	0.222	-0.048
-685.310	460.059	0.009	-0.026
-684.295	-115.090	-0.486	0.118
-683.281	-174.336	-0.203	0.007
-682.266	800.000	0.058	-0.231
-681.251	-72.533	-0.090	0.043
-680.237	800.000	0.030	0.134
-679.222	-62.038	-0.329	-0.177
-678.208	-43.615	-0.362	0.234
-677.193	-24.127	-0.181	-0.139
-676.178	502.672	0.174	-0.522
-675.164	-189.701	-0.458	0.007
-674.149	800.000	-0.063	0.241
-673.135	104.564	-0.035	-0.053
-672.120	406.701	-0.118	0.324
-671.105	-18.286	-0.125	-0.101
-670.091	71.408	-0.293	-0.392
-669.076	-145.787	-0.196	0.022
-668.062	-33.200	-0.177	-0.126
-667.047	-23.343	-0.223	0.172
-666.032	800.000	0.026	0.140
-665.018	124.296	0.364	0.590
-664.003	-81.119	-0.167	0.071
-662.989	542.552	0.068	-0.210
-661.974	-115.759	-0.419	-0.100
-660.959	4.615	0.241	0.227
-659.945	-200.000	-0.596	0.001
-658.930	-57.435	0.421	0.237
-657.916	800.000	0.075	0.379
-656.901	-162.598	-0.427	0.027
-655.886	28.287	0.083	-0.091
-654.872	-0.504	0.150	-0.137
-653.857	-155.533	0.341	-0.028
-652.843	-87.249	-0.473	0.184
-651.828	237.060	0.062	0.132
-650.814	77.944	0.254	-0.349
-649.799	-97.188	-0.497	0.166
-648.784	606.102	0.014	0.045
-647.770	176.428	0.190	-0.356
-646.755	-35.719	0.141	-0.098
-645.741	621.637	-0.076	-0.247
-644.726	-107.956	0.369	0.102
-643.711	-45.205	0.556	0.354
-642.697	-200.000	-0.011	0.301
-641.682	70.966	0.212	0.283
-640.668	-107.023	-0.870	-0.246
-639.653	13.269	-0.194	0.194
-638.638	157.808	-0.109	0.195
-637.624	-6.052	0.211	-0.186
-636.609	-73.464	0.439	0.205
-635.595	665.147	0.034	0.114
-634.580	-87.999	-0.408	0.157
-633.565	-130.329	0.157	0.027
-632.551	-10.290	-0.331	0.283
-631.536	-38.207	0.043	0.029
-630.522	-139.211	-0.205	-0.028
-629.507	170.733	0.227	0.420
-628.492	-111.359	-0.319	0.083
-627.478	-200.000	-0.028	-0.201
-626.463	-200.000	-0.030	0.227
-625.449	327.673	0.164	-0.407
-624.434	-11.991	-0.404	0.340
-623.419	-137.565	-0.489	0.070
-622.405	-71.652	0.076	0.036
-621.390	70.814	0.171	-0.228
-620.376	-91.161	0.059	0.022
-619.361	-172.870	-0.324	-0.013
-618.346	-200.000	0.009	0.078
-617.332	-81.102	-0.262	0.111
-616.317	400.308	0.039	0.106
-615.303	117.976	0.233	0.369
-614.288	21.828	0.258	-0.270
-613.273	-55.257	-0.132	0.076
-612.259	800.000	-0.118	-0.436
-611.244	3.154	0.332	0.310
-610.230	67.164	0.145	0.190
-609.215	189.590	-0.153	-0.296
-608.201	-200.000	0.015	-0.150
-607.186	-200.000	0.043	-0.532
-606.171	60.780	-0.278	-0.355
-605.157	337.280	0.281	0.706
-604.142	-132.517	0.207	-0.034
-603.128	-189.702	-0.142	-0.002
-602.113	-125.176	-0.373	-0.073
-601.098	210.295	0.045	-0.091
-600.084	-85.612	0.313	-0.124
-599.069	800.000	0.062	0.296
-598.055	205.454	-0.084	-0.168
-597.040	800.000	0.112	0.406
-596.025	784.772	0.113	-0.400
-595.011	-101.041	-0.419	-0.131
-593.996	800.000	-0.054	-0.230
-592.982	-98.800	-0.298	-0.097
-591.967	-27.102	-0.425	-0.318
-590.952	-167.939	-0.331	0.016
-589.938	-200.000	0.019	-0.233
-588.923	-112.273	0.386	-0.099
-587.909	102.250	-0.114	-0.171
-586.894	-116.535	0.140	-0.033
-585.879	417.827	0.233	0.643
-584.865	-137.495	0.191	-0.027
-583.850	2.826	-0.076	-0.071
-582.836	-200.000	0.026	-0.601
-581.821	144.952	0.189	0.325
-580.806	28.542	-0.169	0.183
-579.792	800.000	-0.047	-0.195
-578.777	-90.973	-0.427	0.157
-577.763	362.141	0.139	0.360
-576.748	-104.929	0.510	-0.149
-575.733	-140.437	0.099	-0.013
-574.719	233.813	0.149	-0.316
-573.704	-168.068	-0.315	0.016
-572.690	-153.124	-0.571	-0.051
-571.675	-47.851	-0.215	-0.133
-570.661	-172.060	0.470	-0.019
-569.646	137.976	-0.265	0.446
-568.631	383.941	-0.112	0.298
-567.617	-11.098	0.293	-0.248
-566.602	-124.789	0.678	0.133
-565.588	173.715	0.099	-0.185
-564.573	-48.514	-0.290	0.178
-563.558	-200.000	0.005	-0.280
-562.544	-200.000	0.016	0.100
-561.529	110.637	-0.139	-0.215
-560.515	800.000	-0.035	-0.187
-559.500	31.543	0.089	-0.098
-558.485	800.000	-0.053	0.195
-557.471	146.644	0.309	0.534
-556.456	-151.335	0.118	-0.011
-555.442	-200.000	0.006	0.194
-554.427	219.467	-0.086	-0.177
-553.412	-114.819	0.011	-0.003
-552.398	503.037	0.055	0.163
-551.383	6.842	-0.159	-0.152
-550.369	-166.891	-0.313	-0.016
-549.354	-97.798	0.240	0.079
-548.339	-70.244	-0.205	0.099
-547.325	-200.000	-0.044	0.297
-546.310	-109.074	-0.423	0.115
-545.296	331.924	-0.146	0.363
-544.281	648.116	0.089	-0.295
-543.266	-160.982	-0.134	0.009
-542.252	122.037	-0.116	0.187
-541.237	-39.389	-0.237	-0.159
-540.223	246.243	0.048	-0.105
-539.208	-123.857	0.746	0.150
-538.193	-4.588	0.427	0.377
-537.179	-200.000	0.073	0.414
-536.164	-152.832	-0.252	-0.023
-535.150	-104.279	-0.551	-0.163
-534.135	-128.095	0.019	-0.004
-533.121	-138.676	0.222	-0.031
-532.106	59.125	0.070	-0.088
-531.091	-41.379	-0.106	0.070
-530.077	-133.124	-0.189	0.030
-529.062	-194.945	0.562	-0.005
-528.048	178.252	-0.066	0.124
-527.033	-161.292	-0.655	-0.043
-526.018	-48.325	0.536	0.330
-525.004	-139.677	0.420	-0.057
-523.989	183.316	0.235	-0.446
-522.975	-85.784	-0.084	-0.033
-521.960	-200.000	-0.061	0.384
-520.945	-113.748	0.073	-0.018
-519.931	-30.271	-0.341	0.248
-518.916	46.796	0.146	0.174
-517.902	-170.208	-0.072	0.003
-516.887	-49.330	0.412	0.251
-515.872	45.018	0.132	-0.156
-514.858	-102.099	0.549	-0.168
-513.843	-99.176	0.680	-0.219
-512.829	-97.496	-0.488	-0.162
-511.814	16.971	-0.142	-0.144
-510.799	-39.906	0.585	0.390
-509.785	-68.638	0.345	0.170
-508.770	-178.213	-0.083	-0.002
-507.756	589.988	-0.063	-0.200
-506.741	-200.000	0.056	0.328
-505.726	91.930	0.161	-0.232
-504.712	163.419	-0.114	0.206
-503.697	-39.824	0.051	-0.034
-502.683	-9.688	0.171	0.145
-501.668	31.449	0.111	0.122
-500.653	-200.000	-0.017	0.146
-499.639	-74.138	0.228	0.105
-498.624	89.569	-0.167	-0.238
-497.610	149.872	-0.182	-0.316
-496.595	-122.608	0.173	-0.036
-495.581	-105.223	-0.318	0.092
-494.566	-79.655	-0.452	-0.194
-493.551	-9.596	-0.065	-0.056
-492.537	-155.316	0.349	-0.029
-491.522	-96.961	0.420	0.140
-490.508	-70.749	0.460	-0.221
-489.493	-200.000	-0.004	0.471
-488.478	585.430	0.027	-0.086
-487.464	-63.269	-0.467	-0.245
-486.449	800.000	-0.100	-0.390
-485.435	83.150	0.181	0.253
-484.420	800.000	-0.090	-0.404
-483.405	-87.092	-0.174	-0.067
-482.391	-23.309	-0.211	0.162
-481.376	-170.111	-0.212	-0.009
-480.362	-53.393	0.197	0.115
-479.347	-42.336	-0.134	0.087
-478.332	531.890	0.063	0.192
-477.318	-31.021	0.132	0.095
-476.303	65.955	0.285	-0.369
-475.289	-9.699	-0.110	-0.094
-474.274	-4.245	0.279	0.247
-473.259	222.301	-0.117	-0.242
-472.245	-22.796	0.363	0.280
-471.230	-129.888	-0.769	0.134
-470.216	-106.603	-0.341	-0.096
-469.201	-156.730	0.043	0.003
-468.186	-108.034	-0.197	0.054
-467.172	23.029	0.080	0.084
-466.157	-25.918	-0.662	-0.498
-465.143	-67.846	0.070	-0.035
-464.128	800.000	0.002	0.011
-463.113	-49.575	0.290	-0.176
-462.099	-146.406	0.143	-0.016
-461.084	3.942	-0.061	0.057
-460.070	-129.124	-0.398	0.070
-459.055	-46.959	-0.244	-0.152
-458.040	-21.341	0.077	0.060
-457.026	-200.000	-0.046	-0.443
-456.011	-200.000	-0.018	0.329
-454.997	18.195	0.277	0.283
-453.982	160.054	-0.135	-0.241
-452.968	139.988	-0.133	-0.225
-451.953	-200.000	0.014	0.225
-450.938	-165.157	-0.170	0.009
-449.924	204.130	-0.209	0.414
-448.909	247.556	-0.168	-0.363
-447.895	-71.056	-0.112	0.054
-446.880	505.244	0.092	0.273
-445.865	191.389	0.200	-0.386
-444.851	-92.315	-0.413	-0.148
-443.836	267.718	0.089	0.200
-442.822	59.938	-0.221	-0.279
-441.807	-86.867	-0.112	-0.044
-440.792	-45.600	-0.144	-0.091
-439.778	647.336	-0.051	0.169
-438.763	-115.268	0.076	-0.018
-437.749	800.000	0.109	-0.390
-436.734	-54.321	0.173	-0.100
-435.719	226.795	-0.068	-0.142
-434.705	22.151	-0.243	-0.254
-433.690	-0.365	-0.049	-0.044
-432.676	149.893	-0.166	0.288
-431.661	800.000	0.053	-0.201
-430.646	309.303	0.097	0.233
-429.632	-155.099	-0.207	-0.017
-428.617	-74.186	0.230	-0.106
-427.603	790.019	-0.110	0.389
-426.588	474.845	-0.218	0.631
-425.573	246.913	0.129	0.278
-424.559	-158.548	0.198	-0.014
-423.544	-198.619	0.451	0.003
-422.530	514.598	0.034	0.103
-421.515	-50.105	0.119	0.072
-420.500	-200.000	-0.035	-0.567
-419.486	-35.523	-0.248	-0.171
-418.471	-112.742	0.107	0.027
-417.457	183.645	-0.108	-0.204
-416.442	-55.269	-0.296	0.169
-415.428	-200.000	-0.007	0.337
-414.413	-122.887	-0.151	-0.031
-413.398	-134.098	-0.608	-0.095
-412.384	-115.366	0.372	-0.089
-411.369	55.669	0.375	-0.464
-410.355	136.691	0.342	-0.572
-409.340	-88.756	-0.576	0.217
-408.325	-94.129	-0.429	-0.149
-407.311	-102.045	-0.273	-0.083
-406.296	-16.781	-0.414	0.333
-405.282	-49.308	-0.574	-0.349
-404.267	-156.069	0.233	-0.019
-403.252	-173.241	0.210	-0.008
-402.238	-103.340	0.529	0.158
-401.223	-70.507	0.056	0.027
-400.209	34.364	-0.057	0.064
-399.194	-20.097	0.442	-0.347
-398.179	576.888	0.159	0.498
-397.165	613.519	-0.111	0.357
-396.150	15.801	-0.391	0.392
-395.136	-62.672	-0.316	-0.167
-394.121	800.000	-0.031	0.133
-393.106	-200.000	-0.046	0.389
-392.092	-11.726	0.160	-0.134
-391.077	800.000	0.152	-0.593
-390.063	-200.000	-0.000	0.427
-389.048	-48.962	0.156	0.095
-388.033	69.575	-0.127	-0.166
-387.019	-58.746	0.106	-0.058
-386.004	-35.250	-0.493	-0.342
-384.990	117.441	-0.354	0.556
-383.975	-200.000	0.003	0.080
-382.960	85.554	0.182	-0.255
-381.946	800.000	0.137	0.489
-380.931	3.648	0.167	0.156
-379.917	-59.515	-0.132	-0.072
-378.902	-200.000	-0.028	0.229
-377.888	-64.697	-0.205	0.105
-376.873	-76.072	0.382	-0.171
-375.858	51.239	0.133	-0.161
-374.844	-26.682	0.086	0.064
-373.829	-26.242	-0.306	-0.229
-372.815	61.883	-0.165	-0.209
-371.800	-78.809	0.478	0.207
-370.785	-24.999	0.427	0.322
-369.771	-141.224	0.297	0.038
-368.756	-200.000	-0.005	-0.085
-367.742	-58.899	0.392	-0.215
-366.727	13.637	0.219	0.217
-365.712	112.138	0.265	-0.408
-364.698	465.195	-0.139	0.397
-363.683	-127.960	-0.196	0.036
-362.669	-200.000	-0.093	-0.529
-361.654	-11.088	-0.249	0.209
-360.639	-200.000	-0.010	-0.325
-359.625	66.330	0.126	0.163
-358.610	-63.893	-0.066	-0.034
-357.596	-39.397	-0.482	0.321
-356.581	-114.749	0.352	-0.085
-355.566	46.646	0.163	0.193
-354.552	-200.000	-0.016	0.345
-353.537	148.919	-0.242	0.418
-352.523	266.495	-0.148	-0.330
-351.508	-157.631	-0.539	0.040
-350.493	87.093	0.080	-0.113
-349.479	-83.659	0.227	0.092
-348.464	-97.752	0.155	0.051
-347.450	800.000	-0.109	-0.515
-346.435	423.851	0.123	0.339
-345.420	99.443	-0.210	0.309
-344.406	-200.000	-0.026	0.455
-343.391	193.212	0.146	-0.282
-342.377	-200.000	0.002	-0.294
-341.362	152.984	0.067	-0.117
-340.348	-200.000	0.017	0.641
-339.333	19.768	0.229	0.235
-338.318	-133.920	-0.254	0.040
-337.304	-1.277	0.142	0.128
-336.289	262.036	-0.094	0.208
-335.275	-200.000	0.002	-0.327
-334.260	-64.801	-0.292	-0.150
-333.245	132.667	0.194	0.319
-332.231	-200.000	-0.028	0.172
-331.216	127.158	0.181	0.293
-330.202	-34.621	-0.266	0.185
-329.187	-46.726	0.020	-0.012
-328.172	11.475	0.131	-0.127
-327.158	-107.445	-0.490	-0.136
-326.143	-77.969	-0.072	-0.032
-325.129	-128.215	0.586	0.105
-324.114	5.526	-0.204	0.191
-323.099	-3.339	-0.196	0.174
-322.085	-10.096	0.199	0.168
-321.070	-200.000	-0.029	-0.759
-320.056	-17.682	0.338	0.270
-319.041	-99.678	-0.201	0.064
-318.026	-71.659	0.176	-0.083
-317.012	-108.373	0.273	0.074
-315.997	-90.525	0.252	-0.092
-314.983	219.800	-0.237	-0.483
-313.968	-123.804	-0.300	-0.060
-312.953	87.609	-0.207	0.292
-311.939	800.000	-0.092	-0.429
-310.924	-200.000	0.049	-0.373
-309.910	86.567	-0.293	-0.411
-308.895	-200.000	0.000	-0.321
-307.880	32.315	-0.081	0.088
-306.866	166.411	-0.122	-0.221
-305.851	221.061	0.185	-0.378
-304.837	297.694	-0.059	-0.137
-303.822	800.000	-0.047	0.202
-302.807	72.715	0.135	0.179
-301.793	-133.562	-0.273	-0.043
-300.778	22.380	-0.075	-0.078
-299.764	-86.353	-0.337	-0.131
-298.749	-59.033	-0.369	-0.202
-297.735	-200.000	0.003	0.215
-296.720	-61.181	0.789	0.421
-295.705	800.000	0.063	-0.264
-294.691	27.611	-0.130	-0.139
-293.676	-59.853	-0.095	-0.052
-292.662	32.147	0.346	-0.379
-291.647	800.000	0.032	0.137
-290.632	103.484	0.226	0.338
-289.618	-200.000	0.014	-0.256
-288.603	245.629	0.123	0.265
-287.589	230.702	0.047	0.099
-286.574	-200.000	0.011	-0.075
-285.559	183.042	-0.174	0.328
-284.545	-4.124	-0.122	-0.107
-283.530	36.356	-0.130	-0.145
-282.516	46.369	0.142	0.167
-281.501	3.628	-0.233	-0.216
-280.486	-0.504	-0.153	0.138
-279.472	246.514	-0.061	0.131
-278.457	192.994	0.061	-0.118
-277.443	7.057	0.202	-0.191
-276.428	-57.873	0.452	0.250
-275.413	-50.458	-0.151	0.090
-274.399	-200.000	0.001	0.030
-273.384	427.072	0.052	-0.144
-272.370	327.035	0.249	-0.607
-271.355	-18.204	0.311	0.246
-270.340	60.759	-0.082	0.104
-269.326	-154.951	0.172	0.014
-268.311	451.156	-0.198	0.558
-267.297	-33.135	0.069	-0.048
-266.282	-140.614	-0.196	0.025
-265.267	-87.819	0.608	0.231
-264.253	-52.430	-0.518	-0.303
-263.238	66.053	-0.248	0.320
-262.224	-142.324	-0.309	0.038
-261.209	800.000	0.032	0.139
-260.195	-66.140	-0.289	-0.146
-259.180	-200.000	0.031	-0.381
-258.165	170.957	-0.146	0.265
-257.151	-63.657	-0.471	-0.244
-256.136	213.132	-0.220	-0.443
-255.122	0.865	0.334	-0.304
-254.107	-200.000	0.006	0.561
-253.092	-27.947	0.157	0.115
-252.078	323.405	0.031	0.076
-251.063	135.465	-0.043	0.072
-250.049	624.633	-0.194	0.623
-249.034	162.429	-0.142	0.253
-248.019	60.393	-0.085	0.106
-247.005	-160.824	-0.371	-0.025
-245.990	40.105	0.174	0.198
-244.976	-200.000	-0.008	0.217
-243.961	-200.000	-0.041	0.241
-242.946	-74.744	-0.664	-0.301
-241.932	-142.944	0.490	-0.060
-240.917	65.675	-0.190	-0.244
-239.903	-154.120	-0.553	0.047
-238.888	489.791	0.132	-0.384
-237.873	-135.544	0.536	0.080
-236.859	-42.157	0.062	-0.040
-235.844	136.499	-0.052	-0.087
-234.830	126.584	0.150	0.241
-233.815	-118.392	-0.199	-0.044
-232.800	5.666	-0.252	0.236
-231.786	428.180	-0.104	-0.287
-230.771	122.027	-0.173	0.274
-229.757	-179.689	-0.309	-0.008
-228.742	-43.379	0.131	-0.084
-227.727	-39.821	0.135	0.089
-226.713	203.374	0.089	-0.175
-225.698	95.639	-0.243	-0.352
-224.684	-62.465	-0.242	-0.127
-223.669	-129.747	0.171	-0.030
-222.655	-14.947	0.380	0.308
-221.640	332.653	0.120	-0.296
-220.625	-200.000	-0.168	-0.000
-219.611	-16.140	0.062	-0.049
-218.596	800.000	0.061	-0.308
-217.582	-125.265	0.266	-0.051
-216.567	12.959	-0.167	0.163
-215.552	665.958	0.058	0.191
-214.538	-200.000	-0.039	0.376
-213.523	99.001	-0.226	-0.330
-212.509	-143.080	0.302	-0.037
-211.494	-200.000	0.013	-0.471
-210.479	-40.802	-0.211	0.138
-209.465	175.713	-0.080	-0.146
-208.450	545.267	0.122	0.370
-207.436	-81.551	-0.083	0.035
-206.421	-150.416	0.745	-0.072
-205.406	-27.191	0.249	0.183
-204.392	-26.201	0.968	-0.718
-203.377	800.000	0.182	-0.786
-202.363	-33.086	-0.066	-0.046
-201.348	800.000	-0.131	-0.508
-200.333	-200.000	0.013	0.347
-199.319	188.262	0.167	0.316
-198.304	-30.710	0.398	0.284
-197.290	24.710	0.254	-0.266
-196.275	81.506	-0.225	-0.309
-195.260	-200.000	0.028	0.385
-194.246	-72.289	-0.351	0.164
-193.231	-200.000	-0.050	0.303
-192.217	488.875	0.071	0.205
-191.202	-200.000	0.008	-0.211
-190.187	99.906	-0.243	0.356
-189.173	26.583	0.216	-0.229
-188.158	121.496	0.372	-0.588
-187.144	3.096	0.100	-0.092
-186.129	800.000	0.042	0.204
-185.114	65.373	-0.189	0.242
-184.100	-142.932	0.447	0.054
-183.085	-68.527	0.182	-0.089
-182.071	-200.000	0.006	0.245
-181.056	-70.210	0.392	0.188
-180.042	630.552	0.070	-0.226
-179.027	-137.214	-0.182	0.026
-178.012	52.113	0.067	-0.081
-176.998	509.984	0.226	0.669
-175.983	169.107	0.149	-0.269
-174.969	-144.866	-0.171	0.020
-173.954	-12.290	0.183	-0.151
-172.939	-75.771	0.277	0.124
-171.925	-200.000	-0.011	-0.110
-170.910	-150.150	-0.142	0.014
-169.896	-152.129	-0.442	-0.040
-168.881	-83.922	-0.401	-0.160
-167.866	-29.234	0.225	-0.162
-166.852	-194.741	0.195	-0.002
-165.837	-144.583	0.328	-0.038
-164.823	-11.053	0.143	-0.119
-163.808	4.432	0.105	-0.098
-162.793	-131.215	-0.424	0.070
-161.779	698.022	0.024	-0.079
-160.764	-124.846	0.548	-0.106
-159.750	37.068	0.434	-0.485
-158.735	-153.817	0.226	-0.019
-157.720	75.216	-0.337	-0.449
-156.706	800.000	0.129	-0.469
-155.691	305.511	-0.066	-0.156
-154.677	219.268	-0.136	-0.276
-153.662	-14.241	-0.329	-0.268
-152.647	432.528	0.076	-0.209
-151.633	787.143	-0.143	0.497
-150.618	-121.121	0.376	0.079
-149.604	149.342	-0.034	0.058
-148.589	-67.256	-0.277	0.137
-147.574	337.763	0.067	0.165
-146.560	-188.000	-0.099	0.002
-145.545	-81.924	0.226	0.093
-144.531	800.000	-0.098	0.539
-143.516	158.423	0.072	0.127
-142.502	-120.455	0.147	0.031
-141.487	-15.133	0.162	0.131
-140.472	-55.869	0.447	-0.251
-139.458	34.777	0.183	-0.202
-138.443	800.000	0.097	-0.518
-137.429	697.633	-0.081	-0.269
-136.414	-200.000	0.024	-0.146
-135.399	-105.176	0.209	-0.060
-134.385	-200.000	-0.006	0.359
-133.370	-200.000	-0.007	-0.137
-132.356	95.583	-0.043	-0.062
-131.341	-95.250	-0.449	0.152
-130.326	-153.923	-0.348	0.030
-129.312	-84.892	0.202	0.080
-128.297	800.000	0.057	-0.255
-127.283	333.569	-0.097	-0.239
-126.268	99.126	-0.069	0.100
-125.253	738.230	-0.062	0.210
-124.239	-200.000	-0.015	-0.106
-123.224	-200.000	0.010	-0.110
-122.210	-2.074	0.368	0.326
-121.195	541.298	0.109	0.329
-120.180	-73.733	0.120	0.055
-119.166	-19.123	0.412	0.322
-118.151	-200.000	0.036	0.337
-117.137	-169.728	-0.448	-0.020
-116.122	800.000	-0.067	0.331
-115.107	-142.197	0.196	-0.024
-114.093	-200.000	0.007	-0.418
-113.078	-78.884	-0.316	0.135
-112.064	-98.658	-0.162	0.052
-111.049	107.059	0.087	-0.131
-110.034	-30.758	-0.289	-0.206
-109.020	312.309	-0.106	0.252
-108.005	-200.000	-0.027	-0.420
-106.991	-200.000	-0.006	-0.195
-105.976	800.000	0.114	-0.405
-104.962	-137.173	-0.334	0.047
-103.947	6.591	-0.570	0.534
-102.932	240.103	-0.299	0.631
-101.918	393.102	-0.058	0.154
-100.903	54.060	-0.092	0.111
-99.889	132.427	0.273	-0.445
-98.874	-200.000	0.000	0.142
-97.859	-200.000	-0.030	0.266
-96.845	-182.730	0.082	0.002
-95.830	-85.425	0.080	-0.031
-94.816	-49.847	0.185	0.110
-93.801	-169.853	-0.124	-0.006
-92.786	6.210	-0.151	-0.141
-91.772	30.702	-0.312	0.336
-90.757	800.000	-0.025	0.105
-89.743	800.000	0.044	0.205
-88.728	-17.243	0.162	0.129
-87.713	-78.198	-0.375	0.162
-86.699	5.348	0.369	0.343
-85.684	-200.000	0.032	-0.270
-84.670	325.926	-0.238	0.577
-83.655	-149.310	0.363	-0.036
-82.640	76.674	0.173	-0.231
-81.626	-55.690	-0.369	-0.207
-80.611	67.349	0.136	-0.175
-79.597	-82.233	0.239	-0.098
-78.582	14.069	0.307	0.301
-77.567	-12.128	-0.235	0.194
-76.553	141.876	0.304	0.509
-75.538	-200.000	-0.032	-0.393
-74.524	91.812	0.053	-0.075
-73.509	168.244	0.136	0.244
-72.494	-75.902	-0.166	0.074
-71.480	-72.932	-0.400	0.184
-70.465	-131.217	0.402	-0.067
-69.451	-97.719	0.121	-0.039
-68.436	319.129	0.137	0.328
-67.422	-28.934	-0.183	0.132
-66.407	-200.000	0.045	0.327
-65.392	-200.000	-0.014	0.302
-64.378	-200.000	0.003	0.051
-63.363	-40.199	0.173	0.113
-62.349	-112.703	0.294	0.073
-61.334	-38.620	-1.402	-0.929
-60.319	-121.357	0.417	0.087
-59.305	325.245	-2.602	-6.287
-58.290	6.849	3.306	3.096
-57.276	337.043	4.265	10.470
-56.261	-200.000	14.748	235.716
-55.246	443.649	1191.302	3302.757
-54.232	59.805	2840.548	3530.596
-53.217	68.892	2724.743	3524.018
-52.203	44.492	2446.883	2829.178
-51.188	43.745	2091.037	2408.704
-50.173	38.037	1959.190	2192.520
-49.159	36.603	1948.591	2164.455
-48.144	36.294	1944.462	2156.303
-47.130	36.141	1942.321	2152.128
-46.115	36.175	1940.213	2150.090
-45.100	36.103	1939.292	2148.174
-44.086	36.174	1937.817	2147.254
-43.071	36.130	1935.905	2144.563
-42.057	36.053	1934.593	2142.160
-41.042	36.063	1933.687	2141.181
-40.027	36.019	1932.213	2138.977
-39.013	36.042	1930.999	2137.804
-37.998	36.026	1929.687	2136.087
-36.984	35.836	1929.269	2133.422
-35.969	35.966	1926.305	2131.506
-34.954	35.961	1926.041	2131.077
-33.940	35.971	1924.677	2129.597
-32.925	35.880	1924.376	2128.159
-31.911	35.904	1922.382	2126.143
-30.896	35.913	1920.756	2124.359
-29.881	36.011	1919.174	2123.603
-28.867	35.901	1917.640	2120.612
-27.852	35.811	1915.862	2117.561
-26.838	35.779	1915.128	2116.309
-25.823	35.760	1914.298	2115.104
-24.809	35.768	1912.616	2113.249
-23.794	35.671	1911.593	2110.958
-22.779	35.870	1908.966	2110.168
-21.765	35.690	1908.534	2107.626
-20.750	35.651	1907.606	2106.090
-19.736	35.826	1905.825	2105.959
-18.721	35.773	1904.405	2103.731
-17.706	35.721	1902.914	2101.431
-16.692	35.649	1901.839	2099.364
-15.677	35.516	1901.583	2097.544
-14.663	35.516	1900.482	2096.236
-13.648	35.625	1898.439	2095.099
-12.633	35.722	1895.993	2093.382
-11.619	35.559	1896.276	2091.821
-10.604	35.556	1894.730	2090.007
-9.590	35.559	1894.301	2089.480
-8.575	35.579	1892.511	2087.637
-7.560	35.600	1890.684	2085.771
-6.546	35.568	1890.013	2084.605
-5.531	35.552	1888.613	2082.802
-4.517	35.560	1887.906	2082.021
-3.502	35.628	1886.792	2081.453
-2.487	35.616	1886.721	2081.164
-1.473	35.690	1882.380	2077.096
-0.458	35.071	1861.094	2046.876
0.556	29.882	1992.149	2118.673
1.571	27.611	2204.493	2315.263
2.586	28.751	2251.241	2378.935
3.600	28.790	2254.293	2382.386
4.615	28.954	2253.211	2383.088
5.629	28.799	2250.834	2378.274
6.644	28.826	2248.774	2376.162
7.659	28.818	2247.465	2374.391
8.673	28.960	2246.663	2375.096
9.688	28.569	2251.579	2374.933
10.702	26.060	2322.460	2415.673
11.717	23.206	2386.314	2442.267
12.731	11.800	2357.641	2255.449
13.746	1.897	2331.418	2093.889
14.761	0.443	2325.624	2068.410
15.775	0.221	2324.264	2063.895
16.790	0.214	2322.281	2061.780
17.804	0.200	2321.472	2060.635
18.819	0.221	2320.408	2059.731
19.834	0.224	2318.664	2057.969
20.848	0.232	2316.784	2056.167
21.863	0.191	2315.508	2054.225
22.877	0.155	2314.286	2052.408
23.892	0.189	2311.077	2049.780
24.907	0.149	2309.090	2047.226
25.921	0.148	2308.203	2046.174
26.936	0.246	2304.897	2044.333
27.950	0.219	2302.278	2041.402
28.965	0.191	2300.688	2039.366
29.980	0.144	2299.848	2037.740
30.994	0.365	2296.737	2037.738
32.009	6.089	2317.693	2134.408
33.023	19.168	2356.211	2350.125
34.038	24.829	2366.288	2437.642
35.053	25.461	2364.332	2443.989
36.067	25.633	2363.148	2444.816
37.082	25.615	2360.260	2441.288
38.096	25.469	2359.341	2438.057
39.111	25.755	2356.854	2439.097
40.126	26.067	2355.254	2441.388
41.140	26.341	2353.375	2442.877
42.155	26.118	2351.691	2437.800
43.169	25.972	2350.274	2434.066
44.184	25.986	2347.193	2430.774
45.199	25.878	2344.934	2426.676
46.213	25.839	2343.957	2424.848
47.228	25.913	2343.324	2424.909
48.242	25.891	2340.474	2421.369
49.257	26.063	2339.043	2421.921
50.271	26.353	2337.479	2423.921
51.286	26.267	2334.745	2419.628
52.301	25.973	2333.039	2413.627
53.315	26.449	2334.021	2420.749
54.330	28.540	2339.383	2454.181
55.344	29.846	2339.855	2471.931
56.359	30.050	2337.305	2471.679
57.374	29.963	2334.999	2467.781
58.388	29.770	2332.432	2462.185
59.403	29.766	2328.299	2457.474
60.417	29.722	2324.203	2452.273
61.432	29.699	2323.503	2450.934
62.447	29.586	2321.563	2447.090
63.461	29.576	2319.437	2444.418
64.476	29.712	2316.484	2442.823
65.490	29.811	2316.889	2444.274
66.505	29.563	2314.946	2438.642
67.520	27.997	2308.927	2411.263
68.534	26.164	2301.499	2378.962
69.549	25.798	2296.270	2368.432
70.563	25.731	2293.518	2364.434
71.578	25.698	2292.879	2363.056
72.593	25.807	2291.136	2362.404
73.607	26.162	2289.524	2365.142
74.622	26.037	2288.243	2361.887
75.636	25.977	2285.277	2357.755
76.651	25.902	2282.820	2353.956
77.666	25.928	2281.049	2352.190
78.680	25.938	2278.161	2349.065
79.695	25.900	2277.410	2347.507
80.709	25.997	2276.290	2347.336
81.724	26.094	2274.497	2346.472
82.739	26.088	2271.518	2343.048
83.753	26.012	2269.074	2339.249
84.768	25.959	2267.252	2336.409
85.782	25.825	2266.066	2333.156
86.797	25.739	2264.910	2330.567
87.812	25.688	2262.025	2326.666
88.826	25.676	2260.650	2324.812
89.841	25.757	2259.012	2323.895
90.855	26.017	2255.813	2323.702
91.870	25.839	2254.118	2319.371
92.884	25.883	2252.803	2318.307
93.899	26.038	2251.894	2319.095
94.914	26.304	2252.555	2322.941
95.928	27.626	2257.140	2344.491
96.943	28.117	2255.892	2349.260
97.957	26.897	2248.417	2325.484
98.972	25.958	2244.076	2308.632
99.987	25.789	2240.255	2302.254
101.001	25.638	2239.137	2298.890
102.016	25.912	2235.764	2298.667
103.030	25.779	2234.838	2295.738
104.045	25.979	2231.400	2294.493
105.060	26.113	2229.622	2294.099
106.074	26.078	2228.293	2292.014
107.089	25.959	2226.342	2288.211
108.103	25.928	2225.749	2286.928
109.118	26.074	2223.380	2286.084
110.133	26.166	2221.400	2284.945
111.147	25.863	2220.326	2279.717
112.162	25.722	2218.786	2276.062
113.176	25.915	2215.378	2274.751
114.191	25.995	2213.901	2273.971
115.206	25.993	2211.765	2271.474
116.220	25.905	2210.184	2268.467
117.235	25.897	2208.908	2266.787
118.249	26.006	2207.010	2265.943
119.264	25.937	2206.001	2263.765
120.279	25.909	2203.718	2260.808
121.293	25.922	2201.624	2258.541
122.308	25.816	2199.759	2255.023
123.322	25.820	2198.191	2253.197
124.337	25.878	2197.800	2253.259
125.352	27.535	2203.372	2279.564
126.366	28.461	2202.884	2290.420
127.381	26.605	2194.265	2257.949
128.395	25.811	2190.008	2243.352
129.410	25.839	2188.541	2241.938
130.424	25.840	2186.440	2239.535
131.439	25.872	2185.006	2238.185
132.454	25.872	2183.293	2236.175
133.468	26.025	2181.190	2235.648
134.483	26.239	2179.714	2236.535
135.497	26.205	2178.307	2234.405
136.512	26.293	2176.097	2232.957
137.527	26.152	2174.464	2229.271
138.541	25.827	2173.366	2223.843
139.556	25.855	2172.368	2222.898
140.570	25.953	2171.063	2222.514
141.585	25.983	2168.734	2220.240
142.600	26.065	2167.216	2219.433
143.614	25.949	2165.013	2215.475
144.629	26.077	2163.337	2215.074
145.643	25.952	2162.453	2212.359
146.658	25.920	2160.852	2210.073
147.673	25.683	2159.155	2205.144
148.687	25.770	2157.476	2204.236
149.702	26.025	2155.912	2205.514
150.716	25.953	2154.812	2203.244
151.731	26.014	2153.735	2202.624
152.746	26.060	2152.997	2202.166
153.760	26.025	2154.281	2202.794
154.775	27.515	2156.970	2223.575
155.789	28.213	2155.734	2230.578
156.804	26.925	2148.037	2206.623
157.819	25.886	2142.334	2187.829
158.833	25.667	2139.708	2182.215
159.848	25.932	2138.486	2183.934
160.862	26.118	2136.543	2183.955
161.877	26.156	2135.792	2183.378
162.892	26.234	2135.762	2184.041
163.906	26.495	2134.262	2185.413
164.921	26.468	2132.508	2183.026
165.935	26.348	2129.938	2178.688
166.950	26.305	2128.994	2176.940
167.964	26.290	2126.407	2173.850
168.979	26.032	2124.600	2168.630
169.994	25.974	2122.518	2165.536
171.008	25.930	2120.207	2162.386
172.023	25.698	2119.038	2158.151
173.037	25.948	2118.322	2160.163
174.052	26.071	2116.596	2159.628
175.067	25.988	2114.636	2156.377
176.081	25.796	2113.092	2152.239
177.096	25.763	2112.717	2151.193
178.110	25.892	2109.786	2149.500
179.125	25.774	2109.005	2147.042
180.140	25.795	2107.277	2145.271
181.154	25.972	2106.076	2145.911
182.169	25.982	2105.879	2145.572
183.183	26.352	2107.414	2151.304
184.198	28.227	2110.591	2176.729
185.213	28.523	2108.553	2177.894
186.227	26.639	2101.515	2147.931
187.242	25.663	2098.771	2133.243
188.256	25.672	2095.477	2129.759
189.271	25.783	2093.497	2128.805
190.286	25.759	2093.000	2127.756
191.300	25.719	2090.038	2124.014
192.315	25.783	2087.271	2121.715
193.329	25.849	2088.278	2123.264
194.344	26.188	2087.630	2126.368
195.359	26.321	2085.776	2125.787
196.373	26.487	2082.373	2124.029
197.388	26.270	2081.199	2120.016
198.402	26.161	2079.345	2116.591
199.417	26.283	2076.398	2114.770
200.432	26.189	2075.184	2112.175
201.446	26.194	2073.959	2110.734
202.461	26.000	2072.343	2106.568
203.475	25.887	2070.732	2103.352
204.490	25.978	2067.750	2101.138
205.504	25.921	2066.684	2099.134
206.519	25.941	2064.678	2097.074
207.534	26.024	2062.260	2095.334
208.548	25.953	2061.473	2093.454
209.563	25.879	2058.946	2089.777
210.577	25.956	2058.538	2090.011
211.592	26.037	2059.147	2091.322
212.607	26.431	2060.079	2096.613
213.621	27.432	2061.772	2109.748
214.636	27.533	2059.108	2107.943
215.650	26.539	2053.693	2090.622
216.665	26.022	2051.513	2082.150
217.680	26.082	2049.338	2080.391
218.694	26.164	2046.925	2078.641
219.709	26.128	2045.203	2076.227
220.723	26.213	2044.392	2076.134
221.738	26.341	2043.871	2076.837
222.753	26.386	2041.595	2074.792
223.767	26.069	2040.690	2069.967
224.782	26.048	2037.685	2066.438
225.796	25.971	2037.040	2064.651
226.811	26.389	2034.505	2066.629
227.826	26.317	2033.975	2065.017
228.840	26.201	2032.079	2061.522
229.855	26.016	2029.965	2057.002
230.869	26.048	2028.306	2055.444
231.884	25.746	2027.162	2050.580
232.899	25.844	2025.988	2050.274
233.913	25.989	2024.826	2050.510
234.928	25.971	2023.532	2048.740
235.942	25.862	2022.166	2045.872
236.957	25.808	2019.885	2042.705
237.972	25.761	2019.111	2041.142
238.986	25.710	2018.304	2039.500
240.001	25.611	2015.712	2035.517
241.015	25.599	2014.805	2034.210
242.030	26.273	2015.842	2042.677
243.045	28.025	2019.709	2066.278
244.059	28.583	2019.060	2071.708
245.074	26.889	2010.906	2043.926
246.088	26.078	2006.794	2030.331
247.103	26.142	2004.673	2028.668
248.117	26.173	2002.967	2027.042
249.132	25.919	2001.125	2022.078
250.147	25.841	1999.597	2019.409
251.161	25.866	1997.476	2017.311
252.176	25.970	1997.015	2017.776
253.190	26.025	1994.295	2015.404
254.205	25.922	1991.900	2011.584
255.220	26.002	1991.646	2011.989
256.234	25.892	1991.061	2009.919
257.249	25.900	1989.868	2008.566
258.263	25.985	1989.158	2008.557
259.278	26.110	1988.278	2008.828
260.293	26.008	1986.611	2005.767
261.307	26.062	1985.034	2004.536
262.322	25.943	1983.501	2001.420
263.336	25.818	1980.472	1996.733
264.351	25.768	1978.539	1993.986
265.366	25.934	1977.425	1994.475
266.380	25.805	1977.505	1992.875
267.395	25.752	1974.784	1989.304
268.409	25.744	1973.930	1988.121
269.424	25.884	1972.933	1988.433
270.439	26.072	1971.453	1988.782
271.453	26.596	1972.501	1995.408
272.468	28.146	1974.735	2014.606
273.482	28.301	1972.656	2013.955
274.497	26.864	1965.098	1990.165
275.512	26.021	1961.425	1976.922
276.526	25.938	1959.368	1973.701
277.541	25.793	1957.670	1970.163
278.555	25.756	1956.075	1967.907
279.570	25.644	1953.913	1964.271
280.585	25.710	1952.909	1963.747
281.599	25.857	1951.576	1963.784
282.614	25.858	1950.616	1962.591
283.628	26.203	1950.216	1965.737
284.643	26.360	1949.483	1966.476
285.657	26.370	1947.493	1964.343
286.672	26.250	1946.424	1961.717
287.687	26.118	1943.479	1957.078
288.701	25.791	1942.207	1951.997
289.716	25.850	1940.850	1951.041
290.730	26.087	1939.387	1951.918
291.745	25.984	1938.733	1949.906
292.760	25.982	1937.468	1948.378
293.774	25.866	1936.180	1945.595
294.789	25.884	1934.783	1944.147
295.803	25.937	1932.819	1942.523
296.818	25.862	1931.878	1940.523
297.833	25.976	1930.735	1940.379
298.847	25.870	1929.201	1937.459
299.862	26.070	1927.250	1937.427
300.876	26.243	1928.719	1940.538
301.891	28.139	1932.713	1964.816
302.906	28.679	1930.551	1968.211
303.920	26.750	1924.116	1940.675
304.935	26.098	1919.956	1929.240
305.949	26.016	1917.677	1925.842
306.964	26.247	1917.214	1927.619
307.979	26.115	1914.502	1923.250
308.993	25.827	1912.908	1918.336
310.008	25.737	1911.777	1916.007
311.022	26.091	1910.363	1918.143
312.037	25.966	1909.371	1915.587
313.052	25.868	1907.581	1912.518
314.066	25.859	1905.441	1910.043
315.081	26.062	1904.382	1910.915
316.095	25.975	1903.707	1909.082
317.110	26.078	1901.800	1908.036
318.125	25.941	1900.625	1905.178
319.139	25.885	1899.565	1903.293
320.154	25.989	1897.943	1902.541
321.168	25.835	1896.571	1899.303
322.183	25.859	1895.756	1898.515
323.197	26.054	1895.346	1899.945
324.212	26.149	1892.547	1897.921
325.227	25.877	1889.903	1892.164
326.241	25.743	1889.174	1889.799
327.256	25.928	1887.349	1889.694
328.270	25.974	1886.210	1888.807
329.285	25.946	1886.509	1888.594
330.300	26.401	1888.169	1894.817
331.314	27.939	1890.713	1913.347
332.329	28.315	1887.836	1914.164
333.343	26.714	1881.666	1890.902
334.358	26.005	1878.360	1879.929
335.373	26.013	1876.964	1878.386
336.387	25.898	1874.993	1874.989
337.402	26.000	1872.718	1873.548
338.416	25.903	1872.487	1872.081
339.431	25.967	1871.681	1871.722
340.446	26.259	1869.138	1871.995
341.460	26.246	1867.608	1870.106
342.475	26.334	1866.744	1869.927
343.489	26.102	1864.345	1864.889
344.504	25.881	1862.874	1860.902
345.519	25.866	1862.296	1859.955
346.533	26.025	1860.078	1859.156
347.548	26.124	1857.788	1857.674
348.562	25.927	1857.286	1854.913
349.577	25.992	1856.334	1854.413
350.592	26.060	1856.265	1854.817
351.606	26.166	1855.385	1854.818
352.621	26.173	1852.882	1852.161
353.635	25.880	1852.183	1848.220
354.650	25.729	1849.685	1843.958
355.665	25.595	1848.118	1840.789
356.679	25.849	1846.738	1841.807
357.694	25.910	1845.467	1840.949
358.708	25.801	1844.648	1838.794
359.723	26.468	1846.219	1846.986
360.738	27.976	1849.163	1865.197
361.752	28.050	1845.530	1862.062
362.767	26.675	1839.507	1841.718
363.781	26.086	1836.692	1832.671
364.796	25.965	1834.890	1829.421
365.810	25.928	1834.375	1828.313
366.825	25.832	1833.035	1825.778
367.840	25.685	1830.798	1821.835
368.854	25.672	1830.382	1821.069
369.869	25.589	1828.867	1818.501
370.883	25.766	1826.301	1817.535
371.898	25.657	1825.508	1815.415
372.913	25.702	1824.806	1814.958
373.927	25.853	1823.449	1814.925
374.942	25.892	1823.103	1814.755
375.956	25.904	1821.470	1813.031
376.971	25.836	1818.905	1809.576
377.986	26.032	1817.483	1809.925
379.000	26.290	1817.020	1811.841
380.015	26.167	1815.604	1808.977
381.029	26.181	1813.621	1806.922
382.044	26.143	1812.360	1805.068
383.059	26.088	1811.266	1803.219
384.073	25.995	1810.983	1801.785
385.088	25.905	1809.194	1798.882
386.102	26.030	1808.393	1799.121
387.117	26.024	1807.178	1797.639
388.132	26.136	1806.342	1797.717
389.146	26.493	1807.398	1802.125
390.161	28.014	1808.758	1818.487
391.175	28.295	1804.490	1816.789
392.190	26.772	1798.691	1795.576
393.205	26.135	1796.258	1786.598
394.219	26.184	1794.696	1785.314
395.234	26.055	1793.144	1782.280
396.248	26.051	1790.892	1779.788
397.263	25.877	1789.240	1776.214
398.278	25.953	1786.820	1774.350
399.292	25.768	1786.165	1771.657
400.307	26.025	1785.910	1773.733
401.321	26.099	1784.525	1772.875
402.336	25.931	1783.118	1769.604
403.350	25.953	1781.362	1767.870
404.365	26.047	1779.042	1766.277
405.380	25.922	1778.564	1764.363
406.394	25.822	1778.299	1762.908
407.409	25.749	1776.025	1759.725
408.423	25.782	1774.494	1758.317
409.438	25.647	1773.561	1755.861
410.453	25.712	1772.162	1754.899
411.467	25.775	1771.213	1754.372
412.482	25.669	1769.798	1751.725
413.496	25.761	1768.263	1750.891
414.511	25.919	1766.454	1750.429
415.526	25.800	1764.885	1747.513
416.540	25.976	1763.421	1747.562
417.555	25.910	1762.155	1745.462
418.569	25.949	1762.830	1746.293
419.584	26.012	1762.346	1746.224
420.599	25.929	1762.097	1744.955
421.613	25.732	1759.706	1740.470
422.628	25.465	1758.587	1736.558
423.642	25.658	1756.736	1736.399
424.657	25.562	1755.067	1733.613
425.672	25.402	1753.507	1730.308
426.686	25.539	1752.002	1729.941
427.701	25.725	1750.998	1730.539
428.715	25.915	1750.079	1731.261
429.730	26.007	1749.042	1730.913
430.745	26.087	1747.552	1730.009
431.759	25.779	1746.841	1726.128
432.774	25.673	1745.267	1723.345
433.788	25.176	1742.841	1715.964
434.803	24.825	1741.235	1710.803
435.818	24.741	1741.112	1709.677
436.832	24.728	1740.589	1708.826
437.847	24.186	1734.266	1697.235
438.861	15.399	1708.342	1588.406
439.876	3.352	1686.447	1454.119
440.890	0.614	1680.785	1423.153
441.905	0.356	1679.026	1419.057
442.920	0.356	1678.014	1418.030
443.934	0.241	1676.888	1415.821
444.949	0.224	1675.621	1414.424
445.963	0.233	1674.974	1413.791
446.978	0.214	1674.192	1412.778
447.993	0.155	1672.774	1410.865
449.007	0.089	1670.989	1408.565
450.022	0.246	1668.778	1408.006
451.036	0.214	1668.334	1407.160
452.051	1.408	1674.080	1423.087
453.066	11.941	1698.140	1543.568
454.080	22.741	1714.504	1661.012
455.095	25.972	1720.983	1697.726
456.109	28.252	1725.163	1723.241
457.124	29.046	1725.534	1730.915
458.139	28.608	1723.496	1724.527
459.153	28.361	1722.234	1720.733
460.168	28.183	1719.496	1716.112
461.182	28.180	1716.787	1713.172
462.197	28.103	1715.536	1710.999
463.212	27.940	1713.736	1707.464
464.226	27.931	1713.187	1706.632
465.241	28.311	1712.711	1709.512
466.255	28.531	1711.614	1710.283
467.270	28.693	1710.451	1710.432
468.285	28.238	1708.756	1704.269
469.299	28.099	1707.368	1701.388
470.314	28.321	1706.533	1702.425
471.328	28.434	1704.220	1700.969
472.343	28.310	1704.412	1699.796
473.358	28.337	1702.592	1698.029
474.372	28.405	1701.407	1697.275
475.387	28.304	1699.797	1694.528
476.401	28.331	1698.003	1692.792
477.416	28.154	1697.354	1690.297
478.430	28.586	1695.908	1692.663
479.445	28.456	1694.901	1690.254
480.460	28.185	1693.178	1685.821
481.474	28.161	1692.300	1684.523
482.489	28.531	1691.577	1687.023
483.503	28.820	1690.011	1687.923
484.518	28.637	1689.087	1685.115
485.533	28.779	1687.853	1684.985
486.547	28.964	1686.704	1685.344
487.562	29.198	1687.009	1687.603
488.576	29.340	1684.805	1686.501
489.591	29.264	1682.920	1683.716
490.606	29.104	1681.785	1680.907
491.620	28.927	1680.947	1678.248
492.635	29.294	1679.388	1679.850
493.649	29.306	1678.061	1678.436
494.664	28.638	1674.780	1668.845
495.679	27.958	1672.792	1660.459
496.693	28.251	1672.471	1662.619
497.708	28.511	1672.800	1665.113
498.722	29.020	1672.387	1669.152
499.737	29.278	1670.432	1669.343
500.752	28.983	1668.302	1664.336
501.766	28.661	1666.458	1659.371
502.781	28.815	1664.760	1658.878
503.795	28.800	1663.129	1656.918
504.810	28.747	1662.585	1655.698
505.825	29.059	1662.242	1657.983
506.839	29.044	1660.929	1656.345
507.854	29.009	1659.500	1654.402
508.868	28.915	1658.034	1651.899
509.883	28.702	1656.842	1648.591
510.898	28.817	1656.184	1648.773
511.912	28.846	1653.201	1645.867
512.927	28.470	1651.585	1640.682
513.941	28.586	1650.980	1640.928
514.956	28.862	1650.529	1642.756
515.971	29.514	1650.351	1648.241
516.985	29.567	1648.346	1646.511
518.000	29.251	1647.533	1642.679
519.014	29.195	1646.836	1641.282
520.029	29.166	1644.613	1638.612
521.043	28.963	1642.774	1634.771
522.058	28.776	1641.626	1631.760
523.073	28.703	1641.546	1630.834
524.087	29.235	1640.777	1634.623
525.102	29.293	1639.489	1633.662
526.116	29.037	1637.157	1628.865
527.131	28.849	1635.962	1625.808
528.146	29.322	1636.587	1630.435
529.160	29.500	1635.771	1631.013
530.175	29.507	1634.872	1629.983
531.189	29.701	1633.656	1630.296
532.204	29.836	1632.045	1629.686
533.219	29.228	1630.026	1622.094
534.233	28.739	1628.448	1616.010
535.248	28.754	1628.024	1615.527
536.262	29.423	1627.894	1621.121
537.277	29.750	1627.666	1623.581
538.292	29.812	1625.749	1622.019
539.306	29.766	1623.657	1619.339
540.321	29.684	1621.673	1616.441
541.335	29.520	1619.822	1612.960
542.350	29.662	1619.284	1613.480
543.365	30.040	1617.990	1615.312
544.379	30.200	1617.271	1615.807
545.394	30.200	1616.340	1614.680
546.408	29.579	1613.164	1605.888
547.423	28.847	1610.606	1596.758
548.438	28.694	1610.161	1594.793
549.452	29.128	1609.150	1597.387
550.467	29.188	1608.172	1596.748
551.481	29.402	1607.416	1597.666
552.496	29.530	1608.000	1599.170
553.511	30.147	1607.218	1603.566
554.525	29.900	1606.140	1600.154
555.540	29.976	1605.078	1599.565
556.554	30.104	1603.551	1598.961
557.569	29.948	1601.525	1595.396
558.583	29.580	1599.902	1590.406
559.598	29.584	1598.945	1589.304
560.613	29.704	1597.999	1589.205
561.627	29.498	1597.377	1586.617
562.642	29.629	1595.781	1585.973
563.656	29.813	1594.269	1585.863
564.671	29.811	1593.011	1584.408
565.686	29.789	1591.080	1582.111
566.700	29.697	1589.722	1579.779
567.715	29.521	1589.037	1577.394
568.729	29.789	1587.510	1577.991
569.744	29.957	1587.560	1579.294
570.759	30.240	1585.561	1579.536
571.773	30.137	1584.636	1577.546
572.788	30.224	1583.690	1577.156
573.802	30.005	1581.660	1573.078
574.817	29.749	1579.916	1568.977
575.832	29.823	1578.755	1568.260
576.846	29.996	1577.448	1568.250
577.861	29.701	1576.655	1564.767
578.875	30.063	1575.961	1566.970
579.890	30.122	1575.707	1567.030
580.905	30.261	1574.657	1566.972
581.919	30.427	1573.652	1567.195
582.934	30.573	1573.262	1567.857
583.948	30.475	1572.758	1566.334
584.963	30.259	1570.310	1561.884
585.978	29.951	1568.067	1556.864
586.992	29.973	1567.396	1556.195
588.007	30.341	1567.769	1559.490
589.021	29.984	1565.607	1554.137
590.036	29.422	1562.608	1546.247
591.051	30.136	1562.859	1552.318
592.065	30.421	1562.223	1553.902
593.080	30.627	1561.451	1554.682
594.094	30.650	1559.672	1552.912
595.109	30.057	1556.324	1544.425
596.123	29.441	1554.049	1536.833
597.138	30.025	1553.808	1541.293
598.153	30.225	1553.132	1542.112
599.167	30.042	1551.266	1538.548
600.182	30.119	1550.476	1538.221
601.196	30.241	1550.186	1538.767
602.211	30.211	1549.318	1537.470
603.226	30.347	1548.435	1537.545
604.240	30.604	1546.964	1538.036
605.255	30.565	1546.309	1536.877
606.269	30.721	1544.863	1536.549
607.284	30.584	1543.581	1533.951
608.299	30.514	1541.988	1531.605
609.313	30.244	1540.648	1527.857
610.328	30.231	1539.480	1526.412
611.342	30.390	1538.050	1526.123
612.357	30.480	1537.885	1526.516
613.372	30.498	1536.373	1524.986
614.386	30.307	1535.185	1522.050
615.401	30.414	1534.317	1521.890
616.415	30.330	1533.979	1520.675
617.430	30.270	1533.594	1519.619
618.445	30.254	1531.439	1517.176
619.459	30.334	1529.976	1516.195
620.474	30.257	1528.767	1514.186
621.488	30.250	1527.837	1513.028
622.503	30.286	1527.050	1512.365
623.518	30.619	1526.196	1514.062
624.532	30.609	1525.391	1512.995
625.547	30.331	1524.021	1509.187
626.561	30.490	1523.387	1509.676
627.576	30.622	1521.856	1509.054
628.591	30.660	1521.045	1508.383
629.605	30.994	1520.158	1510.041
630.620	31.069	1519.725	1510.042
631.634	30.826	1518.587	1506.755
632.649	31.036	1517.750	1507.445
633.663	31.143	1516.478	1506.872
634.678	31.090	1514.520	1504.316
635.693	30.781	1512.605	1499.735
636.707	30.710	1511.005	1497.394
637.722	30.657	1509.833	1495.621
638.736	30.689	1509.007	1494.890
639.751	30.893	1508.341	1495.693
640.766	30.812	1506.582	1493.116
641.780	30.786	1504.903	1491.064
642.795	30.656	1504.520	1489.464
643.809	30.745	1504.106	1489.587
644.824	30.907	1503.260	1489.878
645.839	30.787	1502.462	1487.940
646.853	30.980	1500.455	1487.320
647.868	30.932	1498.060	1484.387
648.882	30.729	1497.466	1481.995
649.897	30.680	1495.926	1479.904
650.912	30.702	1494.712	1478.699
651.926	31.119	1494.164	1481.313
652.941	30.972	1493.143	1478.946
653.955	30.552	1489.892	1472.213
654.970	29.967	1487.638	1465.156
655.985	29.812	1486.918	1463.040
656.999	29.873	1485.190	1461.644
658.014	30.091	1484.528	1462.547
659.028	30.575	1484.870	1466.554
660.043	30.845	1485.357	1468.995
661.058	31.222	1483.566	1470.035
662.072	31.151	1482.323	1468.062
663.087	30.911	1480.762	1464.451
664.101	30.674	1479.566	1461.215
665.116	30.730	1478.608	1460.540
666.131	30.831	1478.044	1460.605
667.145	30.997	1476.718	1460.425
668.160	30.997	1475.697	1459.240
669.174	31.164	1474.174	1458.873
670.189	31.017	1472.987	1456.368
671.204	31.043	1472.249	1455.674
672.218	30.961	1472.012	1454.618
673.233	31.188	1470.090	1454.322
674.247	31.189	1469.322	1453.399
675.262	31.235	1468.608	1452.876
676.276	31.098	1467.684	1450.715
677.291	30.959	1466.294	1448.080
678.306	30.937	1464.823	1446.288
679.320	30.820	1463.623	1444.018
680.335	30.720	1463.326	1442.769
681.349	30.807	1462.752	1442.712
682.364	30.952	1461.556	1442.487
683.379	30.848	1459.688	1439.659
684.393	30.770	1458.490	1437.705
685.408	30.788	1457.215	1436.413
686.422	30.701	1455.951	1434.321
687.437	30.686	1455.092	1433.186
688.452	30.851	1453.601	1432.821
689.466	30.799	1452.833	1431.492
690.481	30.754	1451.577	1429.736
691.495	30.947	1451.537	1431.016
692.510	31.263	1451.016	1432.766
693.525	31.294	1449.175	1431.021
694.539	31.185	1448.146	1428.992
695.554	30.972	1447.372	1426.416
696.568	30.945	1445.310	1424.006
697.583	30.692	1444.531	1421.128
698.598	30.584	1443.970	1419.573
699.612	30.816	1442.987	1420.223
700.627	30.852	1441.332	1418.694
701.641	31.032	1440.284	1418.871
702.656	31.015	1440.132	1418.422
703.671	31.098	1439.599	1418.358
704.685	31.329	1438.976	1419.341
705.700	31.229	1436.797	1416.261
706.714	30.990	1435.240	1412.732
707.729	30.913	1434.015	1410.775
708.744	31.108	1432.843	1410.937
709.758	31.111	1431.862	1409.826
710.773	30.624	1429.837	1403.970
711.787	30.327	1428.233	1399.971
712.802	30.844	1427.628	1403.125
713.816	31.218	1427.087	1405.257
714.831	31.161	1426.785	1404.364
715.846	31.420	1425.356	1404.742
716.860	31.299	1423.859	1402.189
717.875	31.220	1422.790	1400.371
718.889	30.848	1421.841	1396.467
719.904	30.992	1420.676	1396.240
720.919	31.148	1419.713	1396.302
721.933	30.984	1418.832	1394.034
722.948	30.980	1417.391	1392.422
723.962	31.010	1416.350	1391.453
724.977	31.043	1415.295	1390.497
725.992	31.228	1413.903	1390.354
727.006	31.248	1412.670	1389.123
728.021	31.246	1411.849	1388.131
729.035	31.182	1411.068	1386.723
730.050	31.148	1409.924	1385.176
731.065	31.102	1408.876	1383.638
732.079	31.072	1407.987	1382.376
733.094	31.128	1406.410	1381.081
734.108	31.252	1405.237	1380.681
735.123	31.241	1403.377	1378.614
736.138	31.139	1402.285	1376.614
737.152	31.180	1401.829	1376.309
738.167	31.065	1400.686	1374.169
739.181	31.251	1399.678	1374.391
740.196	31.092	1399.016	1372.405
741.211	31.126	1397.912	1371.405
742.225	31.125	1397.368	1370.701
743.240	31.021	1395.109	1367.551
744.254	31.066	1393.795	1366.434
745.269	30.971	1391.984	1363.794
746.284	30.812	1391.198	1361.691
747.298	30.788	1390.986	1361.143
748.313	31.062	1390.562	1362.579
749.327	31.273	1390.697	1364.101
750.342	31.243	1390.377	1363.402
751.356	31.311	1388.639	1362.036
752.371	31.263	1386.880	1359.790
753.386	31.091	1385.482	1357.005
754.400	30.967	1384.680	1355.149
755.415	31.260	1383.371	1355.845
756.429	31.164	1383.089	1354.703
757.444	31.191	1381.648	1353.329
758.459	31.223	1380.024	1351.805
759.473	31.218	1378.748	1350.363
760.488	31.072	1377.515	1347.933
761.502	30.927	1376.151	1345.382
762.517	31.105	1375.635	1346.011
763.532	31.205	1374.648	1345.603
764.546	31.238	1373.507	1344.564
765.561	30.608	1371.850	1338.224
766.575	29.947	1369.891	1331.382
767.590	29.842	1369.449	1330.032
768.605	30.752	1368.337	1335.357
769.619	31.206	1367.202	1337.359
770.634	31.263	1367.114	1337.530
771.648	30.996	1365.735	1334.096
772.663	30.865	1364.979	1332.255
773.678	30.996	1364.005	1332.086
774.692	31.129	1364.015	1332.892
775.707	31.125	1363.507	1332.206
776.721	31.265	1362.265	1331.838
777.736	31.101	1360.803	1329.078
778.751	31.030	1359.948	1327.571
779.765	31.196	1358.918	1327.597
780.780	30.998	1358.853	1325.956
781.794	31.202	1357.378	1325.819
782.809	30.881	1355.792	1321.818
783.824	30.674	1354.673	1319.092
784.838	30.865	1353.061	1318.729
785.853	31.089	1352.740	1319.854
786.867	31.265	1353.175	1321.371
787.882	30.996	1352.213	1318.356
788.897	30.844	1351.127	1316.061
789.911	30.660	1349.121	1312.643
790.926	30.619	1348.001	1311.108
791.940	30.595	1346.709	1309.523
792.955	30.678	1345.081	1308.373
793.969	30.703	1343.999	1307.336
794.984	30.780	1343.184	1306.934
795.999	31.061	1342.026	1307.635
797.013	31.169	1340.482	1306.733
798.028	31.059	1339.105	1304.463
799.042	31.042	1339.187	1304.260
800.057	30.894	1338.530	1302.425
801.072	30.912	1336.584	1300.504
802.086	30.946	1335.003	1299.046
803.101	31.143	1334.148	1299.438
804.115	30.995	1333.660	1297.777
805.130	30.980	1332.686	1296.568
806.145	30.924	1331.241	1294.610
807.159	30.961	1329.811	1293.325
808.174	30.983	1329.403	1292.926
809.188	31.063	1328.159	1292.117
810.203	31.117	1326.264	1290.500
811.218	30.800	1324.851	1286.765
812.232	30.520	1322.788	1282.664
813.247	30.094	1322.037	1278.832
814.261	30.609	1322.695	1282.886
815.276	31.023	1321.629	1284.569
816.291	30.902	1320.486	1282.466
817.305	30.677	1319.190	1279.497
818.320	30.743	1317.937	1278.588
819.334	30.998	1316.640	1278.934
820.349	30.932	1315.668	1277.379
821.364	30.934	1314.913	1276.508
822.378	30.930	1313.313	1274.777
823.393	30.855	1311.719	1272.559
824.407	30.888	1311.026	1271.962
825.422	30.848	1310.152	1270.684
826.437	30.950	1308.654	1269.780
827.451	30.831	1307.391	1267.588
828.466	30.769	1306.836	1266.472
829.480	31.272	1305.060	1268.035
830.495	31.142	1303.151	1265.146
831.509	30.724	1301.949	1260.978
832.524	30.603	1300.821	1258.910
833.539	30.900	1299.864	1259.857
834.553	30.746	1299.345	1258.158
835.568	30.725	1297.678	1256.247
836.582	30.677	1296.903	1255.020
837.597	30.967	1295.487	1255.464
838.612	30.951	1293.854	1253.621
839.626	30.722	1292.696	1250.806
840.641	30.866	1291.802	1250.763
841.655	30.760	1291.135	1249.252
842.670	30.353	1289.338	1244.622
843.685	29.667	1287.783	1238.349
844.699	30.264	1287.131	1241.591
845.714	30.604	1286.235	1242.866
846.728	30.674	1285.585	1242.559
847.743	30.502	1284.794	1240.493
848.758	30.630	1283.395	1239.849
849.772	30.865	1282.429	1240.340
850.787	30.555	1281.190	1236.924
851.801	30.683	1280.518	1236.977
852.816	30.748	1279.270	1236.058
853.831	30.734	1277.443	1234.057
854.845	30.756	1275.881	1232.544
855.860	30.507	1274.094	1229.015
856.874	30.435	1273.651	1227.965
857.889	30.709	1272.819	1228.832
858.904	31.051	1272.423	1230.573
859.918	31.430	1270.505	1231.080
860.933	31.353	1269.180	1229.137
861.947	30.992	1268.533	1225.981
862.962	30.802	1266.872	1222.975
863.977	30.803	1264.947	1220.978
864.991	30.524	1264.567	1218.625
866.006	30.367	1264.438	1217.316
867.020	30.723	1262.494	1217.643
868.035	30.528	1261.561	1215.317
869.049	30.695	1260.755	1215.494
870.064	30.701	1260.067	1214.720
871.079	30.652	1259.235	1213.455
872.093	30.668	1258.522	1212.727
873.108	30.528	1257.551	1210.728
874.122	30.450	1255.538	1208.134
875.137	30.307	1254.967	1206.507
876.152	30.207	1254.263	1205.034
877.166	30.301	1252.461	1203.768
878.181	30.160	1251.441	1201.727
879.195	30.259	1250.270	1201.105
880.210	30.301	1250.173	1201.140
881.225	30.374	1249.335	1200.661
882.239	30.542	1247.830	1200.164
883.254	30.574	1247.113	1199.536
884.268	30.518	1246.462	1198.405
885.283	30.709	1244.801	1197.903
886.298	30.744	1242.886	1196.144
887.312	30.488	1242.400	1193.879
888.327	30.601	1241.047	1193.165
889.341	30.571	1239.513	1191.352
890.356	30.529	1239.137	1190.578
891.371	30.420	1239.028	1189.631
892.385	30.429	1238.388	1188.928
893.400	30.393	1237.272	1187.488
894.414	30.415	1236.275	1186.528
895.429	30.681	1235.217	1187.074
896.444	30.882	1234.149	1187.196
897.458	30.992	1233.094	1186.746
898.473	30.957	1232.110	1185.432
899.487	30.808	1230.700	1182.978
900.502	30.677	1228.797	1180.176
901.517	30.472	1228.224	1178.177
902.531	30.387	1227.329	1176.636
903.546	30.274	1226.339	1174.825
904.560	30.443	1226.031	1175.465
905.575	30.478	1224.464	1174.046
906.589	30.463	1223.597	1172.979
907.604	30.330	1222.936	1171.357
