DTS Sentinel unit serial number:	SN409020Multiplexer serial number:	ORYXHardware model number:	OX4-SRSoftware version number:	ORYX F/W v3.00 Oryx Data Collector v3.7.2.0data status	okinstallation	HaddamTimeLapsedifferential loss correction	single-endedforward channel	channel 3reverse channel	N/Adate	2011/06/21time	13:56:17forward acquisition time	30.00reverse acquisition time	0.00gamma	498.7831k internal	0.1816k external	0.1816temperature offset calibration	1.0074default loss term (dB/km)	0.3790temperature slope calibration	1.3530multiplexer offset coefficient	1.0000multiplexer slope coefficient	1.0000fibre end	0.00T internal ref (°C)	36.62T ext. ref 1 (°C)	33.07T ext. ref 2 (°C)	0.23length (m)	temperature (°C)	Stokes	anti-Stokes-747.200	-128.832	-0.178	-0.032
-746.185	731.897	-0.117	0.402
-745.171	-68.123	-0.164	0.082
-744.156	-200.000	0.037	0.333
-743.142	114.084	-0.203	-0.316
-742.127	-96.546	-0.314	0.105
-741.112	-17.085	-0.403	0.325
-740.098	-200.000	-0.016	-0.323
-739.083	-134.683	-0.488	-0.075
-738.069	3.901	-0.356	0.333
-737.054	165.494	0.139	-0.252
-736.039	21.447	-0.225	-0.234
-735.025	-35.570	0.368	0.255
-734.010	449.883	0.073	0.207
-732.996	-49.731	0.031	-0.019
-731.981	9.769	0.079	0.077
-730.966	743.310	0.192	-0.667
-729.952	181.842	-0.370	-0.699
-728.937	800.000	-0.107	-0.538
-727.923	800.000	0.021	0.080
-726.908	-134.686	0.309	0.048
-725.894	-113.365	0.293	-0.073
-724.879	-126.492	0.457	-0.086
-723.864	-130.016	-0.166	-0.029
-722.850	-95.582	-0.167	0.057
-721.835	-174.335	0.376	0.014
-720.821	-183.813	-0.279	-0.006
-719.806	-117.944	-0.490	0.112
-718.791	-118.225	-0.487	0.110
-717.777	-129.376	0.232	0.041
-716.762	-200.000	-0.036	-0.256
-715.748	-200.000	0.066	0.516
-714.733	800.000	0.038	-0.170
-713.718	-174.662	0.586	0.021
-712.704	45.183	-0.144	-0.170
-711.689	-200.000	-0.007	-0.109
-710.675	-104.672	0.314	0.092
-709.660	800.000	0.085	-0.443
-708.645	-54.096	0.439	-0.255
-707.631	-156.836	0.255	0.020
-706.616	-200.000	0.041	0.336
-705.602	362.665	0.107	-0.275
-704.587	-53.141	-0.418	-0.245
-703.572	-174.566	0.271	0.010
-702.558	482.939	-0.087	-0.254
-701.543	-66.359	-0.251	0.127
-700.529	-200.000	-0.010	-0.109
-699.514	-120.711	0.245	-0.053
-698.499	54.552	-0.175	-0.216
-697.485	53.782	-0.273	0.336
-696.470	189.234	-0.246	-0.473
-695.456	-200.000	-0.001	-0.248
-694.441	52.814	0.106	0.130
-693.426	-9.378	-0.259	0.221
-692.412	177.995	0.305	-0.571
-691.397	-200.000	-0.065	0.411
-690.383	15.855	-0.121	0.122
-689.368	418.861	-0.102	-0.279
-688.354	24.913	0.209	-0.221
-687.339	-101.366	-0.190	-0.059
-686.324	-200.000	-0.015	-0.130
-685.310	-71.177	-0.149	-0.071
-684.295	-67.889	0.454	-0.226
-683.281	-83.737	-0.047	-0.019
-682.266	800.000	0.035	0.158
-681.251	-126.170	-0.671	-0.127
-680.237	69.080	-0.258	-0.339
-679.222	-3.507	-0.190	0.168
-678.208	243.652	0.081	0.174
-677.193	-75.777	-0.515	0.232
-676.178	164.726	-0.129	0.233
-675.164	360.400	-0.081	0.209
-674.149	29.047	-0.351	-0.380
-673.135	-84.290	0.236	-0.095
-672.120	800.000	-0.043	-0.202
-671.105	-72.395	0.348	-0.164
-670.091	675.903	0.176	-0.588
-669.076	307.551	0.194	-0.463
-668.062	-93.518	0.120	0.042
-667.047	-200.000	-0.417	0.000
-666.032	800.000	-0.064	0.228
-665.018	614.090	-0.056	-0.182
-664.003	-104.367	-0.399	-0.117
-662.989	608.220	-0.071	-0.228
-661.974	148.330	0.143	-0.247
-660.959	-36.265	-0.212	-0.146
-659.945	213.051	0.060	0.122
-658.930	53.927	0.377	0.463
-657.916	-200.000	-0.006	-0.152
-656.901	-81.639	-0.351	-0.146
-655.886	-73.659	-0.382	0.177
-654.872	-1.806	-0.283	0.254
-653.857	-84.504	-0.268	-0.108
-652.843	-136.467	-0.443	0.065
-651.828	-196.243	0.286	0.002
-650.814	800.000	0.063	-0.306
-649.799	47.714	-0.246	-0.293
-648.784	-200.000	-0.016	0.236
-647.770	800.000	0.082	0.305
-646.755	-74.655	-0.170	-0.078
-645.741	-200.000	0.007	-0.174
-644.726	-66.299	-0.368	0.186
-643.711	-80.436	0.061	0.026
-642.697	-200.000	-0.039	0.234
-641.682	-200.000	0.317	-0.002
-640.668	647.671	-0.102	-0.336
-639.653	62.045	0.328	-0.417
-638.638	25.836	-0.287	0.305
-637.624	272.894	-0.102	-0.232
-636.609	146.328	-0.092	0.157
-635.595	276.097	-0.025	0.057
-634.580	-200.000	0.027	-0.197
-633.565	614.439	0.101	-0.325
-632.551	-200.000	0.042	-0.462
-631.536	-200.000	-0.041	-0.530
-630.522	72.482	0.172	-0.230
-629.507	196.123	-0.235	0.457
-628.492	-55.785	0.381	-0.216
-627.478	94.692	0.270	-0.393
-626.463	-48.005	-0.306	0.188
-625.449	158.855	-0.240	0.427
-624.434	800.000	-0.035	0.154
-623.419	12.475	-0.238	0.234
-622.405	-168.775	-0.588	-0.028
-621.390	-200.000	-0.023	0.414
-620.376	656.195	-0.134	-0.442
-619.361	273.289	-0.100	-0.226
-618.346	-106.535	0.241	0.068
-617.332	46.739	-0.409	-0.484
-616.317	-57.650	-0.233	0.130
-615.303	-114.865	-0.143	0.035
-614.288	-112.040	-0.233	0.059
-613.273	-135.430	0.080	0.012
-612.259	414.315	0.062	0.168
-611.244	-51.098	-0.250	0.149
-610.230	-71.031	-0.569	0.272
-609.215	-110.742	-0.265	-0.069
-608.201	302.796	-0.084	0.198
-607.186	-178.838	0.226	-0.006
-606.171	-116.032	0.365	0.086
-605.157	-79.805	-0.230	0.098
-604.142	-200.000	0.008	0.085
-603.128	80.925	-0.083	-0.115
-602.113	800.000	-0.021	0.099
-601.098	-57.028	0.152	0.085
-600.084	800.000	-0.157	-0.678
-599.069	521.691	0.095	-0.285
-598.055	2.676	0.406	0.374
-597.040	-168.822	-0.279	-0.013
-596.025	-6.828	-0.166	-0.143
-595.011	800.000	-0.093	-0.425
-593.996	346.661	-0.192	0.483
-592.982	800.000	0.046	0.201
-591.967	251.840	0.032	0.071
-590.952	-200.000	-0.073	0.489
-589.938	559.458	-0.170	0.526
-588.923	9.574	-0.247	0.238
-587.909	-44.341	-0.203	0.129
-586.894	6.952	0.160	-0.151
-585.879	800.000	-0.074	-0.331
-584.865	0.999	-0.627	-0.572
-583.850	119.454	0.200	-0.316
-582.836	-200.000	0.007	0.094
-581.821	239.486	0.150	0.318
-580.806	553.018	0.200	0.616
-579.792	208.399	0.256	0.511
-578.777	18.867	0.585	0.596
-577.763	119.579	0.051	0.081
-576.748	-113.713	-0.470	-0.116
-575.733	-62.605	-0.179	0.094
-574.719	-200.000	0.041	0.602
-573.704	-37.785	0.103	-0.070
-572.690	94.345	-0.222	0.322
-571.675	411.709	0.056	-0.153
-570.661	-76.384	0.360	-0.160
-569.646	124.320	-0.210	-0.337
-568.631	67.676	0.319	-0.415
-567.617	-3.675	0.388	-0.343
-566.602	479.760	0.081	-0.235
-565.588	-43.467	-0.604	-0.387
-564.573	41.009	0.046	-0.053
-563.558	-74.528	-0.407	0.186
-562.544	-149.487	-0.483	0.048
-561.529	-100.374	0.132	-0.042
-560.515	-82.597	0.132	0.054
-559.500	-2.874	-0.152	-0.135
-558.485	-200.000	-0.001	0.178
-557.471	-200.000	-0.013	-0.283
-556.456	281.542	-0.114	-0.261
-555.442	307.795	-0.163	-0.388
-554.427	-157.279	-0.195	-0.015
-553.412	-160.752	-0.236	0.016
-552.398	-137.423	0.339	-0.048
-551.383	9.626	0.227	0.219
-550.369	183.247	-0.108	0.204
-549.354	221.100	0.164	0.335
-548.339	25.852	0.220	0.233
-547.325	-142.694	0.149	0.018
-546.310	-200.000	-0.056	0.556
-545.296	-84.260	0.612	0.245
-544.281	-104.180	-0.113	0.033
-543.266	-125.325	-0.073	0.014
-542.252	392.933	0.080	-0.212
-541.237	-40.317	-0.126	0.083
-540.223	88.579	0.266	-0.376
-539.208	800.000	0.023	-0.112
-538.193	124.531	0.095	0.152
-537.179	-42.596	-0.416	-0.268
-536.164	-200.000	-0.016	-0.138
-535.150	29.392	-0.285	0.308
-534.135	2.818	-0.251	0.231
-533.121	-116.124	-0.396	0.093
-532.106	13.705	0.312	-0.307
-531.091	-128.166	0.043	-0.008
-530.077	321.897	0.097	0.235
-529.062	376.524	0.135	-0.351
-528.048	781.756	0.136	0.477
-527.033	-200.000	-0.027	-0.340
-526.018	-200.000	-0.038	0.238
-525.004	783.090	-0.176	0.615
-523.989	-12.970	-0.110	-0.091
-522.975	-29.323	-0.057	0.041
-521.960	-162.012	-0.156	0.010
-520.945	-90.842	0.503	-0.183
-519.931	-81.560	0.356	-0.148
-518.916	-133.967	0.249	-0.039
-517.902	254.208	0.087	0.189
-516.887	-200.000	0.001	-0.219
-515.872	44.628	0.273	0.319
-514.858	-192.738	-0.261	-0.003
-513.843	-84.073	-0.422	0.169
-512.829	284.903	-0.032	-0.073
-511.814	27.774	-0.131	-0.141
-510.799	62.344	-0.242	0.307
-509.785	-107.914	-0.085	0.023
-508.770	-133.217	-0.311	-0.049
-507.756	800.000	-0.077	0.395
-506.741	-106.556	0.070	-0.020
-505.726	18.669	0.268	-0.272
-504.712	-20.864	-0.183	0.142
-503.697	440.022	0.068	0.189
-502.683	-109.618	-0.481	-0.128
-501.668	-53.540	-0.360	-0.208
-500.653	22.406	-0.178	-0.184
-499.639	-200.000	0.017	-0.110
-498.624	52.712	0.249	-0.302
-497.610	-63.101	0.155	-0.081
-496.595	-170.141	0.168	-0.007
-495.581	-200.000	-0.087	-0.569
-494.566	-65.793	-0.269	-0.136
-493.551	94.097	-0.088	0.126
-492.537	76.017	-0.169	0.227
-491.522	-134.433	0.601	-0.092
-490.508	-120.743	-0.328	0.070
-489.493	-200.000	0.007	-0.399
-488.478	-68.758	0.391	-0.191
-487.464	-14.914	0.483	0.392
-486.449	-20.727	-0.396	0.308
-485.435	-200.000	-0.033	0.395
-484.420	800.000	0.045	-0.173
-483.405	800.000	0.121	-0.428
-482.391	301.977	0.161	-0.380
-481.376	-200.000	0.010	-0.291
-480.362	247.260	0.238	-0.511
-479.347	-65.143	-0.162	-0.083
-478.332	-140.948	-0.246	0.032
-477.318	-79.604	0.087	0.037
-476.303	-60.203	-0.598	-0.322
-475.289	0.942	-0.361	-0.327
-474.274	152.505	-0.285	0.495
-473.259	671.220	-0.068	0.226
-472.245	20.976	0.787	-0.809
-471.230	-36.708	-0.094	-0.064
-470.216	-200.000	0.015	-0.604
-469.201	800.000	0.059	-0.288
-468.186	-126.916	-0.089	0.016
-467.172	187.939	-0.106	0.202
-466.157	-47.642	-0.399	-0.245
-465.143	254.091	-0.086	0.188
-464.128	-114.665	-0.048	-0.012
-463.113	-75.068	0.263	0.119
-462.099	-57.519	0.422	-0.234
-461.084	614.684	0.150	-0.479
-460.070	-14.658	0.483	-0.392
-459.055	-200.000	-0.004	0.096
-458.040	800.000	-0.043	0.173
-457.026	-152.597	-0.354	0.032
-456.011	-56.775	0.382	-0.213
-454.997	800.000	0.122	0.494
-453.982	-75.235	-0.177	0.080
-452.968	37.870	0.090	0.101
-451.953	-60.279	0.241	-0.130
-450.938	-50.768	-0.256	-0.152
-449.924	194.227	-0.114	-0.219
-448.909	-106.066	-0.208	-0.059
-447.895	-30.832	0.069	-0.049
-446.880	39.966	-0.367	0.418
-445.865	-200.000	0.026	0.305
-444.851	800.000	-0.024	0.121
-443.836	-75.427	-0.166	-0.075
-442.822	205.190	0.087	0.171
-441.807	241.611	-0.208	-0.441
-440.792	-200.000	-0.032	0.209
-439.778	-54.508	-0.202	0.115
-438.763	23.809	-0.116	0.121
-437.749	800.000	0.047	0.184
-436.734	211.305	0.355	0.710
-435.719	800.000	0.151	-0.620
-434.705	406.652	0.090	-0.243
-433.690	9.103	-0.701	-0.670
-432.676	66.882	0.182	-0.235
-431.661	-89.211	0.302	-0.112
-430.646	691.534	-0.042	-0.141
-429.632	-49.309	0.177	-0.107
-428.617	-200.000	-0.011	0.306
-427.603	-118.603	-0.276	0.061
-426.588	-64.087	-0.296	0.152
-425.573	149.265	0.293	-0.503
-424.559	72.793	-0.172	-0.228
-423.544	-104.558	-0.230	0.067
-422.530	-75.626	-0.237	0.106
-421.515	-60.305	0.325	0.175
-420.500	95.586	0.099	0.144
-419.486	-127.574	0.179	0.032
-418.471	-41.995	0.178	0.115
-417.457	186.023	-0.249	0.469
-416.442	168.073	0.155	0.279
-415.428	-170.284	-0.180	0.008
-414.413	77.992	0.140	-0.188
-413.398	-59.553	0.265	-0.143
-412.384	800.000	-0.041	-0.213
-411.369	791.344	0.030	0.104
-410.355	24.247	-0.279	-0.292
-409.340	800.000	0.116	0.415
-408.325	800.000	-0.042	-0.186
-407.311	-200.000	0.031	0.172
-406.296	-200.000	-0.019	-0.301
-405.282	-48.926	-0.254	0.154
-404.267	-13.800	-0.282	0.231
-403.252	32.576	0.115	0.126
-402.238	-200.000	0.011	-0.073
-401.223	-40.800	-0.289	-0.189
-400.209	-58.322	-0.248	-0.136
-399.194	-86.972	0.388	-0.149
-398.179	-132.182	0.365	0.059
-397.165	-187.732	-0.132	0.002
-396.150	800.000	0.063	0.228
-395.136	104.226	0.134	0.199
-394.121	-1.901	0.356	-0.316
-393.106	-136.722	0.065	0.009
-392.092	226.048	-0.111	-0.228
-391.077	35.137	0.271	-0.301
-390.063	-131.897	0.195	-0.032
-389.048	-52.638	-0.331	-0.192
-388.033	171.075	-0.228	0.413
-387.019	-135.638	-0.493	-0.073
-386.004	96.227	-0.158	0.229
-384.990	-10.090	-0.423	0.355
-383.975	178.068	0.196	0.362
-382.960	-29.970	0.342	-0.246
-381.946	5.417	0.034	0.032
-380.931	-99.259	0.417	0.132
-379.917	411.505	-0.073	0.197
-378.902	-200.000	-0.030	-0.209
-377.888	38.960	-0.095	0.107
-376.873	-10.242	0.077	0.064
-375.858	-200.000	0.016	-0.173
-374.844	0.790	-0.293	0.265
-373.829	-200.000	-0.057	-0.335
-372.815	604.491	-0.013	-0.040
-371.800	400.949	-0.062	0.165
-370.785	497.643	0.101	-0.295
-369.771	-66.725	-0.275	0.137
-368.756	-46.262	0.542	-0.336
-367.742	474.956	0.223	-0.637
-366.727	10.571	-0.579	-0.557
-365.712	-129.528	-0.217	-0.038
-364.698	-7.522	0.287	-0.245
-363.683	800.000	-0.059	-0.314
-362.669	113.159	0.281	-0.431
-361.654	-20.839	0.309	-0.238
-360.639	-200.000	-0.010	-0.189
-359.625	-59.179	-0.406	0.220
-358.610	207.246	0.221	-0.437
-357.596	-5.988	-0.020	0.017
-356.581	-200.000	0.042	0.326
-355.566	59.725	-0.277	0.345
-354.552	-109.158	0.297	-0.079
-353.537	-165.703	0.111	-0.006
-352.523	43.701	0.054	0.062
-351.508	-93.363	0.450	-0.156
-350.493	800.000	0.067	-0.340
-349.479	-144.232	-0.311	-0.036
-348.464	138.553	0.116	0.193
-347.450	222.790	0.184	0.374
-346.435	-154.639	0.264	-0.022
-345.420	-51.069	-0.490	-0.289
-344.406	380.146	-0.071	-0.186
-343.391	149.355	0.106	-0.181
-342.377	75.712	-0.195	0.260
-341.362	124.861	0.198	0.315
-340.348	-134.665	0.257	-0.039
-339.333	5.032	-0.195	-0.181
-338.318	-68.611	0.249	-0.121
-337.304	-200.000	-0.016	0.126
-336.289	-3.478	0.129	-0.113
-335.275	-92.562	-0.399	0.140
-334.260	148.640	0.143	0.244
-333.245	-80.090	-0.412	-0.173
-332.231	91.959	-0.034	-0.048
-331.216	92.303	0.357	0.507
-330.202	800.000	0.039	0.208
-329.187	-148.706	-0.041	-0.004
-328.172	153.990	0.306	0.531
-327.158	141.035	-0.225	-0.376
-326.143	-195.778	-0.037	0.000
-325.129	-200.000	-0.081	0.475
-324.114	-118.430	0.308	0.068
-323.099	31.449	0.466	-0.505
-322.085	-200.000	0.030	0.443
-321.070	21.734	0.131	0.134
-320.056	-67.815	-0.421	0.207
-319.041	-127.206	0.123	-0.022
-318.026	794.526	0.120	-0.417
-317.012	-200.000	0.058	-0.604
-315.997	-160.915	-0.138	-0.009
-314.983	260.464	-0.094	-0.206
-313.968	-116.619	0.173	-0.040
-312.953	165.887	-0.073	-0.131
-311.939	-127.188	-0.519	-0.095
-310.924	-145.468	-0.261	-0.029
-309.910	202.973	-0.103	0.201
-308.895	658.026	-0.164	0.535
-307.880	388.473	0.135	-0.355
-306.866	-200.000	0.032	-0.327
-305.851	11.299	0.141	0.136
-304.837	192.675	-0.056	-0.106
-303.822	-154.033	-0.281	-0.024
-302.807	-186.384	0.269	0.005
-301.793	112.251	-0.203	0.310
-300.778	60.159	-0.351	0.437
-299.764	13.655	-0.342	0.335
-298.749	271.437	0.129	-0.288
-297.735	-12.414	0.201	0.165
-296.720	-99.189	-0.596	0.189
-295.705	800.000	0.172	0.625
-294.691	-72.497	0.184	0.085
-293.676	462.537	-0.034	-0.097
-292.662	256.599	0.077	-0.168
-291.647	-59.038	0.340	-0.184
-290.632	-135.452	-0.081	0.012
-289.618	-113.241	-0.155	-0.038
-288.603	-1.324	0.247	-0.219
-287.589	-66.370	0.473	-0.236
-286.574	-108.073	0.303	0.082
-285.559	-16.614	0.559	0.445
-284.545	442.926	-0.178	0.492
-283.530	412.555	-0.083	-0.223
-282.516	657.121	-0.070	0.229
-281.501	-70.751	-0.033	0.016
-280.486	9.997	0.385	-0.368
-279.472	708.559	0.075	-0.252
-278.457	-93.250	0.134	0.047
-277.443	-0.424	-0.247	-0.221
-276.428	800.000	-0.076	-0.396
-275.413	-27.523	0.617	-0.450
-274.399	69.208	0.147	-0.190
-273.384	800.000	0.104	0.381
-272.370	-90.581	0.510	-0.184
-271.355	-200.000	-0.015	-0.266
-270.340	466.849	-0.050	-0.142
-269.326	800.000	0.058	0.203
-268.311	-45.062	-0.116	0.073
-267.297	382.267	0.089	0.230
-266.282	-115.576	-0.178	0.042
-265.267	112.448	0.108	-0.165
-264.253	-33.633	0.175	0.121
-263.238	-169.664	-0.489	-0.022
-262.224	-68.671	0.172	-0.083
-261.209	-31.425	0.301	-0.212
-260.195	-91.249	0.253	0.091
-259.180	-184.650	-0.191	0.004
-258.165	-73.075	0.503	-0.231
-257.151	800.000	-0.092	0.360
-256.136	-11.554	-0.288	-0.238
-255.122	166.673	-0.188	0.337
-254.107	-49.607	0.255	-0.152
-253.092	52.366	0.133	0.159
-252.078	57.063	0.212	0.260
-251.063	515.498	0.180	0.532
-250.049	800.000	0.046	-0.213
-249.034	10.565	0.089	0.085
-248.019	44.770	-0.268	0.309
-247.005	800.000	0.069	-0.371
-245.990	-200.000	0.133	-0.786
-244.976	-148.558	0.085	0.009
-243.961	-23.608	-0.204	-0.153
-242.946	55.421	0.166	0.202
-241.932	-122.497	-0.141	0.029
-240.917	-12.805	-0.334	-0.273
-239.903	-50.094	0.249	0.148
-238.888	-200.000	0.091	0.636
-237.873	-200.000	0.004	0.042
-236.859	211.331	-0.110	-0.218
-235.844	-68.740	0.542	0.262
-234.830	-185.137	0.446	0.009
-233.815	-62.054	-0.159	-0.083
-232.800	434.269	-0.093	0.255
-231.786	-128.200	0.221	0.039
-230.771	-158.634	0.405	-0.029
-229.757	23.873	0.216	-0.224
-228.742	800.000	-0.044	0.159
-227.727	800.000	0.210	-0.809
-226.713	-54.570	0.491	0.278
-225.698	-70.219	-0.229	-0.109
-224.684	-93.086	0.199	-0.069
-223.669	-129.851	0.470	0.080
-222.655	204.459	0.249	-0.486
-221.640	-200.000	-0.029	-0.400
-220.625	390.818	0.067	-0.176
-219.611	485.765	-0.164	0.473
-218.596	-57.249	0.186	0.102
-217.582	32.273	-0.104	-0.112
-216.567	-167.890	0.523	-0.025
-215.552	-97.601	0.380	0.123
-214.538	-57.577	-0.225	0.123
-213.523	277.659	-0.104	-0.233
-212.509	-200.000	0.008	0.110
-211.494	-175.044	0.259	0.009
-210.479	-153.744	0.525	0.045
-209.465	-64.037	0.359	0.183
-208.450	800.000	0.054	0.222
-207.436	742.569	0.180	0.609
-206.421	-70.745	-0.136	0.064
-205.406	-117.325	-0.369	-0.083
-204.392	49.677	-0.269	0.318
-203.377	-200.000	0.006	-0.087
-202.363	-39.154	-0.193	0.127
-201.348	-74.606	-0.273	0.123
-200.333	151.748	-0.210	0.359
-199.319	-166.304	-0.275	0.014
-198.304	-200.000	-0.436	-0.001
-197.290	-200.000	0.026	0.295
-196.275	-161.738	-0.170	0.011
-195.260	-80.107	-0.248	-0.104
-194.246	28.985	-0.118	0.125
-193.231	800.000	0.096	0.425
-192.217	-200.000	0.058	0.558
-191.202	-68.248	-0.210	-0.102
-190.187	-54.536	0.330	-0.187
-189.173	-162.735	-0.193	0.012
-188.158	-64.593	0.472	-0.239
-187.144	101.720	0.046	0.067
-186.129	49.429	0.250	0.294
-185.114	-66.759	-0.040	0.020
-184.100	24.522	0.093	-0.097
-183.085	-200.000	0.025	-0.349
-182.071	124.158	-0.162	0.255
-181.056	216.853	0.196	0.393
-180.042	800.000	0.058	0.287
-179.027	-23.379	-0.471	0.354
-178.012	257.320	-0.225	0.487
-176.998	256.688	0.176	0.381
-175.983	-45.218	-0.436	0.271
-174.969	113.300	0.182	0.278
-173.954	-75.371	-0.168	0.075
-172.939	-82.292	0.205	-0.083
-171.925	290.306	-0.219	-0.499
-170.910	-111.900	-0.821	-0.206
-169.896	67.140	0.272	0.348
-168.881	-200.000	-0.010	-0.128
-167.866	200.037	0.040	-0.077
-166.852	800.000	0.081	-0.306
-165.837	-53.093	0.187	-0.108
-164.823	3.499	-0.174	-0.158
-163.808	47.985	-0.323	0.378
-162.793	489.042	-0.031	-0.088
-161.779	800.000	-0.043	-0.218
-160.764	-112.414	0.304	-0.076
-159.750	-200.000	0.009	-0.107
-158.735	-200.000	-0.000	-0.119
-157.720	15.042	-0.190	0.186
-156.706	-96.185	0.707	0.233
-155.691	-39.592	-0.144	0.094
-154.677	-140.818	0.065	-0.008
-153.662	2.186	-0.355	0.321
-152.647	-20.904	-0.230	-0.176
-151.633	-121.435	0.351	0.072
-150.618	-6.848	0.450	-0.383
-149.604	-96.233	0.244	-0.080
-148.589	-103.558	-0.347	0.101
-147.574	-200.000	0.041	-0.331
-146.560	213.829	-0.134	0.266
-145.545	-166.848	-0.510	0.026
-144.531	31.559	0.318	-0.342
-143.516	800.000	-0.073	0.300
-142.502	-27.815	0.186	-0.135
-141.487	-200.000	0.018	0.465
-140.472	-87.628	0.017	-0.006
-139.458	244.700	0.074	0.157
-138.443	800.000	-0.078	0.285
-137.429	252.065	0.040	-0.086
-136.414	-64.330	0.451	-0.229
-135.399	143.953	-0.181	0.303
-134.385	42.827	-0.066	0.075
-133.370	-41.856	0.402	0.257
-132.356	-200.000	0.467	0.001
-131.341	-69.458	0.140	0.067
-130.326	-44.136	-0.154	-0.097
-129.312	322.257	0.071	0.170
-128.297	-90.255	0.075	0.027
-127.283	439.889	0.088	0.242
-126.268	362.177	0.152	-0.384
-125.253	202.973	-0.181	0.351
-124.239	-80.256	-0.379	0.158
-123.224	-44.879	-0.229	0.142
-122.210	-66.397	-0.296	0.147
-121.195	-42.032	0.121	0.077
-120.180	217.969	-0.243	0.486
-119.166	-69.662	0.135	0.064
-118.151	76.865	0.116	-0.154
-117.137	-135.873	-0.573	-0.084
-116.122	0.217	-0.098	-0.087
-115.107	-140.739	-0.258	0.033
-114.093	-48.702	-0.102	0.061
-113.078	-109.395	-0.245	0.064
-112.064	200.510	0.170	0.328
-111.049	93.978	0.278	0.394
-110.034	-78.559	0.283	0.120
-109.020	-30.357	0.112	0.079
-108.005	-106.218	0.313	-0.087
-106.991	-77.597	0.128	-0.055
-105.976	161.838	-0.254	-0.446
-104.962	-45.547	-0.136	-0.084
-103.947	-118.713	-0.328	0.072
-102.932	-137.168	-0.207	0.029
-101.918	326.953	-0.271	-0.651
-100.903	-51.642	-0.189	0.110
-99.889	632.998	0.024	-0.078
-98.874	-89.994	0.463	0.168
-97.859	-151.548	0.216	0.020
-96.845	-38.884	0.061	-0.040
-95.830	233.714	0.040	0.083
-94.816	-72.498	-0.627	-0.288
-93.801	91.440	-0.168	-0.236
-92.786	-106.442	0.311	-0.086
-91.772	-132.824	0.356	0.056
-90.757	-128.809	0.542	0.094
-89.743	71.605	0.122	0.159
-88.728	-12.301	0.181	-0.148
-87.713	112.939	-0.210	-0.319
-86.699	-167.849	-0.385	-0.019
-85.684	281.431	0.067	0.150
-84.670	-60.207	-0.276	-0.146
-83.655	-101.670	-0.345	-0.104
-82.640	-160.968	-0.181	0.012
-81.626	-44.064	0.080	-0.050
-80.611	-66.903	-0.217	0.107
-79.597	-10.968	0.229	-0.189
-78.582	800.000	-0.092	-0.356
-77.567	242.848	-0.134	0.280
-76.553	-200.000	-0.004	-0.075
-75.538	-194.300	-0.251	-0.002
-74.524	129.532	0.190	0.304
-73.509	-0.019	-0.261	-0.232
-72.494	687.318	-0.044	0.143
-71.480	-53.470	0.113	-0.064
-70.465	-52.068	-0.565	0.327
-69.451	238.024	0.171	0.356
-68.436	-29.658	-0.308	0.219
-67.422	29.691	-0.134	-0.142
-66.407	-130.271	0.101	0.017
-65.392	574.126	0.077	-0.237
-64.378	-167.811	-0.061	0.003
-63.363	-200.000	0.026	0.457
-62.349	-200.000	-0.007	0.067
-61.334	-62.319	-1.262	-0.653
-60.319	111.124	-0.164	0.247
-59.305	282.719	-2.644	-5.940
-58.290	-26.043	2.965	2.171
-57.276	315.026	4.134	9.758
-56.261	-200.000	12.077	191.074
-55.246	502.978	1108.843	3213.554
-54.232	67.878	2753.614	3514.876
-53.217	73.359	2689.863	3513.720
-52.203	63.819	2423.918	3039.759
-51.188	43.528	2073.865	2365.342
-50.173	39.815	1939.235	2170.752
-49.159	37.609	1927.850	2133.651
-48.144	37.250	1923.706	2125.030
-47.130	37.009	1922.081	2120.505
-46.115	36.903	1920.481	2117.494
-45.100	36.963	1918.560	2115.947
-44.086	36.940	1916.826	2113.696
-43.071	36.993	1915.424	2112.653
-42.057	36.973	1913.609	2110.339
-41.042	36.880	1912.794	2108.344
-40.027	36.794	1910.976	2105.320
-39.013	36.864	1908.793	2103.594
-37.998	36.796	1908.088	2101.984
-36.984	36.733	1907.414	2100.479
-35.969	36.640	1907.219	2099.163
-34.954	36.759	1905.062	2098.005
-33.940	36.746	1903.259	2095.792
-32.925	36.816	1902.355	2095.475
-31.911	36.787	1901.960	2094.645
-30.896	36.875	1900.008	2093.361
-29.881	36.739	1899.237	2090.958
-28.867	36.653	1897.417	2087.937
-27.852	36.712	1895.840	2086.755
-26.838	36.794	1893.916	2085.449
-25.823	36.677	1893.087	2083.183
-24.809	36.646	1892.219	2081.808
-23.794	36.704	1890.418	2080.372
-22.779	36.665	1889.656	2079.029
-21.765	36.653	1888.237	2077.257
-20.750	36.615	1886.662	2075.030
-19.736	36.676	1884.976	2073.755
-18.721	36.510	1884.573	2071.442
-17.706	36.505	1883.759	2070.406
-16.692	36.534	1882.468	2069.219
-15.677	36.560	1881.148	2067.965
-14.663	36.468	1879.931	2065.557
-13.648	36.581	1877.765	2064.311
-12.633	36.521	1877.124	2062.873
-11.619	36.433	1876.624	2061.304
-10.604	36.486	1874.958	2059.955
-9.590	36.497	1873.512	2058.407
-8.575	36.471	1872.625	2057.071
-7.560	36.477	1870.738	2054.975
-6.546	36.473	1870.087	2054.141
-5.531	36.420	1869.442	2052.789
-4.517	36.437	1868.015	2051.314
-3.502	36.459	1867.288	2050.669
-2.487	36.452	1865.866	2048.958
-1.473	36.774	1863.228	2049.409
-0.458	37.390	1845.039	2035.800
0.556	34.808	1977.321	2139.993
1.571	34.807	2198.129	2378.677
2.586	37.032	2248.244	2461.041
3.600	37.000	2251.004	2463.358
4.615	37.317	2250.701	2466.779
5.629	37.270	2249.068	2464.097
6.644	37.421	2247.688	2464.208
7.659	37.481	2246.020	2462.852
8.673	37.766	2244.024	2463.997
9.688	37.146	2246.955	2459.022
10.702	32.528	2310.177	2467.255
11.717	27.504	2368.849	2461.576
12.731	13.968	2333.674	2242.313
13.746	2.381	2303.657	2057.281
14.761	0.630	2297.578	2027.997
15.775	0.432	2296.535	2024.164
16.790	0.393	2294.465	2021.565
17.804	0.411	2292.305	2019.670
18.819	0.286	2291.918	2017.405
19.834	0.433	2289.706	2017.183
20.848	0.377	2288.859	2015.444
21.863	0.281	2287.451	2012.680
22.877	0.322	2285.424	2011.199
23.892	0.323	2282.797	2008.667
24.907	0.390	2280.198	2007.037
25.921	0.426	2278.337	2005.636
26.936	0.248	2277.570	2002.337
27.950	0.267	2274.676	1999.811
28.965	0.258	2273.096	1998.069
29.980	0.283	2271.947	1997.145
30.994	0.398	2270.079	1996.802
32.009	7.006	2292.085	2104.501
33.023	25.978	2352.296	2417.677
34.038	41.031	2391.552	2662.138
35.053	45.813	2400.530	2736.169
36.067	45.605	2394.728	2726.443
37.082	44.303	2390.469	2703.861
38.096	44.866	2389.991	2710.523
39.111	46.331	2392.934	2733.122
40.126	47.103	2394.812	2745.253
41.140	48.430	2395.650	2763.598
42.155	47.689	2390.602	2747.577
43.169	47.979	2391.976	2752.690
44.184	49.442	2393.093	2773.111
45.199	48.735	2388.030	2757.533
46.213	46.468	2379.614	2717.458
47.228	45.023	2376.017	2693.859
48.242	45.691	2376.185	2702.597
49.257	45.993	2373.976	2703.754
50.271	46.940	2374.673	2716.758
51.286	47.286	2373.550	2719.721
52.301	46.431	2369.142	2703.067
53.315	45.473	2364.683	2685.020
54.330	40.001	2342.995	2588.293
55.344	34.050	2323.677	2488.671
56.359	33.218	2319.104	2472.544
57.374	32.687	2315.064	2460.970
58.388	32.162	2311.547	2450.068
59.403	32.900	2311.253	2459.119
60.417	34.734	2314.036	2485.805
61.432	35.115	2311.658	2487.938
62.447	33.984	2307.409	2468.316
63.461	33.482	2304.186	2458.019
64.476	32.944	2301.594	2447.960
65.490	34.443	2305.635	2471.504
66.505	38.735	2319.778	2542.473
67.520	43.691	2332.292	2620.637
68.534	43.971	2329.417	2620.728
69.549	44.429	2328.287	2625.086
70.563	45.372	2327.611	2636.248
71.578	45.972	2328.007	2644.147
72.593	46.624	2328.041	2652.316
73.607	47.296	2328.057	2660.695
74.622	46.984	2324.425	2652.202
75.636	45.664	2318.578	2628.202
76.651	46.178	2319.672	2635.756
77.666	46.443	2317.172	2636.015
78.680	46.369	2314.840	2632.093
79.695	47.273	2316.098	2644.837
80.709	47.968	2317.261	2654.769
81.724	48.085	2315.096	2653.473
82.739	48.201	2311.119	2650.086
83.753	47.282	2308.207	2634.681
84.768	46.639	2304.048	2621.401
85.782	45.491	2299.016	2600.708
86.797	45.108	2296.965	2593.180
87.812	44.828	2294.584	2586.613
88.826	44.405	2290.507	2576.313
89.841	44.753	2290.699	2580.662
90.855	45.843	2290.883	2594.429
91.870	44.826	2286.502	2576.246
92.884	44.376	2284.106	2567.514
93.899	45.596	2285.161	2583.888
94.914	44.498	2280.326	2564.204
95.928	39.745	2265.254	2486.917
96.943	36.954	2256.835	2442.088
97.957	40.696	2267.321	2500.642
98.972	43.920	2272.548	2546.927
99.987	43.558	2268.439	2537.455
101.001	44.019	2268.887	2543.463
102.016	44.595	2268.482	2549.971
103.030	44.968	2266.234	2551.833
104.045	45.828	2267.680	2563.966
105.060	46.900	2268.220	2577.737
106.074	46.643	2264.523	2570.007
107.089	45.540	2260.099	2550.872
108.103	45.622	2260.327	2551.847
109.118	46.230	2259.863	2558.634
110.133	46.421	2259.626	2560.437
111.147	46.343	2255.813	2554.839
112.162	46.158	2253.393	2549.485
113.176	45.956	2251.504	2544.523
114.191	46.037	2250.330	2543.910
115.206	46.086	2248.648	2542.316
116.220	46.111	2245.698	2538.975
117.235	45.733	2243.084	2531.034
118.249	45.634	2241.767	2528.016
119.264	46.567	2242.042	2539.591
120.279	47.143	2241.816	2546.161
121.293	46.776	2238.628	2537.700
122.308	46.153	2235.583	2526.251
123.322	45.637	2233.079	2516.750
124.337	45.157	2229.702	2506.711
125.352	41.646	2219.383	2451.589
126.366	41.578	2218.947	2449.978
127.381	44.592	2224.434	2492.940
128.395	45.589	2223.833	2504.238
129.410	46.393	2223.936	2513.934
130.424	46.720	2223.106	2516.698
131.439	46.551	2220.676	2511.580
132.454	45.691	2216.371	2495.879
133.468	45.800	2213.462	2493.646
134.483	45.355	2211.257	2485.424
135.497	44.659	2208.800	2473.866
136.512	45.143	2207.979	2478.562
137.527	44.944	2205.103	2472.610
138.541	44.340	2202.680	2462.237
139.556	44.281	2200.768	2459.092
140.570	44.372	2200.149	2459.212
141.585	45.173	2199.177	2467.569
142.600	45.448	2199.057	2470.473
143.614	45.270	2198.963	2467.905
144.629	45.961	2197.311	2474.141
145.643	45.624	2194.145	2466.201
146.658	44.968	2191.189	2454.650
147.673	45.037	2189.826	2453.663
148.687	46.085	2191.549	2467.966
149.702	46.139	2189.666	2466.198
150.716	45.755	2187.864	2459.247
151.731	45.760	2187.820	2458.965
152.746	45.985	2185.442	2458.700
153.760	43.493	2176.255	2418.147
154.775	37.801	2158.255	2329.703
155.789	35.035	2151.740	2289.197
156.804	39.024	2163.152	2349.145
157.819	43.399	2170.349	2409.306
158.833	44.773	2171.027	2426.239
159.848	45.859	2171.812	2439.811
160.862	46.487	2172.152	2447.415
161.877	46.807	2172.847	2451.723
162.892	47.305	2172.195	2456.642
163.906	47.551	2171.139	2458.086
164.921	47.893	2171.685	2462.484
165.935	47.759	2169.192	2457.772
166.950	47.100	2163.948	2443.704
167.964	45.920	2158.398	2423.145
168.979	45.370	2155.339	2412.909
169.994	45.454	2154.968	2413.191
171.008	45.918	2154.230	2417.572
172.023	46.030	2152.865	2417.080
173.037	46.177	2152.257	2417.854
174.052	46.330	2150.099	2416.943
175.067	46.193	2149.233	2414.065
176.081	46.192	2147.392	2411.699
177.096	45.731	2144.824	2403.088
178.110	45.236	2141.698	2393.477
179.125	45.541	2141.749	2396.837
180.140	46.786	2142.584	2412.131
181.154	46.895	2142.065	2412.529
182.169	45.984	2139.523	2398.687
183.183	44.801	2132.755	2376.947
184.198	39.986	2114.840	2300.527
185.213	37.128	2111.323	2262.987
186.227	42.848	2124.927	2344.534
187.242	45.707	2128.871	2382.083
188.256	45.776	2127.757	2381.357
189.271	46.394	2128.438	2389.039
190.286	46.914	2127.234	2393.464
191.300	45.545	2120.718	2369.936
192.315	44.757	2117.212	2356.567
193.329	45.460	2119.139	2366.613
194.344	46.576	2120.744	2381.095
195.359	47.009	2120.413	2385.471
196.373	47.370	2118.189	2386.869
197.388	47.095	2114.996	2379.799
198.402	46.065	2110.775	2362.857
199.417	45.622	2108.311	2354.699
200.432	46.428	2108.059	2363.443
201.446	46.959	2108.443	2369.716
202.461	46.479	2105.542	2360.646
203.475	45.662	2101.012	2345.888
204.490	45.381	2098.120	2339.147
205.504	46.008	2097.868	2345.787
206.519	45.786	2093.897	2338.526
207.534	45.462	2093.585	2334.176
208.548	45.869	2093.301	2338.244
209.563	44.434	2086.933	2314.453
210.577	43.560	2084.739	2301.741
211.592	45.335	2087.573	2324.907
212.607	43.282	2077.353	2289.864
213.621	35.167	2057.333	2175.380
214.636	35.164	2060.690	2178.628
215.650	41.591	2074.127	2266.210
216.665	44.306	2078.483	2301.685
217.680	45.239	2078.609	2312.167
218.694	45.718	2079.611	2318.462
219.709	45.884	2077.986	2318.256
220.723	46.361	2078.463	2323.930
221.738	47.072	2077.484	2330.622
222.753	46.787	2073.639	2322.807
223.767	46.050	2070.990	2311.218
224.782	45.665	2068.379	2303.678
225.796	45.535	2067.370	2300.818
226.811	46.230	2067.757	2308.821
227.826	46.470	2066.364	2309.698
228.840	46.734	2064.563	2310.378
229.855	46.348	2061.991	2302.876
230.869	45.082	2057.268	2283.103
231.884	44.126	2053.687	2268.128
232.899	44.476	2053.804	2271.912
233.913	45.089	2053.944	2278.677
234.928	45.710	2054.631	2286.132
235.942	46.190	2054.942	2291.586
236.957	46.451	2052.806	2291.851
237.972	46.298	2051.919	2288.873
238.986	46.620	2051.253	2291.458
240.001	46.240	2048.570	2283.950
241.015	45.608	2046.246	2274.034
242.030	45.550	2044.489	2271.160
243.045	42.450	2031.197	2221.710
244.059	40.016	2027.884	2190.739
245.074	43.620	2034.442	2237.746
246.088	44.855	2033.343	2249.981
247.103	44.595	2031.525	2244.821
248.117	44.831	2030.638	2246.185
249.132	45.417	2030.788	2252.575
250.147	45.539	2028.859	2251.518
251.161	45.047	2027.434	2244.221
252.176	45.006	2025.372	2241.225
253.190	45.297	2023.455	2242.040
254.205	45.449	2021.581	2241.370
255.220	46.143	2023.320	2250.673
256.234	46.512	2023.263	2254.404
257.249	46.054	2020.639	2246.176
258.263	45.986	2019.466	2243.855
259.278	46.568	2019.761	2250.315
260.293	46.749	2019.130	2251.324
261.307	46.485	2016.327	2245.039
262.322	46.566	2014.574	2243.704
263.336	45.773	2010.717	2230.472
264.351	44.885	2006.818	2216.177
265.366	45.103	2006.345	2217.777
266.380	45.552	2006.559	2222.650
267.395	44.857	2003.620	2211.552
268.409	44.621	2002.070	2206.999
269.424	45.678	2002.359	2218.567
270.439	46.218	2002.180	2223.975
271.453	44.345	1993.419	2193.678
272.468	39.077	1977.965	2119.476
273.482	36.905	1974.869	2092.367
274.497	40.879	1983.020	2143.951
275.512	44.513	1987.598	2188.043
276.526	45.007	1985.783	2191.121
277.541	44.683	1983.908	2185.287
278.555	44.858	1983.452	2186.415
279.570	44.733	1980.899	2181.993
280.585	44.247	1978.271	2173.605
281.599	44.126	1978.146	2171.903
282.614	45.128	1978.193	2182.473
283.628	46.073	1979.363	2193.657
284.643	46.614	1979.820	2199.712
285.657	46.700	1979.374	2199.866
286.672	46.673	1977.845	2197.622
287.687	46.655	1975.035	2194.044
288.701	46.226	1973.160	2187.108
289.716	45.989	1972.210	2183.255
290.730	46.246	1971.100	2184.513
291.745	46.518	1969.555	2185.439
292.760	45.720	1964.979	2171.605
293.774	45.049	1964.026	2163.152
294.789	45.573	1964.730	2169.244
295.803	45.726	1961.846	2167.433
296.818	45.377	1960.239	2161.687
297.833	45.520	1958.654	2161.203
298.847	45.709	1958.530	2162.810
299.862	45.951	1956.876	2163.293
300.876	45.357	1951.631	2150.954
301.891	41.007	1937.293	2089.096
302.906	36.709	1932.472	2038.270
303.920	41.727	1944.298	2103.771
304.935	44.669	1947.323	2137.913
305.949	45.169	1945.715	2141.170
306.964	46.039	1946.929	2151.411
307.979	46.176	1944.462	2149.871
308.993	44.575	1938.362	2126.067
310.008	44.205	1937.886	2121.408
311.022	45.581	1939.710	2137.610
312.037	46.056	1939.155	2141.716
313.052	45.905	1936.363	2136.800
314.066	45.411	1933.176	2127.858
315.081	45.428	1932.831	2127.404
316.095	45.692	1931.314	2128.237
317.110	45.581	1930.383	2125.796
318.125	45.669	1929.137	2125.091
319.139	45.652	1928.267	2123.700
320.154	46.193	1927.430	2128.153
321.168	46.255	1927.235	2128.331
322.183	46.615	1925.041	2129.397
323.197	46.209	1923.542	2123.269
324.212	45.847	1921.024	2116.484
325.227	45.206	1918.148	2106.416
326.241	44.944	1915.061	2100.057
327.256	45.068	1913.935	2099.854
328.270	45.303	1913.783	2101.875
329.285	45.222	1913.425	2100.388
330.300	43.776	1906.464	2077.593
331.314	37.860	1890.037	1998.710
332.329	36.142	1889.943	1980.645
333.343	41.819	1901.151	2050.902
334.358	45.511	1905.426	2093.329
335.373	46.001	1905.432	2098.117
336.387	46.144	1904.024	2097.788
337.402	46.255	1902.838	2097.371
338.416	45.782	1900.822	2090.051
339.431	45.726	1899.340	2087.598
340.446	46.749	1899.589	2098.081
341.460	47.382	1899.055	2103.711
342.475	47.504	1896.605	2101.992
343.489	46.561	1893.261	2088.430
344.504	46.055	1892.201	2081.861
345.519	46.273	1890.831	2082.320
346.533	46.405	1890.201	2082.715
347.548	46.464	1888.284	2080.952
348.562	45.940	1886.262	2073.158
349.577	46.135	1886.296	2074.928
350.592	46.712	1885.310	2079.443
351.606	46.724	1884.687	2078.632
352.621	46.841	1883.004	2077.716
353.635	46.584	1880.259	2071.834
354.650	46.009	1877.821	2063.092
355.665	45.658	1876.324	2057.664
356.679	45.673	1874.285	2055.334
357.694	45.151	1872.643	2048.018
358.708	45.289	1871.332	2047.735
359.723	44.049	1863.738	2026.735
360.738	37.943	1848.475	1948.810
361.752	36.742	1850.140	1938.247
362.767	42.519	1859.284	2005.815
363.781	44.981	1861.983	2033.198
364.796	45.982	1862.712	2043.772
365.810	45.465	1861.488	2037.013
366.825	44.859	1858.637	2027.590
367.840	45.090	1857.090	2027.971
368.854	44.847	1855.709	2023.796
369.869	44.773	1854.111	2021.074
370.883	45.184	1853.043	2023.757
371.898	45.293	1852.942	2024.491
372.913	45.799	1852.473	2028.777
373.927	46.006	1851.677	2029.719
374.942	46.009	1850.052	2027.721
375.956	46.078	1848.720	2026.702
376.971	45.397	1845.368	2016.040
377.986	45.304	1844.299	2013.709
379.000	45.946	1844.234	2019.752
380.015	46.396	1843.764	2023.448
381.029	46.615	1841.005	2022.334
382.044	46.217	1840.188	2017.278
383.059	46.214	1837.246	2013.774
384.073	45.127	1834.823	2000.179
385.088	44.431	1833.852	1992.028
386.102	45.048	1833.265	1997.233
387.117	45.831	1832.720	2004.093
388.132	46.045	1831.677	2004.815
389.146	44.392	1825.437	1981.559
390.161	38.120	1807.463	1900.693
391.175	36.149	1807.163	1880.847
392.190	42.266	1816.637	1950.533
393.205	44.515	1818.719	1974.518
394.219	44.737	1817.833	1975.490
395.234	44.334	1816.821	1970.221
396.248	44.489	1815.543	1970.111
397.263	44.684	1812.946	1968.957
398.278	44.314	1809.933	1961.854
399.292	44.345	1809.839	1961.819
400.307	46.076	1813.646	1982.525
401.321	46.899	1813.241	1989.826
402.336	45.932	1810.396	1977.109
403.350	45.894	1808.967	1974.943
404.365	46.908	1809.497	1985.092
405.380	48.091	1809.947	1996.773
406.394	47.876	1809.375	1993.829
407.409	47.046	1805.426	1981.241
408.423	46.376	1802.950	1971.833
409.438	46.642	1801.516	1972.590
410.453	46.793	1800.929	1973.164
411.467	46.603	1800.083	1970.176
412.482	46.858	1798.445	1970.600
413.496	46.651	1797.332	1967.152
414.511	46.047	1794.488	1958.019
415.526	46.031	1792.522	1955.490
416.540	46.919	1794.098	1965.472
417.555	46.678	1790.704	1959.220
418.569	45.094	1787.871	1940.758
419.584	45.759	1788.902	1948.001
420.599	46.371	1788.667	1953.359
421.613	45.701	1784.921	1942.656
422.628	44.537	1782.133	1928.300
423.642	45.375	1783.689	1937.744
424.657	46.220	1780.445	1942.011
425.672	44.223	1775.558	1917.520
426.686	44.011	1774.563	1914.197
427.701	44.581	1774.536	1919.345
428.715	45.462	1775.804	1928.844
429.730	46.894	1778.270	1944.869
430.745	48.862	1780.534	1965.744
431.759	50.231	1783.408	1981.630
432.774	49.015	1775.378	1961.027
433.788	40.162	1751.738	1851.873
434.803	31.422	1735.900	1752.967
435.818	29.993	1732.250	1735.625
436.832	29.941	1731.268	1733.940
437.847	29.220	1725.496	1721.186
438.861	19.732	1696.701	1604.198
439.876	5.038	1668.572	1441.718
440.890	0.894	1660.768	1396.427
441.905	0.486	1659.095	1391.065
442.920	0.439	1657.559	1389.182
443.934	0.396	1656.063	1387.364
444.949	0.356	1655.087	1386.012
445.963	0.303	1654.306	1384.697
446.978	0.336	1653.863	1384.465
447.993	0.339	1652.805	1383.447
449.007	0.329	1650.798	1381.502
450.022	0.385	1648.323	1379.786
451.036	0.368	1647.028	1378.376
452.051	1.151	1652.142	1389.705
453.066	11.902	1679.730	1513.033
454.080	27.485	1706.873	1683.247
455.095	32.701	1714.497	1739.083
456.109	33.195	1715.685	1744.658
457.124	33.555	1714.293	1746.370
458.139	33.058	1711.892	1739.117
459.153	32.404	1710.362	1731.310
460.168	32.438	1708.558	1729.588
461.182	32.667	1707.423	1730.346
462.197	32.796	1706.193	1730.086
463.212	33.116	1705.548	1732.168
464.226	33.306	1705.003	1733.156
465.241	33.331	1703.493	1731.644
466.255	33.165	1702.331	1728.726
467.270	33.112	1700.602	1726.277
468.285	33.443	1700.061	1728.567
469.299	33.675	1700.046	1730.471
470.314	33.902	1699.054	1731.326
471.328	34.014	1696.798	1729.850
472.343	34.044	1696.834	1729.955
473.358	34.142	1695.991	1729.781
474.372	34.197	1695.063	1729.132
475.387	34.619	1694.390	1732.090
476.401	34.714	1692.723	1731.039
477.416	34.257	1689.543	1723.423
478.430	33.990	1687.955	1719.173
479.445	34.472	1689.142	1724.561
480.460	34.855	1688.348	1727.023
481.474	34.958	1687.208	1726.577
482.489	34.598	1684.976	1720.827
483.503	34.103	1681.710	1712.805
484.518	33.783	1680.465	1708.446
485.533	34.027	1679.680	1709.643
486.547	34.020	1676.941	1706.586
487.562	32.995	1674.411	1694.569
488.576	33.157	1674.841	1696.264
489.591	33.916	1674.194	1702.241
490.606	34.403	1673.583	1705.802
491.620	34.668	1672.069	1706.434
492.635	34.233	1669.082	1699.282
493.649	33.510	1666.708	1690.183
494.664	33.545	1667.527	1691.122
495.679	34.269	1667.128	1697.004
496.693	34.183	1664.999	1693.862
497.708	33.920	1663.184	1689.464
498.722	33.412	1661.328	1682.841
499.737	33.559	1659.959	1682.565
500.752	33.615	1658.458	1681.343
501.766	33.707	1657.003	1680.482
502.781	33.473	1655.034	1676.211
503.795	33.494	1654.014	1675.157
504.810	33.402	1653.203	1673.318
505.825	33.216	1651.849	1670.100
506.839	33.011	1650.289	1666.507
507.854	32.954	1648.458	1663.949
508.868	32.761	1646.795	1660.368
509.883	32.613	1644.772	1656.817
510.898	32.255	1642.603	1651.277
511.912	32.093	1641.705	1648.747
512.927	32.320	1639.685	1648.524
513.941	32.262	1638.535	1646.658
514.956	32.541	1639.096	1649.480
515.971	33.100	1637.992	1653.090
516.985	32.788	1636.009	1648.149
518.000	32.098	1634.707	1640.584
519.014	32.041	1632.491	1637.659
520.029	31.799	1631.592	1634.441
521.043	31.913	1629.987	1633.637
522.058	32.138	1629.171	1634.592
523.073	32.112	1628.306	1633.301
524.087	31.940	1626.091	1629.381
525.102	31.868	1625.801	1628.268
526.116	32.587	1625.238	1633.783
527.131	33.037	1624.964	1637.229
528.146	32.737	1623.174	1632.618
529.160	32.352	1622.603	1628.501
530.175	32.608	1621.680	1629.605
531.189	32.722	1619.872	1628.584
532.204	32.759	1618.743	1627.574
533.219	33.043	1619.167	1630.273
534.233	33.739	1619.353	1636.297
535.248	33.798	1617.456	1634.692
536.262	33.106	1615.326	1626.360
537.277	33.095	1615.194	1625.937
538.292	33.600	1613.452	1628.354
539.306	33.721	1611.183	1626.909
540.321	33.149	1609.038	1619.626
541.335	32.586	1607.182	1612.719
542.350	32.859	1606.808	1614.496
543.365	33.297	1606.158	1617.417
544.379	33.465	1604.834	1617.334
545.394	33.226	1603.417	1613.659
546.408	33.282	1601.903	1612.425
547.423	33.854	1601.830	1617.059
548.438	33.898	1601.534	1616.941
549.452	33.781	1599.369	1613.562
550.467	33.587	1598.013	1610.346
551.481	33.342	1596.660	1606.694
552.496	33.109	1594.442	1602.287
553.511	32.544	1592.331	1595.169
554.525	32.222	1591.379	1591.284
555.540	32.149	1590.113	1589.203
556.554	32.380	1588.367	1589.229
557.569	32.256	1587.539	1587.156
558.583	32.180	1586.231	1585.021
559.598	32.273	1584.602	1583.985
560.613	32.139	1583.380	1581.443
561.627	31.952	1582.029	1578.324
562.642	31.718	1579.534	1573.671
563.656	31.242	1577.406	1567.342
564.671	31.108	1575.464	1564.100
565.686	31.096	1574.333	1562.692
566.700	31.240	1574.431	1563.811
567.715	31.399	1573.543	1564.075
568.729	31.592	1572.572	1564.545
569.744	32.247	1572.687	1569.974
570.759	32.481	1570.365	1569.429
571.773	32.014	1568.423	1563.394
572.788	31.481	1567.958	1558.277
573.802	31.346	1565.863	1554.886
574.817	31.156	1563.157	1550.424
575.832	30.914	1561.612	1546.690
576.846	31.136	1560.964	1547.712
577.861	31.724	1561.318	1552.776
578.875	31.693	1560.736	1551.752
579.890	31.701	1559.574	1550.478
580.905	31.763	1558.400	1549.644
581.919	31.808	1558.080	1549.513
582.934	31.659	1557.569	1547.586
583.948	31.805	1555.799	1546.851
584.963	31.872	1555.089	1546.510
585.978	32.424	1554.759	1550.576
586.992	32.626	1553.375	1550.681
588.007	32.292	1552.633	1546.993
589.021	32.148	1550.784	1543.772
590.036	31.825	1548.696	1538.845
591.051	31.642	1547.989	1536.446
592.065	31.956	1545.948	1536.824
593.080	32.044	1544.593	1536.016
594.094	32.296	1544.444	1537.757
595.109	32.721	1543.864	1540.489
596.123	33.256	1542.437	1543.270
597.138	33.011	1540.826	1539.469
598.153	32.551	1538.995	1533.689
599.167	32.591	1537.455	1532.295
600.182	32.355	1536.703	1529.438
601.196	32.421	1535.430	1528.525
602.211	32.421	1534.041	1526.960
603.226	31.911	1532.032	1520.623
604.240	31.840	1531.185	1519.017
605.255	31.820	1529.116	1516.623
606.269	31.603	1528.453	1514.021
607.284	31.561	1526.837	1511.899
608.299	31.452	1525.233	1509.242
609.313	31.541	1523.885	1508.453
610.328	31.407	1522.504	1505.812
611.342	31.214	1521.155	1502.740
612.357	31.086	1519.716	1500.101
613.372	31.034	1518.966	1498.766
614.386	31.110	1517.680	1497.930
615.401	30.992	1516.663	1495.795
616.415	30.857	1515.515	1493.399
617.430	30.539	1514.389	1489.545
618.445	30.327	1512.959	1486.258
619.459	30.453	1512.365	1486.507
620.474	30.891	1512.328	1489.817
621.488	31.391	1512.402	1493.730
622.503	32.484	1512.392	1502.312
623.518	31.681	1509.281	1492.613
624.532	30.693	1506.759	1482.035
625.547	30.487	1504.886	1478.368
626.561	30.206	1504.472	1475.534
627.576	30.113	1502.838	1473.011
628.591	30.622	1502.974	1477.038
629.605	31.489	1502.081	1482.890
630.620	31.575	1502.138	1483.456
631.634	32.357	1503.035	1490.395
632.649	32.483	1500.815	1489.016
633.663	31.700	1497.924	1479.753
634.678	30.915	1495.383	1470.842
635.693	30.310	1492.984	1463.518
636.707	30.132	1491.526	1460.502
637.722	29.965	1490.273	1457.777
638.736	29.977	1489.686	1457.124
639.751	30.464	1488.606	1459.740
640.766	30.630	1487.734	1460.024
641.780	30.578	1487.036	1458.753
642.795	30.751	1486.525	1459.439
643.809	30.990	1486.282	1460.912
644.824	31.032	1485.573	1460.370
645.839	31.418	1484.723	1462.391
646.853	31.331	1483.347	1460.177
647.868	31.407	1481.709	1458.990
648.882	31.563	1480.399	1458.744
649.897	31.647	1479.865	1458.700
650.912	31.621	1478.641	1457.122
651.926	31.551	1476.948	1454.726
652.941	31.372	1475.803	1452.029
653.955	31.364	1473.805	1449.823
654.970	31.035	1471.646	1444.970
655.985	30.834	1469.844	1441.462
656.999	30.574	1468.157	1437.614
658.014	30.524	1466.862	1435.788
659.028	30.699	1466.955	1437.060
660.043	31.295	1467.076	1441.636
661.058	31.652	1466.074	1443.245
662.072	31.660	1465.129	1442.202
663.087	31.669	1464.456	1441.438
664.101	31.642	1463.519	1440.138
665.116	31.462	1462.256	1437.325
666.131	31.280	1460.656	1434.181
667.145	31.424	1459.396	1433.882
668.160	30.992	1458.574	1429.571
669.174	30.847	1456.249	1426.005
670.189	30.740	1455.447	1424.226
671.204	30.973	1454.951	1425.367
672.218	31.078	1453.677	1424.754
673.233	30.950	1452.293	1422.245
674.247	30.781	1450.566	1419.086
675.262	30.578	1448.949	1415.784
676.276	30.390	1448.422	1413.656
677.291	30.554	1447.619	1413.956
678.306	30.816	1447.409	1415.584
679.320	30.831	1446.095	1414.248
680.335	30.446	1444.223	1409.309
681.349	30.470	1443.066	1408.196
682.364	30.456	1441.605	1406.497
683.379	30.282	1440.618	1404.038
684.393	30.263	1439.091	1402.239
685.408	30.142	1437.268	1399.382
686.422	30.181	1436.725	1398.980
687.437	29.884	1436.132	1395.984
688.452	29.717	1435.038	1393.482
689.466	29.703	1432.925	1391.161
690.481	29.886	1431.576	1391.070
691.495	29.995	1432.210	1392.339
692.510	31.023	1434.080	1401.760
693.525	32.239	1433.064	1409.776
694.539	31.638	1431.507	1403.551
695.554	30.297	1428.742	1390.582
696.568	29.855	1425.926	1384.345
697.583	29.449	1424.960	1380.195
698.598	29.675	1424.221	1381.006
699.612	29.672	1422.672	1379.324
700.627	29.785	1421.515	1378.883
701.641	30.098	1421.270	1380.823
702.656	30.361	1420.228	1381.608
703.671	30.221	1419.693	1379.878
704.685	30.256	1419.070	1379.367
705.700	30.576	1418.625	1381.160
706.714	30.667	1417.849	1380.920
707.729	30.955	1416.927	1382.008
708.744	31.071	1415.685	1381.490
709.758	30.773	1414.145	1377.610
710.773	30.454	1411.797	1372.787
711.787	30.117	1409.755	1368.136
712.802	30.654	1408.721	1370.945
713.816	30.926	1408.849	1372.925
714.831	30.986	1408.707	1373.066
715.846	30.813	1407.547	1370.489
716.860	30.632	1405.951	1367.436
717.875	30.729	1404.797	1366.864
718.889	30.796	1403.781	1366.208
719.904	30.639	1403.282	1364.403
720.919	30.706	1401.250	1362.755
721.933	30.459	1400.186	1359.742
722.948	30.347	1399.497	1358.087
723.962	30.180	1398.254	1355.487
724.977	30.176	1396.870	1353.955
725.992	30.002	1395.521	1351.209
727.006	30.340	1394.413	1352.449
728.021	30.093	1393.164	1349.269
729.035	30.028	1391.449	1346.972
730.050	30.133	1390.192	1346.363
731.065	29.960	1389.787	1344.548
732.079	29.967	1388.466	1343.155
733.094	29.931	1387.313	1341.618
734.108	30.105	1386.227	1341.673
735.123	30.088	1384.472	1339.690
736.138	29.844	1383.881	1337.190
737.152	29.886	1382.373	1335.874
738.167	29.813	1381.173	1334.026
739.181	29.878	1379.669	1332.884
740.196	29.874	1379.007	1332.059
741.211	29.728	1378.724	1330.564
742.225	29.626	1378.020	1328.990
743.240	29.496	1376.409	1326.338
744.254	29.550	1373.885	1324.136
745.269	29.378	1373.249	1322.128
746.284	29.204	1372.749	1320.235
747.298	29.381	1371.860	1320.495
748.313	29.778	1371.134	1322.490
749.327	30.424	1371.223	1327.060
750.342	31.210	1372.793	1334.068
751.356	31.983	1372.965	1339.627
752.371	31.705	1370.632	1335.202
753.386	30.223	1366.957	1320.861
754.400	29.603	1365.113	1314.485
755.415	29.639	1363.936	1313.455
756.429	29.686	1363.470	1313.185
757.444	29.857	1362.400	1313.219
758.459	29.776	1361.492	1311.609
759.473	29.719	1359.904	1309.516
760.488	29.827	1358.707	1308.975
761.502	29.908	1357.290	1308.029
762.517	30.031	1356.622	1308.100
763.532	30.350	1355.471	1309.095
764.546	30.383	1354.745	1308.472
765.561	30.019	1353.412	1304.450
766.575	29.691	1352.739	1301.323
767.590	29.478	1351.899	1298.854
768.605	30.011	1350.985	1301.586
769.619	30.363	1349.731	1302.709
770.634	30.352	1348.809	1301.579
771.648	30.163	1347.173	1298.517
772.663	29.724	1346.350	1294.483
773.678	29.740	1345.448	1293.570
774.692	29.886	1344.779	1293.800
775.707	29.642	1344.098	1291.276
776.721	29.573	1342.844	1289.431
777.736	29.612	1341.182	1287.952
778.751	29.442	1340.572	1286.021
779.765	29.586	1339.000	1285.370
780.780	29.434	1338.367	1283.545
781.794	29.520	1337.724	1283.375
782.809	29.234	1336.164	1279.727
783.824	29.199	1334.998	1278.213
784.838	29.465	1334.556	1279.493
785.853	30.623	1335.057	1287.883
786.867	30.246	1334.643	1284.708
787.882	29.712	1332.665	1278.936
788.897	29.429	1331.065	1275.283
789.911	29.276	1329.902	1272.955
790.926	29.136	1328.435	1270.430
791.940	29.027	1326.580	1267.749
792.955	28.985	1325.279	1266.062
793.969	28.939	1324.401	1264.752
794.984	29.088	1323.667	1264.930
795.999	29.100	1323.184	1264.399
797.013	29.200	1321.980	1263.786
798.028	29.164	1320.200	1261.683
799.042	28.994	1320.132	1260.302
800.057	29.189	1318.091	1259.539
801.072	29.298	1317.052	1259.146
802.086	29.240	1316.187	1257.773
803.101	29.117	1315.218	1255.849
804.115	29.113	1314.581	1255.067
805.130	29.246	1313.212	1254.517
806.145	29.180	1312.315	1253.061
807.159	29.366	1311.314	1253.223
808.174	29.669	1310.426	1254.295
809.188	29.841	1309.619	1254.541
810.203	29.726	1308.973	1252.987
811.218	29.538	1307.430	1250.081
812.232	29.511	1305.738	1248.134
813.247	29.241	1304.651	1245.113
814.261	29.455	1304.204	1245.989
815.276	29.738	1303.033	1246.638
816.291	29.473	1301.629	1243.353
817.305	29.199	1300.536	1240.308
818.320	29.346	1298.791	1239.485
819.334	29.297	1297.209	1237.496
820.349	29.321	1296.881	1237.199
821.364	29.022	1295.801	1234.002
822.378	29.024	1293.780	1231.946
823.393	29.177	1291.886	1231.024
824.407	28.944	1290.600	1228.084
825.422	28.917	1290.424	1227.590
826.437	29.039	1289.594	1227.474
827.451	28.975	1288.387	1225.745
828.466	29.525	1288.362	1229.262
829.480	30.312	1287.348	1233.403
830.495	29.970	1283.965	1227.735
831.509	29.237	1282.829	1221.621
832.524	28.836	1282.395	1218.389
833.539	28.752	1281.295	1216.640
834.553	28.913	1279.798	1216.147
835.568	28.621	1278.866	1213.170
836.582	29.014	1277.162	1214.016
837.597	29.098	1276.272	1213.583
838.612	29.053	1275.454	1212.363
839.626	29.103	1274.792	1211.920
840.641	29.368	1274.200	1212.960
841.655	29.586	1272.895	1213.012
842.670	29.304	1271.715	1209.882
843.685	29.165	1270.855	1208.004
844.699	29.313	1269.821	1207.856
845.714	29.287	1268.573	1206.349
846.728	29.288	1267.470	1205.162
847.743	29.127	1266.206	1202.759
848.758	28.889	1264.772	1199.691
849.772	28.893	1263.583	1198.449
850.787	28.885	1262.220	1196.962
851.801	28.753	1261.095	1194.886
852.816	28.608	1260.429	1193.167
853.831	28.671	1258.103	1191.233
854.845	28.701	1256.925	1190.167
855.860	28.668	1255.021	1188.009
856.874	28.897	1254.465	1188.827
857.889	29.133	1254.010	1189.788
858.904	29.733	1253.602	1193.151
859.918	30.250	1253.349	1196.121
860.933	30.641	1252.414	1197.620
861.947	30.016	1250.854	1191.940
862.962	29.290	1248.886	1185.235
863.977	29.088	1247.222	1182.208
864.991	28.860	1245.739	1179.191
866.006	28.591	1245.579	1177.163
867.020	28.793	1244.022	1176.849
868.035	28.673	1242.696	1174.682
869.049	28.573	1241.710	1172.971
870.064	28.866	1240.734	1173.785
871.079	28.866	1240.427	1173.357
872.093	28.841	1239.894	1172.553
873.108	28.898	1238.896	1171.835
874.122	28.959	1238.008	1171.246
875.137	29.122	1237.141	1171.323
876.152	29.151	1236.013	1170.299
877.166	29.129	1234.237	1168.342
878.181	28.929	1233.303	1166.040
879.195	29.039	1232.059	1165.427
880.210	28.831	1231.061	1163.022
881.225	28.786	1229.899	1161.495
882.239	28.759	1229.034	1160.366
883.254	28.752	1228.047	1159.253
884.268	28.713	1227.250	1158.116
885.283	28.795	1225.884	1157.210
886.298	28.839	1224.133	1155.695
887.312	28.646	1223.560	1153.796
888.327	28.690	1222.790	1153.207
889.341	28.637	1221.534	1151.552
890.356	28.523	1221.549	1150.711
891.371	28.453	1221.275	1149.871
892.385	28.521	1219.822	1148.793
893.400	28.651	1219.003	1148.703
894.414	28.790	1218.062	1148.555
895.429	29.095	1217.078	1149.402
896.444	30.403	1217.753	1158.110
897.458	31.404	1217.652	1164.145
898.473	30.802	1215.027	1157.737
899.487	29.807	1213.351	1149.782
900.502	29.071	1211.173	1142.990
901.517	28.799	1209.709	1139.776
902.531	28.643	1209.219	1138.208
903.546	28.576	1208.458	1136.937
904.560	28.611	1207.686	1136.290
905.575	28.715	1206.700	1135.875
906.589	28.642	1205.788	1134.427
907.604	28.658	1204.990	1133.641
