DTS Sentinel unit serial number:	SN409020Multiplexer serial number:	ORYXHardware model number:	OX4-SRSoftware version number:	ORYX F/W v3.00 Oryx Data Collector v3.7.2.0data status	okinstallation	HaddamTimeLapsedifferential loss correction	single-endedforward channel	channel 3reverse channel	N/Adate	2011/06/21time	21:21:16forward acquisition time	30.00reverse acquisition time	0.00gamma	498.7831k internal	0.1764k external	0.1764temperature offset calibration	1.0074default loss term (dB/km)	0.3790temperature slope calibration	1.3530multiplexer offset coefficient	1.0000multiplexer slope coefficient	1.0000fibre end	0.00T internal ref (°C)	26.69T ext. ref 1 (°C)	19.89T ext. ref 2 (°C)	0.03length (m)	temperature (°C)	Stokes	anti-Stokes-747.200	-126.548	-0.219	0.042
-746.185	800.000	-0.007	-0.034
-745.171	-38.427	-0.019	-0.013
-744.156	136.906	-0.166	0.287
-743.142	-112.658	-0.176	-0.046
-742.127	359.526	0.344	0.910
-741.112	-92.775	0.119	-0.044
-740.098	86.014	0.145	0.211
-739.083	501.825	0.085	0.261
-738.069	311.850	0.325	0.808
-737.054	65.667	0.220	-0.295
-736.039	126.871	0.282	0.471
-735.025	-139.397	-0.068	0.010
-734.010	43.463	0.175	0.211
-732.996	800.000	0.045	0.212
-731.981	-200.000	-0.381	0.001
-730.966	154.338	-0.037	-0.068
-729.952	-90.915	0.295	0.111
-728.937	-200.000	-0.006	0.077
-727.923	-99.492	0.082	-0.027
-726.908	126.605	0.242	-0.405
-725.894	283.433	0.052	0.123
-724.879	-178.516	0.452	-0.014
-723.864	-103.398	-0.223	0.069
-722.850	117.954	-0.173	0.281
-721.835	-110.698	0.413	-0.112
-720.821	-187.450	0.027	0.000
-719.806	-100.851	-0.380	0.122
-718.791	590.853	0.040	0.130
-717.777	-117.106	0.561	-0.134
-716.762	800.000	0.081	-0.439
-715.748	-15.119	0.275	0.232
-714.733	-35.046	-0.149	-0.106
-713.718	-161.207	-0.198	0.013
-712.704	-82.536	-0.244	-0.104
-711.689	800.000	0.069	-0.310
-710.675	71.225	-0.253	-0.346
-709.660	-118.473	-0.288	0.067
-708.645	-116.803	-0.380	-0.091
-707.631	-85.152	0.572	-0.235
-706.616	64.201	0.266	-0.352
-705.602	3.926	-0.379	-0.365
-704.587	800.000	0.043	0.247
-703.572	-200.000	0.013	0.266
-702.558	46.215	0.312	0.381
-701.543	-34.253	-0.506	0.365
-700.529	800.000	-0.064	-0.354
-699.514	-7.211	-0.230	-0.205
-698.499	64.741	0.222	0.295
-697.485	84.824	-0.144	-0.208
-696.470	-4.389	0.128	0.116
-695.456	186.148	-0.111	-0.219
-694.441	-60.350	-0.371	0.207
-693.426	-112.197	0.631	-0.166
-692.412	71.248	-0.259	-0.354
-691.397	-200.000	0.003	0.086
-690.383	-200.000	0.032	-0.335
-689.368	-122.979	0.648	0.136
-688.354	800.000	-0.087	-0.337
-687.339	18.928	-0.286	-0.301
-686.324	-28.269	0.379	-0.288
-685.310	-100.514	0.364	-0.118
-684.295	-59.405	-0.317	-0.179
-683.281	-55.106	-0.330	0.195
-682.266	77.467	-0.248	-0.347
-681.251	-99.708	0.655	-0.215
-680.237	-138.314	0.226	-0.032
-679.222	760.589	0.173	0.622
-678.208	-200.000	0.005	0.375
-677.193	800.000	0.098	0.398
-676.178	-174.787	0.252	0.009
-675.164	-200.000	-0.006	0.098
-674.149	-81.728	-0.520	0.223
-673.135	73.214	-0.181	0.250
-672.120	181.855	-0.015	-0.029
-671.105	-128.517	-0.591	0.109
-670.091	800.000	0.066	0.296
-669.076	-46.653	-0.067	-0.043
-668.062	476.329	-0.127	0.380
-667.047	3.068	-0.268	0.256
-666.032	114.894	0.051	0.083
-665.018	-51.088	0.140	0.086
-664.003	-38.883	0.506	-0.350
-662.989	261.274	0.137	-0.313
-661.974	-102.186	0.320	-0.100
-660.959	-200.000	0.063	-0.410
-659.945	81.085	-0.225	0.320
-658.930	800.000	-0.068	-0.332
-657.916	-106.244	0.341	-0.100
-656.901	800.000	-0.023	0.100
-655.886	-40.315	-0.066	0.045
-654.872	-88.493	0.585	0.228
-653.857	-121.119	-0.206	0.045
-652.843	-88.589	0.236	0.092
-651.828	323.758	-0.102	0.257
-650.814	-73.261	0.114	-0.055
-649.799	-200.000	-0.068	0.464
-648.784	508.179	0.067	0.205
-647.770	-68.711	-0.220	-0.112
-646.755	15.045	-0.271	-0.279
-645.741	-200.000	0.028	-0.262
-644.726	-44.392	0.408	-0.268
-643.711	800.000	-0.030	0.110
-642.697	-200.000	-0.022	0.277
-641.682	449.052	-0.142	-0.413
-640.668	800.000	0.054	0.202
-639.653	274.962	-0.070	0.164
-638.638	-46.002	-0.196	-0.126
-637.624	-49.280	0.260	0.163
-636.609	-200.000	-0.040	0.252
-635.595	-165.266	0.187	0.011
-634.580	800.000	-0.091	-0.504
-633.565	800.000	-0.036	-0.152
-632.551	-12.115	0.360	-0.309
-631.536	-51.174	0.483	-0.296
-630.522	-200.000	0.013	-0.116
-629.507	49.526	-0.368	0.455
-628.492	-82.342	0.304	0.129
-627.478	800.000	0.042	0.155
-626.463	327.558	0.104	0.264
-625.449	-101.879	0.429	0.135
-624.434	-79.858	0.309	0.136
-623.419	-157.517	0.261	0.020
-622.405	-126.960	-0.218	-0.042
-621.390	-95.025	0.072	0.025
-620.376	-91.141	0.251	0.094
-619.361	-84.982	0.334	-0.137
-618.346	153.611	0.176	-0.317
-617.332	-200.000	0.020	-0.307
-616.317	-200.000	-0.018	-0.148
-615.303	331.525	-0.066	0.168
-614.288	279.315	0.301	0.707
-613.273	3.050	0.092	0.088
-612.259	168.171	0.306	0.573
-611.244	-39.490	-0.161	0.111
-610.230	-112.426	-0.096	0.025
-609.215	-48.121	0.395	-0.249
-608.201	-58.876	-0.243	-0.137
-607.186	-53.014	0.146	0.088
-606.171	-200.000	0.050	-0.365
-605.157	522.317	0.113	0.348
-604.142	-28.248	-0.358	0.271
-603.128	-200.000	-0.013	-0.155
-602.113	-72.812	0.586	0.282
-601.098	-51.452	0.247	0.151
-600.084	-70.660	-0.276	0.136
-599.069	-15.142	0.107	-0.090
-598.055	800.000	-0.070	-0.390
-597.040	-128.719	0.089	0.016
-596.025	-76.336	-0.256	-0.118
-595.011	151.222	-0.227	-0.406
-593.996	-101.487	-0.250	0.079
-592.982	271.285	-0.210	0.486
-591.967	-109.960	0.389	-0.106
-590.952	-200.000	-0.001	-0.208
-589.938	-85.984	-0.283	-0.114
-588.923	-200.000	0.048	-0.485
-587.909	-72.030	0.289	-0.140
-586.894	-101.956	-0.596	0.187
-585.879	-200.000	-0.016	0.312
-584.865	-39.776	0.241	0.164
-583.850	3.625	0.210	-0.200
-582.836	21.124	0.374	-0.397
-581.821	-38.060	0.466	-0.323
-580.806	-112.109	-0.138	0.036
-579.792	-101.319	0.099	0.032
-578.777	-101.327	0.234	0.074
-577.763	-200.000	0.024	-0.466
-576.748	140.913	0.219	-0.381
-575.733	157.555	0.034	0.062
-574.719	-35.117	0.166	0.118
-573.704	-150.056	0.482	-0.049
-572.690	-25.913	0.375	-0.288
-571.675	391.486	0.080	-0.219
-570.661	552.232	0.046	-0.144
-569.646	115.942	-0.315	0.505
-568.631	-17.523	0.228	-0.188
-567.617	-110.503	0.672	-0.181
-566.602	-162.702	0.406	-0.026
-565.588	-30.365	-0.366	0.271
-564.573	-170.073	0.481	0.022
-563.558	-92.076	-0.567	0.209
-562.544	-53.369	0.649	0.388
-561.529	-137.672	0.194	-0.028
-560.515	207.278	0.187	-0.382
-559.500	110.305	0.246	0.388
-558.485	91.144	-0.245	-0.360
-557.471	-200.000	0.004	0.065
-556.456	800.000	0.029	0.131
-555.442	-62.217	0.261	-0.142
-554.427	-123.853	0.166	-0.034
-553.412	14.730	-0.143	0.146
-552.398	-36.268	0.573	-0.404
-551.383	-71.046	-0.235	0.115
-550.369	83.792	-0.202	-0.289
-549.354	110.631	-0.103	-0.163
-548.339	-142.787	-0.026	-0.003
-547.325	-173.948	-0.142	-0.005
-546.310	800.000	0.063	-0.279
-545.296	800.000	-0.031	0.156
-544.281	-70.143	-0.221	0.109
-543.266	-20.144	0.196	0.158
-542.252	800.000	-0.058	0.324
-541.237	51.454	0.223	0.277
-540.223	-56.109	0.414	0.241
-539.208	800.000	-0.123	-0.456
-538.193	-126.980	0.656	-0.125
-537.179	-66.361	0.138	0.071
-536.164	-63.686	-0.217	-0.116
-535.150	-200.000	-0.017	-0.186
-534.135	-114.867	0.489	-0.121
-533.121	-79.472	-0.409	-0.180
-532.106	103.635	0.054	-0.084
-531.091	-83.886	0.799	0.331
-530.077	113.139	0.051	-0.081
-529.062	350.804	-0.170	0.441
-528.048	1.944	0.275	0.259
-527.033	36.757	0.185	-0.214
-526.018	98.700	0.091	-0.138
-525.004	-140.412	0.169	0.023
-523.989	706.696	0.071	-0.246
-522.975	550.729	-0.074	-0.232
-521.960	-200.000	0.009	-0.112
-520.945	-200.000	0.012	0.093
-519.931	-133.503	-0.339	-0.055
-518.916	38.868	-0.193	0.225
-517.902	2.854	0.198	0.188
-516.887	109.475	-0.267	-0.418
-515.872	-138.324	-0.325	0.046
-514.858	30.845	-0.040	-0.045
-513.843	272.824	0.095	-0.221
-512.829	-59.134	0.295	0.165
-511.814	-200.000	-0.045	0.387
-510.799	38.885	-0.188	-0.219
-509.785	-153.883	-0.857	0.076
-508.770	-200.000	-0.021	0.396
-507.756	-20.581	0.164	0.131
-506.741	-200.000	0.020	0.143
-505.726	441.112	-0.017	0.049
-504.712	-200.000	0.009	-0.094
-503.697	-200.000	-0.002	0.228
-502.683	-160.681	-0.319	0.022
-501.668	-200.000	-0.009	-0.370
-500.653	514.698	0.119	0.365
-499.639	165.322	0.078	0.145
-498.624	418.950	-0.113	-0.318
-497.610	800.000	-0.077	-0.302
-496.595	671.727	0.230	-0.782
-495.581	-165.327	-0.437	-0.025
-494.566	92.179	0.218	-0.321
-493.551	-135.198	-0.409	-0.063
-492.537	-13.758	0.057	0.048
-491.522	90.105	0.398	0.582
-490.508	-130.994	0.240	0.041
-489.493	-81.284	0.151	0.065
-488.478	-63.251	0.225	0.121
-487.464	-56.739	-0.370	0.213
-486.449	52.625	-0.135	-0.169
-485.435	58.606	-0.133	0.170
-484.420	-77.738	0.161	-0.073
-483.405	-48.752	-0.176	-0.110
-482.391	-136.665	-0.383	0.057
-481.376	-37.503	-0.342	-0.238
-480.362	-168.390	-0.052	-0.003
-479.347	-200.000	0.033	-0.253
-478.332	-43.286	0.072	0.048
-477.318	-98.032	0.397	0.133
-476.303	-52.705	0.447	-0.269
-475.289	-200.000	0.016	-0.362
-474.274	-200.000	-0.033	-0.288
-473.259	3.730	-0.393	0.374
-472.245	-11.162	0.246	0.211
-471.230	-99.322	-0.151	0.049
-470.216	-200.000	0.055	-0.475
-469.201	28.949	-0.198	-0.219
-468.186	-110.958	-0.453	-0.121
-467.172	-14.721	-0.230	0.192
-466.157	-33.671	-0.168	-0.120
-465.143	-69.205	0.464	-0.232
-464.128	-35.861	-0.166	0.117
-463.113	-25.141	0.135	0.104
-462.099	-60.832	0.139	-0.077
-461.084	-44.258	-0.211	0.137
-460.070	-93.919	0.218	-0.078
-459.055	33.124	-0.231	-0.261
-458.040	89.318	0.225	-0.327
-457.026	-40.958	-0.525	0.353
-456.011	526.509	0.129	-0.398
-454.997	59.907	0.243	0.313
-453.982	800.000	0.095	0.398
-452.968	-104.892	-0.192	-0.057
-451.953	-63.650	-0.107	-0.057
-450.938	-103.667	0.222	0.067
-449.924	-200.000	0.047	-0.290
-448.909	-200.000	-0.010	0.354
-447.895	800.000	0.076	0.405
-446.880	52.618	0.335	0.417
-445.865	-90.016	0.173	0.065
-444.851	-113.965	0.174	-0.044
-443.836	-20.067	-0.225	0.180
-442.822	121.936	0.149	0.243
-441.807	-114.996	0.081	-0.020
-440.792	-31.436	-0.310	-0.227
-439.778	153.208	0.107	0.191
-438.763	18.992	-0.246	0.257
-437.749	800.000	-0.080	-0.363
-436.734	-73.700	0.484	0.228
-435.719	571.407	-0.097	-0.309
-434.705	-200.000	-0.057	0.516
-433.690	-125.475	-0.130	-0.025
-432.676	-200.000	-0.003	-0.380
-431.661	129.123	0.118	0.197
-430.646	-124.134	0.364	-0.074
-429.632	-52.534	0.392	-0.235
-428.617	-85.205	-0.258	-0.105
-427.603	-200.000	0.019	0.401
-426.588	284.157	0.083	0.195
-425.573	-173.684	-0.433	0.017
-424.559	-19.186	0.212	-0.171
-423.544	-136.590	-0.574	0.086
-422.530	-31.239	-0.320	-0.234
-421.515	-90.864	0.100	-0.037
-420.500	800.000	-0.083	-0.433
-419.486	-47.010	0.351	0.223
-418.471	-161.611	-0.390	0.026
-417.457	32.413	-0.241	0.271
-416.442	16.488	0.249	0.256
-415.428	-126.433	0.598	-0.115
-414.413	-106.474	-0.455	0.131
-413.398	800.000	-0.128	0.509
-412.384	-162.830	0.410	0.026
-411.369	-130.329	-0.848	0.148
-410.355	-8.243	0.346	-0.303
-409.340	-137.812	0.580	-0.084
-408.325	221.554	0.163	-0.341
-407.311	-135.109	-0.197	-0.031
-406.296	-160.903	0.984	0.067
-405.282	-15.920	0.621	-0.513
-404.267	-146.619	-0.441	-0.049
-403.252	211.867	-0.231	0.476
-402.238	-200.000	-0.063	0.443
-401.223	358.156	-0.177	0.463
-400.209	285.703	-0.258	0.607
-399.194	800.000	0.067	0.279
-398.179	209.011	-0.063	0.128
-397.165	800.000	0.021	-0.091
-396.150	71.190	-0.190	-0.256
-395.136	-34.225	-0.439	-0.313
-394.121	-200.000	0.036	-0.276
-393.106	12.911	-0.307	-0.309
-392.092	-54.772	0.019	-0.011
-391.077	800.000	0.041	0.186
-390.063	800.000	-0.120	0.467
-389.048	-200.000	0.014	-0.176
-388.033	146.172	-0.080	0.141
-387.019	-22.574	0.249	-0.196
-386.004	330.740	-0.178	-0.447
-384.990	13.364	-0.485	-0.489
-383.975	-164.217	0.478	-0.028
-382.960	16.235	-0.266	0.273
-381.946	-44.364	-0.207	0.134
-380.931	-113.965	-0.312	-0.078
-379.917	213.452	0.020	-0.041
-378.902	-19.283	0.169	-0.136
-377.888	273.090	-0.024	-0.056
-376.873	800.000	0.009	0.049
-375.858	-170.200	0.164	-0.007
-374.844	-4.834	-0.403	0.360
-373.829	213.858	-0.083	0.171
-372.815	37.019	0.077	-0.088
-371.800	-129.979	-0.459	0.081
-370.785	-38.237	-0.063	-0.043
-369.771	-133.271	0.248	-0.040
-368.756	-183.634	-0.487	-0.011
-367.742	666.601	0.052	-0.175
-366.727	-119.924	-0.154	-0.034
-365.712	-106.845	0.126	-0.036
-364.698	-93.594	-0.314	-0.112
-363.683	-114.012	-0.158	-0.039
-362.669	-200.000	0.025	0.166
-361.654	79.555	0.079	-0.110
-360.639	351.359	-0.046	-0.119
-359.625	-157.100	0.239	-0.019
-358.610	-82.810	-0.393	-0.164
-357.596	-76.520	0.320	0.145
-356.581	41.625	0.100	0.117
-355.566	-83.323	-0.257	-0.107
-354.552	-62.369	-0.238	-0.128
-353.537	-144.271	0.246	0.029
-352.523	-53.919	-0.509	0.300
-351.508	49.719	0.176	-0.215
-350.493	-45.589	0.544	-0.349
-349.479	0.193	0.261	-0.242
-348.464	-156.018	0.774	0.063
-347.450	86.667	-0.227	0.326
-346.435	119.970	0.342	0.552
-345.420	55.861	-0.261	0.328
-344.406	-52.759	0.432	-0.258
-343.391	-77.721	0.114	-0.051
-342.377	-98.791	0.277	0.091
-341.362	11.166	0.094	-0.094
-340.348	129.654	0.164	0.273
-339.333	-157.280	0.482	0.037
-338.318	214.195	-0.122	0.251
-337.304	-34.515	0.343	0.243
-336.289	216.172	0.115	-0.238
-335.275	-200.000	0.031	-0.211
-334.260	330.660	0.061	-0.152
-333.245	-89.584	-0.319	-0.121
-332.231	7.642	-0.152	-0.147
-331.216	-12.891	-0.166	0.140
-330.202	49.323	0.094	-0.115
-329.187	-76.553	0.325	-0.147
-328.172	694.904	0.083	0.284
-327.158	-4.951	0.156	-0.139
-326.143	116.079	0.099	-0.158
-325.129	800.000	-0.059	0.278
-324.114	-62.050	0.421	-0.227
-323.099	-131.435	0.075	-0.013
-322.085	-27.616	-0.246	0.185
-321.070	153.385	0.116	-0.206
-320.056	-56.304	-0.242	-0.139
-319.041	-33.032	-0.468	-0.336
-318.026	77.948	-0.229	-0.317
-317.012	-119.530	0.293	-0.065
-315.997	-112.797	-0.444	0.113
-314.983	413.668	0.079	0.219
-313.968	105.204	0.243	-0.372
-312.953	87.576	-0.299	-0.430
-311.939	5.245	0.305	-0.291
-310.924	-39.542	0.156	-0.106
-309.910	-104.928	-0.404	-0.119
-308.895	134.162	0.114	-0.192
-307.880	-25.357	0.222	0.170
-306.866	-115.923	-0.258	-0.062
-305.851	15.552	-0.128	-0.130
-304.837	-35.263	-0.361	0.254
-303.822	-154.306	0.599	0.052
-302.807	-99.027	-0.457	-0.149
-301.793	58.434	-0.228	0.290
-300.778	72.012	-0.152	-0.205
-299.764	-85.751	0.187	-0.075
-298.749	-200.000	-0.036	-0.350
-297.735	517.397	0.052	0.160
-296.720	-149.306	-0.250	0.026
-295.705	25.659	0.320	-0.345
-294.691	312.470	-0.050	0.123
-293.676	24.631	-0.036	0.039
-292.662	598.733	-0.139	-0.449
-291.647	-85.686	-0.239	-0.096
-290.632	-200.000	0.060	0.352
-289.618	-200.000	0.046	-0.376
-288.603	182.999	0.137	0.262
-287.589	12.186	0.514	0.512
-286.574	418.208	-0.048	-0.135
-285.559	-200.000	0.028	-0.319
-284.545	-148.929	-0.430	0.044
-283.530	-72.956	-0.455	-0.216
-282.516	100.707	-0.428	-0.645
-281.501	211.970	-0.019	0.038
-280.486	544.927	-0.140	0.434
-279.472	-59.688	0.374	-0.207
-278.457	141.930	-0.246	-0.424
-277.443	203.076	-0.323	-0.649
-276.428	-27.997	0.298	-0.223
-275.413	-85.742	0.274	0.109
-274.399	-121.620	-0.540	-0.115
-273.384	-8.140	0.178	-0.155
-272.370	-12.709	0.164	-0.138
-271.355	-26.452	-0.103	0.078
-270.340	-149.496	0.099	-0.010
-269.326	-200.000	0.008	0.311
-268.311	300.220	0.184	-0.441
-267.297	125.174	-0.214	-0.350
-266.282	800.000	0.076	-0.320
-265.267	52.098	-0.168	-0.207
-264.253	-46.644	0.517	-0.327
-263.238	162.971	0.257	0.467
-262.224	-76.738	-0.585	0.264
-261.209	81.563	-0.284	0.398
-260.195	392.626	0.217	0.586
-259.180	249.863	-0.112	0.247
-258.165	-92.107	0.009	-0.003
-257.151	68.146	-0.468	0.620
-256.136	-83.329	-0.389	0.161
-255.122	-14.300	-0.332	-0.277
-254.107	-81.763	-0.469	0.198
-253.092	-77.497	0.157	-0.070
-252.078	-8.439	-0.194	-0.168
-251.063	618.487	-0.113	-0.370
-250.049	-21.653	-0.303	0.239
-249.034	-142.357	-0.249	-0.031
-248.019	800.000	-0.085	-0.434
-247.005	-8.978	-0.166	0.144
-245.990	-150.261	0.542	0.054
-244.976	-84.218	0.228	0.093
-243.961	113.840	0.113	-0.179
-242.946	800.000	-0.045	0.231
-241.932	-157.645	0.112	0.009
-240.917	174.897	0.310	-0.582
-239.903	-143.458	-0.515	-0.063
-238.888	-200.000	0.027	-0.215
-237.873	5.761	0.317	0.303
-236.859	800.000	-0.083	0.316
-235.844	-200.000	0.004	0.195
-234.830	-151.676	0.249	0.023
-233.815	-71.769	0.146	0.070
-232.800	-200.000	0.007	-0.095
-231.786	-125.183	-0.770	-0.151
-230.771	-78.674	-0.580	-0.255
-229.757	-103.170	0.120	0.036
-228.742	-160.874	0.104	-0.007
-227.727	-49.041	-0.233	0.144
-226.713	-20.409	-0.379	-0.301
-225.698	-20.997	0.330	-0.260
-224.684	-161.423	0.034	-0.002
-223.669	-21.913	-0.680	0.533
-222.655	58.178	0.311	0.394
-221.640	-58.531	-0.441	0.246
-220.625	-69.387	-0.049	0.024
-219.611	442.983	-0.036	0.103
-218.596	-119.226	-0.243	-0.054
-217.582	-125.794	-0.298	0.058
-216.567	-200.000	0.021	0.290
-215.552	-154.631	-0.140	-0.012
-214.538	-11.148	0.242	0.205
-213.523	800.000	0.087	-0.459
-212.509	-160.466	-0.662	0.045
-211.494	88.028	0.246	0.353
-210.479	-144.963	-0.247	-0.029
-209.465	78.502	-0.381	0.526
-208.450	-49.416	-0.353	-0.217
-207.436	473.898	0.120	0.352
-206.421	-183.419	-0.588	-0.013
-205.406	-16.984	0.497	0.405
-204.392	800.000	-0.025	0.094
-203.377	-200.000	0.012	-0.410
-202.363	123.266	0.263	0.426
-201.348	104.097	-0.121	0.184
-200.333	800.000	0.096	0.406
-199.319	-200.000	0.016	0.233
-198.304	168.134	0.300	0.553
-197.290	-102.736	-0.473	0.144
-196.275	-99.778	-0.264	0.085
-195.260	60.265	-0.142	0.181
-194.246	-54.984	0.459	0.266
-193.231	45.425	0.176	0.209
-192.217	-66.958	0.219	0.111
-191.202	-27.513	0.106	-0.079
-190.187	-113.718	-0.178	-0.044
-189.173	309.424	0.228	0.554
-188.158	-166.160	-0.212	0.011
-187.144	560.161	0.071	-0.224
-186.129	-44.107	0.146	0.094
-185.114	49.293	-0.161	-0.196
-184.100	6.580	-0.092	0.088
-183.085	126.701	-0.178	0.292
-182.071	-27.900	0.246	-0.183
-181.056	310.515	0.230	0.559
-180.042	-124.277	0.159	0.032
-179.027	496.447	0.035	-0.104
-178.012	-200.000	0.059	0.419
-176.998	-130.243	-0.277	-0.048
-175.983	-81.189	-0.504	0.214
-174.969	-76.545	0.463	-0.209
-173.954	-59.197	-0.394	0.218
-172.939	556.456	-0.036	0.111
-171.925	-200.000	0.043	-0.474
-170.910	-87.144	-0.360	0.141
-169.896	133.093	0.205	0.343
-168.881	20.899	-0.189	-0.197
-167.866	19.654	-0.365	0.379
-166.852	106.683	-0.296	-0.454
-165.837	380.441	0.144	0.383
-164.823	39.378	-0.308	0.356
-163.808	-131.462	0.428	-0.072
-162.793	-200.000	0.026	-0.153
-161.779	18.108	-0.599	-0.615
-160.764	-200.000	0.011	-0.495
-159.750	50.658	0.225	0.274
-158.735	-24.602	-0.190	0.146
-157.720	-47.812	-0.188	-0.117
-156.706	192.006	-0.173	-0.336
-155.691	-75.895	0.599	-0.272
-154.677	119.658	0.140	-0.224
-153.662	234.885	-0.232	-0.496
-152.647	91.861	0.259	0.376
-151.633	-179.113	-0.421	0.012
-150.618	357.639	-0.051	-0.131
-149.604	75.006	-0.137	0.186
-148.589	734.793	-0.031	0.109
-147.574	-63.788	0.296	0.156
-146.560	-25.646	-0.481	0.365
-145.545	179.195	-0.173	0.328
-144.531	179.166	0.060	0.112
-143.516	-32.940	-0.289	-0.206
-142.502	-23.413	0.180	0.139
-141.487	-67.498	0.390	0.197
-140.472	-122.555	-0.288	-0.060
-139.458	-80.841	0.289	0.123
-138.443	42.251	0.219	0.256
-137.429	93.278	0.119	0.174
-136.414	800.000	-0.082	0.432
-135.399	-149.144	-0.269	0.027
-134.385	23.093	-0.160	0.169
-133.370	102.065	-0.511	-0.770
-132.356	27.203	-0.224	-0.242
-131.341	-155.499	0.192	0.016
-130.326	13.622	0.123	0.123
-129.312	-114.250	-0.294	0.072
-128.297	-68.041	0.355	-0.178
-127.283	-200.000	0.116	-0.728
-126.268	-96.074	0.096	-0.033
-125.253	583.201	-0.074	-0.236
-124.239	-74.067	-0.332	-0.154
-123.224	650.158	-0.064	0.212
-122.210	800.000	0.061	0.244
-121.195	-93.292	0.416	-0.148
-120.180	177.625	0.207	-0.389
-119.166	800.000	-0.075	-0.351
-118.151	-101.129	0.224	0.070
-117.137	394.723	0.100	-0.269
-116.122	-113.941	0.270	0.067
-115.107	261.352	-0.111	0.248
-114.093	-125.296	0.261	-0.051
-113.078	123.348	0.105	-0.169
-112.064	-99.618	-0.294	0.094
-111.049	17.765	-0.291	0.298
-110.034	800.000	-0.049	-0.268
-109.020	-140.045	-0.202	-0.027
-108.005	36.362	-0.092	0.104
-106.991	-22.371	-0.193	-0.150
-105.976	-86.332	0.340	-0.134
-104.962	-112.192	0.103	-0.026
-103.947	-50.000	0.231	0.141
-102.932	247.364	0.059	0.129
-101.918	-200.000	-0.018	-0.218
-100.903	-62.723	0.237	0.126
-99.889	9.199	-0.079	0.077
-98.874	-54.001	0.146	-0.085
-97.859	-82.624	0.400	-0.166
-96.845	68.891	-0.123	-0.163
-95.830	800.000	-0.076	-0.365
-94.816	-200.000	0.038	-0.549
-93.801	-53.048	-0.412	-0.243
-92.786	458.409	-0.205	0.590
-91.772	-200.000	-0.014	0.217
-90.757	-20.387	-0.192	-0.151
-89.743	-200.000	-0.021	-0.128
-88.728	5.169	0.126	0.119
-87.713	-34.209	-0.127	-0.089
-86.699	424.401	-0.138	0.383
-85.684	-26.036	0.146	0.110
-84.670	-104.793	0.442	-0.130
-83.655	-94.575	-0.041	-0.014
-82.640	-139.535	-0.402	0.055
-81.626	-36.606	0.417	0.287
-80.611	-39.178	-0.443	0.298
-79.597	-6.664	0.085	0.075
-78.582	47.535	0.074	-0.089
-77.567	-200.000	-0.007	-0.177
-76.553	-72.633	0.095	-0.045
-75.538	31.712	-0.120	0.133
-74.524	-200.000	0.002	-0.204
-73.509	-132.579	-0.053	0.009
-72.494	-13.346	-0.157	0.131
-71.480	60.800	0.215	0.275
-70.465	381.712	-0.147	-0.390
-69.451	15.656	-0.433	-0.437
-68.436	-63.987	-0.366	-0.191
-67.422	-10.899	0.387	-0.328
-66.407	-10.742	-0.112	-0.095
-65.392	67.045	0.317	-0.415
-64.378	-6.305	0.238	-0.208
-63.363	-98.535	0.372	0.121
-62.349	37.693	-0.403	-0.460
-61.334	47.576	-2.213	-2.651
-60.319	-2.218	0.946	0.852
-59.305	237.127	-3.408	-7.276
-58.290	49.907	3.850	4.665
-57.276	347.934	3.970	10.089
-56.261	-200.000	19.412	288.912
-55.246	372.949	1273.922	3339.616
-54.232	54.343	2849.035	3524.196
-53.217	54.177	2684.416	3317.875
-52.203	36.660	2414.711	2738.036
-51.188	32.179	2074.532	2297.296
-50.173	28.636	1956.436	2125.278
-49.159	27.494	1945.617	2100.208
-48.144	27.072	1941.365	2090.656
-47.130	26.915	1938.993	2086.210
-46.115	26.911	1937.525	2084.497
-45.100	26.892	1935.983	2082.538
-44.086	26.849	1934.840	2080.729
-43.071	26.905	1932.745	2079.038
-42.057	26.966	1930.681	2077.441
-41.042	26.823	1930.027	2075.011
-40.027	26.884	1928.805	2074.313
-39.013	26.915	1927.637	2073.327
-37.998	26.885	1926.136	2071.293
-36.984	26.909	1924.241	2069.445
-35.969	26.941	1922.797	2068.177
-34.954	26.880	1921.984	2066.517
-33.940	26.806	1921.823	2065.416
-32.925	26.822	1919.589	2063.121
-31.911	26.786	1917.911	2060.821
-30.896	26.759	1916.968	2059.423
-29.881	26.772	1916.172	2058.632
-28.867	26.656	1914.195	2055.100
-27.852	26.607	1913.628	2053.848
-26.838	26.697	1911.548	2052.566
-25.823	26.825	1909.589	2051.839
-24.809	26.554	1910.063	2049.179
-23.794	26.719	1907.230	2047.930
-22.779	26.596	1907.720	2046.978
-21.765	26.641	1905.773	2045.324
-20.750	26.648	1903.608	2043.000
-19.736	26.733	1902.472	2042.662
-18.721	26.674	1901.756	2041.142
-17.706	26.479	1901.458	2038.530
-16.692	26.699	1898.945	2038.242
-15.677	26.681	1897.549	2036.459
-14.663	26.563	1896.652	2034.083
-13.648	26.774	1894.583	2034.162
-12.633	26.539	1894.910	2031.788
-11.619	26.633	1892.420	2030.098
-10.604	26.596	1891.286	2028.377
-9.590	26.577	1890.774	2027.532
-8.575	26.571	1889.078	2025.564
-7.560	26.553	1887.720	2023.826
-6.546	26.460	1887.108	2022.049
-5.531	26.634	1885.907	2022.631
-4.517	26.578	1884.063	2019.954
-3.502	26.564	1883.339	2018.939
-2.487	26.600	1882.856	2018.744
-1.473	26.599	1878.977	2014.491
-0.458	26.053	1859.944	1987.967
0.556	21.635	2002.712	2075.536
1.571	19.588	2208.426	2261.543
2.586	20.342	2248.815	2312.721
3.600	20.499	2250.995	2316.786
4.615	20.559	2250.241	2316.548
5.629	20.376	2248.588	2312.107
6.644	20.321	2246.040	2308.483
7.659	20.363	2245.086	2307.791
8.673	20.568	2242.227	2307.305
9.688	20.185	2251.336	2311.278
10.702	18.913	2329.335	2373.418
11.717	17.127	2392.233	2411.744
12.731	8.052	2370.810	2260.931
13.746	1.085	2352.911	2144.743
14.761	0.202	2348.237	2127.691
15.775	0.137	2346.188	2124.659
16.790	0.057	2344.651	2121.868
17.804	0.129	2343.558	2121.651
18.819	0.031	2342.731	2119.264
19.834	-0.008	2341.067	2116.948
20.848	0.061	2338.714	2115.542
21.863	0.047	2336.953	2113.503
22.877	0.033	2335.678	2111.898
23.892	0.102	2333.660	2110.793
24.907	0.141	2329.690	2107.501
25.921	0.038	2329.203	2105.352
26.936	0.094	2326.208	2103.187
27.950	0.021	2324.561	2100.410
28.965	0.164	2322.170	2100.006
29.980	-0.016	2321.210	2096.363
30.994	0.133	2318.291	2095.568
32.009	3.930	2329.931	2159.162
33.023	13.580	2359.059	2322.419
34.038	17.889	2366.323	2390.067
35.053	17.906	2362.193	2385.852
36.067	17.569	2359.417	2378.026
37.082	17.445	2357.857	2374.433
38.096	17.753	2355.671	2376.258
39.111	18.058	2354.507	2379.068
40.126	18.226	2352.681	2379.299
41.140	18.477	2352.015	2381.837
42.155	18.458	2349.958	2379.203
43.169	18.416	2347.489	2375.839
44.184	18.153	2343.455	2367.807
45.199	17.965	2342.546	2363.998
46.213	18.218	2341.143	2365.819
47.228	18.281	2340.903	2366.158
48.242	18.164	2339.719	2363.053
49.257	18.309	2337.781	2362.826
50.271	18.507	2334.694	2362.169
51.286	18.147	2331.512	2353.681
52.301	17.910	2329.820	2348.421
53.315	18.834	2332.569	2363.692
54.330	22.260	2342.228	2420.678
55.344	24.355	2344.920	2452.158
56.359	24.808	2340.823	2453.828
57.374	24.684	2342.351	2453.430
58.388	24.861	2338.946	2452.001
59.403	24.399	2335.015	2441.229
60.417	24.151	2329.345	2431.613
61.432	24.107	2328.409	2429.745
62.447	24.330	2327.326	2431.374
63.461	24.537	2326.063	2432.602
64.476	24.681	2323.700	2431.813
65.490	24.383	2321.484	2425.128
66.505	23.466	2317.563	2408.223
67.520	21.072	2308.059	2365.476
68.534	18.543	2298.436	2320.969
69.549	17.861	2293.193	2306.131
70.563	17.732	2290.587	2301.491
71.578	17.765	2289.011	2300.073
72.593	17.685	2287.839	2297.541
73.607	17.868	2286.173	2298.061
74.622	18.023	2284.176	2297.884
75.636	17.812	2280.812	2291.376
76.651	17.627	2279.167	2286.949
77.666	17.661	2277.006	2284.960
78.680	17.605	2274.266	2281.190
79.695	17.417	2271.627	2275.743
80.709	17.186	2270.383	2271.121
81.724	17.166	2269.032	2269.223
82.739	17.224	2266.205	2266.907
83.753	17.356	2264.432	2266.636
84.768	17.261	2261.871	2262.521
85.782	17.304	2260.519	2261.482
86.797	17.204	2258.629	2257.975
87.812	17.190	2256.901	2255.799
88.826	17.347	2255.628	2256.342
89.841	17.462	2252.966	2254.943
90.855	17.417	2251.233	2252.345
91.870	17.419	2250.599	2251.469
92.884	17.653	2247.985	2251.683
93.899	17.638	2247.281	2250.517
94.914	18.367	2250.566	2263.216
95.928	21.322	2259.401	2311.174
96.943	22.360	2257.695	2322.939
97.957	19.469	2244.919	2271.313
98.972	17.626	2238.705	2240.430
99.987	17.305	2235.324	2232.538
101.001	17.297	2233.089	2229.925
102.016	17.332	2231.095	2228.128
103.030	17.367	2228.360	2225.603
104.045	17.343	2226.167	2222.822
105.060	17.243	2223.810	2218.895
106.074	17.302	2222.488	2218.083
107.089	17.379	2220.955	2217.292
108.103	17.327	2220.461	2215.860
109.118	17.481	2217.936	2215.086
110.133	17.686	2216.064	2215.633
111.147	17.429	2214.502	2210.452
112.162	17.403	2213.471	2208.814
113.176	17.525	2211.272	2207.941
114.191	17.690	2210.082	2208.639
115.206	17.850	2207.449	2207.823
116.220	17.544	2206.266	2202.397
117.235	17.618	2204.001	2200.835
118.249	17.764	2203.009	2201.482
119.264	17.785	2201.117	2199.598
120.279	17.804	2198.171	2196.637
121.293	17.754	2197.135	2194.691
122.308	17.745	2196.593	2193.767
123.322	17.499	2195.639	2189.371
124.337	18.138	2195.987	2197.721
125.352	21.243	2205.611	2247.302
126.366	22.091	2204.161	2256.522
127.381	19.068	2191.632	2204.555
128.395	17.736	2185.776	2181.278
129.410	17.606	2183.259	2176.842
130.424	17.544	2181.585	2174.115
131.439	17.493	2180.703	2172.318
132.454	17.723	2178.756	2173.067
133.468	17.870	2177.603	2173.546
134.483	17.944	2176.515	2173.136
135.497	17.984	2174.530	2171.416
136.512	17.924	2171.652	2167.516
137.527	17.779	2169.018	2162.777
138.541	17.351	2168.054	2156.105
139.556	17.444	2167.033	2156.009
140.570	17.453	2165.193	2154.038
141.585	17.388	2162.281	2150.054
142.600	17.308	2161.729	2148.240
143.614	17.207	2160.361	2145.339
144.629	17.146	2158.674	2142.632
145.643	17.162	2156.335	2140.261
146.658	17.158	2154.759	2138.387
147.673	17.095	2151.597	2134.190
148.687	17.234	2151.370	2135.469
149.702	17.382	2151.843	2137.557
150.716	17.422	2150.849	2136.821
151.731	17.522	2148.722	2135.709
152.746	17.602	2147.920	2135.664
153.760	18.538	2150.590	2149.868
154.775	21.564	2160.222	2197.485
155.789	22.684	2158.192	2209.261
156.804	19.583	2146.132	2157.771
157.819	17.704	2138.062	2125.869
158.833	17.326	2134.760	2117.601
159.848	17.343	2133.416	2116.229
160.862	17.432	2132.713	2116.389
161.877	17.619	2131.383	2117.154
162.892	17.717	2130.524	2117.270
163.906	17.742	2129.004	2115.811
164.921	17.742	2126.233	2112.802
165.935	17.537	2124.711	2108.486
166.950	17.698	2123.246	2108.789
167.964	17.720	2120.490	2106.073
168.979	17.309	2118.230	2098.477
169.994	17.374	2116.556	2097.371
171.008	17.259	2114.840	2093.998
172.023	17.237	2113.457	2092.100
173.037	17.388	2113.192	2093.463
174.052	17.613	2111.250	2094.059
175.067	17.428	2110.037	2090.322
176.081	17.286	2108.219	2086.527
177.096	17.484	2107.687	2088.194
178.110	17.728	2105.188	2088.470
179.125	17.837	2104.977	2089.348
180.140	17.733	2104.010	2086.853
181.154	17.727	2102.862	2085.393
182.169	17.882	2102.143	2086.341
183.183	18.838	2104.967	2100.642
184.198	22.346	2112.803	2151.405
185.213	22.885	2109.891	2154.790
186.227	19.554	2099.282	2102.987
187.242	18.103	2094.891	2080.601
188.256	17.925	2092.267	2075.572
189.271	17.755	2090.332	2071.333
190.286	17.514	2089.005	2066.820
191.300	17.537	2086.037	2063.918
192.315	17.609	2084.598	2063.126
193.329	17.766	2083.832	2064.027
194.344	18.034	2083.230	2066.444
195.359	18.198	2081.783	2066.754
196.373	17.881	2078.705	2059.610
197.388	17.592	2076.103	2053.285
198.402	17.557	2073.191	2049.738
199.417	17.452	2071.074	2046.122
200.432	17.490	2070.088	2045.368
201.446	17.493	2069.481	2044.557
202.461	17.429	2067.310	2041.395
203.475	17.380	2065.267	2038.549
204.490	17.257	2063.438	2035.015
205.504	17.276	2061.455	2033.047
206.519	17.440	2059.149	2032.498
207.534	17.467	2058.049	2031.489
208.548	17.443	2057.306	2030.222
209.563	17.737	2055.841	2032.063
210.577	17.822	2055.231	2032.232
211.592	17.871	2054.676	2032.028
212.607	19.262	2060.178	2053.905
213.621	22.776	2068.111	2103.744
214.636	22.390	2061.053	2091.707
215.650	18.929	2050.611	2039.652
216.665	17.881	2046.781	2023.126
217.680	17.848	2044.994	2020.717
218.694	17.616	2043.250	2016.002
219.709	17.406	2041.202	2011.243
220.723	17.563	2040.085	2011.761
221.738	17.734	2038.864	2012.350
222.753	17.825	2037.466	2011.808
223.767	17.877	2036.211	2010.943
224.782	17.876	2033.727	2008.242
225.796	17.687	2032.005	2004.065
226.811	17.598	2030.316	2001.108
227.826	17.769	2028.616	2001.207
228.840	17.679	2027.055	1998.373
229.855	17.613	2025.236	1995.559
230.869	17.605	2024.551	1994.552
231.884	17.596	2023.016	1992.697
232.899	17.680	2022.287	1992.720
233.913	17.690	2021.177	1991.510
234.928	17.765	2019.928	1990.916
235.942	17.649	2018.308	1987.728
236.957	17.850	2016.216	1987.776
237.972	17.775	2015.419	1985.878
238.986	17.636	2014.642	1983.250
240.001	17.537	2012.440	1979.687
241.015	17.883	2011.882	1982.938
242.030	18.848	2014.028	1996.094
243.045	21.834	2021.156	2037.857
244.059	22.358	2018.759	2041.303
245.074	19.389	2008.239	1995.936
246.088	18.265	2003.247	1977.682
247.103	18.289	2001.814	1976.318
248.117	18.231	2000.652	1974.263
249.132	18.071	1998.151	1969.700
250.147	17.997	1996.218	1966.701
251.161	17.983	1994.702	1964.813
252.176	18.122	1993.999	1965.496
253.190	18.314	1992.403	1965.895
254.205	18.450	1990.701	1965.555
255.220	18.416	1989.998	1964.227
256.234	18.140	1988.986	1959.812
257.249	17.922	1986.290	1954.414
258.263	17.611	1985.005	1949.349
259.278	17.709	1982.904	1948.168
260.293	17.645	1981.378	1945.705
261.307	17.503	1979.688	1942.188
262.322	17.481	1978.385	1940.419
263.336	17.510	1975.795	1937.981
264.351	17.311	1974.276	1933.991
265.366	17.383	1973.105	1933.431
266.380	17.387	1972.474	1932.625
267.395	17.331	1970.936	1930.246
268.409	17.522	1968.589	1929.893
269.424	17.396	1967.986	1927.633
270.439	17.628	1967.339	1929.418
271.453	18.878	1969.869	1945.896
272.468	22.145	1977.078	1990.033
273.482	22.328	1973.139	1987.915
274.497	19.200	1961.969	1941.041
275.512	17.733	1957.800	1920.094
276.526	17.579	1955.637	1916.009
277.541	17.578	1953.475	1913.647
278.555	17.538	1951.483	1911.019
279.570	17.385	1949.556	1907.173
280.585	17.514	1948.997	1907.854
281.599	17.604	1947.702	1907.371
282.614	17.933	1946.752	1909.910
283.628	18.227	1946.690	1912.923
284.643	18.212	1945.907	1911.758
285.657	18.423	1945.698	1913.693
286.672	18.545	1943.224	1912.403
287.687	18.586	1942.284	1911.701
288.701	18.793	1942.482	1913.987
289.716	18.786	1939.636	1910.877
290.730	18.644	1939.296	1908.724
291.745	18.839	1937.677	1909.082
292.760	18.890	1936.839	1908.603
293.774	18.963	1935.585	1907.951
294.789	18.661	1933.579	1902.377
295.803	18.278	1930.724	1895.083
296.818	18.089	1928.904	1890.962
297.833	18.168	1927.768	1890.504
298.847	18.203	1926.574	1889.492
299.862	18.083	1924.778	1886.179
300.876	18.916	1926.924	1897.294
301.891	22.213	1934.729	1941.407
302.906	22.671	1932.894	1944.410
303.920	19.263	1922.392	1895.988
304.935	18.187	1918.051	1879.607
305.949	18.100	1915.759	1876.180
306.964	18.062	1913.857	1873.669
307.979	18.218	1912.964	1874.291
308.993	18.571	1911.925	1876.926
310.008	18.803	1911.225	1878.571
311.022	18.847	1909.142	1876.783
312.037	18.616	1907.258	1872.166
313.052	18.691	1905.571	1871.113
314.066	18.785	1904.112	1870.488
315.081	18.723	1903.691	1869.166
316.095	18.720	1901.950	1867.200
317.110	18.460	1898.894	1861.142
318.125	17.984	1897.151	1854.017
319.139	17.931	1896.003	1852.099
320.154	18.014	1894.406	1851.222
321.168	17.912	1893.167	1848.678
322.183	17.895	1891.130	1846.278
323.197	17.680	1890.003	1842.624
324.212	17.630	1887.550	1839.469
325.227	17.395	1886.653	1835.823
326.241	17.408	1884.333	1833.488
327.256	17.554	1883.728	1834.264
328.270	17.505	1882.560	1832.372
329.285	17.536	1882.079	1832.022
330.300	18.653	1886.642	1848.346
331.314	22.195	1894.148	1893.900
332.329	22.376	1888.679	1890.167
333.343	19.045	1878.523	1843.951
334.358	17.606	1875.535	1825.316
335.373	17.542	1871.878	1820.853
336.387	17.338	1869.530	1816.156
337.402	17.428	1868.312	1815.721
338.416	17.485	1867.788	1815.603
339.431	17.646	1866.375	1815.740
340.446	17.798	1864.173	1815.001
341.460	17.872	1864.509	1815.902
342.475	18.010	1864.163	1816.825
343.489	18.238	1861.983	1816.919
344.504	18.199	1861.239	1815.559
345.519	18.291	1859.224	1814.356
346.533	18.507	1858.176	1815.421
347.548	18.597	1858.086	1816.069
348.562	18.823	1857.106	1817.296
349.577	19.496	1858.310	1825.417
350.592	20.148	1857.555	1831.381
351.606	19.624	1854.266	1822.364
352.621	19.009	1851.612	1813.019
353.635	18.715	1849.847	1807.968
354.650	18.539	1848.634	1804.698
355.665	18.233	1846.504	1799.173
356.679	18.030	1843.996	1794.369
357.694	18.127	1842.274	1793.508
358.708	18.047	1841.296	1791.492
359.723	19.309	1846.446	1809.621
360.738	22.793	1852.229	1851.874
361.752	22.253	1846.255	1840.002
362.767	19.102	1837.907	1798.429
363.781	18.179	1833.964	1784.677
364.796	17.976	1832.694	1781.104
365.810	17.857	1832.023	1778.985
366.825	18.062	1830.189	1779.134
367.840	18.502	1830.238	1783.581
368.854	19.070	1830.688	1789.743
369.869	19.330	1829.686	1791.260
370.883	18.775	1827.007	1782.638
371.898	18.774	1826.009	1781.436
372.913	18.749	1824.115	1779.121
373.927	18.760	1823.563	1778.477
374.942	18.739	1821.506	1776.040
375.956	18.401	1819.587	1770.448
376.971	18.429	1816.663	1767.684
377.986	18.105	1815.416	1762.897
379.000	17.948	1814.843	1760.505
380.015	17.948	1812.722	1758.241
381.029	17.759	1810.816	1754.229
382.044	17.733	1807.645	1750.674
383.059	17.644	1806.580	1748.517
384.073	17.514	1806.737	1747.114
385.088	17.688	1805.774	1747.771
386.102	17.809	1803.005	1746.124
387.117	17.662	1801.801	1743.241
388.132	17.682	1802.437	1743.856
389.146	18.747	1806.013	1758.071
390.161	22.375	1812.149	1801.227
391.175	22.222	1805.328	1792.656
392.190	18.947	1795.957	1749.693
393.205	17.994	1792.595	1736.483
394.219	17.901	1791.069	1733.844
395.234	17.739	1789.938	1730.888
396.248	17.898	1787.179	1729.634
397.263	17.846	1784.902	1726.695
398.278	17.764	1783.898	1724.687
399.292	17.781	1782.671	1723.463
400.307	17.791	1782.256	1722.961
401.321	17.783	1781.752	1722.187
402.336	17.967	1779.864	1722.011
403.350	17.932	1778.536	1720.173
404.365	18.033	1777.198	1719.692
405.380	18.143	1776.561	1719.981
406.394	18.462	1776.952	1723.385
407.409	18.808	1775.986	1725.734
408.423	19.164	1774.401	1727.580
409.438	19.052	1771.980	1723.888
410.453	18.652	1771.573	1719.253
411.467	18.675	1770.523	1718.258
412.482	18.256	1767.611	1711.017
413.496	17.781	1765.980	1704.468
414.511	17.788	1763.830	1702.257
415.526	17.816	1760.520	1699.141
416.540	17.672	1759.808	1696.812
417.555	17.748	1759.008	1696.592
418.569	17.923	1759.547	1698.656
419.584	18.012	1758.997	1698.818
420.599	18.048	1758.811	1698.788
421.613	17.900	1756.764	1695.139
422.628	17.908	1755.691	1693.972
423.642	17.903	1753.812	1691.914
424.657	17.835	1752.225	1689.499
425.672	17.906	1751.564	1689.365
426.686	18.113	1749.913	1689.629
427.701	17.921	1748.915	1686.558
428.715	18.188	1747.571	1687.703
429.730	18.325	1747.034	1688.339
430.745	18.258	1745.031	1685.541
431.759	18.252	1744.382	1684.659
432.774	18.567	1744.967	1688.135
433.788	19.099	1745.603	1693.816
434.803	19.270	1745.241	1694.947
435.818	19.311	1744.422	1694.358
436.832	19.232	1742.846	1691.843
437.847	18.450	1735.469	1676.791
438.861	10.430	1714.940	1578.520
439.876	1.991	1698.332	1480.952
440.890	0.215	1694.685	1460.296
441.905	0.164	1693.840	1458.899
442.920	0.205	1692.286	1457.782
443.934	0.168	1691.740	1456.784
444.949	0.112	1690.745	1455.205
445.963	0.072	1689.610	1453.669
446.978	0.135	1688.186	1452.877
447.993	0.148	1687.214	1451.990
449.007	0.090	1685.180	1449.507
450.022	0.178	1682.911	1448.229
451.036	0.157	1682.502	1447.505
452.051	0.907	1686.732	1458.234
453.066	9.001	1704.278	1552.188
454.080	17.505	1717.258	1646.838
455.095	19.861	1722.593	1674.705
456.109	20.995	1723.876	1686.780
457.124	21.351	1723.204	1689.380
458.139	21.390	1723.091	1689.445
459.153	21.825	1721.774	1692.174
460.168	21.679	1719.988	1688.801
461.182	21.459	1718.212	1684.729
462.197	21.530	1716.035	1683.077
463.212	21.260	1714.747	1679.007
464.226	21.376	1713.088	1678.295
465.241	21.681	1712.365	1680.328
466.255	21.670	1712.636	1680.286
467.270	21.845	1710.724	1679.896
468.285	21.463	1708.623	1673.960
469.299	21.234	1706.866	1669.833
470.314	21.483	1705.492	1670.679
471.328	21.463	1704.372	1669.197
472.343	21.529	1703.998	1669.260
473.358	21.771	1702.380	1669.793
474.372	21.724	1700.584	1667.383
475.387	21.437	1699.600	1663.474
476.401	21.238	1697.640	1659.460
477.416	21.247	1696.438	1658.165
478.430	21.503	1695.138	1659.144
479.445	21.362	1693.157	1655.661
480.460	21.153	1692.129	1652.467
481.474	21.314	1691.751	1653.429
482.489	21.713	1691.493	1656.776
483.503	21.764	1690.454	1656.044
484.518	21.903	1689.325	1656.055
485.533	21.845	1688.199	1654.203
486.547	21.854	1686.044	1651.983
487.562	22.151	1686.004	1654.559
488.576	22.172	1684.162	1652.751
489.591	22.066	1682.640	1650.058
490.606	21.759	1681.166	1645.522
491.620	21.878	1679.429	1644.740
492.635	22.355	1677.581	1647.229
493.649	22.589	1676.969	1648.624
494.664	21.871	1674.779	1639.537
495.679	21.142	1672.278	1630.050
496.693	21.363	1671.367	1631.039
497.708	21.786	1671.703	1635.134
498.722	22.176	1671.392	1638.287
499.737	22.324	1669.817	1637.941
500.752	21.820	1668.401	1631.640
501.766	21.651	1666.184	1627.698
502.781	21.820	1665.163	1628.083
503.795	22.016	1663.478	1628.067
504.810	22.006	1661.941	1626.270
505.825	22.239	1662.899	1629.187
506.839	22.183	1661.027	1626.638
507.854	22.280	1658.895	1625.260
508.868	22.178	1657.952	1623.187
509.883	22.092	1657.615	1621.864
510.898	22.369	1656.802	1623.448
511.912	22.240	1654.332	1619.642
512.927	22.046	1651.680	1615.057
513.941	21.959	1650.416	1612.819
514.956	21.781	1648.786	1609.398
515.971	21.899	1647.190	1608.735
516.985	22.049	1646.991	1609.723
518.000	22.095	1647.421	1610.380
519.014	22.384	1646.696	1612.136
520.029	22.599	1644.900	1612.164
521.043	22.658	1642.317	1609.976
522.058	22.401	1641.595	1606.726
523.073	22.463	1641.560	1607.059
524.087	22.959	1640.805	1610.682
525.102	22.771	1639.041	1607.036
526.116	22.265	1636.751	1599.970
527.131	22.112	1635.839	1597.486
528.146	22.602	1635.870	1601.808
529.160	22.747	1635.046	1602.130
530.175	22.657	1634.777	1600.849
531.189	22.781	1633.433	1600.471
532.204	22.939	1631.321	1599.656
533.219	22.472	1628.763	1592.712
534.233	22.049	1628.213	1588.137
535.248	22.353	1627.884	1590.385
536.262	23.057	1627.942	1596.649
537.277	23.075	1625.892	1594.608
538.292	22.579	1623.652	1587.727
539.306	22.655	1621.628	1586.250
540.321	22.536	1621.127	1584.489
541.335	22.349	1619.733	1581.250
542.350	22.630	1618.710	1582.599
543.365	22.925	1617.483	1583.865
544.379	23.012	1616.814	1583.804
545.394	23.056	1615.651	1582.876
546.408	22.597	1612.351	1575.326
547.423	22.102	1610.101	1568.502
548.438	21.927	1609.681	1566.330
549.452	22.460	1608.927	1570.187
550.467	22.561	1608.215	1570.210
551.481	22.650	1607.543	1570.162
552.496	22.861	1607.238	1571.568
553.511	23.326	1607.019	1575.322
554.525	23.153	1605.776	1572.371
555.540	23.191	1605.490	1572.239
556.554	23.272	1604.081	1571.396
557.569	23.230	1601.685	1568.490
558.583	23.031	1599.723	1564.608
559.598	22.998	1598.898	1563.324
560.613	22.957	1597.867	1561.762
561.627	22.979	1596.705	1560.635
562.642	23.225	1595.697	1561.641
563.656	23.514	1595.112	1563.444
564.671	23.618	1594.383	1563.463
565.686	23.416	1592.193	1559.340
566.700	22.996	1590.650	1553.935
567.715	23.042	1587.837	1551.408
568.729	22.749	1586.161	1547.004
569.744	22.487	1584.332	1542.728
570.759	22.456	1584.152	1542.091
571.773	22.740	1583.040	1543.319
572.788	23.097	1582.436	1545.691
573.802	23.273	1581.213	1545.855
574.817	23.314	1580.931	1545.751
575.832	23.619	1580.269	1547.596
576.846	23.516	1577.874	1544.159
577.861	23.355	1576.036	1540.770
578.875	23.328	1576.828	1541.126
579.890	23.785	1575.374	1543.512
580.905	23.731	1574.627	1542.122
581.919	23.545	1574.683	1540.368
582.934	23.856	1573.534	1541.768
583.948	23.905	1572.292	1540.796
584.963	23.703	1570.127	1536.730
585.978	23.373	1568.953	1532.535
586.992	23.467	1568.043	1532.274
588.007	23.787	1567.195	1534.040
589.021	23.107	1564.443	1525.269
590.036	22.471	1562.669	1517.851
591.051	22.913	1562.474	1521.310
592.065	23.338	1561.739	1524.083
593.080	23.637	1560.791	1525.560
594.094	23.634	1558.719	1523.329
595.109	23.147	1555.715	1516.021
596.123	22.897	1554.192	1512.201
597.138	23.214	1554.337	1514.892
598.153	23.753	1552.734	1517.771
599.167	23.471	1551.859	1514.318
600.182	23.566	1551.694	1514.788
601.196	23.794	1550.694	1515.588
602.211	23.650	1549.321	1512.832
603.226	23.906	1548.792	1514.328
604.240	23.957	1547.840	1513.645
605.255	24.186	1547.174	1514.774
606.269	24.283	1545.328	1513.614
607.284	23.874	1544.452	1509.083
608.299	23.940	1542.832	1507.885
609.313	23.917	1540.824	1505.545
610.328	23.861	1540.013	1504.095
611.342	23.953	1538.917	1503.629
612.357	24.241	1538.133	1505.128
613.372	24.258	1536.734	1503.724
614.386	24.031	1536.370	1501.258
615.401	24.089	1535.919	1501.132
616.415	24.164	1534.942	1500.631
617.430	24.274	1534.322	1500.776
618.445	24.432	1532.658	1500.302
619.459	24.105	1530.880	1495.627
620.474	23.658	1529.295	1490.129
621.488	23.181	1526.772	1483.469
622.503	22.765	1525.595	1478.649
623.518	23.425	1526.141	1484.560
624.532	24.021	1526.014	1489.270
625.547	24.170	1524.926	1489.280
626.561	24.577	1524.499	1492.110
627.576	24.636	1523.679	1491.625
628.591	23.979	1520.424	1482.751
629.605	23.612	1518.822	1477.942
630.620	23.502	1516.499	1474.587
631.634	23.044	1515.868	1469.968
632.649	23.271	1515.133	1470.977
633.663	23.561	1514.818	1472.912
634.678	24.288	1513.877	1477.886
635.693	24.646	1512.910	1479.746
636.707	24.710	1512.363	1479.560
637.722	24.928	1511.551	1480.405
638.736	24.913	1510.872	1479.436
639.751	24.841	1509.269	1477.090
640.766	24.955	1507.319	1475.952
641.780	24.735	1505.892	1472.559
642.795	24.687	1504.739	1470.858
643.809	24.737	1504.336	1470.700
644.824	24.635	1504.577	1469.912
645.839	24.492	1502.735	1466.760
646.853	24.605	1501.182	1465.998
647.868	24.672	1499.471	1464.702
648.882	24.460	1498.080	1461.425
649.897	24.372	1496.718	1459.199
650.912	24.496	1495.718	1459.068
651.926	24.360	1494.070	1456.171
652.941	24.229	1492.441	1453.334
653.955	23.679	1489.792	1446.083
654.970	22.992	1487.726	1438.284
655.985	23.112	1486.660	1438.061
656.999	23.279	1485.787	1438.414
658.014	23.638	1485.482	1440.873
659.028	23.898	1485.667	1443.004
660.043	24.137	1485.248	1444.367
661.058	24.517	1483.623	1445.709
662.072	24.659	1482.415	1445.513
663.087	24.408	1481.361	1442.274
664.101	24.305	1480.718	1440.637
665.116	24.506	1479.918	1441.318
666.131	24.855	1478.172	1442.270
667.145	24.945	1476.954	1441.640
668.160	25.002	1476.483	1441.466
669.174	25.148	1475.837	1441.848
670.189	25.154	1474.200	1440.121
671.204	24.884	1473.242	1436.833
672.218	24.768	1472.583	1435.084
673.233	25.018	1471.831	1436.194
674.247	25.286	1471.584	1437.940
675.262	25.491	1470.101	1437.966
676.276	25.381	1468.585	1435.429
677.291	25.263	1466.821	1432.590
678.306	24.889	1466.285	1428.889
679.320	24.705	1464.267	1425.280
680.335	25.172	1464.479	1429.059
681.349	25.235	1463.870	1428.793
682.364	25.224	1463.009	1427.694
683.379	25.116	1461.417	1425.110
684.393	25.001	1459.974	1422.616
685.408	25.150	1458.795	1422.484
686.422	25.043	1457.651	1420.348
687.437	25.190	1457.386	1421.087
688.452	25.488	1456.683	1422.601
689.466	25.391	1454.870	1419.891
690.481	25.093	1452.674	1415.210
691.495	24.844	1451.816	1412.231
692.510	23.967	1449.639	1402.997
693.525	23.490	1447.637	1397.120
694.539	23.939	1448.020	1400.872
695.554	24.720	1448.660	1407.508
696.568	25.291	1447.993	1411.203
697.583	25.388	1447.319	1411.141
698.598	25.381	1446.632	1410.253
699.612	25.641	1444.961	1410.506
700.627	25.664	1443.839	1409.422
701.641	25.487	1442.463	1406.516
702.656	25.488	1441.312	1405.237
703.671	25.813	1441.156	1407.463
704.685	25.814	1440.684	1406.842
705.700	25.529	1439.057	1402.851
706.714	25.224	1436.860	1398.152
707.729	25.158	1434.602	1395.275
708.744	25.151	1433.543	1394.021
709.758	24.830	1432.472	1390.304
710.773	24.429	1430.476	1385.072
711.787	24.121	1428.851	1380.934
712.802	24.571	1427.644	1383.103
713.816	24.757	1428.262	1384.989
714.831	25.132	1427.951	1387.441
715.846	25.317	1427.044	1387.826
716.860	25.464	1425.660	1387.461
717.875	25.453	1424.703	1386.277
718.889	25.175	1423.364	1382.648
719.904	25.379	1422.252	1382.985
720.919	25.577	1421.383	1383.508
721.933	25.713	1421.219	1384.229
722.948	25.698	1419.954	1382.716
723.962	25.741	1419.021	1381.976
724.977	25.762	1418.628	1381.593
725.992	25.691	1417.563	1379.843
727.006	25.678	1415.577	1377.644
728.021	25.853	1414.471	1377.746
729.035	25.780	1413.875	1376.443
730.050	25.745	1412.881	1375.039
731.065	25.651	1411.263	1372.575
732.079	25.993	1410.262	1374.058
733.094	25.889	1408.384	1371.272
734.108	25.563	1406.926	1367.193
735.123	25.579	1406.319	1366.564
736.138	25.724	1404.838	1366.068
737.152	25.880	1403.643	1365.932
738.167	25.998	1402.718	1365.767
739.181	26.182	1402.401	1366.693
740.196	26.149	1401.843	1365.733
741.211	25.866	1401.642	1363.225
742.225	25.667	1400.575	1360.511
743.240	25.922	1398.377	1360.146
744.254	25.971	1396.470	1358.500
745.269	26.032	1395.927	1358.272
746.284	25.649	1396.066	1355.349
747.298	25.458	1394.167	1351.898
748.313	25.085	1392.102	1346.917
749.327	24.569	1390.316	1341.134
750.342	24.132	1388.547	1335.975
751.356	23.683	1386.985	1330.929
752.371	24.061	1386.965	1333.592
753.386	25.047	1387.116	1340.999
754.400	25.637	1386.896	1345.061
755.415	25.971	1386.491	1347.014
756.429	26.150	1385.466	1347.202
757.444	26.156	1383.081	1344.769
758.459	26.112	1382.978	1344.180
759.473	26.152	1382.155	1343.517
760.488	26.149	1380.895	1342.107
761.502	26.154	1379.874	1340.995
762.517	25.937	1378.421	1337.798
763.532	25.975	1376.507	1336.069
764.546	25.542	1374.932	1331.157
765.561	24.858	1372.680	1323.733
766.575	24.206	1370.953	1317.069
767.590	24.042	1370.508	1315.267
768.605	24.886	1370.094	1320.969
769.619	25.357	1369.483	1323.713
770.634	25.722	1369.444	1326.220
771.648	26.038	1368.665	1327.651
772.663	26.148	1368.059	1327.716
773.678	26.187	1367.458	1327.262
774.692	26.099	1366.975	1325.982
775.707	26.304	1366.854	1327.220
776.721	26.256	1365.675	1325.561
777.736	26.282	1363.796	1323.769
778.751	26.250	1363.257	1322.853
779.765	26.334	1362.172	1322.263
780.780	26.309	1361.193	1320.970
781.794	26.171	1360.775	1319.389
782.809	26.047	1359.153	1316.753
783.824	25.799	1358.028	1313.688
784.838	25.455	1354.747	1307.843
785.853	24.584	1353.619	1300.222
786.867	24.743	1354.201	1301.793
787.882	25.227	1354.400	1305.366
788.897	25.497	1353.024	1305.854
789.911	25.711	1352.127	1306.396
790.926	25.740	1351.330	1305.681
791.940	25.977	1350.262	1306.220
792.955	26.001	1349.331	1305.340
793.969	26.126	1347.499	1304.318
794.984	26.139	1346.894	1303.670
795.999	26.477	1346.263	1305.355
797.013	26.385	1344.814	1303.128
798.028	26.431	1342.875	1301.425
799.042	26.379	1342.840	1300.857
800.057	26.656	1341.988	1301.878
801.072	26.618	1339.547	1299.080
802.086	26.254	1339.020	1295.790
803.101	26.448	1338.427	1296.456
804.115	26.411	1337.650	1295.287
805.130	26.332	1336.240	1293.194
806.145	26.486	1334.800	1292.756
807.159	26.509	1332.910	1290.937
808.174	26.270	1331.786	1287.981
809.188	26.118	1330.904	1285.886
810.203	25.798	1329.176	1281.769
811.218	25.565	1326.385	1277.264
812.232	25.003	1324.547	1271.330
813.247	24.565	1324.206	1267.726
814.261	25.121	1324.845	1272.153
815.276	25.868	1324.415	1276.912
816.291	26.082	1323.680	1277.575
817.305	26.244	1322.677	1277.609
818.320	26.420	1321.922	1277.971
819.334	26.509	1320.402	1276.980
820.349	26.633	1318.819	1276.179
821.364	26.635	1317.881	1275.132
822.378	26.498	1316.072	1272.257
823.393	26.515	1314.966	1271.160
824.407	26.397	1314.363	1269.587
825.422	26.456	1313.946	1269.451
826.437	26.357	1311.999	1266.723
827.451	26.079	1309.368	1262.073
828.466	25.266	1307.505	1254.417
829.480	24.983	1305.385	1250.248
830.495	25.535	1304.006	1252.649
831.509	25.810	1304.666	1255.055
832.524	26.038	1304.384	1256.233
833.539	26.292	1303.410	1256.922
834.553	26.466	1302.252	1256.867
835.568	26.549	1301.536	1256.608
836.582	26.562	1300.110	1255.170
837.597	26.718	1298.847	1254.883
838.612	26.451	1297.277	1251.364
839.626	26.268	1296.036	1248.742
840.641	25.958	1294.742	1245.194
841.655	25.680	1292.857	1241.309
842.670	24.983	1290.544	1234.111
843.685	24.198	1290.011	1228.017
844.699	25.046	1289.743	1233.485
845.714	25.822	1289.409	1238.384
846.728	25.966	1289.126	1238.958
847.743	26.231	1287.877	1239.440
848.758	26.500	1286.919	1240.223
849.772	26.515	1285.815	1239.116
850.787	26.750	1284.180	1239.004
851.801	26.697	1283.129	1237.478
852.816	26.543	1282.028	1235.211
853.831	26.456	1281.046	1233.524
854.845	26.347	1279.402	1231.042
855.860	26.192	1277.375	1227.888
856.874	25.917	1276.133	1224.668
857.889	25.737	1274.218	1221.455
858.904	25.355	1271.865	1216.459
859.918	24.860	1270.458	1211.595
860.933	24.428	1269.799	1207.888
861.947	25.101	1269.291	1211.830
862.962	25.613	1268.419	1214.327
863.977	25.606	1267.945	1213.683
864.991	25.913	1267.698	1215.379
866.006	26.183	1267.160	1216.552
867.020	26.394	1266.295	1217.004
868.035	26.504	1265.322	1216.666
869.049	26.583	1264.541	1216.300
870.064	26.777	1263.136	1216.115
871.079	26.517	1262.265	1213.373
872.093	26.409	1261.660	1211.923
873.108	26.418	1260.031	1210.273
874.122	26.172	1258.546	1207.049
875.137	25.421	1257.802	1201.145
876.152	25.365	1256.537	1199.419
877.166	25.436	1255.128	1198.402
878.181	25.844	1254.283	1200.189
879.195	26.131	1253.970	1201.662
880.210	26.447	1253.068	1202.771
881.225	26.552	1252.487	1202.769
882.239	26.529	1251.668	1201.687
883.254	26.665	1250.872	1201.682
884.268	26.604	1250.158	1200.450
885.283	26.453	1248.745	1197.939
886.298	26.542	1247.079	1196.794
887.312	26.494	1245.908	1195.203
888.327	26.530	1244.561	1194.008
889.341	26.528	1243.393	1192.735
890.356	26.419	1242.563	1191.076
891.371	26.301	1242.537	1190.127
892.385	26.169	1241.734	1188.339
893.400	26.191	1240.845	1187.493
894.414	25.819	1239.079	1183.206
895.429	25.680	1236.045	1179.247
896.444	24.839	1232.842	1170.528
897.458	24.080	1231.897	1164.499
898.473	24.648	1232.362	1168.532
899.487	25.479	1232.765	1174.235
900.502	25.808	1232.393	1175.903
901.517	26.079	1231.122	1176.321
902.531	26.348	1230.043	1176.914
903.546	26.418	1229.965	1177.153
904.560	26.580	1229.267	1177.409
905.575	26.460	1228.223	1175.482
906.589	26.430	1227.109	1174.081
907.604	26.332	1225.852	1172.096
