DTS Sentinel unit serial number:	SN409020Multiplexer serial number:	ORYXHardware model number:	OX4-SRSoftware version number:	ORYX F/W v3.00 Oryx Data Collector v3.7.2.0data status	okinstallation	HaddamTimeLapsedifferential loss correction	single-endedforward channel	channel 3reverse channel	N/Adate	2011/06/22time	01:11:16forward acquisition time	30.00reverse acquisition time	0.00gamma	498.7831k internal	0.1751k external	0.1751temperature offset calibration	1.0074default loss term (dB/km)	0.3790temperature slope calibration	1.3530multiplexer offset coefficient	1.0000multiplexer slope coefficient	1.0000fibre end	0.00T internal ref (°C)	22.50T ext. ref 1 (°C)	17.87T ext. ref 2 (°C)	0.02length (m)	temperature (°C)	Stokes	anti-Stokes-747.200	-70.686	0.315	-0.158
-746.185	-200.000	-0.042	-0.347
-745.171	-32.782	-0.452	-0.333
-744.156	-20.553	-0.121	0.098
-743.142	699.752	0.022	0.078
-742.127	-67.132	0.102	0.053
-741.112	55.855	0.193	0.249
-740.098	15.709	-0.175	-0.183
-739.083	246.680	-0.232	0.521
-738.069	1.953	-0.341	0.326
-737.054	-68.178	-0.335	-0.173
-736.039	-48.855	-0.161	-0.102
-735.025	-91.492	0.571	-0.215
-734.010	-132.793	-0.260	0.044
-732.996	140.733	0.106	0.186
-731.981	-78.896	0.298	0.134
-730.966	-63.263	-0.137	-0.075
-729.952	-200.000	0.006	-0.302
-728.937	800.000	-0.150	-0.572
-727.923	-43.843	-0.252	-0.168
-726.908	800.000	-0.065	-0.311
-725.894	-93.858	0.221	-0.080
-724.879	-23.057	0.166	0.132
-723.864	800.000	0.044	0.214
-722.850	19.544	0.120	0.129
-721.835	522.917	-0.051	-0.160
-720.821	-5.892	-0.241	-0.219
-719.806	-200.000	-0.001	-0.226
-718.791	800.000	-0.057	0.279
-717.777	-119.930	0.320	0.072
-716.762	15.659	-0.221	0.231
-715.748	242.189	0.143	0.318
-714.733	-85.421	-0.186	0.077
-713.718	595.876	-0.186	-0.614
-712.704	74.630	-0.177	-0.248
-711.689	-126.892	-0.120	-0.023
-710.675	-145.617	0.149	0.018
-709.660	-83.378	-0.189	-0.080
-708.645	-53.856	0.319	-0.193
-707.631	-59.383	0.060	0.034
-706.616	-32.674	-0.092	-0.067
-705.602	-178.758	-0.317	-0.009
-704.587	-200.000	-0.026	0.318
-703.572	-131.055	0.255	-0.045
-702.558	690.813	0.051	0.177
-701.543	-163.475	0.369	-0.023
-700.529	167.426	0.180	-0.341
-699.514	-96.783	-0.214	-0.074
-698.499	296.471	-0.123	-0.300
-697.485	-126.975	0.487	0.094
-696.470	14.889	-0.158	-0.163
-695.456	166.320	-0.117	0.220
-694.441	800.000	0.067	-0.359
-693.426	-171.241	-0.183	0.008
-692.412	-200.000	0.010	-0.182
-691.397	-200.000	0.053	-0.410
-690.383	431.131	-0.017	-0.049
-689.368	-200.000	-0.016	-0.206
-688.354	756.921	0.037	-0.133
-687.339	115.666	0.306	-0.497
-686.324	-124.823	0.250	0.051
-685.310	-47.719	-0.247	-0.158
-684.295	-158.003	-0.442	0.034
-683.281	-139.399	0.388	-0.055
-682.266	-200.000	0.039	-0.261
-681.251	22.932	-0.295	-0.320
-680.237	456.225	-0.100	0.296
-679.222	163.525	0.308	0.576
-678.208	-200.000	0.103	-0.754
-677.193	-102.003	0.319	-0.101
-676.178	-100.999	0.245	-0.079
-675.164	-200.000	-0.036	-0.274
-674.149	800.000	0.068	-0.370
-673.135	-74.714	-0.110	0.052
-672.120	-73.055	-0.352	-0.170
-671.105	-65.884	0.269	0.142
-670.091	187.720	-0.031	0.061
-669.076	84.596	-0.270	-0.392
-668.062	11.319	0.311	-0.315
-667.047	-200.000	0.002	-0.226
-666.032	-98.240	-0.346	0.117
-665.018	329.330	0.064	-0.164
-664.003	271.325	-0.045	-0.106
-662.989	364.532	0.066	-0.177
-661.974	-61.548	-0.248	0.137
-660.959	-117.310	-0.338	0.081
-659.945	-61.873	0.186	0.103
-658.930	47.315	0.097	0.120
-657.916	541.347	-0.136	-0.431
-656.901	-91.358	0.176	0.066
-655.886	35.101	-0.282	0.328
-654.872	269.969	-0.148	0.346
-653.857	-200.000	-0.061	0.482
-652.843	251.098	-0.068	0.154
-651.828	0.842	-0.271	0.257
-650.814	800.000	0.087	0.354
-649.799	124.909	0.232	0.387
-648.784	-13.030	-0.177	-0.152
-647.770	-200.000	-0.050	-0.338
-646.755	146.322	-0.086	-0.153
-645.741	-24.123	-0.214	-0.169
-644.726	-84.635	-0.143	-0.059
-643.711	166.562	-0.218	-0.410
-642.697	32.021	-0.156	-0.178
-641.682	-108.758	0.443	-0.125
-640.668	22.592	-0.211	-0.228
-639.653	163.643	0.196	-0.367
-638.638	-200.000	0.001	0.089
-637.624	-100.729	-0.138	-0.045
-636.609	-200.000	0.013	-0.089
-635.595	-200.000	0.005	0.289
-634.580	-0.381	0.271	0.255
-633.565	284.753	0.099	-0.236
-632.551	800.000	0.042	-0.170
-631.536	-131.449	-0.251	0.043
-630.522	-96.507	-0.104	0.036
-629.507	-200.000	0.011	0.080
-628.492	-56.252	-0.252	-0.148
-627.478	127.488	0.145	-0.244
-626.463	-200.000	-0.005	-0.298
-625.449	-19.651	-0.308	-0.252
-624.434	82.526	-0.226	0.325
-623.419	-139.793	0.183	0.025
-622.405	-200.000	-0.028	-0.241
-621.390	-89.138	0.104	0.040
-620.376	-114.393	0.319	-0.080
-619.361	293.845	-0.168	0.406
-618.346	-6.861	-0.270	0.242
-617.332	800.000	-0.039	-0.158
-616.317	283.218	-0.204	0.486
-615.303	-72.110	0.280	0.137
-614.288	-160.708	0.254	0.018
-613.273	33.767	0.034	-0.039
-612.259	16.600	-0.217	0.226
-611.244	22.800	0.197	0.214
-610.230	34.141	0.196	-0.226
-609.215	-53.746	-0.121	0.073
-608.201	-200.000	-0.011	0.552
-607.186	25.377	-0.098	-0.108
-606.171	-66.382	-0.696	0.364
-605.157	-200.000	-0.030	0.270
-604.142	-98.241	0.259	0.087
-603.128	-88.183	0.148	-0.058
-602.113	-94.010	-0.715	0.258
-601.098	-49.661	0.247	-0.155
-600.084	-34.424	-0.210	0.152
-599.069	-28.313	0.289	0.220
-598.055	-54.891	0.361	-0.214
-597.040	-130.739	-0.436	-0.077
-596.025	426.750	0.204	0.583
-595.011	91.980	0.113	0.168
-593.996	800.000	-0.076	-0.340
-592.982	-77.263	-0.366	-0.167
-591.967	74.268	-0.096	0.133
-590.952	-97.776	0.440	0.149
-589.938	227.960	-0.124	0.268
-588.923	-200.000	-0.017	0.290
-587.909	24.951	-0.179	-0.196
-586.894	-60.948	0.263	-0.146
-585.879	-103.291	0.357	-0.110
-584.865	360.316	0.030	0.080
-583.850	-75.312	-0.460	0.216
-582.836	48.443	-0.345	-0.427
-581.821	-116.078	0.386	0.094
-580.806	565.973	-0.089	-0.287
-579.792	4.225	0.234	0.226
-578.777	-200.000	-0.040	0.712
-577.763	-31.096	0.111	-0.082
-576.748	528.121	0.091	-0.284
-575.733	800.000	0.054	-0.242
-574.719	-147.500	-0.041	0.005
-573.704	80.058	-0.366	0.520
-572.690	-117.748	-0.790	-0.186
-571.675	-1.493	-0.358	0.333
-570.661	-200.000	-0.024	0.228
-569.646	137.728	0.176	0.305
-568.631	800.000	0.126	-0.491
-567.617	-92.387	0.347	-0.128
-566.602	46.850	-0.093	-0.114
-565.588	215.042	0.152	-0.319
-564.573	178.199	0.072	-0.138
-563.558	-32.086	0.441	0.324
-562.544	146.592	0.101	0.179
-561.529	8.617	0.210	0.208
-560.515	-200.000	-0.042	-0.394
-559.500	-200.000	-0.044	-0.417
-558.485	-23.817	-0.263	-0.208
-557.471	-200.000	-0.090	0.606
-556.456	800.000	0.040	-0.209
-555.442	800.000	0.021	-0.088
-554.427	-91.237	-0.185	0.070
-553.412	-103.717	-0.511	0.157
-552.398	-58.366	-0.710	-0.406
-551.383	39.736	0.278	-0.329
-550.369	334.698	0.077	-0.197
-549.354	-38.623	-0.374	-0.260
-548.339	128.528	0.236	-0.397
-547.325	-46.344	0.256	0.165
-546.310	645.448	0.144	0.487
-545.296	-200.000	-0.007	-0.062
-544.281	-135.605	0.327	0.051
-543.266	-136.575	0.262	-0.040
-542.252	-200.000	-0.055	-0.922
-541.237	-67.984	-0.512	-0.262
-540.223	7.556	0.031	-0.030
-539.208	-139.052	0.556	0.079
-538.193	-87.365	0.183	-0.073
-537.179	-41.348	0.221	0.149
-536.164	-94.278	0.584	0.209
-535.150	-117.697	0.197	-0.046
-534.135	-93.484	0.055	-0.020
-533.121	800.000	-0.038	-0.145
-532.106	561.947	0.043	0.136
-531.091	169.714	0.180	0.339
-530.077	-72.158	-0.199	0.097
-529.062	800.000	0.065	-0.343
-528.048	318.486	0.012	-0.030
-527.033	800.000	-0.097	0.558
-526.018	-57.647	0.144	0.083
-525.004	-200.000	-0.124	0.737
-523.989	800.000	-0.073	0.389
-522.975	-200.000	-0.041	0.558
-521.960	68.818	0.152	-0.206
-520.945	-48.232	0.042	-0.026
-519.931	-58.405	0.083	0.047
-518.916	36.367	-0.024	0.028
-517.902	93.655	0.079	-0.118
-516.887	-95.062	0.234	0.083
-515.872	-69.016	-0.197	-0.100
-514.858	39.920	0.230	0.273
-513.843	29.847	-0.112	-0.125
-512.829	16.705	0.252	0.262
-511.814	738.054	0.043	-0.151
-510.799	-38.591	-0.133	0.092
-509.785	-6.013	-0.254	0.228
-508.770	-57.080	-0.095	-0.055
-507.756	-200.000	-0.011	-0.085
-506.741	-123.419	-0.416	0.086
-505.726	-53.634	-0.186	0.112
-504.712	-22.717	0.260	0.206
-503.697	-200.000	0.018	-0.437
-502.683	-26.515	-0.080	0.062
-501.668	-37.717	-0.409	0.286
-500.653	800.000	0.060	0.334
-499.639	96.303	0.079	0.119
-498.624	-74.337	-0.263	0.124
-497.610	-37.279	0.095	-0.067
-496.595	-140.984	0.217	-0.029
-495.581	-7.997	-0.234	-0.207
-494.566	-20.122	0.434	0.352
-493.551	-187.084	0.303	-0.005
-492.537	800.000	-0.155	0.656
-491.522	-86.059	0.380	-0.153
-490.508	-200.000	-0.001	-0.181
-489.493	-94.594	-0.638	0.227
-488.478	-48.831	0.464	-0.292
-487.464	-126.380	0.561	-0.109
-486.449	241.434	0.111	0.244
-485.435	-103.103	0.102	0.032
-484.420	-71.716	0.444	0.217
-483.405	-200.000	-0.017	0.222
-482.391	-157.763	-0.302	-0.023
-481.376	80.456	0.355	-0.503
-480.362	125.044	0.092	0.153
-479.347	-153.095	-0.409	-0.037
-478.332	20.378	-0.185	-0.197
-477.318	-5.205	0.025	-0.023
-476.303	-90.655	-0.139	0.052
-475.289	249.788	0.036	0.080
-474.274	800.000	0.226	0.958
-473.259	-72.746	-0.143	0.069
-472.245	-30.112	0.159	-0.118
-471.230	-200.000	-0.004	0.026
-470.216	-101.030	-0.185	0.059
-469.201	68.563	0.107	-0.145
-468.186	-20.701	0.163	-0.131
-467.172	-90.348	-0.582	0.221
-466.157	644.862	-0.035	0.120
-465.143	-200.000	-0.016	-0.120
-464.128	233.767	0.173	-0.375
-463.113	-94.218	0.213	0.076
-462.099	99.325	0.280	-0.427
-461.084	402.998	0.054	0.150
-460.070	-98.901	0.363	0.120
-459.055	185.112	0.059	0.115
-458.040	-200.000	0.013	-0.351
-457.026	-175.656	0.121	0.004
-456.011	-200.000	0.018	0.118
-454.997	-51.843	-0.162	-0.099
-453.982	-39.272	-0.042	-0.029
-452.968	-27.737	-0.088	0.067
-451.953	54.052	0.195	0.247
-450.938	-53.716	0.408	0.244
-449.924	800.000	-0.082	-0.357
-448.909	165.493	0.275	0.512
-447.895	289.837	0.200	0.479
-446.880	-96.092	0.601	0.209
-445.865	-200.000	0.021	0.334
-444.851	276.812	-0.073	0.171
-443.836	-31.491	0.156	0.115
-442.822	-200.000	-0.030	-0.288
-441.807	800.000	0.097	-0.490
-440.792	-70.970	0.396	0.195
-439.778	-108.566	0.070	0.020
-438.763	-60.730	0.121	-0.067
-437.749	-32.253	-0.028	0.020
-436.734	-123.734	-0.468	-0.096
-435.719	-200.000	0.005	-0.081
-434.705	-109.465	-0.254	-0.070
-433.690	-50.213	-0.113	-0.070
-432.676	48.648	0.200	-0.246
-431.661	716.932	0.007	-0.025
-430.646	-107.782	0.522	-0.148
-429.632	372.127	0.040	-0.106
-428.617	800.000	0.047	-0.199
-427.603	800.000	0.107	0.559
-426.588	-15.034	0.278	0.234
-425.573	71.451	0.301	0.410
-424.559	1.045	0.077	0.072
-423.544	-58.860	-0.315	-0.178
-422.530	249.353	0.053	-0.119
-421.515	400.925	0.206	-0.569
-420.500	-71.213	-0.153	-0.075
-419.486	600.249	-0.126	-0.413
-418.471	-56.723	-0.163	-0.094
-417.457	-91.607	0.450	0.167
-416.442	470.613	0.052	-0.154
-415.428	44.281	-0.406	-0.489
-414.413	-73.038	-0.550	0.264
-413.398	800.000	0.048	0.194
-412.384	23.574	0.125	0.135
-411.369	-129.919	0.143	-0.025
-410.355	109.887	0.240	0.378
-409.340	470.121	-0.110	-0.326
-408.325	-167.630	-0.698	-0.036
-407.311	-136.384	0.557	0.084
-406.296	-65.411	-0.443	-0.232
-405.282	-174.847	-0.390	0.014
-404.267	42.167	-0.118	-0.140
-403.252	-114.672	0.741	-0.185
-402.238	-68.537	-0.137	-0.069
-401.223	641.507	0.052	0.175
-400.209	-102.539	-0.378	0.118
-399.194	800.000	0.030	-0.132
-398.179	-32.279	-0.253	0.185
-397.165	502.474	0.059	0.180
-396.150	-32.599	0.271	0.198
-395.136	-152.174	0.432	-0.041
-394.121	83.970	-0.126	0.180
-393.106	15.858	-0.335	-0.345
-392.092	-70.004	-0.165	0.082
-391.077	-20.443	-0.446	0.359
-390.063	-111.554	-0.836	0.221
-389.048	-118.961	-0.529	0.121
-388.033	-67.622	-0.399	-0.204
-387.019	-200.000	0.014	-0.297
-386.004	-200.000	0.053	0.343
-384.990	293.016	0.184	0.443
-383.975	-18.158	-0.592	0.484
-382.960	8.667	-0.047	-0.046
-381.946	-111.862	0.274	0.072
-380.931	-10.269	0.447	-0.388
-379.917	-160.757	0.045	-0.003
-378.902	20.614	-0.220	0.233
-377.888	-200.000	0.009	-0.233
-376.873	-153.877	-0.483	-0.043
-375.858	22.970	-0.396	-0.425
-374.844	-60.299	-0.446	0.248
-373.829	554.802	0.166	0.526
-372.815	83.571	0.084	0.121
-371.800	-11.005	0.163	-0.141
-370.785	-36.940	-0.366	0.256
-369.771	-200.000	-0.025	-0.560
-368.756	764.159	-0.031	0.113
-367.742	-181.941	0.226	0.006
-366.727	-95.531	0.291	-0.101
-365.712	378.386	-0.076	0.205
-364.698	218.264	-0.132	0.277
-363.683	-40.316	-0.207	0.141
-362.669	513.606	0.073	-0.225
-361.654	800.000	-0.130	0.625
-360.639	-200.000	-0.008	0.261
-359.625	-97.597	-0.218	-0.074
-358.610	-200.000	-0.001	0.409
-357.596	-200.000	0.010	0.380
-356.581	-158.934	0.604	-0.044
-355.566	-200.000	0.007	0.043
-354.552	-94.187	-0.221	0.079
-353.537	157.206	-0.168	0.305
-352.523	-70.281	0.161	0.080
-351.508	-59.266	0.386	-0.216
-350.493	-22.193	0.192	0.152
-349.479	-83.492	-0.263	0.110
-348.464	-109.922	0.091	-0.025
-347.450	-73.097	0.468	0.223
-346.435	207.122	0.044	-0.091
-345.420	96.514	0.196	-0.293
-344.406	663.416	0.037	0.125
-343.391	-111.039	0.239	0.064
-342.377	-9.296	0.198	-0.173
-341.362	-84.339	-0.756	-0.311
-340.348	119.968	-0.064	0.104
-339.333	800.000	0.060	-0.268
-338.318	249.401	0.254	-0.564
-337.304	122.680	-0.210	-0.344
-336.289	391.580	-0.026	-0.072
-335.275	538.828	-0.054	0.168
-334.260	305.806	-0.044	0.107
-333.245	-200.000	0.011	0.158
-332.231	-45.307	0.178	-0.115
-331.216	196.457	0.256	-0.512
-330.202	-200.000	-0.006	0.230
-329.187	-86.908	0.614	0.244
-328.172	165.968	-0.198	-0.367
-327.158	-200.000	-0.036	0.459
-326.143	800.000	0.077	0.366
-325.129	-200.000	0.014	-0.580
-324.114	185.106	-0.129	-0.251
-323.099	470.638	0.136	-0.402
-322.085	-158.971	-0.499	0.037
-321.070	-154.140	0.436	-0.038
-320.056	54.172	0.203	0.255
-319.041	-161.297	-0.060	0.004
-318.026	800.000	0.114	-0.446
-317.012	32.292	0.307	-0.346
-315.997	-200.000	-0.006	-0.234
-314.983	66.443	0.059	-0.079
-313.968	-33.153	0.083	-0.060
-312.953	-200.000	-0.004	0.067
-311.939	-87.623	0.046	-0.018
-310.924	-200.000	-0.002	0.656
-309.910	-200.000	-0.023	0.197
-308.895	21.012	0.115	0.122
-307.880	-200.000	0.006	0.247
-306.866	-198.533	-0.377	0.003
-305.851	-109.954	-0.133	-0.036
-304.837	83.136	-0.145	0.207
-303.822	-32.527	0.435	0.316
-302.807	234.552	-0.223	0.482
-301.793	-21.776	-0.481	0.382
-300.778	-124.812	-0.165	0.033
-299.764	409.639	0.156	-0.433
-298.749	-54.313	-0.254	-0.150
-297.735	289.190	-0.149	-0.354
-296.720	590.092	0.083	0.269
-295.705	-47.394	-0.377	0.239
-294.691	-200.000	-0.019	-0.229
-293.676	-200.000	-0.047	-0.293
-292.662	-200.000	0.018	0.417
-291.647	19.655	0.393	0.413
-290.632	800.000	0.061	0.282
-289.618	800.000	0.038	-0.187
-288.603	128.999	0.065	0.109
-287.589	-128.037	-0.240	-0.045
-286.574	23.733	0.188	0.202
-285.559	380.154	-0.130	0.350
-284.545	-72.768	0.343	0.164
-283.530	-126.790	-0.378	-0.072
-282.516	-28.222	0.483	0.363
-281.501	250.117	-0.035	-0.079
-280.486	800.000	0.084	0.432
-279.472	-107.421	0.395	0.112
-278.457	-23.055	0.408	-0.320
-277.443	-42.007	0.070	0.046
-276.428	125.841	-0.300	0.496
-275.413	-51.643	-0.303	0.184
-274.399	-121.846	0.289	-0.062
-273.384	-102.577	0.247	0.076
-272.370	-128.872	-0.252	0.046
-271.355	-42.646	0.478	-0.316
-270.340	-7.745	0.224	0.197
-269.326	-37.442	0.269	0.187
-268.311	-112.301	-0.570	-0.148
-267.297	-55.144	0.181	-0.106
-266.282	29.442	0.028	-0.031
-265.267	-200.000	0.105	-0.684
-264.253	60.826	-0.134	0.174
-263.238	-122.637	0.186	-0.039
-262.224	-200.000	0.027	-0.513
-261.209	-82.762	-0.386	-0.162
-260.195	10.264	0.147	0.146
-259.180	800.000	0.048	0.178
-258.165	94.070	-0.221	-0.327
-257.151	169.369	0.201	-0.376
-256.136	230.844	0.163	-0.350
-255.122	92.505	-0.224	-0.330
-254.107	-130.959	0.713	0.123
-253.092	-13.184	-0.147	-0.124
-252.078	-157.532	0.683	0.053
-251.063	18.197	-0.250	-0.260
-250.049	269.747	-0.095	-0.218
-249.034	-79.264	0.273	0.120
-248.019	164.828	-0.071	-0.131
-247.005	800.000	0.123	0.458
-245.990	-200.000	0.020	0.299
-244.976	800.000	0.056	0.280
-243.961	124.787	-0.081	0.133
-242.946	330.500	-0.119	0.299
-241.932	-138.469	-0.078	-0.011
-240.917	-200.000	-0.001	-0.138
-239.903	455.556	-0.061	-0.178
-238.888	88.377	-0.199	-0.289
-237.873	-131.647	-0.324	-0.055
-236.859	38.464	-0.160	0.186
-235.844	-82.184	0.560	0.237
-234.830	-200.000	0.025	-0.667
-233.815	258.302	0.050	0.114
-232.800	-200.000	0.020	-0.258
-231.786	9.683	-0.152	0.150
-230.771	144.180	0.160	0.279
-229.757	310.974	0.015	0.037
-228.742	-39.145	0.406	0.277
-227.727	-200.000	-0.036	0.464
-226.713	-200.000	0.021	-0.170
-225.698	-149.483	-0.384	-0.039
-224.684	-200.000	0.047	-0.772
-223.669	-200.000	0.009	-0.358
-222.655	-39.245	-0.209	-0.142
-221.640	-200.000	0.021	-0.212
-220.625	800.000	-0.066	-0.357
-219.611	89.441	-0.137	0.199
-218.596	-150.658	-0.399	0.039
-217.582	-200.000	-0.027	-0.493
-216.567	-22.468	-0.383	-0.301
-215.552	-135.970	0.356	-0.054
-214.538	-129.237	-0.700	-0.126
-213.523	19.760	-0.193	0.202
-212.509	-200.000	-0.017	-0.311
-211.494	800.000	0.041	0.154
-210.479	113.171	-0.208	-0.329
-209.465	84.296	-0.159	-0.226
-208.450	-56.991	0.316	-0.181
-207.436	800.000	0.080	-0.359
-206.421	-21.550	0.234	0.186
-205.406	-42.756	0.343	0.226
-204.392	162.923	-0.048	0.089
-203.377	800.000	0.067	0.353
-202.363	-116.410	-0.313	0.075
-201.348	-12.250	-0.067	-0.057
-200.333	95.077	0.070	-0.104
-199.319	-33.153	-0.372	0.268
-198.304	123.121	-0.127	-0.207
-197.290	-155.874	-0.400	0.033
-196.275	-172.446	-0.311	0.013
-195.260	-96.443	-0.262	0.090
-194.246	65.610	-0.202	-0.267
-193.231	-65.645	0.326	-0.169
-192.217	100.080	0.211	-0.319
-191.202	-120.562	-0.205	0.045
-190.187	-109.169	-0.219	-0.060
-189.173	800.000	0.057	0.244
-188.158	800.000	-0.040	-0.223
-187.144	-50.107	0.530	-0.325
-186.129	5.418	-0.211	-0.202
-185.114	-88.213	0.196	-0.076
-184.100	12.622	0.309	-0.310
-183.085	90.845	-0.090	-0.131
-182.071	-200.000	-0.032	-0.418
-181.056	800.000	-0.013	0.050
-180.042	110.699	0.181	0.284
-179.027	-7.267	-0.265	0.233
-178.012	-189.479	-0.292	-0.004
-176.998	-200.000	0.022	0.141
-175.983	186.689	-0.120	-0.233
-174.969	-0.889	-0.266	0.245
-173.954	-139.325	0.204	0.028
-172.939	-139.470	0.151	-0.021
-171.925	-18.448	-0.108	0.087
-170.910	761.586	0.116	-0.413
-169.896	95.466	-0.192	-0.285
-168.881	306.953	-0.133	-0.322
-167.866	374.551	-0.133	-0.355
-166.852	80.778	-0.142	-0.200
-165.837	-83.023	-0.201	0.084
-164.823	96.351	0.152	0.226
-163.808	-152.235	-0.293	-0.027
-162.793	-41.922	-0.099	-0.066
-161.779	9.718	-0.457	-0.450
-160.764	-84.291	0.292	-0.119
-159.750	-96.733	-0.571	0.194
-158.735	-175.988	-0.290	0.010
-157.720	-198.644	0.737	0.005
-156.706	-63.145	0.500	-0.267
-155.691	-83.176	-0.156	-0.065
-154.677	47.469	0.187	-0.226
-153.662	800.000	0.178	-0.647
-152.647	12.206	-0.231	-0.231
-151.633	22.390	0.136	-0.144
-150.618	-88.146	-0.158	0.061
-149.604	43.217	0.293	0.347
-148.589	-148.892	0.347	0.036
-147.574	93.231	0.313	-0.461
-146.560	115.990	-0.169	-0.269
-145.545	-47.147	0.328	-0.207
-144.531	800.000	0.096	-0.369
-143.516	518.743	-0.067	0.204
-142.502	-23.794	-0.301	-0.233
-141.487	800.000	-0.090	-0.357
-140.472	-64.359	-0.171	-0.090
-139.458	118.972	0.217	-0.348
-138.443	-28.225	0.135	-0.101
-137.429	-80.718	0.374	0.161
-136.414	-140.155	0.355	0.048
-135.399	310.287	-0.371	-0.904
-134.385	-109.005	-0.183	-0.050
-133.370	-123.950	0.154	0.031
-132.356	28.549	-0.120	-0.131
-131.341	-60.178	0.035	0.019
-130.326	-153.251	0.380	0.034
-129.312	150.872	0.228	0.403
-128.297	68.642	0.148	0.197
-127.283	116.937	0.084	-0.134
-126.268	-15.621	-0.482	0.398
-125.253	-34.920	0.493	0.348
-124.239	-65.277	-0.360	0.187
-123.224	-102.871	0.179	-0.055
-122.210	-200.000	-0.036	-0.316
-121.195	-144.699	-0.437	-0.052
-120.180	-45.361	0.192	0.123
-119.166	800.000	0.100	0.523
-118.151	68.871	0.163	-0.217
-117.137	-47.181	0.070	0.044
-116.122	223.311	0.081	0.170
-115.107	-144.742	0.208	0.025
-114.093	44.113	0.227	-0.270
-113.078	-104.663	0.380	-0.113
-112.064	-62.673	0.485	-0.260
-111.049	-10.550	0.100	-0.086
-110.034	9.271	0.279	-0.273
-109.020	432.255	-0.110	0.311
-108.005	189.263	-0.085	-0.166
-106.991	-147.249	0.225	0.025
-105.976	-117.277	0.489	-0.114
-104.962	-75.717	-0.244	-0.112
-103.947	-200.000	0.024	-0.389
-102.932	-155.038	0.639	0.054
-101.918	42.567	-0.181	-0.214
-100.903	41.989	-0.080	-0.094
-99.889	-18.760	-0.191	0.154
-98.874	-79.493	-0.269	0.117
-97.859	-149.369	0.599	-0.061
-96.845	-147.872	-0.290	-0.031
-95.830	-200.000	0.031	-0.257
-94.816	-37.808	0.387	-0.266
-93.801	-37.621	0.290	0.200
-92.786	-49.407	0.319	-0.197
-91.772	-130.119	0.326	-0.057
-90.757	537.913	0.177	-0.548
-89.743	-53.718	0.304	-0.179
-88.728	-96.336	0.209	0.071
-87.713	-66.879	-0.512	0.261
-86.699	-100.837	0.092	-0.029
-85.684	-34.379	0.317	-0.225
-84.670	10.174	0.151	-0.148
-83.655	-100.443	-0.356	-0.113
-82.640	-32.399	0.334	-0.241
-81.626	41.616	0.259	-0.304
-80.611	-21.018	0.139	0.110
-79.597	199.685	-0.129	-0.258
-78.582	-200.000	0.039	-0.379
-77.567	-200.000	-0.015	0.642
-76.553	460.599	0.146	0.423
-75.538	-142.993	-0.187	-0.023
-74.524	-200.000	-0.025	-0.220
-73.509	-87.760	-0.086	-0.033
-72.494	-37.632	-0.093	0.064
-71.480	-132.817	0.277	0.045
-70.465	-56.861	-0.290	-0.165
-69.451	-91.130	-0.104	-0.038
-68.436	-159.547	-0.270	-0.019
-67.422	-131.832	0.272	0.046
-66.407	-105.704	0.412	-0.120
-65.392	-38.437	-0.380	0.259
-64.378	-200.000	0.008	-0.104
-63.363	139.193	-0.151	-0.257
-62.349	-94.169	0.256	0.090
-61.334	13.750	-2.365	-2.376
-60.319	-41.284	1.880	1.250
-59.305	220.241	-3.597	-7.481
-58.290	44.627	4.098	4.876
-57.276	312.111	4.174	10.174
-56.261	-200.000	23.809	320.890
-55.246	352.300	1305.734	3361.846
-54.232	52.563	2846.503	3518.013
-53.217	51.052	2661.610	3265.986
-52.203	31.526	2390.713	2658.026
-51.188	27.640	2057.114	2239.170
-50.173	24.451	1942.955	2077.573
-49.159	23.202	1932.812	2052.098
-48.144	22.851	1926.895	2041.655
-47.130	22.687	1925.274	2037.951
-46.115	22.496	1923.919	2034.227
-45.100	22.586	1922.078	2033.243
-44.086	22.686	1920.363	2032.506
-43.071	22.720	1918.112	2030.436
-42.057	22.709	1916.363	2028.380
-41.042	22.658	1915.210	2026.488
-40.027	22.681	1914.125	2025.521
-39.013	22.653	1912.537	2023.442
-37.998	22.558	1911.858	2021.547
-36.984	22.551	1910.655	2020.116
-35.969	22.696	1908.873	2019.814
-34.954	22.598	1907.506	2017.163
-33.940	22.619	1906.425	2016.174
-32.925	22.493	1905.611	2013.792
-31.911	22.675	1904.029	2014.132
-30.896	22.662	1902.736	2012.533
-29.881	22.641	1900.990	2010.365
-28.867	22.491	1899.536	2007.029
-27.852	22.559	1897.969	2006.073
-26.838	22.569	1896.881	2004.961
-25.823	22.494	1896.329	2003.431
-24.809	22.566	1894.451	2002.191
-23.794	22.487	1893.054	1999.739
-22.779	22.506	1892.091	1998.852
-21.765	22.508	1890.909	1997.547
-20.750	22.431	1889.124	1994.716
-19.736	22.495	1888.488	1994.692
-18.721	22.554	1887.094	1993.809
-17.706	22.468	1885.421	1990.981
-16.692	22.478	1885.282	1990.874
-15.677	22.468	1883.724	1989.036
-14.663	22.536	1882.253	1988.175
-13.648	22.584	1880.272	1986.543
-12.633	22.457	1879.673	1984.400
-11.619	22.222	1878.797	1980.726
-10.604	22.319	1877.653	1980.549
-9.590	22.335	1876.525	1979.458
-8.575	22.401	1874.769	1978.271
-7.560	22.452	1873.300	1977.219
-6.546	22.407	1872.523	1975.808
-5.531	22.286	1871.514	1973.300
-4.517	22.244	1870.646	1971.833
-3.502	22.352	1869.384	1971.649
-2.487	22.506	1867.985	1971.825
-1.473	22.449	1864.864	1967.816
-0.458	22.199	1847.176	1946.284
0.556	18.902	1993.260	2048.504
1.571	17.425	2196.809	2237.908
2.586	18.133	2235.955	2287.035
3.600	18.286	2238.539	2291.468
4.615	18.197	2238.048	2289.499
5.629	18.148	2236.335	2286.811
6.644	18.184	2233.935	2284.569
7.659	18.217	2231.889	2282.635
8.673	18.109	2230.413	2279.410
9.688	17.965	2239.786	2286.777
10.702	17.091	2320.474	2356.677
11.717	15.467	2384.188	2397.803
12.731	7.224	2364.433	2259.867
13.746	0.935	2348.927	2154.994
14.761	0.134	2345.926	2140.524
15.775	0.154	2343.752	2138.578
16.790	0.053	2342.403	2135.642
17.804	0.014	2341.670	2134.169
18.819	0.004	2340.236	2132.463
19.834	-0.081	2338.862	2129.739
20.848	-0.022	2336.983	2128.621
21.863	0.032	2334.287	2126.670
22.877	0.083	2332.363	2125.388
23.892	-0.062	2330.692	2121.558
24.907	0.037	2328.373	2120.593
25.921	0.031	2326.244	2118.320
26.936	-0.023	2323.835	2115.109
27.950	-0.003	2322.033	2113.498
28.965	-0.045	2319.877	2110.690
29.980	0.054	2317.692	2109.848
30.994	0.096	2316.137	2108.761
32.009	3.758	2328.090	2171.183
33.023	12.662	2353.206	2321.002
34.038	16.444	2359.254	2380.318
35.053	16.380	2355.627	2375.468
36.067	16.216	2351.534	2368.744
37.082	16.246	2350.191	2367.531
38.096	16.152	2349.596	2365.327
39.111	16.519	2347.202	2367.801
40.126	16.811	2345.035	2369.427
41.140	16.805	2344.223	2368.251
42.155	16.775	2341.810	2365.105
43.169	16.876	2339.332	2363.729
44.184	16.584	2336.176	2356.169
45.199	16.539	2334.478	2353.544
46.213	16.646	2333.485	2353.768
47.228	16.682	2333.700	2354.204
48.242	16.810	2331.557	2353.547
49.257	16.858	2329.932	2352.290
50.271	16.946	2327.016	2350.298
51.286	16.666	2323.701	2342.768
52.301	16.382	2321.994	2336.818
53.315	17.231	2325.009	2351.382
54.330	20.066	2333.661	2399.373
55.344	21.863	2335.083	2425.545
56.359	21.987	2331.652	2423.413
57.374	22.135	2331.247	2424.760
58.388	22.439	2327.671	2424.951
59.403	22.244	2322.929	2417.032
60.417	21.770	2320.331	2407.498
61.432	21.867	2319.377	2407.554
62.447	22.191	2317.980	2410.292
63.461	22.353	2315.393	2409.542
64.476	22.429	2313.930	2408.775
65.490	22.079	2312.359	2402.040
66.505	21.166	2308.656	2385.365
67.520	19.029	2299.787	2346.653
68.534	16.874	2290.566	2307.515
69.549	16.381	2285.628	2295.525
70.563	16.272	2284.535	2292.671
71.578	16.286	2282.757	2290.797
72.593	16.364	2280.864	2289.686
73.607	16.517	2279.950	2290.581
74.622	16.582	2277.282	2288.508
75.636	16.397	2274.886	2283.313
76.651	16.236	2273.256	2279.214
77.666	16.270	2270.301	2276.450
78.680	16.165	2268.583	2273.030
79.695	15.967	2266.168	2267.663
80.709	15.977	2264.092	2265.443
81.724	15.860	2262.643	2262.142
82.739	15.957	2259.667	2260.203
83.753	16.103	2257.114	2259.343
84.768	15.865	2255.271	2254.022
85.782	15.829	2254.009	2252.012
86.797	15.807	2252.106	2249.543
87.812	15.880	2250.640	2248.797
88.826	15.949	2249.017	2247.832
89.841	16.003	2246.858	2246.130
90.855	16.127	2243.563	2244.226
91.870	16.135	2242.530	2243.032
92.884	16.037	2242.122	2241.034
93.899	16.115	2240.708	2240.405
94.914	16.970	2243.232	2254.085
95.928	19.448	2250.830	2294.611
96.943	20.379	2248.507	2304.395
97.957	17.799	2237.541	2258.587
98.972	16.119	2232.158	2230.567
99.987	16.038	2228.254	2225.330
101.001	15.936	2226.192	2221.646
102.016	16.012	2224.105	2220.300
103.030	15.880	2221.826	2216.012
104.045	15.889	2220.074	2214.120
105.060	15.901	2217.147	2211.102
106.074	15.931	2216.292	2210.373
107.089	16.001	2214.873	2209.625
108.103	16.024	2213.045	2207.828
109.118	15.990	2212.530	2206.611
110.133	16.192	2210.471	2206.949
111.147	16.091	2207.957	2202.851
112.162	16.009	2207.247	2200.791
113.176	16.290	2204.363	2201.342
114.191	16.257	2203.445	2199.732
115.206	16.245	2201.763	2197.634
116.220	16.225	2198.927	2194.281
117.235	16.230	2197.208	2192.364
118.249	16.237	2196.051	2191.041
119.264	16.264	2194.238	2189.320
120.279	16.023	2193.227	2184.906
121.293	16.299	2190.235	2185.254
122.308	16.104	2190.152	2182.371
123.322	16.139	2188.082	2180.507
124.337	16.632	2188.946	2187.515
125.352	19.491	2197.686	2233.229
126.366	20.159	2195.185	2239.086
127.381	17.388	2184.011	2191.585
128.395	16.214	2178.907	2171.034
129.410	16.036	2176.749	2166.329
130.424	16.023	2174.290	2163.443
131.439	16.099	2172.844	2162.725
132.454	16.144	2172.363	2162.568
133.468	16.263	2170.225	2161.716
134.483	16.535	2168.078	2162.815
135.497	16.556	2167.770	2162.523
136.512	16.452	2164.450	2157.614
137.527	16.277	2163.644	2154.305
138.541	16.086	2161.625	2149.588
139.556	16.071	2161.142	2148.659
140.570	16.085	2159.338	2146.788
141.585	16.027	2156.405	2142.873
142.600	16.001	2154.279	2140.172
143.614	15.999	2153.251	2138.878
144.629	15.886	2152.203	2136.131
145.643	15.888	2149.628	2133.351
146.658	15.894	2148.432	2131.985
147.673	15.970	2145.191	2129.472
148.687	15.853	2145.658	2128.199
149.702	16.102	2144.191	2129.649
150.716	15.995	2144.363	2128.207
151.731	16.107	2142.530	2127.555
152.746	16.123	2141.464	2126.451
153.760	16.924	2143.913	2138.776
154.775	19.689	2151.752	2181.473
155.789	20.606	2149.815	2190.867
156.804	17.920	2138.826	2145.529
157.819	16.260	2132.485	2117.992
158.833	15.958	2128.482	2109.959
159.848	16.113	2126.531	2109.724
160.862	16.173	2124.970	2108.675
161.877	16.205	2124.947	2108.806
162.892	16.227	2124.192	2108.077
163.906	16.279	2122.556	2106.853
164.921	16.308	2121.063	2105.475
165.935	16.189	2118.801	2101.499
166.950	16.434	2117.223	2102.747
167.964	16.255	2115.284	2098.328
168.979	16.005	2113.251	2092.933
169.994	15.999	2109.798	2089.198
171.008	16.020	2108.069	2087.490
172.023	15.953	2107.381	2085.731
173.037	15.976	2107.087	2085.473
174.052	16.164	2105.881	2086.370
175.067	16.118	2103.296	2082.986
176.081	15.945	2102.000	2079.309
177.096	16.032	2100.909	2079.056
178.110	16.042	2099.638	2077.679
179.125	16.150	2098.161	2077.305
180.140	16.128	2097.199	2075.822
181.154	16.234	2096.046	2075.749
182.169	16.300	2095.716	2075.994
183.183	17.213	2097.150	2088.442
184.198	20.172	2104.797	2132.441
185.213	20.574	2102.323	2134.641
186.227	17.601	2093.139	2088.485
187.242	16.434	2087.893	2068.655
188.256	16.220	2085.622	2063.521
189.271	16.121	2083.785	2060.241
190.286	16.121	2081.872	2058.107
191.300	16.099	2079.774	2055.512
192.315	16.109	2077.813	2053.452
193.329	16.280	2077.519	2055.008
194.344	16.593	2076.363	2057.449
195.359	16.681	2075.156	2057.083
196.373	16.450	2072.952	2051.828
197.388	16.171	2069.682	2044.942
198.402	16.141	2067.265	2041.950
199.417	15.971	2065.819	2038.210
200.432	16.079	2064.691	2038.161
201.446	16.189	2063.514	2038.091
202.461	15.992	2061.078	2033.053
203.475	15.970	2059.493	2030.979
204.490	16.055	2057.348	2029.653
205.504	16.049	2055.787	2027.793
206.519	16.248	2053.168	2027.378
207.534	16.157	2052.710	2025.580
208.548	16.100	2051.562	2023.515
209.563	16.360	2049.233	2024.116
210.577	16.330	2049.527	2023.794
211.592	16.330	2048.681	2022.723
212.607	17.745	2053.372	2044.170
213.621	21.099	2060.674	2091.675
214.636	20.424	2053.515	2076.055
215.650	17.375	2044.992	2030.654
216.665	16.402	2041.545	2015.334
217.680	16.417	2039.144	2012.896
218.694	16.253	2037.449	2009.026
219.709	16.124	2035.680	2005.492
220.723	16.172	2035.319	2005.479
221.738	16.315	2033.359	2005.006
222.753	16.507	2031.955	2005.670
223.767	16.416	2029.345	2001.771
224.782	16.252	2028.142	1998.400
225.796	16.198	2026.598	1995.997
226.811	16.414	2024.151	1995.913
227.826	16.282	2023.778	1993.732
228.840	16.156	2021.612	1989.869
229.855	16.091	2020.645	1987.906
230.869	16.217	2018.192	1986.748
231.884	16.160	2016.970	1984.640
232.899	16.123	2015.004	1982.026
233.913	16.217	2013.759	1981.675
234.928	16.083	2013.903	1979.992
235.942	16.089	2011.811	1977.768
236.957	16.107	2009.562	1975.535
237.972	16.145	2008.496	1974.705
238.986	16.103	2007.851	1973.336
240.001	16.050	2006.764	1971.408
241.015	16.177	2005.775	1971.688
242.030	16.963	2007.985	1982.866
243.045	19.831	2013.975	2022.298
244.059	20.063	2010.813	2021.602
245.074	17.497	2000.225	1980.747
246.088	16.481	1997.096	1965.536
247.103	16.581	1995.980	1965.377
248.117	16.521	1994.645	1963.128
249.132	16.279	1992.352	1957.810
250.147	16.200	1990.776	1955.106
251.161	16.261	1988.498	1953.351
252.176	16.591	1987.679	1956.149
253.190	16.813	1985.737	1956.572
254.205	16.838	1984.687	1955.601
255.220	16.811	1983.405	1953.780
256.234	16.516	1982.003	1948.756
257.249	16.490	1979.734	1945.985
258.263	16.382	1978.798	1943.588
259.278	16.491	1978.345	1944.170
260.293	16.298	1976.126	1939.526
261.307	16.210	1972.870	1935.086
262.322	16.050	1971.917	1932.076
263.336	16.119	1969.869	1930.629
264.351	15.899	1969.077	1927.096
265.366	15.862	1966.868	1924.274
266.380	15.964	1966.242	1924.600
267.395	16.015	1965.635	1924.368
268.409	16.079	1963.836	1923.106
269.424	16.026	1962.905	1921.360
270.439	16.168	1962.101	1921.966
271.453	17.286	1964.497	1936.894
272.468	20.123	1969.973	1974.602
273.482	20.303	1965.872	1972.301
274.497	17.569	1955.802	1930.861
275.512	16.327	1951.947	1912.688
276.526	16.186	1949.076	1908.044
277.541	16.130	1947.257	1905.402
278.555	15.966	1946.846	1902.907
279.570	15.969	1943.828	1899.767
280.585	16.148	1943.260	1901.003
281.599	16.272	1941.571	1900.528
282.614	16.451	1941.152	1901.920
283.628	16.477	1941.871	1902.689
284.643	16.794	1939.580	1903.794
285.657	16.888	1939.530	1904.585
286.672	16.938	1937.438	1902.863
287.687	16.740	1936.042	1899.039
288.701	16.686	1934.509	1896.697
289.716	16.684	1933.067	1895.028
290.730	16.828	1930.908	1894.309
291.745	16.907	1929.664	1893.746
292.760	16.798	1929.152	1891.798
293.774	16.606	1928.797	1889.066
294.789	16.527	1926.296	1885.506
295.803	16.508	1923.585	1882.406
296.818	16.202	1922.964	1878.153
297.833	16.542	1920.998	1879.806
298.847	16.518	1919.734	1878.085
299.862	16.522	1918.202	1876.395
300.876	17.185	1920.660	1885.976
301.891	20.202	1927.262	1925.964
302.906	20.521	1924.186	1926.222
303.920	17.566	1915.387	1884.362
304.935	16.630	1911.398	1869.823
305.949	16.499	1909.504	1866.290
306.964	16.321	1908.534	1863.149
307.979	16.575	1906.170	1863.436
308.993	16.789	1905.733	1865.154
310.008	17.005	1904.724	1866.322
311.022	17.079	1902.364	1864.610
312.037	16.812	1900.708	1859.817
313.052	16.760	1899.064	1857.416
314.066	16.827	1897.867	1856.763
315.081	16.863	1897.336	1856.408
316.095	16.886	1895.786	1854.928
317.110	16.656	1894.032	1850.457
318.125	16.522	1892.005	1846.782
319.139	16.524	1890.151	1844.783
320.154	16.671	1888.839	1844.887
321.168	16.487	1887.338	1841.183
322.183	16.471	1885.205	1838.710
323.197	16.239	1885.030	1835.780
324.212	16.125	1882.136	1831.502
325.227	15.947	1881.142	1828.370
326.241	16.086	1878.657	1827.253
327.256	16.189	1877.178	1826.715
328.270	16.102	1876.884	1825.266
329.285	16.022	1877.754	1825.023
330.300	17.207	1882.149	1841.992
331.314	20.388	1887.258	1881.478
332.329	20.360	1881.653	1875.362
333.343	17.264	1871.885	1831.908
334.358	16.150	1868.895	1816.705
335.373	16.120	1866.491	1813.837
336.387	15.878	1864.013	1808.597
337.402	16.004	1862.574	1808.344
338.416	16.156	1861.898	1809.111
339.431	16.142	1860.720	1807.592
340.446	16.254	1858.879	1806.796
341.460	16.483	1858.004	1808.189
342.475	16.537	1858.112	1808.660
343.489	16.663	1855.969	1807.708
344.504	16.673	1855.191	1806.841
345.519	16.701	1854.492	1806.243
346.533	16.910	1852.842	1806.664
347.548	16.953	1851.637	1805.731
348.562	16.843	1849.368	1802.126
349.577	16.766	1849.740	1801.453
350.592	17.143	1847.666	1803.240
351.606	17.085	1847.326	1802.069
352.621	17.092	1844.998	1799.655
353.635	16.712	1843.168	1793.611
354.650	16.609	1841.451	1790.635
355.665	16.425	1839.590	1786.652
356.679	16.363	1838.089	1784.327
357.694	16.342	1836.388	1782.236
358.708	16.310	1835.759	1781.076
359.723	17.625	1839.312	1798.266
360.738	20.593	1844.222	1834.374
361.752	20.020	1838.792	1822.687
362.767	17.379	1831.178	1787.076
363.781	16.462	1828.466	1774.542
364.796	16.385	1826.959	1772.053
365.810	16.293	1825.150	1769.120
366.825	16.299	1824.880	1768.706
367.840	16.551	1824.931	1771.200
368.854	16.624	1823.756	1770.609
369.869	16.355	1821.506	1765.391
370.883	16.330	1819.747	1763.215
371.898	16.274	1817.873	1760.601
372.913	16.145	1817.691	1758.858
373.927	16.287	1816.282	1758.768
374.942	16.474	1815.433	1759.695
375.956	16.613	1813.418	1758.982
376.971	16.444	1811.825	1755.460
377.986	16.336	1809.992	1752.347
379.000	16.261	1808.705	1750.117
380.015	16.309	1807.239	1748.983
381.029	16.313	1804.395	1746.063
382.044	16.011	1802.916	1741.294
383.059	16.130	1800.727	1740.202
384.073	16.084	1799.962	1738.774
385.088	16.103	1799.627	1738.440
386.102	16.110	1797.601	1736.355
387.117	16.033	1795.489	1733.306
388.132	16.271	1795.172	1735.251
389.146	17.304	1799.265	1749.692
390.161	20.501	1805.417	1788.595
391.175	20.075	1797.834	1776.480
392.190	17.064	1789.115	1736.729
393.205	16.380	1786.067	1726.537
394.219	16.288	1785.219	1724.569
395.234	16.199	1783.798	1722.074
396.248	16.340	1781.499	1721.093
397.263	16.126	1779.275	1716.548
398.278	16.169	1777.789	1715.352
399.292	16.142	1777.047	1714.156
400.307	16.129	1776.668	1713.445
401.321	16.285	1775.558	1713.765
402.336	16.427	1774.371	1713.864
403.350	16.529	1773.571	1713.922
404.365	16.418	1772.340	1711.398
405.380	16.814	1771.471	1714.383
406.394	16.889	1770.352	1713.857
407.409	16.821	1769.205	1711.848
408.423	16.967	1768.223	1712.173
409.438	16.904	1766.012	1709.190
410.453	16.719	1765.247	1706.374
411.467	16.998	1764.010	1707.795
412.482	16.653	1763.264	1703.380
413.496	16.505	1760.184	1698.703
414.511	16.568	1757.789	1696.824
415.526	16.418	1756.020	1693.407
416.540	16.361	1754.528	1691.186
417.555	16.430	1753.500	1690.689
418.569	16.587	1754.646	1693.171
419.584	16.664	1754.918	1694.008
420.599	16.548	1754.574	1692.304
421.613	16.524	1752.458	1689.826
422.628	16.506	1750.815	1687.855
423.642	16.424	1748.731	1684.826
424.657	16.381	1747.677	1683.173
425.672	16.437	1746.384	1682.284
426.686	16.422	1745.149	1680.748
427.701	16.482	1743.750	1679.795
428.715	16.552	1742.238	1678.836
429.730	16.762	1741.760	1680.270
430.745	16.781	1739.417	1678.000
431.759	16.880	1739.945	1679.293
432.774	17.285	1740.282	1683.451
433.788	17.834	1739.985	1688.426
434.803	17.936	1740.197	1689.442
435.818	17.860	1739.802	1688.103
436.832	17.785	1738.561	1685.949
437.847	16.916	1730.905	1669.725
438.861	9.178	1711.520	1574.833
439.876	1.565	1696.681	1486.406
440.890	0.262	1692.824	1470.069
441.905	0.188	1691.747	1468.235
442.920	0.184	1691.082	1467.442
443.934	0.258	1688.927	1466.122
444.949	0.075	1688.783	1464.031
445.963	0.098	1687.760	1463.198
446.978	0.123	1686.884	1462.501
447.993	0.082	1685.418	1460.661
449.007	0.105	1683.600	1459.133
450.022	0.294	1680.621	1458.211
451.036	0.182	1679.938	1456.358
452.051	1.100	1684.076	1468.719
453.066	8.532	1700.071	1555.357
454.080	16.084	1711.625	1639.835
455.095	17.504	1714.952	1656.718
456.109	17.866	1715.656	1660.745
457.124	18.173	1713.637	1661.594
458.139	18.191	1713.463	1661.403
459.153	18.210	1713.026	1660.957
460.168	18.340	1710.531	1659.607
461.182	18.215	1709.014	1656.718
462.197	18.273	1707.018	1655.153
463.212	18.179	1705.548	1652.621
464.226	18.178	1704.266	1651.166
465.241	18.169	1703.899	1650.525
466.255	18.417	1702.017	1650.910
467.270	18.332	1701.160	1649.059
468.285	18.165	1699.761	1645.886
469.299	18.101	1698.825	1644.169
470.314	18.242	1697.030	1643.597
471.328	18.394	1694.829	1642.732
472.343	18.259	1693.981	1640.414
473.358	18.140	1693.746	1638.841
474.372	18.379	1691.404	1638.677
475.387	18.302	1689.884	1636.267
476.401	18.087	1689.102	1633.253
477.416	18.030	1687.862	1631.315
478.430	18.110	1686.627	1630.688
479.445	18.178	1685.179	1629.740
480.460	18.052	1683.895	1627.098
481.474	18.072	1682.938	1626.176
482.489	18.258	1681.852	1626.706
483.503	18.376	1680.311	1626.151
484.518	18.274	1679.321	1624.017
485.533	18.352	1677.812	1623.116
486.547	18.289	1676.732	1621.268
487.562	18.528	1675.235	1621.908
488.576	18.532	1674.017	1620.570
489.591	18.484	1672.470	1618.423
490.606	18.333	1671.293	1615.655
491.620	18.529	1669.421	1615.511
492.635	18.601	1668.567	1615.171
493.649	18.675	1667.817	1614.957
494.664	18.503	1665.517	1610.910
495.679	18.279	1664.070	1607.203
496.693	18.215	1662.992	1605.368
497.708	18.128	1662.517	1603.893
498.722	18.576	1660.928	1606.385
499.737	18.608	1659.682	1605.290
500.752	18.445	1657.425	1601.382
501.766	18.367	1656.407	1599.476
502.781	18.329	1655.416	1597.973
503.795	18.469	1652.974	1596.733
504.810	18.410	1652.870	1595.886
505.825	18.466	1652.374	1595.748
506.839	18.515	1651.534	1595.197
507.854	18.553	1650.368	1594.237
508.868	18.468	1648.048	1591.016
509.883	18.449	1647.463	1590.082
510.898	18.555	1646.904	1590.337
511.912	18.559	1644.335	1587.708
512.927	18.428	1642.039	1584.081
513.941	18.481	1641.112	1583.487
514.956	18.379	1639.797	1581.086
515.971	18.314	1638.760	1579.296
516.985	18.310	1637.863	1578.205
518.000	18.514	1637.215	1579.275
519.014	18.591	1637.326	1579.913
520.029	18.705	1635.245	1578.770
521.043	18.672	1633.586	1576.673
522.058	18.641	1632.248	1574.903
523.073	18.600	1631.733	1573.843
524.087	18.951	1630.797	1575.984
525.102	18.997	1628.692	1574.185
526.116	18.500	1627.792	1568.552
527.131	18.472	1625.962	1566.352
528.146	18.745	1625.759	1568.475
529.160	18.695	1625.212	1567.294
530.175	18.797	1624.106	1566.980
531.189	18.898	1623.020	1566.664
532.204	18.821	1621.457	1564.263
533.219	18.605	1619.878	1560.578
534.233	18.441	1618.648	1557.715
535.248	18.606	1618.365	1558.763
536.262	18.965	1616.797	1560.335
537.277	18.916	1615.316	1558.272
538.292	18.629	1613.732	1553.952
539.306	18.739	1611.869	1552.968
540.321	18.648	1610.047	1550.202
541.335	18.623	1609.603	1549.360
542.350	18.631	1609.399	1549.053
543.365	18.866	1606.987	1548.673
544.379	18.745	1605.900	1546.342
545.394	18.907	1604.476	1546.255
546.408	18.659	1603.081	1542.483
547.423	18.394	1601.974	1538.842
548.438	18.404	1599.803	1536.665
549.452	18.594	1599.214	1537.627
550.467	18.754	1598.577	1538.269
551.481	18.781	1597.812	1537.595
552.496	18.834	1596.914	1537.022
553.511	18.990	1596.100	1537.451
554.525	18.880	1595.499	1535.702
555.540	18.953	1594.772	1535.476
556.554	18.968	1593.328	1534.039
557.569	18.944	1590.572	1530.988
558.583	18.858	1589.239	1528.750
559.598	18.850	1588.332	1527.626
560.613	18.753	1588.045	1526.301
561.627	19.089	1586.176	1527.312
562.642	18.997	1585.274	1525.442
563.656	19.113	1583.799	1524.871
564.671	19.042	1582.857	1523.156
565.686	19.120	1581.391	1522.251
566.700	19.032	1578.921	1518.910
567.715	18.836	1577.493	1515.620
568.729	18.749	1575.818	1513.058
569.744	18.591	1574.474	1510.193
570.759	18.612	1574.004	1509.740
571.773	18.660	1572.982	1509.006
572.788	18.820	1571.891	1509.190
573.802	18.893	1570.092	1507.924
574.817	18.952	1569.695	1507.884
575.832	19.116	1568.562	1508.058
576.846	19.129	1567.311	1506.791
577.861	18.984	1566.152	1504.226
578.875	19.110	1565.572	1504.595
579.890	19.283	1564.890	1505.278
580.905	19.232	1563.348	1503.169
581.919	19.152	1563.636	1502.564
582.934	19.308	1562.205	1502.373
583.948	19.316	1560.719	1500.834
584.963	19.088	1559.811	1497.789
585.978	18.971	1558.651	1495.474
586.992	19.170	1557.506	1495.930
588.007	19.304	1555.981	1495.457
589.021	18.951	1554.119	1490.416
590.036	18.799	1552.556	1487.414
591.051	18.831	1551.618	1486.615
592.065	19.054	1550.767	1487.559
593.080	19.329	1548.986	1488.062
594.094	19.342	1546.993	1486.082
595.109	18.933	1546.235	1481.631
596.123	18.859	1544.664	1479.306
597.138	19.162	1543.197	1480.348
598.153	19.324	1542.472	1480.870
599.167	19.179	1541.532	1478.544
600.182	19.156	1540.573	1477.246
601.196	19.233	1540.073	1477.254
602.211	19.238	1538.807	1475.903
603.226	19.345	1537.586	1475.479
604.240	19.390	1535.863	1474.035
605.255	19.447	1535.493	1473.991
606.269	19.328	1534.823	1472.154
607.284	19.446	1533.405	1471.624
608.299	19.360	1531.302	1468.697
609.313	19.257	1530.666	1467.026
610.328	19.285	1529.053	1465.546
611.342	19.300	1527.922	1464.413
612.357	19.476	1527.488	1465.322
613.372	19.352	1526.206	1462.862
614.386	19.316	1525.214	1461.433
615.401	19.362	1524.380	1460.846
616.415	19.478	1523.616	1460.927
617.430	19.616	1522.573	1460.925
618.445	19.587	1521.652	1459.625
619.459	19.397	1520.626	1456.846
620.474	19.281	1518.497	1453.653
621.488	18.990	1516.521	1449.119
622.503	18.727	1515.122	1445.382
623.518	19.037	1515.171	1447.883
624.532	19.269	1514.310	1448.844
625.547	19.438	1513.765	1449.576
626.561	19.506	1512.930	1449.180
627.576	19.644	1511.685	1448.977
628.591	19.281	1509.461	1443.617
629.605	18.988	1507.967	1439.551
630.620	18.951	1506.790	1437.944
631.634	18.748	1505.903	1435.219
632.649	18.901	1505.048	1435.517
633.663	19.102	1503.864	1435.905
634.678	19.396	1502.992	1437.362
635.693	19.517	1501.570	1436.843
636.707	19.760	1500.424	1437.606
637.722	19.811	1499.845	1437.302
638.736	19.696	1499.230	1435.583
639.751	19.634	1498.371	1434.067
640.766	19.670	1496.345	1432.262
641.780	19.657	1494.799	1430.502
642.795	19.711	1493.449	1429.488
643.809	19.708	1493.414	1429.257
644.824	19.695	1492.393	1428.000
645.839	19.452	1491.804	1425.251
646.853	19.642	1490.182	1425.106
647.868	19.777	1487.980	1423.944
648.882	19.597	1487.575	1421.899
649.897	19.613	1486.011	1420.367
650.912	19.484	1484.765	1417.940
651.926	19.591	1483.248	1417.204
652.941	19.323	1482.140	1413.768
653.955	19.092	1479.809	1409.471
654.970	19.101	1477.455	1407.131
655.985	18.966	1476.973	1405.401
656.999	19.187	1475.720	1405.852
658.014	19.291	1474.508	1405.378
659.028	19.343	1474.114	1405.262
660.043	19.424	1474.381	1406.012
661.058	19.572	1472.669	1405.419
662.072	19.708	1471.069	1404.842
663.087	19.657	1469.936	1403.172
664.101	19.537	1470.084	1402.167
665.116	19.594	1469.313	1401.728
666.131	19.602	1468.232	1400.596
667.145	19.736	1466.466	1399.829
668.160	19.948	1464.971	1399.959
669.174	19.724	1464.718	1397.734
670.189	19.907	1462.927	1397.338
671.204	19.719	1461.993	1394.756
672.218	19.724	1461.626	1394.282
673.233	19.899	1460.096	1394.069
674.247	19.974	1459.203	1393.660
675.262	20.035	1458.467	1393.281
676.276	19.895	1457.754	1391.303
677.291	19.915	1456.712	1390.303
678.306	19.801	1454.487	1387.089
679.320	19.647	1453.439	1384.688
680.335	19.791	1453.663	1385.891
681.349	19.880	1452.429	1385.272
682.364	19.962	1451.019	1384.419
683.379	19.902	1449.520	1382.342
684.393	19.724	1448.875	1380.128
685.408	19.913	1447.871	1380.521
686.422	19.755	1446.938	1378.207
687.437	19.947	1446.274	1378.942
688.452	19.964	1445.646	1378.313
689.466	19.939	1443.605	1376.002
690.481	19.799	1441.253	1372.483
691.495	19.490	1440.855	1369.476
692.510	19.211	1439.057	1365.382
693.525	18.885	1437.435	1361.085
694.539	19.234	1437.099	1363.374
695.554	19.803	1436.464	1367.131
696.568	19.851	1436.763	1367.635
697.583	19.873	1436.309	1367.215
698.598	19.972	1434.827	1366.424
699.612	20.163	1432.770	1365.820
700.627	20.165	1431.973	1364.912
701.641	20.147	1430.399	1363.106
702.656	20.146	1429.494	1362.072
703.671	20.336	1429.281	1363.201
704.685	20.291	1428.915	1362.340
705.700	20.120	1427.310	1359.297
706.714	19.990	1425.696	1356.568
707.729	19.862	1423.698	1353.501
708.744	19.674	1422.925	1351.130
709.758	19.661	1421.744	1349.742
710.773	19.560	1420.518	1347.627
711.787	19.648	1418.280	1346.032
712.802	19.588	1417.446	1344.607
713.816	19.613	1416.793	1344.024
714.831	19.908	1416.139	1345.544
715.846	20.159	1414.971	1346.232
716.860	20.215	1414.006	1345.590
717.875	20.078	1413.232	1343.623
718.889	19.985	1412.187	1341.747
719.904	20.122	1410.720	1341.263
720.919	20.172	1409.725	1340.545
721.933	20.253	1409.053	1340.371
722.948	20.284	1408.126	1339.567
723.962	20.319	1407.048	1338.652
724.977	20.440	1406.484	1338.899
725.992	20.282	1405.198	1336.286
727.006	20.243	1404.185	1334.862
728.021	20.238	1402.192	1332.774
729.035	20.284	1401.719	1332.518
730.050	20.365	1400.443	1331.768
731.065	20.207	1399.756	1329.738
732.079	20.126	1398.817	1328.061
733.094	20.116	1397.552	1326.627
734.108	20.270	1395.485	1325.689
735.123	20.152	1394.572	1323.760
736.138	20.131	1394.165	1323.053
737.152	20.185	1392.895	1322.099
738.167	20.409	1391.964	1322.773
739.181	20.339	1391.134	1321.294
740.196	20.419	1389.753	1320.431
741.211	20.396	1389.686	1320.038
742.225	20.218	1388.727	1317.612
743.240	20.299	1386.885	1316.321
744.254	20.296	1385.371	1314.704
745.269	20.181	1384.861	1313.183
746.284	20.264	1383.534	1312.398
747.298	20.037	1382.674	1309.701
748.313	19.722	1381.245	1305.799
749.327	19.506	1379.551	1302.408
750.342	19.267	1378.731	1299.668
751.356	19.005	1377.879	1296.724
752.371	19.239	1377.028	1297.534
753.386	19.877	1376.602	1301.805
754.400	20.233	1376.057	1303.825
755.415	20.371	1375.072	1303.774
756.429	20.396	1373.112	1301.951
757.444	20.367	1372.290	1300.801
758.459	20.391	1371.404	1299.984
759.473	20.407	1371.063	1299.626
760.488	20.541	1369.500	1298.991
761.502	20.440	1368.240	1296.881
762.517	20.433	1366.645	1295.163
763.532	20.341	1365.477	1293.214
764.546	20.295	1363.872	1291.196
765.561	19.781	1363.255	1286.614
766.575	19.507	1361.840	1283.079
767.590	19.559	1360.520	1282.070
768.605	19.862	1359.037	1282.776
769.619	20.157	1358.054	1283.889
770.634	20.250	1357.919	1284.299
771.648	20.322	1357.692	1284.469
772.663	20.463	1357.436	1285.118
773.678	20.457	1356.032	1283.594
774.692	20.334	1355.469	1281.996
775.707	20.490	1355.010	1282.562
776.721	20.608	1354.024	1282.348
777.736	20.509	1353.134	1280.619
778.751	20.500	1352.226	1279.540
779.765	20.517	1350.653	1278.029
780.780	20.416	1350.470	1276.951
781.794	20.424	1349.420	1275.867
782.809	20.445	1347.346	1273.908
783.824	20.357	1346.145	1271.972
784.838	19.948	1344.074	1266.854
785.853	19.465	1343.307	1262.430
786.867	19.594	1342.998	1262.936
787.882	19.715	1343.452	1264.103
788.897	20.071	1342.009	1265.205
789.911	20.113	1341.233	1264.630
790.926	20.187	1340.198	1264.049
791.940	20.306	1338.169	1262.853
792.955	20.459	1337.054	1262.770
793.969	20.412	1336.085	1261.353
794.984	20.359	1335.762	1260.517
795.999	20.428	1335.105	1260.246
797.013	20.664	1332.985	1259.809
798.028	20.582	1332.126	1258.252
799.042	20.554	1331.228	1257.054
800.057	20.640	1329.827	1256.203
801.072	20.740	1328.422	1255.447
802.086	20.629	1327.679	1253.794
803.101	20.710	1327.308	1253.880
804.115	20.635	1326.293	1252.226
805.130	20.509	1324.830	1249.787
806.145	20.610	1323.821	1249.415
807.159	20.653	1322.369	1248.205
808.174	20.549	1320.961	1245.974
809.188	20.419	1320.157	1244.131
810.203	20.254	1318.041	1240.801
811.218	20.186	1315.678	1237.946
812.232	19.899	1314.308	1234.451
813.247	19.772	1313.413	1232.549
814.261	19.896	1314.260	1234.083
815.276	20.357	1313.211	1236.250
816.291	20.569	1311.634	1236.140
817.305	20.690	1311.205	1236.452
818.320	20.719	1310.081	1235.444
819.334	20.570	1309.266	1233.468
820.349	20.730	1307.386	1232.686
821.364	20.644	1306.309	1230.913
822.378	20.831	1304.111	1230.026
823.393	20.769	1302.813	1228.211
824.407	20.670	1302.651	1227.209
825.422	20.566	1301.908	1225.630
826.437	20.586	1300.050	1223.872
827.451	20.476	1298.190	1221.200
828.466	20.001	1296.255	1215.880
829.480	19.845	1294.110	1212.622
830.495	19.938	1293.591	1212.647
831.509	20.139	1293.409	1213.749
832.524	20.275	1292.874	1214.059
833.539	20.400	1292.240	1214.194
834.553	20.727	1290.417	1214.632
835.568	20.587	1289.733	1212.862
836.582	20.837	1289.125	1213.893
837.597	20.721	1287.435	1211.346
838.612	20.666	1286.279	1209.732
839.626	20.561	1285.347	1207.976
840.641	20.574	1283.706	1206.376
841.655	20.119	1282.521	1201.949
842.670	19.945	1280.791	1198.973
843.685	19.501	1280.450	1195.419
844.699	20.049	1279.623	1198.319
845.714	20.290	1278.315	1198.621
846.728	20.394	1278.001	1198.906
847.743	20.676	1276.759	1199.547
848.758	20.614	1275.804	1198.078
849.772	20.650	1274.275	1196.750
850.787	20.793	1272.433	1195.866
851.801	20.685	1271.605	1194.200
852.816	20.586	1270.387	1192.227
853.831	20.654	1269.134	1191.379
854.845	20.443	1267.457	1188.212
855.860	20.353	1265.818	1185.912
856.874	20.394	1264.431	1184.751
857.889	20.273	1262.469	1181.947
858.904	19.865	1261.223	1177.844
859.918	19.638	1259.327	1174.385
860.933	19.452	1258.255	1171.975
861.947	19.885	1258.164	1174.702
862.962	20.070	1257.510	1175.217
863.977	20.056	1256.478	1174.014
864.991	20.256	1256.330	1175.093
866.006	20.470	1256.088	1176.182
867.020	20.660	1254.037	1175.417
868.035	20.703	1252.993	1174.586
869.049	20.721	1251.974	1173.616
870.064	20.752	1251.918	1173.630
871.079	20.842	1250.891	1173.136
872.093	20.648	1250.232	1171.069
873.108	20.639	1249.480	1170.159
874.122	20.502	1247.627	1167.361
875.137	20.206	1247.026	1164.663
876.152	20.185	1245.706	1163.149
877.166	20.181	1244.258	1161.629
878.181	20.335	1243.098	1161.439
879.195	20.704	1242.653	1163.365
880.210	20.733	1242.260	1163.053
881.225	20.686	1241.379	1161.773
882.239	20.779	1239.863	1160.842
883.254	20.847	1238.834	1160.197
884.268	20.861	1238.808	1160.125
885.283	21.057	1236.900	1159.508
886.298	20.737	1235.470	1155.894
887.312	20.884	1234.396	1155.729
888.327	20.794	1233.319	1153.983
889.341	20.820	1232.037	1152.819
890.356	20.718	1231.556	1151.556
891.371	20.482	1231.615	1149.904
892.385	20.374	1230.795	1148.283
893.400	20.512	1229.359	1147.717
894.414	20.484	1227.905	1146.040
895.429	20.312	1225.092	1142.142
896.444	19.818	1222.934	1136.725
897.458	19.512	1221.407	1133.150
898.473	19.801	1221.894	1135.373
899.487	20.206	1222.161	1138.161
900.502	20.550	1220.999	1139.211
901.517	20.430	1219.772	1137.140
902.531	20.865	1219.058	1139.196
903.546	20.762	1218.388	1137.758
904.560	20.641	1217.953	1136.420
905.575	20.859	1217.119	1136.938
906.589	20.794	1216.419	1135.718
907.604	20.728	1215.215	1134.029
