DTS Sentinel unit serial number:	SN409020Multiplexer serial number:	ORYXHardware model number:	OX4-SRSoftware version number:	ORYX F/W v3.00 Oryx Data Collector v3.7.2.0data status	okinstallation	HaddamTimeLapsedifferential loss correction	single-endedforward channel	channel 3reverse channel	N/Adate	2011/06/22time	08:46:16forward acquisition time	30.00reverse acquisition time	0.00gamma	498.7831k internal	0.1791k external	0.1791temperature offset calibration	1.0074default loss term (dB/km)	0.3790temperature slope calibration	1.3530multiplexer offset coefficient	1.0000multiplexer slope coefficient	1.0000fibre end	0.00T internal ref (°C)	26.75T ext. ref 1 (°C)	24.37T ext. ref 2 (°C)	0.17length (m)	temperature (°C)	Stokes	anti-Stokes-747.200	92.804	0.244	0.359
-746.185	-9.392	-0.164	0.142
-745.171	-200.000	0.041	-0.340
-744.156	800.000	0.080	0.417
-743.142	-103.544	-0.597	-0.181
-742.127	-200.000	-0.005	0.115
-741.112	-200.000	0.047	0.432
-740.098	-51.068	0.260	0.158
-739.083	3.214	-0.073	0.069
-738.069	766.838	0.087	-0.310
-737.054	-37.310	-0.472	-0.327
-736.039	-14.258	-0.292	0.244
-735.025	-56.961	-0.023	0.013
-734.010	-149.401	0.750	0.076
-732.996	-125.604	0.306	-0.060
-731.981	519.763	-0.097	-0.297
-730.966	-200.000	-0.030	0.175
-729.952	277.059	-0.073	0.168
-728.937	-200.000	0.008	-0.384
-727.923	-113.014	0.146	-0.037
-726.908	800.000	0.026	0.134
-725.894	7.154	0.057	-0.055
-724.879	800.000	0.035	0.189
-723.864	-27.150	0.321	0.243
-722.850	-17.323	0.174	0.142
-721.835	-46.948	-0.224	0.141
-720.821	504.410	0.089	-0.269
-719.806	-53.208	0.361	-0.214
-718.791	215.836	0.224	0.464
-717.777	-200.000	0.008	-0.251
-716.762	-169.755	0.130	-0.006
-715.748	114.806	-0.290	-0.460
-714.733	-124.891	-0.194	-0.038
-713.718	-58.094	0.106	0.060
-712.704	84.501	-0.242	0.343
-711.689	-200.000	-0.320	0.001
-710.675	-94.837	0.737	0.258
-709.660	75.214	-0.066	0.090
-708.645	735.694	0.075	-0.261
-707.631	25.192	0.175	0.189
-706.616	-42.958	0.349	0.229
-705.602	-158.254	0.208	0.016
-704.587	-200.000	0.093	-0.610
-703.572	-200.000	-0.011	0.247
-702.558	800.000	0.110	-0.444
-701.543	800.000	-0.049	0.242
-700.529	800.000	0.167	0.707
-699.514	477.927	0.085	0.250
-698.499	-200.000	-0.006	0.267
-697.485	126.087	-0.340	-0.558
-696.470	-78.868	-0.594	-0.261
-695.456	75.278	-0.197	-0.270
-694.441	-200.000	-0.025	0.414
-693.426	459.404	-0.043	0.124
-692.412	-27.107	0.288	-0.217
-691.397	18.846	-0.216	-0.224
-690.383	38.709	-0.359	-0.415
-689.368	-200.000	0.048	0.330
-688.354	-130.998	0.312	0.053
-687.339	-200.000	0.000	-0.069
-686.324	321.133	-0.129	0.319
-685.310	67.343	0.166	-0.220
-684.295	-121.317	0.246	0.053
-683.281	-13.860	-0.402	0.336
-682.266	-36.655	-0.250	0.174
-681.251	-200.000	-0.012	-0.556
-680.237	-132.359	0.438	-0.073
-679.222	-118.435	-0.219	0.050
-678.208	-72.147	-0.109	0.052
-677.193	-200.000	0.012	-0.148
-676.178	-13.918	-0.255	-0.213
-675.164	134.499	0.204	0.344
-674.149	95.859	0.242	-0.359
-673.135	-165.672	-0.182	-0.010
-672.120	-129.816	0.468	0.082
-671.105	38.759	0.228	-0.264
-670.091	60.278	-0.126	0.162
-669.076	-79.426	-0.259	-0.113
-668.062	-200.000	0.055	-0.535
-667.047	-137.353	-0.254	-0.037
-666.032	-94.104	-0.375	-0.132
-665.018	292.355	-0.030	-0.071
-664.003	33.903	0.078	0.088
-662.989	79.275	-0.411	-0.571
-661.974	-148.035	-0.541	0.057
-660.959	-200.000	0.007	-0.293
-659.945	159.717	0.051	-0.092
-658.930	-38.713	0.435	0.297
-657.916	257.613	0.192	-0.429
-656.901	-0.710	0.383	-0.351
-655.886	77.998	0.247	-0.341
-654.872	93.762	0.286	-0.420
-653.857	-20.398	-0.268	-0.213
-652.843	-22.611	-0.312	0.244
-651.828	43.400	-0.176	0.209
-650.814	378.401	0.060	-0.160
-649.799	-109.117	-0.320	-0.088
-648.784	800.000	-0.053	-0.270
-647.770	-168.191	-0.248	-0.012
-646.755	-200.000	0.078	-0.476
-645.741	-156.776	-0.264	-0.021
-644.726	800.000	-0.078	0.317
-643.711	447.913	-0.091	0.261
-642.697	-126.788	-0.169	-0.032
-641.682	58.199	0.073	-0.092
-640.668	67.344	0.117	0.155
-639.653	-21.262	-0.378	-0.298
-638.638	-115.775	-0.108	0.026
-637.624	126.015	-0.187	-0.306
-636.609	-200.000	0.048	0.000
-635.595	-90.510	-0.225	-0.084
-634.580	-99.890	0.420	-0.135
-633.565	356.393	-0.119	0.309
-632.551	-62.330	0.104	0.056
-631.536	249.508	-0.081	0.178
-630.522	-200.000	-0.024	-0.401
-629.507	699.423	0.071	-0.243
-628.492	-3.826	0.350	-0.314
-627.478	-103.880	-0.325	-0.097
-626.463	29.607	-0.323	-0.356
-625.449	-66.023	0.109	0.056
-624.434	-20.792	0.152	0.120
-623.419	-200.000	-0.038	-0.484
-622.405	-97.922	0.217	0.072
-621.390	800.000	-0.049	0.282
-620.376	-114.838	-0.236	0.058
-619.361	504.338	0.087	0.262
-618.346	-110.883	0.249	-0.066
-617.332	-200.000	-0.009	-0.220
-616.317	-12.808	-0.164	-0.138
-615.303	-149.260	0.266	0.027
-614.288	800.000	0.081	-0.410
-613.273	-57.009	0.198	-0.113
-612.259	800.000	0.114	0.510
-611.244	-85.615	-0.106	-0.042
-610.230	71.241	-0.446	0.599
-609.215	348.868	-0.156	0.401
-608.201	38.322	-0.060	0.069
-607.186	363.588	-0.103	-0.269
-606.171	-54.232	-0.448	0.262
-605.157	-48.288	-0.234	-0.146
-604.142	-200.000	0.022	-0.673
-603.128	-2.919	-0.279	0.251
-602.113	-16.900	-0.156	0.127
-601.098	-154.800	0.204	0.017
-600.084	288.833	-0.097	-0.228
-599.069	-200.000	0.038	-0.220
-598.055	31.890	-0.164	0.182
-597.040	-29.964	-0.407	0.299
-596.025	-8.933	0.285	0.246
-595.011	421.629	0.074	0.206
-593.996	-93.918	-0.177	-0.063
-592.982	-200.000	0.010	-0.422
-591.967	-126.989	-0.413	-0.078
-590.952	-102.308	-0.290	0.089
-589.938	-43.399	-0.242	-0.157
-588.923	-60.279	0.196	-0.107
-587.909	155.038	-0.061	-0.108
-586.894	21.679	-0.059	0.062
-585.879	800.000	0.064	-0.240
-584.865	-152.292	0.189	-0.017
-583.850	132.879	-0.184	-0.307
-582.836	3.205	0.268	-0.251
-581.821	-28.145	0.203	0.151
-580.806	-30.775	-0.232	-0.169
-579.792	-95.693	0.259	0.089
-578.777	-103.215	-0.249	0.075
-577.763	-108.695	0.357	0.098
-576.748	118.129	-0.074	0.119
-575.733	800.000	-0.080	0.409
-574.719	-80.309	0.252	0.108
-573.704	384.870	0.105	0.280
-572.690	171.884	-0.162	0.301
-571.675	-7.352	0.083	-0.073
-570.661	-12.642	0.032	-0.027
-569.646	-108.254	0.451	-0.125
-568.631	127.760	0.141	0.232
-567.617	-70.556	-0.061	-0.030
-566.602	-137.846	-0.234	0.033
-565.588	50.017	-0.096	0.117
-564.573	374.230	-0.098	-0.258
-563.558	800.000	-0.085	-0.454
-562.544	9.185	0.273	0.266
-561.529	800.000	0.041	0.189
-560.515	137.846	0.136	0.230
-559.500	-119.578	0.141	0.031
-558.485	800.000	0.070	0.396
-557.471	200.633	0.133	-0.264
-556.456	39.167	0.235	-0.271
-555.442	97.127	-0.235	-0.348
-554.427	-143.465	0.366	0.045
-553.412	-159.587	0.068	0.005
-552.398	239.691	0.116	0.250
-551.383	-200.000	-0.010	-0.172
-550.369	-11.042	0.124	0.105
-549.354	800.000	-0.073	0.356
-548.339	800.000	0.073	0.354
-547.325	800.000	-0.030	0.153
-546.310	-84.708	-0.378	-0.153
-545.296	800.000	0.030	0.156
-544.281	226.217	0.172	-0.361
-543.266	-74.543	-0.203	-0.094
-542.252	-200.000	-0.016	0.094
-541.237	55.526	0.042	0.053
-540.223	-200.000	-0.028	-0.442
-539.208	-124.589	0.439	0.087
-538.193	-95.840	0.236	0.081
-537.179	-105.813	-0.303	0.088
-536.164	-59.279	0.279	-0.154
-535.150	85.990	-0.242	-0.344
-534.135	474.344	0.080	-0.235
-533.121	-32.090	0.144	-0.104
-532.106	25.231	0.251	-0.269
-531.091	479.169	0.198	0.581
-530.077	126.944	0.227	0.371
-529.062	337.288	0.104	0.263
-528.048	103.983	-0.359	0.544
-527.033	557.092	0.119	-0.372
-526.018	289.393	0.135	-0.316
-525.004	44.079	-0.246	-0.291
-523.989	255.160	0.074	-0.164
-522.975	67.473	-0.185	-0.244
-521.960	-29.689	0.048	-0.035
-520.945	-200.000	0.020	-0.238
-519.931	-47.266	-0.194	0.121
-518.916	-136.108	0.243	0.036
-517.902	-200.000	-0.024	0.231
-516.887	-62.956	0.533	0.283
-515.872	31.339	-0.336	-0.372
-514.858	-40.087	-0.302	-0.202
-513.843	-200.000	-0.004	-0.361
-512.829	-48.233	0.079	-0.049
-511.814	42.004	0.157	-0.184
-510.799	-99.303	-0.134	0.043
-509.785	46.414	-0.043	0.052
-508.770	-200.000	-0.054	0.330
-507.756	207.036	0.236	0.476
-506.741	156.737	-0.075	0.134
-505.726	-7.823	-0.212	-0.184
-504.712	158.452	0.226	-0.404
-503.697	122.990	0.039	0.062
-502.683	-29.978	0.396	-0.290
-501.668	7.202	0.196	0.188
-500.653	264.615	-0.087	-0.196
-499.639	-200.000	-0.057	-0.475
-498.624	144.432	-0.314	-0.540
-497.610	800.000	0.075	0.388
-496.595	-144.382	-0.257	0.030
-495.581	87.167	0.325	-0.462
-494.566	-200.000	0.036	0.261
-493.551	-104.226	-0.283	-0.084
-492.537	-114.176	0.240	0.059
-491.522	-119.507	0.218	-0.048
-490.508	47.277	-0.208	0.249
-489.493	-80.652	-0.117	-0.050
-488.478	104.461	-0.210	0.318
-487.464	-200.000	0.077	-0.632
-486.449	61.721	0.181	-0.232
-485.435	19.704	0.136	-0.141
-484.420	-92.825	0.147	-0.053
-483.405	-200.000	0.005	0.317
-482.391	119.392	0.163	0.260
-481.376	-200.000	-0.009	0.243
-480.362	-55.475	-0.233	-0.134
-479.347	800.000	-0.079	0.368
-478.332	-69.029	0.128	-0.063
-477.318	719.840	0.029	-0.101
-476.303	-72.778	-0.359	0.169
-475.289	208.202	-0.306	0.616
-474.274	-19.472	0.167	-0.133
-473.259	-159.827	0.501	0.035
-472.245	100.411	0.120	-0.179
-471.230	49.425	-0.179	0.217
-470.216	76.522	-0.083	-0.113
-469.201	-200.000	0.090	-0.557
-468.186	-60.605	-0.486	0.264
-467.172	-141.870	0.115	0.015
-466.157	-200.000	-0.024	0.143
-465.143	163.455	0.264	0.478
-464.128	793.610	0.058	0.206
-463.113	46.483	-0.219	0.261
-462.099	233.476	0.125	0.266
-461.084	-53.014	0.148	0.087
-460.070	-58.926	-0.237	0.131
-459.055	453.369	0.073	-0.209
-458.040	269.806	-0.099	0.225
-457.026	34.534	-0.325	-0.364
-456.011	-200.000	-0.005	-0.072
-454.997	-99.458	-0.226	-0.073
-453.982	-8.507	-0.192	0.166
-452.968	-113.107	-0.189	-0.048
-451.953	-95.269	-0.072	-0.025
-450.938	-200.000	0.063	-0.611
-449.924	-200.000	0.041	0.317
-448.909	510.590	-0.015	0.044
-447.895	-56.519	0.451	-0.256
-446.880	-172.951	0.171	0.007
-445.865	800.000	-0.059	-0.229
-444.851	800.000	0.072	0.359
-443.836	52.256	0.179	-0.220
-442.822	-75.279	-0.057	0.026
-441.807	-35.279	0.159	-0.111
-440.792	-200.000	-0.001	0.186
-439.778	-73.198	0.093	0.043
-438.763	136.390	-0.151	0.253
-437.749	227.141	0.103	-0.215
-436.734	427.956	0.108	0.300
-435.719	-104.805	0.193	-0.056
-434.705	-112.609	-0.141	-0.036
-433.690	-150.635	-0.216	0.021
-432.676	480.744	-0.082	0.241
-431.661	-200.000	0.001	0.050
-430.646	-22.435	-0.313	0.242
-429.632	-55.918	-0.138	-0.079
-428.617	-112.322	-0.193	-0.049
-427.603	-200.000	-0.056	0.607
-426.588	-63.502	-0.112	-0.059
-425.573	109.490	-0.333	-0.513
-424.559	-143.015	0.256	0.031
-423.544	-200.000	-0.050	-0.306
-422.530	47.860	0.113	-0.135
-421.515	-85.127	-0.513	0.205
-420.500	197.921	-0.169	-0.331
-419.486	-110.654	0.169	-0.045
-418.471	800.000	-0.102	0.445
-417.457	-81.608	0.372	0.156
-416.442	180.392	0.300	-0.566
-415.428	34.794	-0.424	-0.476
-414.413	-143.808	-0.167	-0.020
-413.398	-200.000	0.006	0.174
-412.384	270.886	-0.193	0.437
-411.369	-78.352	0.165	0.072
-410.355	23.585	-0.077	-0.082
-409.340	-176.510	0.395	-0.013
-408.325	87.218	-0.251	0.356
-407.311	22.788	-0.121	-0.127
-406.296	111.899	-0.064	0.100
-405.282	-121.589	-0.235	-0.050
-404.267	-85.210	-0.252	-0.100
-403.252	429.120	0.050	0.140
-402.238	283.990	-0.074	0.172
-401.223	97.703	0.321	-0.473
-400.209	45.235	0.072	-0.085
-399.194	-132.997	-0.136	-0.022
-398.179	136.593	0.135	0.227
-397.165	283.132	0.120	0.277
-396.150	324.460	0.065	0.161
-395.136	800.000	-0.056	0.288
-394.121	-200.000	0.037	-0.434
-393.106	124.181	-0.203	0.327
-392.092	-40.736	0.207	0.137
-391.077	800.000	0.125	0.638
-390.063	800.000	-0.103	0.463
-389.048	143.597	-0.008	-0.014
-388.033	-92.244	0.261	0.094
-387.019	-111.451	0.268	0.070
-386.004	3.126	-0.073	0.068
-384.990	-60.106	-0.477	0.260
-383.975	7.117	0.149	0.142
-382.960	-14.792	0.041	-0.034
-381.946	-82.372	0.146	-0.061
-380.931	44.805	-0.332	-0.391
-379.917	-200.000	0.053	-0.409
-378.902	8.747	0.222	0.214
-377.888	-117.612	-0.279	0.064
-376.873	-64.605	-0.295	0.153
-375.858	-83.797	0.177	0.072
-374.844	800.000	-0.016	0.070
-373.829	-200.000	0.014	-0.120
-372.815	233.359	0.266	-0.561
-371.800	148.782	0.230	0.399
-370.785	-200.000	0.157	0.001
-369.771	800.000	0.100	-0.527
-368.756	249.369	-0.169	-0.369
-367.742	-42.696	-0.603	-0.391
-366.727	-75.554	0.454	-0.206
-365.712	800.000	-0.036	0.137
-364.698	800.000	0.065	0.349
-363.683	17.671	0.202	-0.206
-362.669	-55.852	0.199	0.113
-361.654	55.040	-0.127	0.157
-360.639	234.650	-0.095	0.202
-359.625	-200.000	-0.042	0.553
-358.610	-200.000	0.645	0.003
-357.596	179.196	-0.226	-0.425
-356.581	-42.768	-0.306	-0.198
-355.566	307.902	-0.036	-0.087
-354.552	-111.208	-0.625	0.162
-353.537	273.704	0.127	0.289
-352.523	-32.504	0.209	0.149
-351.508	-200.000	0.028	-0.207
-350.493	-200.000	-0.047	-0.314
-349.479	127.231	-0.198	-0.322
-348.464	800.000	0.037	-0.171
-347.450	-200.000	0.070	-0.468
-346.435	-134.614	-0.200	-0.031
-345.420	-200.000	-0.373	0.001
-344.406	-141.088	0.131	0.017
-343.391	-200.000	0.017	0.348
-342.377	-109.766	0.384	-0.103
-341.362	-46.387	-0.297	-0.186
-340.348	-46.833	0.185	0.115
-339.333	515.887	0.004	0.012
-338.318	-155.326	-0.255	0.021
-337.304	153.311	-0.086	-0.151
-336.289	527.985	0.052	-0.159
-335.275	-46.294	-0.417	0.262
-334.260	387.822	-0.100	0.266
-333.245	111.865	-0.103	0.159
-332.231	79.019	0.344	0.471
-331.216	-200.000	0.003	-0.123
-330.202	98.546	-0.147	-0.216
-329.187	-56.322	-0.350	-0.198
-328.172	-21.294	-0.158	0.123
-327.158	14.382	0.090	0.089
-326.143	118.576	-0.094	0.148
-325.129	-181.101	0.274	0.007
-324.114	-113.626	0.384	-0.095
-323.099	117.156	-0.277	-0.435
-322.085	800.000	-0.115	0.550
-321.070	763.885	0.044	-0.154
-320.056	800.000	0.034	-0.157
-319.041	-119.260	-0.241	0.053
-318.026	544.183	-0.113	0.348
-317.012	-62.821	0.693	-0.365
-315.997	-200.000	0.001	-0.158
-314.983	311.020	-0.044	0.105
-313.968	-111.435	0.210	0.054
-312.953	158.237	-0.111	0.196
-311.939	170.428	0.122	-0.223
-310.924	-144.625	0.528	0.062
-309.910	138.139	0.116	-0.194
-308.895	333.079	-0.132	0.328
-307.880	127.777	0.141	0.230
-306.866	-200.000	0.039	0.250
-305.851	-33.027	-0.412	-0.291
-304.837	79.319	0.206	0.282
-303.822	-38.389	0.372	-0.250
-302.807	-179.772	0.413	0.011
-301.793	227.025	-0.169	-0.353
-300.778	-132.643	0.428	0.069
-299.764	-119.344	0.533	0.117
-298.749	-140.818	0.235	0.031
-297.735	-97.977	-0.191	-0.062
-296.720	-136.051	0.274	0.041
-295.705	84.076	0.202	0.282
-294.691	100.752	-0.063	-0.093
-293.676	52.093	0.104	-0.126
-292.662	18.445	0.301	-0.307
-291.647	800.000	-0.066	-0.307
-290.632	275.658	0.155	-0.352
-289.618	-77.633	-0.487	0.214
-288.603	-15.356	0.282	0.230
-287.589	105.308	0.103	-0.155
-286.574	0.178	0.237	0.216
-285.559	151.465	-0.075	-0.130
-284.545	-200.000	-0.040	0.618
-283.530	162.562	-0.189	0.340
-282.516	-93.678	-0.675	0.236
-281.501	-111.228	-0.505	0.131
-280.486	-82.402	-0.429	0.177
-279.472	197.054	-0.075	-0.147
-278.457	-200.000	-0.005	0.260
-277.443	614.304	-0.092	0.295
-276.428	56.194	0.236	-0.292
-275.413	-200.000	0.051	-0.317
-274.399	-45.887	0.343	0.216
-273.384	-136.302	0.208	0.031
-272.370	9.466	-0.121	0.117
-271.355	-130.366	0.393	0.067
-270.340	262.529	0.165	-0.366
-269.326	37.356	-0.100	0.113
-268.311	-49.996	0.257	0.155
-267.297	-57.585	0.312	0.174
-266.282	249.960	0.018	-0.038
-265.267	-78.678	0.216	0.094
-264.253	-20.254	0.410	-0.322
-263.238	-30.637	-0.489	-0.352
-262.224	344.418	-0.050	-0.126
-261.209	800.000	-0.058	-0.228
-260.195	-88.328	0.411	-0.156
-259.180	-200.000	0.025	-0.149
-258.165	-38.808	0.483	-0.324
-257.151	-31.481	0.151	0.108
-256.136	157.402	0.312	-0.551
-255.122	112.505	-0.091	-0.140
-254.107	18.244	-0.110	0.111
-253.092	-143.764	0.293	-0.035
-252.078	-132.942	0.739	-0.119
-251.063	-125.216	0.131	-0.025
-250.049	139.113	0.088	-0.148
-249.034	-200.000	0.042	-0.273
-248.019	-129.884	-0.511	0.089
-247.005	-46.682	0.144	-0.090
-245.990	487.444	0.114	0.333
-244.976	-66.547	0.230	-0.116
-243.961	-48.530	0.372	-0.228
-242.946	41.605	-0.322	0.371
-241.932	-95.513	-0.468	0.159
-240.917	103.397	0.092	0.137
-239.903	-31.051	-0.161	-0.115
-238.888	-200.000	-0.058	0.368
-237.873	-51.546	0.364	0.216
-236.859	-200.000	-0.002	0.149
-235.844	-107.253	-0.603	-0.168
-234.830	-54.479	-0.207	0.119
-233.815	-96.572	-0.057	-0.019
-232.800	-200.000	-0.023	0.218
-231.786	180.385	-0.175	-0.328
-230.771	-80.587	-0.322	-0.136
-229.757	-128.982	-0.146	-0.026
-228.742	800.000	-0.028	-0.141
-227.727	-127.479	-0.278	0.051
-226.713	-144.875	-0.318	0.037
-225.698	20.181	-0.144	-0.148
-224.684	-32.995	-0.065	-0.046
-223.669	-43.135	0.344	-0.222
-222.655	-116.419	-0.145	0.034
-221.640	-73.837	0.100	-0.046
-220.625	800.000	-0.079	-0.303
-219.611	23.800	0.081	-0.085
-218.596	800.000	0.094	-0.464
-217.582	134.339	-0.060	-0.100
-216.567	-137.923	-0.332	0.047
-215.552	123.731	0.201	-0.322
-214.538	-200.000	0.022	-0.172
-213.523	664.279	0.031	0.103
-212.509	800.000	0.053	0.233
-211.494	-134.225	-0.068	0.010
-210.479	-68.190	0.631	-0.311
-209.465	327.152	-0.049	0.119
-208.450	-15.209	-0.192	0.156
-207.436	71.884	-0.326	-0.432
-206.421	214.307	0.356	0.720
-205.406	-92.817	-0.409	-0.145
-204.392	-49.919	0.334	0.201
-203.377	-165.766	0.111	-0.006
-202.363	-38.300	0.130	-0.087
-201.348	44.747	0.238	0.278
-200.333	-80.190	-0.117	-0.050
-199.319	52.522	0.353	0.428
-198.304	-71.687	-0.155	0.073
-197.290	800.000	-0.044	0.176
-196.275	-0.056	-0.575	-0.520
-195.260	434.676	-0.145	0.402
-194.246	-145.434	0.310	-0.035
-193.231	-110.357	0.268	-0.070
-192.217	417.908	0.029	-0.078
-191.202	29.553	0.047	0.051
-190.187	465.641	-0.156	0.447
-189.173	-62.312	0.205	-0.108
-188.158	-110.309	0.290	-0.076
-187.144	432.592	-0.057	0.159
-186.129	-22.697	-0.033	0.025
-185.114	9.645	-0.067	-0.064
-184.100	-126.978	-0.323	-0.060
-183.085	-69.595	-0.260	0.126
-182.071	-133.938	0.421	0.066
-181.056	-108.637	0.127	0.034
-180.042	-19.276	0.239	-0.188
-179.027	193.088	-0.297	-0.572
-178.012	-35.036	0.225	-0.156
-176.998	-23.818	-0.277	-0.210
-175.983	53.343	-0.141	0.172
-174.969	-18.742	-0.529	0.418
-173.954	197.571	-0.137	0.266
-172.939	800.000	-0.127	0.542
-171.925	-15.917	0.280	-0.226
-170.910	-68.099	0.622	0.307
-169.896	82.878	-0.109	0.151
-168.881	-79.300	-0.175	-0.075
-167.866	-33.953	0.273	-0.191
-166.852	-200.000	0.007	0.139
-165.837	-82.553	0.260	0.107
-164.823	-45.907	0.099	-0.062
-163.808	-38.820	-0.242	0.162
-162.793	68.407	-0.266	-0.346
-161.779	189.762	-0.075	0.144
-160.764	38.047	-0.146	-0.165
-159.750	-148.885	-0.777	-0.079
-158.735	-52.470	-0.330	-0.193
-157.720	-200.000	-0.006	0.685
-156.706	286.135	-0.164	0.376
-155.691	-88.097	-0.277	-0.105
-154.677	35.030	0.234	-0.260
-153.662	-145.667	-0.179	0.020
-152.647	-187.384	0.450	0.008
-151.633	-42.559	0.133	0.086
-150.618	36.962	-0.076	-0.086
-149.604	-200.000	-0.027	-0.155
-148.589	-189.817	0.755	0.011
-147.574	-89.769	0.405	-0.150
-146.560	800.000	0.047	0.222
-145.545	-27.492	0.315	-0.232
-144.531	-92.563	-0.420	0.149
-143.516	-200.000	-0.028	-0.170
-142.502	-88.075	0.315	0.119
-141.487	67.878	0.383	-0.498
-140.472	-200.000	0.005	0.056
-139.458	14.869	0.086	-0.085
-138.443	-79.934	0.130	-0.055
-137.429	800.000	-0.063	0.272
-136.414	30.437	-0.301	-0.326
-135.399	-58.281	-0.126	-0.069
-134.385	159.372	-0.197	-0.349
-133.370	133.947	-0.090	-0.148
-132.356	-200.000	-0.036	-0.323
-131.341	-187.472	-0.366	-0.006
-130.326	98.390	-0.151	0.220
-129.312	800.000	-0.077	0.277
-128.297	-187.667	-0.114	-0.002
-127.283	-70.723	0.083	-0.039
-126.268	147.721	0.215	-0.368
-125.253	55.215	-0.272	-0.334
-124.239	-9.023	-0.096	0.081
-123.224	469.182	0.088	0.251
-122.210	39.386	0.040	-0.045
-121.195	502.968	0.113	-0.334
-120.180	-74.033	-0.293	-0.134
-119.166	41.117	0.226	0.259
-118.151	-200.000	-0.065	0.372
-117.137	-5.242	-0.174	0.152
-116.122	-108.546	-0.174	0.047
-115.107	-88.351	-0.415	-0.156
-114.093	-87.771	-0.402	0.153
-113.078	-29.248	-0.374	-0.271
-112.064	187.252	0.141	0.267
-111.049	-156.314	-0.117	-0.009
-110.034	-140.248	0.510	-0.067
-109.020	-46.649	0.211	-0.130
-108.005	-110.260	0.431	-0.113
-106.991	-31.139	0.460	0.328
-105.976	265.003	-0.076	-0.170
-104.962	237.387	-0.122	-0.257
-103.947	-145.323	0.308	-0.035
-102.932	-22.533	0.386	0.295
-101.918	344.760	0.262	0.655
-100.903	-85.577	0.274	0.107
-99.889	157.311	-0.186	-0.327
-98.874	-154.698	0.293	-0.024
-97.859	60.272	-0.168	0.211
-96.845	-16.609	0.347	-0.278
-95.830	74.047	0.083	-0.110
-94.816	-200.000	-0.002	-0.152
-93.801	-200.000	0.025	-0.180
-92.786	131.095	0.007	0.011
-91.772	-97.053	0.458	0.151
-90.757	-73.368	-0.420	-0.193
-89.743	-200.000	-0.009	-0.067
-88.728	-200.000	-0.019	0.301
-87.713	135.712	-0.289	0.477
-86.699	125.703	0.124	0.198
-85.684	800.000	0.045	0.213
-84.670	1.903	0.452	-0.412
-83.655	784.716	0.106	0.371
-82.640	800.000	0.101	0.374
-81.626	-140.524	-0.141	-0.018
-80.611	64.516	-0.195	0.248
-79.597	-141.076	0.776	0.099
-78.582	-150.692	0.619	0.059
-77.567	201.411	0.023	0.046
-76.553	98.241	-0.452	-0.660
-75.538	-38.433	-0.404	0.270
-74.524	-200.000	-0.014	-0.109
-73.509	-83.739	0.350	0.140
-72.494	15.491	0.345	-0.343
-71.480	-9.199	0.182	-0.154
-70.465	800.000	-0.099	0.425
-69.451	70.506	-0.079	-0.103
-68.436	36.212	-0.083	-0.092
-67.422	-138.690	-0.408	-0.056
-66.407	-77.509	-0.276	0.120
-65.392	151.545	-0.216	-0.373
-64.378	-200.000	-0.038	-0.404
-63.363	-73.217	0.221	-0.102
-62.349	-166.499	-0.221	-0.012
-61.334	2.129	-2.020	-1.844
-60.319	-34.536	0.903	0.624
-59.305	273.532	-3.545	-7.957
-58.290	35.764	3.406	3.788
-57.276	344.586	4.165	10.381
-56.261	-200.000	17.855	274.369
-55.246	418.389	1225.461	3329.025
-54.232	60.425	2815.178	3526.650
-53.217	70.826	2688.577	3523.686
-52.203	43.853	2422.815	2806.694
-51.188	36.249	2083.296	2321.743
-50.173	28.926	1962.853	2103.583
-49.159	27.574	1952.761	2077.209
-48.144	27.111	1948.860	2067.681
-47.130	27.173	1945.661	2064.919
-46.115	27.129	1943.046	2061.557
-45.100	27.020	1942.067	2059.196
-44.086	27.053	1940.974	2058.330
-43.071	27.012	1939.294	2056.004
-42.057	26.938	1938.957	2054.721
-41.042	26.971	1936.996	2052.935
-40.027	27.077	1935.812	2052.800
-39.013	26.923	1933.848	2048.894
-37.998	26.949	1932.332	2047.498
-36.984	26.857	1932.018	2046.038
-35.969	26.864	1930.260	2044.175
-34.954	26.871	1929.077	2042.923
-33.940	26.820	1928.076	2041.200
-32.925	26.849	1926.175	2039.433
-31.911	26.761	1925.725	2037.883
-30.896	26.861	1924.603	2037.748
-29.881	26.840	1922.775	2035.494
-28.867	26.691	1921.959	2032.872
-27.852	26.795	1920.095	2031.990
-26.838	26.886	1918.072	2030.795
-25.823	26.748	1917.732	2028.798
-24.809	26.738	1915.797	2026.560
-23.794	26.791	1914.171	2025.347
-22.779	26.743	1912.703	2023.174
-21.765	26.654	1911.954	2021.308
-20.750	26.667	1910.943	2020.306
-19.736	26.690	1910.286	2019.791
-18.721	26.691	1909.635	2019.031
-17.706	26.701	1908.047	2017.389
-16.692	26.759	1905.830	2015.603
-15.677	26.796	1905.129	2015.199
-14.663	26.685	1903.862	2012.541
-13.648	26.779	1901.221	2010.712
-12.633	26.693	1901.300	2009.761
-11.619	26.610	1899.812	2007.184
-10.604	26.645	1899.009	2006.645
-9.590	26.601	1897.009	2003.961
-8.575	26.689	1895.522	2003.292
-7.560	26.569	1895.005	2001.333
-6.546	26.831	1892.986	2002.024
-5.531	26.683	1892.494	1999.784
-4.517	26.676	1890.807	1997.851
-3.502	26.623	1890.812	1997.186
-2.487	26.648	1889.311	1995.795
-1.473	26.686	1886.976	1993.675
-0.458	27.066	1868.222	1977.941
0.556	24.277	2014.497	2087.559
1.571	23.624	2226.881	2298.872
2.586	24.937	2269.704	2360.212
3.600	25.076	2272.446	2364.619
4.615	25.096	2272.220	2364.360
5.629	25.054	2270.230	2361.451
6.644	25.129	2268.205	2360.056
7.659	25.095	2266.690	2357.753
8.673	25.161	2264.962	2356.537
9.688	24.782	2270.983	2357.504
10.702	23.201	2349.664	2417.203
11.717	21.730	2415.857	2464.225
12.731	10.885	2386.618	2281.869
13.746	1.725	2361.052	2128.866
14.761	0.431	2356.143	2106.032
15.775	0.272	2354.859	2102.396
16.790	0.201	2352.530	2099.079
17.804	0.125	2352.489	2097.716
18.819	0.170	2351.252	2096.999
19.834	0.164	2349.041	2094.685
20.848	0.097	2348.283	2092.821
21.863	0.175	2345.911	2091.549
22.877	0.169	2343.972	2089.496
23.892	0.150	2342.148	2087.349
24.907	0.058	2339.602	2083.550
25.921	0.115	2337.496	2082.220
26.936	0.195	2335.195	2081.025
27.950	0.211	2332.722	2078.791
28.965	0.235	2330.314	2076.742
29.980	0.196	2329.807	2075.490
30.994	0.276	2326.663	2073.553
32.009	5.690	2346.455	2166.320
33.023	19.960	2390.786	2407.809
34.038	27.316	2406.633	2526.568
35.053	28.639	2406.580	2544.665
36.067	28.360	2404.082	2537.838
37.082	27.563	2399.992	2522.137
38.096	27.442	2396.845	2516.844
39.111	28.110	2396.799	2525.763
40.126	29.086	2397.597	2539.853
41.140	29.890	2398.597	2551.759
42.155	29.337	2394.250	2539.176
43.169	28.898	2391.189	2529.551
44.184	29.155	2389.613	2531.137
45.199	28.942	2386.993	2525.119
46.213	28.721	2385.640	2520.331
47.228	28.841	2384.640	2520.633
48.242	28.842	2382.467	2518.040
49.257	28.836	2380.937	2516.039
50.271	29.194	2378.986	2518.596
51.286	29.504	2376.980	2520.438
52.301	29.171	2374.918	2513.382
53.315	27.399	2368.176	2481.690
54.330	24.407	2356.800	2428.598
55.344	22.934	2350.133	2401.332
56.359	22.691	2346.793	2394.318
57.374	22.522	2344.892	2389.790
58.388	22.528	2343.289	2387.950
59.403	22.847	2339.454	2388.089
60.417	23.167	2338.030	2390.704
61.432	23.397	2336.763	2392.242
62.447	23.445	2334.241	2390.025
63.461	23.237	2332.353	2384.989
64.476	23.164	2330.307	2381.613
65.490	23.675	2330.132	2388.071
66.505	24.390	2333.022	2400.418
67.520	26.037	2338.622	2428.198
68.534	28.049	2340.621	2457.192
69.549	29.198	2340.258	2472.016
70.563	29.719	2339.599	2478.057
71.578	29.776	2337.707	2476.514
72.593	29.673	2335.311	2472.297
73.607	29.519	2333.689	2468.221
74.622	29.415	2331.384	2464.086
75.636	29.066	2328.220	2455.775
76.651	29.059	2326.374	2453.428
77.666	29.207	2325.089	2453.772
78.680	29.509	2323.558	2455.894
79.695	29.992	2323.034	2461.503
80.709	30.359	2323.999	2467.130
81.724	30.679	2322.077	2469.070
82.739	30.298	2318.740	2460.154
83.753	29.832	2315.239	2449.935
84.768	29.751	2313.253	2446.472
85.782	29.313	2310.742	2437.696
86.797	29.026	2307.741	2430.438
87.812	29.061	2305.876	2428.643
88.826	29.233	2303.212	2427.821
89.841	29.257	2301.567	2426.116
90.855	29.292	2299.656	2424.272
91.870	29.252	2298.524	2422.261
92.884	29.577	2297.291	2424.957
93.899	29.644	2296.274	2424.485
94.914	28.719	2292.294	2407.803
95.928	25.667	2282.070	2356.671
96.943	24.391	2278.428	2335.853
97.957	27.018	2284.474	2376.378
98.972	28.754	2287.341	2401.911
99.987	29.060	2284.242	2402.387
101.001	28.993	2281.343	2398.166
102.016	29.051	2279.182	2396.368
103.030	29.328	2279.018	2399.541
104.045	29.524	2277.014	2399.706
105.060	29.600	2274.023	2397.248
106.074	29.309	2272.396	2391.461
107.089	29.389	2270.052	2389.741
108.103	29.749	2270.251	2394.354
109.118	29.732	2267.698	2391.160
110.133	29.739	2267.589	2390.841
111.147	30.019	2265.622	2392.116
112.162	30.133	2263.917	2391.518
113.176	29.640	2261.138	2381.908
114.191	29.723	2259.354	2380.816
115.206	29.771	2258.034	2379.760
116.220	29.564	2254.824	2373.416
117.235	29.450	2252.327	2369.034
118.249	29.187	2249.520	2362.412
119.264	29.286	2250.383	2364.307
120.279	29.605	2247.515	2365.114
121.293	29.356	2244.885	2358.869
122.308	29.485	2243.485	2358.774
123.322	29.576	2242.723	2358.859
124.337	28.741	2237.772	2342.671
125.352	25.850	2228.652	2295.870
126.366	25.087	2227.925	2285.078
127.381	27.470	2231.465	2318.970
128.395	28.637	2232.471	2334.662
129.410	29.203	2230.791	2339.862
130.424	29.236	2230.054	2339.222
131.439	29.003	2227.029	2332.809
132.454	29.091	2225.850	2332.409
133.468	29.499	2224.148	2335.542
134.483	29.382	2223.000	2332.566
135.497	29.261	2220.980	2328.634
136.512	29.457	2218.739	2328.494
137.527	29.583	2216.458	2327.415
138.541	29.595	2216.046	2326.853
139.556	29.341	2215.753	2323.051
140.570	29.644	2214.583	2325.378
141.585	29.858	2212.800	2325.939
142.600	29.600	2210.688	2320.174
143.614	29.433	2207.486	2314.438
144.629	29.597	2206.959	2315.675
145.643	29.608	2204.994	2313.468
146.658	29.782	2203.967	2314.312
147.673	30.051	2202.397	2315.757
148.687	29.966	2201.376	2313.349
149.702	29.506	2198.445	2304.214
150.716	29.059	2197.032	2296.857
151.731	29.068	2195.288	2294.866
152.746	29.375	2193.879	2296.959
153.760	28.304	2189.592	2278.818
154.775	25.040	2179.674	2227.507
155.789	23.807	2176.446	2208.556
156.804	26.516	2181.970	2247.771
157.819	28.864	2182.502	2277.328
158.833	29.224	2182.054	2281.064
159.848	29.549	2180.891	2283.619
160.862	29.759	2179.926	2284.946
161.877	29.813	2178.639	2283.988
162.892	29.446	2177.985	2278.476
163.906	29.386	2176.357	2275.757
164.921	29.613	2174.516	2276.370
165.935	29.809	2171.464	2275.323
166.950	29.782	2169.973	2273.154
167.964	29.524	2166.941	2266.528
168.979	29.394	2166.173	2263.850
169.994	29.626	2164.705	2264.903
171.008	29.672	2163.274	2263.697
172.023	29.758	2161.963	2263.119
173.037	29.565	2159.597	2257.997
174.052	29.594	2157.850	2256.259
175.067	29.538	2156.979	2254.388
176.081	29.628	2156.164	2254.374
177.096	29.701	2154.670	2253.435
178.110	29.479	2151.881	2247.525
179.125	29.482	2151.005	2246.387
180.140	29.775	2149.114	2247.713
181.154	29.600	2147.403	2243.525
182.169	29.098	2145.659	2235.314
183.183	28.056	2140.386	2216.854
184.198	24.801	2130.230	2166.517
185.213	24.266	2128.703	2158.205
186.227	27.389	2136.849	2204.280
187.242	29.256	2139.467	2229.443
188.256	29.661	2138.092	2232.667
189.271	29.849	2137.374	2233.934
190.286	29.962	2135.686	2233.268
191.300	29.767	2132.778	2227.598
192.315	29.640	2129.749	2222.635
193.329	29.519	2128.479	2219.576
194.344	29.353	2127.116	2215.885
195.359	29.605	2126.868	2218.405
196.373	29.825	2124.434	2218.260
197.388	29.566	2121.656	2211.973
198.402	29.534	2119.522	2209.100
199.417	29.382	2116.968	2204.341
200.432	29.219	2115.992	2201.108
201.446	29.430	2115.085	2202.437
202.461	29.634	2113.295	2202.751
203.475	29.653	2112.401	2201.776
204.490	29.831	2110.057	2201.205
205.504	29.427	2107.886	2193.846
206.519	29.342	2104.775	2189.336
207.534	29.061	2102.005	2182.841
208.548	28.944	2100.371	2179.492
209.563	29.208	2100.239	2182.237
210.577	28.885	2098.160	2175.972
211.592	28.800	2096.750	2173.239
212.607	27.359	2091.588	2150.528
213.621	23.946	2081.236	2099.216
214.636	24.433	2081.527	2105.027
215.650	27.444	2089.292	2148.400
216.665	28.558	2089.336	2161.390
217.680	28.851	2088.585	2163.821
218.694	29.081	2087.875	2165.554
219.709	29.576	2086.232	2169.433
220.723	29.647	2085.497	2169.240
221.738	29.559	2083.311	2165.673
222.753	29.580	2081.113	2163.374
223.767	29.642	2080.460	2163.166
224.782	29.466	2078.757	2159.070
225.796	29.469	2075.669	2155.635
226.811	29.336	2074.723	2152.845
227.826	29.814	2074.115	2157.553
228.840	29.960	2073.068	2157.922
229.855	29.730	2071.813	2153.664
230.869	29.844	2070.764	2153.652
231.884	29.753	2068.275	2149.732
232.899	29.516	2066.136	2144.494
233.913	29.454	2064.217	2141.519
234.928	29.239	2063.032	2137.532
235.942	29.581	2061.226	2139.382
236.957	29.739	2060.174	2139.873
237.972	29.428	2058.917	2134.699
238.986	29.454	2058.135	2133.926
240.001	29.707	2056.172	2134.574
241.015	29.465	2053.832	2129.087
242.030	28.506	2049.957	2113.709
243.045	25.669	2039.854	2070.286
244.059	24.931	2039.313	2060.949
245.074	28.102	2044.646	2102.806
246.088	29.367	2044.825	2117.346
247.103	29.119	2043.760	2113.134
248.117	29.293	2041.731	2112.790
249.132	29.601	2041.610	2115.958
250.147	29.670	2040.065	2114.889
251.161	29.640	2038.149	2112.309
252.176	29.421	2035.313	2106.606
253.190	28.445	2030.555	2090.250
254.205	27.060	2025.178	2068.625
255.220	26.725	2023.487	2062.816
256.234	27.248	2024.119	2069.195
257.249	27.555	2023.004	2071.316
258.263	27.346	2021.580	2067.227
259.278	26.570	2018.382	2054.851
260.293	26.730	2018.034	2056.079
261.307	28.323	2020.938	2076.969
262.322	29.733	2021.113	2092.957
263.336	29.734	2020.853	2092.449
264.351	29.787	2019.020	2090.900
265.366	29.972	2017.697	2091.385
266.380	29.878	2016.702	2089.027
267.395	29.338	2013.285	2079.126
268.409	29.172	2011.174	2074.819
269.424	29.543	2011.552	2079.160
270.439	29.773	2010.382	2080.301
271.453	28.512	2003.763	2058.982
272.468	24.885	1993.566	2007.461
273.482	24.397	1993.559	2001.711
274.497	27.802	1998.745	2045.091
275.512	29.397	1999.722	2063.808
276.526	29.630	1998.729	2065.153
277.541	29.478	1997.648	2062.079
278.555	29.641	1995.690	2061.642
279.570	29.565	1992.889	2057.647
280.585	29.314	1991.996	2053.669
281.599	29.449	1991.420	2054.341
282.614	29.027	1986.010	2043.807
283.628	27.145	1981.135	2017.569
284.643	26.511	1979.023	2008.104
285.657	26.692	1977.873	2008.715
286.672	26.534	1974.861	2003.651
287.687	26.195	1973.087	1997.846
288.701	26.009	1972.500	1994.946
289.716	26.293	1970.403	1995.743
290.730	26.089	1968.988	1991.801
291.745	26.105	1967.903	1990.642
292.760	26.162	1967.374	1990.503
293.774	26.935	1967.944	1999.399
294.789	27.935	1968.918	2011.223
295.803	28.639	1969.107	2018.970
296.818	29.430	1969.714	2028.089
297.833	29.574	1968.682	2028.373
298.847	29.599	1967.931	2027.636
299.862	29.696	1965.500	2025.951
300.876	28.620	1959.929	2008.145
301.891	25.407	1950.173	1962.687
302.906	24.699	1950.809	1955.306
303.920	27.874	1958.157	1997.405
304.935	29.292	1957.087	2011.651
305.949	29.367	1954.973	2010.058
306.964	29.659	1953.781	2011.785
307.979	29.107	1950.558	2002.188
308.993	28.027	1947.081	1986.592
310.008	27.404	1943.203	1975.608
311.022	26.624	1940.400	1964.016
312.037	26.368	1937.955	1958.520
313.052	25.974	1934.850	1950.867
314.066	25.611	1932.888	1944.714
315.081	25.388	1931.651	1940.807
316.095	25.121	1929.316	1935.336
317.110	25.344	1929.404	1937.607
318.125	26.086	1929.077	1945.094
319.139	26.486	1929.434	1949.554
320.154	26.926	1928.212	1952.851
321.168	27.081	1928.199	1954.275
322.183	28.139	1929.185	1966.478
323.197	29.317	1930.658	1980.471
324.212	29.460	1928.757	1979.830
325.227	29.480	1927.012	1978.021
326.241	29.583	1925.695	1977.532
327.256	29.725	1925.203	1978.319
328.270	29.755	1924.456	1977.639
329.285	29.618	1922.791	1974.217
330.300	28.401	1918.338	1956.359
331.314	24.829	1908.590	1907.980
332.329	24.302	1909.313	1902.824
333.343	27.982	1914.240	1947.000
334.358	29.452	1915.288	1963.560
335.373	29.600	1913.665	1963.243
336.387	29.514	1912.268	1960.664
337.402	29.619	1909.862	1959.082
338.416	29.584	1908.197	1956.764
339.431	29.369	1907.873	1953.913
340.446	29.384	1905.129	1951.024
341.460	28.114	1899.429	1931.481
342.475	26.298	1894.036	1906.525
343.489	25.822	1891.210	1898.420
344.504	25.852	1889.989	1897.280
345.519	25.870	1888.704	1895.948
346.533	25.794	1886.348	1892.560
347.548	25.422	1886.293	1888.351
348.562	26.006	1885.535	1893.529
349.577	26.305	1885.013	1895.929
350.592	26.260	1883.483	1893.688
351.606	26.466	1882.562	1894.702
352.621	26.707	1881.757	1896.204
353.635	27.190	1882.228	1901.532
354.650	27.815	1881.416	1907.053
355.665	28.573	1881.897	1915.264
356.679	29.330	1882.227	1923.318
357.694	29.346	1881.315	1922.319
358.708	29.460	1880.816	1922.775
359.723	28.482	1874.947	1906.331
360.738	25.146	1865.822	1862.067
361.752	25.230	1867.887	1864.780
362.767	28.276	1871.538	1900.026
363.781	28.744	1870.618	1903.749
364.796	28.365	1869.110	1898.032
365.810	28.635	1868.993	1900.498
366.825	29.220	1868.811	1906.175
367.840	29.547	1868.192	1908.712
368.854	29.265	1865.721	1903.031
369.869	27.898	1860.754	1883.580
370.883	26.745	1856.799	1867.420
371.898	25.782	1854.202	1854.624
372.913	25.334	1850.635	1846.198
373.927	25.388	1849.205	1845.113
374.942	25.289	1847.424	1842.090
375.956	25.240	1846.138	1840.083
376.971	25.302	1843.134	1837.510
377.986	25.092	1842.182	1834.176
379.000	25.870	1843.832	1843.609
380.015	27.899	1846.584	1867.008
381.029	29.317	1846.766	1881.527
382.044	29.583	1845.880	1883.126
383.059	29.884	1845.212	1885.303
384.073	29.617	1844.134	1881.239
385.088	29.139	1842.324	1874.279
386.102	29.029	1840.353	1870.924
387.117	29.010	1838.572	1868.703
388.132	29.020	1837.759	1867.747
389.146	28.192	1834.836	1856.118
390.161	24.778	1825.820	1812.082
391.175	24.514	1825.062	1808.424
392.190	27.613	1828.122	1842.778
393.205	28.804	1828.795	1855.333
394.219	29.156	1827.958	1857.835
395.234	29.266	1827.495	1858.258
396.248	29.073	1825.643	1854.192
397.263	29.195	1823.207	1852.730
398.278	29.091	1821.080	1849.304
399.292	28.788	1819.970	1844.892
400.307	28.933	1819.226	1845.378
401.321	28.768	1816.063	1840.296
402.336	26.822	1810.420	1814.805
403.350	25.515	1806.544	1797.572
404.365	25.591	1804.915	1796.492
405.380	25.754	1803.902	1796.908
406.394	25.621	1802.542	1794.006
407.409	25.420	1800.702	1789.950
408.423	25.572	1799.275	1789.840
409.438	26.223	1799.813	1796.666
410.453	27.336	1801.946	1809.719
411.467	27.762	1801.577	1813.385
412.482	28.429	1801.991	1820.246
413.496	28.972	1801.762	1825.211
414.511	29.043	1800.273	1824.189
415.526	29.273	1798.253	1824.216
416.540	29.587	1798.414	1827.283
417.555	29.401	1797.761	1824.555
418.569	28.977	1795.526	1817.853
419.584	29.205	1795.822	1820.204
420.599	29.728	1796.396	1825.760
421.613	29.777	1795.192	1824.802
422.628	29.605	1792.841	1820.489
423.642	29.826	1791.807	1821.410
424.657	29.567	1790.181	1816.982
425.672	29.145	1786.454	1808.810
426.686	29.200	1786.149	1808.836
427.701	29.571	1786.330	1812.455
428.715	29.775	1785.049	1812.952
429.730	29.993	1783.164	1812.970
430.745	29.452	1780.479	1804.705
431.759	28.256	1776.382	1788.594
432.774	26.060	1770.278	1760.725
433.788	24.908	1767.715	1746.677
434.803	24.504	1766.778	1741.573
435.818	24.625	1766.934	1742.708
436.832	24.766	1766.383	1743.342
437.847	23.648	1757.049	1723.017
438.861	13.421	1729.309	1596.905
439.876	2.569	1708.785	1473.297
440.890	0.362	1704.961	1448.531
441.905	0.195	1703.108	1445.168
442.920	0.150	1701.799	1443.450
443.934	0.241	1700.154	1442.763
444.949	0.136	1698.815	1440.444
445.963	0.251	1697.235	1440.037
446.978	0.108	1697.463	1438.679
447.993	0.168	1695.972	1437.824
449.007	0.134	1693.803	1435.486
450.022	0.189	1691.600	1433.971
451.036	0.233	1690.457	1433.252
452.051	0.708	1693.121	1439.885
453.066	9.086	1715.787	1540.042
454.080	20.003	1733.988	1662.057
455.095	22.935	1738.132	1694.126
456.109	23.473	1738.346	1699.317
457.124	23.522	1737.398	1698.665
458.139	23.492	1736.562	1697.349
459.153	23.503	1735.083	1695.809
460.168	23.579	1733.494	1694.783
461.182	23.632	1732.205	1693.823
462.197	23.722	1730.326	1692.655
463.212	24.056	1729.279	1694.622
464.226	23.951	1728.888	1693.030
465.241	23.884	1727.659	1690.981
466.255	23.704	1726.186	1687.621
467.270	23.823	1724.703	1687.104
468.285	23.949	1723.713	1687.136
469.299	23.986	1722.465	1686.063
470.314	23.983	1720.666	1684.075
471.328	24.043	1719.203	1683.006
472.343	24.043	1718.128	1681.758
473.358	23.932	1716.953	1679.350
474.372	23.768	1715.265	1675.940
475.387	23.942	1713.787	1675.945
476.401	23.760	1711.590	1671.877
477.416	23.642	1710.405	1669.404
478.430	23.412	1708.617	1665.282
479.445	23.643	1708.711	1667.362
480.460	23.777	1707.671	1667.406
481.474	23.726	1707.015	1666.088
482.489	23.591	1705.544	1663.185
483.503	23.417	1702.820	1658.688
484.518	23.437	1701.940	1657.826
485.533	23.299	1700.166	1654.603
486.547	23.053	1697.573	1649.573
487.562	22.828	1695.478	1645.234
488.576	23.036	1694.700	1646.224
489.591	23.087	1693.516	1645.355
490.606	23.254	1692.966	1646.188
491.620	23.436	1691.494	1646.254
492.635	23.103	1689.256	1640.777
493.649	22.845	1688.061	1637.013
494.664	23.317	1688.224	1641.375
495.679	23.751	1688.006	1645.002
496.693	23.801	1686.943	1644.242
497.708	23.727	1685.559	1642.007
498.722	23.538	1683.033	1637.598
499.737	23.459	1682.191	1635.846
500.752	23.799	1681.062	1637.699
501.766	23.971	1678.781	1636.874
502.781	23.840	1677.341	1634.062
503.795	23.753	1676.723	1632.464
504.810	23.741	1675.839	1631.299
505.825	23.670	1674.725	1629.363
506.839	23.616	1673.591	1627.563
507.854	23.497	1671.561	1624.302
508.868	23.326	1669.754	1620.783
509.883	23.330	1667.930	1618.856
510.898	23.023	1667.168	1615.098
511.912	23.141	1665.774	1614.636
512.927	23.248	1663.617	1613.337
513.941	23.259	1661.882	1611.560
514.956	23.459	1661.177	1612.513
515.971	23.175	1660.439	1609.002
516.985	23.129	1659.333	1607.318
518.000	23.119	1657.877	1605.631
519.014	22.919	1656.747	1602.517
520.029	22.813	1654.878	1599.553
521.043	22.905	1653.415	1598.782
522.058	23.255	1652.061	1600.464
523.073	23.190	1651.101	1598.752
524.087	22.747	1649.488	1592.978
525.102	22.895	1648.704	1593.371
526.116	23.515	1648.884	1598.981
527.131	23.802	1647.774	1600.310
528.146	23.452	1646.316	1595.540
529.160	23.112	1644.836	1590.841
530.175	23.216	1643.159	1589.963
531.189	23.140	1642.509	1588.461
532.204	22.888	1641.652	1585.162
533.219	23.205	1640.248	1586.478
534.233	23.457	1639.919	1588.239
535.248	23.278	1638.114	1584.694
536.262	22.442	1635.845	1574.794
537.277	22.510	1634.035	1573.471
538.292	22.615	1633.174	1573.394
539.306	22.746	1630.829	1572.128
540.321	22.512	1629.338	1568.410
541.335	22.511	1628.205	1567.122
542.350	22.527	1626.611	1565.539
543.365	22.713	1624.595	1565.068
544.379	22.418	1623.084	1560.799
545.394	22.427	1622.106	1559.750
546.408	22.780	1622.459	1563.047
547.423	23.444	1622.974	1569.268
548.438	23.540	1621.446	1568.452
549.452	23.109	1619.962	1563.000
550.467	23.201	1617.744	1561.496
551.481	23.158	1616.599	1559.820
552.496	22.966	1615.929	1557.288
553.511	22.746	1614.483	1553.761
554.525	22.747	1613.557	1552.695
555.540	22.726	1612.103	1550.921
556.554	22.694	1611.151	1549.532
557.569	22.681	1609.786	1547.926
558.583	22.815	1609.387	1548.534
559.598	22.856	1607.749	1547.134
560.613	22.784	1606.769	1545.376
561.627	22.799	1604.273	1542.917
562.642	22.509	1602.477	1538.464
563.656	22.292	1600.062	1534.061
564.671	22.098	1599.112	1531.260
565.686	22.094	1598.310	1530.278
566.700	22.385	1597.826	1532.175
567.715	22.518	1595.754	1531.173
568.729	22.561	1595.069	1530.702
569.744	22.817	1593.447	1531.197
570.759	22.775	1591.683	1528.949
571.773	22.540	1591.326	1526.381
572.788	22.245	1590.153	1522.505
573.802	22.230	1588.207	1520.327
574.817	22.034	1586.731	1517.034
575.832	22.057	1584.667	1515.074
576.846	22.291	1583.877	1516.173
577.861	22.581	1583.654	1518.286
578.875	22.504	1582.632	1516.455
579.890	22.365	1581.407	1513.901
580.905	22.318	1580.601	1512.545
581.919	22.353	1579.408	1511.518
582.934	22.190	1578.482	1509.046
583.948	22.124	1577.069	1506.950
584.963	22.208	1575.702	1506.183
585.978	22.416	1575.110	1507.230
586.992	22.269	1573.555	1504.294
588.007	21.820	1571.650	1498.436
589.021	22.147	1571.376	1500.805
590.036	22.367	1570.396	1501.576
591.051	22.110	1568.224	1497.118
592.065	21.784	1565.955	1491.985
593.080	21.663	1564.282	1489.181
594.094	21.836	1563.043	1489.294
595.109	22.243	1563.198	1492.741
596.123	22.732	1562.337	1495.909
597.138	22.507	1560.842	1492.386
598.153	22.183	1559.370	1488.043
599.167	22.099	1558.151	1485.983
600.182	22.088	1557.390	1484.989
601.196	22.019	1555.684	1482.597
602.211	22.336	1554.526	1484.004
603.226	22.167	1552.448	1480.415
604.240	22.049	1551.123	1477.974
605.255	21.999	1549.362	1475.693
606.269	22.070	1549.403	1476.162
607.284	22.219	1548.793	1476.658
608.299	22.236	1547.271	1475.171
609.313	22.235	1546.023	1473.799
610.328	22.236	1544.724	1472.391
611.342	21.972	1543.317	1468.658
612.357	21.947	1542.822	1467.799
613.372	21.938	1541.463	1466.249
614.386	21.830	1539.944	1463.731
615.401	21.836	1539.313	1463.002
616.415	21.629	1538.589	1460.403
617.430	21.565	1536.840	1458.036
618.445	21.406	1535.344	1455.106
619.459	21.560	1535.208	1456.094
620.474	21.912	1534.458	1458.146
621.488	22.230	1533.614	1459.831
622.503	22.494	1531.734	1460.061
623.518	21.996	1530.723	1454.775
624.532	21.589	1528.867	1449.450
625.547	21.347	1527.421	1445.897
626.561	21.281	1526.043	1443.867
627.576	21.130	1524.483	1440.966
628.591	21.552	1524.654	1444.459
629.605	21.896	1523.106	1445.672
630.620	21.905	1522.596	1445.087
631.634	22.001	1522.176	1445.309
632.649	22.013	1520.612	1443.755
633.663	21.561	1518.697	1438.030
634.678	21.341	1516.258	1433.737
635.693	21.098	1514.595	1429.984
636.707	21.126	1512.638	1428.199
637.722	21.099	1511.958	1427.166
638.736	21.070	1511.328	1426.160
639.751	21.295	1510.523	1427.076
640.766	21.636	1508.965	1428.229
641.780	21.552	1507.850	1426.314
642.795	21.759	1507.253	1427.273
643.809	21.764	1506.062	1426.019
644.824	21.808	1505.019	1425.216
645.839	21.755	1505.069	1424.661
646.853	21.679	1503.708	1422.582
647.868	21.633	1502.428	1420.829
648.882	21.700	1500.528	1419.411
649.897	21.701	1499.333	1418.117
650.912	21.470	1497.712	1414.533
651.926	21.317	1495.933	1411.442
652.941	21.531	1495.252	1412.367
653.955	21.584	1495.165	1412.546
654.970	21.928	1493.632	1413.717
655.985	21.903	1492.254	1412.040
656.999	21.793	1490.782	1409.584
658.014	21.582	1489.082	1406.110
659.028	21.294	1488.278	1402.859
660.043	21.325	1486.827	1401.571
661.058	21.266	1484.921	1399.130
662.072	21.202	1484.444	1397.996
663.087	21.294	1483.927	1398.085
664.101	21.406	1482.998	1397.945
665.116	21.339	1482.039	1396.336
666.131	21.405	1480.327	1395.082
667.145	21.568	1478.900	1394.879
668.160	21.328	1477.663	1391.619
669.174	21.231	1475.755	1388.888
670.189	21.305	1475.391	1388.967
671.204	21.314	1475.917	1389.368
672.218	21.511	1474.289	1389.236
673.233	21.364	1472.868	1386.560
674.247	21.140	1471.408	1383.241
675.262	21.100	1469.578	1381.033
676.276	21.202	1468.222	1380.406
677.291	21.216	1468.308	1380.435
678.306	21.708	1467.178	1383.111
679.320	21.745	1465.787	1381.927
680.335	21.281	1465.811	1378.104
681.349	21.052	1465.139	1375.494
682.364	21.270	1463.207	1375.239
683.379	21.183	1462.288	1373.527
684.393	21.064	1460.631	1370.863
685.408	21.044	1458.551	1368.593
686.422	21.111	1457.091	1367.584
687.437	20.932	1456.941	1365.872
688.452	20.747	1456.481	1363.816
689.466	20.918	1453.881	1362.560
690.481	20.928	1452.466	1361.150
691.495	20.988	1453.215	1362.166
692.510	21.401	1452.774	1364.831
693.525	21.658	1451.073	1365.080
694.539	21.522	1449.976	1362.819
695.554	20.820	1448.481	1355.763
696.568	20.487	1447.136	1351.739
697.583	20.617	1445.835	1351.375
698.598	20.594	1445.877	1351.069
699.612	20.564	1444.453	1349.345
700.627	20.805	1442.828	1349.546
701.641	20.923	1442.227	1349.739
702.656	21.095	1440.702	1349.485
703.671	20.970	1439.678	1347.399
704.685	20.636	1439.734	1344.695
705.700	20.837	1438.429	1344.873
706.714	20.984	1436.537	1344.080
707.729	21.120	1434.958	1343.495
708.744	20.903	1433.885	1340.652
709.758	20.928	1432.568	1339.453
710.773	21.087	1432.551	1340.508
711.787	21.256	1430.937	1340.136
712.802	21.202	1429.369	1338.090
713.816	21.099	1428.293	1336.132
714.831	20.925	1427.436	1333.829
715.846	20.716	1425.995	1330.719
716.860	20.723	1424.416	1329.143
717.875	20.810	1423.632	1328.916
718.889	20.897	1423.138	1328.964
719.904	20.857	1421.433	1326.908
720.919	20.712	1420.273	1324.559
721.933	20.635	1418.655	1322.298
722.948	20.667	1418.519	1322.263
723.962	20.769	1417.198	1321.648
724.977	20.609	1415.620	1318.802
725.992	20.549	1415.221	1317.811
727.006	20.722	1414.595	1318.390
728.021	20.630	1412.545	1315.625
729.035	20.579	1411.673	1314.268
730.050	20.673	1410.788	1313.998
731.065	20.744	1409.713	1313.380
732.079	20.619	1409.064	1311.664
733.094	20.760	1407.759	1311.364
734.108	21.047	1406.162	1311.886
735.123	20.835	1404.467	1308.551
736.138	20.855	1404.070	1308.175
737.152	20.726	1403.094	1306.134
738.167	20.572	1401.622	1303.445
739.181	20.533	1400.480	1301.936
740.196	20.546	1399.752	1301.204
741.211	20.432	1399.227	1299.699
742.225	20.659	1397.962	1300.073
743.240	20.508	1396.483	1297.409
744.254	20.403	1394.909	1295.008
745.269	20.415	1393.454	1293.587
746.284	20.183	1393.904	1292.114
747.298	20.396	1393.033	1292.746
748.313	20.625	1391.911	1293.267
749.327	20.915	1391.287	1294.695
750.342	21.294	1390.995	1297.097
751.356	21.614	1390.370	1298.743
752.371	21.336	1388.711	1294.970
753.386	20.785	1386.362	1288.525
754.400	20.433	1385.557	1285.010
755.415	20.597	1384.266	1284.878
756.429	20.634	1382.581	1283.431
757.444	20.506	1381.346	1281.186
758.459	20.423	1381.243	1280.316
759.473	20.258	1380.199	1277.980
760.488	20.400	1377.875	1276.719
761.502	20.307	1377.131	1275.194
762.517	20.366	1376.268	1274.676
763.532	20.506	1375.185	1274.553
764.546	20.701	1373.762	1274.520
765.561	20.817	1373.804	1275.256
766.575	21.118	1374.314	1277.790
767.590	21.315	1372.606	1277.500
768.605	20.804	1370.746	1271.867
769.619	20.617	1368.828	1268.561
770.634	20.533	1367.296	1266.379
771.648	20.406	1365.706	1263.823
772.663	20.364	1365.327	1263.013
773.678	20.491	1364.873	1263.370
774.692	20.367	1364.285	1261.770
775.707	20.467	1363.113	1261.267
776.721	20.420	1362.892	1260.568
777.736	20.396	1361.704	1259.141
778.751	20.355	1360.792	1257.852
779.765	20.343	1359.770	1256.662
780.780	20.451	1358.924	1256.521
781.794	20.325	1358.002	1254.602
782.809	20.248	1356.687	1252.677
783.824	20.240	1355.330	1251.216
784.838	20.521	1354.617	1252.447
785.853	20.935	1354.042	1254.760
786.867	20.865	1352.875	1253.024
787.882	20.456	1352.068	1249.171
788.897	20.414	1350.861	1247.600
789.911	20.222	1349.462	1244.773
790.926	20.192	1348.166	1243.213
791.940	20.041	1347.139	1241.030
792.955	20.004	1345.549	1239.152
793.969	19.938	1344.729	1237.773
794.984	20.130	1343.916	1238.255
795.999	20.278	1342.724	1238.067
797.013	20.357	1340.867	1236.773
798.028	20.204	1339.366	1234.149
799.042	20.151	1338.556	1232.877
800.057	20.186	1338.104	1232.562
801.072	20.147	1337.144	1231.252
802.086	20.168	1335.206	1229.469
803.101	20.225	1333.633	1228.283
804.115	20.193	1333.422	1227.710
805.130	20.249	1332.021	1226.674
806.145	20.230	1330.705	1225.175
807.159	20.402	1329.671	1225.296
808.174	20.276	1328.679	1223.347
809.188	20.353	1328.032	1223.152
810.203	20.437	1326.598	1222.277
811.218	20.576	1325.208	1221.830
812.232	20.573	1324.804	1221.294
813.247	20.923	1323.445	1222.361
814.261	20.599	1322.830	1219.363
815.276	20.491	1321.177	1216.931
816.291	20.227	1319.967	1213.815
817.305	20.196	1318.610	1212.202
818.320	20.108	1317.883	1210.772
819.334	20.145	1316.691	1209.789
820.349	20.148	1314.731	1207.867
821.364	20.072	1313.160	1205.749
822.378	20.043	1311.287	1203.685
823.393	20.156	1309.924	1203.077
824.407	19.905	1309.284	1200.592
825.422	19.915	1309.595	1200.803
826.437	20.060	1308.263	1200.450
827.451	20.047	1306.790	1198.863
828.466	20.468	1305.299	1200.274
829.480	20.834	1303.477	1200.994
830.495	20.487	1301.618	1196.735
831.509	20.048	1301.009	1192.994
832.524	20.018	1300.035	1191.751
833.539	20.134	1298.524	1191.024
834.553	20.044	1297.347	1189.183
835.568	20.166	1296.656	1189.250
836.582	20.157	1295.306	1187.807
837.597	20.150	1294.133	1186.537
838.612	20.385	1292.722	1186.715
839.626	20.282	1291.886	1185.102
840.641	20.335	1291.192	1184.690
841.655	20.371	1291.051	1184.662
842.670	20.887	1290.646	1187.686
843.685	21.188	1289.978	1188.988
844.699	20.931	1287.449	1184.762
845.714	20.427	1285.938	1179.786
846.728	20.379	1284.739	1178.223
847.743	20.187	1283.668	1175.786
848.758	20.163	1282.175	1174.118
849.772	19.970	1281.168	1171.741
850.787	19.980	1279.367	1170.020
851.801	20.048	1278.654	1169.691
852.816	20.012	1277.430	1168.188
853.831	19.844	1276.133	1165.722
854.845	19.825	1274.610	1164.068
855.860	20.024	1272.394	1163.247
856.874	20.196	1271.468	1163.417
857.889	20.255	1270.730	1162.999
858.904	20.452	1269.858	1163.388
859.918	20.741	1268.353	1163.816
860.933	20.899	1267.464	1163.919
861.947	20.390	1266.703	1159.670
862.962	20.293	1265.027	1157.343
863.977	20.253	1263.667	1155.696
864.991	19.946	1262.789	1152.699
866.006	19.849	1262.477	1151.623
867.020	20.042	1260.877	1151.319
868.035	19.953	1259.603	1149.425
869.049	20.024	1258.918	1149.130
870.064	20.076	1257.824	1148.346
871.079	20.186	1256.964	1148.152
872.093	20.154	1256.961	1147.801
873.108	20.139	1256.034	1146.714
874.122	20.400	1254.848	1147.233
875.137	20.595	1255.087	1148.605
876.152	20.675	1254.457	1148.420
877.166	20.728	1251.913	1146.305
878.181	20.396	1250.534	1142.710
879.195	20.229	1249.639	1140.655
880.210	20.302	1248.246	1139.728
881.225	20.241	1247.253	1138.282
882.239	20.306	1246.297	1137.704
883.254	20.061	1245.679	1135.388
884.268	20.084	1245.367	1135.122
885.283	20.010	1243.336	1132.643
886.298	20.151	1241.201	1131.489
887.312	20.020	1240.461	1129.821
888.327	20.027	1240.459	1129.730
889.341	20.097	1238.753	1128.501
890.356	20.104	1237.783	1127.526
891.371	20.007	1238.070	1127.020
892.385	20.024	1237.498	1126.474
893.400	20.007	1236.565	1125.380
894.414	20.023	1235.324	1124.220
895.429	20.312	1233.549	1124.348
896.444	20.926	1232.423	1127.185
897.458	21.245	1231.721	1128.477
898.473	20.784	1231.051	1124.734
899.487	20.398	1229.801	1120.955
900.502	20.251	1227.904	1118.140
901.517	20.271	1226.203	1116.587
902.531	20.240	1225.565	1115.674
903.546	20.242	1225.174	1115.193
904.560	20.326	1224.155	1114.680
905.575	20.265	1223.318	1113.388
906.589	20.258	1223.209	1113.110
907.604	20.384	1221.922	1112.615
