DTS Sentinel unit serial number:	SN409020Multiplexer serial number:	ORYXHardware model number:	OX4-SRSoftware version number:	ORYX F/W v3.00 Oryx Data Collector v3.7.2.0data status	okinstallation	HaddamTimeLapsedifferential loss correction	single-endedforward channel	channel 3reverse channel	N/Adate	2011/06/21time	17:41:18forward acquisition time	30.00reverse acquisition time	0.00gamma	498.7831k internal	0.1830k external	0.1830temperature offset calibration	1.0074default loss term (dB/km)	0.3790temperature slope calibration	1.3530multiplexer offset coefficient	1.0000multiplexer slope coefficient	1.0000fibre end	0.00T internal ref (°C)	35.00T ext. ref 1 (°C)	29.33T ext. ref 2 (°C)	0.27length (m)	temperature (°C)	Stokes	anti-Stokes-747.200	-200.000	0.056	-0.506
-746.185	36.535	0.326	-0.366
-745.171	-66.594	0.285	0.143
-744.156	175.139	0.168	0.310
-743.142	238.048	-0.068	-0.144
-742.127	-196.131	-0.216	-0.002
-741.112	-200.000	-0.064	-0.398
-740.098	-200.000	0.000	0.080
-739.083	223.959	-0.103	0.212
-738.069	47.210	0.197	0.233
-737.054	-88.387	-0.488	0.184
-736.039	38.478	-0.133	0.151
-735.025	-115.205	-0.274	-0.065
-734.010	-200.000	0.015	-0.183
-732.996	800.000	-0.090	-0.411
-731.981	800.000	-0.057	-0.221
-730.966	-51.718	0.212	0.125
-729.952	148.682	-0.057	-0.098
-728.937	286.671	0.294	-0.677
-727.923	-19.975	-0.318	-0.249
-726.908	413.628	0.123	-0.334
-725.894	-53.867	-0.037	-0.021
-724.879	-200.000	0.043	-0.336
-723.864	1.322	-0.485	-0.442
-722.850	-182.570	-0.321	0.007
-721.835	72.211	0.288	-0.382
-720.821	-29.295	-0.464	0.337
-719.806	-149.945	-0.463	-0.045
-718.791	-28.394	-0.484	-0.354
-717.777	-110.439	-0.262	0.068
-716.762	-200.000	-0.004	0.372
-715.748	-114.945	-0.354	0.085
-714.733	269.242	0.069	-0.153
-713.718	-156.556	0.297	-0.023
-712.704	-12.118	0.533	-0.443
-711.689	-94.568	-0.378	0.130
-710.675	329.317	0.068	0.168
-709.660	143.016	0.349	-0.591
-708.645	800.000	0.060	-0.266
-707.631	800.000	-0.087	0.445
-706.616	-68.537	-0.670	0.328
-705.602	-105.254	-0.307	0.088
-704.587	-102.715	0.151	-0.045
-703.572	56.395	0.112	0.138
-702.558	0.122	0.171	-0.154
-701.543	642.597	-0.106	-0.345
-700.529	-44.395	-0.088	0.056
-699.514	-200.000	-0.016	0.368
-698.499	-200.000	0.041	-0.306
-697.485	-66.448	0.595	-0.299
-696.470	-82.668	0.242	-0.099
-695.456	-122.329	-0.265	0.054
-694.441	-200.000	0.039	-0.312
-693.426	161.544	-0.139	0.247
-692.412	-144.293	0.336	-0.039
-691.397	117.807	0.152	-0.238
-690.383	49.859	-0.090	-0.108
-689.368	-200.000	0.016	-0.432
-688.354	180.337	-0.045	0.085
-687.339	178.511	0.233	-0.432
-686.324	33.060	0.271	-0.298
-685.310	-145.889	-0.521	-0.058
-684.295	800.000	0.119	-0.499
-683.281	-200.000	0.038	0.304
-682.266	-99.119	-0.499	0.159
-681.251	-83.572	0.118	-0.048
-680.237	-66.725	0.321	0.160
-679.222	-78.398	0.369	0.160
-678.208	-45.585	-0.468	0.293
-677.193	107.648	0.207	-0.312
-676.178	-156.614	-0.491	0.038
-675.164	51.318	-0.173	0.208
-674.149	117.657	-0.143	0.224
-673.135	139.632	0.217	-0.363
-672.120	152.807	0.045	-0.079
-671.105	138.776	0.090	-0.150
-670.091	-191.840	0.185	-0.002
-669.076	-69.953	0.312	-0.150
-668.062	493.099	0.112	-0.327
-667.047	-70.448	-0.183	-0.088
-666.032	85.524	-0.136	0.189
-665.018	149.933	0.027	-0.046
-664.003	134.401	0.222	-0.366
-662.989	-200.000	-0.030	0.518
-661.974	292.486	-0.187	-0.434
-660.959	223.844	-0.236	0.484
-659.945	520.443	0.246	0.734
-658.930	-44.158	0.059	0.037
-657.916	-47.225	-0.157	-0.097
-656.901	800.000	-0.075	-0.275
-655.886	-148.950	-0.066	0.007
-654.872	-154.256	0.091	0.008
-653.857	-137.923	-0.255	-0.036
-652.843	370.202	-0.140	0.360
-651.828	-114.889	0.186	-0.045
-650.814	-200.000	-0.308	-0.000
-649.799	92.046	-0.363	0.519
-648.784	-117.250	-0.090	-0.021
-647.770	-65.811	-0.329	0.166
-646.755	456.930	-0.157	0.444
-645.741	-68.837	-0.421	0.205
-644.726	-162.573	0.422	0.026
-643.711	800.000	0.023	0.118
-642.697	-103.820	0.140	-0.041
-641.682	-89.210	-0.133	0.049
-640.668	-129.680	0.347	0.060
-639.653	-200.000	0.022	0.336
-638.638	-81.476	0.212	0.088
-637.624	141.062	-0.093	-0.156
-636.609	-46.364	0.199	-0.123
-635.595	-136.026	0.372	-0.055
-634.580	-2.217	0.445	-0.395
-633.565	-90.432	0.094	-0.034
-632.551	-200.000	0.047	-0.301
-631.536	246.985	0.164	0.352
-630.522	16.223	0.373	-0.372
-629.507	-21.376	0.255	0.197
-628.492	115.747	0.151	-0.234
-627.478	-60.339	0.382	-0.205
-626.463	60.437	0.175	-0.219
-625.449	-200.000	-0.042	0.305
-624.434	85.898	0.346	0.482
-623.419	444.485	-0.213	-0.594
-622.405	-166.493	-0.303	0.016
-621.390	438.267	-0.172	-0.477
-620.376	44.311	0.276	0.321
-619.361	9.524	-0.135	0.129
-618.346	800.000	-0.045	0.167
-617.332	-51.168	-0.457	-0.270
-616.317	152.741	0.074	0.128
-615.303	-100.418	-0.081	-0.025
-614.288	-0.824	-0.136	-0.122
-613.273	45.350	-0.210	0.245
-612.259	-75.644	-0.090	-0.040
-611.244	83.521	-0.215	0.297
-610.230	-44.511	-0.106	0.067
-609.215	-114.388	0.070	0.017
-608.201	800.000	-0.122	0.524
-607.186	48.711	-0.424	0.503
-606.171	2.896	-0.035	-0.032
-605.157	73.251	0.331	0.438
-604.142	-85.776	0.258	0.101
-603.128	-75.699	-0.362	-0.162
-602.113	-24.947	-0.346	-0.259
-601.098	104.915	0.347	0.518
-600.084	402.422	0.178	0.475
-599.069	-12.928	0.398	0.327
-598.055	457.970	0.145	-0.408
-597.040	-12.172	-0.236	0.195
-596.025	-155.182	0.049	-0.004
-595.011	-161.125	-0.191	-0.012
-593.996	-23.215	0.369	0.280
-592.982	-81.692	-0.422	0.174
-591.967	-167.874	-0.507	0.025
-590.952	265.087	0.129	0.286
-589.938	-72.989	-0.632	0.292
-588.923	-86.511	0.561	0.216
-587.909	-184.456	0.405	0.008
-586.894	-52.962	-0.316	0.183
-585.879	195.381	-0.194	0.373
-584.865	800.000	-0.022	0.117
-583.850	-109.490	-0.464	-0.123
-582.836	-51.998	-0.509	-0.298
-581.821	-126.665	-0.101	0.019
-580.806	15.996	0.141	0.140
-579.792	-6.836	0.491	0.421
-578.777	-200.000	0.007	0.145
-577.763	18.324	0.027	-0.027
-576.748	10.054	0.063	0.060
-575.733	308.623	-0.077	0.182
-574.719	-32.779	0.037	-0.026
-573.704	-200.000	0.044	0.298
-572.690	-200.000	0.012	-0.356
-571.675	267.093	-0.066	-0.145
-570.661	-1.272	0.297	0.265
-569.646	-200.000	0.045	0.411
-568.631	-111.482	0.423	0.108
-567.617	117.523	-0.093	-0.144
-566.602	-193.608	-0.291	-0.003
-565.588	-131.452	0.447	-0.074
-564.573	-167.136	0.240	-0.012
-563.558	-43.555	0.097	-0.061
-562.544	9.919	-0.155	0.148
-561.529	800.000	0.062	-0.300
-560.515	-95.548	-0.074	0.025
-559.500	-114.460	-0.271	0.065
-558.485	-81.971	-0.392	-0.161
-557.471	68.316	0.319	-0.412
-556.456	-12.043	-0.137	0.113
-555.442	325.786	-0.028	-0.068
-554.427	72.247	0.233	-0.307
-553.412	800.000	0.042	-0.224
-552.398	178.585	0.129	-0.238
-551.383	-140.623	0.576	0.075
-550.369	-150.888	0.431	-0.041
-549.354	453.131	-0.011	0.030
-548.339	-154.010	-0.063	0.005
-547.325	51.374	0.122	-0.146
-546.310	-115.680	0.188	-0.044
-545.296	-1.638	0.160	-0.142
-544.281	82.754	-0.206	-0.282
-543.266	-83.776	-0.534	0.214
-542.252	800.000	-0.114	0.432
-541.237	-186.812	0.375	-0.006
-540.223	108.906	-0.039	-0.059
-539.208	-200.000	-0.016	0.202
-538.193	-8.793	-0.331	0.279
-537.179	-97.677	-0.283	-0.092
-536.164	8.692	-0.081	0.076
-535.150	240.036	0.066	0.140
-534.135	-97.225	0.657	-0.215
-533.121	-2.223	-0.161	0.142
-532.106	-89.934	0.317	-0.116
-531.091	800.000	0.018	0.073
-530.077	-26.728	-0.162	-0.119
-529.062	-162.909	-0.468	0.028
-528.048	-200.000	-0.005	-0.121
-527.033	-37.873	0.350	0.234
-526.018	43.859	0.160	-0.185
-525.004	-100.316	0.298	0.093
-523.989	-66.717	-0.231	-0.115
-522.975	-22.668	-0.089	0.068
-521.960	-73.919	0.203	-0.093
-520.945	-4.962	-0.310	-0.269
-519.931	292.579	0.107	-0.247
-518.916	-152.486	0.289	-0.026
-517.902	-200.000	-0.088	-0.556
-516.887	105.641	0.122	-0.182
-515.872	506.215	0.215	-0.632
-514.858	-148.752	-0.024	0.002
-513.843	800.000	0.049	0.254
-512.829	-61.719	-0.049	-0.026
-511.814	57.491	-0.126	0.155
-510.799	-85.029	0.198	-0.078
-509.785	-200.000	0.049	0.435
-508.770	-63.175	-0.619	0.321
-507.756	63.299	0.055	0.070
-506.741	-200.000	-0.339	-0.001
-505.726	685.059	0.024	0.079
-504.712	-130.187	-0.301	-0.051
-503.697	-200.000	-0.043	0.358
-502.683	-61.725	0.058	0.031
-501.668	800.000	0.045	-0.195
-500.653	-180.120	-0.231	0.006
-499.639	-200.000	0.079	-0.489
-498.624	-61.554	0.301	0.159
-497.610	-200.000	-0.010	-0.207
-496.595	-180.497	0.305	-0.008
-495.581	-169.896	0.410	-0.018
-494.566	-134.535	-0.328	0.050
-493.551	-161.488	-0.578	0.037
-492.537	-200.000	0.010	0.448
-491.522	-135.554	0.716	-0.106
-490.508	-76.136	0.113	-0.050
-489.493	135.533	-0.169	-0.278
-488.478	41.622	0.173	0.197
-487.464	-4.722	0.177	0.154
-486.449	-72.550	-0.519	-0.240
-485.435	92.832	-0.318	-0.453
-484.420	-139.944	-0.491	-0.065
-483.405	-90.180	0.233	-0.085
-482.391	47.488	-0.204	-0.240
-481.376	-171.421	0.141	0.006
-480.362	301.600	-0.028	0.066
-479.347	-39.075	0.273	-0.180
-478.332	170.940	0.292	0.528
-477.318	68.803	-0.090	0.117
-476.303	-74.455	-0.340	-0.154
-475.289	800.000	-0.132	0.600
-474.274	387.391	-0.160	0.418
-473.259	247.050	0.031	0.066
-472.245	-200.000	0.040	-0.257
-471.230	25.590	0.086	0.090
-470.216	-200.000	0.020	0.653
-469.201	-80.619	-0.327	0.136
-468.186	-51.220	0.343	-0.201
-467.172	155.884	0.163	0.283
-466.157	-141.172	0.407	0.052
-465.143	160.445	0.212	0.373
-464.128	-200.000	0.024	-0.362
-463.113	-200.000	-0.018	-0.428
-462.099	-172.676	0.351	0.014
-461.084	553.901	0.151	-0.459
-460.070	-200.000	-0.029	-0.263
-459.055	-200.000	0.042	0.236
-458.040	168.465	-0.093	0.167
-457.026	364.813	0.198	0.502
-456.011	-75.358	0.217	0.097
-454.997	-200.000	0.100	-0.658
-453.982	-200.000	0.073	-0.423
-452.968	190.047	-0.168	0.318
-451.953	-186.600	0.475	-0.008
-450.938	-200.000	0.030	-0.324
-449.924	-16.502	0.213	0.169
-448.909	-27.315	-0.222	0.162
-447.895	39.500	0.244	-0.275
-446.880	278.854	0.216	-0.486
-445.865	-105.769	0.302	-0.085
-444.851	189.526	0.227	-0.429
-443.836	-200.000	0.076	-0.526
-442.822	-156.409	0.176	-0.014
-441.807	-52.209	0.455	0.264
-440.792	0.219	0.335	0.300
-439.778	-70.345	0.832	0.395
-438.763	-168.706	0.273	-0.013
-437.749	73.923	-0.047	-0.061
-436.734	-12.552	0.199	0.163
-435.719	303.098	0.109	-0.255
-434.705	262.265	-0.078	-0.171
-433.690	-32.057	0.318	0.223
-432.676	-124.973	-0.597	-0.114
-431.661	-71.019	-0.407	-0.191
-430.646	-88.836	0.219	0.081
-429.632	568.943	0.165	-0.507
-428.617	133.013	-0.438	-0.713
-427.603	-35.573	-0.190	0.129
-426.588	272.434	0.168	0.373
-425.573	-178.204	-0.411	-0.012
-424.559	-153.010	0.074	0.006
-423.544	-41.759	0.231	-0.149
-422.530	46.235	0.252	0.293
-421.515	-101.490	0.133	-0.040
-420.500	800.000	0.084	-0.422
-419.486	6.080	-0.230	0.214
-418.471	-153.981	0.149	0.013
-417.457	-3.010	-0.196	-0.172
-416.442	-65.661	-0.342	-0.172
-415.428	-128.421	0.480	-0.085
-414.413	-200.000	-0.016	0.282
-413.398	-200.000	0.011	0.106
-412.384	69.530	0.108	-0.140
-411.369	-22.893	0.148	0.112
-410.355	-174.410	0.040	-0.001
-409.340	-68.505	-0.465	0.225
-408.325	-51.805	-0.346	-0.201
-407.311	-23.877	-0.244	-0.183
-406.296	-140.640	0.133	-0.017
-405.282	91.567	-0.115	0.163
-404.267	198.718	-0.181	-0.348
-403.252	-136.583	-0.424	-0.061
-402.238	17.242	0.220	0.219
-401.223	-82.056	0.190	-0.077
-400.209	-29.733	0.114	0.082
-399.194	58.314	-0.142	0.174
-398.179	499.829	0.095	0.276
-397.165	-25.697	-0.277	0.204
-396.150	16.592	0.299	-0.297
-395.136	800.000	-0.047	-0.242
-394.121	-115.046	0.306	0.072
-393.106	-126.905	0.163	-0.030
-392.092	-20.131	-0.180	-0.139
-391.077	-200.000	-0.123	0.000
-390.063	-200.000	0.016	0.429
-389.048	-200.000	0.009	-0.252
-388.033	-150.347	-0.086	-0.008
-387.019	-97.094	-0.171	-0.056
-386.004	176.883	-0.181	-0.330
-384.990	800.000	0.041	-0.199
-383.975	772.751	0.103	0.355
-382.960	91.524	-0.008	-0.011
-381.946	541.901	0.159	-0.477
-380.931	248.897	-0.279	-0.594
-379.917	-11.559	0.226	-0.186
-378.902	-59.543	0.158	0.085
-377.888	-181.846	-0.199	0.005
-376.873	-156.756	0.565	0.043
-375.858	800.000	0.090	0.374
-374.844	695.553	0.038	0.126
-373.829	-123.988	-0.306	-0.060
-372.815	-200.000	-0.008	-0.090
-371.800	-58.435	-0.294	0.159
-370.785	-26.381	0.107	-0.078
-369.771	-1.406	-0.326	0.288
-368.756	44.481	-0.113	0.130
-367.742	-39.005	0.062	-0.041
-366.727	-156.116	0.336	-0.026
-365.712	-76.617	0.426	0.186
-364.698	62.217	-0.381	-0.476
-363.683	70.722	0.094	0.122
-362.669	-108.931	-0.350	0.093
-361.654	22.224	-0.249	0.255
-360.639	113.785	0.350	0.534
-359.625	-138.044	0.405	0.056
-358.610	241.064	0.016	-0.033
-357.596	-133.187	0.308	0.048
-356.581	306.665	0.086	-0.201
-355.566	-44.979	-0.246	-0.153
-354.552	-73.206	-0.519	-0.237
-353.537	13.456	0.365	0.355
-352.523	-61.155	-0.391	0.205
-351.508	-32.439	-0.175	-0.122
-350.493	-200.000	-0.061	-0.535
-349.479	135.345	-0.195	-0.318
-348.464	800.000	0.101	0.528
-347.450	22.533	0.087	-0.089
-346.435	650.310	0.237	-0.764
-345.420	-160.226	-0.029	-0.002
-344.406	204.642	-0.101	0.198
-343.391	-181.211	-0.079	-0.002
-342.377	2.033	-0.418	-0.378
-341.362	-70.213	-0.171	-0.081
-340.348	159.913	-0.311	0.543
-339.333	800.000	0.068	0.260
-338.318	-200.000	0.641	-0.001
-337.304	43.850	0.267	0.306
-336.289	-84.999	0.147	-0.057
-335.275	800.000	0.100	0.463
-334.260	-156.093	-0.181	0.014
-333.245	-90.684	0.275	0.099
-332.231	75.903	0.290	0.384
-331.216	98.734	-0.141	0.203
-330.202	-125.576	-0.256	-0.048
-329.187	-4.980	-0.177	-0.152
-328.172	-107.452	-0.206	-0.056
-327.158	-67.714	0.474	0.231
-326.143	-200.000	-0.017	-0.237
-325.129	376.300	-0.097	0.248
-324.114	-12.835	-0.319	-0.260
-323.099	15.109	-0.164	-0.161
-322.085	-107.673	0.185	-0.050
-321.070	449.982	-0.098	0.273
-320.056	-200.000	0.010	-0.599
-319.041	51.437	0.201	-0.238
-318.026	-200.000	-0.306	-0.001
-317.012	298.466	-0.084	0.194
-315.997	800.000	-0.078	-0.274
-314.983	63.914	-0.296	-0.372
-313.968	510.899	-0.154	-0.450
-312.953	-19.510	0.119	0.092
-311.939	94.578	0.448	-0.638
-310.924	472.565	0.074	-0.209
-309.910	-200.000	-0.005	0.414
-308.895	20.106	-0.267	0.269
-307.880	-74.226	-0.337	-0.152
-306.866	77.246	0.296	-0.394
-305.851	212.426	-0.324	-0.641
-304.837	221.298	-0.171	-0.344
-303.822	560.717	-0.197	0.598
-302.807	-200.000	0.048	0.345
-301.793	345.099	-0.113	0.279
-300.778	800.000	0.117	0.436
-299.764	221.872	0.118	-0.238
-298.749	-143.706	0.222	-0.026
-297.735	-141.143	0.613	-0.077
-296.720	15.233	-0.328	-0.321
-295.705	239.311	0.157	0.327
-294.691	60.768	0.139	-0.172
-293.676	-184.372	0.268	0.005
-292.662	-200.000	-0.048	0.436
-291.647	-99.169	0.210	0.066
-290.632	63.362	-0.091	-0.114
-289.618	51.360	-0.273	-0.324
-288.603	290.531	0.057	0.130
-287.589	-167.097	-0.413	-0.021
-286.574	-55.300	-0.558	-0.312
-285.559	-11.199	-0.549	0.451
-284.545	-149.456	-0.309	0.030
-283.530	-110.668	0.461	0.118
-282.516	800.000	0.045	0.204
-281.501	-138.811	0.289	-0.039
-280.486	-40.144	-0.205	0.133
-279.472	-100.090	-0.088	-0.027
-278.457	-120.982	-0.294	0.061
-277.443	63.189	0.230	0.288
-276.428	-144.386	-0.561	-0.064
-275.413	91.985	-0.061	-0.086
-274.399	126.163	0.103	0.162
-273.384	-87.854	-0.087	-0.033
-272.370	-124.794	-0.172	-0.033
-271.355	-108.701	-0.353	-0.094
-270.340	-131.606	-0.416	-0.068
-269.326	158.900	-0.024	-0.042
-268.311	-200.000	-0.001	-0.385
-267.297	548.873	-0.089	-0.266
-266.282	294.363	0.140	-0.320
-265.267	-1.167	0.252	-0.222
-264.253	-61.039	-0.645	-0.338
-263.238	-186.078	0.135	0.002
-262.224	560.113	-0.077	0.235
-261.209	-200.000	0.034	-0.241
-260.195	-200.000	-0.031	-0.485
-259.180	-16.006	0.267	-0.212
-258.165	-88.141	0.250	-0.093
-257.151	-98.237	-0.180	0.057
-256.136	-21.097	-0.350	0.267
-255.122	-142.248	-0.328	-0.040
-254.107	-19.801	0.025	-0.019
-253.092	-19.303	0.319	0.246
-252.078	-28.674	0.392	-0.281
-251.063	-59.642	-0.522	-0.278
-250.049	511.321	-0.152	-0.443
-249.034	-92.437	0.210	-0.073
-248.019	-49.258	-0.200	0.119
-247.005	8.500	-0.353	0.331
-245.990	29.804	-0.282	0.300
-244.976	178.394	-0.247	0.451
-243.961	-75.709	0.404	-0.178
-242.946	-142.205	-0.056	0.007
-241.932	392.202	-0.071	0.186
-240.917	19.393	0.319	0.319
-239.903	-38.471	0.291	0.192
-238.888	-124.744	0.441	-0.084
-237.873	446.384	0.218	-0.601
-236.859	-38.320	0.087	-0.057
-235.844	-119.064	0.185	0.040
-234.830	33.195	0.186	-0.201
-233.815	-200.000	0.009	-0.408
-232.800	800.000	0.061	0.256
-231.786	55.909	0.119	-0.144
-230.771	-139.921	0.470	0.061
-229.757	-103.169	-0.306	0.089
-228.742	-67.568	-0.494	-0.240
-227.727	19.897	-0.457	-0.458
-226.713	350.818	0.079	0.196
-225.698	-153.499	0.396	-0.034
-224.684	-177.596	-0.052	-0.002
-223.669	32.363	-0.555	-0.597
-222.655	164.128	0.104	0.182
-221.640	800.000	0.146	0.621
-220.625	-59.815	-0.323	-0.172
-219.611	-47.555	0.307	-0.185
-218.596	800.000	-0.037	-0.139
-217.582	-121.963	-0.505	0.103
-216.567	-145.689	-0.504	0.055
-215.552	-16.378	0.174	0.138
-214.538	-167.937	0.174	0.008
-213.523	81.107	0.231	0.311
-212.509	-14.575	-0.027	-0.021
-211.494	800.000	0.016	-0.057
-210.479	119.400	-0.132	0.205
-209.465	-200.000	0.037	-0.431
-208.450	-44.069	-0.237	0.148
-207.436	580.476	0.073	-0.224
-206.421	95.007	0.029	-0.041
-205.406	-200.000	0.008	-0.197
-204.392	-78.800	-0.298	0.126
-203.377	338.604	-0.086	-0.210
-202.363	-30.532	0.122	-0.086
-201.348	-200.000	0.010	0.299
-200.333	108.794	0.206	0.307
-199.319	-12.688	0.292	0.237
-198.304	94.752	-0.184	0.260
-197.290	456.162	0.074	0.204
-196.275	378.560	0.126	-0.322
-195.260	-130.131	0.099	0.017
-194.246	-114.990	-0.583	0.137
-193.231	-172.249	-0.305	-0.012
-192.217	-124.411	-0.341	-0.066
-191.202	108.429	-0.228	-0.340
-190.187	-120.598	-0.168	0.035
-189.173	-72.182	-0.123	0.056
-188.158	-104.446	-0.238	0.068
-187.144	-200.000	0.060	0.347
-186.129	800.000	-0.049	-0.253
-185.114	-62.640	0.406	0.209
-184.100	180.131	0.390	-0.713
-183.085	-94.223	0.129	-0.044
-182.071	783.234	-0.152	0.519
-181.056	-1.629	-0.354	0.310
-180.042	408.123	0.138	-0.364
-179.027	14.794	0.161	-0.157
-178.012	800.000	0.081	0.339
-176.998	-19.568	-0.294	0.226
-175.983	16.366	-0.433	0.424
-174.969	-101.658	0.153	0.046
-173.954	-31.737	-0.394	-0.274
-172.939	149.857	-0.245	0.413
-171.925	-69.343	0.379	-0.180
-170.910	-182.505	0.172	0.004
-169.896	38.574	-0.278	-0.309
-168.881	-200.000	0.039	-0.274
-167.866	34.663	-0.138	0.150
-166.852	800.000	0.051	0.236
-165.837	-200.000	-0.033	0.401
-164.823	274.123	0.126	-0.278
-163.808	38.895	-0.155	-0.173
-162.793	2.328	0.344	-0.309
-161.779	49.476	-0.180	-0.211
-160.764	650.241	-0.020	0.064
-159.750	-29.773	0.279	0.198
-158.735	-200.000	0.026	0.397
-157.720	-200.000	-0.040	0.397
-156.706	554.173	-0.084	-0.253
-155.691	-96.598	0.107	0.035
-154.677	595.811	0.254	-0.786
-153.662	-42.659	0.184	0.116
-152.647	-162.733	-0.254	0.015
-151.633	230.783	0.187	0.381
-150.618	-200.000	0.003	-0.425
-149.604	272.993	-0.161	-0.355
-148.589	-200.000	-0.024	0.217
-147.574	82.530	-0.396	0.534
-146.560	-195.896	0.141	0.001
-145.545	22.078	-0.302	-0.306
-144.531	-120.985	-0.070	0.015
-143.516	18.899	-0.136	0.135
-142.502	-200.000	0.008	0.447
-141.487	-200.000	0.032	0.302
-140.472	594.783	-0.153	0.471
-139.458	800.000	0.072	0.374
-138.443	31.805	-0.206	0.220
-137.429	-88.163	-0.379	-0.140
-136.414	-63.680	0.462	-0.234
-135.399	-45.656	-0.129	-0.079
-134.385	-183.380	-0.292	-0.006
-133.370	-158.944	0.122	-0.008
-132.356	772.131	-0.130	0.443
-131.341	732.178	-0.131	-0.439
-130.326	-97.796	-0.405	-0.129
-129.312	10.934	-0.326	-0.309
-128.297	39.059	-0.155	0.172
-127.283	-82.899	-0.385	-0.154
-126.268	-78.798	-0.401	0.169
-125.253	330.552	-0.033	-0.078
-124.239	-105.622	-0.175	-0.049
-123.224	800.000	0.054	0.240
-122.210	-82.068	0.077	-0.031
-121.195	-21.847	-0.305	0.230
-120.180	-149.668	-0.130	0.013
-119.166	284.854	0.192	-0.430
-118.151	35.848	0.111	0.121
-117.137	-200.000	0.061	-0.970
-116.122	-24.550	0.329	0.243
-115.107	800.000	0.098	-0.503
-114.093	-108.194	-0.188	0.050
-113.078	-93.241	-0.801	-0.275
-112.064	800.000	-0.088	-0.405
-111.049	16.158	0.078	-0.076
-110.034	-90.743	-0.319	-0.113
-109.020	-6.298	0.037	-0.031
-108.005	-120.854	0.142	-0.029
-106.991	46.989	-0.135	-0.156
-105.976	40.023	0.109	-0.121
-104.962	102.560	0.148	0.214
-103.947	-56.565	-0.393	-0.216
-102.932	11.070	-0.303	-0.287
-101.918	-11.567	0.338	-0.275
-100.903	613.949	-0.119	0.372
-99.889	-200.000	0.004	-0.058
-98.874	95.006	-0.161	-0.228
-97.859	128.521	-0.044	0.070
-96.845	69.980	-0.265	-0.340
-95.830	-200.000	-0.006	-0.347
-94.816	-13.464	0.325	0.261
-93.801	-84.015	0.106	-0.041
-92.786	-59.739	0.369	0.195
-91.772	-168.314	0.090	-0.004
-90.757	-200.000	-0.044	-0.320
-89.743	194.429	-0.096	-0.182
-88.728	-106.949	-0.596	0.162
-87.713	-200.000	-0.026	-0.243
-86.699	-61.157	0.178	-0.092
-85.684	800.000	0.055	0.257
-84.670	-55.053	-0.486	0.270
-83.655	-44.319	-0.176	-0.109
-82.640	-115.875	-0.187	0.043
-81.626	-146.056	-0.132	-0.014
-80.611	-200.000	-0.039	-0.361
-79.597	-27.695	0.492	-0.353
-78.582	-92.149	-0.150	0.052
-77.567	-5.232	-0.077	-0.065
-76.553	800.000	0.140	0.502
-75.538	50.010	-0.074	-0.087
-74.524	-200.000	-0.039	0.370
-73.509	-155.643	-0.259	0.020
-72.494	17.869	-0.231	-0.228
-71.480	559.674	0.119	-0.357
-70.465	196.854	-0.116	-0.219
-69.451	-150.609	-0.406	0.038
-68.436	-107.997	-0.301	-0.080
-67.422	634.307	0.103	0.325
-66.407	-7.069	0.140	-0.118
-65.392	411.123	0.153	-0.403
-64.378	-200.000	-0.075	-0.467
-63.363	73.679	0.112	0.145
-62.349	800.000	0.022	0.106
-61.334	-29.224	-1.328	-0.940
-60.319	-103.705	0.385	0.111
-59.305	285.095	-2.745	-6.144
-58.290	20.598	2.906	2.910
-57.276	510.233	3.635	10.518
-56.261	-200.000	13.228	211.721
-55.246	504.342	1133.603	3264.089
-54.232	68.349	2779.854	3528.588
-53.217	75.832	2693.960	3528.198
-52.203	89.466	2426.701	3353.507
-51.188	34.924	2080.597	2253.683
-50.173	37.645	1950.744	2143.110
-49.159	36.214	1938.956	2114.323
-48.144	35.554	1935.192	2102.867
-47.130	35.474	1931.547	2097.946
-46.115	35.246	1930.723	2094.464
-45.100	35.205	1929.487	2092.587
-44.086	35.239	1927.569	2090.797
-43.071	35.313	1925.469	2089.252
-42.057	35.295	1923.873	2087.233
-41.042	35.260	1923.453	2086.316
-40.027	35.311	1921.890	2085.100
-39.013	35.165	1920.631	2082.055
-37.998	35.172	1919.006	2080.287
-36.984	35.144	1918.399	2079.242
-35.969	35.207	1917.006	2078.331
-34.954	35.135	1915.792	2076.146
-33.940	35.159	1914.456	2074.877
-32.925	35.136	1913.345	2073.351
-31.911	35.034	1912.203	2070.920
-30.896	35.066	1910.793	2069.657
-29.881	35.085	1909.470	2068.348
-28.867	35.025	1908.525	2066.591
-27.852	35.052	1906.457	2064.557
-26.838	35.036	1905.150	2062.886
-25.823	35.068	1904.346	2062.283
-24.809	35.034	1903.005	2060.381
-23.794	35.191	1900.533	2059.319
-22.779	35.074	1898.892	2056.200
-21.765	35.000	1899.023	2055.463
-20.750	34.790	1898.710	2052.767
-19.736	35.020	1896.336	2052.601
-18.721	34.931	1895.079	2050.201
-17.706	35.028	1892.995	2048.909
-16.692	34.890	1892.230	2046.516
-15.677	34.989	1891.459	2046.667
-14.663	34.998	1890.040	2045.147
-13.648	34.838	1889.424	2042.681
-12.633	35.025	1887.022	2042.009
-11.619	34.972	1886.266	2040.539
-10.604	34.785	1885.041	2037.126
-9.590	34.888	1883.676	2036.674
-8.575	34.944	1882.209	2035.607
-7.560	34.795	1882.294	2034.021
-6.546	34.837	1881.134	2033.139
-5.531	34.726	1880.077	2030.736
-4.517	34.824	1878.340	2029.818
-3.502	34.925	1877.014	2029.384
-2.487	34.911	1876.483	2028.578
-1.473	35.192	1873.118	2027.856
-0.458	35.825	1855.416	2015.280
0.556	32.894	1989.129	2114.923
1.571	31.790	2204.425	2329.779
2.586	33.342	2253.034	2400.665
3.600	33.326	2256.240	2403.589
4.615	33.458	2255.180	2403.856
5.629	33.440	2253.054	2401.070
6.644	33.574	2251.980	2401.349
7.659	33.585	2250.070	2399.153
8.673	33.640	2248.184	2397.560
9.688	33.097	2251.006	2393.374
10.702	29.938	2319.764	2424.677
11.717	25.834	2380.083	2431.856
12.731	12.965	2347.369	2224.793
13.746	1.971	2318.029	2048.896
14.761	0.344	2311.714	2021.158
15.775	0.184	2310.437	2017.636
16.790	0.082	2309.208	2014.949
17.804	0.084	2307.108	2012.911
18.819	0.088	2305.992	2011.747
19.834	0.194	2303.896	2011.100
20.848	0.050	2303.601	2008.664
21.863	0.098	2301.955	2007.630
22.877	0.090	2300.202	2005.755
23.892	0.006	2298.173	2002.628
24.907	0.016	2295.580	2000.256
25.921	0.012	2294.415	1998.947
26.936	-0.043	2290.987	1994.989
27.950	0.158	2287.867	1994.717
28.965	0.038	2285.580	1990.890
29.980	0.046	2285.166	1990.385
30.994	0.295	2282.965	1991.546
32.009	6.647	2306.344	2096.755
33.023	22.695	2355.118	2358.198
34.038	31.255	2373.360	2491.538
35.053	32.653	2373.110	2509.717
36.067	32.742	2370.518	2507.860
37.082	32.294	2368.303	2499.237
38.096	32.386	2367.328	2499.130
39.111	32.977	2365.800	2505.099
40.126	32.909	2364.518	2502.541
41.140	33.254	2363.139	2505.371
42.155	33.002	2359.125	2497.469
43.169	32.418	2356.620	2486.759
44.184	32.603	2354.629	2486.823
45.199	32.567	2351.713	2482.971
46.213	32.093	2350.383	2474.991
47.228	31.972	2348.815	2471.433
48.242	32.239	2348.589	2474.442
49.257	32.653	2347.572	2478.547
50.271	32.924	2345.004	2479.112
51.286	32.948	2342.533	2476.525
52.301	32.455	2339.123	2466.134
53.315	31.590	2336.267	2451.435
54.330	29.903	2328.432	2420.762
55.344	28.654	2322.206	2397.616
56.359	28.694	2319.412	2394.967
57.374	28.447	2317.683	2389.660
58.388	28.226	2313.848	2382.537
59.403	28.249	2310.198	2378.789
60.417	28.374	2308.398	2378.279
61.432	28.794	2307.388	2382.430
62.447	28.605	2305.274	2377.502
63.461	28.393	2302.950	2372.059
64.476	28.255	2301.129	2368.111
65.490	28.691	2302.353	2374.753
66.505	29.026	2301.152	2377.591
67.520	29.956	2302.798	2391.080
68.534	31.209	2303.268	2407.538
69.549	31.513	2301.483	2409.322
70.563	31.742	2298.953	2409.346
71.578	31.932	2298.440	2410.976
72.593	32.562	2298.427	2418.804
73.607	32.817	2298.469	2421.853
74.622	32.546	2295.808	2415.261
75.636	32.500	2291.559	2409.907
76.651	32.493	2289.866	2407.754
77.666	32.816	2289.512	2411.248
78.680	32.875	2286.586	2408.626
79.695	32.686	2284.229	2403.436
80.709	31.951	2281.315	2390.676
81.724	32.003	2279.763	2389.421
82.739	32.980	2280.464	2402.370
83.753	33.608	2281.043	2410.723
84.768	33.317	2278.401	2403.931
85.782	33.074	2275.961	2397.973
86.797	33.015	2274.069	2394.933
87.812	32.593	2270.033	2385.028
88.826	32.450	2269.157	2382.002
89.841	33.013	2268.036	2387.694
90.855	33.435	2265.825	2390.442
91.870	32.599	2261.947	2375.475
92.884	32.576	2261.450	2374.379
93.899	32.993	2260.967	2378.861
94.914	32.026	2255.761	2360.878
95.928	29.588	2247.628	2321.329
96.943	29.060	2245.955	2312.656
97.957	31.437	2251.232	2347.865
98.972	33.201	2253.415	2372.125
99.987	32.788	2248.885	2361.869
101.001	32.586	2246.207	2356.239
102.016	32.497	2244.510	2353.056
103.030	32.478	2241.536	2349.417
104.045	32.606	2239.709	2348.823
105.060	33.259	2239.448	2356.446
106.074	33.535	2238.961	2359.115
107.089	32.848	2235.810	2346.917
108.103	32.662	2233.921	2342.329
109.118	32.875	2233.293	2344.056
110.133	33.009	2230.477	2342.491
111.147	32.894	2228.358	2338.556
112.162	32.774	2227.328	2335.699
113.176	32.762	2223.402	2331.152
114.191	32.262	2221.405	2322.574
115.206	32.149	2220.149	2319.577
116.220	32.442	2218.851	2321.581
117.235	32.243	2215.271	2315.095
118.249	32.055	2212.970	2310.085
119.264	32.259	2212.267	2311.600
120.279	32.340	2209.905	2309.849
121.293	32.189	2207.256	2304.945
122.308	31.997	2205.466	2300.437
123.322	31.738	2204.022	2295.455
124.337	30.857	2198.631	2278.748
125.352	29.395	2195.723	2257.491
126.366	29.630	2196.418	2260.827
127.381	31.427	2197.382	2283.626
128.395	32.529	2197.208	2296.695
129.410	32.460	2195.598	2293.887
130.424	32.284	2193.059	2288.815
131.439	32.223	2191.517	2286.179
132.454	31.991	2189.165	2280.628
133.468	32.160	2187.542	2280.721
134.483	32.345	2186.208	2281.307
135.497	32.454	2185.200	2281.319
136.512	32.923	2184.351	2285.865
137.527	32.939	2182.599	2283.955
138.541	32.684	2180.988	2278.900
139.556	32.709	2180.754	2278.678
140.570	32.894	2178.462	2278.259
141.585	32.754	2175.233	2272.918
142.600	32.743	2174.921	2272.184
143.614	32.807	2174.255	2271.987
144.629	33.337	2173.178	2276.997
145.643	33.182	2170.149	2271.690
146.658	32.812	2168.643	2265.373
147.673	32.104	2165.471	2253.251
148.687	32.149	2163.837	2251.822
149.702	32.589	2162.662	2255.625
150.716	32.707	2161.972	2256.063
151.731	33.442	2164.213	2266.974
152.746	33.831	2162.557	2269.639
153.760	32.303	2156.863	2245.065
154.775	29.582	2148.602	2203.623
155.789	28.470	2146.269	2187.640
156.804	30.777	2149.630	2218.479
157.819	32.325	2150.723	2237.868
158.833	32.830	2148.379	2241.198
159.848	33.208	2147.912	2244.948
160.862	33.239	2146.297	2243.362
161.877	33.423	2145.572	2244.524
162.892	33.602	2145.669	2246.492
163.906	33.953	2145.094	2249.802
164.921	33.843	2142.440	2245.442
165.935	33.498	2139.398	2237.893
166.950	32.981	2137.273	2229.260
167.964	32.612	2133.727	2220.926
168.979	32.422	2131.147	2215.733
169.994	32.569	2131.033	2217.087
171.008	32.586	2126.995	2212.823
172.023	32.443	2126.015	2209.843
173.037	32.918	2127.502	2216.740
174.052	32.761	2124.667	2211.668
175.067	32.369	2122.025	2204.037
176.081	32.249	2119.272	2199.505
177.096	32.343	2119.386	2200.460
178.110	32.411	2116.689	2198.199
179.125	32.092	2115.657	2193.113
180.140	32.349	2114.537	2194.710
181.154	32.552	2114.205	2196.476
182.169	32.588	2112.942	2195.321
183.183	31.901	2108.688	2182.610
184.198	29.738	2100.788	2148.933
185.213	29.069	2100.019	2140.079
186.227	31.252	2104.512	2169.929
187.242	32.189	2103.404	2179.459
188.256	31.976	2102.471	2175.745
189.271	32.503	2102.086	2181.224
190.286	32.613	2100.582	2180.685
191.300	32.282	2095.981	2171.804
192.315	32.141	2094.279	2168.142
193.329	32.529	2095.161	2173.306
194.344	33.108	2094.668	2179.246
195.359	33.021	2093.582	2176.848
196.373	33.184	2092.648	2177.495
197.388	33.239	2088.816	2173.891
198.402	32.757	2087.283	2166.470
199.417	32.814	2085.410	2164.923
200.432	33.013	2083.224	2164.688
201.446	33.033	2082.795	2164.207
202.461	32.746	2079.420	2157.141
203.475	32.295	2078.010	2150.237
204.490	32.568	2075.486	2150.510
205.504	32.807	2074.433	2151.899
206.519	32.887	2071.863	2149.885
207.534	33.015	2071.136	2150.343
208.548	33.385	2070.804	2153.979
209.563	32.723	2066.892	2142.087
210.577	32.644	2067.229	2141.283
211.592	33.488	2067.883	2151.333
212.607	32.290	2062.153	2131.477
213.621	28.631	2053.276	2080.440
214.636	28.780	2052.412	2081.020
215.650	31.917	2058.627	2122.824
216.665	33.242	2059.291	2138.317
217.680	33.364	2059.409	2139.571
218.694	33.508	2056.922	2138.365
219.709	32.710	2053.758	2125.782
220.723	33.006	2052.662	2127.739
221.738	33.746	2053.008	2136.229
222.753	33.844	2051.478	2135.486
223.767	33.664	2049.379	2131.005
224.782	33.057	2045.618	2120.002
225.796	32.938	2044.857	2117.619
226.811	33.451	2043.761	2122.005
227.826	33.405	2042.177	2119.591
228.840	33.217	2040.476	2115.456
229.855	32.897	2038.121	2109.167
230.869	32.505	2035.089	2101.384
231.884	32.383	2034.188	2098.837
232.899	32.557	2034.168	2100.518
233.913	32.867	2033.048	2102.577
234.928	32.984	2032.465	2103.033
235.942	32.844	2029.889	2098.552
236.957	32.478	2026.383	2090.587
237.972	32.551	2025.846	2090.597
238.986	32.763	2025.493	2092.352
240.001	32.462	2022.480	2085.640
241.015	32.239	2021.404	2081.789
242.030	32.208	2019.875	2079.624
243.045	30.300	2013.129	2051.259
244.059	29.656	2011.910	2042.615
245.074	31.896	2014.245	2069.621
246.088	32.545	2012.779	2075.057
247.103	32.580	2011.356	2073.735
248.117	32.878	2010.701	2076.100
249.132	32.998	2008.555	2074.966
250.147	32.471	2006.132	2066.404
251.161	32.076	2005.005	2060.631
252.176	32.528	2003.339	2063.655
253.190	32.387	2000.727	2059.164
254.205	32.316	2000.084	2057.483
255.220	32.579	1998.934	2058.940
256.234	32.243	1996.813	2052.815
257.249	32.136	1995.568	2050.125
258.263	32.283	1995.029	2050.933
259.278	32.639	1994.936	2054.493
260.293	32.625	1993.256	2052.363
261.307	32.497	1990.992	2048.386
262.322	32.528	1989.583	2047.028
263.336	32.305	1986.814	2041.506
264.351	32.327	1985.362	2040.008
265.366	32.714	1985.056	2043.669
266.380	33.133	1984.908	2047.839
267.395	32.693	1981.944	2039.749
268.409	32.592	1980.083	2036.488
269.424	32.868	1979.391	2038.535
270.439	32.895	1979.533	2038.723
271.453	32.500	1975.108	2029.646
272.468	29.741	1966.167	1990.413
273.482	28.955	1965.607	1981.098
274.497	31.324	1968.350	2009.266
275.512	32.560	1968.614	2022.657
276.526	32.861	1966.969	2023.963
277.541	32.730	1964.079	2019.334
278.555	32.471	1963.240	2015.452
279.570	32.358	1960.873	2011.560
280.585	32.181	1959.220	2007.728
281.599	32.305	1958.930	2008.521
282.614	31.201	1952.549	1989.916
283.628	28.167	1943.322	1947.868
284.643	26.811	1940.688	1930.491
285.657	26.855	1938.787	1928.838
286.672	26.693	1937.452	1925.549
287.687	26.511	1934.697	1920.641
288.701	26.801	1934.581	1923.388
289.716	27.106	1933.272	1925.100
290.730	27.001	1931.512	1922.005
291.745	27.831	1931.620	1930.704
292.760	28.639	1933.537	1940.981
293.774	30.362	1939.714	1965.308
294.789	32.411	1942.190	1989.377
295.803	32.918	1940.575	1992.866
296.818	32.636	1939.599	1988.636
297.833	33.003	1938.739	1991.410
298.847	32.944	1937.452	1989.220
299.862	32.702	1935.657	1984.578
300.876	32.120	1931.308	1973.745
301.891	30.087	1924.956	1945.582
302.906	29.313	1924.321	1936.539
303.920	31.639	1927.804	1964.378
304.935	33.046	1927.889	1979.058
305.949	33.006	1926.193	1976.654
306.964	33.110	1925.260	1976.561
307.979	32.430	1920.915	1964.732
308.993	29.948	1911.409	1928.821
310.008	27.149	1902.972	1890.845
311.022	26.240	1901.101	1879.262
312.037	26.608	1901.641	1883.422
313.052	26.517	1898.272	1878.901
314.066	26.028	1896.139	1871.469
315.081	26.053	1894.654	1870.045
316.095	26.079	1893.506	1868.961
317.110	26.151	1892.279	1868.269
318.125	26.316	1890.663	1868.165
319.139	26.231	1889.492	1865.899
320.154	26.474	1887.727	1866.460
321.168	26.448	1887.287	1865.529
322.183	27.532	1889.804	1879.033
323.197	30.394	1896.458	1915.143
324.212	32.458	1898.150	1938.016
325.227	32.688	1896.666	1938.646
326.241	32.668	1896.283	1937.821
327.256	32.939	1895.047	1939.120
328.270	32.949	1893.911	1937.824
329.285	32.873	1894.152	1937.060
330.300	32.256	1890.091	1926.324
331.314	29.429	1882.096	1888.899
332.329	29.023	1881.636	1884.036
333.343	31.649	1886.423	1915.649
334.358	32.984	1886.598	1929.322
335.373	33.465	1886.191	1933.602
336.387	33.923	1884.245	1936.070
337.402	33.596	1882.894	1931.100
338.416	33.393	1880.422	1926.262
339.431	33.204	1878.106	1921.732
340.446	32.366	1872.591	1907.324
341.460	28.700	1863.546	1860.619
342.475	26.899	1857.919	1836.478
343.489	26.370	1855.703	1828.683
344.504	26.443	1854.441	1827.968
345.519	26.477	1852.717	1826.399
346.533	26.196	1850.676	1821.318
347.548	26.011	1849.603	1818.164
348.562	26.168	1847.680	1817.648
349.577	26.324	1847.346	1818.675
350.592	26.494	1847.009	1819.845
351.606	26.585	1845.215	1818.787
352.621	26.432	1842.457	1814.300
353.635	26.428	1842.818	1814.396
354.650	28.278	1847.941	1837.913
355.665	31.237	1851.441	1871.028
356.679	32.095	1852.612	1880.626
357.694	32.549	1851.627	1883.976
358.708	32.728	1851.232	1885.147
359.723	32.108	1847.337	1874.732
360.738	29.343	1840.970	1840.355
361.752	29.400	1841.380	1841.115
362.767	32.069	1844.961	1871.257
363.781	32.771	1844.342	1877.428
364.796	33.027	1843.207	1878.608
365.810	33.185	1841.702	1878.426
366.825	32.459	1838.071	1867.268
367.840	29.776	1829.732	1831.902
368.854	27.081	1823.457	1798.615
369.869	26.717	1820.301	1791.673
370.883	26.844	1819.409	1791.843
371.898	26.700	1819.052	1789.842
372.913	26.577	1817.559	1786.944
373.927	26.383	1814.503	1781.803
374.942	26.284	1815.338	1781.423
375.956	26.611	1814.409	1783.538
376.971	26.606	1811.659	1780.571
377.986	26.340	1809.410	1775.524
379.000	26.415	1807.444	1774.121
380.015	26.589	1807.608	1775.784
381.029	28.771	1813.326	1802.737
382.044	32.416	1818.919	1844.067
383.059	33.330	1818.897	1852.825
384.073	32.967	1817.697	1847.812
385.088	33.261	1817.378	1850.151
386.102	33.374	1816.177	1849.823
387.117	33.264	1814.004	1846.307
388.132	33.204	1814.559	1846.057
389.146	32.604	1810.520	1835.853
390.161	29.605	1802.061	1797.778
391.175	29.249	1799.180	1791.203
392.190	31.411	1801.701	1814.622
393.205	32.895	1801.842	1829.016
394.219	33.272	1800.447	1831.051
395.234	32.740	1799.537	1824.733
396.248	32.622	1797.801	1821.604
397.263	32.759	1795.400	1820.284
398.278	32.672	1793.654	1817.456
399.292	32.382	1792.212	1812.964
400.307	31.325	1787.122	1797.384
401.321	28.317	1779.044	1760.040
402.336	26.670	1775.720	1740.651
403.350	26.698	1773.320	1738.357
404.365	27.186	1773.169	1742.705
405.380	27.145	1770.889	1739.869
406.394	26.477	1769.875	1732.230
407.409	26.525	1768.800	1731.432
408.423	26.858	1767.413	1733.064
409.438	26.819	1765.525	1730.634
410.453	26.845	1765.096	1730.257
411.467	26.861	1764.716	1729.829
412.482	27.364	1766.447	1736.148
413.496	30.848	1772.926	1775.769
414.511	32.995	1774.146	1797.340
415.526	33.123	1772.294	1796.469
416.540	33.223	1771.186	1796.085
417.555	33.054	1770.625	1793.684
418.569	32.487	1769.074	1786.489
419.584	32.428	1767.946	1784.576
420.599	32.263	1767.422	1782.262
421.613	32.444	1766.192	1782.537
422.628	32.654	1764.983	1783.099
423.642	33.070	1764.605	1786.452
424.657	32.255	1760.265	1774.120
425.672	31.611	1758.929	1766.451
426.686	32.340	1758.218	1772.440
427.701	32.074	1757.304	1768.784
428.715	32.002	1755.441	1766.018
429.730	32.458	1754.011	1768.679
430.745	32.937	1754.761	1773.741
431.759	33.421	1754.547	1777.882
432.774	33.436	1753.409	1776.659
433.788	30.835	1745.453	1743.939
434.803	28.130	1740.169	1713.029
435.818	27.660	1738.800	1707.056
436.832	27.646	1738.553	1706.477
437.847	26.788	1731.014	1690.834
438.861	17.072	1702.632	1572.862
439.876	3.774	1677.440	1426.668
440.890	0.442	1670.110	1389.452
441.905	0.240	1668.487	1386.065
442.920	0.261	1668.291	1385.935
443.934	0.121	1666.423	1382.918
444.949	0.161	1665.312	1382.202
445.963	0.027	1665.153	1380.668
446.978	0.040	1664.684	1380.235
447.993	-0.006	1663.368	1378.552
449.007	0.126	1660.925	1377.574
450.022	0.191	1658.899	1376.329
451.036	0.005	1657.866	1373.601
452.051	1.413	1664.952	1392.279
453.066	13.351	1693.053	1526.933
454.080	26.451	1714.262	1668.146
455.095	29.387	1719.741	1700.525
456.109	30.416	1721.312	1711.416
457.124	31.059	1720.264	1716.117
458.139	30.511	1717.408	1708.002
459.153	29.835	1716.352	1700.502
460.168	29.908	1714.986	1699.618
461.182	30.339	1713.902	1702.316
462.197	30.760	1713.561	1705.649
463.212	31.182	1713.352	1709.121
464.226	32.116	1714.007	1718.171
465.241	32.259	1712.748	1718.017
466.255	32.010	1711.509	1714.276
467.270	32.188	1709.692	1713.888
468.285	32.896	1711.175	1721.657
469.299	33.648	1711.703	1728.883
470.314	33.849	1708.989	1727.773
471.328	33.576	1708.101	1724.175
472.343	33.536	1707.539	1723.032
473.358	33.508	1705.743	1720.761
474.372	33.731	1704.052	1720.877
475.387	34.287	1704.263	1725.952
476.401	34.323	1702.168	1723.950
477.416	33.525	1699.075	1713.360
478.430	33.183	1698.435	1709.408
479.445	33.674	1698.831	1714.065
480.460	33.880	1697.316	1714.198
481.474	33.999	1696.492	1714.234
482.489	33.954	1695.537	1712.661
483.503	33.194	1691.938	1701.946
484.518	32.806	1689.303	1695.586
485.533	33.257	1689.267	1699.426
486.547	33.102	1686.837	1695.374
487.562	32.027	1683.918	1682.562
488.576	32.616	1683.825	1687.570
489.591	33.550	1684.656	1696.612
490.606	33.811	1683.932	1698.026
491.620	33.925	1682.176	1697.069
492.635	33.644	1678.775	1690.920
493.649	32.586	1676.472	1678.927
494.664	32.645	1676.214	1678.992
495.679	33.440	1676.479	1686.179
496.693	33.634	1675.028	1686.252
497.708	33.553	1673.951	1684.243
498.722	33.069	1672.150	1677.911
499.737	33.247	1670.922	1678.057
500.752	33.441	1669.599	1678.263
501.766	33.662	1668.330	1678.751
502.781	33.606	1666.351	1676.063
503.795	33.650	1665.754	1675.649
504.810	33.575	1664.278	1673.298
505.825	33.325	1662.886	1669.480
506.839	32.623	1660.809	1660.982
507.854	32.328	1658.373	1655.739
508.868	31.955	1655.808	1649.677
509.883	31.069	1652.889	1638.749
510.898	30.491	1650.011	1630.610
511.912	30.264	1647.949	1626.375
512.927	29.928	1646.186	1621.484
513.941	30.012	1644.396	1620.260
514.956	30.192	1644.485	1621.742
515.971	30.834	1644.125	1626.829
516.985	30.319	1642.134	1620.147
518.000	29.900	1640.346	1614.516
519.014	29.939	1639.204	1613.541
520.029	29.931	1637.843	1611.941
521.043	29.799	1636.144	1608.921
522.058	29.942	1635.708	1609.549
523.073	30.135	1634.167	1609.524
524.087	30.059	1633.726	1608.232
525.102	30.557	1633.426	1612.088
526.116	31.775	1635.003	1624.069
527.131	32.692	1635.123	1631.981
528.146	32.646	1633.645	1629.907
529.160	32.655	1633.048	1629.197
530.175	32.849	1632.660	1630.296
531.189	32.753	1631.816	1628.427
532.204	32.636	1629.931	1625.340
533.219	32.928	1628.559	1626.302
534.233	33.225	1628.613	1628.729
535.248	32.451	1626.583	1619.811
536.262	31.894	1624.638	1612.871
537.277	32.452	1624.780	1617.638
538.292	33.084	1624.448	1622.576
539.306	33.259	1621.883	1621.324
540.321	32.479	1619.293	1611.827
541.335	31.932	1616.862	1604.518
542.350	32.383	1616.191	1607.535
543.365	32.779	1616.422	1610.969
544.379	33.278	1614.820	1613.456
545.394	32.897	1613.336	1608.520
546.408	32.495	1611.470	1603.025
547.423	33.018	1611.844	1607.688
548.438	33.716	1612.325	1613.937
549.452	33.700	1609.995	1611.276
550.467	32.752	1608.221	1601.227
551.481	32.511	1606.627	1597.388
552.496	32.468	1605.290	1595.501
553.511	32.497	1603.426	1593.708
554.525	32.468	1603.049	1592.893
555.540	32.363	1602.850	1591.611
556.554	32.634	1601.571	1592.451
557.569	32.342	1598.846	1587.082
558.583	31.873	1596.347	1580.434
559.598	31.683	1595.359	1577.658
560.613	31.534	1593.636	1574.505
561.627	31.210	1591.130	1569.109
562.642	30.647	1588.212	1561.295
563.656	30.021	1586.410	1554.052
564.671	29.873	1584.550	1550.797
565.686	29.768	1582.404	1547.633
566.700	29.803	1581.655	1547.007
567.715	29.738	1579.990	1544.649
568.729	29.817	1579.674	1544.820
569.744	30.239	1578.862	1547.375
570.759	30.465	1577.591	1547.837
571.773	30.191	1575.426	1543.237
572.788	29.855	1574.524	1539.361
573.802	29.723	1573.100	1536.681
574.817	29.647	1571.451	1534.250
575.832	29.661	1570.986	1533.730
576.846	30.277	1570.905	1538.603
577.861	31.290	1570.807	1546.766
578.875	31.560	1570.950	1548.966
579.890	31.795	1570.651	1550.437
580.905	31.930	1569.613	1550.352
581.919	32.014	1569.440	1550.689
582.934	32.166	1568.449	1550.791
583.948	31.920	1565.979	1546.124
584.963	31.838	1565.200	1544.490
585.978	32.095	1564.068	1545.311
586.992	31.486	1562.640	1538.687
588.007	31.402	1561.973	1537.148
589.021	31.343	1559.111	1533.661
590.036	30.406	1556.428	1523.119
591.051	30.971	1556.373	1527.542
592.065	31.549	1556.021	1531.769
593.080	31.506	1554.760	1529.987
594.094	31.880	1552.797	1530.945
595.109	32.072	1552.988	1532.525
596.123	32.858	1552.849	1538.652
597.138	33.004	1551.298	1538.124
598.153	32.148	1549.187	1528.843
599.167	31.743	1546.961	1523.162
600.182	31.483	1545.844	1519.754
601.196	31.673	1545.321	1520.609
602.211	32.183	1544.603	1523.878
603.226	31.736	1542.765	1518.242
604.240	31.984	1541.874	1519.206
605.255	32.037	1540.296	1517.899
606.269	31.676	1539.245	1513.744
607.284	31.577	1537.769	1511.309
608.299	31.406	1536.231	1508.231
609.313	31.237	1534.358	1504.844
610.328	30.963	1533.255	1501.360
611.342	31.001	1531.895	1500.158
612.357	30.987	1530.380	1498.385
613.372	30.748	1528.549	1494.482
614.386	30.481	1527.422	1491.050
615.401	30.463	1526.236	1489.564
616.415	30.090	1525.610	1485.775
617.430	29.696	1524.141	1480.991
618.445	29.606	1521.549	1477.570
619.459	29.536	1520.936	1476.237
620.474	29.709	1519.722	1476.266
621.488	30.021	1519.436	1478.320
622.503	30.806	1519.216	1484.219
623.518	30.129	1516.626	1476.097
624.532	29.500	1515.063	1469.366
625.547	29.577	1513.372	1468.163
626.561	29.420	1512.439	1465.829
627.576	29.465	1511.357	1464.963
628.591	29.681	1510.301	1465.492
629.605	29.776	1510.338	1466.105
630.620	30.188	1510.423	1469.293
631.634	31.063	1510.099	1475.767
632.649	31.065	1508.436	1473.981
633.663	30.310	1505.611	1465.053
634.678	29.667	1503.746	1457.967
635.693	29.422	1501.752	1453.919
636.707	29.330	1499.932	1451.254
637.722	29.567	1498.910	1451.969
638.736	29.906	1499.538	1455.085
639.751	30.378	1499.327	1458.434
640.766	30.610	1498.692	1459.471
641.780	30.708	1496.992	1458.414
642.795	31.037	1496.730	1460.569
643.809	31.220	1496.268	1461.384
644.824	31.230	1496.671	1461.685
645.839	31.448	1496.277	1462.839
646.853	31.497	1493.603	1460.434
647.868	31.203	1492.119	1456.500
648.882	31.088	1490.761	1454.102
649.897	31.181	1489.063	1453.001
650.912	30.963	1487.143	1449.252
651.926	30.859	1485.996	1447.143
652.941	30.858	1485.846	1446.814
653.955	30.791	1483.452	1443.794
654.970	30.074	1480.906	1435.556
655.985	29.605	1478.809	1429.708
656.999	29.432	1476.932	1426.377
658.014	29.618	1475.799	1426.559
659.028	30.001	1475.995	1429.543
660.043	30.523	1476.142	1433.567
661.058	30.697	1475.356	1433.978
662.072	30.930	1474.046	1434.339
663.087	31.031	1473.218	1434.140
664.101	30.829	1472.767	1431.968
665.116	30.828	1471.816	1430.862
666.131	30.903	1470.890	1430.374
667.145	31.026	1469.538	1429.833
668.160	30.979	1467.848	1427.657
669.174	30.732	1465.901	1423.691
670.189	30.764	1465.362	1423.244
671.204	31.175	1465.003	1425.887
672.218	31.056	1464.096	1423.921
673.233	31.190	1462.278	1423.009
674.247	31.088	1460.342	1420.173
675.262	30.819	1459.445	1417.073
676.276	30.649	1458.653	1414.837
677.291	30.728	1458.146	1414.773
678.306	31.309	1457.594	1418.507
679.320	31.254	1455.444	1415.828
680.335	30.564	1454.277	1409.269
681.349	30.601	1453.824	1408.937
682.364	30.571	1453.039	1407.782
683.379	30.302	1450.979	1403.574
684.393	30.066	1448.431	1399.148
685.408	30.003	1447.564	1397.664
686.422	30.092	1446.039	1396.698
687.437	29.719	1444.912	1392.624
688.452	29.403	1444.523	1389.683
689.466	29.192	1442.367	1385.850
690.481	29.388	1440.976	1385.830
691.495	29.301	1440.937	1384.968
692.510	29.929	1442.198	1390.760
693.525	30.995	1441.183	1397.649
694.539	30.427	1439.195	1391.284
695.554	29.457	1436.909	1381.607
696.568	29.296	1435.106	1378.504
697.583	29.220	1434.734	1377.410
698.598	29.475	1434.236	1378.675
699.612	29.593	1432.728	1377.946
700.627	29.715	1432.314	1378.300
701.641	30.466	1431.271	1382.756
702.656	30.470	1430.590	1381.959
703.671	30.239	1430.577	1380.054
704.685	30.424	1429.822	1380.540
705.700	30.501	1428.810	1379.975
706.714	30.257	1427.243	1376.478
707.729	30.258	1425.719	1374.853
708.744	30.225	1423.781	1372.574
709.758	30.052	1421.798	1369.208
710.773	29.271	1420.065	1361.584
711.787	29.382	1418.228	1360.477
712.802	29.814	1417.888	1363.194
713.816	30.112	1417.879	1365.227
714.831	30.200	1417.420	1365.275
715.846	30.149	1415.736	1363.113
716.860	29.979	1414.725	1360.717
717.875	30.130	1413.303	1360.301
718.889	30.085	1412.153	1358.698
719.904	29.921	1411.330	1356.541
720.919	29.952	1409.645	1354.986
721.933	29.814	1409.111	1353.293
722.948	29.710	1408.634	1351.907
723.962	29.885	1407.243	1351.698
724.977	29.931	1405.719	1350.407
725.992	29.969	1406.025	1350.818
727.006	30.420	1405.163	1353.136
728.021	30.356	1402.465	1349.909
729.035	30.232	1401.014	1347.441
730.050	30.393	1400.121	1347.598
731.065	30.238	1399.116	1345.340
732.079	30.019	1398.339	1342.834
733.094	30.139	1398.199	1343.411
734.108	30.435	1396.645	1343.910
735.123	30.365	1394.766	1341.438
736.138	30.029	1393.976	1338.075
737.152	29.928	1392.756	1336.013
738.167	30.025	1391.335	1335.191
739.181	30.024	1390.821	1334.535
740.196	30.041	1390.219	1333.920
741.211	29.850	1389.293	1331.489
742.225	29.831	1387.927	1329.882
743.240	29.755	1385.901	1327.234
744.254	29.690	1384.126	1324.909
745.269	29.410	1382.898	1321.556
746.284	29.139	1382.373	1318.947
747.298	29.098	1381.499	1317.658
748.313	29.162	1380.825	1317.321
749.327	29.383	1380.461	1318.400
750.342	29.986	1381.581	1323.646
751.356	30.897	1380.771	1329.246
752.371	30.742	1378.772	1326.059
753.386	29.758	1375.746	1315.952
754.400	29.738	1374.714	1314.664
755.415	29.834	1374.600	1315.080
756.429	29.990	1373.316	1314.814
757.444	30.303	1371.831	1315.466
758.459	29.918	1370.829	1311.604
759.473	29.820	1369.497	1309.474
760.488	29.631	1367.994	1306.537
761.502	29.435	1366.644	1303.704
762.517	29.595	1366.001	1304.063
763.532	29.893	1364.825	1304.899
764.546	29.592	1363.331	1301.185
765.561	29.100	1362.195	1296.460
766.575	28.771	1360.494	1292.364
767.590	28.723	1359.633	1291.052
768.605	29.343	1359.280	1294.936
769.619	29.495	1358.747	1295.350
770.634	29.457	1357.857	1294.079
771.648	29.480	1355.927	1292.244
772.663	29.357	1355.224	1290.555
773.678	29.367	1355.376	1290.615
774.692	29.821	1354.493	1292.811
775.707	29.723	1354.153	1291.643
776.721	29.814	1353.056	1291.083
777.736	29.572	1351.492	1287.739
778.751	29.682	1350.917	1287.805
779.765	29.839	1349.814	1287.699
780.780	29.673	1349.078	1285.683
781.794	29.915	1347.748	1285.948
782.809	29.570	1345.975	1281.701
783.824	29.012	1345.002	1276.728
784.838	29.341	1343.800	1277.727
785.853	29.968	1343.880	1282.014
786.867	29.585	1342.774	1278.141
787.882	29.201	1341.551	1274.156
788.897	29.196	1340.068	1272.563
789.911	29.124	1338.539	1270.457
790.926	29.021	1337.792	1268.879
791.940	29.116	1337.303	1268.925
792.955	29.192	1335.410	1267.499
793.969	29.220	1334.217	1266.409
794.984	29.309	1333.854	1266.529
795.999	29.652	1332.981	1267.915
797.013	29.795	1331.584	1267.422
798.028	29.640	1330.257	1264.938
799.042	29.632	1330.046	1264.533
800.057	29.566	1329.031	1262.965
801.072	29.597	1327.459	1261.529
802.086	29.561	1326.052	1259.797
803.101	29.609	1325.034	1259.003
804.115	29.522	1324.209	1257.474
805.130	29.638	1323.286	1257.244
806.145	29.502	1321.541	1254.501
807.159	29.411	1320.133	1252.400
808.174	29.505	1319.600	1252.383
809.188	29.308	1318.653	1249.991
810.203	29.243	1316.701	1247.549
811.218	29.066	1314.642	1244.248
812.232	28.726	1313.144	1240.372
813.247	28.439	1312.281	1237.460
814.261	28.791	1312.534	1239.943
815.276	29.123	1311.987	1241.523
816.291	29.137	1310.494	1240.055
817.305	29.193	1309.350	1239.210
818.320	29.253	1308.602	1238.759
819.334	29.249	1308.204	1238.206
820.349	29.495	1306.606	1238.202
821.364	29.541	1305.219	1237.051
822.378	29.320	1304.390	1234.624
823.393	29.430	1302.338	1233.278
824.407	29.305	1301.403	1231.403
825.422	29.294	1301.012	1230.814
826.437	29.384	1299.772	1230.095
827.451	29.158	1297.924	1226.685
828.466	29.269	1297.273	1226.669
829.480	29.669	1296.060	1228.048
830.495	29.140	1293.655	1222.094
831.509	29.108	1292.524	1220.663
832.524	29.235	1291.452	1220.351
833.539	29.463	1291.190	1221.476
834.553	29.490	1289.922	1220.310
835.568	29.255	1288.802	1217.544
836.582	29.254	1287.909	1216.546
837.597	29.363	1285.898	1215.224
838.612	29.280	1284.406	1213.118
839.626	29.109	1283.409	1210.903
840.641	28.928	1282.486	1208.689
841.655	28.687	1281.556	1206.082
842.670	28.477	1280.306	1203.376
843.685	28.336	1279.143	1201.209
844.699	28.736	1277.665	1202.306
845.714	28.908	1276.541	1202.233
846.728	28.813	1276.143	1201.094
847.743	28.839	1275.608	1200.618
848.758	29.104	1274.184	1200.871
849.772	29.224	1273.439	1200.811
850.787	29.251	1272.513	1199.968
851.801	29.046	1271.464	1197.495
852.816	29.197	1270.116	1197.074
853.831	29.140	1268.924	1195.435
854.845	29.173	1267.206	1193.885
855.860	29.008	1265.428	1190.993
856.874	28.959	1264.069	1189.257
857.889	29.230	1263.109	1189.967
858.904	29.271	1262.392	1189.417
859.918	29.725	1261.198	1191.091
860.933	29.842	1260.480	1191.029
861.947	29.468	1259.420	1187.466
862.962	29.244	1257.523	1184.085
863.977	29.130	1256.195	1181.960
864.991	29.027	1255.573	1180.566
866.006	28.954	1255.759	1180.127
867.020	29.112	1254.108	1179.455
868.035	29.297	1252.253	1178.759
869.049	29.120	1251.952	1177.197
870.064	29.120	1251.178	1176.330
871.079	29.175	1250.276	1175.691
872.093	28.923	1249.827	1173.513
873.108	28.955	1248.041	1171.901
874.122	28.856	1245.994	1169.203
875.137	28.502	1245.749	1166.569
876.152	28.401	1244.698	1164.805
877.166	28.449	1242.823	1163.212
878.181	28.702	1241.676	1163.612
879.195	28.922	1241.252	1164.478
880.210	28.948	1241.129	1164.387
881.225	29.022	1240.859	1164.468
882.239	29.135	1239.187	1163.476
883.254	29.072	1238.733	1162.514
884.268	29.180	1238.323	1162.671
885.283	29.055	1236.820	1160.329
886.298	29.131	1234.750	1158.728
887.312	29.025	1234.310	1157.510
888.327	29.012	1233.608	1156.632
889.341	29.062	1231.708	1155.028
890.356	29.095	1230.769	1154.217
891.371	28.963	1230.875	1153.343
892.385	29.093	1230.148	1153.345
893.400	29.142	1229.283	1152.700
894.414	29.078	1228.114	1151.063
895.429	29.199	1226.571	1150.240
896.444	29.936	1225.977	1154.169
897.458	30.608	1225.651	1157.932
898.473	30.053	1224.141	1152.893
899.487	29.269	1222.919	1146.704
900.502	29.070	1221.335	1143.839
901.517	29.134	1219.605	1142.482
902.531	29.166	1218.826	1141.817
903.546	29.164	1218.469	1141.330
904.560	29.073	1217.926	1140.118
905.575	29.004	1216.566	1138.279
906.589	29.086	1215.172	1137.349
907.604	28.990	1214.317	1135.813
